,ECG
0,35776
1,36480
2,37184
3,37696
4,37696
5,36736
6,35264
7,33664
8,32512
9,31744
10,31424
11,31552
12,32064
13,32640
14,33280
15,33856
16,34368
17,34816
18,35008
19,35008
20,34944
21,34880
22,34688
23,34560
24,34496
25,34496
26,34432
27,34304
28,34240
29,34304
30,34368
31,34368
32,34304
33,34368
34,34432
35,34432
36,34432
37,34496
38,34560
39,34560
40,34560
41,34560
42,34624
43,34624
44,34560
45,34560
46,34688
47,34688
48,34624
49,34624
50,34688
51,34688
52,34624
53,34624
54,34688
55,34752
56,34688
57,34624
58,34752
59,34816
60,34752
61,34752
62,34688
63,34752
64,34752
65,34624
66,34624
67,34688
68,34624
69,34496
70,34368
71,34496
72,34560
73,34496
74,34496
75,34496
76,34432
77,34240
78,34112
79,34112
80,34048
81,33984
82,33856
83,33920
84,33984
85,33856
86,33856
87,33920
88,34048
89,34048
90,33920
91,33920
92,33984
93,33984
94,33920
95,33984
96,34048
97,34112
98,34048
99,33984
100,34048
101,34048
102,34048
103,34048
104,34112
105,34112
106,34048
107,33984
108,34048
109,34112
110,34048
111,34048
112,34048
113,34112
114,34048
115,34048
116,34048
117,34176
118,34176
119,34112
120,34112
121,34176
122,34176
123,34048
124,34048
125,34048
126,34048
127,33984
128,33984
129,34048
130,34112
131,34048
132,33920
133,33920
134,33984
135,34048
136,34048
137,34048
138,34112
139,34048
140,33984
141,33984
142,34112
143,34048
144,33984
145,33984
146,34048
147,34112
148,33984
149,33920
150,33984
151,33984
152,33920
153,33920
154,33984
155,34048
156,34048
157,33920
158,33920
159,34048
160,34048
161,34048
162,34112
163,34240
164,34176
165,34112
166,34112
167,34176
168,34112
169,34048
170,33984
171,34048
172,34112
173,34176
174,34304
175,34432
176,34496
177,34368
178,34240
179,34240
180,34304
181,34240
182,34240
183,34304
184,34304
185,34112
186,33984
187,33984
188,34048
189,33920
190,33856
191,33856
192,33856
193,33856
194,33728
195,33792
196,33920
197,33984
198,33920
199,33920
200,33984
201,34112
202,34048
203,33984
204,34112
205,34112
206,34048
207,33984
208,34048
209,34048
210,34048
211,34048
212,34176
213,34432
214,34560
215,34816
216,35392
217,36224
218,36992
219,37504
220,37440
221,36608
222,35136
223,33536
224,32192
225,31488
226,31232
227,31424
228,32000
229,32640
230,33280
231,33856
232,34240
233,34560
234,34816
235,34816
236,34752
237,34752
238,34752
239,34560
240,34368
241,34304
242,34304
243,34304
244,34176
245,34176
246,34240
247,34240
248,34240
249,34240
250,34304
251,34240
252,34176
253,34176
254,34304
255,34368
256,34304
257,34304
258,34368
259,34432
260,34368
261,34368
262,34368
263,34432
264,34432
265,34368
266,34432
267,34496
268,34496
269,34496
270,34496
271,34560
272,34624
273,34624
274,34624
275,34688
276,34688
277,34624
278,34560
279,34624
280,34688
281,34624
282,34560
283,34560
284,34624
285,34560
286,34496
287,34496
288,34560
289,34496
290,34432
291,34368
292,34432
293,34304
294,34112
295,34048
296,34112
297,34048
298,33920
299,33856
300,33920
301,33920
302,33856
303,33856
304,33920
305,33984
306,33984
307,33920
308,33984
309,34048
310,33984
311,33984
312,34048
313,34112
314,34112
315,34048
316,34048
317,34112
318,34112
319,34048
320,34048
321,34112
322,34176
323,34112
324,34048
325,34112
326,34176
327,34112
328,34048
329,34112
330,34112
331,34048
332,33984
333,34048
334,34176
335,34112
336,34048
337,34112
338,34240
339,34176
340,34112
341,34112
342,34176
343,34112
344,34048
345,34112
346,34176
347,34176
348,34112
349,34048
350,34112
351,34112
352,34048
353,33984
354,34048
355,34048
356,33984
357,33984
358,33984
359,34048
360,34048
361,33984
362,34048
363,34112
364,34112
365,34048
366,34048
367,34112
368,34112
369,34048
370,34048
371,34176
372,34112
373,33984
374,33984
375,34048
376,34112
377,34048
378,34048
379,34112
380,34176
381,34176
382,34112
383,34112
384,34240
385,34176
386,34112
387,34112
388,34176
389,34048
390,33920
391,33920
392,34048
393,33984
394,33984
395,34048
396,34112
397,34176
398,34176
399,34176
400,34304
401,34304
402,34240
403,34240
404,34304
405,34368
406,34304
407,34304
408,34368
409,34432
410,34304
411,34176
412,34112
413,34048
414,33920
415,33728
416,33728
417,33856
418,33792
419,33792
420,33728
421,33792
422,33792
423,33856
424,33920
425,34048
426,34112
427,34048
428,34048
429,34048
430,34112
431,33984
432,33920
433,33984
434,34048
435,33984
436,33856
437,33856
438,33856
439,33920
440,33920
441,34112
442,34368
443,34688
444,35136
445,35776
446,36608
447,37376
448,37568
449,36928
450,35712
451,34112
452,32640
453,31552
454,31168
455,31296
456,31744
457,32320
458,33024
459,33728
460,34240
461,34560
462,34752
463,34816
464,34624
465,34496
466,34432
467,34560
468,34624
469,34560
470,34624
471,34688
472,34688
473,34688
474,34688
475,34688
476,34688
477,34688
478,34752
479,34880
480,34880
481,34752
482,34688
483,34688
484,34624
485,34560
486,34496
487,34560
488,34560
489,34496
490,34432
491,34432
492,34432
493,34432
494,34368
495,34368
496,34432
497,34496
498,34496
499,34496
500,34624
501,34752
502,34880
503,35072
504,35072
505,34880
506,34496
507,34240
508,34240
509,34368
510,34432
511,34560
512,34624
513,34752
514,34816
515,34752
516,34688
517,34688
518,34688
519,34624
520,34560
521,34496
522,34304
523,34112
524,33984
525,33920
526,33856
527,33728
528,33728
529,33792
530,33856
531,33856
532,33856
533,33920
534,33920
535,33920
536,33920
537,33920
538,33920
539,33920
540,34048
541,34240
542,34368
543,34432
544,34432
545,34496
546,34496
547,34368
548,34112
549,33920
550,33792
551,33728
552,33728
553,33792
554,33984
555,34048
556,34112
557,34048
558,34112
559,34112
560,34048
561,33984
562,33920
563,33856
564,33792
565,33792
566,33792
567,33856
568,33792
569,33856
570,33920
571,34048
572,34112
573,34048
574,33984
575,33920
576,33984
577,33984
578,33984
579,33920
580,33920
581,33856
582,33856
583,33920
584,33920
585,33920
586,33856
587,33920
588,33920
589,33920
590,33920
591,33920
592,33920
593,33920
594,33920
595,33920
596,33920
597,33920
598,33856
599,33792
600,33792
601,33792
602,33792
603,33728
604,33728
605,33728
606,33792
607,33792
608,33792
609,33856
610,33856
611,33792
612,33856
613,33920
614,33920
615,33856
616,33920
617,33984
618,33984
619,33920
620,33856
621,33856
622,33792
623,33728
624,33664
625,33792
626,33856
627,33856
628,33792
629,33856
630,33856
631,33792
632,33728
633,33728
634,33792
635,33792
636,33792
637,33856
638,34048
639,34048
640,34048
641,34048
642,33984
643,33856
644,33792
645,33728
646,33856
647,33856
648,33856
649,33920
650,34048
651,34176
652,34176
653,34112
654,34176
655,34176
656,34112
657,34048
658,34112
659,34112
660,34048
661,33984
662,34112
663,34304
664,34496
665,34752
666,35264
667,35904
668,36608
669,37248
670,37248
671,36352
672,34496
673,33088
674,31936
675,31296
676,31040
677,31168
678,31744
679,32448
680,33216
681,33792
682,34304
683,34688
684,34944
685,35072
686,35072
687,35072
688,35008
689,34880
690,34688
691,34560
692,34560
693,34432
694,34304
695,34176
696,34176
697,34176
698,34176
699,34176
700,34240
701,34240
702,34240
703,34240
704,34240
705,34304
706,34304
707,34304
708,34304
709,34304
710,34240
711,34176
712,34240
713,34304
714,34240
715,34176
716,34176
717,34240
718,34240
719,34240
720,34240
721,34304
722,34368
723,34432
724,34496
725,34624
726,34688
727,34688
728,34752
729,34816
730,34880
731,34816
732,34752
733,34752
734,34688
735,34624
736,34560
737,34560
738,34624
739,34496
740,34432
741,34368
742,34304
743,34240
744,34112
745,34048
746,34112
747,34048
748,34048
749,34112
750,34176
751,34176
752,33984
753,33920
754,33920
755,33856
756,33728
757,33664
758,33792
759,34048
760,34112
761,34112
762,34112
763,34112
764,34048
765,33984
766,34048
767,34112
768,34048
769,34048
770,34048
771,34112
772,34112
773,34048
774,33984
775,33984
776,34048
777,34048
778,34048
779,34176
780,34240
781,34240
782,34304
783,34304
784,34304
785,34240
786,34176
787,34176
788,34176
789,34176
790,34112
791,34112
792,34240
793,34304
794,34304
795,34304
796,34176
797,34112
798,33984
799,34048
800,34176
801,34304
802,34304
803,34240
804,34176
805,33984
806,33856
807,33792
808,33856
809,33984
810,34112
811,34240
812,34368
813,34368
814,34176
815,34048
816,34048
817,33984
818,33792
819,33472
820,33408
821,33536
822,33792
823,33920
824,33984
825,34048
826,34112
827,34176
828,34176
829,34112
830,34112
831,34048
832,34048
833,34240
834,34432
835,34496
836,34432
837,34368
838,34432
839,34368
840,34368
841,34368
842,34304
843,34176
844,33984
845,34048
846,34112
847,34112
848,34048
849,34048
850,34112
851,34176
852,34112
853,34112
854,34176
855,34240
856,34304
857,34304
858,34368
859,34432
860,34432
861,34368
862,34240
863,34112
864,33984
865,33856
866,33984
867,34112
868,34048
869,33856
870,33856
871,33984
872,34112
873,34240
874,34368
875,34496
876,34496
877,34432
878,34432
879,34496
880,34624
881,34624
882,34752
883,35072
884,35648
885,36352
886,37120
887,37696
888,37568
889,36544
890,35008
891,33536
892,32512
893,31808
894,31360
895,31424
896,32064
897,32768
898,33472
899,34112
900,34560
901,34880
902,34944
903,35008
904,35008
905,34816
906,34688
907,34496
908,34496
909,34432
910,34368
911,34240
912,34240
913,34176
914,34112
915,34112
916,34112
917,34112
918,34048
919,34048
920,34112
921,34304
922,34368
923,34304
924,34368
925,34496
926,34496
927,34432
928,34432
929,34496
930,34496
931,34432
932,34304
933,34304
934,34304
935,34240
936,34304
937,34432
938,34560
939,34624
940,34560
941,34624
942,34816
943,34752
944,34688
945,34688
946,34688
947,34688
948,34624
949,34688
950,34752
951,34752
952,34752
953,34752
954,34752
955,34816
956,34752
957,34688
958,34624
959,34624
960,34496
961,34304
962,34304
963,34368
964,34176
965,34048
966,33984
967,34112
968,34176
969,34176
970,34176
971,34048
972,34048
973,34048
974,34176
975,34240
976,34240
977,34176
978,34176
979,34176
980,34112
981,33984
982,33984
983,33984
984,33984
985,33920
986,33920
987,34048
988,34048
989,34112
990,34176
991,34304
992,34368
993,34304
994,34240
995,34176
996,34112
997,33984
998,34048
999,34112
1000,34176
1001,34176
1002,34048
1003,34048
1004,34048
1005,34048
1006,34048
1007,33984
1008,34048
1009,34176
1010,34112
1011,34048
1012,33984
1013,34048
1014,33984
1015,33920
1016,33920
1017,33984
1018,33920
1019,33920
1020,33984
1021,34112
1022,34176
1023,34112
1024,34240
1025,34240
1026,34240
1027,34176
1028,34176
1029,34240
1030,34304
1031,34240
1032,34240
1033,34240
1034,34240
1035,34112
1036,34048
1037,34048
1038,34112
1039,34112
1040,34048
1041,34048
1042,34112
1043,34176
1044,34176
1045,34240
1046,34240
1047,34240
1048,34176
1049,34240
1050,34304
1051,34304
1052,34240
1053,34240
1054,34304
1055,34304
1056,34240
1057,34176
1058,34240
1059,34304
1060,34240
1061,34176
1062,34240
1063,34240
1064,34240
1065,34240
1066,34240
1067,34240
1068,34176
1069,34112
1070,34176
1071,34240
1072,34304
1073,34432
1074,34560
1075,34560
1076,34368
1077,34176
1078,34112
1079,34304
1080,34368
1081,34112
1082,33920
1083,33856
1084,33920
1085,33792
1086,33728
1087,33856
1088,34240
1089,34368
1090,34432
1091,34496
1092,34432
1093,34304
1094,34176
1095,34112
1096,34176
1097,34240
1098,34176
1099,34048
1100,33984
1101,33856
1102,33792
1103,33792
1104,33856
1105,33856
1106,33856
1107,33792
1108,33856
1109,33920
1110,33984
1111,33984
1112,34176
1113,34368
1114,34368
1115,34368
1116,34368
1117,34304
1118,34112
1119,34048
1120,34240
1121,34368
1122,34560
1123,34816
1124,35328
1125,36864
1126,37376
1127,37312
1128,36480
1129,36352
1130,33600
1131,32320
1132,31680
1133,31488
1134,31680
1135,32256
1136,33024
1137,33536
1138,33984
1139,34368
1140,34304
1141,34752
1142,34752
1143,34688
1144,34432
1145,34304
1146,34240
1147,34176
1148,34176
1149,34112
1150,34240
1151,34304
1152,34432
1153,34560
1154,34496
1155,34368
1156,34240
1157,34176
1158,34176
1159,34112
1160,33984
1161,34112
1162,34176
1163,34112
1164,33920
1165,33792
1166,33920
1167,33856
1168,33856
1169,33920
1170,34048
1171,34112
1172,34240
1173,34368
1174,34304
1175,34560
1176,34496
1177,34560
1178,34624
1179,34688
1180,34624
1181,34496
1182,34432
1183,34304
1184,34112
1185,33984
1186,33728
1187,33472
1188,33152
1189,33088
1190,32832
1191,32832
1192,32832
1193,32896
1194,32896
1195,32960
1196,32896
1197,32832
1198,32576
1199,32576
1200,32640
1201,32640
1202,32640
1203,32576
1204,32448
1205,32384
1206,32256
1207,32320
1208,32256
1209,32128
1210,32000
1211,31936
1212,32000
1213,32000
1214,32192
1215,32576
1216,33216
1217,33728
1218,34048
1219,34048
1220,34816
1221,35136
1222,35328
1223,35648
1224,35904
1225,36416
1226,37376
1227,37376
1228,37888
1229,38016
1230,37952
1231,37504
1232,36864
1233,35904
1234,34880
1235,33984
1236,33536
1237,33408
1238,33408
1239,33472
1240,33600
1241,33920
1242,33856
1243,34048
1244,34176
1245,34240
1246,34368
1247,34496
1248,34880
1249,34816
1250,35136
1251,35008
1252,35072
1253,35584
1254,36096
1255,36224
1256,35840
1257,35776
1258,35264
1259,34944
1260,34688
1261,34624
1262,34688
1263,34816
1264,35008
1265,35136
1266,35264
1267,35008
1268,34496
1269,34112
1270,33856
1271,33664
1272,33600
1273,33600
1274,33728
1275,33856
1276,33984
1277,34048
1278,34112
1279,34176
1280,34176
1281,34176
1282,34240
1283,34304
1284,34304
1285,34240
1286,34304
1287,34368
1288,34368
1289,34240
1290,34112
1291,34048
1292,33920
1293,33856
1294,33920
1295,34048
1296,34048
1297,33984
1298,33984
1299,34112
1300,34176
1301,34240
1302,34368
1303,34432
1304,34496
1305,34368
1306,34304
1307,34304
1308,34368
1309,34368
1310,34368
1311,34368
1312,34240
1313,33984
1314,33792
1315,33728
1316,33728
1317,33728
1318,33664
1319,33600
1320,33664
1321,33664
1322,33600
1323,33600
1324,33728
1325,33792
1326,33920
1327,33920
1328,34048
1329,34048
1330,33984
1331,33984
1332,34112
1333,34176
1334,34112
1335,34048
1336,34112
1337,34240
1338,34112
1339,33984
1340,33920
1341,33920
1342,33920
1343,33856
1344,33856
1345,33856
1346,33984
1347,34048
1348,34112
1349,34112
1350,34048
1351,33984
1352,33984
1353,34112
1354,34240
1355,34304
1356,34304
1357,34432
1358,34560
1359,34560
1360,34624
1361,34880
1362,35328
1363,35904
1364,36672
1365,37440
1366,38208
1367,38336
1368,37504
1369,36032
1370,34304
1371,32768
1372,31680
1373,31232
1374,31360
1375,31872
1376,32512
1377,33152
1378,33856
1379,34368
1380,34688
1381,34816
1382,34944
1383,34944
1384,34944
1385,34880
1386,34880
1387,34816
1388,34688
1389,34560
1390,34560
1391,34560
1392,34560
1393,34496
1394,34432
1395,34432
1396,34304
1397,34240
1398,34240
1399,34304
1400,34368
1401,34304
1402,34304
1403,34368
1404,34432
1405,34496
1406,34496
1407,34496
1408,34496
1409,34432
1410,34368
1411,34432
1412,34496
1413,34560
1414,34560
1415,34624
1416,34688
1417,34624
1418,34560
1419,34560
1420,34624
1421,34624
1422,34624
1423,34624
1424,34688
1425,34752
1426,34688
1427,34688
1428,34688
1429,34688
1430,34624
1431,34560
1432,34560
1433,34560
1434,34432
1435,34304
1436,34304
1437,34304
1438,34176
1439,34048
1440,34048
1441,34048
1442,33984
1443,33856
1444,33792
1445,33856
1446,33856
1447,33920
1448,33920
1449,33856
1450,33792
1451,33792
1452,33792
1453,33856
1454,33920
1455,33920
1456,33920
1457,33920
1458,34112
1459,34112
1460,34112
1461,34176
1462,34112
1463,34048
1464,33984
1465,33984
1466,34048
1467,34048
1468,33984
1469,34048
1470,34112
1471,34176
1472,34048
1473,34048
1474,34048
1475,34112
1476,34048
1477,33984
1478,34048
1479,34112
1480,34112
1481,34048
1482,34112
1483,34176
1484,34176
1485,34176
1486,34240
1487,34240
1488,34240
1489,34240
1490,34240
1491,34240
1492,34176
1493,34112
1494,34176
1495,34240
1496,34240
1497,34048
1498,33984
1499,34048
1500,34112
1501,34176
1502,34176
1503,34176
1504,34176
1505,34048
1506,33984
1507,34048
1508,34112
1509,34112
1510,34112
1511,34176
1512,34240
1513,34176
1514,34048
1515,33984
1516,33984
1517,33920
1518,33856
1519,33856
1520,33920
1521,33920
1522,33856
1523,33792
1524,33856
1525,33920
1526,33856
1527,33792
1528,33856
1529,33984
1530,33984
1531,33984
1532,34048
1533,34048
1534,33984
1535,34048
1536,34112
1537,34176
1538,34112
1539,34048
1540,34048
1541,34112
1542,34048
1543,34048
1544,34048
1545,34176
1546,34176
1547,34112
1548,34112
1549,34112
1550,34048
1551,33984
1552,33920
1553,34048
1554,34048
1555,33984
1556,33920
1557,33920
1558,33920
1559,33792
1560,33728
1561,33728
1562,33792
1563,33664
1564,33600
1565,33600
1566,33792
1567,33856
1568,33920
1569,33984
1570,34048
1571,34112
1572,34048
1573,33984
1574,33920
1575,33920
1576,33856
1577,33856
1578,33920
1579,33984
1580,33920
1581,33856
1582,33856
1583,33856
1584,33792
1585,33728
1586,33792
1587,33920
1588,33920
1589,33856
1590,33920
1591,34048
1592,34048
1593,33984
1594,34048
1595,34176
1596,34304
1597,34368
1598,34432
1599,34432
1600,34368
1601,34368
1602,34368
1603,34560
1604,34880
1605,35136
1606,35584
1607,36288
1608,37056
1609,37440
1610,37120
1611,36096
1612,34688
1613,33152
1614,32000
1615,31296
1616,31232
1617,31424
1618,31936
1619,32576
1620,33344
1621,33984
1622,34432
1623,34688
1624,34944
1625,34944
1626,34944
1627,34880
1628,34880
1629,34880
1630,34688
1631,34496
1632,34432
1633,34368
1634,34240
1635,34176
1636,34176
1637,34176
1638,34176
1639,34112
1640,34112
1641,34240
1642,34240
1643,34176
1644,34240
1645,34368
1646,34432
1647,34368
1648,34304
1649,34432
1650,34432
1651,34304
1652,34240
1653,34304
1654,34368
1655,34240
1656,34240
1657,34304
1658,34304
1659,34240
1660,34240
1661,34368
1662,34496
1663,34432
1664,34432
1665,34432
1666,34496
1667,34432
1668,34368
1669,34368
1670,34432
1671,34432
1672,34304
1673,34304
1674,34368
1675,34368
1676,34368
1677,34304
1678,34304
1679,34304
1680,34240
1681,34176
1682,34240
1683,34240
1684,34176
1685,34048
1686,33984
1687,33984
1688,33920
1689,33792
1690,33728
1691,33792
1692,33728
1693,33664
1694,33728
1695,33856
1696,33856
1697,33856
1698,33856
1699,33920
1700,33920
1701,33856
1702,33856
1703,33984
1704,34048
1705,34048
1706,33984
1707,34048
1708,34048
1709,33984
1710,33856
1711,33920
1712,33984
1713,33920
1714,33856
1715,33920
1716,33984
1717,33984
1718,33920
1719,33920
1720,34048
1721,34048
1722,33984
1723,33920
1724,34048
1725,34048
1726,33984
1727,33920
1728,33984
1729,34048
1730,33984
1731,33920
1732,33984
1733,34048
1734,33984
1735,33920
1736,33920
1737,34048
1738,34112
1739,34048
1740,34112
1741,34176
1742,34176
1743,34112
1744,34176
1745,34240
1746,34176
1747,34112
1748,34048
1749,34048
1750,34048
1751,33984
1752,33920
1753,34048
1754,34048
1755,33984
1756,33920
1757,33984
1758,34048
1759,33984
1760,33920
1761,33984
1762,34048
1763,34048
1764,33984
1765,33984
1766,34048
1767,34048
1768,34048
1769,34048
1770,34048
1771,34048
1772,33984
1773,33984
1774,34048
1775,34048
1776,34048
1777,33984
1778,34112
1779,34176
1780,34176
1781,34176
1782,34240
1783,34304
1784,34240
1785,34176
1786,34240
1787,34368
1788,34304
1789,34240
1790,34240
1791,34304
1792,34240
1793,34176
1794,34176
1795,34304
1796,34304
1797,34304
1798,34304
1799,34368
1800,34368
1801,34240
1802,34112
1803,34176
1804,34240
1805,34176
1806,34176
1807,34304
1808,34304
1809,34240
1810,34112
1811,34112
1812,34176
1813,34112
1814,34048
1815,34112
1816,34176
1817,34112
1818,34048
1819,34112
1820,34176
1821,34176
1822,34112
1823,34112
1824,34176
1825,34240
1826,34176
1827,34112
1828,34176
1829,34304
1830,34368
1831,34560
1832,35008
1833,35520
1834,36096
1835,36736
1836,37440
1837,37696
1838,36864
1839,35456
1840,33856
1841,32512
1842,31616
1843,31168
1844,31360
1845,31936
1846,32640
1847,33216
1848,33792
1849,34432
1850,34816
1851,34944
1852,35008
1853,35136
1854,35072
1855,34944
1856,34816
1857,34752
1858,34752
1859,34560
1860,34432
1861,34368
1862,34368
1863,34368
1864,34304
1865,34304
1866,34368
1867,34304
1868,34240
1869,34304
1870,34368
1871,34432
1872,34368
1873,34368
1874,34496
1875,34560
1876,34496
1877,34496
1878,34560
1879,34560
1880,34496
1881,34496
1882,34560
1883,34624
1884,34560
1885,34560
1886,34624
1887,34688
1888,34688
1889,34688
1890,34688
1891,34816
1892,34816
1893,34752
1894,34816
1895,34880
1896,34880
1897,34816
1898,34752
1899,34816
1900,34816
1901,34688
1902,34688
1903,34752
1904,34752
1905,34688
1906,34560
1907,34560
1908,34560
1909,34432
1910,34304
1911,34304
1912,34304
1913,34176
1914,34048
1915,33984
1916,33984
1917,33920
1918,33856
1919,33856
1920,33984
1921,33984
1922,33984
1923,33984
1924,34112
1925,34112
1926,34048
1927,33984
1928,34048
1929,34112
1930,34048
1931,34048
1932,34112
1933,34176
1934,34176
1935,34112
1936,34112
1937,34176
1938,34112
1939,34048
1940,34112
1941,34176
1942,34176
1943,34112
1944,34112
1945,34240
1946,34176
1947,34112
1948,34112
1949,34240
1950,34240
1951,34112
1952,34112
1953,34112
1954,34112
1955,34048
1956,34048
1957,34112
1958,34176
1959,34112
1960,34112
1961,34112
1962,34176
1963,34112
1964,34048
1965,34112
1966,34176
1967,34112
1968,34048
1969,34048
1970,34112
1971,34048
1972,33984
1973,34048
1974,34112
1975,34112
1976,34048
1977,34048
1978,34048
1979,34112
1980,34048
1981,33984
1982,33984
1983,33984
1984,33984
1985,33984
1986,34048
1987,34112
1988,34048
1989,33984
1990,33984
1991,34048
1992,34048
1993,33984
1994,33984
1995,34112
1996,34112
1997,34048
1998,34048
1999,34112
2000,34176
2001,34048
2002,34048
2003,34176
2004,34176
2005,34112
2006,34048
2007,34048
2008,34112
2009,34048
2010,33984
2011,34048
2012,34112
2013,34112
2014,34048
2015,34112
2016,34176
2017,34176
2018,34112
2019,34112
2020,34176
2021,34176
2022,34048
2023,34048
2024,34112
2025,34112
2026,33984
2027,33984
2028,34048
2029,34176
2030,34176
2031,34176
2032,34240
2033,34304
2034,34176
2035,34048
2036,34048
2037,34112
2038,34048
2039,33984
2040,34048
2041,34112
2042,34112
2043,34048
2044,34048
2045,34112
2046,34048
2047,33920
2048,33920
2049,33984
2050,34048
2051,33984
2052,33984
2053,34112
2054,34112
2055,34048
2056,34048
2057,34112
2058,34176
2059,34112
2060,34048
2061,34112
2062,34176
2063,34240
2064,34304
2065,34496
2066,34880
2067,35264
2068,35840
2069,36544
2070,37376
2071,37824
2072,37440
2073,36224
2074,34752
2075,33216
2076,31936
2077,31296
2078,31232
2079,31616
2080,32128
2081,32768
2082,33408
2083,33984
2084,34304
2085,34560
2086,34752
2087,34880
2088,34816
2089,34688
2090,34624
2091,34624
2092,34560
2093,34368
2094,34304
2095,34368
2096,34304
2097,34176
2098,34176
2099,34240
2100,34304
2101,34176
2102,34176
2103,34304
2104,34304
2105,34240
2106,34240
2107,34304
2108,34368
2109,34304
2110,34240
2111,34368
2112,34432
2113,34432
2114,34368
2115,34368
2116,34496
2117,34496
2118,34432
2119,34432
2120,34560
2121,34560
2122,34496
2123,34496
2124,34624
2125,34688
2126,34624
2127,34624
2128,34752
2129,34816
2130,34752
2131,34688
2132,34752
2133,34816
2134,34752
2135,34688
2136,34688
2137,34752
2138,34688
2139,34560
2140,34560
2141,34624
2142,34560
2143,34432
2144,34432
2145,34368
2146,34240
2147,34112
2148,33984
2149,33984
2150,33984
2151,33856
2152,33728
2153,33792
2154,33792
2155,33728
2156,33728
2157,33856
2158,33984
2159,33984
2160,33984
2161,34048
2162,34176
2163,34112
2164,34048
2165,34112
2166,34176
2167,34112
2168,34048
2169,34048
2170,34112
2171,34112
2172,34048
2173,34048
2174,34112
2175,34112
2176,34048
2177,33984
2178,34048
2179,34112
2180,33984
2181,33920
2182,34048
2183,34112
2184,34048
2185,33984
2186,34048
2187,34112
2188,34048
2189,33984
2190,33984
2191,34112
2192,34048
2193,33984
2194,33984
2195,34048
2196,34048
2197,33984
2198,33920
2199,33984
2200,34048
2201,33920
2202,33856
2203,33984
2204,33984
2205,33920
2206,33856
2207,33984
2208,34048
2209,33984
2210,33984
2211,34048
2212,34176
2213,34176
2214,34176
2215,34112
2216,33984
2217,33920
2218,33920
2219,34048
2220,34112
2221,33920
2222,33728
2223,33600
2224,33728
2225,33728
2226,33728
2227,33728
2228,33920
2229,33984
2230,33984
2231,33984
2232,34112
2233,34112
2234,34048
2235,33920
2236,33984
2237,33984
2238,33984
2239,33856
2240,33856
2241,33920
2242,33920
2243,33856
2244,33856
2245,33984
2246,33920
2247,33856
2248,33920
2249,33984
2250,33984
2251,33856
2252,33856
2253,33920
2254,33920
2255,33856
2256,33920
2257,34048
2258,34112
2259,34048
2260,34048
2261,34176
2262,34176
2263,34176
2264,34048
2265,34112
2266,34112
2267,34048
2268,33984
2269,33984
2270,34048
2271,33984
2272,33856
2273,33792
2274,33920
2275,33984
2276,33920
2277,33920
2278,33984
2279,33984
2280,33984
2281,33920
2282,33984
2283,34112
2284,34048
2285,33984
2286,34048
2287,34112
2288,34112
2289,34048
2290,34240
2291,34432
2292,34560
2293,34688
2294,35072
2295,35648
2296,36224
2297,36864
2298,37440
2299,37376
2300,36352
2301,34816
2302,33344
2303,32256
2304,31616
2305,31296
2306,31488
2307,32064
2308,32704
2309,33280
2310,33728
2311,34240
2312,34624
2313,34816
2314,34816
2315,34816
2316,34880
2317,34752
2318,34624
2319,34496
2320,34496
2321,34368
2322,34240
2323,34240
2324,34304
2325,34240
2326,34176
2327,34176
2328,34240
2329,34240
2330,34176
2331,34176
2332,34240
2333,34304
2334,34240
2335,34240
2336,34304
2337,34368
2338,34368
2339,34304
2340,34368
2341,34432
2342,34368
2343,34368
2344,34432
2345,34496
2346,34496
2347,34432
2348,34496
2349,34624
2350,34624
2351,34624
2352,34560
2353,34688
2354,34688
2355,34624
2356,34560
2357,34688
2358,34688
2359,34688
2360,34624
2361,34688
2362,34752
2363,34624
2364,34560
2365,34560
2366,34624
2367,34624
2368,34496
2369,34432
2370,34432
2371,34368
2372,34176
2373,34112
2374,34112
2375,34048
2376,33984
2377,33920
2378,33984
2379,33984
2380,33856
2381,33856
2382,33920
2383,33984
2384,33920
2385,33920
2386,33984
2387,34048
2388,34048
2389,34048
2390,34048
2391,34176
2392,34112
2393,34048
2394,34048
2395,34176
2396,34176
2397,34048
2398,34048
2399,34176
2400,34176
2401,34112
2402,34048
2403,34112
2404,34176
2405,34112
2406,34048
2407,34112
2408,34176
2409,34048
2410,33984
2411,34048
2412,34176
2413,34048
2414,33984
2415,34048
2416,34176
2417,34112
2418,34048
2419,34048
2420,34176
2421,34112
2422,34048
2423,33984
2424,34048
2425,34048
2426,33984
2427,33920
2428,33984
2429,33984
2430,33920
2431,33920
2432,34048
2433,34048
2434,33984
2435,33920
2436,33984
2437,34048
2438,34048
2439,33984
2440,33984
2441,34112
2442,34048
2443,33984
2444,34048
2445,34112
2446,34176
2447,34048
2448,34048
2449,34112
2450,34048
2451,33984
2452,33984
2453,34048
2454,34112
2455,34048
2456,34048
2457,34112
2458,34176
2459,34176
2460,34112
2461,34112
2462,34176
2463,34112
2464,34048
2465,34048
2466,34176
2467,34176
2468,34048
2469,34048
2470,34176
2471,34112
2472,34112
2473,34112
2474,34240
2475,34240
2476,34176
2477,34176
2478,34304
2479,34304
2480,34176
2481,34048
2482,34048
2483,34048
2484,34048
2485,34048
2486,34176
2487,34304
2488,34240
2489,34240
2490,34176
2491,34176
2492,34112
2493,33984
2494,34048
2495,34176
2496,34176
2497,34112
2498,34176
2499,34240
2500,34176
2501,34048
2502,33984
2503,34048
2504,34048
2505,33984
2506,33920
2507,33984
2508,34048
2509,34048
2510,33984
2511,34112
2512,34176
2513,34176
2514,34112
2515,34176
2516,34240
2517,34304
2518,34240
2519,34304
2520,34432
2521,34560
2522,34816
2523,35328
2524,36032
2525,36736
2526,37376
2527,37568
2528,36992
2529,35648
2530,33984
2531,32512
2532,31616
2533,31296
2534,31424
2535,31872
2536,32576
2537,33280
2538,33856
2539,34240
2540,34624
2541,34880
2542,34944
2543,34880
2544,34880
2545,34816
2546,34688
2547,34560
2548,34496
2549,34496
2550,34368
2551,34240
2552,34176
2553,34304
2554,34304
2555,34176
2556,34112
2557,34176
2558,34240
2559,34176
2560,34176
2561,34176
2562,34240
2563,34240
2564,34176
2565,34240
2566,34368
2567,34368
2568,34304
2569,34304
2570,34432
2571,34432
2572,34368
2573,34368
2574,34496
2575,34496
2576,34432
2577,34496
2578,34624
2579,34624
2580,34560
2581,34496
2582,34624
2583,34752
2584,34688
2585,34624
2586,34688
2587,34816
2588,34752
2589,34688
2590,34688
2591,34688
2592,34624
2593,34624
2594,34624
2595,34624
2596,34560
2597,34432
2598,34432
2599,34432
2600,34368
2601,34240
2602,34112
2603,34112
2604,34048
2605,33920
2606,33856
2607,33856
2608,33920
2609,33856
2610,33856
2611,33920
2612,33984
2613,33984
2614,33920
2615,33984
2616,34048
2617,33984
2618,33920
2619,33984
2620,34048
2621,34048
2622,33984
2623,33984
2624,34112
2625,34112
2626,34048
2627,34112
2628,34176
2629,34176
2630,34112
2631,34112
2632,34176
2633,34240
2634,34176
2635,34112
2636,34176
2637,34240
2638,34176
2639,34048
2640,34048
2641,34112
2642,34112
2643,34048
2644,34048
2645,34112
2646,34176
2647,34112
2648,34112
2649,34176
2650,34112
2651,34048
2652,34048
2653,34112
2654,34112
2655,34048
2656,33984
2657,34048
2658,34048
2659,33984
2660,33920
2661,33984
2662,34048
2663,34048
2664,34048
2665,34048
2666,34176
2667,34112
2668,34048
2669,34048
2670,34112
2671,34048
2672,33984
2673,33984
2674,34112
2675,34112
2676,34048
2677,33984
2678,34048
2679,34112
2680,34048
2681,33984
2682,34048
2683,34112
2684,34048
2685,34048
2686,34048
2687,34112
2688,34048
2689,33984
2690,33984
2691,34112
2692,34112
2693,34048
2694,34048
2695,34112
2696,34112
2697,33984
2698,33984
2699,34112
2700,34112
2701,34048
2702,34048
2703,34112
2704,34112
2705,34048
2706,34048
2707,34176
2708,34176
2709,34048
2710,33920
2711,33920
2712,33984
2713,33920
2714,33920
2715,33984
2716,34112
2717,34176
2718,34112
2719,34112
2720,34176
2721,34112
2722,34048
2723,34048
2724,34112
2725,34176
2726,34176
2727,34240
2728,34240
2729,34240
2730,34112
2731,33984
2732,33984
2733,34048
2734,33984
2735,33984
2736,34048
2737,34176
2738,34112
2739,34048
2740,34112
2741,34176
2742,34176
2743,34112
2744,34176
2745,34240
2746,34176
2747,34176
2748,34176
2749,34432
2750,34560
2751,34688
2752,35072
2753,35712
2754,36416
2755,37120
2756,37632
2757,37440
2758,36544
2759,35008
2760,33408
2761,32256
2762,31616
2763,31424
2764,31616
2765,32192
2766,32832
2767,33408
2768,33920
2769,34368
2770,34752
2771,34880
2772,34880
2773,34880
2774,34880
2775,34816
2776,34688
2777,34560
2778,34496
2779,34432
2780,34304
2781,34240
2782,34240
2783,34240
2784,34176
2785,34176
2786,34240
2787,34240
2788,34176
2789,34176
2790,34240
2791,34368
2792,34368
2793,34304
2794,34368
2795,34432
2796,34432
2797,34432
2798,34432
2799,34496
2800,34496
2801,34432
2802,34432
2803,34496
2804,34496
2805,34496
2806,34432
2807,34496
2808,34560
2809,34496
2810,34496
2811,34624
2812,34688
2813,34624
2814,34560
2815,34624
2816,34688
2817,34688
2818,34624
2819,34688
2820,34752
2821,34688
2822,34624
2823,34624
2824,34688
2825,34624
2826,34560
2827,34496
2828,34496
2829,34432
2830,34304
2831,34176
2832,34112
2833,34112
2834,33920
2835,33856
2836,33920
2837,33920
2838,33856
2839,33856
2840,33856
2841,33920
2842,33856
2843,33856
2844,33920
2845,34048
2846,34048
2847,33984
2848,34048
2849,34112
2850,34112
2851,34048
2852,34048
2853,34176
2854,34176
2855,34112
2856,34112
2857,34176
2858,34176
2859,34112
2860,34112
2861,34112
2862,34176
2863,34112
2864,34048
2865,34048
2866,34112
2867,34048
2868,33984
2869,33984
2870,34048
2871,34048
2872,33984
2873,34048
2874,34112
2875,34112
2876,34048
2877,34112
2878,34112
2879,34176
2880,34048
2881,33984
2882,34048
2883,34048
2884,33984
2885,33920
2886,33984
2887,34048
2888,33920
2889,33856
2890,33920
2891,34048
2892,33984
2893,33920
2894,33920
2895,34048
2896,33984
2897,33920
2898,33920
2899,33984
2900,33984
2901,33984
2902,33984
2903,34048
2904,34048
2905,33984
2906,33920
2907,34048
2908,34048
2909,33920
2910,33856
2911,33920
2912,33984
2913,33984
2914,33920
2915,33984
2916,34048
2917,34048
2918,33984
2919,33984
2920,34112
2921,34048
2922,33984
2923,33984
2924,34048
2925,34048
2926,33984
2927,33984
2928,34048
2929,34048
2930,33984
2931,33920
2932,33984
2933,34048
2934,33984
2935,33984
2936,34048
2937,34112
2938,34048
2939,33984
2940,34048
2941,34048
2942,34048
2943,33984
2944,34048
2945,34240
2946,34176
2947,34176
2948,34176
2949,34112
2950,33984
2951,34048
2952,34112
2953,34112
2954,34112
2955,34112
2956,34176
2957,34240
2958,34112
2959,33984
2960,33984
2961,33984
2962,33920
2963,33856
2964,33920
2965,34048
2966,34048
2967,33984
2968,34048
2969,34176
2970,34176
2971,34112
2972,34112
2973,34176
2974,34112
2975,34112
2976,34112
2977,34240
2978,34368
2979,34432
2980,34752
2981,35328
2982,35392
2983,36608
2984,37312
2985,37696
2986,37184
2987,35840
2988,34240
2989,32832
2990,31936
2991,31424
2992,31424
2993,31872
2994,32576
2995,33152
2996,33600
2997,34112
2998,34496
2999,34752
3000,34752
3001,34752
3002,34816
3003,34752
3004,34560
3005,34496
3006,34496
3007,34432
3008,34304
3009,34240
3010,34304
3011,34304
3012,34240
3013,34176
3014,34240
3015,34304
3016,34240
3017,34176
3018,34240
3019,34304
3020,34304
3021,34304
3022,34304
3023,34432
3024,34368
3025,34304
3026,34368
3027,34304
3028,34432
3029,34368
3030,34368
3031,34432
3032,34496
3033,34432
3034,34432
3035,34496
3036,34560
3037,34560
3038,34496
3039,34560
3040,34688
3041,34688
3042,34624
3043,34688
3044,34752
3045,34752
3046,34624
3047,34624
3048,34688
3049,34688
3050,34560
3051,34560
3052,34624
3053,34624
3054,34496
3055,34432
3056,34496
3057,34432
3058,34304
3059,34240
3060,34176
3061,34112
3062,33984
3063,33856
3064,33856
3065,33920
3066,33856
3067,33792
3068,33792
3069,33920
3070,33920
3071,33920
3072,33856
3073,34048
3074,34048
3075,33984
3076,33984
3077,34048
3078,34112
3079,34048
3080,34048
3081,34112
3082,34176
3083,34112
3084,34112
3085,34112
3086,34112
3087,34048
3088,34048
3089,34112
3090,34112
3091,34048
3092,33984
3093,34048
3094,34112
3095,34112
3096,34048
3097,33984
3098,34048
3099,34048
3100,33984
3101,34048
3102,34112
3103,34176
3104,34048
3105,34048
3106,34112
3107,34112
3108,34048
3109,34048
3110,34048
3111,34112
3112,34048
3113,34048
3114,34048
3115,34112
3116,34048
3117,33984
3118,33984
3119,34112
3120,34048
3121,33984
3122,33984
3123,34112
3124,34112
3125,34048
3126,34048
3127,34112
3128,34112
3129,34048
3130,33984
3131,33984
3132,33984
3133,33920
3134,33856
3135,33984
3136,34112
3137,34112
3138,34112
3139,34176
3140,34176
3141,34112
3142,33984
3143,34048
3144,34112
3145,33984
3146,33920
3147,33856
3148,34048
3149,34048
3150,33984
3151,33984
3152,34112
3153,34112
3154,34112
3155,34048
3156,34176
3157,34176
3158,34112
3159,34048
3160,34112
3161,34112
3162,34048
3163,34048
3164,34112
3165,34176
3166,34112
3167,34048
3168,34048
3169,34112
3170,34048
3171,34048
3172,34112
3173,34240
3174,34304
3175,34240
3176,34304
3177,34304
3178,34240
3179,34112
3180,34048
3181,34112
3182,34176
3183,34112
3184,34112
3185,34240
3186,34240
3187,34112
3188,33984
3189,33920
3190,33984
3191,33984
3192,33920
3193,33984
3194,33984
3195,33920
3196,33920
3197,34048
3198,34176
3199,34176
3200,34176
3201,34176
3202,34240
3203,34176
3204,34112
3205,34112
3206,34240
3207,34368
3208,34432
3209,34624
3210,35072
3211,35712
3212,36352
3213,37184
3214,37824
3215,37632
3216,36544
3217,35008
3218,33536
3219,32448
3220,31680
3221,31488
3222,31424
3223,32256
3224,32896
3225,33344
3226,33792
3227,34304
3228,34560
3229,34688
3230,34752
3231,34816
3232,34816
3233,34688
3234,34560
3235,34560
3236,34432
3237,34368
3238,34240
3239,34240
3240,34304
3241,34176
3242,34112
3243,34176
3244,34240
3245,34240
3246,34176
3247,34176
3248,34304
3249,34304
3250,34240
3251,34304
3252,34368
3253,34368
3254,34304
3255,34304
3256,34368
3257,34368
3258,34304
3259,34304
3260,34368
3261,34432
3262,34368
3263,34368
3264,34496
3265,34560
3266,34560
3267,34496
3268,34496
3269,34560
3270,34560
3271,34496
3272,34560
3273,34624
3274,34688
3275,34624
3276,34624
3277,34688
3278,34688
3279,34624
3280,34560
3281,34624
3282,34624
3283,34560
3284,34496
3285,34496
3286,34496
3287,34368
3288,34240
3289,34176
3290,34176
3291,34048
3292,33920
3293,33920
3294,33984
3295,33920
3296,33856
3297,33856
3298,33920
3299,33920
3300,33920
3301,33920
3302,34048
3303,34112
3304,33984
3305,33984
3306,34048
3307,34112
3308,34048
3309,33984
3310,34112
3311,34176
3312,34112
3313,34048
3314,34048
3315,34112
3316,34048
3317,34048
3318,34048
3319,34176
3320,34112
3321,34048
3322,34048
3323,34176
3324,34112
3325,34048
3326,34048
3327,34112
3328,34112
3329,34112
3330,34048
3331,34176
3332,34176
3333,34112
3334,34112
3335,34176
3336,34176
3337,34112
3338,34048
3339,34048
3340,34112
3341,34048
3342,33984
3343,34048
3344,34112
3345,34048
3346,33984
3347,33984
3348,34112
3349,34048
3350,34048
3351,34048
3352,34112
3353,34112
3354,33984
3355,33984
3356,34112
3357,34112
3358,34048
3359,33984
3360,34048
3361,34112
3362,34048
3363,33984
3364,34048
3365,34112
3366,34048
3367,33984
3368,34048
3369,34112
3370,34112
3371,34048
3372,34048
3373,34112
3374,34112
3375,34048
3376,34048
3377,34112
3378,34112
3379,34048
3380,34048
3381,34112
3382,34112
3383,34048
3384,34048
3385,34112
3386,34176
3387,34112
3388,34048
3389,34112
3390,34112
3391,34048
3392,33984
3393,34048
3394,34176
3395,34176
3396,34176
3397,34240
3398,34304
3399,34240
3400,34112
3401,34048
3402,34112
3403,34112
3404,34048
3405,34048
3406,34176
3407,34176
3408,34112
3409,33984
3410,34048
3411,34048
3412,33984
3413,33920
3414,33984
3415,34048
3416,33984
3417,33920
3418,33984
3419,34112
3420,34112
3421,34112
3422,34112
3423,34240
3424,34176
3425,34112
3426,34112
3427,34176
3428,34304
3429,34368
3430,34496
3431,34880
3432,35328
3433,35904
3434,36608
3435,37504
3436,37888
3437,37376
3438,36096
3439,34624
3440,33216
3441,32128
3442,31488
3443,31424
3444,31808
3445,32256
3446,32768
3447,33344
3448,33984
3449,34368
3450,34560
3451,34752
3452,34880
3453,34880
3454,34752
3455,34624
3456,34624
3457,34560
3458,34432
3459,34368
3460,34368
3461,34368
3462,34240
3463,34176
3464,34176
3465,34240
3466,34176
3467,34176
3468,34176
3469,34304
3470,34304
3471,34240
3472,34304
3473,34368
3474,34368
3475,34304
3476,34304
3477,34368
3478,34432
3479,34368
3480,34368
3481,34496
3482,34496
3483,34432
3484,34432
3485,34496
3486,34496
3487,34496
3488,34496
3489,34560
3490,34624
3491,34560
3492,34496
3493,34624
3494,34688
3495,34688
3496,34624
3497,34624
3498,34688
3499,34688
3500,34560
3501,34624
3502,34752
3503,34688
3504,34560
3505,34496
3506,34496
3507,34496
3508,34304
3509,34240
3510,34240
3511,34176
3512,34048
3513,33920
3514,33856
3515,33920
3516,33856
3517,33728
3518,33792
3519,33856
3520,33792
3521,33728
3522,33792
3523,33856
3524,33920
3525,33856
3526,33920
3527,34048
3528,34048
3529,33984
3530,33984
3531,34048
3532,34112
3533,33984
3534,33920
3535,33984
3536,34048
3537,33984
3538,33920
3539,34048
3540,34048
3541,34048
3542,33984
3543,34048
3544,34176
3545,34112
3546,33984
3547,34048
3548,34112
3549,34048
3550,33984
3551,33984
3552,34112
3553,34048
3554,33984
3555,33984
3556,34048
3557,34048
3558,33984
3559,33920
3560,33984
3561,34048
3562,33920
3563,33920
3564,33984
3565,33984
3566,33920
3567,33920
3568,33984
3569,34048
3570,34048
3571,33984
3572,34048
3573,34112
3574,34048
3575,33984
3576,33984
3577,34048
3578,33984
3579,33920
3580,33856
3581,33984
3582,33984
3583,33920
3584,33920
3585,33984
3586,34048
3587,33984
3588,33984
3589,34048
3590,34112
3591,34112
3592,34048
3593,34048
3594,34112
3595,34048
3596,33984
3597,34048
3598,34112
3599,34048
3600,33984
3601,33984
3602,34048
3603,34048
3604,33984
3605,33984
3606,34048
3607,34048
3608,33984
3609,33984
3610,34048
3611,34048
3612,33920
3613,33856
3614,33920
3615,34048
3616,33984
3617,34048
3618,34176
3619,34240
3620,34240
3621,34112
3622,34112
3623,34112
3624,34048
3625,33984
3626,33920
3627,34048
3628,34112
3629,33984
3630,33984
3631,33984
3632,33984
3633,33792
3634,33792
3635,33920
3636,33984
3637,33920
3638,33856
3639,33984
3640,34048
3641,34048
3642,33984
3643,34048
3644,34112
3645,34112
3646,33984
3647,33984
3648,34112
3649,34048
3650,34048
3651,34176
3652,34368
3653,34624
3654,35008
3655,35584
3656,36416
3657,37184
3658,37632
3659,37184
3660,36160
3661,34688
3662,33152
3663,32000
3664,31488
3665,31360
3666,31552
3667,32064
3668,32704
3669,33344
3670,33728
3671,34048
3672,34432
3673,34624
3674,34688
3675,34560
3676,34496
3677,34496
3678,34368
3679,34240
3680,34176
3681,34176
3682,34112
3683,33984
3684,33984
3685,33984
3686,33984
3687,33920
3688,33856
3689,33920
3690,34048
3691,34048
3692,33984
3693,34048
3694,34112
3695,34112
3696,34112
3697,34176
3698,34304
3699,34240
3700,34240
3701,34240
3702,34368
3703,34368
3704,34304
3705,34304
3706,34432
3707,34496
3708,34432
3709,34368
3710,34432
3711,34496
3712,34496
3713,34496
3714,34560
3715,34560
3716,34496
3717,34432
3718,34496
3719,34560
3720,34560
3721,34496
3722,34560
3723,34560
3724,34496
3725,34368
3726,34368
3727,34368
3728,34304
3729,34176
3730,34112
3731,34112
3732,34048
3733,33984
3734,33856
3735,33920
3736,33920
3737,33792
3738,33728
3739,33792
3740,33792
3741,33728
3742,33664
3743,33728
3744,33920
3745,33856
3746,33856
3747,33920
3748,33984
3749,33984
3750,33920
3751,33920
3752,33984
3753,33984
3754,33920
3755,33920
3756,34112
3757,34176
3758,34048
3759,33984
3760,33984
3761,34048
3762,33984
3763,33920
3764,33856
3765,33920
3766,33792
3767,33728
3768,33728
3769,33728
3770,33728
3771,33728
3772,33792
3773,33856
3774,33856
3775,33856
3776,33920
3777,33984
3778,33920
3779,33856
3780,33792
3781,33856
3782,33728
3783,33600
3784,33536
3785,33600
3786,33600
3787,33472
3788,33472
3789,33536
3790,33600
3791,33600
3792,33472
3793,33472
3794,33600
3795,33536
3796,33472
3797,33600
3798,33728
3799,33728
3800,33664
3801,33728
3802,33792
3803,33792
3804,33728
3805,33728
3806,33856
3807,33856
3808,33728
3809,33728
3810,33728
3811,33792
3812,33728
3813,33728
3814,33728
3815,33728
3816,33600
3817,33600
3818,33664
3819,33728
3820,33728
3821,33664
3822,33664
3823,33728
3824,33728
3825,33600
3826,33600
3827,33664
3828,33600
3829,33536
3830,33600
3831,33728
3832,33856
3833,33792
3834,33792
3835,33792
3836,33792
3837,33728
3838,33664
3839,33792
3840,33856
3841,33792
3842,33792
3843,33856
3844,33920
3845,33920
3846,33920
3847,34048
3848,34048
3849,34048
3850,33984
3851,33984
3852,34048
3853,34112
3854,34048
3855,34112
3856,34240
3857,34432
3858,34624
3859,34944
3860,35520
3861,36160
3862,36928
3863,37312
3864,36736
3865,35520
3866,33920
3867,32640
3868,31808
3869,31424
3870,31296
3871,31552
3872,32128
3873,32768
3874,33408
3875,33856
3876,34240
3877,34624
3878,34752
3879,34752
3880,34752
3881,34752
3882,34624
3883,34496
3884,34368
3885,34304
3886,34240
3887,34176
3888,34112
3889,34112
3890,34112
3891,34048
3892,34048
3893,34048
3894,34112
3895,34048
3896,33984
3897,34048
3898,34048
3899,34048
3900,33984
3901,33920
3902,33920
3903,33856
3904,33728
3905,33664
3906,33664
3907,33664
3908,33600
3909,33536
3910,33536
3911,33600
3912,33536
3913,33472
3914,33600
3915,33600
3916,33600
3917,33600
3918,33792
3919,33984
3920,34048
3921,33984
3922,33984
3923,34112
3924,34240
3925,34240
3926,34304
3927,34496
3928,34560
3929,34432
3930,34304
3931,34304
3932,34304
3933,34240
3934,34176
3935,34176
3936,34112
3937,33984
3938,33792
3939,33728
3940,33728
3941,33728
3942,33664
3943,33728
3944,33728
3945,33792
3946,33792
3947,33792
3948,33792
3949,33728
3950,33728
3951,33728
3952,33728
3953,33728
3954,33664
3955,33664
3956,33728
3957,33728
3958,33728
3959,33728
3960,33856
3961,33792
3962,33728
3963,33728
3964,33856
3965,33984
3966,33984
3967,34048
3968,34112
3969,34176
3970,34176
3971,34176
3972,34240
3973,34304
3974,34240
3975,34112
3976,34112
3977,34176
3978,34240
3979,34176
3980,34176
3981,34304
3982,34304
3983,34240
3984,34176
3985,34240
3986,34240
3987,34240
3988,34240
3989,34368
3990,34432
3991,34432
3992,34432
3993,34496
3994,34560
3995,34496
3996,34432
3997,34432
3998,34496
3999,34432
4000,34304
4001,34304
4002,34368
4003,34368
4004,34368
4005,34368
4006,34432
4007,34496
4008,34432
4009,34496
4010,34560
4011,34496
4012,34304
4013,34240
4014,34304
4015,34368
4016,34304
4017,34304
4018,34304
4019,34304
4020,34304
4021,34304
4022,34432
4023,34624
4024,34624
4025,34560
4026,34432
4027,34304
4028,34176
4029,34048
4030,34112
4031,34304
4032,34432
4033,34560
4034,34624
4035,34752
4036,34816
4037,34752
4038,34752
4039,34880
4040,34880
4041,34816
4042,34752
4043,34816
4044,34880
4045,34880
4046,34816
4047,34880
4048,35008
4049,35136
4050,35328
4051,35648
4052,36160
4053,36672
4054,37504
4055,38080
4056,38080
4057,37120
4058,35648
4059,34176
4060,33088
4061,32448
4062,32128
4063,32256
4064,32768
4065,33472
4066,34112
4067,34624
4068,35072
4069,35392
4070,35520
4071,35584
4072,35584
4073,35584
4074,35520
4075,35328
4076,35200
4077,35136
4078,35008
4079,34944
4080,34880
4081,34944
4082,34944
4083,34816
4084,34752
4085,34816
4086,34816
4087,34752
4088,34752
4089,34816
4090,34880
4091,34880
4092,34816
4093,34816
4094,34880
4095,34880
4096,34816
4097,34816
4098,34880
4099,34880
4100,34816
4101,34816
4102,34816
4103,34816
4104,34816
4105,34880
4106,34944
4107,35008
4108,34944
4109,34880
4110,34944
4111,35008
4112,34944
4113,34944
4114,34944
4115,35008
4116,34944
4117,34944
4118,34880
4119,34944
4120,34816
4121,34752
4122,34752
4123,34816
4124,34752
4125,34688
4126,34560
4127,34560
4128,34496
4129,34432
4130,34368
4131,34368
4132,34368
4133,34304
4134,34240
4135,34304
4136,34240
4137,34112
4138,34112
4139,34176
4140,34176
4141,34112
4142,34048
4143,34048
4144,34112
4145,34112
4146,34112
4147,34176
4148,34240
4149,34240
4150,34176
4151,34176
4152,34240
4153,34240
4154,34240
4155,34240
4156,34304
4157,34304
4158,34240
4159,34240
4160,34240
4161,34176
4162,34112
4163,34048
4164,34048
4165,33984
4166,33920
4167,33856
4168,33856
4169,33920
4170,33920
4171,33920
4172,33984
4173,34048
4174,34048
4175,34048
4176,34048
4177,34112
4178,34112
4179,34048
4180,33984
4181,34048
4182,33984
4183,33920
4184,33856
4185,33920
4186,33920
4187,33792
4188,33664
4189,33728
4190,33728
4191,33728
4192,33664
4193,33728
4194,33792
4195,33728
4196,33664
4197,33792
4198,33856
4199,33856
4200,33856
4201,33920
4202,33984
4203,33984
4204,33984
4205,33984
4206,34112
4207,34112
4208,33984
4209,33856
4210,33920
4211,33984
4212,33856
4213,33792
4214,33792
4215,33792
4216,33792
4217,33728
4218,33792
4219,33856
4220,33728
4221,33600
4222,33536
4223,33600
4224,33536
4225,33344
4226,33280
4227,33344
4228,33280
4229,33280
4230,33344
4231,33472
4232,33536
4233,33472
4234,33472
4235,33536
4236,33536
4237,33472
4238,33472
4239,33536
4240,33600
4241,33664
4242,33856
4243,34112
4244,34496
4245,34880
4246,35328
4247,36032
4248,36800
4249,37312
4250,37120
4251,36032
4252,34432
4253,32704
4254,31360
4255,30656
4256,30592
4257,30848
4258,31360
4259,32000
4260,32704
4261,33152
4262,33472
4263,33664
4264,33856
4265,33920
4266,33920
4267,33792
4268,33792
4269,33792
4270,33664
4271,33536
4272,33472
4273,33472
4274,33408
4275,33280
4276,33216
4277,33280
4278,33280
4279,33280
4280,33280
4281,33280
4282,33344
4283,33344
4284,33472
4285,33664
4286,33728
4287,33664
4288,33664
4289,33664
4290,33408
4291,33024
4292,32576
4293,32384
4294,32320
4295,32384
4296,32576
4297,32832
4298,33216
4299,33536
4300,33856
4301,34176
4302,34560
4303,34880
4304,35008
4305,35136
4306,35328
4307,35392
4308,35392
4309,35392
4310,35456
4311,35456
4312,35328
4313,35200
4314,35136
4315,35072
4316,34944
4317,34880
4318,34816
4319,34816
4320,34688
4321,34560
4322,34496
4323,34496
4324,34432
4325,34304
4326,34240
4327,34240
4328,34176
4329,34048
4330,34048
4331,34112
4332,34112
4333,34112
4334,34176
4335,34304
4336,34304
4337,34176
4338,34112
4339,34112
4340,34176
4341,34176
4342,34176
4343,34240
4344,34304
4345,34304
4346,34368
4347,34496
4348,34624
4349,34560
4350,34496
4351,34496
4352,34560
4353,34560
4354,34496
4355,34560
4356,34624
4357,34688
4358,34688
4359,34688
4360,34752
4361,34752
4362,34688
4363,34624
4364,34688
4365,34688
4366,34688
4367,34624
4368,34752
4369,34816
4370,34816
4371,34752
4372,34816
4373,34880
4374,34880
4375,34816
4376,34816
4377,34816
4378,34816
4379,34688
4380,34688
4381,34752
4382,34752
4383,34624
4384,34624
4385,34624
4386,34624
4387,34560
4388,34496
4389,34560
4390,34560
4391,34432
4392,34368
4393,34432
4394,34496
4395,34496
4396,34496
4397,34560
4398,34688
4399,34688
4400,34624
4401,34688
4402,34752
4403,34688
4404,34560
4405,34432
4406,34432
4407,34304
4408,34176
4409,34112
4410,34176
4411,34240
4412,34176
4413,34240
4414,34368
4415,34560
4416,34624
4417,34624
4418,34688
4419,34688
4420,34624
4421,34496
4422,34560
4423,34624
4424,34624
4425,34624
4426,34752
4427,34944
4428,35072
4429,35072
4430,35072
4431,35136
4432,35072
4433,34944
4434,34880
4435,34944
4436,34944
4437,34752
4438,34688
4439,34752
4440,34816
4441,34944
4442,35136
4443,35584
4444,36160
4445,36800
4446,37440
4447,38016
4448,37888
4449,36800
4450,35072
4451,33280
4452,32000
4453,31360
4454,31232
4455,31616
4456,32384
4457,33152
4458,33920
4459,34496
4460,35008
4461,35328
4462,35392
4463,35328
4464,35328
4465,35264
4466,35136
4467,34944
4468,34880
4469,34816
4470,34688
4471,34624
4472,34688
4473,34752
4474,34624
4475,34560
4476,34496
4477,34560
4478,34496
4479,34432
4480,34368
4481,34432
4482,34496
4483,34368
4484,34368
4485,34496
4486,34560
4487,34432
4488,34432
4489,34496
4490,34560
4491,34496
4492,34432
4493,34496
4494,34560
4495,34560
4496,34496
4497,34624
4498,34624
4499,34624
4500,34624
4501,34624
4502,34752
4503,34752
4504,34688
4505,34624
4506,34624
4507,34624
4508,34496
4509,34432
4510,34496
4511,34496
4512,34368
4513,34304
4514,34368
4515,34368
4516,34304
4517,34240
4518,34240
4519,34240
4520,34112
4521,33984
4522,33984
4523,33984
4524,33856
4525,33728
4526,33728
4527,33792
4528,33792
4529,33664
4530,33664
4531,33728
4532,33792
4533,33664
4534,33728
4535,33792
4536,33856
4537,33792
4538,33792
4539,33920
4540,33984
4541,33920
4542,33856
4543,33920
4544,33984
4545,33920
4546,33856
4547,33920
4548,33984
4549,33920
4550,33920
4551,33920
4552,33984
4553,33984
4554,33920
4555,33920
4556,34048
4557,34048
4558,33984
4559,33984
4560,34048
4561,34112
4562,34048
4563,33984
4564,34048
4565,34048
4566,33984
4567,33920
4568,33984
4569,34048
4570,34048
4571,33984
4572,34048
4573,34112
4574,34048
4575,33984
4576,33984
4577,34048
4578,34048
4579,33920
4580,33920
4581,34048
4582,34048
4583,33984
4584,33984
4585,33984
4586,34048
4587,33920
4588,33920
4589,33984
4590,34048
4591,33984
4592,33920
4593,34048
4594,34112
4595,34048
4596,33984
4597,34048
4598,34112
4599,34112
4600,34112
4601,34112
4602,34240
4603,34240
4604,34176
4605,34176
4606,34240
4607,34240
4608,34176
4609,34112
4610,34240
4611,34240
4612,34176
4613,34112
4614,34176
4615,34176
4616,34112
4617,34048
4618,34112
4619,34176
4620,34112
4621,34048
4622,34112
4623,34176
4624,34112
4625,34048
4626,34112
4627,34304
4628,34304
4629,34240
4630,34304
4631,34432
4632,34432
4633,34368
4634,34368
4635,34496
4636,34432
4637,34304
4638,34240
4639,34304
4640,34304
4641,34176
4642,34048
4643,34112
4644,34176
4645,34240
4646,34240
4647,34304
4648,34304
4649,34176
4650,34048
4651,33984
4652,34048
4653,34048
4654,33984
4655,33984
4656,34112
4657,34112
4658,34048
4659,34048
4660,34176
4661,34176
4662,34112
4663,34048
4664,34176
4665,34240
4666,34112
4667,34112
4668,34176
4669,34304
4670,34368
4671,34496
4672,34816
4673,35328
4674,35904
4675,36544
4676,37184
4677,37632
4678,37120
4679,35776
4680,34112
4681,32640
4682,31488
4683,30912
4684,30976
4685,31552
4686,32192
4687,32832
4688,33472
4689,34112
4690,34496
4691,34688
4692,34816
4693,34880
4694,34880
4695,34752
4696,34560
4697,34496
4698,34496
4699,34368
4700,34240
4701,34176
4702,34240
4703,34176
4704,34112
4705,34112
4706,34176
4707,34176
4708,34112
4709,34112
4710,34240
4711,34304
4712,34240
4713,34240
4714,34304
4715,34368
4716,34304
4717,34304
4718,34368
4719,34432
4720,34432
4721,34368
4722,34432
4723,34496
4724,34496
4725,34496
4726,34496
4727,34624
4728,34688
4729,34624
4730,34624
4731,34688
4732,34752
4733,34688
4734,34688
4735,34752
4736,34816
4737,34688
4738,34688
4739,34752
4740,34752
4741,34688
4742,34688
4743,34688
4744,34752
4745,34688
4746,34624
4747,34624
4748,34624
4749,34560
4750,34432
4751,34368
4752,34368
4753,34240
4754,34112
4755,34048
4756,34048
4757,33984
4758,33920
4759,33856
4760,33984
4761,33984
4762,33920
4763,33920
4764,34048
4765,34048
4766,34048
4767,33984
4768,34176
4769,34112
4770,34048
4771,34112
4772,34176
4773,34112
4774,34048
4775,34112
4776,34176
4777,34176
4778,34048
4779,34112
4780,34176
4781,34112
4782,34048
4783,34048
4784,34112
4785,34176
4786,34112
4787,34048
4788,34112
4789,34048
4790,34048
4791,33984
4792,34048
4793,34112
4794,34048
4795,33984
4796,34112
4797,34048
4798,34112
4799,34048
4800,34048
4801,34112
4802,34112
4803,33984
4804,33920
4805,34112
4806,34048
4807,33984
4808,33920
4809,34048
4810,34048
4811,33920
4812,33856
4813,34048
4814,34048
4815,33984
4816,33920
4817,33984
4818,34048
4819,33984
4820,33920
4821,33984
4822,34048
4823,33984
4824,33920
4825,33984
4826,34048
4827,33984
4828,33920
4829,33920
4830,34048
4831,34048
4832,33984
4833,33984
4834,34048
4835,34112
4836,33984
4837,33984
4838,34048
4839,34112
4840,34048
4841,33984
4842,34048
4843,34176
4844,34112
4845,34048
4846,34112
4847,34176
4848,34112
4849,34048
4850,34112
4851,34176
4852,34176
4853,34048
4854,34048
4855,34112
4856,34112
4857,34048
4858,34048
4859,34112
4860,34112
4861,34048
4862,34048
4863,34176
4864,34240
4865,34176
4866,34112
4867,34112
4868,34112
4869,34048
4870,34048
4871,34240
4872,34240
4873,34304
4874,34240
4875,34304
4876,34368
4877,34240
4878,34112
4879,34112
4880,34176
4881,34176
4882,34112
4883,34176
4884,34240
4885,34240
4886,34112
4887,34048
4888,34048
4889,34112
4890,34048
4891,33984
4892,34048
4893,34176
4894,34112
4895,34112
4896,34176
4897,34240
4898,34240
4899,34176
4900,34176
4901,34240
4902,34176
4903,34176
4904,34176
4905,34368
4906,34496
4907,34688
4908,35072
4909,35648
4910,36288
4911,36928
4912,37504
4913,37632
4914,36864
4915,35264
4916,33216
4917,33088
4918,31424
4919,31040
4920,31232
4921,31872
4922,32576
4923,33216
4924,33792
4925,34304
4926,34752
4927,34944
4928,34944
4929,34944
4930,35008
4931,34816
4932,34688
4933,34560
4934,34496
4935,34432
4936,34304
4937,34240
4938,34240
4939,34240
4940,34176
4941,34112
4942,34240
4943,34304
4944,34240
4945,34176
4946,34240
4947,34240
4948,34304
4949,34240
4950,34304
4951,34368
4952,34368
4953,34304
4954,34304
4955,34368
4956,34368
4957,34304
4958,34304
4959,34432
4960,34432
4961,34432
4962,34368
4963,34496
4964,34560
4965,34496
4966,34432
4967,34560
4968,34624
4969,34560
4970,34560
4971,34624
4972,34752
4973,34688
4974,34688
4975,34688
4976,34752
4977,34688
4978,34624
4979,34624
4980,34688
4981,34688
4982,34560
4983,34496
4984,34560
4985,34432
4986,34304
4987,34176
4988,34176
4989,34112
4990,33984
4991,33856
4992,33856
4993,33920
4994,33792
4995,33728
4996,33792
4997,33920
4998,33856
4999,33856
5000,33920
5001,33984
5002,33984
5003,33920
5004,33984
5005,34112
5006,34112
5007,34048
5008,34048
5009,34112
5010,34112
5011,34112
5012,34048
5013,34176
5014,34176
5015,34112
5016,34048
5017,34112
5018,34176
5019,34112
5020,34048
5021,34176
5022,34176
5023,34176
5024,34048
5025,34112
5026,34176
5027,34112
5028,34048
5029,34048
5030,34112
5031,34112
5032,34048
5033,34048
5034,34112
5035,34112
5036,34048
5037,33984
5038,34112
5039,34112
5040,34048
5041,34048
5042,34048
5043,34112
5044,33984
5045,33920
5046,34048
5047,34112
5048,34112
5049,33984
5050,34048
5051,34112
5052,34048
5053,33984
5054,33984
5055,34048
5056,34048
5057,33984
5058,33984
5059,34112
5060,34112
5061,34048
5062,33984
5063,34112
5064,34112
5065,34048
5066,33984
5067,33920
5068,34112
5069,34048
5070,33984
5071,33984
5072,34048
5073,33984
5074,33920
5075,33984
5076,34048
5077,33984
5078,33920
5079,33984
5080,34048
5081,34048
5082,33984
5083,33984
5084,34048
5085,34048
5086,33984
5087,33984
5088,34048
5089,34048
5090,33984
5091,33920
5092,33984
5093,34048
5094,33984
5095,33984
5096,34048
5097,34048
5098,33984
5099,33920
5100,33984
5101,34112
5102,34112
5103,34048
5104,34048
5105,34112
5106,34048
5107,33920
5108,33920
5109,34048
5110,34112
5111,34176
5112,34112
5113,34240
5114,34240
5115,34112
5116,33984
5117,34048
5118,34048
5119,33984
5120,33984
5121,34048
5122,34176
5123,34112
5124,34048
5125,33984
5126,34048
5127,33984
5128,33920
5129,33920
5130,34048
5131,34048
5132,33984
5133,33984
5134,34048
5135,34048
5136,33984
5137,33984
5138,34112
5139,34176
5140,34112
5141,34048
5142,34112
5143,34240
5144,34240
5145,34368
5146,34688
5147,35136
5148,35584
5149,36224
5150,36928
5151,37632
5152,37568
5153,36544
5154,35072
5155,33472
5156,32128
5157,31232
5158,30976
5159,31296
5160,31872
5161,32512
5162,33152
5163,33856
5164,34368
5165,34624
5166,34752
5167,34944
5168,34944
5169,34816
5170,34688
5171,34624
5172,34560
5173,34496
5174,34304
5175,34304
5176,34304
5177,34240
5178,34112
5179,34112
5180,34240
5181,34176
5182,34112
5183,34112
5184,34240
5185,34240
5186,34176
5187,34112
5188,34304
5189,34304
5190,34304
5191,34240
5192,34368
5193,34432
5194,34368
5195,34304
5196,34368
5197,34432
5198,34432
5199,34368
5200,34432
5201,34496
5202,34496
5203,34496
5204,34560
5205,34624
5206,34688
5207,34624
5208,34624
5209,34752
5210,34752
5211,34688
5212,34688
5213,34752
5214,34752
5215,34688
5216,34624
5217,34688
5218,34688
5219,34624
5220,34560
5221,34560
5222,34560
5223,34496
5224,34368
5225,34368
5226,34368
5227,34240
5228,34048
5229,33984
5230,34048
5231,33920
5232,33792
5233,33792
5234,33920
5235,33856
5236,33856
5237,33856
5238,33984
5239,33984
5240,33984
5241,33984
5242,34048
5243,34112
5244,34048
5245,34048
5246,34112
5247,34176
5248,34112
5249,34112
5250,34112
5251,34240
5252,34176
5253,34112
5254,34112
5255,34176
5256,34112
5257,34048
5258,34048
5259,34176
5260,34176
5261,34112
5262,34048
5263,34112
5264,34176
5265,34112
5266,34112
5267,34176
5268,34176
5269,34048
5270,33984
5271,34048
5272,34112
5273,34048
5274,33984
5275,33984
5276,34112
5277,34048
5278,33984
5279,33984
5280,34112
5281,34112
5282,34048
5283,34048
5284,34112
5285,34112
5286,33984
5287,33984
5288,34048
5289,34048
5290,33984
5291,33920
5292,33984
5293,34048
5294,33984
5295,33920
5296,33984
5297,34048
5298,33984
5299,33920
5300,33984
5301,34048
5302,33984
5303,33920
5304,33920
5305,34048
5306,34048
5307,33984
5308,33984
5309,34048
5310,34048
5311,33984
5312,33984
5313,34048
5314,34048
5315,33984
5316,33984
5317,34048
5318,34112
5319,34048
5320,33984
5321,34048
5322,34112
5323,34112
5324,34048
5325,34048
5326,34176
5327,34112
5328,34048
5329,34048
5330,34112
5331,34112
5332,34048
5333,33984
5334,34112
5335,34112
5336,33984
5337,33984
5338,34048
5339,34112
5340,34048
5341,34048
5342,34112
5343,34176
5344,34112
5345,34048
5346,34112
5347,34112
5348,34048
5349,33984
5350,34048
5351,34176
5352,34240
5353,34176
5354,34240
5355,34304
5356,34176
5357,34048
5358,34048
5359,34112
5360,34112
5361,34048
5362,34112
5363,34240
5364,34240
5365,34112
5366,34048
5367,34048
5368,34048
5369,33984
5370,33984
5371,34048
5372,34112
5373,34048
5374,34048
5375,34112
5376,34176
5377,34176
5378,34112
5379,34176
5380,34240
5381,34240
5382,34112
5383,34176
5384,34304
5385,34432
5386,34560
5387,34816
5388,35392
5389,36032
5390,36672
5391,37376
5392,37760
5393,37248
5394,35904
5395,34176
5396,32704
5397,31680
5398,31168
5399,31168
5400,31616
5401,32320
5402,32960
5403,33536
5404,34112
5405,34560
5406,34816
5407,34880
5408,34880
5409,34944
5410,34880
5411,34688
5412,34560
5413,34560
5414,34432
5415,34304
5416,34240
5417,34240
5418,34240
5419,34176
5420,34112
5421,34176
5422,34240
5423,34240
5424,34176
5425,34240
5426,34304
5427,34304
5428,34240
5429,34304
5430,34368
5431,34368
5432,34304
5433,34304
5434,34368
5435,34432
5436,34368
5437,34368
5438,34432
5439,34496
5440,34432
5441,34432
5442,34496
5443,34560
5444,34560
5445,34496
5446,34624
5447,34688
5448,34624
5449,34624
5450,34688
5451,34752
5452,34752
5453,34624
5454,34688
5455,34752
5456,34688
5457,34624
5458,34624
5459,34688
5460,34688
5461,34560
5462,34560
5463,34560
5464,34560
5465,34432
5466,34304
5467,34304
5468,34240
5469,34048
5470,33920
5471,33920
5472,33920
5473,33856
5474,33792
5475,33856
5476,33920
5477,33920
5478,33856
5479,33920
5480,33984
5481,33984
5482,33984
5483,33984
5484,34112
5485,34112
5486,34112
5487,34112
5488,34176
5489,34176
5490,34112
5491,34112
5492,34176
5493,34176
5494,34112
5495,34048
5496,34112
5497,34176
5498,34112
5499,34112
5500,34176
5501,34176
5502,34176
5503,34112
5504,34112
5505,34176
5506,34176
5507,34048
5508,34048
5509,34176
5510,34176
5511,34048
5512,34048
5513,34112
5514,34112
5515,34048
5516,33984
5517,34048
5518,34048
5519,33984
5520,33920
5521,33984
5522,34048
5523,33984
5524,33920
5525,33984
5526,34048
5527,34048
5528,33920
5529,33984
5530,34048
5531,33984
5532,33920
5533,33920
5534,33984
5535,33984
5536,33920
5537,33920
5538,33984
5539,34048
5540,33984
5541,33984
5542,34048
5543,34048
5544,33984
5545,33920
5546,33984
5547,34048
5548,33984
5549,33920
5550,33984
5551,34048
5552,34048
5553,33920
5554,33984
5555,34048
5556,33984
5557,33920
5558,33920
5559,33984
5560,33984
5561,33920
5562,33920
5563,33984
5564,34048
5565,33984
5566,33920
5567,34048
5568,34048
5569,33984
5570,33920
5571,33984
5572,34048
5573,34048
5574,33984
5575,34048
5576,34112
5577,34112
5578,34048
5579,34048
5580,34112
5581,34112
5582,34048
5583,34112
5584,34176
5585,34176
5586,34048
5587,33984
5588,34048
5589,34112
5590,34048
5591,34048
5592,34176
5593,34240
5594,34176
5595,34176
5596,34240
5597,34240
5598,34112
5599,34048
5600,34112
5601,34176
5602,34176
5603,34112
5604,34112
5605,34176
5606,34112
5607,33984
5608,33984
5609,34048
5610,34048
5611,33984
5612,33984
5613,34048
5614,34048
5615,34048
5616,34048
5617,34112
5618,34176
5619,34112
5620,34048
5621,34112
5622,34176
5623,34112
5624,34112
5625,34304
5626,34496
5627,34688
5628,35008
5629,35584
5630,36288
5631,36928
5632,37504
5633,37504
5634,36672
5635,35200
5636,33472
5637,32128
5638,31360
5639,31104
5640,31296
5641,31808
5642,32512
5643,33280
5644,33792
5645,34176
5646,34624
5647,34816
5648,34880
5649,34816
5650,34816
5651,34816
5652,34688
5653,34496
5654,34432
5655,34432
5656,34304
5657,34176
5658,34176
5659,34240
5660,34176
5661,34112
5662,34112
5663,34240
5664,34304
5665,34240
5666,34240
5667,34304
5668,34304
5669,34240
5670,34240
5671,34304
5672,34368
5673,34304
5674,34304
5675,34368
5676,34432
5677,34432
5678,34368
5679,34432
5680,34496
5681,34496
5682,34432
5683,34496
5684,34624
5685,34624
5686,34560
5687,34560
5688,34688
5689,34688
5690,34688
5691,34624
5692,34752
5693,34752
5694,34688
5695,34624
5696,34688
5697,34752
5698,34624
5699,34560
5700,34624
5701,34688
5702,34624
5703,34496
5704,34496
5705,34496
5706,34432
5707,34240
5708,34176
5709,34176
5710,34112
5711,33920
5712,33856
5713,33920
5714,33856
5715,33792
5716,33728
5717,33856
5718,33920
5719,33856
5720,33856
5721,33984
5722,34048
5723,34048
5724,33984
5725,34048
5726,34176
5727,34112
5728,34048
5729,34112
5730,34176
5731,34176
5732,34048
5733,34112
5734,34176
5735,34176
5736,34112
5737,34112
5738,34176
5739,34176
5740,34112
5741,34048
5742,34112
5743,34176
5744,34048
5745,34048
5746,34112
5747,34112
5748,34048
5749,33984
5750,34048
5751,34112
5752,34112
5753,34048
5754,34048
5755,34112
5756,34048
5757,33984
5758,33984
5759,34048
5760,34048
5761,33984
5762,33920
5763,34048
5764,34048
5765,33984
5766,33920
5767,33984
5768,33984
5769,33920
5770,33856
5771,33920
5772,33984
5773,33920
5774,33920
5775,33984
5776,34048
5777,33984
5778,33984
5779,33984
5780,34048
5781,34048
5782,33984
5783,34048
5784,34112
5785,34048
5786,33984
5787,33984
5788,34048
5789,34048
5790,33984
5791,33984
5792,34112
5793,34112
5794,34048
5795,33984
5796,34048
5797,34112
5798,34048
5799,33984
5800,34048
5801,34112
5802,34048
5803,33984
5804,33984
5805,34112
5806,34048
5807,33984
5808,34048
5809,34112
5810,34112
5811,34048
5812,34048
5813,34112
5814,34112
5815,34048
5816,34048
5817,34112
5818,34176
5819,34112
5820,34048
5821,34112
5822,34176
5823,34112
5824,34112
5825,34176
5826,34240
5827,34176
5828,34048
5829,34048
5830,34112
5831,34112
5832,34048
5833,34112
5834,34304
5835,34304
5836,34240
5837,34240
5838,34240
5839,34176
5840,34112
5841,34112
5842,34176
5843,34240
5844,34176
5845,34112
5846,34176
5847,34176
5848,34048
5849,33920
5850,33984
5851,34048
5852,34048
5853,33984
5854,34048
5855,34112
5856,34176
5857,34112
5858,34176
5859,34240
5860,34240
5861,34176
5862,34176
5863,34240
5864,34304
5865,34240
5866,34368
5867,34560
5868,34816
5869,35136
5870,35648
5871,36352
5872,37120
5873,37696
5874,37504
5875,36544
5876,35072
5877,33408
5878,32128
5879,31424
5880,31296
5881,31552
5882,32064
5883,32704
5884,33472
5885,33984
5886,34368
5887,34688
5888,34944
5889,35008
5890,34944
5891,34880
5892,34880
5893,34816
5894,34624
5895,34496
5896,34496
5897,34496
5898,34368
5899,34240
5900,34304
5901,34304
5902,34240
5903,34176
5904,34240
5905,34304
5906,34304
5907,34240
5908,34240
5909,34368
5910,34368
5911,34304
5912,34304
5913,34368
5914,34368
5915,34368
5916,34368
5917,34432
5918,34496
5919,34432
5920,34368
5921,34496
5922,34560
5923,34496
5924,34496
5925,34560
5926,34624
5927,34624
5928,34560
5929,34624
5930,34688
5931,34688
5932,34688
5933,34688
5934,34816
5935,34752
5936,34688
5937,34688
5938,34688
5939,34688
5940,34624
5941,34560
5942,34624
5943,34688
5944,34560
5945,34432
5946,34496
5947,34432
5948,34304
5949,34176
5950,34112
5951,34112
5952,33984
5953,33856
5954,33856
5955,33920
5956,33856
5957,33792
5958,33792
5959,33920
5960,33920
5961,33856
5962,33920
5963,33984
5964,34048
5965,33984
5966,33984
5967,34112
5968,34112
5969,34048
5970,34048
5971,34112
5972,34176
5973,34112
5974,34112
5975,34176
5976,34176
5977,34112
5978,34048
5979,34112
5980,34176
5981,34112
5982,34048
5983,34048
5984,34112
5985,34112
5986,34048
5987,34048
5988,34112
5989,34112
5990,34048
5991,34048
5992,34112
5993,34112
5994,34048
5995,34048
5996,34112
5997,34176
5998,34048
5999,33984
6000,34048
6001,34048
6002,33984
6003,33920
6004,33984
6005,34048
6006,33984
6007,33920
6008,33920
6009,33984
6010,33984
6011,33920
6012,33920
6013,34048
6014,34048
6015,33984
6016,33920
6017,34048
6018,34048
6019,33984
6020,33984
6021,34048
6022,34112
6023,33984
6024,33920
6025,33984
6026,34048
6027,33984
6028,33920
6029,33984
6030,34048
6031,33984
6032,33920
6033,33984
6034,34048
6035,33984
6036,33920
6037,33920
6038,33984
6039,33984
6040,33920
6041,33920
6042,33984
6043,34048
6044,33920
6045,33920
6046,33984
6047,34048
6048,33984
6049,33920
6050,33984
6051,34048
6052,33984
6053,33920
6054,33920
6055,34048
6056,33984
6057,33920
6058,33984
6059,34048
6060,34048
6061,33984
6062,33984
6063,34112
6064,34112
6065,33984
6066,33920
6067,33984
6068,33984
6069,33920
6070,33920
6071,34048
6072,34176
6073,34176
6074,34176
6075,34240
6076,34240
6077,34112
6078,34048
6079,34048
6080,34176
6081,34112
6082,34112
6083,34112
6084,34176
6085,34112
6086,33984
6087,33920
6088,33984
6089,33984
6090,33856
6091,33856
6092,33984
6093,34048
6094,33984
6095,33984
6096,34112
6097,34176
6098,34112
6099,34048
6100,34112
6101,34176
6102,34112
6103,34112
6104,34240
6105,34496
6106,34624
6107,34880
6108,35392
6109,36096
6110,36736
6111,37376
6112,37632
6113,36992
6114,35648
6115,33920
6116,32448
6117,31616
6118,31232
6119,31232
6120,31680
6121,32384
6122,33088
6123,33664
6124,34176
6125,34560
6126,34880
6127,34944
6128,34880
6129,34880
6130,34816
6131,34688
6132,34560
6133,34496
6134,34496
6135,34368
6136,34240
6137,34240
6138,34304
6139,34240
6140,34176
6141,34176
6142,34240
6143,34240
6144,34240
6145,34240
6146,34304
6147,34368
6148,34304
6149,34240
6150,34368
6151,34432
6152,34368
6153,34304
6154,34368
6155,34432
6156,34432
6157,34368
6158,34432
6159,34496
6160,34496
6161,34432
6162,34496
6163,34624
6164,34624
6165,34560
6166,34560
6167,34688
6168,34688
6169,34624
6170,34624
6171,34688
6172,34752
6173,34752
6174,34688
6175,34752
6176,34752
6177,34688
6178,34624
6179,34688
6180,34752
6181,34624
6182,34560
6183,34496
6184,34560
6185,34432
6186,34304
6187,34176
6188,34176
6189,34112
6190,33984
6191,33920
6192,33920
6193,33920
6194,33856
6195,33792
6196,33920
6197,33984
6198,33920
6199,33920
6200,34048
6201,34112
6202,34048
6203,34048
6204,34112
6205,34176
6206,34112
6207,34112
6208,34112
6209,34176
6210,34176
6211,34112
6212,34112
6213,34176
6214,34176
6215,34112
6216,34048
6217,34176
6218,34176
6219,34112
6220,34112
6221,34176
6222,34176
6223,34112
6224,34048
6225,34112
6226,34176
6227,34112
6228,34048
6229,34048
6230,34112
6231,34112
6232,34048
6233,34048
6234,34112
6235,34048
6236,33984
6237,33984
6238,34048
6239,34048
6240,33984
6241,33984
6242,34048
6243,34048
6244,33984
6245,33920
6246,33984
6247,34048
6248,33984
6249,33920
6250,33984
6251,34048
6252,33984
6253,33920
6254,33984
6255,34048
6256,34048
6257,33984
6258,33984
6259,34048
6260,34048
6261,33984
6262,33920
6263,34048
6264,34048
6265,33984
6266,33984
6267,34048
6268,34048
6269,33984
6270,33984
6271,34048
6272,34112
6273,34048
6274,33984
6275,34048
6276,34048
6277,33984
6278,33920
6279,33984
6280,34048
6281,34048
6282,33984
6283,33984
6284,34048
6285,34048
6286,33984
6287,33984
6288,34048
6289,34048
6290,33984
6291,33920
6292,34048
6293,34048
6294,33984
6295,33920
6296,34048
6297,34112
6298,33984
6299,33984
6300,34048
6301,34112
6302,34048
6303,33984
6304,34048
6305,34112
6306,33984
6307,33920
6308,33920
6309,34048
6310,34048
6311,34048
6312,34112
6313,34240
6314,34304
6315,34176
6316,34112
6317,34176
6318,34176
6319,34048
6320,34048
6321,34112
6322,34176
6323,34112
6324,34048
6325,34048
6326,34048
6327,33920
6328,33792
6329,33856
6330,33984
6331,33920
6332,33856
6333,33920
6334,34048
6335,34048
6336,34048
6337,34048
6338,34176
6339,34176
6340,34048
6341,34048
6342,34112
6343,34112
6344,34112
6345,34240
6346,34496
6347,34880
6348,35200
6349,35712
6350,36480
6351,37248
6352,37632
6353,37184
6354,36032
6355,34496
6356,32832
6357,31680
6358,31104
6359,31168
6360,31488
6361,32064
6362,32768
6363,33472
6364,34048
6365,34368
6366,34624
6367,34816
6368,34880
6369,34816
6370,34688
6371,34688
6372,34624
6373,34432
6374,34304
6375,34304
6376,34304
6377,34240
6378,34112
6379,34112
6380,34176
6381,34112
6382,34048
6383,34112
6384,34176
6385,34176
6386,34112
6387,34176
6388,34240
6389,34240
6390,34176
6391,34176
6392,34304
6393,34304
6394,34240
6395,34240
6396,34368
6397,34368
6398,34304
6399,34240
6400,34368
6401,34432
6402,34368
6403,34368
6404,34432
6405,34496
6406,34496
6407,34496
6408,34496
6409,34624
6410,34624
6411,34560
6412,34560
6413,34688
6414,34688
6415,34560
6416,34560
6417,34624
6418,34624
6419,34560
6420,34496
6421,34496
6422,34496
6423,34432
6424,34304
6425,34304
6426,34304
6427,34176
6428,33984
6429,33984
6430,33920
6431,33856
6432,33728
6433,33728
6434,33792
6435,33728
6436,33664
6437,33728
6438,33856
6439,33856
6440,33792
6441,33792
6442,33920
6443,33920
6444,33920
6445,33920
6446,34048
6447,34112
6448,34048
6449,33984
6450,34048
6451,34048
6452,33984
6453,33920
6454,33984
6455,34048
6456,33984
6457,33920
6458,33984
6459,34048
6460,33984
6461,33920
6462,33920
6463,34048
6464,34048
6465,33984
6466,33984
6467,34048
6468,33984
6469,33920
6470,33920
6471,34048
6472,34112
6473,34048
6474,33984
6475,34048
6476,34048
6477,33984
6478,33920
6479,33920
6480,33984
6481,33984
6482,33920
6483,33920
6484,33984
6485,33984
6486,33856
6487,33856
6488,33920
6489,33920
6490,33856
6491,33856
6492,33920
6493,33920
6494,33856
6495,33792
6496,33920
6497,33984
6498,33856
6499,33856
6500,33920
6501,33984
6502,33920
6503,33856
6504,33856
6505,33920
6506,33920
6507,33856
6508,33920
6509,33984
6510,33984
6511,33920
6512,33920
6513,33984
6514,33920
6515,33920
6516,33920
6517,33984
6518,33984
6519,33920
6520,33856
6521,33920
6522,33920
6523,33856
6524,33856
6525,33984
6526,34048
6527,33984
6528,33920
6529,33920
6530,33984
6531,33920
6532,33856
6533,33920
6534,34048
6535,34048
6536,34048
6537,34112
6538,34176
6539,34176
6540,34048
6541,34048
6542,34112
6543,34112
6544,34048
6545,34048
6546,34112
6547,34112
6548,33984
6549,33920
6550,33920
6551,33920
6552,33856
6553,33856
6554,33920
6555,33984
6556,33984
6557,33920
6558,33984
6559,34112
6560,34048
6561,34048
6562,34048
6563,34176
6564,34176
6565,34112
6566,34112
6567,34240
6568,34368
6569,34432
6570,34624
6571,35072
6572,35520
6573,36032
6574,36672
6575,37440
6576,37440
6577,36416
6578,34944
6579,33408
6580,32320
6581,31552
6582,31232
6583,31360
6584,32512
6585,33088
6586,33728
6587,34304
6588,34624
6589,34816
6590,34880
6591,35008
6592,34944
6593,34816
6594,34688
6595,34688
6596,34560
6597,34496
6598,34368
6599,34368
6600,34368
6601,34304
6602,34240
6603,34240
6604,34368
6605,34304
6606,34240
6607,34304
6608,34368
6609,34368
6610,34304
6611,34368
6612,34304
6613,34432
6614,34368
6615,34368
6616,34496
6617,34496
6618,34432
6619,34368
6620,34496
6621,34496
6622,34432
6623,34432
6624,34496
6625,34560
6626,34560
6627,34496
6628,34560
6629,34688
6630,34624
6631,34560
6632,34624
6633,34688
6634,34688
6635,34624
6636,34688
6637,34752
6638,34688
6639,34624
6640,34560
6641,34688
6642,34688
6643,34560
6644,34496
6645,34496
6646,34496
6647,34368
6648,34304
6649,34240
6650,34304
6651,34176
6652,34048
6653,34048
6654,34048
6655,33984
6656,33856
6657,33792
6658,33984
6659,33920
6660,33856
6661,33920
6662,34048
6663,34048
6664,33984
6665,33984
6666,34112
6667,34176
6668,34112
6669,34112
6670,34240
6671,34240
6672,34176
6673,34112
6674,34176
6675,34240
6676,34176
6677,34112
6678,34176
6679,34176
6680,34112
6681,34048
6682,34112
6683,34176
6684,34112
6685,34048
6686,34112
6687,34048
6688,34112
6689,34048
6690,34048
6691,34176
6692,34176
6693,34048
6694,34048
6695,34112
6696,34112
6697,34048
6698,33984
6699,34048
6700,34048
6701,33984
6702,33920
6703,34048
6704,34112
6705,34048
6706,33984
6707,34048
6708,34048
6709,34048
6710,33920
6711,33984
6712,34048
6713,34048
6714,33984
6715,33984
6716,34048
6717,34048
6718,33984
6719,33984
6720,34048
6721,34112
6722,34048
6723,33984
6724,34048
6725,34112
6726,34048
6727,33984
6728,34048
6729,34112
6730,34048
6731,33984
6732,33984
6733,34112
6734,34048
6735,33984
6736,33984
6737,34112
6738,34048
6739,33984
6740,33984
6741,34048
6742,34048
6743,33984
6744,33984
6745,34112
6746,34112
6747,34112
6748,34048
6749,34112
6750,34112
6751,33984
6752,33920
6753,34048
6754,34112
6755,34176
6756,34176
6757,34176
6758,34240
6759,34176
6760,34048
6761,34048
6762,34048
6763,34048
6764,34048
6765,34048
6766,34176
6767,34176
6768,34048
6769,33984
6770,33984
6771,33984
6772,33920
6773,33856
6774,33984
6775,33984
6776,33984
6777,33984
6778,34048
6779,34112
6780,34112
6781,34048
6782,34112
6783,34240
6784,34176
6785,34112
6786,34112
6787,34240
6788,34368
6789,34432
6790,34688
6791,35328
6792,35264
6793,36352
6794,37056
6795,37632
6796,37376
6797,36160
6798,34496
6799,32960
6800,31808
6801,31104
6802,31040
6803,31424
6804,32128
6805,32768
6806,33408
6807,33984
6808,34496
6809,34752
6810,34880
6811,34944
6812,34944
6813,34816
6814,34688
6815,34560
6816,34560
6817,34496
6818,34304
6819,34240
6820,34240
6821,34240
6822,34176
6823,34112
6824,34240
6825,34240
6826,34240
6827,34176
6828,34240
6829,34368
6830,34304
6831,34240
6832,34304
6833,34368
6834,34368
6835,34240
6836,34304
6837,34368
6838,34368
6839,34304
6840,34304
6841,34432
6842,34432
6843,34368
6844,34368
6845,34496
6846,34560
6847,34496
6848,34496
6849,34560
6850,34624
6851,34624
6852,34560
6853,34624
6854,34752
6855,34688
6856,34688
6857,34688
6858,34752
6859,34688
6860,34624
6861,34688
6862,34688
6863,34688
6864,34560
6865,34560
6866,34624
6867,34560
6868,34368
6869,34240
6870,34240
6871,34176
6872,34048
6873,33920
6874,33920
6875,33984
6876,33920
6877,33856
6878,33920
6879,33984
6880,33984
6881,33920
6882,33984
6883,34176
6884,34176
6885,34176
6886,34176
6887,34240
6888,34112
6889,34048
6890,34048
6891,34048
6892,34048
6893,33984
6894,33984
6895,34048
6896,34112
6897,34048
6898,34112
6899,34176
6900,34176
6901,34112
6902,34048
6903,34048
6904,34176
6905,34112
6906,34112
6907,34112
6908,34176
6909,34112
6910,34048
6911,34048
6912,34048
6913,34048
6914,33984
6915,33984
6916,34048
6917,34048
6918,33984
6919,33920
6920,33984
6921,33984
6922,33920
6923,33920
6924,33984
6925,33984
6926,33920
6927,33920
6928,34048
6929,34048
6930,33984
6931,33920
6932,33984
6933,34048
6934,33920
6935,33856
6936,33856
6937,33920
6938,33856
6939,33728
6940,33792
6941,33920
6942,33984
6943,33920
6944,33920
6945,33984
6946,33984
6947,33920
6948,33920
6949,33984
6950,34048
6951,33984
6952,33920
6953,33984
6954,33984
6955,33920
6956,33856
6957,33856
6958,34048
6959,33984
6960,33984
6961,33984
6962,34048
6963,34048
6964,33984
6965,33920
6966,34048
6967,33984
6968,33792
6969,33792
6970,33920
6971,34048
6972,33984
6973,34048
6974,34112
6975,34112
6976,33984
6977,33920
6978,33984
6979,34048
6980,34048
6981,34048
6982,34112
6983,34240
6984,34112
6985,33920
6986,33856
6987,33856
6988,33856
6989,33856
6990,33920
6991,33920
6992,33920
6993,33792
6994,33792
6995,33920
6996,34048
6997,33984
6998,33984
6999,34048
7000,34048
7001,33984
7002,33920
7003,34048
7004,34240
7005,34304
7006,34560
7007,34944
7008,35456
7009,35904
7010,36480
7011,37184
7012,37312
7013,36352
7014,34752
7015,33152
7016,31680
7017,31552
7018,30912
7019,31104
7020,31744
7021,32448
7022,33024
7023,33600
7024,34112
7025,34496
7026,34624
7027,34688
7028,34816
7029,34816
7030,34688
7031,34496
7032,34432
7033,34432
7034,34368
7035,34240
7036,34240
7037,34304
7038,34176
7039,33984
7040,33920
7041,34048
7042,34112
7043,34048
7044,33984
7045,34048
7046,34048
7047,33984
7048,34048
7049,34176
7050,34240
7051,34240
7052,34176
7053,34304
7054,34368
7055,34368
7056,34304
7057,34368
7058,34432
7059,34432
7060,34368
7061,34496
7062,34496
7063,34432
7064,34304
7065,34368
7066,34496
7067,34560
7068,34560
7069,34560
7070,34624
7071,34688
7072,34624
7073,34560
7074,34560
7075,34560
7076,34432
7077,34368
7078,34496
7079,34560
7080,34496
7081,34432
7082,34432
7083,34496
7084,34368
7085,34240
7086,34304
7087,34368
7088,34240
7089,34112
7090,34048
7091,34048
7092,34048
7093,33984
7094,33856
7095,33920
7096,33920
7097,33920
7098,33920
7099,33984
7100,34048
7101,33920
7102,33920
7103,34048
7104,34112
7105,34048
7106,34048
7107,34176
7108,34240
7109,34240
7110,34176
7111,34176
7112,34176
7113,34112
7114,33984
7115,33984
7116,34112
7117,34176
7118,34112
7119,34112
7120,34176
7121,34240
7122,34176
7123,34112
7124,34176
7125,34240
7126,34176
7127,34112
7128,34176
7129,34112
7130,34048
7131,33984
7132,34112
7133,34176
7134,34112
7135,33984
7136,34112
7137,34048
7138,34048
7139,33984
7140,33984
7141,34112
7142,34176
7143,34112
7144,34112
7145,34176
7146,34048
7147,33920
7148,33920
7149,33984
7150,33984
7151,33984
7152,33920
7153,33984
7154,34048
7155,33984
7156,33984
7157,34048
7158,34112
7159,34112
7160,34048
7161,34112
7162,34240
7163,34240
7164,34240
7165,34304
7166,34496
7167,34432
7168,34304
7169,34240
7170,34304
7171,34240
7172,34176
7173,34176
7174,34176
7175,34176
7176,34112
7177,34048
7178,34240
7179,34432
7180,34304
7181,34176
7182,34176
7183,34176
7184,34112
7185,34048
7186,34112
7187,34176
7188,34240
7189,34176
7190,34240
7191,34368
7192,34432
7193,34368
7194,34368
7195,34496
7196,34432
7197,34240
7198,34176
7199,34368
7200,34432
7201,34432
7202,34304
7203,34368
7204,34496
7205,34560
7206,34752
7207,35136
7208,35648
7209,36288
7210,37056
7211,37568
7212,37120
7213,35840
7214,34304
7215,32960
7216,32064
7217,31552
7218,31360
7219,31616
7220,32256
7221,32896
7222,33472
7223,33984
7224,34432
7225,34752
7226,34880
7227,34944
7228,35072
7229,35136
7230,35008
7231,34752
7232,34624
7233,34496
7234,34368
7235,34176
7236,34176
7237,34240
7238,34240
7239,34240
7240,34304
7241,34432
7242,34432
7243,34304
7244,34240
7245,34240
7246,34240
7247,34176
7248,34176
7249,34304
7250,34304
7251,34304
7252,34304
7253,34432
7254,34496
7255,34432
7256,34368
7257,34432
7258,34560
7259,34560
7260,34560
7261,34560
7262,34624
7263,34560
7264,34432
7265,34432
7266,34560
7267,34624
7268,34496
7269,34496
7270,34624
7271,34688
7272,34560
7273,34496
7274,34624
7275,34624
7276,34560
7277,34432
7278,34496
7279,34496
7280,34368
7281,34304
7282,34304
7283,34368
7284,34240
7285,34176
7286,34112
7287,34112
7288,33984
7289,33856
7290,33856
7291,33920
7292,33856
7293,33792
7294,33792
7295,33984
7296,34112
7297,34048
7298,33920
7299,33920
7300,33984
7301,33984
7302,33984
7303,34112
7304,34240
7305,34176
7306,34112
7307,34176
7308,34240
7309,34176
7310,34112
7311,34176
7312,34240
7313,34112
7314,34048
7315,34112
7316,34240
7317,34176
7318,34048
7319,34048
7320,34176
7321,34240
7322,34176
7323,34176
7324,34304
7325,34368
7326,34368
7327,34304
7328,34176
7329,34112
7330,33984
7331,33920
7332,34048
7333,34112
7334,34048
7335,33984
7336,33984
7337,34048
7338,34048
7339,33920
7340,34048
7341,34176
7342,34176
7343,34112
7344,34112
7345,34176
7346,34176
7347,34112
7348,33984
7349,34048
7350,34112
7351,34112
7352,34048
7353,33984
7354,33920
7355,33856
7356,33728
7357,33728
7358,33792
7359,33856
7360,33856
7361,33984
7362,34112
7363,34304
7364,34304
7365,34304
7366,34304
7367,34304
7368,34240
7369,34176
7370,34176
7371,34112
7372,33984
7373,33920
7374,33984
7375,34048
7376,34048
7377,34048
7378,34176
7379,34240
7380,34112
7381,34048
7382,34048
7383,33984
7384,33856
7385,33728
7386,33728
7387,33728
7388,33664
7389,33600
7390,33664
7391,33856
7392,34048
7393,34048
7394,34048
7395,34240
7396,34304
7397,34176
7398,33984
7399,33984
7400,33984
7401,33856
7402,33792
7403,33984
7404,34240
7405,34496
7406,34752
7407,35328
7408,35904
7409,36544
7410,37248
7411,37440
7412,36736
7413,35200
7414,33408
7415,32064
7416,31232
7417,30912
7418,30976
7419,31424
7420,32256
7421,33152
7422,33920
7423,34432
7424,34752
7425,34944
7426,34944
7427,34880
7428,34816
7429,34816
7430,34688
7431,34560
7432,34496
7433,34368
7434,34176
7435,34048
7436,34048
7437,34176
7438,34112
7439,34048
7440,33984
7441,34112
7442,34048
7443,33984
7444,34048
7445,34240
7446,34496
7447,34496
7448,34496
7449,34688
7450,34816
7451,34688
7452,34624
7453,34624
7454,34816
7455,34880
7456,34944
7457,35008
7458,35072
7459,34880
7460,34688
7461,34624
7462,34688
7463,34624
7464,34560
7465,34624
7466,34816
7467,34880
7468,34880
7469,34880
7470,34944
7471,34816
7472,34688
7473,34752
7474,34880
7475,34880
7476,34752
7477,34624
7478,34688
7479,34688
7480,34624
7481,34560
7482,34624
7483,34624
7484,34496
7485,34304
7486,34304
7487,34432
7488,34304
7489,34048
7490,33920
7491,33920
7492,33984
7493,33920
7494,33856
7495,33792
7496,33664
7497,33536
7498,33536
7499,33792
7500,33920
7501,33984
7502,33920
7503,34048
7504,34240
7505,34304
7506,34176
7507,34176
7508,34240
7509,34176
7510,34112
7511,34048
7512,34048
7513,34048
7514,33984
7515,33984
7516,34112
7517,34112
7518,34048
7519,34048
7520,34112
7521,34176
7522,34176
7523,34176
7524,34176
7525,34112
7526,33920
7527,33920
7528,34048
7529,34176
7530,34112
7531,33984
7532,34048
7533,34112
7534,33984
7535,33920
7536,34048
7537,34112
7538,34112
7539,34048
7540,34048
7541,34176
7542,34176
7543,34112
7544,34176
7545,34240
7546,34240
7547,34112
7548,34048
7549,34176
7550,34240
7551,34176
7552,34112
7553,34304
7554,34432
7555,34368
7556,34368
7557,34368
7558,34432
7559,34368
7560,34304
7561,34368
7562,34496
7563,34432
7564,34304
7565,34176
7566,34048
7567,33920
7568,33856
7569,33856
7570,34048
7571,34048
7572,33920
7573,33792
7574,33792
7575,33728
7576,33664
7577,33664
7578,33856
7579,33984
7580,33984
7581,33984
7582,34112
7583,34176
7584,34176
7585,34112
7586,34048
7587,34112
7588,33984
7589,33856
7590,33856
7591,33920
7592,33920
7593,33984
7594,34176
7595,34496
7596,34880
7597,35328
7598,35968
7599,36800
7600,37568
7601,37632
7602,36736
7603,35264
7604,33536
7605,32064
7606,31168
7607,30912
7608,31168
7609,31680
7610,32320
7611,33088
7612,33856
7613,34368
7614,34752
7615,35008
7616,35136
7617,35072
7618,34880
7619,34752
7620,34688
7621,34560
7622,34368
7623,34240
7624,34240
7625,34240
7626,34112
7627,34048
7628,34112
7629,34112
7630,34048
7631,34048
7632,34176
7633,34240
7634,34304
7635,34240
7636,34240
7637,34240
7638,34176
7639,34176
7640,34176
7641,34240
7642,34304
7643,34304
7644,34304
7645,34304
7646,34240
7647,34240
7648,34240
7649,34368
7650,34432
7651,34368
7652,34432
7653,34624
7654,34688
7655,34624
7656,34560
7657,34624
7658,34752
7659,34752
7660,34752
7661,34880
7662,34944
7663,34752
7664,34560
7665,34496
7666,34560
7667,34496
7668,34496
7669,34432
7670,34496
7671,34496
7672,34432
7673,34432
7674,34496
7675,34432
7676,34112
7677,33920
7678,33920
7679,33920
7680,33792
7681,33664
7682,33728
7683,33792
7684,33728
7685,33728
7686,33792
7687,33856
7688,33792
7689,33728
7690,33792
7691,33856
7692,33920
7693,33920
7694,33920
7695,33984
7696,33984
7697,33920
7698,33920
7699,34048
7700,34112
7701,33984
7702,33920
7703,33920
7704,33856
7705,33792
7706,33792
7707,33920
7708,34112
7709,34112
7710,34048
7711,33984
7712,33984
7713,33920
7714,33792
7715,33856
7716,33920
7717,33920
7718,33792
7719,33728
7720,33792
7721,33856
7722,33792
7723,33792
7724,33856
7725,33856
7726,33856
7727,33856
7728,33920
7729,33984
7730,33920
7731,33792
7732,33856
7733,33984
7734,34048
7735,33984
7736,34048
7737,34048
7738,33984
7739,33920
7740,33984
7741,34048
7742,34048
7743,34048
7744,34048
7745,34112
7746,34048
7747,33984
7748,33984
7749,34048
7750,34112
7751,34048
7752,33984
7753,33920
7754,33856
7755,33792
7756,33792
7757,33856
7758,33984
7759,33856
7760,33664
7761,33600
7762,33664
7763,33600
7764,33536
7765,33600
7766,33728
7767,33792
7768,33728
7769,33728
7770,33856
7771,33920
7772,33856
7773,33792
7774,33856
7775,33856
7776,33728
7777,33664
7778,33792
7779,33856
7780,33856
7781,33920
7782,34112
7783,34432
7784,34816
7785,35328
7786,36096
7787,36864
7788,37312
7789,36800
7790,35648
7791,34048
7792,32384
7793,31232
7794,30720
7795,30848
7796,31360
7797,32000
7798,32640
7799,33408
7800,33920
7801,34240
7802,34496
7803,34816
7804,34880
7805,34752
7806,34560
7807,34560
7808,34560
7809,34432
7810,34304
7811,34304
7812,34368
7813,34304
7814,34176
7815,34112
7816,34176
7817,34112
7818,33984
7819,33984
7820,34112
7821,34112
7822,34112
7823,34176
7824,34304
7825,34368
7826,34304
7827,34304
7828,34432
7829,34560
7830,34560
7831,34496
7832,34560
7833,34560
7834,34496
7835,34496
7836,34560
7837,34624
7838,34688
7839,34688
7840,34752
7841,34880
7842,34880
7843,34816
7844,34752
7845,34752
7846,34688
7847,34560
7848,34560
7849,34624
7850,34624
7851,34560
7852,34560
7853,34624
7854,34688
7855,34688
7856,34624
7857,34688
7858,34688
7859,34624
7860,34432
7861,34368
7862,34304
7863,34240
7864,34112
7865,34048
7866,34112
7867,33984
7868,33920
7869,33856
7870,33984
7871,33920
7872,33856
7873,33856
7874,33984
7875,34048
7876,34048
7877,34048
7878,34176
7879,34240
7880,34240
7881,34176
7882,34240
7883,34240
7884,34176
7885,34176
7886,34304
7887,34432
7888,34304
7889,34176
7890,34112
7891,34112
7892,34048
7893,34048
7894,34112
7895,34176
7896,34176
7897,34112
7898,34112
7899,34176
7900,34240
7901,34176
7902,34112
7903,34176
7904,34112
7905,34048
7906,33984
7907,34048
7908,34112
7909,34112
7910,34048
7911,34112
7912,34176
7913,34112
7914,34048
7915,34048
7916,34112
7917,34048
7918,33984
7919,33984
7920,34048
7921,34048
7922,33984
7923,33984
7924,34112
7925,34176
7926,34112
7927,34048
7928,34048
7929,34048
7930,33984
7931,33920
7932,33984
7933,34048
7934,33984
7935,33856
7936,33856
7937,33920
7938,33920
7939,33856
7940,33856
7941,33984
7942,33984
7943,33920
7944,33984
7945,34112
7946,34112
7947,34176
7948,34240
7949,34368
7950,34368
7951,34240
7952,34176
7953,34176
7954,34176
7955,34112
7956,33984
7957,33984
7958,33984
7959,33920
7960,33856
7961,33984
7962,33984
7963,33920
7964,33856
7965,33856
7966,33856
7967,33728
7968,33728
7969,33728
7970,33792
7971,33728
7972,33728
7973,33792
7974,33856
7975,33920
7976,33920
7977,33984
7978,34112
7979,34112
7980,34048
7981,33920
7982,33920
7983,33984
7984,33984
7985,34048
7986,34304
7987,34496
7988,34624
7989,34880
7990,35392
7991,36160
7992,36864
7993,37440
7994,37376
7995,36480
7996,34944
7997,33216
7998,31872
7999,31168
8000,31040
8001,31232
8002,31808
8003,32512
8004,33216
8005,33792
8006,34240
8007,34624
8008,34880
8009,34944
8010,34880
8011,34816
8012,34816
8013,34624
8014,34496
8015,34432
8016,34432
8017,34304
8018,34112
8019,34048
8020,34048
8021,34048
8022,34048
8023,34112
8024,34176
8025,34176
8026,34176
8027,34176
8028,34240
8029,34240
8030,34112
8031,34112
8032,34176
8033,34240
8034,34240
8035,34240
8036,34240
8037,34368
8038,34304
8039,34240
8040,34304
8041,34432
8042,34496
8043,34432
8044,34432
8045,34560
8046,34560
8047,34496
8048,34496
8049,34496
8050,34432
8051,34304
8052,34176
8053,34240
8054,34304
8055,34304
8056,34240
8057,34304
8058,34368
8059,34304
8060,34304
8061,34368
8062,34432
8063,34304
8064,34176
8065,34176
8066,34240
8067,34176
8068,34048
8069,34048
8070,34112
8071,34048
8072,33856
8073,33792
8074,33856
8075,33792
8076,33728
8077,33728
8078,33920
8079,33920
8080,33856
8081,33792
8082,33856
8083,33920
8084,33920
8085,33920
8086,33984
8087,34112
8088,34176
8089,34112
8090,34176
8091,34240
8092,34240
8093,34176
8094,34112
8095,34176
8096,34176
8097,34112
8098,34112
8099,34176
8100,34240
8101,34176
8102,34112
8103,34112
8104,34176
8105,34176
8106,34176
8107,34240
8108,34304
8109,34304
8110,34240
8111,34304
8112,34304
8113,34176
8114,34112
8115,34112
8116,34176
8117,34176
8118,34112
8119,34112
8120,34176
8121,34240
8122,34176
8123,34176
8124,34240
8125,34304
8126,34240
8127,34240
8128,34304
8129,34368
8130,34304
8131,34176
8132,34112
8133,34176
8134,34176
8135,34112
8136,34112
8137,34240
8138,34176
8139,34176
8140,34240
8141,34304
8142,34240
8143,34112
8144,34048
8145,34112
8146,34112
8147,34112
8148,34176
8149,34368
8150,34432
8151,34496
8152,34560
8153,34688
8154,34688
8155,34560
8156,34496
8157,34432
8158,34368
8159,34304
8160,34240
8161,34304
8162,34368
8163,34368
8164,34240
8165,34240
8166,34240
8167,34240
8168,34112
8169,34112
8170,34048
8171,33984
8172,33792
8173,33792
8174,33856
8175,33920
8176,33920
8177,33984
8178,34112
8179,34176
8180,34112
8181,34112
8182,34176
8183,34240
8184,34176
8185,34112
8186,34176
8187,34176
8188,34112
8189,34112
8190,34176
8191,34368
8192,34496
8193,34688
8194,35008
8195,35456
8196,35968
8197,36672
8198,37376
8199,37376
8200,36480
8201,34880
8202,33344
8203,32256
8204,31616
8205,31360
8206,31488
8207,32064
8208,32768
8209,33280
8210,33856
8211,34368
8212,34752
8213,34880
8214,34880
8215,34944
8216,35008
8217,34880
8218,34752
8219,34624
8220,34560
8221,34496
8222,34368
8223,34304
8224,34304
8225,34240
8226,34176
8227,34176
8228,34240
8229,34240
8230,34240
8231,34240
8232,34304
8233,34368
8234,34368
8235,34304
8236,34304
8237,34368
8238,34368
8239,34304
8240,34304
8241,34368
8242,34432
8243,34368
8244,34432
8245,34496
8246,34496
8247,34432
8248,34432
8249,34496
8250,34560
8251,34496
8252,34496
8253,34560
8254,34624
8255,34560
8256,34496
8257,34560
8258,34624
8259,34624
8260,34560
8261,34624
8262,34688
8263,34688
8264,34624
8265,34624
8266,34688
8267,34624
8268,34560
8269,34496
8270,34496
8271,34496
8272,34368
8273,34304
8274,34304
8275,34176
8276,34112
8277,34048
8278,34112
8279,34176
8280,34112
8281,34112
8282,34176
8283,34240
8284,34176
8285,34112
8286,34112
8287,34240
8288,34240
8289,34176
8290,34304
8291,34368
8292,34368
8293,34240
8294,34240
8295,34304
8296,34304
8297,34240
8298,34240
8299,34304
8300,34304
8301,34176
8302,34112
8303,34176
8304,34240
8305,34240
8306,34176
8307,34240
8308,34240
8309,34240
8310,34176
8311,34240
8312,34304
8313,34304
8314,34240
8315,34304
8316,34368
8317,34240
8318,34112
8319,34112
8320,34176
8321,34176
8322,34112
8323,34112
8324,34176
8325,34240
8326,34176
8327,34176
8328,34240
8329,34240
8330,34176
8331,34112
8332,34176
8333,34176
8334,34176
8335,34112
8336,34176
8337,34240
8338,34112
8339,34048
8340,34048
8341,34112
8342,34112
8343,34048
8344,33984
8345,34048
8346,34048
8347,33984
8348,33984
8349,34112
8350,34112
8351,34112
8352,34112
8353,34176
8354,34240
8355,34240
8356,34240
8357,34368
8358,34432
8359,34368
8360,34304
8361,34304
8362,34304
8363,34240
8364,34112
8365,34112
8366,34176
8367,34176
8368,34048
8369,33984
8370,34048
8371,34048
8372,34048
8373,34048
8374,34176
8375,34112
8376,33984
8377,33856
8378,33856
8379,33920
8380,33920
8381,33920
8382,33984
8383,34048
8384,33984
8385,33920
8386,34048
8387,34112
8388,34112
8389,34048
8390,34112
8391,34176
8392,34112
8393,34048
8394,34112
8395,34240
8396,34304
8397,34432
8398,34688
8399,35136
8400,35712
8401,36288
8402,36992
8403,37504
8404,36416
8405,34816
8406,33152
8407,31808
8408,30976
8409,30848
8410,31296
8411,32000
8412,32704
8413,33344
8414,33984
8415,34496
8416,34816
8417,34880
8418,34944
8419,34880
8420,34944
8421,34752
8422,34624
8423,34560
8424,34496
8425,34368
8426,34240
8427,34176
8428,34304
8429,34176
8430,34112
8431,34176
8432,34240
8433,34176
8434,34112
8435,34240
8436,34304
8437,34304
8438,34304
8439,34368
8440,34432
8441,34368
8442,34304
8443,34304
8444,34432
8445,34432
8446,34368
8447,34432
8448,34496
8449,34496
8450,34432
8451,34432
8452,34496
8453,34560
8454,34560
8455,34496
8456,34624
8457,34624
8458,34688
8459,34624
8460,34688
8461,34752
8462,34752
8463,34688
8464,34624
8465,34688
8466,34560
8467,34496
8468,34496
8469,34624
8470,34688
8471,34560
8472,34496
8473,34560
8474,34560
8475,34432
8476,34368
8477,34304
8478,34240
8479,34112
8480,33984
8481,33984
8482,34048
8483,33984
8484,33920
8485,33984
8486,33984
8487,33984
8488,33920
8489,33984
8490,34048
8491,34048
8492,33984
8493,33984
8494,34048
8495,34112
8496,34048
8497,34048
8498,34176
8499,34176
8500,34112
8501,34112
8502,34240
8503,34240
8504,34176
8505,34176
8506,34240
8507,34240
8508,34176
8509,34112
8510,34176
8511,34176
8512,34112
8513,34048
8514,34112
8515,34176
8516,34112
8517,33984
8518,33984
8519,34112
8520,34112
8521,34048
8522,34048
8523,34176
8524,34240
8525,34176
8526,34112
8527,34176
8528,34176
8529,34112
8530,34048
8531,34112
8532,34112
8533,34112
8534,34048
8535,34048
8536,34048
8537,33984
8538,33984
8539,33984
8540,34048
8541,34048
8542,33984
8543,33984
8544,34048
8545,34048
8546,33920
8547,33920
8548,34048
8549,34048
8550,33984
8551,33920
8552,33984
8553,34048
8554,34048
8555,34048
8556,34112
8557,34176
8558,34112
8559,34048
8560,34112
8561,34176
8562,34176
8563,34048
8564,34048
8565,34112
8566,34048
8567,34048
8568,34048
8569,34112
8570,34048
8571,33984
8572,33984
8573,34048
8574,34048
8575,33984
8576,33984
8577,33920
8578,34112
8579,34048
8580,34048
8581,34176
8582,34304
8583,34304
8584,34304
8585,34304
8586,34304
8587,34240
8588,34112
8589,34112
8590,34176
8591,34176
8592,34112
8593,34176
8594,34240
8595,34176
8596,33984
8597,33984
8598,34112
8599,34176
8600,34176
8601,34112
8602,34112
8603,33984
8604,33792
8605,33728
8606,33792
8607,33792
8608,33856
8609,33792
8610,33856
8611,33984
8612,34048
8613,33984
8614,34048
8615,34112
8616,34048
8617,33984
8618,33984
8619,34048
8620,34048
8621,33920
8622,33984
8623,34112
8624,34304
8625,34560
8626,35008
8627,35648
8628,36352
8629,36992
8630,37440
8631,37248
8632,36224
8633,34560
8634,32832
8635,31616
8636,30848
8637,30848
8638,31168
8639,31872
8640,32640
8641,33280
8642,33856
8643,34304
8644,34688
8645,34816
8646,34816
8647,34752
8648,34752
8649,34688
8650,34560
8651,34368
8652,34304
8653,34240
8654,34112
8655,34048
8656,34048
8657,34112
8658,34048
8659,33984
8660,34048
8661,34112
8662,34112
8663,34048
8664,34112
8665,34176
8666,34176
8667,34112
8668,34112
8669,34240
8670,34304
8671,34304
8672,34240
8673,34304
8674,34368
8675,34304
8676,34240
8677,34304
8678,34304
8679,34304
8680,34240
8681,34368
8682,34304
8683,34368
8684,34304
8685,34432
8686,34496
8687,34560
8688,34496
8689,34560
8690,34624
8691,34560
8692,34496
8693,34432
8694,34496
8695,34496
8696,34432
8697,34368
8698,34496
8699,34496
8700,34432
8701,34368
8702,34368
8703,34304
8704,34176
8705,34112
8706,34048
8707,34048
8708,33920
8709,33856
8710,33856
8711,33856
8712,33792
8713,33728
8714,33728
8715,33856
8716,33856
8717,33792
8718,33856
8719,33984
8720,33984
8721,33920
8722,33856
8723,33984
8724,33984
8725,33984
8726,33984
8727,34112
8728,34176
8729,34112
8730,34048
8731,34112
8732,34176
8733,34112
8734,34048
8735,34112
8736,34176
8737,34112
8738,34048
8739,34112
8740,34176
8741,34112
8742,33984
8743,33984
8744,34048
8745,34048
8746,33984
8747,34048
8748,34176
8749,34176
8750,34112
8751,34112
8752,34176
8753,34176
8754,34176
8755,34112
8756,34176
8757,34112
8758,34112
8759,34048
8760,34048
8761,34112
8762,34112
8763,34048
8764,34048
8765,34176
8766,34176
8767,34112
8768,34048
8769,34048
8770,34048
8771,34048
8772,34048
8773,34112
8774,34112
8775,34112
8776,34112
8777,34240
8778,34240
8779,34112
8780,34048
8781,34048
8782,34048
8783,33984
8784,33984
8785,33984
8786,34112
8787,34112
8788,34048
8789,34112
8790,34112
8791,34112
8792,34048
8793,34112
8794,34240
8795,34304
8796,34304
8797,34240
8798,34304
8799,34368
8800,34304
8801,34240
8802,34176
8803,34176
8804,34048
8805,33984
8806,34112
8807,34240
8808,34240
8809,34176
8810,34176
8811,34240
8812,34176
8813,34112
8814,34176
8815,34240
8816,34112
8817,33920
8818,33856
8819,33920
8820,33920
8821,33920
8822,33920
8823,33984
8824,34048
8825,33984
8826,33984
8827,34048
8828,34112
8829,34112
8830,34048
8831,34176
8832,34176
8833,34176
8834,34048
8835,34112
8836,34240
8837,34304
8838,34304
8839,34432
8840,34752
8841,35136
8842,35584
8843,36160
8844,36992
8845,37440
8846,36544
8847,36288
8848,34176
8849,32768
8850,31808
8851,31296
8852,31296
8853,31680
8854,32192
8855,32832
8856,33472
8857,34112
8858,34496
8859,34752
8860,34944
8861,35072
8862,35008
8863,34880
8864,34752
8865,34688
8866,34560
8867,34432
8868,34368
8869,34368
8870,34304
8871,34176
8872,34112
8873,34176
8874,34240
8875,34240
8876,34240
8877,34304
8878,34368
8879,34304
8880,34304
8881,34368
8882,34496
8883,34432
8884,34368
8885,34432
8886,34496
8887,34432
8888,34432
8889,34432
8890,34560
8891,34560
8892,34496
8893,34560
8894,34688
8895,34624
8896,34560
8897,34496
8898,34560
8899,34560
8900,34560
8901,34496
8902,34560
8903,34624
8904,34624
8905,34560
8906,34496
8907,34496
8908,34496
8909,34432
8910,34496
8911,34560
8912,34560
8913,34560
8914,34560
8915,34624
8916,34496
8917,34368
8918,34368
8919,34368
8920,34240
8921,34112
8922,34048
8923,34112
8924,34112
8925,33920
8926,33856
8927,33920
8928,33920
8929,33856
8930,33856
8931,33984
8932,34048
8933,34048
8934,34048
8935,34048
8936,34176
8937,34112
8938,34112
8939,34112
8940,34176
8941,34112
8942,34112
8943,34112
8944,34240
8945,34112
8946,33984
8947,33984
8948,34048
8949,34112
8950,34048
8951,34048
8952,33984
8953,34112
8954,34048
8955,34048
8956,34112
8957,34176
8958,34112
8959,34048
8960,34112
8961,34176
8962,34112
8963,34048
8964,34112
8965,34176
8966,34112
8967,33920
8968,33920
8969,33984
8970,33984
8971,33920
8972,33920
8973,33984
8974,34048
8975,33984
8976,33920
8977,33984
8978,34048
8979,33984
8980,33920
8981,33984
8982,33984
8983,33984
8984,33920
8985,33984
8986,34048
8987,33984
8988,33920
8989,33920
8990,33984
8991,33984
8992,33920
8993,33920
8994,33984
8995,33984
8996,33920
8997,33856
8998,33984
8999,34048
9000,33984
9001,33920
9002,33856
9003,33920
9004,33920
9005,33920
9006,33984
9007,34048
9008,34048
9009,33984
9010,34048
9011,34048
9012,33984
9013,33920
9014,33984
9015,34048
9016,34048
9017,33984
9018,34048
9019,34112
9020,34176
9021,34176
9022,34176
9023,34240
9024,34240
9025,34176
9026,34176
9027,34240
9028,34304
9029,34240
9030,34112
9031,34048
9032,34048
9033,33984
9034,33920
9035,33856
9036,33920
9037,33920
9038,33984
9039,34112
9040,34240
9041,34304
9042,34240
9043,34176
9044,34112
9045,33984
9046,33856
9047,33856
9048,33920
9049,33984
9050,33920
9051,33920
9052,34048
9053,34176
9054,34112
9055,34048
9056,34176
9057,34112
9058,34176
9059,34112
9060,34176
9061,34240
9062,34304
9063,34368
9064,34560
9065,34880
9066,35328
9067,35776
9068,36416
9069,37120
9070,37568
9071,36608
9072,36416
9073,34240
9074,32576
9075,31360
9076,30784
9077,30976
9078,31552
9079,32192
9080,32896
9081,33600
9082,34240
9083,34560
9084,34752
9085,34944
9086,35072
9087,34944
9088,34816
9089,34624
9090,34624
9091,34496
9092,34368
9093,34304
9094,34304
9095,34240
9096,34176
9097,34176
9098,34240
9099,34240
9100,34176
9101,34112
9102,34048
9103,34240
9104,34240
9105,34176
9106,34240
9107,34304
9108,34304
9109,34240
9110,34304
9111,34368
9112,34368
9113,34304
9114,34368
9115,34432
9116,34432
9117,34432
9118,34432
9119,34496
9120,34560
9121,34496
9122,34496
9123,34624
9124,34624
9125,34560
9126,34560
9127,34624
9128,34752
9129,34688
9130,34688
9131,34816
9132,34752
9133,34688
9134,34624
9135,34624
9136,34688
9137,34624
9138,34560
9139,34560
9140,34624
9141,34560
9142,34496
9143,34432
9144,34432
9145,34368
9146,34240
9147,34176
9148,34176
9149,34176
9150,33984
9151,33920
9152,33920
9153,33920
9154,33856
9155,33856
9156,33984
9157,34048
9158,33984
9159,33984
9160,34048
9161,34176
9162,34176
9163,34112
9164,34112
9165,34176
9166,34176
9167,34176
9168,34176
9169,34240
9170,34240
9171,34176
9172,34176
9173,34240
9174,34240
9175,34176
9176,34112
9177,34176
9178,34240
9179,34176
9180,34176
9181,34176
9182,34240
9183,34112
9184,34048
9185,34048
9186,34112
9187,34112
9188,34048
9189,34112
9190,34176
9191,34112
9192,33984
9193,33984
9194,34112
9195,34112
9196,34048
9197,34112
9198,34240
9199,34304
9200,34240
9201,34176
9202,34240
9203,34240
9204,34176
9205,34112
9206,34176
9207,34240
9208,34240
9209,34176
9210,34176
9211,34304
9212,34240
9213,34176
9214,34176
9215,34240
9216,34176
9217,34112
9218,34112
9219,34176
9220,34176
9221,34176
9222,34176
9223,34176
9224,34176
9225,34112
9226,34112
9227,34176
9228,34304
9229,34304
9230,34240
9231,34240
9232,34304
9233,34240
9234,34176
9235,34176
9236,34240
9237,34240
9238,34240
9239,34304
9240,34368
9241,34368
9242,34240
9243,34240
9244,34304
9245,34304
9246,34240
9247,34304
9248,34368
9249,34368
9250,34240
9251,34176
9252,34240
9253,34240
9254,34176
9255,34112
9256,34176
9257,34240
9258,34240
9259,34240
9260,34240
9261,34368
9262,34368
9263,34304
9264,34304
9265,34368
9266,34304
9267,34304
9268,34304
9269,34432
9270,34432
9271,34304
9272,34112
9273,34176
9274,34112
9275,34048
9276,33984
9277,34048
9278,34112
9279,34112
9280,34048
9281,34112
9282,34176
9283,34176
9284,34176
9285,34240
9286,34304
9287,34304
9288,34240
9289,34240
9290,34304
9291,34304
9292,34304
9293,34432
9294,34688
9295,34944
9296,35264
9297,35712
9298,36480
9299,37184
9300,37632
9301,37184
9302,36032
9303,34432
9304,32704
9305,31808
9306,31296
9307,31296
9308,31616
9309,32192
9310,32896
9311,33600
9312,34112
9313,34432
9314,34752
9315,34944
9316,35008
9317,34944
9318,34944
9319,34880
9320,34752
9321,34560
9322,34368
9323,34304
9324,34304
9325,34240
9326,34240
9327,34240
9328,34176
9329,34048
9330,34048
9331,34112
9332,34240
9333,34304
9334,34304
9335,34368
9336,34368
9337,34240
9338,34112
9339,34112
9340,34240
9341,34304
9342,34240
9343,34304
9344,34368
9345,34368
9346,34304
9347,34304
9348,34432
9349,34560
9350,34496
9351,34432
9352,34496
9353,34496
9354,34432
9355,34432
9356,34560
9357,34624
9358,34624
9359,34560
9360,34496
9361,34560
9362,34496
9363,34432
9364,34496
9365,34560
9366,34560
9367,34496
9368,34496
9369,34496
9370,34496
9371,34368
9372,34304
9373,34304
9374,34304
9375,34176
9376,34112
9377,34048
9378,34048
9379,33920
9380,33792
9381,33792
9382,33920
9383,33856
9384,33792
9385,33792
9386,33920
9387,33920
9388,33920
9389,33920
9390,33984
9391,33984
9392,33920
9393,33920
9394,34048
9395,34112
9396,34048
9397,34048
9398,34112
9399,34112
9400,34048
9401,33920
9402,33984
9403,34048
9404,33984
9405,33920
9406,33984
9407,34048
9408,33984
9409,33984
9410,34048
9411,34176
9412,34112
9413,33984
9414,33984
9415,34112
9416,34112
9417,34112
9418,34112
9419,34112
9420,34112
9421,33984
9422,33920
9423,34048
9424,34048
9425,33984
9426,33920
9427,33984
9428,33984
9429,33984
9430,33984
9431,34048
9432,34048
9433,33920
9434,33856
9435,33920
9436,33984
9437,33984
9438,33984
9439,33984
9440,34048
9441,34048
9442,33984
9443,33984
9444,33984
9445,34048
9446,33984
9447,33984
9448,33984
9449,34048
9450,33984
9451,33920
9452,33984
9453,33984
9454,33920
9455,33920
9456,34048
9457,34112
9458,34048
9459,33984
9460,33984
9461,34048
9462,34048
9463,33984
9464,34048
9465,34176
9466,34176
9467,34048
9468,34048
9469,34048
9470,34048
9471,33984
9472,33984
9473,34112
9474,34048
9475,33984
9476,33984
9477,34112
9478,34176
9479,34048
9480,33984
9481,33984
9482,34048
9483,34112
9484,34112
9485,34176
9486,34304
9487,34240
9488,34112
9489,34048
9490,34048
9491,34048
9492,34048
9493,34048
9494,34112
9495,34176
9496,34112
9497,34048
9498,34048
9499,34048
9500,33984
9501,33920
9502,33920
9503,33984
9504,33984
9505,33984
9506,34048
9507,34112
9508,34048
9509,33984
9510,34048
9511,34176
9512,34176
9513,34176
9514,34176
9515,34240
9516,34176
9517,34176
9518,34240
9519,34496
9520,34816
9521,35200
9522,35712
9523,36480
9524,37312
9525,37696
9526,37248
9527,36032
9528,34496
9529,32832
9530,31680
9531,31232
9532,31232
9533,31616
9534,32192
9535,32832
9536,33536
9537,33984
9538,34304
9539,34624
9540,34880
9541,34944
9542,34816
9543,34816
9544,34752
9545,34688
9546,34432
9547,34304
9548,34304
9549,34240
9550,34112
9551,34112
9552,34112
9553,34176
9554,34112
9555,34048
9556,34112
9557,34240
9558,34240
9559,34176
9560,34240
9561,34304
9562,34240
9563,34176
9564,34240
9565,34304
9566,34304
9567,34304
9568,34304
9569,34368
9570,34432
9571,34432
9572,34368
9573,34496
9574,34496
9575,34432
9576,34368
9577,34496
9578,34560
9579,34560
9580,34560
9581,34688
9582,34752
9583,34624
9584,34560
9585,34560
9586,34688
9587,34624
9588,34624
9589,34688
9590,34688
9591,34688
9592,34560
9593,34560
9594,34624
9595,34624
9596,34560
9597,34432
9598,34432
9599,34368
9600,34176
9601,34048
9602,33984
9603,33984
9604,33856
9605,33856
9606,33920
9607,33920
9608,33856
9609,33792
9610,33792
9611,33856
9612,33856
9613,33856
9614,33920
9615,34048
9616,34048
9617,34048
9618,33984
9619,34112
9620,34112
9621,34048
9622,34048
9623,34112
9624,34176
9625,34112
9626,34048
9627,34112
9628,34176
9629,34112
9630,34048
9631,34048
9632,34112
9633,34112
9634,33984
9635,34048
9636,34112
9637,34112
9638,34048
9639,34048
9640,34240
9641,34240
9642,34112
9643,33984
9644,33984
9645,33920
9646,33920
9647,33920
9648,33984
9649,34048
9650,33984
9651,33920
9652,33984
9653,34048
9654,34048
9655,33984
9656,33984
9657,34048
9658,33984
9659,33920
9660,33920
9661,34048
9662,33984
9663,33920
9664,33984
9665,34048
9666,34048
9667,33920
9668,33920
9669,33984
9670,33984
9671,33920
9672,33920
9673,33984
9674,33984
9675,33920
9676,33920
9677,33920
9678,33920
9679,33920
9680,33856
9681,33920
9682,33984
9683,33984
9684,33984
9685,33984
9686,34048
9687,33984
9688,33920
9689,33984
9690,34048
9691,34048
9692,33984
9693,33984
9694,34048
9695,34048
9696,33984
9697,33984
9698,34112
9699,34112
9700,34048
9701,33984
9702,33984
9703,34048
9704,34112
9705,34176
9706,34240
9707,34304
9708,34240
9709,34112
9710,34048
9711,34048
9712,34048
9713,33920
9714,33920
9715,34048
9716,34048
9717,34048
9718,34048
9719,34112
9720,34112
9721,33984
9722,33920
9723,33984
9724,34048
9725,34048
9726,33984
9727,34048
9728,34048
9729,33984
9730,33920
9731,34048
9732,34176
9733,34112
9734,34048
9735,34048
9736,34176
9737,34112
9738,34112
9739,34176
9740,34432
9741,34688
9742,34944
9743,35456
9744,36160
9745,36928
9746,37504
9747,37504
9748,36736
9749,35328
9750,33600
9751,32128
9752,31360
9753,31168
9754,31360
9755,31808
9756,32512
9757,33216
9758,33728
9759,34176
9760,34560
9761,34816
9762,34880
9763,34816
9764,34816
9765,34816
9766,34688
9767,34496
9768,34432
9769,34368
9770,34304
9771,34176
9772,34112
9773,34176
9774,34176
9775,34112
9776,34112
9777,34176
9778,34240
9779,34176
9780,34112
9781,34176
9782,34240
9783,34240
9784,34240
9785,34304
9786,34368
9787,34368
9788,34304
9789,34304
9790,34432
9791,34432
9792,34368
9793,34368
9794,34432
9795,34496
9796,34432
9797,34432
9798,34560
9799,34624
9800,34624
9801,34624
9802,34688
9803,34752
9804,34688
9805,34688
9806,34752
9807,34752
9808,34624
9809,34560
9810,34560
9811,34624
9812,34560
9813,34560
9814,34496
9815,34560
9816,34560
9817,34432
9818,34432
9819,34432
9820,34432
9821,34240
9822,34176
9823,34112
9824,34112
9825,33984
9826,33856
9827,33856
9828,33856
9829,33856
9830,33792
9831,33856
9832,33984
9833,33920
9834,33856
9835,33856
9836,33984
9837,33984
9838,33984
9839,33984
9840,34112
9841,34112
9842,34048
9843,34048
9844,34112
9845,34112
9846,34048
9847,34048
9848,34176
9849,34176
9850,34112
9851,34048
9852,34048
9853,34048
9854,33984
9855,33984
9856,34048
9857,34176
9858,34112
9859,34048
9860,34048
9861,34112
9862,34112
9863,34048
9864,34048
9865,34112
9866,34112
9867,34048
9868,33984
9869,34048
9870,34112
9871,34048
9872,33984
9873,33984
9874,34048
9875,33984
9876,33984
9877,34048
9878,34112
9879,34048
9880,33984
9881,33984
9882,34112
9883,34048
9884,33984
9885,33984
9886,34048
9887,33984
9888,33920
9889,33920
9890,33984
9891,33984
9892,33920
9893,33920
9894,34048
9895,34112
9896,34048
9897,34048
9898,34112
9899,34112
9900,34048
9901,33920
9902,33984
9903,34048
9904,34048
9905,33920
9906,33920
9907,33984
9908,33920
9909,33920
9910,33984
9911,34048
9912,34048
9913,33984
9914,34048
9915,34112
9916,34048
9917,33984
9918,33984
9919,34112
9920,34112
9921,34048
9922,33984
9923,33984
9924,34048
9925,33984
9926,33984
9927,34112
9928,34176
9929,34176
9930,34112
9931,34112
9932,34048
9933,33984
9934,33920
9935,33920
9936,34048
9937,33984
9938,33920
9939,33984
9940,34048
9941,33984
9942,33856
9943,33792
9944,33856
9945,33856
9946,33792
9947,33792
9948,33920
9949,33984
9950,33920
9951,33920
9952,34048
9953,34112
9954,34112
9955,34112
9956,34112
9957,34176
9958,34048
9959,33984
9960,34112
9961,34304
9962,34432
9963,34624
9964,35072
9965,35712
9966,36352
9967,36992
9968,37440
9969,37120
9970,35904
9971,34240
9972,32640
9973,31680
9974,31232
9975,31104
9976,31360
9977,32000
9978,32768
9979,33408
9980,33920
9981,34432
9982,34752
9983,34816
9984,34816
9985,34816
9986,34816
9987,34752
9988,34560
9989,34432
9990,34432
9991,34304
9992,34176
9993,34112
9994,34176
9995,34176
9996,34112
9997,34112
9998,34176
9999,34176
10000,34048
10001,34048
10002,34176
10003,34240
10004,34176
10005,34176
10006,34240
10007,34304
10008,34304
10009,34240
10010,34240
10011,34304
10012,34368
10013,34304
10014,34304
10015,34368
10016,34432
10017,34368
10018,34368
10019,34432
10020,34496
10021,34432
10022,34432
10023,34496
10024,34560
10025,34560
10026,34496
10027,34560
10028,34624
10029,34560
10030,34496
10031,34560
10032,34624
10033,34560
10034,34496
10035,34432
10036,34496
10037,34432
10038,34304
10039,34240
10040,34368
10041,34304
10042,34176
10043,34048
10044,34048
10045,33984
10046,33920
10047,33856
10048,33856
10049,33856
10050,33792
10051,33728
10052,33792
10053,33856
10054,33792
10055,33728
10056,33792
10057,33856
10058,33856
10059,33856
10060,33856
10061,33984
10062,33984
10063,33984
10064,33984
10065,34112
10066,34112
10067,33984
10068,33984
10069,33984
10070,34048
10071,33984
10072,33984
10073,34112
10074,34176
10075,34112
10076,34048
10077,34048
10078,34048
10079,33984
10080,33984
10081,34048
10082,34112
10083,34112
10084,33984
10085,34048
10086,34112
10087,34112
10088,33984
10089,33984
10090,34048
10091,33984
10092,33984
10093,33984
10094,34048
10095,34048
10096,34048
10097,33984
10098,34048
10099,34048
10100,34048
10101,33984
10102,34048
10103,34048
10104,33984
10105,33920
10106,33920
10107,34048
10108,34048
10109,33920
10110,33920
10111,33984
10112,33984
10113,33984
10114,33984
10115,34048
10116,34048
10117,33984
10118,33984
10119,34048
10120,34112
10121,34112
10122,34048
10123,34112
10124,34112
10125,34048
10126,33984
10127,34048
10128,34112
10129,34112
10130,34112
10131,34112
10132,34240
10133,34240
10134,34176
10135,34240
10136,34304
10137,34240
10138,34176
10139,34112
10140,34112
10141,34112
10142,33984
10143,33920
10144,34048
10145,34112
10146,34112
10147,34112
10148,34176
10149,34112
10150,33984
10151,33920
10152,33920
10153,33984
10154,33984
10155,33984
10156,34048
10157,34112
10158,34048
10159,33984
10160,34048
10161,34112
10162,34176
10163,34112
10164,34112
10165,34176
10166,34176
10167,34112
10168,34048
10169,34112
10170,34240
10171,34304
10172,34432
10173,34752
10174,35264
10175,35776
10176,36416
10177,37120
10178,37504
10179,36928
10180,35648
10181,34048
10182,32704
10183,31744
10184,31232
10185,31232
10186,31680
10187,32320
10188,32896
10189,33536
10190,34112
10191,34496
10192,34688
10193,34752
10194,34880
10195,34880
10196,34816
10197,34688
10198,34624
10199,34560
10200,34432
10201,34304
10202,34304
10203,34304
10204,34240
10205,34176
10206,34240
10207,34240
10208,34176
10209,34112
10210,34176
10211,34304
10212,34304
10213,34304
10214,34304
10215,34368
10216,34304
10217,34240
10218,34240
10219,34368
10220,34368
10221,34304
10222,34304
10223,34496
10224,34496
10225,34432
10226,34432
10227,34496
10228,34560
10229,34560
10230,34560
10231,34624
10232,34624
10233,34560
10234,34624
10235,34688
10236,34752
10237,34688
10238,34624
10239,34624
10240,34624
10241,34560
10242,34560
10243,34624
10244,34624
10245,34624
10246,34560
10247,34496
10248,34496
10249,34432
10250,34240
10251,34240
10252,34240
10253,34176
10254,34048
10255,33984
10256,34048
10257,33984
10258,33920
10259,33920
10260,33984
10261,33984
10262,33920
10263,33920
10264,33856
10265,33984
10266,33920
10267,33984
10268,34112
10269,34176
10270,34176
10271,34112
10272,34176
10273,34176
10274,34112
10275,34048
10276,34048
10277,34112
10278,34048
10279,33984
10280,34048
10281,34112
10282,34112
10283,34112
10284,34112
10285,34240
10286,34240
10287,34176
10288,34112
10289,34176
10290,34176
10291,34112
10292,34112
10293,34176
10294,34176
10295,34176
10296,34112
10297,34112
10298,34176
10299,34048
10300,33984
10301,34048
10302,33984
10303,34112
10304,34048
10305,33984
10306,34048
10307,34048
10308,33984
10309,34048
10310,34112
10311,34112
10312,34048
10313,33984
10314,34048
10315,34112
10316,34048
10317,33984
10318,34048
10319,34112
10320,34048
10321,34048
10322,34112
10323,34176
10324,34112
10325,34048
10326,34048
10327,34112
10328,34048
10329,33984
10330,34048
10331,34112
10332,34112
10333,34048
10334,34048
10335,34112
10336,34112
10337,34112
10338,34112
10339,34112
10340,34112
10341,34048
10342,33984
10343,34048
10344,34112
10345,34112
10346,34112
10347,34176
10348,34240
10349,34240
10350,34240
10351,34240
10352,34368
10353,34304
10354,34304
10355,34304
10356,34304
10357,34240
10358,34112
10359,34048
10360,34048
10361,34048
10362,33984
10363,33984
10364,34112
10365,34240
10366,34176
10367,34176
10368,34176
10369,34112
10370,33984
10371,33856
10372,33984
10373,34048
10374,33984
10375,33920
10376,33984
10377,34048
10378,34048
10379,34048
10380,34048
10381,34176
10382,34176
10383,34112
10384,34048
10385,34112
10386,34112
10387,34112
10388,34176
10389,34432
10390,34688
10391,35200
10392,35200
10393,36416
10394,37184
10395,37632
10396,37312
10397,36224
10398,34688
10399,33024
10400,31744
10401,31168
10402,31104
10403,31424
10404,31936
10405,32640
10406,33408
10407,33984
10408,34368
10409,34688
10410,34944
10411,34944
10412,34880
10413,34816
10414,34816
10415,34688
10416,34496
10417,34368
10418,34368
10419,34368
10420,34304
10421,34240
10422,34176
10423,34240
10424,34176
10425,34112
10426,34176
10427,34304
10428,34240
10429,34176
10430,34240
10431,34304
10432,34304
10433,34240
10434,34240
10435,34368
10436,34368
10437,34304
10438,34240
10439,34304
10440,34368
10441,34368
10442,34368
10443,34496
10444,34560
10445,34560
10446,34496
10447,34560
10448,34688
10449,34624
10450,34624
10451,34624
10452,34688
10453,34688
10454,34688
10455,34752
10456,34816
10457,34816
10458,34688
10459,34688
10460,34752
10461,34752
10462,34688
10463,34624
10464,34624
10465,34624
10466,34496
10467,34432
10468,34432
10469,34432
10470,34304
10471,34240
10472,34240
10473,34176
10474,33984
10475,33792
10476,33792
10477,33856
10478,33856
10479,33856
10480,33856
10481,33984
10482,33920
10483,33920
10484,33984
10485,34112
10486,34112
10487,34112
10488,34048
10489,34176
10490,34240
10491,34176
10492,34176
10493,34176
10494,34112
10495,34048
10496,34048
10497,34112
10498,34176
10499,34112
10500,34112
10501,34112
10502,34176
10503,34176
10504,34112
10505,34112
10506,34112
10507,34112
10508,34048
10509,34048
10510,34176
10511,34176
10512,34112
10513,34112
10514,34176
10515,34176
10516,34112
10517,34048
10518,34112
10519,34176
10520,34112
10521,34048
10522,34112
10523,34112
10524,34048
10525,33984
10526,33984
10527,34112
10528,34112
10529,34048
10530,33984
10531,34112
10532,34048
10533,33984
10534,33984
10535,34112
10536,34112
10537,34048
10538,33984
10539,34048
10540,34048
10541,33920
10542,33856
10543,33984
10544,34048
10545,33984
10546,33920
10547,33984
10548,34048
10549,33984
10550,33984
10551,34048
10552,34112
10553,34112
10554,34048
10555,34048
10556,34112
10557,34112
10558,34048
10559,34048
10560,34112
10561,34112
10562,34048
10563,34048
10564,34112
10565,34112
10566,34048
10567,34048
10568,34176
10569,34176
10570,34112
10571,34048
10572,33984
10573,34240
10574,34176
10575,34176
10576,34240
10577,34304
10578,34176
10579,34112
10580,34048
10581,34112
10582,34048
10583,33984
10584,33984
10585,34048
10586,34112
10587,34048
10588,34048
10589,34112
10590,34112
10591,33984
10592,33920
10593,33984
10594,34048
10595,33984
10596,33984
10597,34048
10598,34048
10599,34048
10600,33920
10601,33920
10602,34048
10603,34048
10604,33984
10605,34048
10606,34112
10607,34112
10608,34112
10609,34176
10610,34368
10611,34560
10612,34752
10613,35200
10614,35840
10615,36544
10616,37376
10617,37376
10618,37120
10619,35904
10620,34240
10621,32640
10622,31680
10623,31168
10624,31232
10625,31552
10626,32192
10627,32896
10628,33536
10629,33984
10630,34432
10631,34816
10632,34816
10633,34880
10634,34816
10635,34816
10636,34688
10637,34496
10638,34432
10639,34432
10640,34368
10641,34176
10642,34048
10643,34048
10644,34112
10645,34048
10646,33984
10647,34048
10648,34112
10649,34048
10650,33984
10651,34048
10652,34176
10653,34176
10654,34112
10655,34176
10656,34240
10657,34176
10658,34176
10659,34176
10660,34304
10661,34304
10662,34240
10663,34304
10664,34368
10665,34368
10666,34304
10667,34240
10668,34368
10669,34432
10670,34368
10671,34368
10672,34432
10673,34496
10674,34496
10675,34496
10676,34560
10677,34624
10678,34560
10679,34496
10680,34496
10681,34560
10682,34496
10683,34432
10684,34432
10685,34496
10686,34496
10687,34432
10688,34368
10689,34304
10690,34304
10691,34112
10692,33984
10693,33984
10694,34048
10695,33920
10696,33792
10697,33728
10698,33728
10699,33728
10700,33728
10701,33792
10702,33856
10703,33856
10704,33792
10705,33856
10706,34048
10707,33984
10708,33920
10709,33920
10710,34048
10711,34112
10712,34048
10713,34048
10714,34112
10715,34112
10716,34048
10717,33984
10718,34048
10719,34112
10720,34048
10721,34048
10722,34048
10723,34176
10724,34112
10725,34112
10726,34112
10727,34176
10728,34176
10729,34048
10730,34048
10731,34112
10732,34112
10733,34048
10734,33984
10735,34048
10736,34112
10737,34048
10738,34048
10739,34112
10740,34112
10741,34048
10742,33984
10743,34048
10744,34112
10745,34048
10746,33984
10747,34048
10748,34112
10749,34112
10750,34048
10751,34112
10752,34176
10753,34176
10754,34112
10755,34112
10756,34176
10757,34176
10758,34112
10759,34112
10760,34176
10761,34112
10762,34048
10763,33984
10764,34048
10765,34112
10766,34112
10767,34048
10768,34112
10769,34176
10770,34048
10771,33984
10772,33984
10773,34048
10774,34048
10775,33984
10776,34048
10777,34112
10778,34176
10779,34112
10780,34112
10781,34112
10782,34112
10783,34048
10784,34048
10785,34176
10786,34176
10787,34112
10788,34048
10789,34176
10790,34240
10791,34240
10792,34112
10793,34176
10794,34176
10795,34112
10796,33984
10797,33920
10798,34048
10799,33984
10800,33984
10801,34048
10802,34176
10803,34176
10804,34112
10805,34112
10806,34112
10807,33984
10808,33856
10809,33792
10810,33856
10811,33920
10812,33856
10813,33856
10814,33984
10815,34048
10816,34048
10817,34048
10818,34112
10819,34176
10820,34112
10821,34048
10822,34112
10823,34176
10824,34112
10825,34112
10826,34304
10827,34560
10828,34880
10829,35328
10830,35968
10831,36608
10832,37248
10833,37440
10834,36736
10835,35520
10836,33920
10837,32384
10838,31424
10839,31104
10840,31232
10841,31872
10842,31936
10843,32960
10844,33664
10845,34112
10846,34432
10847,34688
10848,34880
10849,34880
10850,34752
10851,34752
10852,34752
10853,34688
10854,34496
10855,34432
10856,34368
10857,34304
10858,34112
10859,34112
10860,34176
10861,34176
10862,34112
10863,34112
10864,34176
10865,34240
10866,34176
10867,34176
10868,34304
10869,34368
10870,34304
10871,34240
10872,34240
10873,34304
10874,34304
10875,34240
10876,34368
10877,34432
10878,34432
10879,34368
10880,34432
10881,34496
10882,34560
10883,34496
10884,34496
10885,34624
10886,34688
10887,34624
10888,34624
10889,34752
10890,34752
10891,34688
10892,34688
10893,34752
10894,34752
10895,34688
10896,34560
10897,34560
10898,34624
10899,34624
10900,34560
10901,34560
10902,34624
10903,34560
10904,34496
10905,34432
10906,34496
10907,34432
10908,34240
10909,34112
10910,34112
10911,34048
10912,33920
10913,33856
10914,33920
10915,33920
10916,33792
10917,33792
10918,33856
10919,33984
10920,33984
10921,33920
10922,33984
10923,34048
10924,34048
