,ECG
0,106
1,102
2,94
3,85
4,72
5,60
6,52
7,48
8,46
9,46
10,47
11,48
12,41
13,37
14,34
15,31
16,30
17,30
18,26
19,21
20,15
21,11
22,9
23,9
24,13
25,19
26,25
27,27
28,25
29,20
30,12
31,6
32,6
33,10
34,19
35,34
36,50
37,64
38,73
39,75
40,75
41,72
42,64
43,58
44,54
45,51
46,50
47,52
48,54
49,54
50,52
51,51
52,49
53,47
54,44
55,47
56,54
57,62
58,68
59,72
60,71
61,65
62,58
63,55
64,55
65,60
66,69
67,80
68,86
69,87
70,82
71,74
72,66
73,60
74,56
75,52
76,44
77,31
78,28
79,27
80,33
81,45
82,59
83,72
84,83
85,87
86,87
87,82
88,77
89,73
90,67
91,57
92,47
93,39
94,33
95,29
96,27
97,29
98,37
99,47
100,57
101,66
102,71
103,70
104,65
105,58
106,53
107,48
108,46
109,52
110,50
111,44
112,37
113,30
114,24
115,23
116,25
117,29
118,32
119,34
120,35
121,33
122,34
123,36
124,36
125,37
126,34
127,24
128,15
129,6
130,1
131,2
132,8
133,16
134,27
135,38
136,48
137,57
138,63
139,66
140,66
141,68
142,68
143,69
144,70
145,72
146,75
147,77
148,74
149,70
150,64
151,57
152,48
153,42
154,38
155,39
156,44
157,51
158,57
159,60
160,56
161,49
162,40
163,31
164,25
165,23
166,25
167,31
168,36
169,38
170,37
171,34
172,30
173,18
174,12
175,7
176,2
177,0
178,3
179,9
180,18
181,28
182,36
183,40
184,35
185,25
186,25
187,15
188,5
189,0
190,2
191,9
192,18
193,22
194,23
195,19
196,11
197,0
198,-7
199,-11
200,-9
201,-8
202,-7
203,-9
204,-11
205,-13
206,-6
207,0
208,6
209,11
210,12
211,12
212,10
213,12
214,22
215,40
216,65
217,93
218,118
219,146
220,171
221,187
222,194
223,192
224,184
225,168
226,142
227,102
228,53
229,-5
230,-71
231,-135
232,-192
233,-240
234,-271
235,-282
236,-277
237,-262
238,-205
239,-172
240,-139
241,-110
242,-88
243,-72
244,-60
245,-52
246,-43
247,-32
248,-19
249,-3
250,13
251,23
252,28
253,27
254,23
255,20
256,20
257,21
258,27
259,32
260,36
261,36
262,36
263,33
264,31
265,32
266,37
267,43
268,48
269,52
270,50
271,48
272,45
273,42
274,39
275,35
276,30
277,22
278,18
279,17
280,22
281,31
282,47
283,62
284,76
285,84
286,86
287,83
288,76
289,68
290,63
291,60
292,55
293,53
294,54
295,54
296,57
297,63
298,70
299,78
300,82
301,78
302,70
303,64
304,61
305,61
306,64
307,68
308,73
309,74
310,73
311,72
312,73
313,79
314,91
315,104
316,116
317,127
318,130
319,129
320,124
321,118
322,114
323,114
324,117
325,122
326,127
327,126
328,126
329,124
330,122
331,119
332,120
333,126
334,138
335,139
336,139
337,138
338,134
339,130
340,130
341,130
342,128
343,125
344,121
345,114
346,108
347,103
348,100
349,102
350,102
351,101
352,99
353,97
354,94
355,92
356,91
357,93
358,96
359,97
360,95
361,90
362,85
363,78
364,72
365,66
366,65
367,65
368,66
369,67
370,67
371,68
372,70
373,74
374,75
375,74
376,72
377,68
378,63
379,58
380,55
381,55
382,57
383,59
384,59
385,58
386,53
387,46
388,41
389,38
390,38
391,44
392,53
393,63
394,69
395,73
396,72
397,68
398,64
399,63
400,62
401,59
402,57
403,56
404,57
405,62
406,72
407,86
408,99
409,106
410,107
411,103
412,91
413,79
414,70
415,65
416,67
417,70
418,72
419,69
420,63
421,57
422,54
423,58
424,66
425,74
426,80
427,82
428,80
429,67
430,64
431,68
432,74
433,76
434,78
435,77
436,74
437,74
438,80
439,89
440,100
441,111
442,119
443,122
444,119
445,112
446,108
447,107
448,105
449,106
450,107
451,103
452,97
453,92
454,85
455,81
456,83
457,90
458,98
459,105
460,109
461,109
462,105
463,104
464,106
465,109
466,113
467,116
468,117
469,114
470,114
471,109
472,105
473,103
474,104
475,105
476,106
477,106
478,104
479,95
480,87
481,82
482,78
483,75
484,75
485,75
486,74
487,71
488,67
489,66
490,68
491,72
492,79
493,93
494,95
495,99
496,100
497,101
498,102
499,103
500,103
501,100
502,97
503,93
504,91
505,93
506,97
507,101
508,106
509,111
510,114
511,114
512,117
513,119
514,122
515,127
516,132
517,137
518,140
519,139
520,138
521,135
522,132
523,134
524,137
525,143
526,139
527,132
528,124
529,117
530,115
531,116
532,117
533,121
534,125
535,122
536,118
537,112
538,107
539,104
540,106
541,105
542,101
543,92
544,78
545,62
546,51
547,44
548,41
549,43
550,51
551,59
552,66
553,67
554,62
555,52
556,38
557,14
558,7
559,3
560,1
561,4
562,10
563,15
564,22
565,29
566,34
567,40
568,44
569,48
570,52
571,59
572,65
573,69
574,69
575,63
576,48
577,32
578,16
579,5
580,2
581,9
582,24
583,43
584,65
585,88
586,110
587,130
588,151
589,179
590,208
591,244
592,248
593,240
594,221
595,189
596,148
597,99
598,42
599,-20
600,-81
601,-140
602,-193
603,-234
604,-258
605,-267
606,-264
607,-250
608,-229
609,-205
610,-178
611,-150
612,-118
613,-118
614,-86
615,-60
616,-37
617,-17
618,-7
619,-5
620,-3
621,-2
622,0
623,3
624,24
625,36
626,42
627,45
628,47
629,44
630,41
631,39
632,38
633,38
634,37
635,35
636,37
637,40
638,45
639,55
640,69
641,83
642,92
643,96
644,98
645,97
646,97
647,99
648,106
649,114
650,122
651,125
652,126
653,124
654,119
655,115
656,115
657,115
658,116
659,115
660,112
661,110
662,107
663,107
664,110
665,115
666,120
667,122
668,119
669,113
670,106
671,100
672,99
673,106
674,116
675,127
676,138
677,143
678,139
679,131
680,123
681,119
682,120
683,125
684,133
685,139
686,143
687,147
688,158
689,165
690,172
691,179
692,183
693,181
694,177
695,173
696,167
697,168
698,170
699,175
700,181
701,186
702,186
703,185
704,182
705,181
706,182
707,184
708,187
709,186
710,181
711,176
712,170
713,167
714,167
715,171
716,176
717,180
718,179
719,172
720,155
721,150
722,149
723,150
724,152
725,155
726,153
727,149
728,146
729,143
730,144
731,147
732,149
733,151
734,150
735,145
736,137
737,131
738,126
739,123
740,124
741,124
742,123
743,119
744,110
745,101
746,94
747,89
748,90
749,94
750,97
751,96
752,92
753,88
754,82
755,82
756,80
757,79
758,79
759,78
760,78
761,78
762,79
763,84
764,92
765,101
766,105
767,101
768,94
769,87
770,79
771,77
772,80
773,88
774,97
775,103
776,106
777,104
778,98
779,89
780,85
781,84
782,85
783,86
784,87
785,83
786,77
787,74
788,75
789,79
790,83
791,89
792,92
793,91
794,88
795,84
796,82
797,82
798,85
799,92
800,101
801,103
802,99
803,89
804,75
805,60
806,49
807,43
808,43
809,45
810,50
811,54
812,54
813,52
814,51
815,49
816,51
817,58
818,61
819,61
820,57
821,53
822,49
823,44
824,43
825,43
826,45
827,45
828,47
829,48
830,51
831,56
832,60
833,66
834,69
835,70
836,71
837,74
838,79
839,86
840,92
841,93
842,90
843,81
844,69
845,58
846,50
847,45
848,42
849,40
850,38
851,35
852,30
853,30
854,33
855,40
856,48
857,54
858,54
859,50
860,44
861,39
862,34
863,30
864,31
865,35
866,40
867,42
868,40
869,41
870,44
871,47
872,52
873,59
874,65
875,69
876,71
877,68
878,64
879,60
880,59
881,61
882,60
883,59
884,57
885,55
886,50
887,47
888,46
889,49
890,54
891,60
892,61
893,58
894,54
895,51
896,48
897,48
898,49
899,50
900,51
901,53
902,53
903,52
904,52
905,51
906,53
907,59
908,65
909,68
910,68
911,64
912,60
913,52
914,51
915,51
916,49
917,46
918,40
919,31
920,23
921,17
922,14
923,12
924,12
925,7
926,2
927,-2
928,-4
929,-3
930,1
931,9
932,20
933,31
934,39
935,40
936,34
937,22
938,10
939,0
940,-3
941,-1
942,-1
943,-1
944,-1
945,0
946,1
947,6
948,16
949,30
950,49
951,71
952,95
953,119
954,147
955,179
956,213
957,242
958,261
959,269
960,264
961,247
962,221
963,185
964,141
965,91
966,36
967,-23
968,-83
969,-139
970,-183
971,-210
972,-216
973,-206
974,-186
975,-164
976,-140
977,-98
978,-77
979,-54
980,-28
981,0
982,23
983,41
984,55
985,60
986,60
987,63
988,66
989,69
990,70
991,68
992,64
993,57
994,49
995,42
996,41
997,42
998,47
999,56
1000,62
1001,65
1002,66
1003,65
1004,64
1005,63
1006,61
1007,60
1008,59
1009,48
1010,39
1011,29
1012,24
1013,23
1014,23
1015,24
1016,27
1017,25
1018,20
1019,16
1020,15
1021,16
1022,23
1023,34
1024,46
1025,53
1026,55
1027,53
1028,51
1029,47
1030,46
1031,51
1032,56
1033,59
1034,59
1035,57
1036,53
1037,47
1038,43
1039,43
1040,43
1041,49
1042,65
1043,72
1044,74
1045,76
1046,78
1047,83
1048,89
1049,98
1050,106
1051,114
1052,118
1053,119
1054,117
1055,115
1056,116
1057,120
1058,125
1059,129
1060,129
1061,125
1062,118
1063,111
1064,107
1065,105
1066,103
1067,101
1068,99
1069,94
1070,88
1071,83
1072,82
1073,83
1074,95
1075,101
1076,102
1077,101
1078,98
1079,96
1080,95
1081,99
1082,103
1083,110
1084,111
1085,107
1086,101
1087,91
1088,80
1089,74
1090,71
1091,72
1092,76
1093,78
1094,76
1095,72
1096,65
1097,58
1098,54
1099,55
1100,56
1101,56
1102,54
1103,48
1104,40
1105,31
1106,20
1107,21
1108,18
1109,15
1110,11
1111,4
1112,-2
1113,-5
1114,-7
1115,-7
1116,-7
1117,-9
1118,-12
1119,-16
1120,-19
1121,-18
1122,-12
1123,-5
1124,1
1125,5
1126,2
1127,-5
1128,-16
1129,-25
1130,-32
1131,-35
1132,-34
1133,-30
1134,-26
1135,-22
1136,-22
1137,-23
1138,-31
1139,-30
1140,-28
1141,-26
1142,-27
1143,-33
1144,-45
1145,-59
1146,-74
1147,-84
1148,-89
1149,-90
1150,-83
1151,-74
1152,-66
1153,-61
1154,-60
1155,-59
1156,-55
1157,-51
1158,-46
1159,-42
1160,-40
1161,-35
1162,-23
1163,-9
1164,5
1165,18
1166,30
1167,37
1168,35
1169,25
1170,2
1171,-4
1172,-4
1173,-1
1174,0
1175,-1
1176,-6
1177,-13
1178,-20
1179,-28
1180,-33
1181,-33
1182,-33
1183,-31
1184,-27
1185,-22
1186,-18
1187,-17
1188,-16
1189,-17
1190,-17
1191,-16
1192,-16
1193,-17
1194,-20
1195,-20
1196,-18
1197,-13
1198,-9
1199,-4
1200,0
1201,2
1202,2
1203,-4
1204,-3
1205,0
1206,5
1207,12
1208,14
1209,9
1210,0
1211,-11
1212,-21
1213,-28
1214,-30
1215,-27
1216,-21
1217,-18
1218,-19
1219,-24
1220,-30
1221,-34
1222,-35
1223,-33
1224,-25
1225,-16
1226,-6
1227,2
1228,10
1229,15
1230,23
1231,30
1232,37
1233,42
1234,42
1235,39
1236,32
1237,30
1238,34
1239,43
1240,49
1241,55
1242,56
1243,49
1244,38
1245,28
1246,24
1247,25
1248,33
1249,45
1250,58
1251,65
1252,67
1253,65
1254,60
1255,56
1256,55
1257,59
1258,66
1259,73
1260,76
1261,76
1262,71
1263,66
1264,63
1265,65
1266,67
1267,70
1268,66
1269,60
1270,51
1271,45
1272,42
1273,41
1274,45
1275,48
1276,49
1277,47
1278,44
1279,44
1280,48
1281,55
1282,64
1283,68
1284,68
1285,61
1286,50
1287,37
1288,29
1289,28
1290,35
1291,44
1292,54
1293,61
1294,62
1295,59
1296,53
1297,47
1298,43
1299,39
1300,33
1301,30
1302,27
1303,28
1304,34
1305,46
1306,63
1307,83
1308,105
1309,129
1310,151
1311,175
1312,200
1313,224
1314,242
1315,253
1316,251
1317,235
1318,206
1319,167
1320,118
1321,63
1322,5
1323,-52
1324,-52
1325,-108
1326,-158
1327,-202
1328,-234
1329,-250
1330,-251
1331,-238
1332,-178
1333,-141
1334,-106
1335,-75
1336,-47
1337,-26
1338,-8
1339,8
1340,22
1341,33
1342,39
1343,44
1344,46
1345,46
1346,47
1347,51
1348,56
1349,62
1350,68
1351,75
1352,79
1353,82
1354,86
1355,92
1356,97
1357,104
1358,109
1359,111
1360,109
1361,105
1362,99
1363,94
1364,91
1365,94
1366,102
1367,108
1368,113
1369,116
1370,116
1371,112
1372,107
1373,104
1374,101
1375,100
1376,100
1377,103
1378,108
1379,113
1380,120
1381,129
1382,135
1383,138
1384,135
1385,130
1386,124
1387,119
1388,117
1389,121
1390,129
1391,138
1392,146
1393,148
1394,144
1395,132
1396,127
1397,128
1398,132
1399,138
1400,142
1401,142
1402,140
1403,133
1404,126
1405,122
1406,123
1407,127
1408,134
1409,139
1410,142
1411,143
1412,139
1413,138
1414,141
1415,150
1416,165
1417,180
1418,192
1419,199
1420,204
1421,202
1422,200
1423,197
1424,197
1425,197
1426,199
1427,202
1428,203
1429,206
1430,209
1431,211
1432,210
1433,206
1434,199
1435,192
1436,185
1437,180
1438,178
1439,180
1440,184
1441,185
1442,181
1443,172
1444,163
1445,154
1446,147
1447,141
1448,138
1449,133
1450,124
1451,113
1452,99
1453,84
1454,71
1455,63
1456,59
1457,58
1458,57
1459,50
1460,46
1461,45
1462,43
1463,44
1464,50
1465,56
1466,56
1467,60
1468,60
1469,58
1470,53
1471,48
1472,43
1473,41
1474,42
1475,42
1476,40
1477,35
1478,29
1479,21
1480,13
1481,10
1482,11
1483,18
1484,26
1485,34
1486,40
1487,46
1488,51
1489,55
1490,61
1491,72
1492,75
1493,73
1494,67
1495,59
1496,50
1497,47
1498,51
1499,58
1500,68
1501,73
1502,72
1503,66
1504,54
1505,42
1506,36
1507,34
1508,39
1509,50
1510,58
1511,62
1512,65
1513,65
1514,64
1515,66
1516,70
1517,69
1518,67
1519,60
1520,51
1521,44
1522,40
1523,47
1524,53
1525,59
1526,65
1527,67
1528,66
1529,65
1530,64
1531,61
1532,59
1533,56
1534,48
1535,37
1536,30
1537,26
1538,25
1539,28
1540,32
1541,36
1542,38
1543,39
1544,38
1545,36
1546,33
1547,34
1548,37
1549,40
1550,42
1551,42
1552,37
1553,30
1554,13
1555,6
1556,4
1557,6
1558,9
1559,10
1560,11
1561,10
1562,7
1563,1
1564,-2
1565,-7
1566,-13
1567,-15
1568,-19
1569,-22
1570,-19
1571,-12
1572,0
1573,13
1574,27
1575,36
1576,41
1577,39
1578,35
1579,30
1580,28
1581,28
1582,31
1583,36
1584,41
1585,45
1586,51
1587,52
1588,51
1589,50
1590,44
1591,35
1592,24
1593,12
1594,4
1595,1
1596,1
1597,3
1598,7
1599,13
1600,17
1601,20
1602,21
1603,20
1604,20
1605,21
1606,25
1607,31
1608,31
1609,33
1610,32
1611,29
1612,23
1613,16
1614,11
1615,8
1616,8
1617,10
1618,9
1619,-1
1620,-9
1621,-18
1622,-23
1623,-23
1624,-21
1625,-17
1626,-13
1627,-10
1628,-9
1629,-8
1630,-5
1631,0
1632,8
1633,13
1634,14
1635,14
1636,11
1637,5
1638,0
1639,-4
1640,-8
1641,-9
1642,-9
1643,-13
1644,-18
1645,-23
1646,-29
1647,-30
1648,-28
1649,-26
1650,-24
1651,-29
1652,-34
1653,-39
1654,-43
1655,-38
1656,-27
1657,-14
1658,0
1659,14
1660,27
1661,41
1662,59
1663,83
1664,115
1665,152
1666,184
1667,204
1668,209
1669,197
1670,173
1671,140
1672,103
1673,61
1674,14
1675,-36
1676,-92
1677,-149
1678,-207
1679,-257
1680,-289
1681,-300
1682,-294
1683,-253
1684,-231
1685,-211
1686,-192
1687,-175
1688,-155
1689,-133
1690,-111
1691,-91
1692,-71
1693,-53
1694,-37
1695,-26
1696,-18
1697,-14
1698,-14
1699,-19
1700,-29
1701,-42
1702,-52
1703,-57
1704,-55
1705,-46
1706,-35
1707,-25
1708,-15
1709,-6
1710,0
1711,2
1712,3
1713,3
1714,4
1715,10
1716,16
1717,20
1718,23
1719,23
1720,19
1721,13
1722,8
1723,8
1724,8
1725,9
1726,15
1727,19
1728,25
1729,30
1730,34
1731,36
1732,37
1733,35
1734,30
1735,24
1736,15
1737,7
1738,4
1739,3
1740,4
1741,5
1742,3
1743,-2
1744,-7
1745,-11
1746,-11
1747,2
1748,14
1749,25
1750,25
1751,30
1752,31
1753,31
1754,32
1755,33
1756,38
1757,46
1758,53
1759,55
1760,54
1761,52
1762,49
1763,48
1764,53
1765,64
1766,76
1767,85
1768,91
1769,95
1770,95
1771,96
1772,100
1773,110
1774,120
1775,134
1776,147
1777,155
1778,160
1779,159
1780,157
1781,156
1782,158
1783,162
1784,161
1785,156
1786,150
1787,143
1788,135
1789,132
1790,133
1791,134
1792,136
1793,137
1794,135
1795,131
1796,126
1797,123
1798,122
1799,122
1800,121
1801,118
1802,111
1803,103
1804,96
1805,88
1806,84
1807,80
1808,77
1809,74
1810,70
1811,59
1812,53
1813,48
1814,47
1815,45
1816,42
1817,37
1818,32
1819,28
1820,27
1821,29
1822,35
1823,43
1824,49
1825,51
1826,49
1827,44
1828,37
1829,30
1830,29
1831,32
1832,38
1833,44
1834,49
1835,51
1836,49
1837,46
1838,44
1839,46
1840,48
1841,49
1842,48
1843,43
1844,39
1845,39
1846,45
1847,51
1848,60
1849,71
1850,79
1851,81
1852,77
1853,72
1854,69
1855,68
1856,69
1857,72
1858,73
1859,72
1860,68
1861,63
1862,55
1863,48
1864,45
1865,46
1866,49
1867,50
1868,52
1869,55
1870,58
1871,64
1872,69
1873,73
1874,77
1875,80
1876,79
1877,72
1878,70
1879,73
1880,77
1881,82
1882,83
1883,79
1884,73
1885,68
1886,65
1887,62
1888,64
1889,71
1890,80
1891,87
1892,89
1893,89
1894,88
1895,85
1896,81
1897,79
1898,81
1899,84
1900,87
1901,91
1902,93
1903,93
1904,90
1905,87
1906,88
1907,93
1908,98
1909,105
1910,104
1911,100
1912,95
1913,92
1914,93
1915,98
1916,103
1917,109
1918,114
1919,117
1920,116
1921,118
1922,120
1923,123
1924,126
1925,127
1926,126
1927,121
1928,117
1929,112
1930,115
1931,123
1932,131
1933,139
1934,140
1935,136
1936,128
1937,116
1938,106
1939,102
1940,112
1941,123
1942,133
1943,139
1944,138
1945,135
1946,133
1947,131
1948,128
1949,131
1950,134
1951,136
1952,135
1953,129
1954,120
1955,111
1956,104
1957,101
1958,104
1959,108
1960,110
1961,113
1962,113
1963,109
1964,105
1965,101
1966,100
1967,103
1968,108
1969,116
1970,128
1971,135
1972,146
1973,151
1974,152
1975,147
1976,135
1977,118
1978,100
1979,79
1980,63
1981,54
1982,47
1983,45
1984,48
1985,52
1986,52
1987,50
1988,45
1989,41
1990,38
1991,36
1992,36
1993,37
1994,40
1995,42
1996,44
1997,49
1998,50
1999,45
2000,41
2001,37
2002,31
2003,30
2004,30
2005,34
2006,37
2007,40
2008,42
2009,40
2010,37
2011,38
2012,43
2013,48
2014,58
2015,68
2016,78
2017,92
2018,109
2019,129
2020,155
2021,187
2022,221
2023,256
2024,282
2025,296
2026,300
2027,294
2028,276
2029,251
2030,219
2031,180
2032,134
2033,83
2034,23
2035,-40
2036,-100
2037,-151
2038,-186
2039,-202
2040,-200
2041,-183
2042,-159
2043,-129
2044,-100
2045,-73
2046,-49
2047,-31
2048,-13
2049,5
2050,19
2051,28
2052,32
2053,34
2054,31
2055,28
2056,27
2057,32
2058,39
2059,46
2060,54
2061,61
2062,61
2063,58
2064,53
2065,48
2066,43
2067,39
2068,35
2069,35
2070,37
2071,38
2072,39
2073,42
2074,46
2075,48
2076,49
2077,48
2078,50
2079,54
2080,63
2081,76
2082,90
2083,102
2084,109
2085,111
2086,110
2087,107
2088,104
2089,104
2090,110
2091,117
2092,126
2093,132
2094,135
2095,136
2096,136
2097,136
2098,136
2099,139
2100,142
2101,141
2102,139
2103,134
2104,129
2105,126
2106,124
2107,126
2108,129
2109,131
2110,132
2111,134
2112,133
2113,134
2114,135
2115,137
2116,140
2117,140
2118,137
2119,133
2120,129
2121,125
2122,125
2123,131
2124,139
2125,149
2126,154
2127,156
2128,156
2129,157
2130,165
2131,176
2132,197
2133,200
2134,197
2135,189
2136,181
2137,178
2138,180
2139,189
2140,202
2141,214
2142,217
2143,213
2144,204
2145,195
2146,187
2147,182
2148,179
2149,178
2150,173
2151,165
2152,157
2153,152
2154,146
2155,143
2156,144
2157,146
2158,147
2159,145
2160,141
2161,137
2162,131
2163,123
2164,118
2165,115
2166,112
2167,109
2168,103
2169,97
2170,91
2171,86
2172,83
2173,82
2174,83
2175,83
2176,82
2177,82
2178,78
2179,73
2180,68
2181,62
2182,57
2183,54
2184,51
2185,48
2186,43
2187,37
2188,32
2189,29
2190,27
2191,24
2192,19
2193,13
2194,6
2195,0
2196,0
2197,8
2198,16
2199,23
2200,25
2201,19
2202,7
2203,-3
2204,-8
2205,-7
2206,-1
2207,9
2208,19
2209,22
2210,18
2211,9
2212,-1
2213,-9
2214,-10
2215,-3
2216,7
2217,19
2218,28
2219,33
2220,32
2221,28
2222,23
2223,20
2224,22
2225,22
2226,21
2227,19
2228,17
2229,6
2230,5
2231,3
2232,4
2233,7
2234,9
2235,6
2236,3
2237,0
2238,-1
2239,-1
2240,-2
2241,-5
2242,-10
2243,-15
2244,-21
2245,-28
2246,-36
2247,-40
2248,-40
2249,-39
2250,-38
2251,-33
2252,-31
2253,-32
2254,-33
2255,-34
2256,-36
2257,-39
2258,-42
2259,-45
2260,-48
2261,-53
2262,-51
2263,-47
2264,-39
2265,-29
2266,-19
2267,-14
2268,-13
2269,-17
2270,-21
2271,-22
2272,-20
2273,-14
2274,-8
2275,-4
2276,-5
2277,-10
2278,-19
2279,-28
2280,-32
2281,-32
2282,-28
2283,-23
2284,-23
2285,-26
2286,-28
2287,-31
2288,-32
2289,-24
2290,-9
2291,6
2292,19
2293,19
2294,9
2295,-3
2296,-11
2297,-9
2298,-1
2299,10
2300,22
2301,31
2302,30
2303,23
2304,13
2305,3
2306,-1
2307,-2
2308,-1
2309,0
2310,-2
2311,-6
2312,-11
2313,-13
2314,-15
2315,-14
2316,-9
2317,-5
2318,0
2319,0
2320,5
2321,10
2322,16
2323,28
2324,42
2325,60
2326,61
2327,54
2328,44
2329,34
2330,28
2331,30
2332,39
2333,49
2334,58
2335,63
2336,60
2337,52
2338,43
2339,35
2340,30
2341,29
2342,31
2343,33
2344,33
2345,29
2346,25
2347,24
2348,26
2349,28
2350,32
2351,35
2352,35
2353,31
2354,25
2355,19
2356,18
2357,31
2358,41
2359,52
2360,59
2361,62
2362,61
2363,58
2364,55
2365,54
2366,54
2367,56
2368,59
2369,60
2370,62
2371,66
2372,71
2373,78
2374,85
2375,95
2376,104
2377,110
2378,116
2379,125
2380,137
2381,156
2382,184
2383,215
2384,242
2385,263
2386,273
2387,274
2388,264
2389,212
2390,169
2391,113
2392,48
2393,-23
2394,-94
2395,-157
2396,-204
2397,-231
2398,-233
2399,-219
2400,-196
2401,-169
2402,-142
2403,-118
2404,-93
2405,-71
2406,-50
2407,-30
2408,-15
2409,-3
2410,4
2411,8
2412,8
2413,8
2414,9
2415,10
2416,13
2417,14
2418,13
2419,11
2420,10
2421,23
2422,35
2423,46
2424,56
2425,60
2426,59
2427,53
2428,45
2429,41
2430,40
2431,42
2432,48
2433,53
2434,56
2435,59
2436,61
2437,61
2438,63
2439,67
2440,73
2441,77
2442,78
2443,73
2444,68
2445,63
2446,60
2447,62
2448,68
2449,75
2450,81
2451,84
2452,77
2453,73
2454,73
2455,79
2456,86
2457,93
2458,98
2459,96
2460,89
2461,79
2462,79
2463,71
2464,68
2465,68
2466,72
2467,78
2468,83
2469,83
2470,86
2471,91
2472,100
2473,114
2474,129
2475,142
2476,151
2477,150
2478,143
2479,133
2480,123
2481,122
2482,128
2483,138
2484,147
2485,151
2486,144
2487,133
2488,127
2489,129
2490,135
2491,144
2492,155
2493,160
2494,162
2495,163
2496,162
2497,163
2498,167
2499,173
2500,180
2501,186
2502,186
2503,183
2504,179
2505,172
2506,167
2507,163
2508,160
2509,158
2510,156
2511,157
2512,159
2513,160
2514,164
2515,168
2516,172
2517,173
2518,167
2519,160
2520,151
2521,146
2522,144
2523,141
2524,139
2525,138
2526,134
2527,128
2528,121
2529,114
2530,111
2531,109
2532,107
2533,108
2534,105
2535,96
2536,84
2537,69
2538,56
2539,44
2540,40
2541,40
2542,43
2543,43
2544,42
2545,38
2546,31
2547,25
2548,27
2549,37
2550,43
2551,44
2552,40
2553,31
2554,21
2555,16
2556,16
2557,20
2558,25
2559,33
2560,38
2561,38
2562,38
2563,38
2564,39
2565,42
2566,41
2567,35
2568,28
2569,15
2570,4
2571,0
2572,0
2573,7
2574,18
2575,30
2576,38
2577,41
2578,37
2579,33
2580,28
2581,28
2582,29
2583,28
2584,28
2585,29
2586,34
2587,38
2588,44
2589,51
2590,55
2591,54
2592,49
2593,37
2594,24
2595,14
2596,9
2597,8
2598,10
2599,11
2600,11
2601,7
2602,0
2603,-9
2604,-9
2605,-15
2606,-19
2607,-22
2608,-24
2609,-25
2610,-28
2611,-33
2612,-37
2613,-38
2614,-37
2615,-31
2616,-24
2617,-18
2618,-16
2619,-15
2620,-11
2621,-6
2622,-3
2623,2
2624,10
2625,14
2626,19
2627,23
2628,25
2629,25
2630,26
2631,29
2632,36
2633,45
2634,49
2635,50
2636,48
2637,43
2638,36
2639,33
2640,29
2641,26
2642,24
2643,19
2644,6
2645,4
2646,6
2647,16
2648,30
2649,46
2650,59
2651,67
2652,71
2653,72
2654,73
2655,73
2656,76
2657,78
2658,78
2659,74
2660,66
2661,61
2662,59
2663,60
2664,63
2665,67
2666,71
2667,71
2668,65
2669,54
2670,42
2671,28
2672,20
2673,19
2674,23
2675,40
2676,47
2677,53
2678,57
2679,57
2680,60
2681,63
2682,63
2683,63
2684,57
2685,50
2686,43
2687,37
2688,35
2689,35
2690,34
2691,37
2692,36
2693,32
2694,28
2695,23
2696,21
2697,22
2698,23
2699,21
2700,16
2701,8
2702,0
2703,-5
2704,-9
2705,-8
2706,-6
2707,-4
2708,-7
2709,-13
2710,-19
2711,-22
2712,-19
2713,-8
2714,4
2715,15
2716,23
2717,23
2718,17
2719,8
2720,-1
2721,-9
2722,-12
2723,-10
2724,-3
2725,5
2726,13
2727,15
2728,14
2729,17
2730,26
2731,44
2732,70
2733,102
2734,139
2735,177
2736,209
2737,228
2738,233
2739,209
2740,184
2741,150
2742,107
2743,55
2744,-1
2745,-61
2746,-61
2747,-119
2748,-169
2749,-208
2750,-231
2751,-239
2752,-236
2753,-222
2754,-200
2755,-174
2756,-145
2757,-117
2758,-89
2759,-68
2760,-53
2761,-40
2762,-29
2763,-24
2764,-17
2765,-7
2766,2
2767,9
2768,15
2769,16
2770,16
2771,12
2772,11
2773,11
2774,10
2775,11
2776,11
2777,10
2778,11
2779,13
2780,15
2781,16
2782,17
2783,16
2784,15
2785,13
2786,13
2787,14
2788,16
2789,20
2790,26
2791,31
2792,31
2793,26
2794,19
2795,11
2796,5
2797,2
2798,2
2799,5
2800,11
2801,20
2802,26
2803,36
2804,42
2805,52
2806,62
2807,70
2808,75
2809,75
2810,71
2811,69
2812,69
2813,70
2814,76
2815,86
2816,96
2817,102
2818,103
2819,101
2820,97
2821,91
2822,89
2823,90
2824,90
2825,88
2826,85
2827,80
2828,73
2829,68
2830,66
2831,69
2832,78
2833,91
2834,105
2835,119
2836,119
2837,119
2838,120
2839,124
2840,132
2841,141
2842,149
2843,153
2844,151
2845,145
2846,139
2847,135
2848,137
2849,141
2850,147
2851,152
2852,157
2853,162
2854,164
2855,162
2856,164
2857,165
2858,166
2859,165
2860,162
2861,155
2862,149
2863,144
2864,139
2865,134
2866,128
2867,127
2868,127
2869,125
2870,124
2871,125
2872,128
2873,131
2874,132
2875,127
2876,119
2877,111
2878,102
2879,98
2880,100
2881,105
2882,112
2883,118
2884,115
2885,106
2886,95
2887,83
2888,83
2889,75
2890,73
2891,76
2892,80
2893,79
2894,75
2895,69
2896,61
2897,57
2898,59
2899,78
2900,88
2901,95
2902,100
2903,102
2904,100
2905,97
2906,96
2907,97
2908,96
2909,93
2910,90
2911,88
2912,87
2913,87
2914,89
2915,93
2916,96
2917,96
2918,94
2919,90
2920,86
2921,83
2922,86
2923,97
2924,109
2925,122
2926,131
2927,133
2928,133
2929,131
2930,130
2931,134
2932,141
2933,149
2934,153
2935,154
2936,156
2937,158
2938,162
2939,173
2940,185
2941,198
2942,205
2943,205
2944,200
2945,191
2946,176
2947,164
2948,157
2949,153
2950,152
2951,154
2952,158
2953,164
2954,169
2955,173
2956,180
2957,185
2958,189
2959,192
2960,194
2961,194
2962,196
2963,193
2964,189
2965,184
2966,179
2967,174
2968,165
2969,157
2970,150
2971,146
2972,143
2973,142
2974,142
2975,146
2976,152
2977,158
2978,165
2979,170
2980,173
2981,174
2982,176
2983,178
2984,179
2985,179
2986,180
2987,180
2988,179
2989,180
2990,180
2991,179
2992,176
2993,174
2994,171
2995,161
2996,159
2997,160
2998,162
2999,165
3000,168
3001,170
3002,169
3003,169
3004,169
3005,170
3006,172
3007,175
3008,176
3009,173
3010,166
3011,159
3012,152
3013,148
3014,150
3015,154
3016,158
3017,158
3018,154
3019,147
3020,140
3021,132
3022,127
3023,130
3024,133
3025,135
3026,136
3027,132
3028,130
3029,131
3030,138
3031,138
3032,142
3033,145
3034,144
3035,138
3036,126
3037,117
3038,110
3039,106
3040,106
3041,106
3042,106
3043,103
3044,95
3045,86
3046,78
3047,72
3048,73
3049,80
3050,87
3051,91
3052,91
3053,88
3054,82
3055,78
3056,78
3057,83
3058,90
3059,96
3060,91
3061,81
3062,71
3063,65
3064,65
3065,69
3066,78
3067,85
3068,90
3069,92
3070,90
3071,90
3072,96
3073,106
3074,118
3075,131
3076,142
3077,154
3078,167
3079,182
3080,205
3081,234
3082,264
3083,290
3084,306
3085,307
3086,294
3087,264
3088,224
3089,179
3090,129
3091,78
3092,-27
3093,-81
3094,-133
3095,-175
3096,-200
3097,-210
3098,-205
3099,-189
3100,-168
3101,-142
3102,-116
3103,-92
3104,-69
3105,-46
3106,-20
3107,5
3108,25
3109,38
3110,44
3111,41
3112,34
3113,28
3114,25
3115,25
3116,31
3117,44
3118,56
3119,64
3120,71
3121,77
3122,82
3123,88
3124,101
3125,108
3126,110
3127,109
3128,109
3129,106
3130,105
3131,108
3132,113
3133,116
3134,119
3135,121
3136,124
3137,130
3138,134
3139,139
3140,145
3141,146
3142,143
3143,138
3144,130
3145,122
3146,115
3147,112
3148,114
3149,116
3150,116
3151,117
3152,119
3153,118
3154,116
3155,114
3156,113
3157,114
3158,117
3159,120
3160,121
3161,122
3162,126
3163,129
3164,131
3165,136
3166,141
3167,142
3168,141
3169,140
3170,138
3171,139
3172,141
3173,141
3174,149
3175,160
3176,167
3177,169
3178,172
3179,172
3180,169
3181,169
3182,173
3183,175
3184,174
3185,168
3186,159
3187,151
3188,146
3189,145
3190,152
3191,172
3192,178
3193,178
3194,170
3195,158
3196,146
3197,141
3198,142
3199,150
3200,159
3201,167
3202,175
3203,178
3204,176
3205,173
3206,168
3207,159
3208,151
3209,145
3210,138
3211,130
3212,121
3213,113
3214,108
3215,103
3216,96
3217,92
3218,88
3219,79
3220,69
3221,62
3222,53
3223,52
3224,55
3225,59
3226,61
3227,57
3228,50
3229,41
3230,31
3231,26
3232,28
3233,34
3234,43
3235,49
3236,49
3237,44
3238,36
3239,25
3240,18
3241,16
3242,14
3243,13
3244,12
3245,8
3246,3
3247,0
3248,0
3249,1
3250,2
3251,2
3252,2
3253,0
3254,-3
3255,-6
3256,-4
3257,-4
3258,-4
3259,-11
3260,-21
3261,-32
3262,-40
3263,-46
3264,-49
3265,-47
3266,-43
3267,-41
3268,-39
3269,-39
3270,-40
3271,-41
3272,-39
3273,-35
3274,-31
3275,-26
3276,-21
3277,-18
3278,-17
3279,-21
3280,-25
3281,-30
3282,-34
3283,-39
3284,-43
3285,-47
3286,-53
3287,-57
3288,-56
3289,-51
3290,-42
3291,-31
3292,-20
3293,-13
3294,-7
3295,-3
3296,-2
3297,-1
3298,-2
3299,-7
3300,-12
3301,-19
3302,-27
3303,-33
3304,-36
3305,-36
3306,-30
3307,-23
3308,-18
3309,-16
3310,-19
3311,-23
3312,-25
3313,-24
3314,-22
3315,-22
3316,-18
3317,-14
3318,-11
3319,-15
3320,-30
3321,-35
3322,-37
3323,-33
3324,-28
3325,-21
3326,-18
3327,-19
3328,-23
3329,-30
3330,-38
3331,-43
3332,-43
3333,-41
3334,-39
3335,-38
3336,-38
3337,-38
3338,-41
3339,-42
3340,-44
3341,-48
3342,-53
3343,-58
3344,-67
3345,-75
3346,-82
3347,-86
3348,-84
3349,-76
3350,-69
3351,-61
3352,-56
3353,-62
3354,-69
3355,-76
3356,-79
3357,-77
3358,-74
3359,-69
3360,-68
3361,-66
3362,-64
3363,-61
3364,-56
3365,-48
3366,-39
3367,-29
3368,-18
3369,-13
3370,-11
3371,-10
3372,-10
3373,-9
3374,-5
3375,-4
3376,-2
3377,-1
3378,0
3379,4
3380,10
3381,14
3382,21
3383,26
3384,24
3385,7
3386,-3
3387,-9
3388,-12
3389,-10
3390,-5
3391,0
3392,3
3393,3
3394,-1
3395,-6
3396,-12
3397,-14
3398,-12
3399,-6
3400,-3
3401,-2
3402,-5
3403,-11
3404,-17
3405,-21
3406,-22
3407,-17
3408,-9
3409,-3
3410,2
3411,4
3412,2
3413,-1
3414,-5
3415,-6
3416,-2
3417,7
3418,12
3419,17
3420,18
3421,18
3422,18
3423,18
3424,17
3425,14
3426,10
3427,8
3428,8
3429,13
3430,25
3431,43
3432,66
3433,95
3434,123
3435,150
3436,176
3437,199
3438,224
3439,251
3440,271
3441,286
3442,292
3443,283
3444,258
3445,216
3446,160
3447,96
3448,31
3449,-31
3450,-135
3451,-172
3452,-193
3453,-198
3454,-192
3455,-175
3456,-151
3457,-151
3458,-123
3459,-95
3460,-71
3461,-55
3462,-42
3463,-28
3464,-13
3465,4
3466,22
3467,37
3468,48
3469,53
3470,55
3471,53
3472,48
3473,45
3474,48
3475,53
3476,59
3477,65
3478,71
3479,76
3480,81
3481,85
3482,88
3483,85
3484,80
3485,75
3486,71
3487,68
3488,70
3489,76
3490,81
3491,87
3492,91
3493,92
3494,89
3495,84
3496,79
3497,79
3498,86
3499,94
3500,103
3501,110
3502,111
3503,105
3504,98
3505,92
3506,89
3507,91
3508,98
3509,107
3510,114
3511,115
3512,110
3513,102
3514,98
3515,105
3516,112
3517,119
3518,124
3519,124
3520,120
3521,118
3522,118
3523,120
3524,121
3525,123
3526,120
3527,110
3528,101
3529,94
3530,93
3531,96
3532,106
3533,116
3534,124
3535,128
3536,127
3537,124
3538,122
3539,123
3540,127
3541,134
3542,140
3543,143
3544,143
3545,138
3546,134
3547,139
3548,147
3549,155
3550,161
3551,162
3552,160
3553,156
3554,151
3555,148
3556,149
3557,152
3558,156
3559,155
3560,151
3561,143
3562,134
3563,127
3564,124
3565,124
3566,124
3567,123
3568,119
3569,114
3570,107
3571,99
3572,93
3573,95
3574,100
3575,110
3576,119
3577,123
3578,113
3579,104
3580,97
3581,88
3582,84
3583,80
3584,75
3585,70
3586,64
3587,55
3588,45
3589,40
3590,41
3591,45
3592,47
3593,46
3594,43
3595,40
3596,33
3597,28
3598,24
3599,21
3600,21
3601,20
3602,20
3603,20
3604,17
3605,13
3606,8
3607,7
3608,10
3609,15
3610,22
3611,22
3612,19
3613,12
3614,6
3615,4
3616,7
3617,11
3618,18
3619,23
3620,25
3621,24
3622,23
3623,24
3624,26
3625,28
3626,29
3627,28
3628,22
3629,16
3630,11
3631,9
3632,8
3633,9
3634,8
3635,4
3636,-3
3637,-10
3638,-17
3639,-20
3640,-18
3641,-12
3642,-5
3643,-9
3644,-16
3645,-25
3646,-33
3647,-35
3648,-32
3649,-24
3650,-15
3651,-6
3652,-1
3653,0
3654,-1
3655,-1
3656,0
3657,2
3658,5
3659,8
3660,9
3661,7
3662,7
3663,6
3664,10
3665,15
3666,21
3667,26
3668,29
3669,28
3670,27
3671,27
3672,26
3673,31
3674,38
3675,38
3676,38
3677,38
3678,40
3679,44
3680,50
3681,59
3682,65
3683,67
3684,68
3685,65
3686,56
3687,47
3688,40
3689,33
3690,28
3691,24
3692,22
3693,19
3694,16
3695,15
3696,16
3697,19
3698,26
3699,38
3700,51
3701,65
3702,75
3703,82
3704,86
3705,90
3706,95
3707,98
3708,101
3709,104
3710,105
3711,105
3712,106
3713,108
3714,105
3715,103
3716,101
3717,96
3718,89
3719,83
3720,82
3721,85
3722,94
3723,104
3724,116
3725,126
3726,129
3727,127
3728,124
3729,119
3730,112
3731,111
3732,116
3733,121
3734,128
3735,131
3736,129
3737,125
3738,115
3739,112
3740,111
3741,108
3742,108
3743,104
3744,100
3745,93
3746,84
3747,79
3748,75
3749,74
3750,73
3751,71
3752,67
3753,63
3754,58
3755,56
3756,58
3757,63
3758,69
3759,73
3760,76
3761,75
3762,69
3763,64
3764,61
3765,57
3766,54
3767,50
3768,47
3769,43
3770,41
3771,45
3772,52
3773,63
3774,76
3775,89
3776,96
3777,101
3778,101
3779,99
3780,96
3781,95
3782,95
3783,96
3784,98
3785,98
3786,103
3787,108
3788,118
3789,134
3790,154
3791,178
3792,203
3793,225
3794,247
3795,266
3796,282
3797,295
3798,303
3799,305
3800,301
3801,284
3802,255
3803,217
3804,107
3805,45
3806,-16
3807,-77
3808,-130
3809,-170
3810,-193
3811,-201
3812,-196
3813,-180
3814,-155
3815,-125
3816,-94
3817,-63
3818,-36
3819,-12
3820,6
3821,24
3822,40
3823,50
3824,62
3825,72
3826,77
3827,77
3828,75
3829,70
3830,65
3831,60
3832,55
3833,51
3834,48
3835,43
3836,39
3837,35
3838,24
3839,22
3840,23
3841,26
3842,32
3843,38
3844,42
3845,44
3846,45
3847,45
3848,43
3849,39
3850,35
3851,33
3852,30
3853,29
3854,32
3855,39
3856,49
3857,61
3858,72
3859,77
3860,75
3861,69
3862,61
3863,56
3864,56
3865,63
3866,72
3867,79
3868,79
3869,74
3870,47
3871,41
3872,45
3873,55
3874,68
3875,78
3876,82
3877,78
3878,68
3879,59
3880,53
3881,52
3882,54
3883,60
3884,60
3885,64
3886,67
3887,69
3888,70
3889,72
3890,74
3891,74
3892,74
3893,70
3894,66
3895,63
3896,60
3897,59
3898,61
3899,65
3900,66
3901,68
3902,68
3903,65
3904,65
3905,68
3906,73
3907,79
3908,84
3909,87
3910,85
3911,79
3912,70
3913,65
3914,60
3915,59
3916,59
3917,61
3918,62
3919,59
3920,49
3921,41
3922,35
3923,30
3924,29
3925,32
3926,32
3927,31
3928,29
3929,29
3930,30
3931,31
3932,31
3933,32
3934,31
3935,17
3936,9
3937,0
3938,-4
3939,-2
3940,3
3941,11
3942,17
3943,18
3944,16
3945,13
3946,11
3947,12
3948,15
3949,16
3950,16
3951,11
3952,2
3953,-8
3954,-19
3955,-29
3956,-31
3957,-27
3958,-24
3959,-23
3960,-23
3961,-27
3962,-31
3963,-32
3964,-28
3965,-19
3966,-6
3967,13
3968,19
3969,20
3970,20
3971,21
3972,21
3973,19
3974,18
3975,14
3976,8
3977,0
3978,-7
3979,-12
3980,-9
3981,-2
3982,7
3983,14
3984,14
3985,10
3986,0
3987,-15
3988,-27
3989,-36
3990,-38
3991,-33
3992,-25
3993,-19
3994,-16
3995,-18
3996,-23
3997,-25
3998,-25
3999,-15
4000,-9
4001,-6
4002,-6
4003,-8
4004,-12
4005,-13
4006,-14
4007,-12
4008,-9
4009,-8
4010,-11
4011,-13
4012,-12
4013,-10
4014,-3
4015,6
4016,16
4017,23
4018,24
4019,20
4020,14
4021,9
4022,4
4023,4
4024,10
4025,18
4026,18
4027,29
4028,36
4029,40
4030,42
4031,41
4032,37
4033,32
4034,28
4035,23
4036,22
4037,21
4038,24
4039,28
4040,36
4041,47
4042,55
4043,57
4044,54
4045,48
4046,35
4047,24
4048,18
4049,17
4050,18
4051,23
4052,26
4053,28
4054,32
4055,37
4056,45
4057,55
4058,65
4059,74
4060,82
4061,82
4062,77
4063,71
4064,65
4065,61
4066,62
4067,60
4068,53
4069,43
4070,32
4071,21
4072,16
4073,19
4074,30
4075,42
4076,54
4077,62
4078,63
4079,62
4080,60
4081,63
4082,68
4083,74
4084,81
4085,85
4086,84
4087,79
4088,77
4089,77
4090,80
4091,85
4092,91
4093,96
4094,97
4095,94
4096,91
4097,88
4098,88
4099,90
4100,92
4101,89
4102,82
4103,75
4104,67
4105,61
4106,59
4107,59
4108,61
4109,62
4110,58
4111,54
4112,52
4113,49
4114,49
4115,54
4116,58
4117,61
4118,61
4119,53
4120,46
4121,40
4122,35
4123,35
4124,42
4125,49
4126,55
4127,59
4128,60
4129,56
4130,56
4131,58
4132,60
4133,62
4134,61
4135,62
4136,61
4137,60
4138,61
4139,68
4140,82
4141,104
4142,131
4143,161
4144,190
4145,218
4146,242
4147,260
4148,266
4149,264
4150,258
4151,245
4152,222
4153,191
4154,146
4155,93
4156,35
4157,-24
4158,-82
4159,-132
4160,-171
4161,-198
4162,-189
4163,-172
4164,-146
4165,-119
4166,-94
4167,-71
4168,-55
4169,-55
4170,-43
4171,-34
4172,-24
4173,-12
4174,3
4175,20
4176,34
4177,44
4178,51
4179,56
4180,60
4181,63
4182,66
4183,69
4184,74
4185,81
4186,85
4187,85
4188,80
4189,73
4190,66
4191,62
4192,59
4193,58
4194,61
4195,67
4196,72
4197,76
4198,77
4199,77
4200,76
4201,71
4202,62
4203,55
4204,51
4205,49
4206,53
4207,61
4208,71
4209,75
4210,74
4211,67
4212,61
4213,53
4214,48
4215,49
4216,56
4217,65
4218,72
4219,78
4220,82
4221,83
4222,82
4223,84
4224,88
4225,92
4226,95
4227,94
4228,90
4229,85
4230,84
4231,86
4232,92
4233,98
4234,104
4235,106
4236,105
4237,102
4238,101
4239,101
4240,103
4241,106
4242,106
4243,102
4244,93
4245,86
4246,80
4247,78
4248,81
4249,88
4250,96
4251,104
4252,107
4253,110
4254,111
4255,115
4256,122
4257,132
4258,152
4259,157
4260,160
4261,160
4262,157
4263,153
4264,148
4265,145
4266,144
4267,144
4268,142
4269,138
4270,133
4271,127
4272,126
4273,128
4274,130
4275,135
4276,138
4277,136
4278,133
4279,129
4280,122
4281,118
4282,118
4283,118
4284,118
4285,113
4286,105
4287,95
4288,85
4289,78
4290,80
4291,80
4292,78
4293,77
4294,75
4295,74
4296,73
4297,76
4298,82
4299,86
4300,85
4301,79
4302,69
4303,59
4304,53
4305,54
4306,61
4307,71
4308,80
4309,86
4310,87
4311,87
4312,83
4313,75
4314,69
4315,67
4316,67
4317,70
4318,72
4319,72
4320,70
4321,65
4322,59
4323,56
4324,54
4325,57
4326,60
4327,61
4328,60
4329,60
4330,59
4331,62
4332,64
4333,68
4334,72
4335,73
4336,76
4337,78
4338,79
4339,81
4340,88
4341,95
4342,98
4343,100
4344,97
4345,89
4346,81
4347,75
4348,72
4349,75
4350,81
4351,87
4352,92
4353,96
4354,93
4355,92
4356,94
4357,99
4358,101
4359,101
4360,97
4361,87
4362,75
4363,66
4364,63
4365,66
4366,72
4367,79
4368,82
4369,78
4370,71
4371,62
4372,57
4373,58
4374,65
4375,75
4376,83
4377,84
4378,78
4379,68
4380,57
4381,51
4382,52
4383,58
4384,69
4385,79
4386,85
4387,86
4388,78
4389,75
4390,71
4391,64
4392,57
4393,50
4394,43
4395,40
4396,41
4397,46
4398,53
4399,60
4400,63
4401,60
4402,51
4403,37
4404,26
4405,21
4406,23
4407,30
4408,39
4409,49
4410,58
4411,62
4412,63
4413,65
4414,68
4415,72
4416,78
4417,84
4418,85
4419,80
4420,60
4421,52
4422,46
4423,46
4424,51
4425,55
4426,63
4427,70
4428,76
4429,79
4430,79
4431,77
4432,74
4433,70
4434,63
4435,57
4436,55
4437,54
4438,56
4439,63
4440,73
4441,81
4442,85
4443,83
4444,78
4445,69
4446,58
4447,46
4448,38
4449,34
4450,31
4451,29
4452,29
4453,29
4454,29
4455,21
4456,23
4457,25
4458,26
4459,25
4460,22
4461,18
4462,12
4463,6
4464,4
4465,7
4466,13
4467,19
4468,24
4469,27
4470,28
4471,26
4472,23
4473,22
4474,21
4475,21
4476,19
4477,15
4478,8
4479,2
4480,1
4481,6
4482,17
4483,36
4484,58
4485,83
4486,105
4487,141
4488,162
4489,188
4490,215
4491,238
4492,252
4493,252
4494,240
4495,219
4496,190
4497,155
4498,116
4499,76
4500,31
4501,-20
4502,-71
4503,-120
4504,-159
4505,-183
4506,-189
4507,-178
4508,-156
4509,-128
4510,-100
4511,-72
4512,-50
4513,-31
4514,-12
4515,4
4516,20
4517,38
4518,55
4519,85
4520,97
4521,104
4522,109
4523,113
4524,117
4525,120
4526,119
4527,117
4528,116
4529,116
4530,123
4531,135
4532,146
4533,153
4534,155
4535,154
4536,146
4537,133
4538,122
4539,115
4540,115
4541,119
4542,128
4543,138
4544,144
4545,149
4546,154
4547,159
4548,160
4549,160
4550,156
4551,143
4552,135
4553,131
4554,129
4555,128
4556,130
4557,132
4558,133
4559,132
4560,133
4561,132
4562,135
4563,141
4564,148
4565,154
4566,157
4567,153
4568,144
4569,136
4570,129
4571,126
4572,128
4573,137
4574,148
4575,154
4576,153
4577,146
4578,135
4579,123
4580,112
4581,109
4582,115
4583,136
4584,150
4585,159
4586,161
4587,161
4588,163
4589,167
4590,174
4591,182
4592,186
4593,186
4594,181
4595,181
4596,173
4597,167
4598,163
4599,165
4600,172
4601,179
4602,181
4603,175
4604,161
4605,144
4606,128
4607,116
4608,111
4609,112
4610,116
4611,116
4612,116
4613,115
4614,113
4615,114
4616,118
4617,134
4618,139
4619,140
4620,140
4621,135
4622,125
4623,119
4624,114
4625,108
4626,101
4627,88
4628,71
4629,56
4630,42
4631,34
4632,34
4633,37
4634,42
4635,46
4636,45
4637,37
4638,27
4639,17
4640,9
4641,6
4642,8
4643,10
4644,10
4645,9
4646,3
4647,-5
4648,-13
4649,-25
4650,-26
4651,-25
4652,-21
4653,-15
4654,-9
4655,-3
4656,2
4657,6
4658,6
4659,3
4660,-1
4661,-6
4662,-9
4663,-7
4664,-2
4665,3
4666,8
4667,12
4668,12
4669,6
4670,-2
4671,-11
4672,-18
4673,-20
4674,-19
4675,-17
4676,-16
4677,-17
4678,-19
4679,-16
4680,-5
4681,1
4682,7
4683,8
4684,7
4685,1
4686,-7
4687,-12
4688,-12
4689,-7
4690,4
4691,15
4692,21
4693,23
4694,21
4695,16
4696,13
4697,14
4698,17
4699,20
4700,21
4701,20
4702,16
4703,8
4704,2
4705,-2
4706,-6
4707,-6
4708,-4
4709,-4
4710,-7
4711,-12
4712,-19
4713,-22
4714,-17
4715,-7
4716,4
4717,17
4718,27
4719,32
4720,30
4721,22
4722,14
4723,9
4724,8
4725,8
4726,10
4727,15
4728,17
4729,13
4730,8
4731,6
4732,8
4733,11
4734,17
4735,21
4736,21
4737,18
4738,18
4739,10
4740,6
4741,3
4742,1
4743,7
4744,17
4745,25
4746,28
4747,31
4748,33
4749,39
4750,46
4751,50
4752,50
4753,46
4754,43
4755,43
4756,45
4757,52
4758,62
4759,70
4760,72
4761,71
4762,68
4763,64
4764,63
4765,66
4766,70
4767,75
4768,72
4769,64
4770,54
4771,45
4772,39
4773,39
4774,44
4775,51
4776,56
4777,59
4778,55
4779,48
4780,44
4781,44
4782,46
4783,50
4784,54
4785,55
4786,56
4787,57
4788,58
4789,60
4790,64
4791,72
4792,79
4793,84
4794,84
4795,79
4796,71
4797,61
4798,52
4799,45
4800,40
4801,35
4802,31
4803,28
4804,26
4805,29
4806,34
4807,40
4808,49
4809,62
4810,63
4811,58
4812,50
4813,39
4814,26
4815,15
4816,7
4817,1
4818,-6
4819,-12
4820,-17
4821,-24
4822,-28
4823,-29
4824,-24
4825,-15
4826,-4
4827,4
4828,11
4829,13
4830,15
4831,17
4832,22
4833,29
4834,40
4835,53
4836,68
4837,83
4838,102
4839,122
4840,147
4841,213
4842,248
4843,273
4844,287
4845,290
4846,283
4847,263
4848,229
4849,185
4850,127
4851,59
4852,-13
4853,-86
4854,-152
4855,-207
4856,-242
4857,-253
4858,-247
4859,-233
4860,-215
4861,-196
4862,-175
4863,-154
4864,-129
4865,-105
4866,-77
4867,-53
4868,-35
4869,-23
4870,-16
4871,-14
4872,-12
4873,1
4874,12
4875,21
4876,25
4877,27
4878,27
4879,25
4880,25
4881,25
4882,26
4883,28
4884,31
4885,34
4886,37
4887,40
4888,40
4889,40
4890,43
4891,48
4892,52
4893,53
4894,49
4895,44
4896,39
4897,36
4898,37
4899,43
4900,49
4901,56
4902,60
4903,61
4904,58
4905,53
4906,47
4907,47
4908,49
4909,50
4910,50
4911,50
4912,48
4913,45
4914,43
4915,40
4916,36
4917,35
4918,33
4919,33
4920,37
4921,43
4922,53
4923,66
4924,78
4925,87
4926,92
4927,92
4928,90
4929,87
4930,86
4931,86
4932,88
4933,94
4934,102
4935,107
4936,110
4937,114
4938,124
4939,132
4940,142
4941,151
4942,157
4943,158
4944,158
4945,154
4946,146
4947,138
4948,134
4949,132
4950,129
4951,125
4952,121
4953,120
4954,121
4955,125
4956,132
4957,141
4958,146
4959,150
4960,150
4961,147
4962,142
4963,134
4964,127
4965,125
4966,126
4967,127
4968,127
4969,126
4970,122
4971,118
4972,115
4973,112
4974,111
4975,106
4976,100
4977,91
4978,79
4979,66
4980,57
4981,51
4982,46
4983,43
4984,42
4985,40
4986,39
4987,37
4988,36
4989,40
4990,43
4991,43
4992,41
4993,33
4994,20
4995,9
4996,0
4997,-3
4998,-2
4999,5
5000,14
5001,21
5002,14
5003,4
5004,-3
5005,-7
5006,-3
5007,5
5008,15
5009,22
5010,26
5011,22
5012,16
5013,9
5014,6
5015,8
5016,15
5017,21
5018,25
5019,24
5020,17
5021,11
5022,11
5023,8
5024,11
5025,18
5026,26
5027,31
5028,33
5029,28
5030,20
5031,16
5032,16
5033,22
5034,50
5035,61
5036,64
5037,64
5038,59
5039,52
5040,48
5041,49
5042,54
5043,61
5044,68
5045,74
5046,78
5047,77
5048,77
5049,81
5050,85
5051,88
5052,92
5053,91
5054,86
5055,79
5056,72
5057,67
5058,63
5059,60
5060,58
5061,58
5062,54
5063,50
5064,49
5065,51
5066,61
5067,66
5068,68
5069,65
5070,62
5071,62
5072,65
5073,68
5074,73
5075,77
5076,76
5077,71
5078,62
5079,53
5080,50
5081,54
5082,63
5083,73
5084,80
5085,85
5086,86
5087,84
5088,80
5089,80
5090,83
5091,88
5092,94
5093,98
5094,98
5095,94
5096,89
5097,85
5098,81
5099,78
5100,77
5101,76
5102,73
5103,71
5104,72
5105,76
5106,83
5107,91
5108,97
5109,103
5110,105
5111,103
5112,99
5113,95
5114,92
5115,90
5116,88
5117,86
5118,84
5119,80
5120,75
5121,70
5122,68
5123,70
5124,77
5125,92
5126,108
5127,122
5128,132
5129,139
5130,146
5131,149
5132,154
5133,158
5134,161
5135,161
5136,155
5137,144
5138,133
5139,124
5140,119
5141,118
5142,117
5143,116
5144,114
5145,109
5146,103
5147,102
5148,99
5149,99
5150,98
5151,93
5152,84
5153,75
5154,70
5155,69
5156,75
5157,82
5158,87
5159,87
5160,81
5161,55
5162,44
5163,40
5164,40
5165,45
5166,58
5167,74
5168,91
5169,103
5170,105
5171,100
5172,92
5173,84
5174,73
5175,67
5176,66
5177,67
5178,72
5179,80
5180,89
5181,100
5182,114
5183,134
5184,160
5185,187
5186,212
5187,237
5188,259
5189,276
5190,286
5191,292
5192,292
5193,253
5194,214
5195,160
5196,95
5197,25
5198,-40
5199,-100
5200,-152
5201,-190
5202,-213
5203,-221
5204,-217
5205,-204
5206,-184
5207,-159
5208,-130
5209,-101
5210,-76
5211,-55
5212,-39
5213,-25
5214,-17
5215,-7
5216,3
5217,12
5218,19
5219,23
5220,23
5221,28
5222,33
5223,37
5224,44
5225,52
5226,49
5227,42
5228,33
5229,26
5230,23
5231,25
5232,37
5233,51
5234,58
5235,61
5236,59
5237,53
5238,49
5239,47
5240,49
5241,53
5242,58
5243,61
5244,63
5245,61
5246,57
5247,52
5248,52
5249,52
5250,52
5251,53
5252,52
5253,49
5254,49
5255,50
5256,56
5257,62
5258,71
5259,80
5260,87
5261,91
5262,94
5263,94
5264,95
5265,96
5266,94
5267,91
5268,89
5269,89
5270,90
5271,91
5272,95
5273,102
5274,111
5275,117
5276,121
5277,118
5278,107
5279,96
5280,87
5281,81
5282,84
5283,92
5284,100
5285,108
5286,112
5287,113
5288,117
5289,125
5290,137
5291,150
5292,163
5293,172
5294,175
5295,171
5296,165
5297,157
5298,151
5299,146
5300,144
5301,145
5302,147
5303,149
5304,156
5305,162
5306,168
5307,168
5308,173
5309,175
5310,174
5311,173
5312,169
5313,164
5314,158
5315,151
5316,143
5317,140
5318,137
5319,131
5320,125
5321,114
5322,107
5323,98
5324,90
5325,81
5326,70
5327,62
5328,58
5329,56
5330,53
5331,52
5332,54
5333,52
5334,46
5335,38
5336,30
5337,20
5338,9
5339,4
5340,5
5341,8
5342,14
5343,19
5344,24
5345,21
5346,15
5347,11
5348,5
5349,0
5350,0
5351,4
5352,10
5353,17
5354,18
5355,17
5356,18
5357,20
5358,23
5359,25
5360,23
5361,21
5362,20
5363,20
5364,23
5365,31
5366,40
5367,49
5368,55
5369,55
5370,50
5371,44
5372,36
5373,31
5374,32
5375,34
5376,34
5377,34
5378,31
5379,24
5380,16
5381,11
5382,11
5383,15
5384,19
5385,28
5386,28
5387,24
5388,19
5389,17
5390,18
5391,22
5392,27
5393,32
5394,34
5395,36
5396,39
5397,44
5398,51
5399,59
5400,65
5401,71
5402,71
5403,65
5404,55
5405,46
5406,40
5407,35
5408,34
5409,32
5410,30
5411,27
5412,23
5413,23
5414,26
5415,34
5416,62
5417,72
5418,71
5419,62
5420,49
5421,36
5422,26
5423,25
5424,31
5425,39
5426,47
5427,51
5428,48
5429,40
5430,31
5431,27
5432,29
5433,36
5434,45
5435,52
5436,54
5437,51
5438,45
5439,40
5440,38
5441,38
5442,40
5443,43
5444,45
5445,46
5446,45
5447,42
5448,40
5449,40
5450,39
5451,38
5452,36
5453,34
5454,33
5455,35
5456,41
5457,52
5458,67
5459,80
5460,89
5461,93
5462,92
5463,88
5464,83
5465,82
5466,85
5467,90
5468,95
5469,99
5470,100
5471,97
5472,91
5473,89
5474,88
5475,91
5476,95
5477,96
5478,95
5479,90
5480,82
5481,68
5482,65
5483,63
5484,64
5485,65
5486,66
5487,66
5488,63
5489,60
5490,57
5491,54
5492,51
5493,47
5494,42
5495,36
5496,30
5497,26
5498,26
5499,31
5500,39
5501,47
5502,53
5503,56
5504,57
5505,57
5506,58
5507,59
5508,65
5509,74
5510,83
5511,91
5512,93
5513,89
5514,85
5515,82
5516,80
5517,79
5518,80
5519,84
5520,92
5521,105
5522,123
5523,147
5524,171
5525,197
5526,223
5527,246
5528,267
5529,282
5530,290
5531,295
5532,295
5533,284
5534,262
5535,226
5536,176
5537,118
5538,54
5539,-9
5540,-69
5541,-119
5542,-159
5543,-182
5544,-192
5545,-182
5546,-165
5547,-144
5548,-119
5549,-94
5550,-71
5551,-51
5552,-34
5553,-20
5554,-8
5555,1
5556,10
5557,21
5558,29
5559,33
5560,34
5561,31
5562,27
5563,22
5564,19
5565,22
5566,28
5567,36
5568,44
5569,48
5570,49
5571,48
5572,45
5573,43
5574,42
5575,42
5576,49
5577,52
5578,56
5579,58
5580,59
5581,58
5582,55
5583,49
5584,43
5585,35
5586,27
5587,21
5588,21
5589,23
5590,31
5591,31
5592,44
5593,57
5594,67
5595,72
5596,74
5597,71
5598,66
5599,62
5600,59
5601,59
5602,57
5603,52
5604,47
5605,44
5606,41
5607,46
5608,69
5609,79
5610,85
5611,85
5612,82
5613,74
5614,67
5615,64
5616,63
5617,66
5618,70
5619,74
5620,77
5621,80
5622,84
5623,90
5624,99
5625,106
5626,113
5627,120
5628,124
5629,127
5630,130
5631,133
5632,135
5633,138
5634,140
5635,139
5636,135
5637,128
5638,120
5639,124
5640,133
5641,143
5642,151
5643,155
5644,151
5645,142
5646,131
5647,126
5648,124
5649,126
5650,130
5651,134
5652,132
5653,126
5654,122
5655,120
5656,117
5657,118
5658,122
5659,124
5660,123
5661,118
5662,112
5663,104
5664,96
5665,87
5666,81
5667,74
5668,66
5669,57
5670,50
5671,39
5672,36
5673,34
5674,33
5675,31
5676,27
5677,21
5678,15
5679,13
5680,13
5681,16
5682,18
5683,18
5684,13
5685,2
5686,-8
5687,-18
5688,-24
5689,-26
5690,-20
5691,-13
5692,-10
5693,-11
5694,-19
5695,-32
5696,-45
5697,-54
5698,-54
5699,-48
5700,-40
5701,-31
5702,-24
5703,-25
5704,-28
5705,-32
5706,-33
5707,-31
5708,-29
5709,-29
5710,-32
5711,-38
5712,-41
5713,-39
5714,-33
5715,-22
5716,-10
5717,-2
5718,0
5719,0
5720,-5
5721,-10
5722,-10
5723,-5
5724,5
5725,17
5726,25
5727,28
5728,23
5729,12
5730,0
5731,-6
5732,-7
5733,-1
5734,-1
5735,12
5736,17
5737,17
5738,12
5739,8
5740,6
5741,11
5742,20
5743,30
5744,39
5745,45
5746,46
5747,46
5748,50
5749,54
5750,58
5751,62
5752,64
5753,64
5754,59
5755,53
5756,49
5757,50
5758,52
5759,59
5760,66
5761,71
5762,72
5763,73
5764,73
5765,75
5766,74
5767,74
5768,70
5769,66
5770,61
5771,57
5772,56
5773,57
5774,61
5775,65
5776,67
5777,65
5778,61
5779,55
5780,48
5781,45
5782,44
5783,43
5784,43
5785,43
5786,40
5787,37
5788,35
5789,36
5790,39
5791,45
5792,53
5793,60
5794,65
5795,62
5796,57
5797,51
5798,48
5799,51
5800,56
5801,62
5802,67
5803,73
5804,79
5805,85
5806,91
5807,99
5808,104
5809,106
5810,102
5811,92
5812,79
5813,68
5814,59
5815,56
5816,59
5817,63
5818,67
5819,69
5820,67
5821,66
5822,65
5823,64
5824,64
5825,63
5826,58
5827,50
5828,42
5829,31
5830,22
5831,24
5832,33
5833,42
5834,48
5835,47
5836,40
5837,30
5838,21
5839,17
5840,17
5841,22
5842,32
5843,41
5844,42
5845,38
5846,30
5847,18
5848,7
5849,2
5850,1
5851,1
5852,0
5853,-3
5854,-7
5855,-12
5856,-16
5857,-10
5858,0
5859,15
5860,30
5861,48
5862,81
5863,102
5864,130
5865,163
5866,193
5867,214
5868,223
5869,216
5870,194
5871,165
5872,134
5873,98
5874,59
5875,59
5876,16
5877,-33
5878,-92
5879,-154
5880,-210
5881,-251
5882,-270
5883,-270
5884,-254
5885,-229
5886,-204
5887,-181
5888,-161
5889,-143
5890,-124
5891,-104
5892,-80
5893,-58
5894,-38
5895,-10
5896,1
5897,13
5898,26
5899,38
5900,47
5901,49
5902,43
5903,31
5904,16
5905,4
5906,-3
5907,-3
5908,0
5909,7
5910,14
5911,23
5912,31
5913,39
5914,50
5915,61
5916,72
5917,80
5918,78
5919,71
5920,59
5921,49
5922,40
5923,38
5924,43
5925,51
5926,68
5927,67
5928,63
5929,58
5930,56
5931,57
5932,63
5933,70
5934,75
5935,78
5936,77
5937,74
5938,69
5939,65
5940,66
5941,74
5942,83
5943,89
5944,89
5945,83
5946,72
5947,58
5948,48
5949,44
5950,46
5951,53
5952,64
5953,70
5954,74
5955,75
5956,73
5957,74
5958,74
5959,74
5960,75
5961,73
5962,71
5963,72
5964,75
5965,81
5966,91
5967,97
5968,100
5969,98
5970,94
5971,88
5972,89
5973,94
5974,103
5975,113
5976,122
5977,125
5978,126
5979,122
5980,118
5981,114
5982,111
5983,108
5984,108
5985,106
5986,99
5987,93
5988,90
5989,93
5990,100
5991,108
5992,112
5993,110
5994,103
5995,91
5996,81
5997,72
5998,68
5999,70
6000,74
6001,77
6002,77
6003,73
6004,68
6005,62
6006,57
6007,53
6008,50
6009,46
6010,39
6011,29
6012,19
6013,12
6014,9
6015,10
6016,15
6017,19
6018,19
6019,19
6020,18
6021,15
6022,17
6023,26
6024,36
6025,47
6026,52
6027,51
6028,48
6029,46
6030,44
6031,45
6032,47
6033,49
6034,50
6035,49
6036,43
6037,37
6038,31
6039,29
6040,28
6041,31
6042,33
6043,34
6044,32
6045,30
6046,31
6047,33
6048,40
6049,49
6050,59
6051,68
6052,72
6053,67
6054,62
6055,54
6056,52
6057,56
6058,61
6059,65
6060,67
6061,65
6062,61
6063,59
6064,61
6065,70
6066,82
6067,91
6068,98
6069,98
6070,88
6071,73
6072,59
6073,50
6074,48
6075,50
6076,56
6077,61
6078,61
6079,55
6080,49
6081,42
6082,39
6083,41
6084,51
6085,54
6086,52
6087,47
6088,42
6089,39
6090,43
6091,50
6092,60
6093,67
6094,70
6095,68
6096,63
6097,57
6098,52
6099,50
6100,53
6101,58
6102,61
6103,60
6104,54
6105,45
6106,38
6107,32
6108,31
6109,32
6110,31
6111,30
6112,27
6113,24
6114,25
6115,31
6116,56
6117,68
6118,72
6119,72
6120,66
6121,59
6122,56
6123,60
6124,68
6125,75
6126,77
6127,74
6128,63
6129,50
6130,41
6131,35
6132,35
6133,41
6134,49
6135,53
6136,53
6137,49
6138,44
6139,38
6140,35
6141,38
6142,44
6143,49
6144,52
6145,51
6146,47
6147,43
6148,49
6149,57
6150,65
6151,71
6152,75
6153,74
6154,69
6155,64
6156,65
6157,70
6158,79
6159,87
6160,87
6161,89
6162,87
6163,79
6164,70
6165,62
6166,57
6167,56
6168,57
6169,57
6170,57
6171,52
6172,44
6173,39
6174,38
6175,39
6176,45
6177,51
6178,51
6179,49
6180,38
6181,35
6182,33
6183,35
6184,42
6185,49
6186,51
6187,49
6188,44
6189,36
6190,34
6191,36
6192,41
6193,46
6194,50
6195,52
6196,54
6197,56
6198,59
6199,64
6200,69
6201,72
6202,74
6203,72
6204,70
6205,68
6206,66
6207,65
6208,68
6209,72
6210,79
6211,84
6212,97
6213,110
6214,128
6215,150
6216,174
6217,199
6218,224
6219,250
6220,274
6221,292
6222,302
6223,306
6224,301
6225,290
6226,268
6227,233
6228,186
6229,125
6230,59
6231,-6
6232,-65
6233,-113
6234,-142
6235,-153
6236,-149
6237,-134
6238,-114
6239,-91
6240,-63
6241,-37
6242,-8
6243,44
6244,65
6245,79
6246,86
6247,88
6248,88
6249,87
6250,86
6251,83
6252,81
6253,78
6254,77
6255,76
6256,77
6257,82
6258,88
6259,92
6260,95
6261,95
6262,92
6263,91
6264,95
6265,101
6266,109
6267,116
6268,119
6269,120
6270,119
6271,118
6272,118
6273,118
6274,112
6275,107
6276,100
6277,91
6278,84
6279,80
6280,79
6281,85
6282,96
6283,104
6284,107
6285,108
6286,107
6287,104
6288,100
6289,99
6290,100
6291,103
6292,109
6293,115
6294,120
6295,121
6296,118
6297,116
6298,116
6299,115
6300,117
6301,121
6302,121
6303,122
6304,124
6305,127
6306,131
6307,139
6308,143
6309,146
6310,147
6311,146
6312,145
6313,144
6314,143
6315,144
6316,147
6317,153
6318,159
6319,164
6320,168
6321,171
6322,174
6323,180
6324,188
6325,194
6326,198
6327,199
6328,199
6329,197
6330,195
6331,193
6332,193
6333,196
6334,199
6335,199
6336,194
6337,188
6338,175
6339,173
6340,175
6341,179
6342,184
6343,188
6344,186
6345,179
6346,168
6347,155
6348,147
6349,143
6350,141
6351,143
6352,145
6353,146
6354,145
6355,140
6356,133
6357,129
6358,127
6359,127
6360,125
6361,121
6362,113
6363,100
6364,85
6365,74
6366,67
6367,61
6368,59
6369,58
6370,49
6371,42
6372,37
6373,38
6374,41
6375,43
6376,49
6377,48
6378,42
6379,32
6380,21
6381,13
6382,11
6383,12
6384,18
6385,24
6386,29
6387,29
6388,25
6389,19
6390,13
6391,7
6392,1
6393,-3
6394,-7
6395,-10
6396,-12
6397,-13
6398,-10
6399,-8
6400,-6
6401,-7
6402,-8
6403,-19
6404,-23
6405,-22
6406,-19
6407,-14
6408,-8
6409,-3
6410,-1
6411,-5
6412,-9
6413,-12
6414,-15
6415,-15
6416,-9
6417,1
6418,11
6419,21
6420,28
6421,31
6422,28
6423,21
6424,15
6425,11
6426,6
6427,1
6428,-2
6429,-5
6430,-4
6431,0
6432,5
6433,14
6434,22
6435,19
6436,8
6437,-6
6438,-22
6439,-31
6440,-32
6441,-27
6442,-18
6443,-10
6444,-10
6445,-4
6446,-3
6447,-7
6448,-8
6449,-6
6450,-3
6451,0
6452,0
6453,-2
6454,-10
6455,-19
6456,-27
6457,-30
6458,-29
6459,-20
6460,-5
6461,7
6462,16
6463,21
6464,21
6465,19
6466,17
6467,13
6468,13
6469,13
6470,14
6471,14
6472,13
6473,14
6474,18
6475,21
6476,20
6477,17
6478,8
6479,-1
6480,-6
6481,-7
6482,-3
6483,2
6484,8
6485,12
6486,13
6487,10
6488,4
6489,0
6490,1
6491,3
6492,6
6493,11
6494,16
6495,19
6496,20
6497,18
6498,18
6499,18
6500,18
6501,18
6502,14
6503,12
6504,12
6505,10
6506,12
6507,20
6508,26
6509,33
6510,38
6511,40
6512,37
6513,32
6514,31
6515,35
6516,43
6517,53
6518,62
6519,64
6520,57
6521,46
6522,36
6523,30
6524,31
6525,34
6526,39
6527,41
6528,38
6529,29
6530,3
6531,-1
6532,0
6533,4
6534,10
6535,15
6536,16
6537,13
6538,8
6539,4
6540,2
6541,4
6542,10
6543,17
6544,22
6545,23
6546,23
6547,21
6548,17
6549,15
6550,15
6551,17
6552,19
6553,19
6554,19
6555,21
6556,22
6557,23
6558,27
6559,29
6560,27
6561,21
6562,16
6563,15
6564,16
6565,24
6566,39
6567,57
6568,79
6569,102
6570,128
6571,157
6572,190
6573,225
6574,256
6575,279
6576,290
6577,287
6578,270
6579,243
6580,203
6581,153
6582,99
6583,42
6584,-19
6585,-81
6586,-138
6587,-138
6588,-185
6589,-217
6590,-230
6591,-224
6592,-204
6593,-178
6594,-122
6595,-96
6596,-73
6597,-55
6598,-36
6599,-18
6600,-3
6601,7
6602,15
6603,17
6604,16
6605,18
6606,24
6607,33
6608,43
6609,50
6610,53
6611,54
6612,51
6613,48
6614,46
6615,48
6616,52
6617,58
6618,63
6619,66
6620,69
6621,71
6622,71
6623,75
6624,76
6625,78
6626,77
6627,72
6628,69
6629,67
6630,68
6631,74
6632,84
6633,96
6634,103
6635,108
6636,108
6637,102
6638,92
6639,82
6640,76
6641,74
6642,75
6643,77
6644,81
6645,82
6646,79
6647,78
6648,78
6649,78
6650,79
6651,81
6652,86
6653,89
6654,90
6655,93
6656,95
6657,93
6658,90
6659,88
6660,84
6661,78
6662,75
6663,75
6664,74
6665,73
6666,75
6667,76
6668,75
6669,77
6670,80
6671,87
6672,96
6673,105
6674,115
6675,124
6676,124
6677,120
6678,115
6679,109
6680,103
6681,104
6682,110
6683,120
6684,131
6685,141
6686,146
6687,148
6688,149
6689,152
6690,156
6691,161
6692,164
6693,164
6694,158
6695,151
6696,143
6697,137
6698,136
6699,140
6700,143
6701,145
6702,145
6703,143
6704,139
6705,137
6706,137
6707,140
6708,144
6709,146
6710,145
6711,142
6712,138
6713,135
6714,132
6715,131
6716,129
6717,129
6718,128
6719,114
6720,106
6721,95
6722,87
6723,83
6724,79
6725,77
6726,75
6727,71
6728,68
6729,68
6730,66
6731,68
6732,72
6733,81
6734,91
6735,99
6736,103
6737,103
6738,98
6739,89
6740,80
6741,76
6742,73
6743,72
6744,71
6745,66
6746,62
6747,56
6748,55
6749,58
6750,64
6751,74
6752,94
6753,100
6754,101
6755,100
6756,100
6757,102
6758,106
6759,110
6760,112
6761,110
6762,105
6763,97
6764,89
6765,85
6766,86
6767,89
6768,95
6769,101
6770,103
6771,101
6772,97
6773,97
6774,97
6775,96
6776,98
6777,99
6778,98
6779,93
6780,86
6781,79
6782,72
6783,69
6784,70
6785,70
6786,68
6787,64
6788,60
6789,55
6790,50
6791,49
6792,53
6793,56
6794,59
6795,60
6796,56
6797,50
6798,43
6799,36
6800,33
6801,35
6802,37
6803,41
6804,45
6805,48
6806,48
6807,48
6808,50
6809,48
6810,46
6811,44
6812,42
6813,42
6814,46
6815,64
6816,77
6817,89
6818,95
6819,95
6820,88
6821,80
6822,74
6823,72
6824,74
6825,78
6826,81
6827,83
6828,80
6829,75
6830,71
6831,68
6832,65
6833,66
6834,66
6835,66
6836,63
6837,64
6838,67
6839,72
6840,82
6841,94
6842,102
6843,105
6844,100
6845,89
6846,66
6847,60
6848,64
6849,73
6850,81
6851,89
6852,93
6853,89
6854,84
6855,79
6856,77
6857,80
6858,86
6859,92
6860,95
6861,92
6862,82
6863,69
6864,58
6865,48
6866,46
6867,47
6868,52
6869,57
6870,60
6871,60
6872,63
6873,65
6874,67
6875,71
6876,78
6877,85
6878,90
6879,92
6880,85
6881,79
6882,75
6883,74
6884,77
6885,83
6886,87
6887,87
6888,82
6889,74
6890,65
6891,55
6892,48
6893,42
6894,42
6895,46
6896,54
6897,62
6898,71
6899,81
6900,89
6901,92
6902,90
6903,84
6904,72
6905,56
6906,43
6907,34
6908,30
6909,29
6910,31
6911,36
6912,33
6913,29
6914,29
6915,30
6916,35
6917,43
6918,50
6919,56
6920,60
6921,61
6922,66
6923,76
6924,92
6925,117
6926,146
6927,174
6928,202
6929,225
6930,245
6931,258
6932,264
6933,262
6934,253
6935,234
6936,203
6937,159
6938,104
6939,45
6940,-13
6941,-68
6942,-151
6943,-179
6944,-195
6945,-201
6946,-200
6947,-191
6948,-173
6949,-145
6950,-112
6951,-76
6952,-45
6953,-21
6954,0
6955,12
6956,24
6957,37
6958,47
6959,55
6960,64
6961,68
6962,68
6963,65
6964,63
6965,67
6966,78
6967,91
6968,101
6969,107
6970,104
6971,92
6972,79
6973,71
6974,70
6975,80
6976,93
6977,103
6978,108
6979,107
6980,104
6981,101
6982,96
6983,97
6984,99
6985,98
6986,97
6987,94
6988,92
6989,90
6990,92
6991,94
6992,97
6993,99
6994,98
6995,97
6996,95
6997,91
6998,91
6999,91
7000,89
7001,87
7002,81
7003,70
7004,58
7005,48
7006,46
7007,56
7008,68
7009,77
7010,82
7011,83
7012,79
7013,79
7014,76
7015,75
7016,77
7017,78
7018,79
7019,78
7020,72
7021,65
7022,59
7023,55
7024,57
7025,61
7026,68
7027,76
7028,82
7029,83
7030,84
7031,85
7032,88
7033,92
7034,98
7035,102
7036,103
7037,102
7038,98
7039,94
7040,92
7041,99
7042,112
7043,128
7044,141
7045,147
7046,147
7047,142
7048,131
7049,121
7050,114
7051,109
7052,106
7053,105
7054,104
7055,103
7056,105
7057,110
7058,113
7059,114
7060,113
7061,105
7062,96
7063,84
7064,75
7065,70
7066,71
7067,77
7068,85
7069,89
7070,85
7071,68
7072,58
7073,50
7074,44
7075,39
7076,34
7077,28
7078,20
7079,13
7080,9
7081,11
7082,18
7083,27
7084,37
7085,43
7086,41
7087,37
7088,29
7089,22
7090,17
7091,15
7092,16
7093,20
7094,21
7095,19
7096,15
7097,11
7098,8
7099,8
7100,11
7101,16
7102,18
7103,18
7104,17
7105,15
7106,13
7107,12
7108,13
7109,16
7110,19
7111,23
7112,24
7113,24
7114,26
7115,27
7116,28
7117,29
7118,28
7119,30
7120,32
7121,35
7122,37
7123,39
7124,41
7125,41
7126,40
7127,37
7128,33
7129,29
7130,27
7131,29
7132,34
7133,42
7134,51
7135,61
7136,59
7137,54
7138,45
7139,40
7140,38
7141,40
7142,42
7143,42
7144,38
7145,31
7146,23
7147,14
7148,10
7149,9
7150,12
7151,15
7152,17
7153,13
7154,6
7155,0
7156,0
7157,-7
7158,-12
7159,-12
7160,-10
7161,-10
7162,-15
7163,-19
7164,-22
7165,-23
7166,-19
7167,2
7168,12
7169,14
7170,11
7171,5
7172,0
7173,-6
7174,-4
7175,1
7176,9
7177,15
7178,18
7179,13
7180,7
7181,0
7182,-1
7183,3
7184,11
7185,18
7186,21
7187,17
7188,9
7189,-3
7190,-18
7191,-30
7192,-34
7193,-32
7194,-27
7195,-20
7196,-16
7197,-14
7198,-17
7199,-16
7200,-12
7201,-8
7202,-5
7203,-3
7204,-1
7205,0
7206,2
7207,6
7208,9
7209,12
7210,13
7211,12
7212,12
7213,10
7214,6
7215,5
7216,6
7217,7
7218,7
7219,3
7220,-3
7221,-9
7222,-13
7223,-13
7224,-8
7225,2
7226,12
7227,24
7228,30
7229,26
7230,17
7231,9
7232,4
7233,1
7234,1
7235,4
7236,4
7237,0
7238,-5
7239,-13
7240,-17
7241,-17
7242,-13
7243,-3
7244,6
7245,14
7246,20
7247,24
7248,25
7249,23
7250,20
7251,15
7252,9
7253,2
7254,-1
7255,-1
7256,1
7257,7
7258,15
7259,22
7260,24
7261,15
7262,10
7263,7
7264,9
7265,17
7266,27
7267,38
7268,49
7269,57
7270,64
7271,75
7272,90
7273,108
7274,132
7275,159
7276,188
7277,216
7278,238
7279,255
7280,263
7281,261
7282,251
7283,236
7284,212
7285,177
7286,132
7287,80
7288,22
7289,-38
7290,-94
7291,-139
7292,-169
7293,-179
7294,-163
7295,-141
7296,-117
7297,-93
7298,-93
7299,-69
7300,-45
7301,-23
7302,-3
7303,14
7304,28
7305,38
7306,45
7307,49
7308,52
7309,55
7310,60
7311,66
7312,70
7313,73
7314,76
7315,77
7316,78
7317,81
7318,85
7319,87
7320,88
7321,89
7322,91
7323,94
7324,97
7325,109
7326,112
7327,111
7328,105
7329,97
7330,87
7331,80
7332,80
7333,84
7334,89
7335,94
7336,97
7337,98
7338,96
7339,93
7340,90
7341,89
7342,88
7343,89
7344,93
7345,97
7346,99
7347,98
7348,102
7349,104
7350,105
7351,105
7352,103
7353,100
7354,97
7355,92
7356,92
7357,97
7358,102
7359,108
7360,113
7361,113
7362,108
7363,103
7364,99
7365,100
7366,105
7367,115
7368,128
7369,138
7370,145
7371,151
7372,152
7373,152
7374,152
7375,156
7376,161
7377,163
7378,163
7379,162
7380,162
7381,163
7382,166
7383,170
7384,177
7385,183
7386,190
7387,195
7388,205
7389,207
7390,207
7391,204
7392,197
7393,184
7394,169
7395,154
7396,143
7397,135
7398,137
7399,144
7400,152
7401,158
7402,162
7403,162
7404,157
7405,149
7406,136
7407,129
7408,124
7409,119
7410,117
7411,115
7412,110
7413,106
7414,102
7415,100
7416,98
7417,96
7418,94
7419,84
7420,76
7421,70
7422,67
7423,69
7424,74
7425,82
7426,85
7427,81
7428,71
7429,55
7430,37
7431,24
7432,16
7433,11
7434,11
7435,12
7436,14
7437,13
7438,13
7439,12
7440,12
7441,13
7442,15
7443,15
7444,13
7445,8
7446,0
7447,-6
7448,-8
7449,-8
7450,0
7451,11
7452,30
7453,36
7454,39
7455,39
7456,39
7457,38
7458,39
7459,39
7460,36
7461,32
7462,25
7463,17
7464,10
7465,9
7466,14
7467,22
7468,33
7469,43
7470,49
7471,52
7472,55
7473,57
7474,61
7475,66
7476,71
7477,75
7478,76
7479,73
7480,68
7481,63
7482,61
7483,69
7484,75
7485,79
7486,81
7487,80
7488,77
7489,77
7490,76
7491,78
7492,84
7493,89
7494,91
7495,91
7496,88
7497,83
7498,80
7499,81
7500,85
7501,92
7502,98
7503,101
7504,100
7505,95
7506,86
7507,80
7508,80
7509,81
7510,84
7511,92
7512,98
7513,100
7514,102
7515,105
7516,106
7517,108
7518,109
7519,104
7520,95
7521,85
7522,78
7523,77
7524,79
7525,87
7526,92
7527,91
7528,83
7529,75
7530,63
7531,52
7532,48
7533,51
7534,58
7535,68
7536,74
7537,72
7538,66
7539,58
7540,52
7541,51
7542,51
7543,53
7544,54
7545,55
7546,52
7547,51
7548,54
7549,61
7550,69
7551,75
7552,74
7553,66
7554,55
7555,43
7556,35
7557,34
7558,38
7559,48
7560,59
7561,67
7562,67
7563,60
7564,49
7565,37
7566,28
7567,25
7568,23
7569,24
7570,26
7571,26
7572,27
7573,28
7574,29
7575,33
7576,40
7577,50
7578,50
7579,45
7580,37
7581,27
7582,27
7583,18
7584,12
7585,7
7586,4
7587,4
7588,4
7589,4
7590,5
7591,8
7592,13
7593,16
7594,16
7595,14
7596,11
7597,8
7598,7
7599,7
7600,6
7601,-2
7602,-19
7603,-49
7604,-92
7605,-142
7606,-196
7607,-243
7608,-279
7609,-319
7610,-333
7611,-347
7612,-361
7613,-377
7614,-392
7615,-407
7616,-421
7617,-432
7618,-442
7619,-453
7620,-464
7621,-473
7622,-481
7623,-485
7624,-486
7625,-485
7626,-482
7627,-480
7628,-480
7629,-477
7630,-470
7631,-458
7632,-435
7633,-401
7634,-362
7635,-325
7636,-290
7637,-259
7638,-236
7639,-224
7640,-219
7641,-227
7642,-245
7643,-274
7644,-315
7645,-370
7646,-433
7647,-495
7648,-550
7649,-600
7650,-639
7651,-662
7652,-675
7653,-680
7654,-675
7655,-662
7656,-642
7657,-615
7658,-581
7659,-544
7660,-510
7661,-478
7662,-448
7663,-421
7664,-398
7665,-377
7666,-358
7667,-342
7668,-331
7669,-324
7670,-321
7671,-328
7672,-328
7673,-324
7674,-318
7675,-312
7676,-304
7677,-300
7678,-301
7679,-301
7680,-300
7681,-296
7682,-286
7683,-269
7684,-250
7685,-231
7686,-218
7687,-210
7688,-205
7689,-204
7690,-202
7691,-199
7692,-196
7693,-194
7694,-192
7695,-190
7696,-187
7697,-183
7698,-176
7699,-166
7700,-155
7701,-147
7702,-140
7703,-138
7704,-141
7705,-141
7706,-140
7707,-135
7708,-129
7709,-121
7710,-113
7711,-107
7712,-104
7713,-104
7714,-107
7715,-112
7716,-115
7717,-113
7718,-109
7719,-106
7720,-101
7721,-97
7722,-95
7723,-92
7724,-88
7725,-88
7726,-82
7727,-72
7728,-64
7729,-56
7730,-44
7731,-33
7732,-23
7733,-13
7734,-3
7735,0
7736,-15
7737,-32
7738,-48
7739,-58
7740,-56
7741,-46
7742,-29
7743,-11
7744,2
7745,10
7746,13
7747,14
7748,16
7749,22
7750,29
7751,37
7752,45
7753,47
7754,47
7755,47
7756,45
7757,46
7758,51
7759,55
7760,56
7761,55
7762,50
7763,40
7764,30
7765,20
7766,13
7767,10
7768,14
7769,22
7770,27
7771,30
7772,31
7773,31
7774,29
7775,29
7776,23
7777,16
7778,9
7779,1
7780,-5
7781,-10
7782,-11
7783,-5
7784,2
7785,7
7786,10
7787,9
7788,3
7789,-1
7790,-6
7791,-6
7792,-5
7793,-7
7794,-9
7795,-10
7796,-14
7797,-17
7798,-17
7799,0
7800,10
7801,15
7802,17
7803,11
7804,0
7805,-13
7806,-24
7807,-30
7808,-27
7809,-20
7810,-8
7811,1
7812,9
7813,15
7814,21
7815,24
7816,27
7817,31
7818,33
7819,32
7820,30
7821,26
7822,21
7823,20
7824,23
7825,32
7826,43
7827,54
7828,60
7829,63
7830,63
7831,58
7832,60
7833,63
7834,68
7835,70
7836,71
7837,71
7838,68
7839,66
7840,66
7841,71
7842,74
7843,77
7844,75
7845,69
7846,59
7847,46
7848,36
7849,33
7850,32
7851,35
7852,41
7853,44
7854,44
7855,46
7856,50
7857,62
7858,78
7859,95
7860,108
7861,115
7862,103
7863,92
7864,85
7865,84
7866,88
7867,88
7868,96
7869,105
7870,108
7871,104
7872,99
7873,96
7874,98
7875,104
7876,114
7877,125
7878,133
7879,135
7880,135
7881,130
7882,126
7883,123
7884,122
7885,121
7886,117
7887,110
7888,100
7889,88
7890,78
7891,73
7892,74
7893,79
7894,98
7895,105
7896,106
7897,101
7898,95
7899,89
7900,83
7901,82
7902,83
7903,87
7904,93
7905,101
7906,109
7907,117
7908,123
7909,126
7910,129
7911,130
7912,131
7913,132
7914,135
7915,139
7916,145
7917,154
7918,159
7919,160
7920,160
7921,159
7922,158
7923,159
7924,162
7925,166
7926,165
7927,161
7928,155
7929,148
7930,142
7931,143
7932,147
7933,153
7934,160
7935,166
7936,170
7937,171
7938,168
7939,168
7940,167
7941,166
7942,166
7943,166
7944,165
7945,162
7946,159
7947,157
7948,156
7949,156
7950,156
7951,160
7952,166
7953,171
7954,175
7955,176
7956,176
7957,162
7958,152
7959,143
7960,132
7961,124
7962,120
7963,122
7964,129
7965,143
7966,159
7967,174
7968,184
7969,185
7970,181
7971,172
7972,159
7973,150
7974,151
7975,160
7976,172
7977,184
7978,191
7979,192
7980,191
7981,186
7982,181
7983,178
7984,178
7985,179
7986,180
7987,180
7988,179
7989,182
7990,186
7991,189
7992,193
7993,193
7994,191
7995,191
7996,193
7997,202
7998,220
7999,247
8000,280
8001,316
8002,349
8003,378
8004,402
8005,415
8006,416
8007,410
8008,397
8009,397
8010,373
8011,338
8012,293
8013,241
8014,184
8015,123
8016,63
8017,11
8018,-31
8019,-61
8020,-76
8021,-72
8022,-55
8023,-31
8024,-2
8025,25
8026,51
8027,72
8028,92
8029,108
8030,124
8031,138
8032,148
8033,157
8034,160
8035,159
8036,153
8037,147
8038,143
8039,142
8040,147
8041,156
8042,166
8043,175
8044,180
8045,179
8046,176
8047,171
8048,166
8049,164
8050,165
8051,167
8052,172
8053,173
8054,171
8055,170
8056,168
8057,168
8058,174
8059,180
8060,185
8061,190
8062,193
8063,193
8064,189
8065,181
8066,177
8067,174
8068,170
8069,164
8070,158
8071,155
8072,155
8073,155
8074,158
8075,163
8076,168
8077,170
8078,170
8079,167
8080,163
8081,159
8082,157
8083,160
8084,164
8085,163
8086,160
8087,157
8088,150
8089,144
8090,144
8091,149
8092,154
8093,158
8094,157
8095,150
8096,143
8097,136
8098,132
8099,135
8100,145
8101,162
8102,179
8103,192
8104,198
8105,196
8106,190
8107,184
8108,180
8109,178
8110,179
8111,181
8112,183
8113,182
8114,181
8115,179
8116,178
8117,183
8118,190
8119,196
8120,199
8121,199
8122,199
8123,200
8124,201
8125,204
8126,207
8127,207
8128,207
8129,209
8130,211
8131,211
8132,211
8133,211
8134,212
8135,212
8136,207
8137,197
8138,185
8139,171
8140,159
8141,153
8142,150
8143,150
8144,153
8145,156
8146,155
8147,152
8148,138
8149,130
8150,123
8151,123
8152,116
8153,111
8154,106
8155,101
8156,100
8157,101
8158,103
8159,105
8160,107
8161,102
8162,92
8163,81
8164,73
8165,70
8166,72
8167,78
8168,86
8169,91
8170,88
8171,79
8172,64
8173,50
8174,41
8175,40
8176,47
8177,58
8178,69
8179,77
8180,80
8181,67
8182,62
8183,61
8184,66
8185,76
8186,85
8187,93
8188,96
8189,95
8190,89
8191,83
8192,79
8193,79
8194,82
8195,88
8196,92
8197,91
8198,90
8199,91
8200,95
8201,103
8202,114
8203,126
8204,133
8205,134
8206,130
8207,122
8208,112
8209,104
8210,103
8211,106
8212,110
8213,110
8214,108
8215,106
8216,108
8217,111
8218,114
8219,112
8220,107
8221,99
8222,90
8223,84
8224,82
8225,85
8226,89
8227,90
8228,85
8229,75
8230,64
8231,51
8232,44
8233,46
8234,54
8235,64
8236,72
8237,78
8238,81
8239,80
8240,78
8241,81
8242,86
8243,90
8244,88
8245,80
8246,69
8247,61
8248,59
8249,65
8250,77
8251,94
8252,110
8253,122
8254,125
8255,123
8256,117
8257,114
8258,115
8259,119
8260,123
8261,125
8262,124
8263,118
8264,109
8265,103
8266,105
8267,108
8268,114
8269,122
8270,126
8271,122
8272,115
8273,106
8274,102
8275,104
8276,111
8277,119
8278,122
8279,123
8280,123
8281,124
8282,126
8283,132
8284,143
8285,156
8286,169
8287,181
8288,189
8289,195
8290,199
8291,201
8292,199
8293,193
8294,193
8295,181
8296,170
8297,157
8298,147
8299,141
8300,139
8301,140
8302,143
8303,142
8304,139
8305,134
8306,128
8307,126
8308,143
8309,157
8310,168
8311,175
8312,179
8313,180
8314,178
8315,176
8316,177
8317,179
8318,183
8319,186
8320,188
8321,188
8322,184
8323,178
8324,172
8325,166
8326,159
8327,153
8328,145
8329,136
8330,129
8331,121
8332,115
8333,116
8334,118
8335,120
8336,125
8337,129
8338,130
8339,130
8340,127
8341,121
8342,120
8343,121
8344,122
8345,122
8346,121
8347,122
8348,125
8349,131
8350,135
8351,133
8352,128
8353,117
8354,104
8355,93
8356,87
8357,83
8358,83
8359,88
8360,94
8361,97
8362,96
8363,94
8364,97
8365,107
8366,125
8367,151
8368,183
8369,218
8370,251
8371,283
8372,307
8373,318
8374,308
8375,287
8376,259
8377,220
8378,168
8379,112
8380,53
8381,-10
8382,-68
8383,-117
8384,-159
8385,-187
8386,-200
8387,-202
8388,-194
8389,-179
8390,-159
8391,-135
8392,-106
8393,-79
8394,-52
8395,-28
8396,-7
8397,12
8398,33
8399,54
8400,75
8401,94
8402,110
8403,119
8404,127
8405,126
8406,125
8407,124
8408,123
8409,120
8410,118
8411,115
8412,111
8413,107
8414,105
8415,105
8416,105
8417,105
8418,107
8419,108
8420,108
8421,112
8422,119
8423,127
8424,136
8425,146
8426,154
8427,158
8428,158
8429,156
8430,155
8431,153
8432,153
8433,156
8434,161
8435,165
8436,166
8437,165
8438,161
8439,154
8440,145
8441,141
8442,142
8443,147
8444,151
8445,152
8446,153
8447,149
8448,143
8449,139
8450,136
8451,134
8452,135
8453,137
8454,137
8455,134
8456,128
8457,125
8458,125
8459,129
8460,134
8461,140
8462,142
8463,141
8464,138
8465,137
8466,136
8467,137
8468,139
8469,141
8470,140
8471,136
8472,135
8473,138
8474,144
8475,154
8476,164
8477,170
8478,168
8479,163
8480,156
8481,148
8482,144
8483,143
8484,146
8485,150
8486,152
8487,149
8488,143
8489,136
8490,132
8491,133
8492,136
8493,140
8494,141
8495,138
8496,130
8497,118
8498,105
8499,94
8500,90
8501,94
8502,96
8503,96
8504,93
8505,90
8506,92
8507,97
8508,105
8509,115
8510,123
8511,126
8512,120
8513,104
8514,86
8515,68
8516,53
8517,47
8518,49
8519,55
8520,61
8521,65
8522,66
8523,64
8524,57
8525,52
8526,47
8527,44
8528,41
8529,39
8530,37
8531,35
8532,32
8533,31
8534,30
8535,25
8536,20
8537,16
8538,13
8539,15
8540,22
8541,31
8542,41
8543,49
8544,51
8545,50
8546,46
8547,42
8548,39
8549,38
8550,39
8551,44
8552,50
8553,54
8554,56
8555,59
8556,62
8557,64
8558,67
8559,66
8560,63
8561,60
8562,56
8563,46
8564,42
8565,42
8566,48
8567,55
8568,62
8569,65
8570,64
8571,59
8572,57
8573,54
8574,50
8575,50
8576,50
8577,49
8578,49
8579,47
8580,47
8581,46
8582,46
8583,51
8584,58
8585,64
8586,66
8587,60
8588,52
8589,44
8590,37
8591,36
8592,38
8593,42
8594,45
8595,44
8596,38
8597,29
8598,22
8599,18
8600,20
8601,24
8602,27
8603,29
8604,27
8605,23
8606,17
8607,9
8608,0
8609,-6
8610,-10
8611,-12
8612,-13
8613,-13
8614,-14
8615,-15
8616,-15
8617,-16
8618,-13
8619,-11
8620,-9
8621,-5
8622,0
8623,6
8624,13
8625,21
8626,32
8627,30
8628,24
8629,19
8630,14
8631,12
8632,16
8633,25
8634,33
8635,40
8636,41
8637,37
8638,30
8639,23
8640,20
8641,25
8642,33
8643,42
8644,46
8645,47
8646,43
8647,36
8648,30
8649,29
8650,34
8651,42
8652,52
8653,60
8654,65
8655,67
8656,70
8657,73
8658,83
8659,88
8660,89
8661,85
8662,76
8663,67
8664,60
8665,59
8666,64
8667,72
8668,79
8669,81
8670,80
8671,75
8672,68
8673,61
8674,58
8675,56
8676,57
8677,53
8678,44
8679,33
8680,22
8681,11
8682,4
8683,3
8684,6
8685,15
8686,23
8687,27
8688,29
8689,27
8690,23
8691,26
8692,33
8693,44
8694,56
8695,66
8696,75
8697,78
8698,74
8699,68
8700,62
8701,54
8702,45
8703,36
8704,30
8705,26
8706,26
8707,35
8708,49
8709,65
8710,79
8711,90
8712,95
8713,97
8714,103
8715,115
8716,135
8717,161
8718,196
8719,235
8720,235
8721,272
8722,308
8723,304
8724,288
8725,261
8726,231
8727,196
8728,154
8729,106
8730,52
8731,-7
8732,-69
8733,-123
8734,-168
8735,-191
8736,-195
8737,-185
8738,-163
8739,-134
8740,-106
8741,-80
8742,-55
8743,-33
8744,-11
8745,9
8746,27
8747,39
8748,47
8749,53
8750,63
8751,72
8752,81
8753,90
8754,108
8755,114
8756,118
8757,118
8758,118
8759,115
8760,112
8761,111
8762,106
8763,101
8764,99
8765,98
8766,98
8767,99
8768,101
8769,101
8770,99
8771,97
8772,95
8773,97
8774,100
8775,104
8776,112
8777,118
8778,118
8779,116
8780,111
8781,104
8782,96
8783,93
8784,96
8785,100
8786,107
8787,110
8788,110
8789,106
8790,104
8791,104
8792,109
8793,114
8794,123
8795,131
8796,135
8797,135
8798,135
8799,136
8800,135
8801,132
8802,129
8803,127
8804,124
8805,120
8806,115
8807,113
8808,112
8809,113
8810,119
8811,124
8812,126
8813,124
8814,122
8815,120
8816,122
8817,127
8818,151
8819,160
8820,162
8821,160
8822,155
8823,153
8824,155
8825,161
8826,169
8827,175
8828,175
8829,170
8830,161
8831,152
8832,144
8833,143
8834,148
8835,153
8836,156
8837,159
8838,161
8839,165
8840,168
8841,171
8842,176
8843,180
8844,176
8845,169
8846,163
8847,154
8848,147
8849,146
8850,148
8851,151
8852,153
8853,154
8854,152
8855,145
8856,137
8857,133
8858,129
8859,125
8860,122
8861,115
8862,109
8863,109
8864,104
8865,96
8866,91
8867,89
8868,88
8869,89
8870,88
8871,84
8872,77
8873,69
8874,60
8875,55
8876,53
8877,55
8878,59
8879,64
8880,64
8881,59
8882,56
8883,54
8884,54
8885,54
8886,56
8887,59
8888,62
8889,64
8890,67
8891,71
8892,73
8893,73
8894,69
8895,62
8896,54
8897,49
8898,49
8899,51
8900,55
8901,56
8902,53
8903,44
8904,30
8905,16
8906,6
8907,5
8908,11
8909,25
8910,39
8911,52
8912,61
8913,55
8914,48
8915,44
8916,44
8917,49
8918,57
8919,65
8920,68
8921,68
8922,69
8923,66
8924,65
8925,68
8926,72
8927,77
8928,81
8929,82
8930,79
8931,78
8932,78
8933,80
8934,84
8935,84
8936,84
8937,87
8938,88
8939,86
8940,86
8941,83
8942,78
8943,74
8944,58
8945,50
8946,43
8947,36
8948,34
8949,30
8950,26
8951,24
8952,24
8953,24
8954,26
8955,30
8956,39
8957,48
8958,58
8959,67
8960,74
8961,78
8962,78
8963,75
8964,68
8965,57
8966,49
8967,43
8968,39
8969,37
8970,38
8971,39
8972,40
8973,42
8974,43
8975,45
8976,48
8977,50
8978,46
8979,42
8980,38
8981,37
8982,37
8983,41
8984,49
8985,54
8986,53
8987,50
8988,44
8989,37
8990,33
8991,33
8992,35
8993,37
8994,37
8995,35
8996,31
8997,26
8998,23
8999,24
9000,27
9001,33
9002,37
9003,37
9004,33
9005,33
9006,29
9007,26
9008,26
9009,37
9010,45
9011,51
9012,53
9013,52
9014,47
9015,43
9016,40
9017,39
9018,41
9019,44
9020,45
9021,44
9022,42
9023,40
9024,37
9025,38
9026,40
9027,44
9028,44
9029,40
9030,34
9031,24
9032,13
9033,4
9034,3
9035,5
9036,7
9037,9
9038,9
9039,5
9040,-6
9041,-10
9042,-12
9043,-14
9044,-16
9045,-17
9046,-20
9047,-20
9048,-14
9049,-5
9050,6
9051,18
9052,24
9053,24
9054,20
9055,11
9056,3
9057,0
9058,0
9059,2
9060,4
9061,3
9062,0
9063,0
9064,0
9065,6
9066,20
9067,41
9068,71
9069,108
9070,144
9071,178
9072,241
9073,263
9074,275
9075,279
9076,276
9077,264
9078,245
9079,217
9080,177
9081,124
9082,65
9083,1
9084,-63
9085,-125
9086,-176
9087,-209
9088,-225
9089,-225
9090,-212
9091,-189
9092,-161
9093,-126
9094,-92
9095,-59
9096,-33
9097,-11
9098,1
9099,11
9100,15
9101,18
9102,18
9103,15
9104,15
9105,16
9106,19
9107,25
9108,35
9109,44
9110,51
9111,52
9112,50
9113,44
9114,37
9115,35
9116,38
9117,45
9118,51
9119,55
9120,55
9121,50
9122,41
9123,35
9124,32
9125,33
9126,36
9127,42
9128,49
9129,54
9130,57
9131,57
9132,55
9133,52
9134,47
9135,37
9136,31
9137,27
9138,24
9139,24
9140,27
9141,35
9142,44
9143,51
9144,55
9145,52
9146,45
9147,45
9148,40
9149,34
9150,32
9151,33
9152,35
9153,40
9154,41
9155,39
9156,37
9157,37
9158,39
9159,47
9160,58
9161,68
9162,74
9163,73
9164,67
9165,59
9166,50
9167,44
9168,48
9169,50
9170,53
9171,54
9172,54
9173,52
9174,54
9175,61
9176,72
9177,83
9178,93
9179,100
9180,101
9181,99
9182,98
9183,102
9184,111
9185,121
9186,133
9187,144
9188,148
9189,145
9190,137
9191,125
9192,114
9193,108
9194,102
9195,99
9196,100
9197,100
9198,101
9199,105
9200,112
9201,117
9202,120
9203,118
9204,113
9205,102
9206,89
9207,77
9208,69
9209,67
9210,66
9211,66
9212,65
9213,65
9214,62
9215,58
9216,58
9217,60
9218,62
9219,63
9220,63
9221,60
9222,51
9223,41
9224,34
9225,31
9226,32
9227,34
9228,37
9229,38
9230,34
9231,19
9232,12
9233,7
9234,6
9235,7
9236,5
9237,0
9238,-9
9239,-18
9240,-24
9241,-25
9242,-22
9243,-16
9244,-10
9245,-3
9246,0
9247,-1
9248,-3
9249,-5
9250,-4
9251,0
9252,7
9253,12
9254,13
9255,12
9256,9
9257,5
9258,4
9259,2
9260,2
9261,1
9262,3
9263,6
9264,9
9265,14
9266,20
9267,26
9268,31
9269,38
9270,44
9271,49
9272,52
9273,54
9274,52
9275,49
9276,46
9277,41
9278,35
9279,31
9280,30
9281,33
9282,38
9283,41
9284,45
9285,47
9286,50
9287,53
9288,54
9289,54
9290,55
9291,59
9292,63
9293,70
9294,80
9295,79
9296,70
9297,56
9298,40
9299,29
9300,24
9301,25
9302,31
9303,35
9304,38
9305,39
9306,36
9307,35
9308,38
9309,46
9310,58
9311,71
9312,78
9313,81
9314,79
9315,72
9316,66
9317,60
9318,57
9319,54
9320,51
9321,50
9322,51
9323,53
9324,56
9325,63
9326,67
9327,69
9328,66
9329,61
9330,55
9331,56
9332,63
9333,72
9334,84
9335,94
9336,98
9337,100
9338,96
9339,91
9340,89
9341,93
9342,98
9343,108
9344,115
9345,116
9346,114
9347,112
9348,110
9349,113
9350,116
9351,119
9352,121
9353,118
9354,106
9355,93
9356,80
9357,70
9358,77
9359,88
9360,95
9361,96
9362,91
9363,84
9364,77
9365,73
9366,76
9367,83
9368,86
9369,89
9370,87
9371,82
9372,75
9373,69
9374,65
9375,65
9376,67
9377,69
9378,70
9379,71
9380,73
9381,77
9382,81
9383,85
9384,88
9385,87
9386,81
9387,71
9388,59
9389,48
9390,40
9391,48
9392,60
9393,73
9394,86
9395,97
9396,104
9397,106
9398,103
9399,97
9400,90
9401,83
9402,74
9403,67
9404,60
9405,56
9406,53
9407,50
9408,48
9409,49
9410,45
9411,39
9412,34
9413,26
9414,16
9415,14
9416,16
9417,24
9418,36
9419,46
9420,56
9421,65
9422,67
9423,71
9424,80
9425,98
9426,125
9427,158
9428,191
9429,222
9430,249
9431,271
9432,271
9433,290
9434,304
9435,310
9436,302
9437,274
9438,228
9439,161
9440,81
9441,0
9442,-76
9443,-134
9444,-174
9445,-192
9446,-191
9447,-178
9448,-160
9449,-138
9450,-112
9451,-84
9452,-56
9453,-31
9454,11
9455,28
9456,44
9457,59
9458,75
9459,88
9460,99
9461,107
9462,111
9463,113
9464,112
9465,109
9466,110
9467,113
9468,116
9469,124
9470,131
9471,135
9472,136
9473,132
9474,125
9475,119
9476,118
9477,117
9478,120
9479,124
9480,126
9481,126
9482,124
9483,122
9484,123
9485,132
9486,143
9487,154
9488,159
9489,162
9490,165
9491,167
9492,167
9493,168
9494,165
9495,157
9496,147
9497,134
9498,121
9499,113
9500,110
9501,112
9502,122
9503,128
9504,130
9505,126
9506,117
9507,109
9508,103
9509,102
9510,105
9511,110
9512,111
9513,108
9514,102
9515,95
9516,93
9517,98
9518,106
9519,112
9520,115
9521,112
9522,109
9523,106
9524,107
9525,110
9526,119
9527,128
9528,133
9529,132
9530,127
9531,122
9532,119
9533,120
9534,125
9535,130
9536,131
9537,129
9538,125
9539,119
9540,115
9541,117
9542,125
9543,139
9544,153
9545,160
9546,162
9547,155
9548,153
9549,153
9550,153
9551,156
9552,153
9553,148
9554,143
9555,136
9556,129
9557,124
9558,120
9559,116
9560,111
9561,103
9562,96
9563,93
9564,89
9565,87
9566,91
9567,95
9568,97
9569,99
9570,97
9571,92
9572,85
9573,76
9574,76
9575,69
9576,61
9577,53
9578,48
9579,44
9580,41
9581,40
9582,37
9583,36
9584,38
9585,36
9586,33
9587,30
9588,23
9589,18
9590,16
9591,14
9592,14
9593,20
9594,26
9595,32
9596,34
9597,32
9598,30
9599,28
9600,28
9601,28
9602,30
9603,30
9604,26
9605,20
9606,10
9607,0
9608,-10
9609,-12
9610,-4
9611,1
9612,6
9613,13
9614,19
9615,26
9616,33
9617,41
9618,46
9619,49
9620,47
9621,38
9622,26
9623,16
9624,10
9625,9
9626,13
9627,21
9628,32
9629,45
9630,59
9631,72
9632,82
9633,87
9634,88
9635,88
9636,85
9637,80
9638,73
9639,66
9640,57
9641,51
9642,46
9643,36
9644,33
9645,31
9646,31
9647,33
9648,32
9649,31
9650,32
9651,34
9652,34
9653,35
9654,35
9655,33
9656,34
9657,35
9658,38
9659,42
9660,43
9661,42
9662,40
9663,34
9664,25
9665,19
9666,15
9667,15
9668,22
9669,31
9670,36
9671,42
9672,44
9673,44
9674,44
9675,43
9676,38
9677,29
9678,21
9679,14
9680,6
9681,1
9682,3
9683,9
9684,18
9685,24
9686,25
9687,21
9688,16
9689,12
9690,14
9691,20
9692,29
9693,42
9694,54
9695,62
9696,65
9697,65
9698,60
9699,57
9700,52
9701,49
9702,49
9703,49
9704,48
9705,46
9706,42
9707,38
9708,34
9709,31
9710,28
9711,24
9712,21
9713,23
9714,26
9715,29
9716,29
9717,36
9718,43
9719,51
9720,59
9721,64
9722,68
9723,67
9724,61
9725,53
9726,49
9727,43
9728,39
9729,35
9730,30
9731,28
9732,28
9733,26
9734,26
9735,26
9736,22
9737,18
9738,12
9739,5
9740,2
9741,2
9742,8
9743,16
9744,22
9745,26
9746,29
9747,29
9748,27
9749,24
9750,24
9751,27
9752,33
9753,39
9754,42
9755,43
9756,44
9757,47
9758,53
9759,62
9760,71
9761,76
9762,80
9763,81
9764,79
9765,77
9766,73
9767,69
9768,68
9769,67
9770,66
9771,64
9772,64
9773,68
9774,77
9775,89
9776,106
9777,125
9778,146
9779,170
9780,195
9781,220
9782,242
9783,256
9784,258
9785,252
9786,237
9787,212
9788,176
9789,133
9790,81
9791,28
9792,-24
9793,-73
9794,-118
9795,-153
9796,-179
9797,-187
9798,-157
9799,-126
9800,-89
9801,-54
9802,-24
9803,-3
9804,9
9805,15
9806,20
9807,27
9808,42
9809,61
9810,81
9811,97
9812,105
9813,108
9814,106
9815,106
9816,108
9817,114
9818,124
9819,136
9820,145
9821,149
9822,147
9823,142
9824,137
9825,134
9826,132
9827,131
9828,128
9829,125
9830,122
9831,118
9832,114
9833,109
9834,106
9835,103
9836,97
9837,90
9838,87
9839,85
9840,86
9841,90
9842,94
9843,97
9844,99
9845,97
9846,96
9847,96
9848,95
9849,99
9850,108
9851,112
9852,115
9853,118
9854,118
9855,116
9856,115
9857,116
9858,116
9859,120
9860,127
9861,141
9862,143
9863,140
9864,133
9865,128
9866,123
9867,120
9868,121
9869,123
9870,124
9871,125
9872,123
9873,119
9874,115
9875,113
9876,111
9877,111
9878,114
9879,115
9880,116
9881,117
9882,116
9883,119
9884,123
9885,128
9886,132
9887,134
9888,130
9889,127
9890,125
9891,126
9892,132
9893,151
9894,156
9895,156
9896,152
9897,147
9898,141
9899,140
9900,145
9901,153
9902,156
9903,154
9904,148
9905,139
9906,129
9907,126
9908,132
9909,139
9910,147
9911,153
9912,152
9913,145
9914,131
9915,116
9916,106
9917,102
9918,102
9919,105
9920,109
9921,109
9922,112
9923,114
9924,114
9925,114
9926,112
9927,108
9928,101
9929,90
9930,79
9931,70
9932,65
9933,67
9934,71
9935,76
9936,78
9937,76
9938,70
9939,59
9940,47
9941,38
9942,34
9943,37
9944,44
9945,51
9946,59
9947,66
9948,69
9949,69
9950,70
9951,68
9952,66
9953,62
9954,58
9955,44
9956,38
9957,35
9958,34
9959,32
9960,31
9961,32
9962,31
9963,29
9964,26
9965,24
9966,25
9967,29
9968,36
9969,43
9970,48
9971,52
9972,57
9973,63
9974,65
9975,66
9976,68
9977,72
9978,74
9979,75
9980,73
9981,70
9982,68
9983,67
9984,63
9985,60
9986,57
9987,53
9988,53
9989,54
9990,54
9991,56
9992,62
9993,69
9994,70
9995,67
9996,59
9997,50
9998,40
9999,34
10000,34
10001,33
10002,36
10003,39
10004,42
10005,41
10006,36
10007,32
10008,28
10009,29
10010,34
10011,40
10012,42
10013,42
10014,38
10015,32
10016,26
10017,23
10018,24
10019,42
10020,50
10021,55
10022,56
10023,56
10024,55
10025,54
10026,53
10027,50
10028,46
10029,41
10030,35
10031,27
10032,21
10033,17
10034,17
10035,21
10036,27
10037,35
10038,41
10039,44
10040,44
10041,43
10042,40
10043,37
10044,35
10045,32
10046,28
10047,25
10048,24
10049,25
10050,38
10051,44
10052,48
10053,51
10054,49
10055,44
10056,36
10057,30
10058,27
10059,26
10060,26
10061,28
10062,30
10063,29
10064,28
10065,28
10066,29
10067,31
10068,35
10069,37
10070,40
10071,41
10072,41
10073,41
10074,39
10075,38
10076,38
10077,40
10078,42
10079,44
10080,42
10081,38
10082,24
10083,19
10084,15
10085,11
10086,9
10087,11
10088,13
10089,20
10090,27
10091,36
10092,46
10093,52
10094,54
10095,51
10096,39
10097,23
10098,10
10099,1
10100,-2
10101,-1
10102,0
10103,4
10104,6
10105,5
10106,6
10107,6
10108,8
10109,12
10110,18
10111,22
10112,23
10113,22
10114,23
10115,30
10116,44
10117,66
10118,92
10119,121
10120,149
10121,175
10122,196
10123,216
10124,230
10125,237
10126,239
10127,233
10128,216
10129,190
10130,154
10131,107
10132,53
10133,-1
10134,-54
10135,-99
10136,-137
10137,-163
10138,-178
10139,-185
10140,-180
10141,-165
10142,-146
10143,-146
10144,-121
10145,-67
10146,-43
10147,-24
10148,-8
10149,3
10150,16
10151,30
10152,44
10153,53
10154,58
10155,59
10156,55
10157,51
10158,52
10159,56
10160,59
10161,63
10162,69
10163,72
10164,70
10165,65
10166,63
10167,60
10168,60
10169,61
10170,61
10171,60
10172,56
10173,54
10174,57
10175,62
10176,71
10177,89
10178,90
10179,84
10180,72
10181,55
10182,41
10183,32
10184,29
10185,34
10186,40
10187,47
10188,50
10189,50
10190,49
10191,50
10192,54
10193,60
10194,66
10195,71
10196,70
10197,65
10198,56
10199,45
10200,38
10201,37
10202,40
10203,45
10204,50
10205,53
10206,55
10207,55
10208,51
10209,50
10210,49
10211,49
10212,48
10213,47
10214,49
10215,53
10216,59
10217,70
10218,82
10219,91
10220,98
10221,101
10222,102
10223,103
10224,105
10225,112
10226,122
10227,132
10228,143
10229,152
10230,159
10231,162
10232,160
10233,156
10234,153
10235,149
10236,144
10237,142
10238,139
10239,142
10240,146
10241,150
10242,151
10243,148
10244,144
10245,137
10246,127
10247,118
10248,110
10249,104
10250,103
10251,103
10252,105
10253,105
10254,106
10255,110
10256,116
10257,119
10258,120
10259,121
10260,119
10261,112
10262,103
10263,91
10264,79
10265,66
10266,56
10267,49
10268,44
10269,39
10270,32
10271,23
10272,11
10273,8
10274,12
10275,19
10276,27
10277,30
10278,27
10279,19
10280,5
10281,-10
10282,-21
10283,-24
10284,-22
10285,-22
10286,-12
10287,-2
10288,2
10289,5
10290,3
10291,-1
10292,-4
10293,-6
10294,-7
10295,-6
10296,-9
10297,-12
10298,-17
10299,-21
10300,-24
10301,-22
10302,-18
10303,-15
10304,-17
10305,-26
10306,-34
10307,-40
10308,-38
10309,-29
10310,-17
10311,-3
10312,6
10313,10
10314,10
10315,7
10316,6
10317,7
10318,11
10319,15
10320,20
10321,20
10322,17
10323,8
10324,-2
10325,-12
10326,-17
10327,-18
10328,-15
10329,-8
10330,1
10331,8
10332,12
10333,16
10334,18
10335,17
10336,17
10337,19
10338,19
10339,20
10340,25
10341,32
10342,39
10343,49
10344,55
10345,55
10346,52
10347,46
10348,39
10349,35
10350,35
10351,39
10352,45
10353,48
10354,46
10355,39
10356,29
10357,19
10358,16
10359,19
10360,25
10361,37
10362,50
10363,57
10364,57
10365,54
10366,50
10367,47
10368,45
10369,46
10370,43
10371,37
10372,32
10373,30
10374,30
10375,33
10376,42
10377,51
10378,57
10379,56
10380,50
10381,42
10382,36
10383,34
10384,37
10385,46
10386,57
10387,63
10388,64
10389,62
10390,56
10391,50
10392,48
10393,51
10394,57
10395,63
10396,70
10397,76
10398,79
10399,79
10400,81
10401,81
10402,81
10403,80
10404,77
10405,73
10406,70
10407,68
10408,69
10409,72
10410,78
10411,84
10412,89
10413,94
10414,97
10415,100
10416,105
10417,110
10418,115
10419,116
10420,114
10421,107
10422,97
10423,85
10424,75
10425,67
10426,57
10427,57
10428,50
10429,43
10430,37
10431,30
10432,22
10433,25
10434,32
10435,43
10436,50
10437,59
10438,67
10439,72
10440,74
10441,76
10442,74
10443,69
10444,64
10445,59
10446,55
10447,51
10448,52
10449,57
10450,65
10451,70
10452,75
10453,76
10454,71
10455,63
10456,55
10457,51
10458,49
10459,50
10460,58
10461,66
10462,73
10463,78
10464,86
10465,91
10466,99
10467,114
10468,135
10469,156
10470,179
10471,205
10472,230
10473,255
10474,281
10475,302
10476,320
10477,328
10478,325
10479,310
10480,284
10481,244
10482,192
10483,133
10484,70
10485,3
10486,-60
10487,-121
10488,-170
10489,-201
10490,-212
10491,-206
10492,-183
10493,-151
10494,-114
10495,-50
10496,-27
10497,-7
10498,11
10499,32
10500,55
10501,76
10502,94
10503,102
10504,104
10505,103
10506,100
10507,97
10508,97
10509,99
10510,102
10511,104
10512,104
10513,103
10514,98
10515,92
10516,88
10517,87
10518,90
10519,93
10520,97
10521,102
10522,105
10523,108
10524,113
10525,118
10526,122
10527,120
10528,115
10529,107
10530,94
10531,85
10532,80
10533,80
10534,88
10535,100
10536,108
10537,110
10538,105
10539,95
10540,85
10541,77
10542,72
10543,72
10544,75
10545,79
10546,82
10547,84
10548,82
10549,81
10550,83
10551,87
10552,92
10553,94
10554,92
10555,87
10556,82
10557,76
10558,77
10559,80
10560,80
10561,79
10562,78
10563,78
10564,77
10565,80
10566,88
10567,97
10568,104
10569,104
10570,108
10571,107
10572,101
10573,91
10574,83
10575,79
10576,79
10577,83
10578,90
10579,101
10580,110
10581,117
10582,122
10583,128
10584,132
10585,135
10586,137
10587,139
10588,135
10589,129
10590,123
10591,121
10592,125
10593,133
10594,140
10595,140
10596,133
10597,121
10598,105
10599,93
10600,88
10601,92
10602,98
10603,105
10604,109
10605,104
10606,95
10607,85
10608,76
10609,74
10610,76
10611,81
10612,85
10613,86
10614,83
10615,77
10616,68
10617,58
10618,49
10619,42
10620,36
10621,31
10622,20
10623,17
10624,15
10625,18
10626,22
10627,25
10628,29
10629,30
10630,29
10631,26
10632,22
10633,19
10634,21
10635,25
10636,30
10637,37
10638,44
10639,48
10640,49
10641,47
10642,46
10643,44
10644,41
10645,38
10646,36
10647,32
10648,32
10649,36
10650,42
10651,48
10652,54
10653,59
10654,61
10655,60
10656,60
10657,62
10658,66
10659,74
10660,82
10661,88
10662,90
10663,91
10664,91
10665,93
10666,98
10667,103
10668,107
10669,107
10670,105
10671,99
10672,92
10673,86
10674,80
10675,78
10676,80
10677,81
10678,81
10679,78
10680,74
10681,69
10682,68
10683,71
10684,78
10685,86
10686,93
10687,90
10688,83
10689,76
10690,73
10691,74
10692,79
10693,84
10694,86
10695,82
10696,72
10697,62
10698,50
10699,41
10700,40
10701,43
10702,46
10703,46
10704,47
10705,48
10706,49
10707,51
10708,52
10709,54
10710,54
10711,49
10712,49
10713,45
10714,41
10715,35
10716,33
10717,36
10718,39
10719,43
10720,41
10721,40
10722,39
10723,40
10724,43
10725,46
10726,47
10727,49
10728,47
10729,41
10730,40
10731,41
10732,46
10733,53
10734,62
10735,66
10736,62
10737,52
10738,37
10739,19
10740,3
10741,-6
10742,-5
10743,6
10744,20
10745,35
10746,43
10747,40
10748,32
10749,25
10750,20
10751,21
10752,28
10753,34
10754,40
10755,39
10756,36
10757,36
10758,37
10759,41
10760,47
10761,50
10762,49
10763,45
10764,42
10765,40
10766,40
10767,42
10768,47
10769,54
10770,58
10771,56
10772,51
10773,47
10774,46
10775,49
10776,54
10777,61
10778,67
10779,69
10780,68
10781,61
10782,44
10783,40
10784,43
10785,49
10786,53
10787,54
10788,53
10789,48
10790,42
10791,36
10792,31
10793,29
10794,28
10795,26
10796,25
10797,24
10798,22
10799,25
10800,30
10801,34
10802,38
10803,40
10804,37
10805,32
10806,25
10807,20
10808,19
10809,23
10810,28
10811,31
10812,32
10813,30
10814,18
10815,18
10816,21
10817,24
10818,29
10819,33
10820,34
10821,33
10822,35
10823,44
10824,62
10825,89
10826,125
10827,163
10828,202
10829,239
10830,273
10831,302
10832,323
10833,336
10834,341
10835,333
10836,312
10837,277
10838,228
10839,164
10840,92
10841,18
10842,-49
10843,-107
10844,-150
10845,-176
10846,-182
10847,-172
10848,-155
10849,-133
10850,-107
10851,-81
10852,-56
10853,-33
10854,-33
10855,-14
10856,0
10857,11
10858,25
10859,38
10860,51
10861,65
10862,73
10863,74
10864,72
10865,68
10866,62
10867,61
10868,63
10869,68
10870,71
10871,72
10872,69
10873,64
10874,60
10875,61
10876,68
10877,79
10878,90
10879,106
10880,108
10881,106
10882,105
10883,107
10884,110
10885,114
10886,118
10887,120
10888,118
10889,111
10890,104
10891,100
10892,98
10893,94
10894,90
10895,83
10896,71
10897,58
10898,48
10899,44
10900,47
10901,52
10902,61
10903,70
10904,71
10905,66
10906,60
10907,53
10908,47
10909,45
10910,48
10911,53
10912,57
10913,56
10914,53
10915,47
10916,42
10917,42
10918,43
10919,47
10920,51
10921,55
10922,57
10923,61
10924,67
10925,74
10926,80
10927,86
10928,92
10929,95
10930,96
10931,95
10932,98
10933,102
10934,107
10935,111
10936,112
10937,108
10938,98
10939,90
10940,85
10941,86
10942,93
10943,121
10944,130
10945,136
10946,139
10947,141
10948,141
10949,141
10950,141
10951,143
10952,143
10953,139
10954,134
10955,127
10956,120
10957,120
10958,122
10959,124
10960,127
10961,128
10962,128
10963,125
10964,119
10965,112
10966,105
10967,100
10968,95
10969,92
10970,85
10971,75
10972,65
10973,55
10974,45
10975,28
10976,25
10977,22
10978,20
10979,16
10980,13
10981,10
10982,6
10983,5
10984,6
10985,6
10986,6
10987,7
10988,7
10989,5
10990,3
10991,1
10992,0
10993,-1
10994,-5
10995,-10
10996,-10
10997,-19
10998,-26
10999,-32
11000,-35
11001,-35
11002,-32
11003,-31
11004,-31
11005,-33
11006,-36
11007,-38
11008,-38
11009,-33
11010,-26
11011,-20
11012,-18
11013,-19
11014,-23
11015,-27
11016,-30
11017,-31
11018,-29
11019,-27
11020,-25
11021,-23
11022,-20
11023,-17
11024,-9
11025,-1
11026,8
11027,17
11028,20
11029,20
11030,16
11031,9
11032,3
11033,0
11034,0
11035,4
11036,13
11037,23
11038,32
11039,43
11040,40
11041,34
11042,25
11043,17
11044,8
11045,0
11046,-7
11047,-12
11048,-12
11049,-8
11050,-1
11051,7
11052,16
11053,22
11054,24
11055,23
11056,17
11057,10
11058,5
11059,3
11060,5
11061,10
11062,12
11063,13
11064,13
11065,11
11066,8
11067,8
11068,9
11069,11
11070,13
11071,17
11072,17
11073,16
11074,16
11075,16
11076,15
11077,15
11078,17
11079,17
11080,17
11081,20
11082,23
11083,25
11084,26
11085,26
11086,23
11087,18
11088,14
11089,12
11090,16
11091,20
11092,24
11093,28
11094,26
11095,20
11096,13
11097,4
11098,-1
11099,-3
11100,-1
11101,4
11102,13
11103,13
11104,9
11105,6
11106,4
11107,5
11108,10
11109,17
11110,24
11111,31
11112,36
11113,37
11114,35
11115,30
11116,25
11117,22
11118,20
11119,16
11120,13
11121,9
11122,5
11123,4
11124,3
11125,3
11126,5
11127,6
11128,9
11129,10
11130,7
11131,3
11132,0
11133,-2
11134,6
11135,12
11136,17
11137,19
11138,19
11139,13
11140,6
11141,-7
11142,-24
11143,-39
11144,-51
11145,-61
11146,-69
11147,-75
11148,-80
11149,-80
11150,-76
11151,-65
11152,-49
11153,-36
11154,-25
11155,-21
11156,-20
11157,-23
11158,-27
11159,-29
11160,-29
11161,-27
11162,-26
11163,-25
11164,-24
11165,-25
11166,-25
11167,-13
11168,-4
11169,4
11170,9
11171,8
11172,4
11173,0
11174,-5
11175,-11
11176,-16
11177,-18
11178,-16
11179,-11
11180,-4
11181,5
11182,19
11183,36
11184,59
11185,85
11186,112
11187,139
11188,164
11189,189
11190,213
11191,233
11192,246
11193,250
11194,243
11195,225
11196,192
11197,144
11198,19
11199,-49
11200,-116
11201,-168
11202,-201
11203,-216
11204,-213
11205,-194
11206,-168
11207,-136
11208,-107
11209,-85
11210,-68
11211,-57
11212,-50
11213,-42
11214,-34
11215,-26
11216,-15
11217,-3
11218,10
11219,23
11220,32
11221,38
11222,42
11223,43
11224,48
11225,55
11226,65
11227,72
11228,77
11229,69
11230,57
11231,48
11232,40
11233,38
11234,40
11235,47
11236,57
11237,62
11238,63
11239,63
11240,62
11241,64
11242,71
11243,80
11244,85
11245,87
11246,85
11247,79
11248,72
11249,64
11250,62
11251,66
11252,72
11253,81
11254,89
11255,93
11256,91
11257,88
11258,85
11259,82
11260,78
11261,77
11262,75
11263,71
11264,70
11265,72
11266,75
11267,83
11268,92
11269,99
11270,102
11271,98
11272,91
11273,80
11274,71
11275,67
11276,70
11277,77
11278,84
11279,94
11280,102
11281,102
11282,106
11283,105
11284,104
11285,102
11286,101
11287,103
11288,105
11289,106
11290,107
11291,107
11292,116
11293,122
11294,130
11295,136
11296,141
11297,144
11298,146
11299,146
11300,147
11301,149
11302,153
11303,157
11304,158
11305,157
11306,154
11307,150
11308,148
11309,150
11310,154
11311,158
11312,161
11313,157
11314,151
11315,147
11316,141
11317,136
11318,134
11319,132
11320,129
11321,125
11322,118
11323,98
11324,88
11325,85
11326,88
11327,93
11328,98
11329,103
11330,103
11331,100
11332,95
11333,87
11334,78
11335,70
11336,63
11337,55
11338,45
11339,36
11340,30
11341,27
11342,28
11343,32
11344,39
11345,42
11346,41
11347,34
11348,26
11349,19
11350,17
11351,21
11352,30
11353,38
11354,41
11355,35
11356,24
11357,15
11358,9
11359,10
11360,15
11361,19
11362,22
11363,24
11364,26
11365,30
11366,35
11367,38
11368,43
11369,43
11370,39
11371,33
11372,27
11373,22
11374,24
11375,31
11376,42
11377,52
11378,60
11379,59
11380,52
11381,42
11382,32
11383,29
11384,32
11385,37
11386,48
11387,48
11388,48
11389,47
11390,44
11391,44
11392,50
11393,58
11394,62
11395,62
11396,58
11397,54
11398,50
11399,49
11400,55
11401,64
11402,71
11403,77
11404,77
11405,72
11406,65
11407,61
11408,63
11409,71
11410,82
11411,91
11412,97
11413,100
11414,96
11415,88
11416,79
11417,74
11418,72
11419,76
11420,79
11421,80
11422,81
11423,81
11424,82
11425,88
11426,93
11427,91
11428,88
11429,83
11430,76
11431,72
11432,74
11433,77
11434,85
11435,95
11436,103
11437,108
11438,108
11439,104
11440,99
11441,93
11442,88
11443,82
11444,78
11445,72
11446,68
11447,67
11448,66
11449,68
11450,76
11451,101
11452,114
11453,121
11454,124
11455,121
11456,114
11457,103
11458,93
11459,86
11460,82
11461,81
11462,81
11463,82
11464,81
11465,76
11466,73
11467,72
11468,70
11469,66
11470,64
11471,63
11472,59
11473,56
11474,55
11475,58
11476,65
11477,69
11478,75
11479,78
11480,74
11481,68
11482,61
11483,52
11484,53
11485,60
11486,69
11487,77
11488,84
11489,87
11490,85
11491,80
11492,75
11493,69
11494,61
11495,54
11496,49
11497,46
11498,46
11499,50
11500,54
11501,56
11502,54
11503,52
11504,46
11505,36
11506,27
11507,22
11508,23
11509,27
11510,34
11511,44
11512,53
11513,57
11514,57
11515,47
11516,41
11517,37
11518,36
11519,36
11520,39
11521,42
11522,46
11523,50
11524,55
11525,63
11526,75
11527,91
11528,105
11529,116
11530,123
11531,128
11532,136
11533,153
11534,178
11535,212
11536,248
11537,278
11538,297
11539,300
11540,289
11541,268
11542,240
11543,208
11544,172
11545,131
11546,84
11547,-31
11548,-87
11549,-134
11550,-164
11551,-178
11552,-177
11553,-167
11554,-151
11555,-131
11556,-105
11557,-78
11558,-53
11559,-27
11560,-1
11561,19
11562,33
11563,44
11564,55
11565,55
11566,65
11567,74
11568,84
11569,90
11570,91
11571,85
11572,73
11573,58
11574,44
11575,36
11576,37
11577,46
11578,62
11579,80
11580,94
11581,107
11582,103
11583,95
11584,86
11585,80
11586,79
11587,78
11588,78
11589,78
11590,76
11591,70
11592,65
11593,64
11594,63
11595,63
11596,67
11597,73
11598,81
11599,89
11600,95
11601,101
11602,109
11603,117
11604,120
11605,120
11606,118
11607,114
11608,114
11609,115
11610,118
11611,122
11612,123
11613,123
11614,122
11615,118
11616,119
11617,122
11618,128
11619,131
11620,132
11621,129
11622,124
11623,119
11624,114
11625,109
11626,104
11627,101
11628,95
11629,88
11630,81
11631,74
11632,71
11633,73
11634,77
11635,84
11636,92
11637,96
11638,98
11639,99
11640,100
11641,103
11642,108
11643,124
11644,128
11645,127
11646,123
11647,116
11648,108
11649,101
11650,99
11651,103
11652,112
11653,123
11654,134
11655,140
11656,143
11657,144
11658,141
11659,138
11660,134
11661,130
11662,126
11663,124
11664,122
11665,119
11666,114
11667,109
11668,104
11669,101
11670,97
11671,90
11672,82
11673,75
11674,68
11675,64
11676,63
11677,60
11678,55
11679,47
11680,35
11681,20
11682,10
11683,5
11684,3
11685,5
11686,7
11687,8
11688,3
11689,-2
11690,-6
11691,-10
11692,-12
11693,-11
11694,-7
11695,-6
11696,-9
11697,-11
11698,-12
11699,-12
11700,-10
11701,-4
11702,0
11703,-1
11704,-6
11705,-14
11706,-37
11707,-37
11708,-42
11709,-42
11710,-34
11711,-22
11712,-7
11713,5
11714,16
11715,20
11716,22
11717,24
11718,25
11719,26
11720,27
11721,25
11722,25
11723,23
11724,22
11725,24
11726,26
11727,26
11728,27
11729,25
11730,21
11731,17
11732,12
11733,9
11734,9
11735,13
11736,18
11737,21
11738,22
11739,24
11740,27
11741,33
11742,39
11743,44
11744,44
11745,38
11746,30
11747,21
11748,13
11749,12
11750,20
11751,29
11752,40
11753,48
11754,49
11755,46
11756,42
11757,37
11758,37
11759,42
11760,50
11761,59
11762,66
11763,70
11764,70
11765,68
11766,67
11767,65
11768,66
11769,67
11770,62
11771,58
11772,49
11773,38
11774,32
11775,28
11776,26
11777,29
11778,34
11779,38
11780,41
11781,41
11782,41
11783,41
11784,41
11785,45
11786,52
11787,60
11788,66
11789,71
11790,74
11791,69
11792,64
11793,59
11794,55
11795,56
11796,58
11797,61
11798,69
11799,76
11800,84
11801,89
11802,92
11803,89
11804,85
11805,80
11806,75
11807,70
11808,69
11809,72
11810,78
11811,84
11812,88
11813,92
11814,95
11815,92
11816,91
11817,93
11818,94
11819,97
11820,100
11821,100
11822,97
11823,88
11824,80
11825,76
11826,74
11827,76
11828,81
11829,86
11830,86
11831,84
11832,78
11833,73
11834,68
11835,71
11836,75
11837,75
11838,75
11839,76
11840,75
11841,75
11842,77
11843,79
11844,80
11845,77
11846,71
11847,66
11848,62
11849,61
11850,61
11851,62
11852,66
11853,69
11854,73
11855,73
11856,70
11857,70
11858,67
11859,64
11860,65
11861,68
11862,71
11863,78
11864,83
11865,87
11866,85
11867,79
11868,70
11869,60
11870,50
11871,47
11872,48
11873,51
11874,56
11875,61
11876,67
11877,74
11878,78
11879,79
11880,78
11881,77
11882,77
11883,84
11884,99
11885,121
11886,151
11887,185
11888,218
11889,247
11890,266
11891,276
11892,278
11893,273
11894,260
11895,242
11896,215
11897,175
11898,67
11899,6
11900,-52
11901,-103
11902,-143
11903,-171
11904,-184
11905,-186
11906,-176
11907,-157
11908,-132
11909,-99
11910,-61
11911,-26
11912,2
11913,22
11914,31
11915,34
11916,32
11917,28
11918,30
11919,39
11920,56
11921,79
11922,102
11923,120
11924,133
11925,136
11926,130
11927,123
11928,112
11929,90
11930,84
11931,81
11932,84
11933,88
11934,95
11935,103
11936,108
11937,111
11938,112
11939,107
11940,99
11941,92
11942,85
11943,80
11944,78
11945,78
11946,78
11947,77
11948,78
11949,81
11950,88
11951,94
11952,99
11953,102
11954,103
11955,99
11956,93
11957,90
11958,89
11959,94
11960,103
11961,119
11962,118
11963,110
11964,101
11965,96
11966,96
11967,101
11968,109
11969,119
11970,128
11971,129
11972,127
11973,123
11974,120
11975,121
11976,125
11977,130
11978,133
11979,133
11980,129
11981,124
11982,120
11983,119
11984,125
11985,134
11986,144
11987,153
11988,157
11989,154
11990,150
11991,147
11992,145
11993,145
11994,149
11995,156
11996,158
11997,157
11998,155
11999,153
12000,153
12001,155
12002,159
12003,161
12004,160
12005,156
12006,153
12007,151
12008,151
12009,155
12010,164
12011,173
12012,178
12013,176
12014,169
12015,163
12016,157
12017,155
12018,155
12019,157
12020,156
12021,151
12022,140
12023,124
12024,109
12025,96
12026,99
12027,105
12028,106
12029,105
12030,101
12031,94
12032,87
12033,82
12034,79
12035,79
12036,76
12037,68
12038,55
12039,38
12040,23
12041,12
12042,6
12043,5
12044,8
12045,13
12046,16
12047,17
12048,16
12049,13
12050,7
12051,2
12052,-1
12053,-8
12054,-15
12055,-23
12056,-28
12057,-26
12058,-17
12059,-6
12060,1
12061,6
12062,5
12063,2
12064,-3
12065,-7
12066,-11
12067,-7
12068,-2
12069,0
12070,1
12071,-1
12072,-6
12073,-11
12074,-14
12075,-10
12076,-4
12077,1
12078,8
12079,12
12080,12
12081,8
12082,1
12083,-4
12084,-7
12085,-5
12086,-1
12087,2
12088,12
12089,16
12090,22
12091,28
12092,32
12093,35
12094,36
12095,37
12096,36
12097,33
12098,34
12099,40
12100,47
12101,56
12102,62
12103,67
12104,65
12105,60
12106,52
12107,46
12108,41
12109,38
12110,38
12111,39
12112,39
12113,41
12114,44
12115,46
12116,49
12117,53
12118,56
12119,64
12120,66
12121,66
12122,64
12123,60
12124,59
12125,61
12126,66
12127,73
12128,80
12129,87
12130,90
12131,85
12132,76
12133,63
12134,63
12135,49
12136,39
12137,33
12138,31
12139,32
12140,35
12141,39
12142,48
12143,54
12144,60
12145,61
12146,57
12147,48
12148,40
12149,32
12150,32
12151,47
12152,56
12153,63
12154,63
12155,57
12156,47
12157,35
12158,29
12159,28
12160,30
12161,36
12162,41
12163,42
12164,42
12165,45
12166,47
12167,51
12168,57
12169,65
12170,72
12171,77
12172,79
12173,79
12174,78
12175,81
12176,87
12177,96
12178,105
12179,108
12180,103
12181,95
12182,86
12183,89
12184,98
12185,111
12186,125
12187,132
12188,135
12189,135
12190,133
12191,134
12192,143
12193,154
12194,165
12195,167
12196,161
12197,153
12198,144
12199,133
12200,125
12201,117
12202,110
12203,103
12204,95
12205,86
12206,78
12207,71
12208,66
12209,64
12210,63
12211,59
12212,52
12213,44
12214,34
12215,19
12216,17
12217,18
12218,19
12219,22
12220,23
12221,22
12222,21
12223,18
12224,15
12225,15
12226,15
12227,17
12228,19
12229,19
12230,17
12231,18
12232,21
12233,22
12234,24
12235,28
12236,29
12237,31
12238,33
12239,34
12240,34
12241,33
12242,34
12243,42
12244,55
12245,73
12246,94
12247,150
12248,181
12249,212
12250,236
12251,250
12252,258
12253,260
12254,252
12255,230
12256,192
12257,139
12258,76
12259,6
12260,-61
12261,-126
12262,-181
12263,-220
12264,-237
12265,-236
12266,-226
12267,-206
12268,-180
12269,-153
12270,-126
12271,-102
12272,-79
12273,-60
12274,-43
12275,-24
12276,-5
12277,-5
12278,9
12279,27
12280,29
12281,28
12282,25
12283,25
12284,30
12285,39
12286,48
12287,57
12288,58
12289,50
12290,40
12291,27
12292,18
12293,17
12294,25
12295,36
12296,49
12297,59
12298,67
12299,69
12300,67
12301,67
12302,71
12303,72
12304,75
12305,78
12306,78
12307,75
12308,71
12309,66
12310,66
12311,67
12312,70
12313,73
12314,73
12315,71
12316,69
12317,66
12318,62
12319,58
12320,53
12321,50
12322,48
12323,46
12324,47
12325,48
12326,52
12327,55
12328,61
12329,68
12330,75
12331,81
12332,88
12333,93
12334,96
12335,98
12336,99
12337,97
12338,93
12339,87
12340,82
12341,78
12342,82
12343,89
12344,97
12345,103
12346,107
12347,108
12348,106
12349,104
12350,103
12351,105
12352,109
12353,115
12354,118
12355,120
12356,122
12357,119
12358,116
12359,113
12360,111
12361,108
12362,105
12363,101
12364,100
12365,100
12366,104
12367,113
12368,124
12369,132
12370,137
12371,137
12372,133
12373,116
12374,108
12375,101
12376,95
12377,90
12378,83
12379,73
12380,62
12381,53
12382,48
12383,48
12384,54
12385,60
12386,65
12387,67
12388,66
12389,62
12390,55
12391,49
12392,45
12393,42
12394,37
12395,32
12396,24
12397,14
12398,2
12399,-5
12400,-7
12401,-4
12402,0
12403,7
12404,11
12405,3
12406,-3
12407,-8
12408,-12
12409,-15
12410,-16
12411,-16
12412,-17
12413,-19
12414,-23
12415,-22
12416,-19
12417,-15
12418,-8
12419,-8
12420,0
12421,1
12422,1
12423,0
12424,-3
12425,-4
12426,-1
12427,3
12428,10
12429,14
12430,14
12431,10
12432,5
12433,-1
12434,-6
12435,-9
12436,-10
12437,-7
12438,-6
12439,-7
12440,-9
12441,-10
12442,-12
12443,-11
12444,-10
12445,-10
12446,-9
12447,-10
12448,-12
12449,-13
12450,-12
12451,-10
12452,-5
12453,1
12454,6
12455,11
12456,14
12457,17
12458,21
12459,24
12460,29
12461,36
12462,42
12463,44
12464,43
12465,39
12466,35
12467,33
12468,37
12469,50
12470,51
12471,49
12472,43
12473,33
12474,22
12475,15
12476,15
12477,21
12478,32
12479,41
12480,43
12481,39
12482,32
12483,26
12484,21
12485,17
12486,15
12487,18
12488,20
12489,21
12490,20
12491,20
12492,20
12493,25
12494,34
12495,41
12496,45
12497,45
12498,43
12499,41
12500,36
12501,41
12502,47
12503,52
12504,55
12505,55
12506,52
12507,50
12508,48
12509,46
12510,46
12511,46
12512,45
12513,44
12514,42
12515,42
12516,44
12517,50
12518,58
12519,64
12520,66
12521,60
12522,48
12523,36
12524,26
12525,21
12526,20
12527,21
12528,24
12529,26
12530,25
12531,19
12532,12
12533,6
12534,11
12535,19
12536,24
12537,26
12538,27
12539,25
12540,23
12541,25
12542,27
12543,33
12544,41
12545,48
12546,49
12547,49
12548,44
12549,41
12550,41
12551,42
12552,46
12553,47
12554,43
12555,34
12556,24
12557,11
12558,3
12559,3
12560,7
12561,7
12562,14
12563,19
12564,22
12565,21
12566,8
12567,4
12568,5
12569,6
12570,8
12571,11
12572,12
12573,12
12574,14
12575,19
12576,29
12577,43
12578,56
12579,65
12580,68
12581,64
12582,55
12583,43
12584,29
12585,21
12586,16
12587,15
12588,16
12589,17
12590,18
12591,21
12592,26
12593,35
12594,48
12595,60
12596,76
12597,95
12598,133
12599,155
12600,180
12601,208
12602,233
12603,248
12604,251
12605,241
12606,221
12607,196
12608,163
12609,123
12610,81
12611,33
12612,-20
12613,-77
12614,-130
12615,-173
12616,-201
12617,-207
12618,-193
12619,-165
12620,-129
12621,-91
12622,-57
12623,-32
12624,-15
12625,-3
12626,7
12627,17
12628,26
12629,38
12630,66
12631,79
12632,92
12633,104
12634,109
12635,111
12636,111
12637,109
12638,104
12639,99
12640,96
12641,98
12642,105
12643,113
12644,121
12645,126
12646,127
12647,122
12648,114
12649,104
12650,96
12651,90
12652,88
12653,87
12654,86
12655,84
12656,82
12657,82
12658,86
12659,93
12660,103
12661,111
12662,116
12663,108
12664,95
12665,81
12666,68
12667,59
12668,57
12669,60
12670,63
12671,66
12672,66
12673,65
12674,66
12675,71
12676,79
12677,92
12678,102
12679,109
12680,112
12681,108
12682,101
12683,95
12684,91
12685,92
12686,97
12687,102
12688,106
12689,111
12690,114
12691,117
12692,119
12693,120
12694,123
12695,121
12696,117
12697,112
12698,106
12699,102
12700,104
12701,113
12702,124
12703,124
12704,136
12705,147
12706,153
12707,153
12708,146
12709,138
12710,130
12711,126
12712,126
12713,131
12714,140
12715,148
12716,155
12717,163
12718,170
12719,176
12720,178
12721,179
12722,174
12723,167
12724,160
12725,155
12726,155
12727,161
12728,162
12729,158
12730,150
12731,135
12732,119
12733,105
12734,96
12735,90
12736,85
12737,84
12738,81
12739,75
12740,66
12741,55
12742,44
12743,35
12744,29
12745,24
12746,21
12747,19
12748,17
12749,15
12750,10
12751,5
12752,-1
12753,-9
12754,-18
12755,-26
12756,-33
12757,-38
12758,-38
12759,-30
12760,-22
12761,-16
12762,-12
12763,-13
12764,-16
12765,-20
12766,-24
12767,-25
12768,-27
12769,-27
12770,-25
12771,-24
12772,-26
12773,-29
12774,-33
12775,-34
12776,-31
12777,-27
12778,-24
12779,-22
12780,-19
12781,-17
12782,-16
12783,-14
12784,-9
12785,-4
12786,2
12787,7
12788,11
12789,13
12790,17
12791,27
12792,37
12793,48
12794,58
12795,64
12796,64
12797,60
12798,52
12799,47
12800,47
12801,48
12802,51
12803,54
12804,52
12805,48
12806,42
12807,36
12808,33
12809,33
12810,38
12811,43
12812,46
12813,49
12814,51
12815,51
12816,50
12817,52
12818,59
12819,65
12820,70
12821,71
12822,66
12823,61
12824,57
12825,55
12826,54
12827,54
12828,58
12829,65
12830,68
12831,71
12832,74
12833,73
12834,71
12835,72
12836,71
12837,68
12838,66
12839,65
12840,65
12841,66
12842,65
12843,65
12844,64
12845,64
12846,62
12847,62
12848,64
12849,66
12850,65
12851,65
12852,61
12853,55
12854,46
12855,37
12856,22
12857,24
12858,31
12859,40
12860,50
12861,63
12862,76
12863,85
12864,88
12865,86
12866,81
12867,74
12868,69
12869,64
12870,60
12871,58
12872,56
12873,55
12874,56
12875,58
12876,65
12877,73
12878,82
12879,87
12880,85
12881,78
12882,70
12883,63
12884,60
12885,65
12886,79
12887,97
12888,126
12889,133
12890,134
12891,131
12892,127
12893,122
12894,116
12895,111
12896,108
12897,104
12898,100
12899,94
12900,90
12901,87
12902,84
12903,80
12904,77
12905,73
12906,71
12907,73
12908,76
12909,80
12910,84
12911,85
12912,83
12913,78
12914,73
12915,69
12916,65
12917,65
12918,67
12919,69
12920,65
12921,59
12922,55
12923,55
12924,59
12925,68
12926,80
12927,88
12928,94
12929,94
12930,87
12931,76
12932,63
12933,52
12934,46
12935,48
12936,55
12937,68
12938,81
12939,91
12940,96
12941,99
12942,104
12943,113
12944,129
12945,154
12946,185
12947,218
12948,248
12949,266
12950,273
12951,258
12952,238
12953,211
12954,175
12955,129
12956,76
12957,17
12958,-43
12959,-99
12960,-145
12961,-175
12962,-189
12963,-187
12964,-174
12965,-155
12966,-132
12967,-107
12968,-79
12969,-53
12970,-30
12971,-11
12972,8
12973,25
12974,39
12975,48
12976,59
12977,67
12978,69
12979,69
12980,66
12981,60
12982,53
12983,47
12984,50
12985,52
12986,54
12987,57
12988,57
12989,59
12990,63
12991,69
12992,76
12993,86
12994,98
12995,105
12996,108
12997,107
12998,103
12999,97
13000,91
13001,89
13002,94
13003,98
13004,98
13005,97
13006,90
13007,79
13008,72
13009,69
13010,69
13011,71
13012,74
13013,73
13014,67
13015,57
13016,41
13017,40
13018,46
13019,61
13020,77
13021,92
13022,99
13023,101
13024,94
13025,86
13026,78
13027,73
13028,70
13029,66
13030,63
13031,60
13032,60
13033,62
13034,68
13035,77
13036,89
13037,101
13038,107
13039,106
13040,101
13041,96
13042,93
13043,97
13044,104
13045,108
13046,107
13047,102
13048,84
13049,77
13050,74
13051,77
13052,86
13053,94
13054,102
13055,107
13056,110
13057,111
13058,113
13059,115
13060,117
13061,118
13062,117
13063,118
13064,119
13065,120
13066,121
13067,121
13068,121
13069,120
13070,119
13071,117
13072,114
13073,113
13074,115
13075,117
13076,119
13077,118
13078,114
13079,95
13080,84
13081,72
13082,63
13083,60
13084,60
13085,65
13086,68
13087,69
13088,67
13089,62
13090,56
13091,52
13092,49
13093,46
13094,44
13095,45
13096,45
13097,43
13098,39
13099,36
13100,34
13101,35
13102,38
13103,42
13104,43
13105,40
13106,35
13107,32
13108,30
13109,31
13110,33
13111,48
13112,50
13113,47
13114,42
13115,36
13116,31
13117,28
13118,30
13119,33
13120,35
13121,33
13122,32
13123,29
13124,25
13125,24
13126,27
13127,34
13128,42
13129,47
13130,47
13131,49
13132,49
13133,50
13134,53
13135,58
13136,62
13137,66
13138,67
13139,62
13140,53
13141,46
13142,40
13143,40
13144,49
13145,60
13146,69
13147,75
13148,79
13149,81
13150,83
13151,84
13152,83
13153,77
13154,66
13155,52
13156,37
13157,26
13158,23
13159,24
13160,28
13161,37
13162,47
13163,49
13164,42
13165,34
13166,28
13167,25
13168,25
13169,30
13170,42
13171,52
13172,59
13173,62
13174,61
13175,56
13176,54
13177,57
13178,61
13179,64
13180,67
13181,70
13182,71
13183,69
13184,66
13185,64
13186,64
13187,64
13188,65
13189,71
13190,81
13191,91
13192,103
13193,116
13194,125
13195,124
13196,114
13197,101
13198,85
13199,71
13200,63
13201,62
13202,70
13203,80
13204,87
13205,90
13206,76
13207,67
13208,62
13209,60
13210,59
13211,54
13212,49
13213,41
13214,33
13215,25
13216,23
13217,28
13218,38
13219,52
13220,62
13221,67
13222,65
13223,58
13224,52
13225,49
13226,50
13227,55
13228,64
13229,70
13230,72
13231,69
13232,63
13233,58
13234,59
13235,66
13236,78
13237,99
13238,100
13239,97
13240,86
13241,75
13242,68
13243,66
13244,72
13245,81
13246,86
13247,85
13248,81
13249,72
13250,60
13251,50
13252,44
13253,39
13254,37
13255,37
13256,34
13257,31
13258,27
13259,25
13260,29
13261,34
13262,40
13263,46
13264,51
13265,53
13266,51
13267,53
13268,56
13269,67
13270,71
13271,69
13272,69
13273,65
13274,59
13275,58
13276,62
13277,71
13278,82
13279,93
13280,98
13281,98
13282,94
13283,86
13284,78
13285,72
13286,69
13287,69
13288,67
13289,64
13290,64
13291,69
13292,78
13293,95
13294,119
13295,147
13296,178
13297,206
13298,234
13299,264
13300,289
13301,309
13302,331
13303,323
13304,301
13305,263
13306,214
13307,154
13308,85
13309,19
13310,-40
13311,-96
13312,-143
13313,-177
13314,-195
13315,-198
13316,-189
13317,-169
13318,-140
13319,-107
13320,-72
13321,-41
13322,-14
13323,6
13324,21
13325,35
13326,50
13327,62
13328,73
13329,82
13330,87
13331,88
13332,92
13333,94
13334,107
13335,118
13336,128
13337,137
13338,138
13339,134
13340,129
13341,123
13342,120
13343,121
13344,124
13345,125
13346,126
13347,123
13348,119
13349,116
13350,116
13351,120
13352,128
13353,136
13354,141
13355,140
13356,136
13357,130
13358,122
13359,116
13360,111
13361,109
13362,107
13363,104
13364,102
13365,100
13366,95
13367,91
13368,92
13369,91
13370,92
13371,91
13372,92
13373,94
13374,100
13375,108
13376,118
13377,126
13378,132
13379,135
13380,131
13381,123
13382,113
13383,104
13384,99
13385,100
13386,104
13387,107
13388,108
13389,108
13390,107
13391,106
13392,108
13393,115
13394,122
13395,125
13396,126
13397,124
13398,107
13399,99
13400,98
13401,101
13402,107
13403,113
13404,117
13405,116
13406,114
13407,113
13408,113
13409,117
13410,120
13411,126
13412,131
13413,133
13414,133
13415,131
13416,125
13417,119
13418,118
13419,120
13420,126
13421,135
13422,142
13423,147
13424,149
13425,148
13426,146
13427,144
13428,139
13429,137
13430,134
13431,123
13432,119
13433,118
13434,121
13435,123
13436,124
13437,121
13438,111
13439,98
13440,85
13441,75
13442,69
13443,68
13444,72
13445,74
13446,72
13447,63
13448,54
13449,46
13450,40
13451,40
13452,44
13453,51
13454,56
13455,57
13456,54
13457,45
13458,36
13459,30
13460,27
13461,27
13462,25
13463,24
13464,22
13465,20
13466,18
13467,15
13468,14
13469,18
13470,23
13471,28
13472,32
13473,32
13474,34
13475,36
13476,35
13477,33
13478,31
13479,27
13480,24
13481,20
13482,13
13483,7
13484,2
13485,0
13486,2
13487,6
13488,9
13489,10
13490,10
13491,9
13492,6
13493,3
13494,1
13495,3
13496,2
13497,0
13498,-1
13499,-1
13500,0
13501,5
13502,16
13503,27
13504,36
13505,43
13506,43
13507,33
13508,23
13509,13
13510,3
13511,-4
13512,-10
13513,-15
13514,-15
13515,-14
13516,-10
13517,-3
13518,2
13519,5
13520,8
13521,6
13522,0
13523,-10
13524,-19
13525,-21
13526,-8
13527,2
13528,13
13529,21
13530,22
13531,17
13532,12
13533,7
13534,0
13535,-2
13536,-6
13537,-10
13538,-18
13539,-25
13540,-27
13541,-25
13542,-17
13543,-3
13544,13
13545,25
13546,30
13547,27
13548,19
13549,12
13550,10
13551,14
13552,24
13553,34
13554,43
13555,48
13556,49
13557,47
13558,41
13559,35
13560,31
13561,30
13562,31
13563,32
13564,35
13565,34
13566,31
13567,28
13568,26
13569,27
13570,31
13571,37
13572,44
13573,48
13574,47
13575,43
13576,37
13577,33
13578,32
13579,37
13580,47
13581,59
13582,69
13583,71
13584,70
13585,65
13586,55
13587,47
13588,38
13589,39
13590,42
13591,46
13592,51
13593,56
13594,60
13595,62
13596,60
13597,55
13598,52
13599,49
13600,47
13601,50
13602,58
13603,67
13604,73
13605,75
13606,71
13607,60
13608,46
13609,33
13610,26
13611,25
13612,31
13613,41
13614,55
13615,64
13616,69
13617,75
13618,81
13619,86
13620,87
13621,87
13622,86
13623,82
13624,77
13625,74
13626,73
13627,73
13628,74
13629,73
13630,68
13631,64
13632,61
13633,60
13634,60
13635,60
13636,62
13637,62
13638,60
13639,59
13640,59
13641,59
13642,61
13643,67
13644,76
13645,84
13646,89
13647,96
13648,104
13649,116
13650,154
13651,183
13652,216
13653,252
13654,286
13655,312
13656,321
13657,319
13658,307
13659,287
13660,259
13661,221
13662,172
13663,113
13664,46
13665,-25
13666,-95
13667,-154
13668,-195
13669,-217
13670,-219
13671,-211
13672,-199
13673,-182
13674,-161
13675,-139
13676,-112
13677,-84
13678,-58
13679,-34
13680,-18
13681,-11
13682,-5
13683,-5
13684,-1
13685,4
13686,8
13687,13
13688,18
13689,21
13690,24
13691,24
13692,22
13693,19
13694,18
13695,15
13696,15
13697,16
13698,16
13699,16
13700,16
13701,17
13702,15
13703,15
13704,12
13705,7
13706,0
13707,-3
13708,-9
13709,-12
13710,-12
13711,-11
13712,-8
13713,-5
13714,-4
13715,2
13716,5
13717,11
13718,20
13719,27
13720,31
13721,29
13722,24
13723,18
13724,10
13725,3
13726,2
13727,7
13728,14
13729,24
13730,36
13731,46
13732,50
13733,46
13734,39
13735,28
13736,14
13737,1
13738,-5
13739,-6
13740,-3
13741,2
13742,8
13743,13
13744,15
13745,16
13746,15
13747,17
13748,22
13749,30
13750,41
13751,55
13752,66
13753,73
13754,75
13755,73
13756,73
13757,76
13758,83
13759,95
13760,106
13761,114
13762,117
13763,114
13764,104
13765,91
13766,79
13767,73
13768,74
13769,82
13770,94
13771,108
13772,116
13773,120
13774,119
13775,113
13776,104
13777,98
13778,92
13779,93
13780,95
13781,99
13782,100
13783,98
13784,97
13785,94
13786,90
13787,83
13788,78
13789,70
13790,61
13791,55
13792,52
13793,53
13794,55
13795,57
13796,60
13797,60
13798,57
13799,56
13800,55
13801,54
13802,52
13803,51
13804,44
13805,36
13806,25
13807,13
13808,4
13809,10
13810,23
13811,32
13812,36
13813,34
13814,25
13815,13
13816,7
13817,5
13818,7
13819,11
13820,17
13821,18
13822,13
13823,3
13824,-5
13825,-8
13826,-2
13827,12
13828,30
13829,45
13830,52
13831,53
13832,46
13833,36
13834,27
13835,19
13836,17
13837,20
13838,27
13839,33
13840,36
13841,36
13842,38
13843,42
13844,46
13845,52
13846,60
13847,64
13848,67
13849,67
13850,66
13851,66
13852,67
13853,68
13854,70
13855,71
13856,67
13857,61
13858,57
13859,54
13860,56
13861,58
13862,61
13863,69
13864,75
13865,77
13866,76
13867,72
13868,66
13869,57
13870,47
13871,41
13872,34
13873,36
13874,40
13875,44
13876,47
13877,50
13878,51
13879,50
13880,47
13881,42
13882,37
13883,31
13884,27
13885,30
13886,37
13887,46
13888,54
13889,56
13890,54
13891,49
13892,44
13893,43
13894,45
13895,48
13896,53
13897,54
13898,49
13899,44
13900,35
13901,28
13902,25
13903,23
13904,22
13905,18
13906,13
13907,13
13908,16
13909,25
13910,37
13911,43
13912,44
13913,41
13914,32
13915,21
13916,13
13917,10
13918,15
13919,25
13920,32
13921,38
13922,40
13923,37
13924,36
13925,40
13926,44
13927,50
13928,57
13929,61
13930,57
13931,48
13932,36
13933,23
13934,14
13935,17
13936,27
13937,38
13938,49
13939,57
13940,61
13941,62
13942,62
13943,61
13944,60
13945,59
13946,58
13947,57
13948,56
13949,56
13950,59
13951,62
13952,65
13953,69
13954,74
13955,76
13956,78
13957,78
13958,76
13959,73
13960,67
13961,59
13962,50
13963,40
13964,30
13965,26
13966,24
13967,30
13968,38
13969,43
13970,49
13971,56
13972,58
13973,59
13974,62
13975,63
13976,64
13977,67
13978,68
13979,67
13980,68
13981,68
13982,68
13983,68
13984,68
13985,69
13986,69
13987,69
13988,68
13989,64
13990,60
13991,56
13992,51
13993,49
13994,50
13995,48
13996,48
13997,51
13998,54
13999,72
14000,85
14001,104
14002,126
14003,151
14004,177
14005,205
14006,233
14007,259
14008,276
14009,285
14010,288
14011,282
14012,270
14013,246
14014,210
14015,163
14016,105
14017,42
14018,-19
14019,-77
14020,-123
14021,-152
14022,-165
14023,-162
14024,-150
14025,-133
14026,-114
14027,-89
14028,-60
14029,-30
14030,-1
14031,43
14032,57
14033,65
