,ECG
0,32448
1,32512
2,32448
3,32512
4,32576
5,32640
6,32576
7,32576
8,32640
9,32704
10,32640
11,32640
12,32704
13,32768
14,32768
15,32768
16,32832
17,32832
18,32832
19,32768
20,32768
21,32832
22,32832
23,32768
24,32768
25,32768
26,32768
27,32704
28,32704
29,32768
30,32768
31,32704
32,32704
33,32704
34,32704
35,32704
36,32640
37,32640
38,32640
39,32640
40,32576
41,32576
42,32640
43,32640
44,32640
45,32640
46,32704
47,32640
48,32576
49,32576
50,32576
51,32576
52,32640
53,32640
54,32704
55,32704
56,32704
57,32704
58,32640
59,32640
60,32640
61,32640
62,32704
63,32704
64,32640
65,32640
66,32576
67,32640
68,32576
69,32576
70,32576
71,32576
72,32576
73,32576
74,32576
75,32704
76,32768
77,32704
78,32768
79,32896
80,33024
81,33088
82,33088
83,33024
84,32896
85,32768
86,32640
87,32512
88,32448
89,32384
90,32320
91,32384
92,32512
93,32512
94,32512
95,32512
96,32576
97,32576
98,32640
99,32704
100,32704
101,32704
102,32704
103,32704
104,32704
105,32704
106,32768
107,33088
108,33600
109,34304
110,35200
111,36352
112,37248
113,36992
114,35584
115,33728
116,32000
117,30720
118,29888
119,29568
120,29696
121,30272
122,30912
123,31488
124,32000
125,32512
126,32768
127,32960
128,33024
129,33152
130,33216
131,33216
132,33216
133,33216
134,33152
135,33024
136,32896
137,32832
138,32832
139,32768
140,32768
141,32832
142,32832
143,32768
144,32768
145,32768
146,32896
147,32896
148,32768
149,32768
150,32832
151,32832
152,32832
153,32896
154,32960
155,33024
156,32960
157,33024
158,33024
159,33088
160,33152
161,33216
162,33216
163,33280
164,33216
165,33216
166,33280
167,33344
168,33344
169,33344
170,33344
171,33344
172,33344
173,33216
174,33216
175,33216
176,33152
177,33088
178,33024
179,32960
180,32896
181,32768
182,32704
183,32640
184,32576
185,32512
186,32448
187,32384
188,32320
189,32256
190,32256
191,32256
192,32320
193,32320
194,32320
195,32384
196,32512
197,32512
198,32512
199,32576
200,32704
201,32704
202,32704
203,32640
204,32704
205,32704
206,32704
207,32704
208,32768
209,32768
210,32704
211,32704
212,32704
213,32768
214,32768
215,32768
216,32768
217,32768
218,32768
219,32704
220,32704
221,32704
222,32768
223,32704
224,32704
225,32704
226,32640
227,32640
228,32576
229,32640
230,32704
231,32704
232,32640
233,32640
234,32640
235,32576
236,32576
237,32640
238,32640
239,32640
240,32512
241,32512
242,32576
243,32512
244,32512
245,32576
246,32576
247,32640
248,32704
249,32704
250,32704
251,32704
252,32640
253,32576
254,32640
255,32640
256,32640
257,32576
258,32640
259,32704
260,32640
261,32576
262,32576
263,32640
264,32640
265,32576
266,32576
267,32576
268,32576
269,32576
270,32576
271,32576
272,32640
273,32704
274,32832
275,32960
276,33024
277,33024
278,32960
279,32896
280,32832
281,32704
282,32640
283,32512
284,32448
285,32448
286,32448
287,32448
288,32448
289,32448
290,32448
291,32512
292,32576
293,32576
294,32640
295,32640
296,32704
297,32704
298,32704
299,32704
300,32832
301,32896
302,32960
303,33216
304,33728
305,34624
306,35520
307,36672
308,37248
309,36544
310,34944
311,33152
312,31552
313,30464
314,29824
315,29632
316,29888
317,30464
318,31104
319,31616
320,32128
321,32576
322,32832
323,33024
324,33088
325,33216
326,33280
327,33280
328,33280
329,33152
330,33088
331,32960
332,32896
333,32896
334,32832
335,32768
336,32704
337,32704
338,32768
339,32768
340,32832
341,32832
342,32960
343,32960
344,32832
345,32768
346,32832
347,32832
348,32896
349,32960
350,33024
351,33024
352,33088
353,33088
354,33152
355,33216
356,33216
357,33216
358,33216
359,33280
360,33344
361,33344
362,33344
363,33408
364,33408
365,33408
366,33344
367,33344
368,33280
369,33152
370,33152
371,33152
372,33152
373,33088
374,33024
375,33024
376,32960
377,32896
378,32768
379,32640
380,32576
381,32512
382,32512
383,32576
384,32512
385,32384
386,32320
387,32256
388,32320
389,32320
390,32320
391,32384
392,32512
393,32576
394,32576
395,32640
396,32704
397,32704
398,32704
399,32704
400,32768
401,32832
402,32768
403,32768
404,32768
405,32832
406,32832
407,32832
408,32832
409,32832
410,32768
411,32704
412,32704
413,32768
414,32704
415,32640
416,32704
417,32704
418,32768
419,32704
420,32704
421,32768
422,32832
423,32768
424,32704
425,32704
426,32704
427,32640
428,32640
429,32640
430,32704
431,32704
432,32576
433,32576
434,32640
435,32640
436,32640
437,32640
438,32640
439,32640
440,32640
441,32640
442,32640
443,32640
444,32640
445,32576
446,32640
447,32640
448,32640
449,32640
450,32704
451,32640
452,32576
453,32576
454,32576
455,32640
456,32640
457,32576
458,32576
459,32640
460,32704
461,32768
462,32896
463,33024
464,33152
465,33152
466,33024
467,32960
468,32768
469,32576
470,32448
471,32448
472,32384
473,32384
474,32384
475,32448
476,32448
477,32448
478,32512
479,32512
480,32576
481,32576
482,32640
483,32704
484,32704
485,32768
486,32768
487,32768
488,32768
489,32896
490,33216
491,33664
492,34368
493,35200
494,36160
495,36736
496,35968
497,34496
498,32960
499,31552
500,30528
501,30144
502,30016
503,30272
504,30720
505,31296
506,31872
507,32384
508,32768
509,32960
510,33088
511,33152
512,33216
513,33216
514,33216
515,33152
516,33024
517,33024
518,33024
519,32896
520,32832
521,32768
522,32768
523,32768
524,32704
525,32768
526,32832
527,32832
528,32832
529,32832
530,32896
531,32896
532,32896
533,32896
534,32896
535,32896
536,32896
537,32896
538,33024
539,33088
540,33088
541,33152
542,33152
543,33216
544,33152
545,33216
546,33216
547,33216
548,33280
549,33280
550,33344
551,33408
552,33344
553,33344
554,33344
555,33344
556,33280
557,33216
558,33216
559,33152
560,33088
561,32960
562,32832
563,32832
564,32768
565,32704
566,32640
567,32640
568,32576
569,32512
570,32512
571,32512
572,32448
573,32384
574,32320
575,32384
576,32448
577,32448
578,32512
579,32576
580,32640
581,32704
582,32768
583,32704
584,32768
585,32768
586,32704
587,32704
588,32768
589,32768
590,32768
591,32768
592,32832
593,32960
594,32896
595,32832
596,32832
597,32832
598,32832
599,32768
600,32768
601,32768
602,32768
603,32768
604,32768
605,32768
606,32768
607,32704
608,32704
609,32704
610,32704
611,32640
612,32640
613,32704
614,32704
615,32704
616,32704
617,32704
618,32704
619,32640
620,32704
621,32704
622,32768
623,32704
624,32640
625,32640
626,32640
627,32640
628,32576
629,32640
630,32704
631,32704
632,32704
633,32704
634,32704
635,32704
636,32640
637,32576
638,32576
639,32576
640,32576
641,32576
642,32640
643,32640
644,32640
645,32704
646,32960
647,33088
648,33152
649,33088
650,33088
651,33024
652,32896
653,32768
654,32640
655,32512
656,32448
657,32384
658,32384
659,32384
660,32384
661,32384
662,32512
663,32576
664,32576
665,32576
666,32576
667,32640
668,32704
669,32704
670,32704
671,32704
672,32704
673,32832
674,33088
675,33600
676,34240
677,35072
678,35968
679,36864
680,36288
681,35200
682,33664
683,32064
684,30912
685,30144
686,29824
687,29888
688,30336
689,30976
690,31488
691,32064
692,32448
693,32768
694,32960
695,33088
696,33152
697,33216
698,33152
699,33088
700,33088
701,33088
702,33024
703,32896
704,32832
705,32832
706,32832
707,32768
708,32768
709,32768
710,32768
711,32768
712,32768
713,32832
714,32896
715,32832
716,32768
717,32832
718,32832
719,32832
720,32896
721,32960
722,32960
723,32960
724,32960
725,33024
726,33024
727,33088
728,33088
729,33088
730,33216
731,33280
732,33280
733,33344
734,33408
735,33408
736,33408
737,33408
738,33408
739,33408
740,33344
741,33216
742,33152
743,33088
744,32960
745,32896
746,32896
747,32896
748,32768
749,32640
750,32576
751,32576
752,32512
753,32384
754,32320
755,32384
756,32320
757,32320
758,32320
759,32384
760,32384
761,32384
762,32448
763,32512
764,32576
765,32576
766,32576
767,32576
768,32640
769,32640
770,32704
771,32704
772,32704
773,32704
774,32704
775,32704
776,32768
777,32768
778,32768
779,32768
780,32832
781,32832
782,32832
783,32768
784,32704
785,32704
786,32640
787,32640
788,32640
789,32640
790,32640
791,32704
792,32704
793,32704
794,32640
795,32640
796,32640
797,32640
798,32640
799,32576
800,32640
801,32704
802,32704
803,32576
804,32576
805,32576
806,32576
807,32576
808,32576
809,32576
810,32640
811,32576
812,32640
813,32704
814,32640
815,32640
816,32576
817,32576
818,32576
819,32576
820,32576
821,32576
822,32640
823,32640
824,32576
825,32576
826,32640
827,32640
828,32576
829,32512
830,32576
831,32576
832,32576
833,32640
834,32832
835,32960
836,33024
837,33088
838,33024
839,32960
840,32768
841,32640
842,32576
843,32512
844,32448
845,32384
846,32320
847,32384
848,32384
849,32384
850,32384
851,32448
852,32512
853,32512
854,32576
855,32640
856,32704
857,32704
858,32704
859,32704
860,32768
861,32832
862,32960
863,33408
864,34112
865,34944
866,36032
867,37056
868,36992
869,35712
870,33920
871,32192
872,30848
873,29952
874,29504
875,29760
876,30784
877,31360
878,31872
879,32384
880,32704
881,32896
882,33024
883,33152
884,33216
885,33216
886,33152
887,33152
888,33088
889,32960
890,32896
891,32896
892,32832
893,32832
894,32832
895,32768
896,32768
897,32704
898,32704
899,32768
900,32704
901,32768
902,32832
903,32768
904,32832
905,32768
906,32832
907,32896
908,32960
909,33024
910,33024
911,33024
912,33024
913,33088
914,33088
915,33088
916,33216
917,33152
918,33216
919,33216
920,33152
921,33216
922,33344
923,33280
924,33280
925,33280
926,33280
927,33216
928,33152
929,33152
930,33152
931,33152
932,33088
933,32960
934,32832
935,32768
936,32640
937,32576
938,32576
939,32448
940,32448
941,32448
942,32448
943,32384
944,32320
945,32320
946,32320
947,32320
948,32320
949,32384
950,32384
951,32448
952,32512
953,32512
954,32576
955,32640
956,32640
957,32640
958,32704
959,32768
960,32768
961,32768
962,32768
963,32704
964,32704
965,32640
966,32704
967,32768
968,32768
969,32768
970,32832
971,32832
972,32704
973,32704
974,32640
975,32640
976,32704
977,32640
978,32640
979,32640
980,32576
981,32576
982,32640
983,32640
984,32640
985,32576
986,32576
987,32512
988,32576
989,32576
990,32576
991,32576
992,32640
993,32640
994,32704
995,32640
996,32704
997,32640
998,32512
999,32512
1000,32512
1001,32512
1002,32512
1003,32576
1004,32576
1005,32640
1006,32640
1007,32640
1008,32640
1009,32640
1010,32640
1011,32576
1012,32576
1013,32576
1014,32512
1015,32576
1016,32576
1017,32640
1018,32576
1019,32576
1020,32640
1021,32704
1022,32704
1023,32640
1024,32768
1025,32704
1026,32832
1027,32896
1028,32960
1029,33024
1030,32960
1031,32832
1032,32704
1033,32576
1034,32512
1035,32384
1036,32320
1037,32384
1038,32384
1039,32448
1040,32448
1041,32448
1042,32448
1043,32512
1044,32512
1045,32576
1046,32576
1047,32640
1048,32640
1049,32640
1050,32576
1051,32576
1052,32640
1053,32768
1054,33344
1055,33344
1056,34368
1057,35328
1058,36480
1059,37248
1060,36608
1061,35136
1062,33344
1063,31744
1064,30464
1065,29760
1066,29568
1067,29824
1068,30336
1069,31232
1070,31296
1071,32128
1072,32576
1073,32832
1074,32960
1075,33088
1076,33152
1077,33152
1078,33216
1079,33216
1080,33088
1081,33024
1082,32896
1083,32832
1084,32832
1085,32768
1086,32768
1087,32832
1088,32832
1089,32832
1090,32832
1091,32832
1092,32768
1093,32768
1094,32768
1095,32704
1096,32768
1097,32832
1098,32768
1099,32768
1100,32832
1101,32896
1102,32960
1103,32960
1104,33024
1105,33088
1106,33152
1107,33152
1108,33216
1109,33216
1110,33280
1111,33280
1112,33280
1113,33344
1114,33408
1115,33344
1116,33344
1117,33344
1118,33408
1119,33344
1120,33216
1121,33152
1122,33088
1123,33024
1124,33024
1125,32960
1126,32896
1127,32832
1128,32704
1129,32704
1130,32640
1131,32640
1132,32576
1133,32512
1134,32512
1135,32448
1136,32384
1137,32320
1138,32384
1139,32384
1140,32384
1141,32384
1142,32384
1143,32448
1144,32512
1145,32512
1146,32576
1147,32640
1148,32640
1149,32704
1150,32704
1151,32704
1152,32704
1153,32704
1154,32768
1155,32768
1156,32704
1157,32704
1158,32704
1159,32832
1160,32832
1161,32768
1162,32768
1163,32768
1164,32768
1165,32704
1166,32768
1167,32768
1168,32768
1169,32704
1170,32704
1171,32704
1172,32704
1173,32704
1174,32704
1175,32640
1176,32704
1177,32640
1178,32640
1179,32640
1180,32640
1181,32576
1182,32512
1183,32576
1184,32640
1185,32640
1186,32576
1187,32640
1188,32704
1189,32640
1190,32576
1191,32512
1192,32576
1193,32640
1194,32640
1195,32640
1196,32704
1197,32704
1198,32640
1199,32576
1200,32576
1201,32576
1202,32576
1203,32576
1204,32576
1205,32640
1206,32704
1207,32832
1208,33024
1209,33088
1210,33152
1211,33088
1212,32960
1213,32896
1214,32768
1215,32576
1216,32512
1217,32448
1218,32384
1219,32384
1220,32320
1221,32384
1222,32448
1223,32512
1224,32576
1225,32576
1226,32640
1227,32640
1228,32640
1229,32704
1230,32768
1231,32704
1232,32576
1233,32576
1234,32704
1235,32960
1236,33344
1237,33856
1238,34496
1239,35328
1240,36352
1241,36608
1242,35648
1243,34112
1244,32640
1245,31296
1246,30336
1247,30016
1248,29952
1249,30272
1250,30848
1251,31488
1252,32064
1253,32448
1254,32768
1255,33024
1256,33152
1257,33152
1258,33216
1259,33152
1260,33152
1261,33088
1262,33024
1263,32960
1264,32832
1265,32832
1266,32832
1267,32896
1268,32832
1269,32768
1270,32768
1271,32768
1272,32768
1273,32768
1274,32832
1275,32896
1276,32896
1277,32896
1278,32896
1279,32960
1280,33024
1281,32960
1282,32896
1283,32896
1284,33024
1285,33024
1286,33024
1287,33088
1288,33152
1289,33216
1290,33152
1291,33152
1292,33216
1293,33280
1294,33344
1295,33408
1296,33408
1297,33408
1298,33344
1299,33280
1300,33280
1301,33280
1302,33216
1303,33152
1304,33152
1305,33152
1306,33088
1307,32960
1308,32896
1309,32832
1310,32704
1311,32640
1312,32576
1313,32576
1314,32576
1315,32512
1316,32448
1317,32512
1318,32512
1319,32384
1320,32384
1321,32384
1322,32384
1323,32384
1324,32448
1325,32576
1326,32640
1327,32640
1328,32640
1329,32704
1330,32704
1331,32704
1332,32704
1333,32768
1334,32832
1335,32768
1336,32768
1337,32768
1338,32768
1339,32768
1340,32768
1341,32768
1342,32768
1343,32768
1344,32768
1345,32832
1346,32896
1347,32832
1348,32704
1349,32704
1350,32704
1351,32704
1352,32704
1353,32704
1354,32704
1355,32704
1356,32640
1357,32640
1358,32640
1359,32640
1360,32704
1361,32704
1362,32640
1363,32640
1364,32640
1365,32576
1366,32576
1367,32576
1368,32640
1369,32640
1370,32640
1371,32640
1372,32640
1373,32640
1374,32640
1375,32640
1376,32640
1377,32640
1378,32640
1379,32640
1380,32704
1381,32704
1382,32640
1383,32640
1384,32768
1385,32896
1386,33024
1387,33088
1388,33152
1389,33024
1390,32896
1391,32768
1392,32704
1393,32640
1394,32512
1395,32448
1396,32448
1397,32448
1398,32448
1399,32448
1400,32512
1401,32512
1402,32512
1403,32512
1404,32576
1405,32640
1406,32704
1407,32640
1408,32704
1409,32768
1410,32768
1411,32768
1412,32896
1413,33280
1414,33792
1415,34432
1416,35264
1417,36288
1418,36800
1419,36032
1420,34560
1421,33024
1422,31616
1423,30592
1424,29952
1425,29824
1426,30144
1427,30592
1428,31168
1429,31744
1430,32320
1431,32640
1432,32896
1433,33024
1434,33152
1435,33216
1436,33152
1437,33152
1438,33152
1439,33088
1440,32960
1441,32960
1442,32960
1443,32896
1444,32832
1445,32768
1446,32768
1447,32768
1448,32768
1449,32704
1450,32768
1451,32768
1452,32768
1453,32768
1454,32896
1455,32896
1456,32960
1457,32960
1458,32960
1459,32960
1460,33024
1461,33024
1462,33024
1463,33088
1464,33088
1465,33088
1466,33088
1467,33216
1468,33280
1469,33280
1470,33280
1471,33344
1472,33344
1473,33344
1474,33280
1475,33344
1476,33344
1477,33280
1478,33280
1479,33280
1480,33280
1481,33216
1482,33088
1483,33024
1484,32960
1485,32896
1486,32832
1487,32768
1488,32704
1489,32640
1490,32512
1491,32448
1492,32448
1493,32384
1494,32320
1495,32320
1496,32320
1497,32320
1498,32320
1499,32320
1500,32384
1501,32448
1502,32448
1503,32512
1504,32576
1505,32640
1506,32704
1507,32704
1508,32768
1509,32768
1510,32832
1511,32768
1512,32704
1513,32768
1514,32768
1515,32768
1516,32768
1517,32832
1518,32832
1519,32832
1520,32832
1521,32832
1522,32768
1523,32768
1524,32768
1525,32768
1526,32768
1527,32704
1528,32640
1529,32576
1530,32576
1531,32576
1532,32512
1533,32576
1534,32576
1535,32576
1536,32576
1537,32640
1538,32640
1539,32704
1540,32640
1541,32576
1542,32576
1543,32576
1544,32640
1545,32640
1546,32704
1547,32640
1548,32576
1549,32512
1550,32512
1551,32576
1552,32576
1553,32576
1554,32640
1555,32640
1556,32640
1557,32576
1558,32576
1559,32576
1560,32576
1561,32576
1562,32576
1563,32576
1564,32576
1565,32640
1566,32640
1567,32768
1568,32896
1569,32896
1570,32896
1571,32960
1572,33024
1573,32896
1574,32768
1575,32640
1576,32576
1577,32448
1578,32320
1579,32256
1580,32320
1581,32320
1582,32384
1583,32384
1584,32448
1585,32512
1586,32512
1587,32512
1588,32576
1589,32640
1590,32640
1591,32640
1592,32576
1593,32640
1594,32576
1595,32640
1596,32896
1597,33344
1598,33984
1599,34816
1600,35904
1601,36992
1602,36992
1603,35712
1604,33984
1605,32256
1606,30848
1607,29824
1608,29504
1609,29504
1610,29952
1611,30528
1612,31168
1613,31744
1614,32192
1615,32512
1616,32640
1617,32832
1618,32960
1619,33024
1620,32960
1621,32960
1622,32896
1623,32832
1624,32768
1625,32704
1626,32704
1627,32704
1628,32640
1629,32640
1630,32640
1631,32640
1632,32576
1633,32576
1634,32704
1635,32704
1636,32704
1637,32704
1638,32704
1639,32768
1640,32704
1641,32640
1642,32704
1643,32704
1644,32768
1645,32768
1646,32832
1647,32896
1648,32960
1649,32960
1650,33024
1651,33088
1652,33152
1653,33152
1654,33216
1655,33280
1656,33280
1657,33216
1658,33280
1659,33280
1660,33216
1661,33152
1662,33088
1663,33088
1664,33088
1665,33088
1666,32960
1667,32960
1668,32896
1669,32768
1670,32640
1671,32640
1672,32576
1673,32512
1674,32448
1675,32384
1676,32320
1677,32320
1678,32256
1679,32256
1680,32256
1681,32320
1682,32384
1683,32384
1684,32448
1685,32512
1686,32448
1687,32512
1688,32512
1689,32576
1690,32640
1691,32640
1692,32704
1693,32704
1694,32768
1695,32768
1696,32768
1697,32832
1698,32832
1699,32768
1700,32704
1701,32768
1702,32768
1703,32768
1704,32768
1705,32768
1706,32768
1707,32704
1708,32704
1709,32768
1710,32768
1711,32768
1712,32768
1713,32768
1714,32768
1715,32768
1716,32704
1717,32640
1718,32640
1719,32640
1720,32640
1721,32576
1722,32640
1723,32640
1724,32640
1725,32704
1726,32768
1727,32768
1728,32704
1729,32704
1730,32768
1731,32768
1732,32704
1733,32704
1734,32704
1735,32704
1736,32640
1737,32640
1738,32704
1739,32768
1740,32768
1741,32768
1742,32704
1743,32704
1744,32640
1745,32576
1746,32576
1747,32640
1748,32640
1749,32640
1750,32704
1751,32768
1752,32896
1753,32960
1754,33024
1755,33152
1756,33216
1757,33152
1758,33024
1759,32960
1760,32832
1761,32640
1762,32512
1763,32512
1764,32512
1765,32512
1766,32512
1767,32512
1768,32576
1769,32576
1770,32512
1771,32576
1772,32704
1773,32768
1774,32704
1775,32640
1776,32704
1777,32704
1778,32640
1779,32640
1780,32768
1781,33024
1782,33408
1783,34048
1784,34880
1785,35968
1786,37056
1787,37312
1788,36352
1789,34688
1790,32832
1791,31232
1792,30208
1793,29760
1794,29760
1795,30080
1796,30592
1797,31296
1798,31936
1799,32320
1800,32640
1801,32960
1802,33152
1803,33216
1804,33280
1805,33344
1806,33280
1807,33216
1808,33088
1809,33024
1810,32960
1811,32896
1812,32896
1813,32896
1814,32896
1815,32896
1816,32896
1817,32896
1818,32896
1819,32896
1820,32896
1821,32960
1822,33024
1823,33024
1824,32960
1825,32960
1826,32960
1827,33024
1828,33088
1829,33152
1830,33152
1831,33152
1832,33152
1833,33088
1834,33152
1835,33216
1836,33216
1837,33280
1838,33344
1839,33472
1840,33408
1841,33408
1842,33408
1843,33408
1844,33408
1845,33408
1846,33408
1847,33408
1848,33408
1849,33344
1850,33216
1851,33152
1852,33088
1853,33024
1854,32960
1855,32896
1856,32832
1857,32704
1858,32640
1859,32576
1860,32576
1861,32512
1862,32448
1863,32384
1864,32320
1865,32320
1866,32320
1867,32384
1868,32512
1869,32576
1870,32576
1871,32640
1872,32704
1873,32768
1874,32704
1875,32704
1876,32768
1877,32832
1878,32832
1879,32768
1880,32768
1881,32832
1882,32832
1883,32832
1884,32896
1885,32896
1886,32832
1887,32832
1888,32832
1889,32832
1890,32832
1891,32832
1892,32832
1893,32768
1894,32768
1895,32704
1896,32704
1897,32768
1898,32768
1899,32768
1900,32704
1901,32768
1902,32832
1903,32768
1904,32704
1905,32704
1906,32704
1907,32640
1908,32640
1909,32704
1910,32704
1911,32704
1912,32704
1913,32768
1914,32832
1915,32768
1916,32704
1917,32640
1918,32640
1919,32640
1920,32640
1921,32640
1922,32640
1923,32640
1924,32704
1925,32704
1926,32768
1927,32704
1928,32640
1929,32640
1930,32640
1931,32704
1932,32704
1933,32640
1934,32640
1935,32704
1936,32704
1937,32832
1938,32960
1939,33152
1940,33280
1941,33280
1942,33152
1943,32960
1944,32832
1945,32640
1946,32512
1947,32448
1948,32448
1949,32384
1950,32448
1951,32512
1952,32576
1953,32576
1954,32576
1955,32640
1956,32704
1957,32704
1958,32704
1959,32768
1960,32768
1961,32768
1962,32768
1963,32768
1964,32832
1965,33024
1966,33344
1967,33856
1968,34560
1969,35456
1970,36544
1971,36864
1972,35968
1973,34432
1974,32832
1975,31424
1976,30400
1977,29952
1978,29888
1979,30144
1980,30656
1981,31296
1982,31872
1983,32320
1984,32704
1985,32960
1986,33152
1987,33216
1988,33216
1989,33280
1990,33216
1991,33152
1992,33088
1993,33024
1994,32960
1995,32896
1996,32832
1997,32896
1998,32896
1999,32896
2000,32832
2001,32832
2002,32832
2003,32832
2004,32896
2005,32960
2006,32960
2007,32960
2008,32896
2009,32896
2010,32960
2011,32960
2012,32960
2013,32960
2014,33024
2015,33024
2016,33024
2017,33152
2018,33216
2019,33216
2020,33216
2021,33216
2022,33280
2023,33280
2024,33344
2025,33408
2026,33536
2027,33600
2028,33600
2029,33536
2030,33472
2031,33408
2032,33280
2033,33216
2034,33152
2035,33088
2036,33024
2037,32960
2038,32960
2039,32960
2040,32832
2041,32768
2042,32704
2043,32704
2044,32576
2045,32512
2046,32448
2047,32512
2048,32512
2049,32448
2050,32448
2051,32448
2052,32512
2053,32448
2054,32512
2055,32576
2056,32640
2057,32704
2058,32704
2059,32640
2060,32704
2061,32704
2062,32704
2063,32704
2064,32768
2065,32768
2066,32768
2067,32832
2068,32832
2069,32832
2070,32768
2071,32704
2072,32832
2073,32832
2074,32832
2075,32832
2076,32832
2077,32768
2078,32704
2079,32704
2080,32704
2081,32704
2082,32704
2083,32704
2084,32704
2085,32704
2086,32704
2087,32704
2088,32704
2089,32704
2090,32704
2091,32704
2092,32704
2093,32704
2094,32704
2095,32640
2096,32640
2097,32640
2098,32640
2099,32640
2100,32640
2101,32640
2102,32640
2103,32704
2104,32640
2105,32704
2106,32704
2107,32640
2108,32576
2109,32576
2110,32640
2111,32704
2112,32768
2113,32896
2114,33024
2115,33088
2116,33088
2117,33088
2118,33024
2119,32896
2120,32704
2121,32640
2122,32576
2123,32512
2124,32448
2125,32384
2126,32384
2127,32448
2128,32512
2129,32512
2130,32576
2131,32640
2132,32704
2133,32704
2134,32768
2135,32768
2136,32768
2137,32768
2138,32768
2139,32768
2140,32832
2141,33088
2142,33472
2143,33984
2144,34752
2145,35648
2146,36544
2147,36352
2148,35136
2149,33664
2150,32256
2151,31104
2152,30400
2153,30016
2154,29952
2155,30400
2156,31040
2157,31616
2158,32128
2159,32576
2160,32896
2161,33088
2162,33152
2163,33280
2164,33280
2165,33280
2166,33216
2167,33152
2168,33152
2169,33088
2170,33024
2171,32896
2172,32768
2173,32768
2174,32768
2175,32704
2176,32768
2177,32832
2178,32832
2179,32832
2180,32896
2181,32960
2182,32960
2183,33024
2184,33024
2185,32960
2186,32960
2187,32896
2188,32896
2189,32960
2190,33024
2191,33024
2192,33088
2193,33152
2194,33216
2195,33280
2196,33280
2197,33344
2198,33344
2199,33408
2200,33408
2201,33408
2202,33408
2203,33408
2204,33344
2205,33344
2206,33280
2207,33216
2208,33152
2209,33152
2210,33152
2211,33024
2212,32960
2213,32896
2214,32832
2215,32768
2216,32640
2217,32576
2218,32576
2219,32512
2220,32448
2221,32448
2222,32448
2223,32448
2224,32384
2225,32448
2226,32512
2227,32512
2228,32512
2229,32512
2230,32512
2231,32576
2232,32576
2233,32576
2234,32640
2235,32704
2236,32704
2237,32768
2238,32768
2239,32768
2240,32832
2241,32832
2242,32832
2243,32832
2244,32896
2245,32832
2246,32832
2247,32832
2248,32832
2249,32768
2250,32704
2251,32704
2252,32768
2253,32768
2254,32704
2255,32768
2256,32832
2257,32768
2258,32704
2259,32704
2260,32768
2261,32704
2262,32640
2263,32640
2264,32640
2265,32640
2266,32640
2267,32704
2268,32704
2269,32704
2270,32704
2271,32640
2272,32640
2273,32704
2274,32704
2275,32768
2276,32768
2277,32704
2278,32640
2279,32640
2280,32704
2281,32704
2282,32640
2283,32640
2284,32640
2285,32640
2286,32704
2287,32640
2288,32640
2289,32704
2290,32704
2291,32768
2292,32896
2293,33024
2294,33088
2295,33088
2296,33024
2297,32960
2298,32832
2299,32704
2300,32576
2301,32512
2302,32448
2303,32384
2304,32384
2305,32384
2306,32448
2307,32512
2308,32512
2309,32576
2310,32640
2311,32704
2312,32704
2313,32704
2314,32768
2315,32768
2316,32704
2317,32704
2318,32768
2319,32896
2320,33216
2321,33728
2322,34432
2323,35264
2324,36288
2325,37120
2326,36672
2327,35328
2328,33600
2329,31936
2330,30528
2331,29952
2332,29632
2333,29824
2334,30272
2335,30912
2336,31616
2337,32128
2338,32576
2339,32896
2340,33088
2341,33152
2342,33216
2343,33280
2344,33280
2345,33216
2346,33152
2347,33088
2348,33024
2349,32960
2350,32896
2351,32832
2352,32768
2353,32768
2354,32704
2355,32768
2356,32832
2357,32832
2358,32832
2359,32832
2360,32896
2361,32896
2362,32832
2363,32896
2364,32960
2365,32960
2366,32960
2367,33024
2368,33088
2369,33088
2370,33088
2371,33088
2372,33152
2373,33152
2374,33152
2375,33152
2376,33216
2377,33344
2378,33344
2379,33344
2380,33344
2381,33408
2382,33408
2383,33408
2384,33344
2385,33344
2386,33280
2387,33152
2388,33088
2389,33088
2390,33024
2391,32960
2392,32896
2393,32832
2394,32768
2395,32640
2396,32512
2397,32448
2398,32448
2399,32384
2400,32384
2401,32320
2402,32384
2403,32384
2404,32384
2405,32448
2406,32448
2407,32448
2408,32448
2409,32448
2410,32512
2411,32576
2412,32576
2413,32576
2414,32640
2415,32704
2416,32704
2417,32640
2418,32704
2419,32768
2420,32768
2421,32768
2422,32832
2423,32896
2424,32832
2425,32832
2426,32768
2427,32704
2428,32704
2429,32704
2430,32704
2431,32768
2432,32768
2433,32704
2434,32704
2435,32768
2436,32768
2437,32768
2438,32704
2439,32704
2440,32640
2441,32576
2442,32576
2443,32640
2444,32640
2445,32576
2446,32576
2447,32576
2448,32576
2449,32576
2450,32576
2451,32640
2452,32704
2453,32704
2454,32640
2455,32640
2456,32640
2457,32640
2458,32576
2459,32640
2460,32704
2461,32704
2462,32640
2463,32640
2464,32640
2465,32640
2466,32640
2467,32640
2468,32640
2469,32640
2470,32640
2471,32640
2472,32640
2473,32768
2474,32768
2475,32768
2476,32768
2477,32768
2478,32832
2479,32960
2480,33024
2481,33088
2482,33088
2483,32960
2484,32832
2485,32768
2486,32640
2487,32512
2488,32448
2489,32448
2490,32448
2491,32448
2492,32448
2493,32448
2494,32512
2495,32576
2496,32640
2497,32704
2498,32704
2499,32640
2500,32704
2501,32768
2502,32768
2503,32768
2504,32768
2505,32768
2506,32960
2507,33344
2508,33792
2509,34496
2510,35648
2511,36608
2512,37376
2513,36800
2514,35264
2515,33408
2516,31744
2517,30464
2518,29760
2519,29568
2520,29824
2521,30400
2522,31040
2523,31744
2524,32256
2525,32576
2526,32896
2527,33088
2528,33152
2529,33216
2530,33216
2531,33216
2532,33280
2533,33216
2534,33152
2535,33024
2536,32960
2537,32896
2538,32832
2539,32768
2540,32768
2541,32704
2542,32704
2543,32768
2544,32896
2545,32896
2546,32832
2547,32896
2548,32896
2549,32896
2550,32896
2551,32960
2552,33024
2553,33024
2554,33024
2555,33024
2556,33088
2557,33088
2558,33088
2559,33152
2560,33216
2561,33280
2562,33280
2563,33280
2564,33344
2565,33408
2566,33472
2567,33472
2568,33472
2569,33472
2570,33344
2571,33280
2572,33280
2573,33280
2574,33216
2575,33152
2576,33152
2577,33152
2578,33088
2579,32960
2580,32896
2581,32832
2582,32768
2583,32640
2584,32512
2585,32448
2586,32384
2587,32384
2588,32384
2589,32448
2590,32448
2591,32384
2592,32448
2593,32448
2594,32512
2595,32512
2596,32512
2597,32576
2598,32704
2599,32704
2600,32704
2601,32704
2602,32768
2603,32768
2604,32704
2605,32704
2606,32768
2607,32768
2608,32768
2609,32768
2610,32896
2611,32960
2612,32896
2613,32832
2614,32832
2615,32832
2616,32768
2617,32704
2618,32704
2619,32768
2620,32768
2621,32768
2622,32768
2623,32768
2624,32704
2625,32640
2626,32640
2627,32704
2628,32704
2629,32704
2630,32640
2631,32640
2632,32640
2633,32576
2634,32576
2635,32640
2636,32640
2637,32576
2638,32576
2639,32576
2640,32640
2641,32640
2642,32704
2643,32704
2644,32704
2645,32640
2646,32576
2647,32640
2648,32640
2649,32640
2650,32640
2651,32640
2652,32768
2653,32768
2654,32704
2655,32640
2656,32640
2657,32640
2658,32640
2659,32576
2660,32640
2661,32640
2662,32640
2663,32640
2664,32704
2665,32704
2666,32640
2667,32640
2668,32768
2669,32896
2670,33024
2671,33024
2672,33088
2673,33024
2674,32896
2675,32768
2676,32640
2677,32640
2678,32512
2679,32448
2680,32448
2681,32448
2682,32448
2683,32448
2684,32512
2685,32576
2686,32640
2687,32640
2688,32640
2689,32704
2690,32704
2691,32704
2692,32640
2693,32640
2694,32704
2695,32768
2696,33024
2697,33408
2698,33984
2699,34816
2700,35904
2701,37120
2702,37248
2703,36096
2704,33920
2705,33664
2706,31104
2707,30080
2708,29696
2709,29760
2710,30144
2711,30720
2712,31296
2713,31872
2714,32320
2715,32640
2716,32896
2717,33088
2718,33216
2719,33216
2720,33152
2721,33216
2722,33216
2723,33088
2724,33024
2725,32960
2726,32896
2727,32896
2728,32832
2729,32832
2730,32896
2731,32832
2732,32768
2733,32768
2734,32768
2735,32768
2736,32768
2737,32768
2738,32832
2739,32960
2740,32960
2741,32960
2742,32896
2743,32960
2744,32960
2745,32960
2746,33024
2747,33088
2748,33152
2749,33152
2750,33152
2751,33216
2752,33280
2753,33280
2754,33280
2755,33280
2756,33344
2757,33344
2758,33344
2759,33344
2760,33344
2761,33344
2762,33280
2763,33216
2764,33216
2765,33152
2766,33152
2767,33088
2768,33024
2769,32960
2770,32768
2771,32704
2772,32704
2773,32640
2774,32576
2775,32512
2776,32512
2777,32512
2778,32512
2779,32448
2780,32384
2781,32320
2782,32320
2783,32384
2784,32448
2785,32448
2786,32448
2787,32512
2788,32576
2789,32704
2790,32704
2791,32768
2792,32768
2793,32832
2794,32832
2795,32832
2796,32832
2797,32832
2798,32832
2799,32768
2800,32768
2801,32832
2802,32832
2803,32832
2804,32896
2805,32896
2806,32832
2807,32832
2808,32832
2809,32832
2810,32768
2811,32704
2812,32704
2813,32704
2814,32704
2815,32704
2816,32704
2817,32704
2818,32704
2819,32640
2820,32640
2821,32704
2822,32768
2823,32768
2824,32704
2825,32704
2826,32768
2827,32768
2828,32704
2829,32640
2830,32640
2831,32704
2832,32704
2833,32704
2834,32704
2835,32640
2836,32640
2837,32640
2838,32768
2839,32768
2840,32704
2841,32704
2842,32704
2843,32704
2844,32704
2845,32704
2846,32640
2847,32640
2848,32704
2849,32704
2850,32640
2851,32704
2852,32832
2853,32960
2854,33088
2855,33024
2856,33216
2857,33152
2858,33024
2859,32896
2860,32768
2861,32640
2862,32512
2863,32448
2864,32448
2865,32448
2866,32448
2867,32512
2868,32640
2869,32704
2870,32640
2871,32640
2872,32704
2873,32704
2874,32704
2875,32640
2876,32704
2877,32704
2878,32704
2879,32768
2880,32960
2881,33280
2882,33728
2883,34368
2884,35328
2885,36224
2886,36800
2887,35968
2888,34560
2889,33088
2890,31680
2891,30592
2892,30080
2893,29952
2894,30208
2895,30720
2896,31296
2897,31936
2898,32448
2899,32768
2900,32896
2901,33088
2902,33216
2903,33280
2904,33216
2905,33216
2906,33216
2907,33088
2908,32960
2909,32896
2910,32896
2911,32896
2912,32832
2913,32832
2914,32896
2915,32832
2916,32832
2917,32896
2918,32896
2919,32896
2920,32896
2921,32960
2922,32960
2923,32896
2924,32896
2925,32960
2926,33024
2927,33024
2928,32960
2929,33024
2930,32960
2931,33088
2932,33152
2933,33216
2934,33216
2935,33280
2936,33280
2937,33280
2938,33280
2939,33344
2940,33408
2941,33472
2942,33472
2943,33472
2944,33408
2945,33344
2946,33344
2947,33280
2948,33216
2949,33152
2950,33088
2951,33152
2952,33024
2953,32896
2954,32768
2955,32768
2956,32704
2957,32640
2958,32576
2959,32512
2960,32448
2961,32448
2962,32512
2963,32576
2964,32576
2965,32576
2966,32576
2967,32640
2968,32640
2969,32704
2970,32640
2971,32704
2972,32704
2973,32704
2974,32704
2975,32640
2976,32768
2977,32768
2978,32768
2979,32768
2980,32768
2981,32832
2982,32832
2983,32896
2984,32960
2985,32896
2986,32832
2987,32768
2988,32768
2989,32832
2990,32768
2991,32768
2992,32768
2993,32768
2994,32768
2995,32704
2996,32704
2997,32704
2998,32704
2999,32704
3000,32768
3001,32768
3002,32768
3003,32704
3004,32704
3005,32704
3006,32704
3007,32704
3008,32704
3009,32704
3010,32704
3011,32704
3012,32576
3013,32576
3014,32640
3015,32704
3016,32640
3017,32640
3018,32640
3019,32640
3020,32576
3021,32640
3022,32704
3023,32704
3024,32640
3025,32576
3026,32640
3027,32640
3028,32640
3029,32640
3030,32704
3031,32768
3032,32896
3033,33024
3034,33152
3035,33216
3036,33216
3037,33088
3038,32960
3039,32768
3040,32704
3041,32512
3042,32448
3043,32448
3044,32448
3045,32448
3046,32448
3047,32512
3048,32512
3049,32512
3050,32576
3051,32640
3052,32704
3053,32704
3054,32704
3055,32768
3056,32768
3057,32704
3058,32704
3059,32768
3060,32960
3061,33280
3062,33792
3063,34496
3064,35904
3065,35968
3066,36800
3067,35904
3068,34496
3069,32960
3070,31552
3071,30528
3072,30080
3073,29952
3074,30208
3075,30720
3076,31424
3077,31936
3078,32384
3079,32896
3080,32896
3081,33088
3082,33152
3083,33152
3084,33216
3085,33216
3086,33152
3087,33024
3088,33024
3089,33024
3090,32960
3091,32896
3092,32832
3093,32832
3094,32832
3095,32832
3096,32832
3097,32832
3098,32832
3099,32832
3100,32832
3101,32896
3102,32896
3103,32896
3104,32896
3105,32896
3106,32960
3107,33024
3108,33024
3109,33088
3110,33088
3111,33088
3112,33088
3113,33088
3114,33216
3115,33280
3116,33280
3117,33280
3118,33344
3119,33408
3120,33344
3121,33344
3122,33408
3123,33408
3124,33344
3125,33280
3126,33344
3127,33344
3128,33344
3129,33216
3130,33088
3131,33088
3132,32960
3133,32896
3134,32832
3135,32768
3136,32704
3137,32640
3138,32512
3139,32448
3140,32384
3141,32384
3142,32384
3143,32448
3144,32448
3145,32448
3146,32448
3147,32512
3148,32576
3149,32512
3150,32512
3151,32640
3152,32640
3153,32704
3154,32704
3155,32704
3156,32704
3157,32704
3158,32704
3159,32768
3160,32832
3161,32832
3162,32768
3163,32832
3164,32896
3165,32896
3166,32832
3167,32832
3168,32896
3169,32896
3170,32832
3171,32832
3172,32832
3173,32768
3174,32704
3175,32640
3176,32704
3177,32704
3178,32640
3179,32640
3180,32640
3181,32640
3182,32704
3183,32640
3184,32704
3185,32704
3186,32704
3187,32704
3188,32704
3189,32704
3190,32704
3191,32640
3192,32640
3193,32704
3194,32704
3195,32640
3196,32640
3197,32640
3198,32640
3199,32640
3200,32640
3201,32704
3202,32704
3203,32640
3204,32640
3205,32640
3206,32704
3207,32640
3208,32576
3209,32640
3210,32704
3211,32640
3212,32640
3213,32640
3214,32704
3215,32768
3216,32896
3217,33024
3218,33088
3219,33152
3220,33088
3221,32960
3222,32832
3223,32768
3224,32640
3225,32512
3226,32512
3227,32512
3228,32448
3229,32384
3230,32448
3231,32512
3232,32576
3233,32640
3234,32640
3235,32704
3236,32704
3237,32704
3238,32704
3239,32704
3240,32704
3241,32704
3242,32640
3243,32768
3244,33024
3245,33408
3246,34048
3247,34880
3248,36032
3249,37056
3250,37184
3251,35968
3252,34304
3253,32576
3254,31040
3255,30144
3256,29696
3257,29696
3258,30080
3259,30656
3260,31360
3261,31936
3262,32384
3263,32768
3264,33024
3265,33152
3266,33216
3267,33280
3268,33280
3269,33216
3270,33152
3271,33088
3272,33024
3273,33024
3274,32960
3275,32832
3276,32832
3277,32832
3278,32832
3279,32768
3280,32768
3281,32832
3282,32832
3283,32768
3284,32768
3285,32832
3286,32896
3287,32896
3288,32896
3289,32960
3290,33024
3291,33024
3292,33024
3293,33088
3294,33088
3295,33088
3296,33152
3297,33216
3298,33280
3299,33280
3300,33280
3301,33280
3302,33344
3303,33344
3304,33344
3305,33344
3306,33408
3307,33408
3308,33344
3309,33344
3310,33344
3311,33344
3312,33216
3313,33152
3314,33152
3315,33088
3316,32960
3317,32832
3318,32832
3319,32832
3320,32704
3321,32576
3322,32512
3323,32448
3324,32384
3325,32384
3326,32384
3327,32384
3328,32448
3329,32448
3330,32512
3331,32576
3332,32576
3333,32576
3334,32576
3335,32576
3336,32640
3337,32576
3338,32640
3339,32704
3340,32704
3341,32640
3342,32640
3343,32704
3344,32768
3345,32768
3346,32768
3347,32832
3348,32832
3349,32832
3350,32832
3351,32832
3352,32832
3353,32768
3354,32768
3355,32704
3356,32768
3357,32768
3358,32768
3359,32768
3360,32768
3361,32704
3362,32704
3363,32704
3364,32768
3365,32832
3366,32768
3367,32704
3368,32640
3369,32640
3370,32576
3371,32576
3372,32576
3373,32640
3374,32640
3375,32640
3376,32704
3377,32768
3378,32768
3379,32704
3380,32640
3381,32704
3382,32704
3383,32640
3384,32704
3385,32704
3386,32704
3387,32640
3388,32640
3389,32640
3390,32640
3391,32640
3392,32576
3393,32576
3394,32576
3395,32576
3396,32640
3397,32640
3398,32704
3399,32704
3400,32640
3401,32576
3402,32640
3403,32704
3404,32768
3405,32960
3406,33088
3407,33152
3408,33088
3409,33024
3410,32896
3411,32768
3412,32704
3413,32576
3414,32512
3415,32448
3416,32384
3417,32384
3418,32384
3419,32448
3420,32512
3421,32576
3422,32640
3423,32640
3424,32640
3425,32576
3426,32640
3427,32640
3428,32640
3429,32640
3430,32640
3431,32704
3432,32960
3433,33280
3434,33856
3435,34624
3436,35648
3437,36800
3438,37376
3439,36608
3440,35008
3441,33152
3442,31552
3443,30336
3444,29696
3445,29504
3446,29824
3447,30400
3448,31040
3449,31680
3450,32192
3451,32640
3452,32896
3453,33088
3454,33152
3455,33216
3456,33280
3457,33216
3458,33152
3459,33088
3460,33024
3461,32960
3462,32896
3463,32832
3464,32768
3465,32768
3466,32768
3467,32768
3468,32768
3469,32832
3470,32832
3471,32832
3472,32832
3473,32832
3474,32896
3475,32896
3476,32896
3477,32960
3478,33024
3479,33024
3480,33088
3481,33088
3482,33088
3483,33024
3484,33024
3485,33088
3486,33152
3487,33216
3488,33216
3489,33280
3490,33280
3491,33344
3492,33344
3493,33408
3494,33408
3495,33344
3496,33280
3497,33280
3498,33280
3499,33216
3500,33152
3501,33152
3502,33088
3503,33088
3504,33024
3505,32960
3506,32960
3507,32896
3508,32768
3509,32704
3510,32576
3511,32512
3512,32448
3513,32384
3514,32448
3515,32384
3516,32320
3517,32384
3518,32448
3519,32448
3520,32512
3521,32512
3522,32512
3523,32576
3524,32576
3525,32576
3526,32640
3527,32704
3528,32704
3529,32704
3530,32768
3531,32832
3532,32832
3533,32832
3534,32768
3535,32832
3536,32832
3537,32832
3538,32832
3539,32832
3540,32832
3541,32832
3542,32832
3543,32896
3544,32832
3545,32832
3546,32704
3547,32704
3548,32704
3549,32704
3550,32640
3551,32640
3552,32704
3553,32768
3554,32768
3555,32704
3556,32704
3557,32704
3558,32576
3559,32576
3560,32640
3561,32640
3562,32704
3563,32704
3564,32768
3565,32768
3566,32704
3567,32640
3568,32640
3569,32640
3570,32640
3571,32640
3572,32640
3573,32640
3574,32640
3575,32640
3576,32640
3577,32704
3578,32704
3579,32640
3580,32640
3581,32640
3582,32640
3583,32640
3584,32704
3585,32704
3586,32704
3587,32704
3588,32704
3589,32640
3590,32704
3591,32832
3592,32960
3593,33088
3594,33152
3595,33152
3596,33088
3597,32960
3598,32832
3599,32704
3600,32576
3601,32576
3602,32512
3603,32448
3604,32448
3605,32448
3606,32512
3607,32512
3608,32512
3609,32576
3610,32576
3611,32640
3612,32640
3613,32640
3614,32640
3615,32704
3616,32704
3617,32704
3618,32704
3619,32704
3620,32960
3621,33344
3622,33920
3623,34688
3624,35712
3625,36864
3626,37184
3627,36224
3628,34560
3629,32768
3630,31296
3631,30272
3632,29760
3633,29760
3634,30080
3635,30656
3636,31296
3637,31808
3638,32256
3639,32576
3640,32896
3641,33024
3642,33152
3643,33280
3644,33280
3645,33216
3646,33152
3647,33088
3648,33024
3649,32960
3650,32896
3651,32832
3652,32832
3653,32832
3654,32832
3655,32832
3656,32832
3657,32832
3658,32768
3659,32832
3660,32832
3661,32896
3662,32896
3663,32960
3664,32960
3665,33024
3666,32960
3667,32896
3668,32960
3669,32960
3670,33024
3671,33024
3672,33088
3673,33216
3674,33216
3675,33216
3676,33280
3677,33280
3678,33280
3679,33280
3680,33344
3681,33344
3682,33408
3683,33344
3684,33280
3685,33280
3686,33280
3687,33216
3688,33216
3689,33152
3690,33152
3691,33152
3692,33024
3693,32960
3694,32832
3695,32704
3696,32640
3697,32576
3698,32512
3699,32448
3700,32448
3701,32384
3702,32384
3703,32448
3704,32448
3705,32448
3706,32448
3707,32448
3708,32448
3709,32448
3710,32576
3711,32640
3712,32640
3713,32640
3714,32704
3715,32704
3716,32704
3717,32704
3718,32768
3719,32768
3720,32768
3721,32768
3722,32832
3723,32832
3724,32832
3725,32832
3726,32832
3727,32832
3728,32832
3729,32768
3730,32768
3731,32832
3732,32832
3733,32832
3734,32768
3735,32768
3736,32768
3737,32768
3738,32704
3739,32768
3740,32768
3741,32704
3742,32704
3743,32704
3744,32768
3745,32704
3746,32576
3747,32576
3748,32640
3749,32704
3750,32704
3751,32704
3752,32704
3753,32704
3754,32704
3755,32704
3756,32704
3757,32704
3758,32704
3759,32704
3760,32704
3761,32768
3762,32832
3763,32768
3764,32704
3765,32640
3766,32576
3767,32512
3768,32576
3769,32576
3770,32640
3771,32640
3772,32704
3773,32768
3774,32896
3775,33024
3776,33152
3777,33152
3778,33152
3779,32960
3780,32768
3781,32704
3782,32576
3783,32512
3784,32384
3785,32384
3786,32384
3787,32448
3788,32448
3789,32448
3790,32448
3791,32448
3792,32448
3793,32512
3794,32512
3795,32576
3796,32576
3797,32576
3798,32512
3799,32512
3800,32512
3801,32576
3802,32896
3803,33344
3804,33920
3805,34688
3806,35648
3807,36416
3808,36032
3809,34688
3810,33216
3811,31808
3812,30656
3813,29952
3814,29760
3815,29824
3816,30144
3817,30720
3818,31296
3819,31872
3820,32256
3821,32512
3822,32768
3823,32896
3824,32960
3825,33024
3826,32960
3827,32896
3828,32832
3829,32704
3830,32576
3831,32512
3832,32576
3833,32576
3834,32512
3835,32512
3836,32512
3837,32512
3838,32512
3839,32512
3840,32576
3841,32576
3842,32576
3843,32576
3844,32640
3845,32640
3846,32640
3847,32640
3848,32640
3849,32704
3850,32832
3851,32896
3852,32896
3853,32896
3854,32896
3855,32960
3856,32960
3857,33088
3858,33088
3859,33088
3860,33152
3861,33152
3862,33152
3863,33088
3864,33152
3865,33216
3866,33216
3867,33152
3868,33088
3869,33088
3870,33024
3871,32960
3872,32896
3873,32832
3874,32768
3875,32704
3876,32640
3877,32576
3878,32576
3879,32512
3880,32448
3881,32448
3882,32448
3883,32448
3884,32320
3885,32384
3886,32384
3887,32384
3888,32320
3889,32320
3890,32384
3891,32384
3892,32448
3893,32512
3894,32576
3895,32640
3896,32704
3897,32704
3898,32768
3899,32832
3900,32768
3901,32704
3902,32768
3903,32768
3904,32768
3905,32768
3906,32832
3907,32896
3908,32832
3909,32768
3910,32704
3911,32704
3912,32704
3913,32768
3914,32768
3915,32768
3916,32768
3917,32768
3918,32704
3919,32768
3920,32768
3921,32704
3922,32704
3923,32704
3924,32768
3925,32704
3926,32704
3927,32768
3928,32768
3929,32768
3930,32768
3931,32768
3932,32832
3933,32768
3934,32704
3935,32704
3936,32768
3937,32704
3938,32640
3939,32640
3940,32640
3941,32640
3942,32704
3943,32768
3944,32768
3945,32768
3946,32704
3947,32704
3948,32704
3949,32768
3950,32768
3951,32704
3952,32832
3953,32960
3954,33088
3955,33152
3956,33216
3957,33280
3958,33216
3959,33024
3960,32960
3961,32896
3962,32768
3963,32640
3964,32576
3965,32576
3966,32512
3967,32512
3968,32512
3969,32640
3970,32704
3971,32704
3972,32768
3973,32832
3974,32896
3975,32832
3976,32896
3977,32960
3978,32960
3979,32896
3980,32832
3981,32960
3982,33280
3983,33728
3984,34304
3985,35136
3986,36096
3987,36992
3988,36736
3989,35456
3990,33920
3991,32384
3992,31040
3993,30272
3994,30016
3995,30080
3996,30464
3997,31104
3998,31744
3999,32320
4000,32768
4001,33024
4002,33216
4003,33344
4004,33344
4005,33344
4006,33344
4007,33408
4008,33344
4009,33216
4010,33152
4011,33088
4012,33024
4013,32960
4014,32960
4015,33024
4016,33024
4017,32960
4018,33024
4019,33024
4020,33024
4021,33024
4022,33088
4023,33088
4024,33088
4025,33024
4026,33024
4027,33088
4028,33152
4029,33216
4030,33152
4031,33216
4032,33280
4033,33216
4034,33216
4035,33280
4036,33344
4037,33344
4038,33344
4039,33408
4040,33472
4041,33536
4042,33536
4043,33536
4044,33536
4045,33536
4046,33536
4047,33472
4048,33472
4049,33472
4050,33344
4051,33280
4052,33280
4053,33216
4054,33152
4055,33024
4056,32960
4057,32896
4058,32832
4059,32768
4060,32704
4061,32640
4062,32640
4063,32576
4064,32640
4065,32640
4066,32640
4067,32576
4068,32640
4069,32640
4070,32704
4071,32640
4072,32640
4073,32768
4074,32768
4075,32832
4076,32832
4077,32896
4078,32960
4079,32896
4080,32832
4081,32896
4082,32960
4083,32960
4084,32960
4085,32960
4086,33024
4087,33024
4088,33088
4089,33088
4090,33024
4091,33024
4092,32960
4093,32896
4094,32960
4095,32960
4096,32896
4097,32832
4098,32832
4099,32832
4100,32832
4101,32832
4102,32832
4103,32832
4104,32768
4105,32768
4106,32768
4107,32768
4108,32768
4109,32832
4110,32832
4111,32832
4112,32832
4113,32768
4114,32768
4115,32832
4116,32832
4117,32832
4118,32768
4119,32768
4120,32768
4121,32704
4122,32704
4123,32768
4124,32832
4125,32768
4126,32768
4127,32768
4128,32832
4129,32768
4130,32704
4131,32704
4132,32768
4133,32768
4134,32704
4135,32768
4136,32768
4137,32832
4138,32832
4139,32832
4140,32960
4141,33088
4142,33216
4143,33280
4144,33216
4145,33152
4146,33024
4147,32896
4148,32768
4149,32704
4150,32576
4151,32448
4152,32448
4153,32512
4154,32576
4155,32576
4156,32640
4157,32704
4158,32704
4159,32704
4160,32704
4161,32768
4162,32768
4163,32768
4164,32768
4165,32832
4166,32832
4167,32768
4168,32896
4169,33216
4170,33728
4171,34432
4172,35264
4173,36352
4174,37312
4175,37056
4176,35712
4177,33984
4178,32256
4179,30912
4180,30016
4181,29696
4182,29952
4183,30336
4184,30912
4185,31488
4186,32064
4187,32512
4188,32768
4189,33024
4190,33216
4191,33280
4192,33280
4193,33344
4194,33344
4195,33280
4196,33216
4197,33088
4198,33088
4199,33024
4200,33024
4201,32960
4202,32960
4203,32960
4204,32896
4205,32896
4206,32832
4207,32832
4208,32896
4209,32896
4210,32960
4211,33024
4212,33024
4213,32960
4214,32960
4215,33024
4216,33088
4217,33088
4218,33088
4219,33152
4220,33216
4221,33216
4222,33216
4223,33280
4224,33344
4225,33344
4226,33408
4227,33408
4228,33472
4229,33472
4230,33472
4231,33472
4232,33472
4233,33344
4234,33280
4235,33280
4236,33280
4237,33280
4238,33152
4239,33088
4240,33088
4241,33024
4242,33024
4243,32960
4244,32832
4245,32704
4246,32576
4247,32448
4248,32448
4249,32448
4250,32384
4251,32384
4252,32384
4253,32448
4254,32448
4255,32512
4256,32512
4257,32576
4258,32640
4259,32640
4260,32640
4261,32704
4262,32704
4263,32704
4264,32704
4265,32768
4266,32832
4267,32768
4268,32832
4269,32896
4270,32896
4271,32896
4272,32832
4273,32832
4274,32896
4275,32832
4276,32768
4277,32832
4278,32832
4279,32832
4280,32832
4281,32832
4282,32832
4283,32832
4284,32768
4285,32768
4286,32768
4287,32768
4288,32704
4289,32640
4290,32704
4291,32704
4292,32704
4293,32704
4294,32704
4295,32704
4296,32704
4297,32704
4298,32768
4299,32768
4300,32768
4301,32704
4302,32704
4303,32704
4304,32704
4305,32704
4306,32704
4307,32704
4308,32704
4309,32704
4310,32704
4311,32704
4312,32704
4313,32640
4314,32640
4315,32704
4316,32768
4317,32704
4318,32704
4319,32704
4320,32704
4321,32704
4322,32704
4323,32704
4324,32768
4325,32768
4326,32640
4327,32576
4328,32640
4329,32640
4330,32640
4331,32704
4332,32768
4333,32832
4334,32960
4335,33024
4336,33088
4337,33088
4338,33024
4339,32896
4340,32832
4341,32704
4342,32576
4343,32512
4344,32512
4345,32512
4346,32448
4347,32448
4348,32512
4349,32640
4350,32640
4351,32704
4352,32768
4353,32768
4354,32832
4355,32704
4356,32640
4357,32704
4358,32704
4359,32704
4360,32704
4361,32832
4362,33216
4363,33728
4364,34368
4365,35392
4366,36608
4367,37376
4368,36864
4369,35392
4370,33600
4371,31872
4372,30592
4373,29888
4374,29632
4375,29824
4376,30336
4377,30976
4378,31680
4379,32192
4380,32576
4381,32896
4382,33152
4383,33280
4384,33280
4385,33280
4386,33216
4387,33216
4388,33152
4389,33088
4390,33024
4391,32960
4392,32896
4393,32832
4394,32896
4395,32960
4396,32960
4397,32896
4398,32832
4399,32896
4400,32896
4401,32896
4402,32896
4403,32960
4404,32960
4405,32960
4406,32960
4407,33024
4408,33024
4409,33024
4410,33088
4411,33152
4412,33152
4413,33088
4414,33152
4415,33216
4416,33280
4417,33280
4418,33280
4419,33408
4420,33408
4421,33344
4422,33344
4423,33344
4424,33408
4425,33408
4426,33408
4427,33344
4428,33344
4429,33280
4430,33216
4431,33152
4432,33088
4433,33024
4434,32960
4435,32896
4436,32896
4437,32768
4438,32704
4439,32640
4440,32640
4441,32576
4442,32512
4443,32448
4444,32448
4445,32448
4446,32448
4447,32448
4448,32448
4449,32448
4450,32448
4451,32448
4452,32512
4453,32576
4454,32576
4455,32576
4456,32640
4457,32704
4458,32704
4459,32704
4460,32768
4461,32832
4462,32896
4463,32896
4464,32896
4465,32960
4466,32960
4467,32896
4468,32832
4469,32832
4470,32832
4471,32832
4472,32832
4473,32832
4474,32768
4475,32704
4476,32640
4477,32704
4478,32704
4479,32704
4480,32640
4481,32704
4482,32768
4483,32768
4484,32704
4485,32704
4486,32704
4487,32704
4488,32704
4489,32704
4490,32704
4491,32640
4492,32640
4493,32640
4494,32640
4495,32704
4496,32704
4497,32704
4498,32768
4499,32768
4500,32704
4501,32704
4502,32704
4503,32704
4504,32704
4505,32640
4506,32640
4507,32704
4508,32768
4509,32704
4510,32704
4511,32768
4512,32768
4513,32768
4514,32704
4515,32640
4516,32640
4517,32640
4518,32704
4519,32704
4520,32704
4521,32640
4522,32640
4523,32768
4524,32896
4525,32960
4526,33088
4527,33152
4528,33152
4529,33024
4530,32960
4531,32832
4532,32832
4533,32576
4534,32576
4535,32512
4536,32512
4537,32512
4538,32512
4539,32512
4540,32576
4541,32576
4542,32576
4543,32640
4544,32640
4545,32704
4546,32704
4547,32640
4548,32768
4549,32768
4550,32768
4551,32704
4552,32832
4553,32768
4554,33536
4555,34176
4556,35072
4557,36160
4558,37056
4559,36736
4560,35456
4561,33792
4562,32128
4563,30848
4564,29952
4565,29888
4566,29760
4567,30336
4568,31040
4569,31680
4570,32192
4571,32576
4572,32896
4573,33088
4574,33216
4575,33216
4576,33152
4577,33152
4578,33152
4579,33088
4580,33024
4581,33024
4582,33024
4583,32960
4584,32896
4585,32832
4586,32832
4587,32832
4588,32832
4589,32832
4590,32896
4591,32832
4592,32832
4593,32896
4594,32960
4595,32896
4596,32896
4597,32896
4598,33024
4599,33024
4600,33024
4601,33024
4602,33088
4603,33088
4604,33088
4605,33088
4606,33152
4607,33216
4608,33216
4609,33280
4610,33216
4611,33408
4612,33408
4613,33344
4614,33344
4615,33344
4616,33408
4617,33344
4618,33344
4619,33344
4620,33280
4621,33152
4622,33088
4623,33088
4624,33024
4625,32896
4626,32832
4627,32832
4628,32768
4629,32704
4630,32704
4631,32640
4632,32512
4633,32448
4634,32384
4635,32384
4636,32448
4637,32448
4638,32384
4639,32512
4640,32448
4641,32512
4642,32512
4643,32512
4644,32576
4645,32640
4646,32640
4647,32640
4648,32704
4649,32768
4650,32768
4651,32768
4652,32832
4653,32832
4654,32768
4655,32768
4656,32832
4657,32832
4658,32832
4659,32768
4660,32768
4661,32768
4662,32768
4663,32768
4664,32768
4665,32832
4666,32768
4667,32704
4668,32704
4669,32704
4670,32704
4671,32704
4672,32704
4673,32704
4674,32704
4675,32704
4676,32704
4677,32704
4678,32768
4679,32704
4680,32704
4681,32704
4682,32704
4683,32640
4684,32640
4685,32704
4686,32768
4687,32768
4688,32704
4689,32704
4690,32640
4691,32640
4692,32640
4693,32640
4694,32640
4695,32640
4696,32640
4697,32640
4698,32640
4699,32640
4700,32640
4701,32640
4702,32640
4703,32704
4704,32704
4705,32640
4706,32640
4707,32640
4708,32768
4709,32896
4710,33088
4711,33216
4712,33152
4713,33024
4714,32896
4715,32832
4716,32640
4717,32576
4718,32512
4719,32448
4720,32448
4721,32448
4722,32512
4723,32576
4724,32576
4725,32576
4726,32576
4727,32640
4728,32704
4729,32704
4730,32704
4731,32704
4732,32704
4733,32704
4734,32640
4735,32640
4736,32896
4737,33280
4738,33792
4739,34432
4740,35328
4741,36288
4742,36480
4743,35456
4744,34048
4745,32640
4746,31360
4747,30464
4748,30080
4749,30080
4750,30336
4751,30848
4752,31488
4753,32064
4754,32512
4755,32768
4756,33024
4757,33216
4758,33216
4759,33280
4760,33216
4761,33280
4762,33152
4763,33024
4764,32960
4765,32960
4766,32896
4767,32896
4768,32832
4769,32896
4770,32896
4771,32896
4772,32832
4773,32832
4774,32896
4775,32896
4776,32896
4777,32832
4778,32832
4779,32832
4780,32832
4781,32832
4782,32960
4783,32960
4784,33024
4785,33024
4786,33088
4787,33152
4788,33152
4789,33216
4790,33280
4791,33216
4792,33216
4793,33280
4794,33344
4795,33408
4796,33472
4797,33472
4798,33472
4799,33408
4800,33344
4801,33280
4802,33280
4803,33280
4804,33152
4805,33152
4806,33088
4807,33088
4808,33024
4809,32960
4810,32896
4811,32832
4812,32768
4813,32640
4814,32576
4815,32512
4816,32512
4817,32512
4818,32512
4819,32512
4820,32512
4821,32448
4822,32448
4823,32448
4824,32576
4825,32576
4826,32640
4827,32704
4828,32768
4829,32704
4830,32640
4831,32704
4832,32704
4833,32768
4834,32768
4835,32768
4836,32896
4837,32960
4838,32960
4839,32896
4840,32896
4841,32896
4842,32832
4843,32768
4844,32832
4845,32768
4846,32768
4847,32768
4848,32768
4849,32832
4850,32768
4851,32768
4852,32768
4853,32768
4854,32704
4855,32704
4856,32704
4857,32768
4858,32768
4859,32704
4860,32704
4861,32704
4862,32640
4863,32640
4864,32640
4865,32640
4866,32640
4867,32640
4868,32640
4869,32704
4870,32704
4871,32704
4872,32704
4873,32768
4874,32704
4875,32704
4876,32704
4877,32704
4878,32768
4879,32704
4880,32704
4881,32704
4882,32640
4883,32640
4884,32576
4885,32640
4886,32640
4887,32640
4888,32640
4889,32768
4890,32896
4891,33088
4892,33088
4893,33088
4894,33088
4895,33024
4896,32832
4897,32704
4898,32576
4899,32512
4900,32448
4901,32384
4902,32384
4903,32448
4904,32512
4905,32512
4906,32576
4907,32640
4908,32640
4909,32640
4910,32640
4911,32704
4912,32704
4913,32704
4914,32704
4915,32768
4916,32768
4917,32832
4918,33152
4919,33600
4920,34176
4921,34880
4922,35776
4923,36672
4924,36032
4925,35904
4926,33664
4927,32192
4928,31040
4929,30272
4930,29888
4931,29952
4932,30400
4933,31040
4934,31616
4935,32192
4936,32640
4937,32960
4938,33088
4939,33216
4940,33280
4941,33280
4942,33216
4943,33152
4944,33152
4945,33088
4946,33024
4947,32960
4948,32896
4949,32896
4950,32832
4951,32832
4952,32896
4953,32960
4954,32896
4955,32832
4956,32768
4957,32832
4958,32896
4959,32896
4960,32896
4961,32960
4962,32960
4963,32960
4964,32960
4965,33024
4966,33088
4967,33088
4968,33088
4969,33216
4970,33152
4971,33216
4972,33216
4973,33280
4974,33280
4975,33344
4976,33344
4977,33344
4978,33408
4979,33408
4980,33408
4981,33408
4982,33408
4983,33344
4984,33280
4985,33216
4986,33152
4987,33152
4988,33088
4989,33024
4990,33024
4991,32896
4992,32832
4993,32704
4994,32704
4995,32640
4996,32576
4997,32512
4998,32512
4999,32512
5000,32448
5001,32448
5002,32512
5003,32576
5004,32512
5005,32512
5006,32512
5007,32576
5008,32576
5009,32576
5010,32704
5011,32768
5012,32768
5013,32768
5014,32832
5015,32768
5016,32768
5017,32768
5018,32704
5019,32704
5020,32768
5021,32768
5022,32768
5023,32832
5024,32896
5025,32896
5026,32896
5027,32896
5028,32832
5029,32768
5030,32704
5031,32704
5032,32768
5033,32768
5034,32768
5035,32768
5036,32768
5037,32768
5038,32768
5039,32768
5040,32768
5041,32768
5042,32704
5043,32768
5044,32768
5045,32768
5046,32768
5047,32704
5048,32704
5049,32704
5050,32704
5051,32640
5052,32640
5053,32640
5054,32640
5055,32640
5056,32704
5057,32768
5058,32768
5059,32768
5060,32704
5061,32768
5062,32768
5063,32704
5064,32640
5065,32640
5066,32640
5067,32640
5068,32640
5069,32704
5070,32704
5071,32704
5072,32768
5073,32896
5074,33088
5075,33088
5076,33216
5077,33152
5078,33152
5079,32960
5080,32832
5081,32704
5082,32640
5083,32512
5084,32448
5085,32384
5086,32384
5087,32448
5088,32448
5089,32512
5090,32512
5091,32640
5092,32704
5093,32768
5094,32832
5095,32832
5096,32832
5097,32832
5098,32768
5099,32768
5100,32704
5101,32896
5102,33280
5103,33856
5104,34752
5105,35584
5106,36800
5107,37376
5108,36608
5109,34944
5110,33152
5111,31616
5112,30464
5113,29824
5114,29696
5115,29952
5116,30528
5117,31296
5118,31744
5119,32320
5120,32704
5121,32896
5122,33088
5123,33216
5124,33280
5125,33280
5126,33280
5127,33216
5128,33216
5129,33152
5130,33088
5131,33024
5132,33024
5133,32960
5134,32896
5135,32896
5136,32896
5137,32896
5138,32832
5139,32832
5140,32832
5141,32832
5142,32896
5143,32896
5144,33024
5145,33088
5146,33088
5147,33024
5148,33088
5149,33088
5150,33088
5151,33088
5152,33152
5153,33216
5154,33216
5155,33216
5156,33216
5157,33344
5158,33408
5159,33408
5160,33408
5161,33472
5162,33536
5163,33472
5164,33472
5165,33472
5166,33472
5167,33408
5168,33408
5169,33408
5170,33344
5171,33280
5172,33152
5173,33024
5174,33024
5175,32960
5176,32896
5177,32768
5178,32640
5179,32576
5180,32512
5181,32512
5182,32576
5183,32512
5184,32448
5185,32448
5186,32448
5187,32512
5188,32512
5189,32576
5190,32640
5191,32640
5192,32640
5193,32640
5194,32704
5195,32768
5196,32768
5197,32768
5198,32768
5199,32832
5200,32832
5201,32832
5202,32896
5203,32960
5204,32960
5205,32896
5206,32896
5207,32896
5208,32896
5209,32896
5210,32896
5211,32896
5212,32896
5213,32832
5214,32768
5215,32832
5216,32832
5217,32768
5218,32768
5219,32768
5220,32768
5221,32768
5222,32768
5223,32832
5224,32832
5225,32768
5226,32640
5227,32640
5228,32640
5229,32640
5230,32640
5231,32640
5232,32704
5233,32704
5234,32704
5235,32768
5236,32768
5237,32768
5238,32704
5239,32704
5240,32768
5241,32768
5242,32704
5243,32704
5244,32768
5245,32832
5246,32832
5247,32768
5248,32832
5249,32768
5250,32704
5251,32704
5252,32704
5253,32704
5254,32704
5255,32768
5256,32768
5257,32768
5258,32768
5259,32704
5260,32704
5261,32832
5262,32896
5263,33024
5264,33152
5265,33216
5266,33216
5267,33152
5268,32960
5269,32896
5270,32832
5271,32704
5272,32640
5273,32576
5274,32576
5275,32576
5276,32576
5277,32576
5278,32640
5279,32704
5280,32704
5281,32704
5282,32768
5283,32768
5284,32704
5285,32704
5286,32768
5287,32704
5288,32640
5289,32704
5290,32960
5291,33408
5292,33920
5293,34624
5294,35648
5295,36864
5296,37504
5297,36736
5298,35136
5299,33344
5300,31616
5301,30464
5302,29824
5303,29696
5304,30016
5305,30592
5306,31168
5307,31808
5308,32320
5309,32640
5310,32896
5311,33152
5312,33344
5313,33344
5314,33280
5315,33280
5316,33280
5317,33216
5318,33152
5319,33088
5320,33024
5321,32896
5322,32832
5323,32832
5324,32896
5325,32832
5326,32832
5327,32832
5328,32896
5329,32960
5330,32960
5331,33024
5332,33024
5333,33024
5334,32960
5335,33024
5336,33088
5337,33088
5338,33088
5339,33088
5340,33088
5341,33088
5342,33088
5343,33152
5344,33216
5345,33280
5346,33344
5347,33344
5348,33344
5349,33408
5350,33408
5351,33472
5352,33472
5353,33408
5354,33408
5355,33344
5356,33280
5357,33280
5358,33280
5359,33216
5360,33152
5361,33216
5362,33152
5363,33088
5364,32960
5365,32896
5366,32832
5367,32704
5368,32576
5369,32512
5370,32512
5371,32512
5372,32448
5373,32448
5374,32448
5375,32448
5376,32448
5377,32448
5378,32512
5379,32576
5380,32512
5381,32512
5382,32576
5383,32640
5384,32640
5385,32640
5386,32704
5387,32704
5388,32704
5389,32704
5390,32832
5391,32832
5392,32832
5393,32832
5394,32832
5395,32896
5396,32832
5397,32768
5398,32768
5399,32832
5400,32768
5401,32704
5402,32704
5403,32704
5404,32704
5405,32704
5406,32768
5407,32704
5408,32704
5409,32640
5410,32576
5411,32576
5412,32576
5413,32512
5414,32512
5415,32448
5416,32512
5417,32512
5418,32512
5419,32512
5420,32512
5421,32512
5422,32448
5423,32512
5424,32512
5425,32512
5426,32512
5427,32512
5428,32576
5429,32576
5430,32512
5431,32448
5432,32512
5433,32512
5434,32448
5435,32512
5436,32576
5437,32576
5438,32512
5439,32448
5440,32448
5441,32512
5442,32448
5443,32448
5444,32448
5445,32512
5446,32448
5447,32448
5448,32448
5449,32512
5450,32576
5451,32512
5452,32576
5453,32640
5454,32704
5455,32768
5456,32896
5457,32896
5458,32960
5459,32832
5460,32704
5461,32704
5462,32576
5463,32384
5464,32256
5465,32192
5466,32256
5467,32256
5468,32256
5469,32320
5470,32448
5471,32448
5472,32448
5473,32512
5474,32512
5475,32576
5476,32576
5477,32576
5478,32576
5479,32576
5480,32576
5481,32576
5482,32896
5483,33280
5484,33856
5485,34624
5486,35712
5487,36800
5488,36928
5489,35776
5490,34176
5491,32512
5492,31104
5493,30144
5494,29760
5495,29760
5496,30144
5497,30656
5498,31296
5499,31936
5500,32384
5501,32704
5502,32960
5503,33088
5504,33152
5505,33216
5506,33152
5507,33152
5508,33088
5509,33024
5510,32960
5511,32896
5512,32896
5513,32832
5514,32768
5515,32832
5516,32832
5517,32832
5518,32768
5519,32768
5520,32768
5521,32832
5522,32768
5523,32832
5524,32832
5525,32896
5526,32896
5527,32960
5528,33088
5529,33152
5530,33152
5531,33088
5532,33088
5533,33088
5534,33088
5535,33088
5536,33088
5537,33216
5538,33280
5539,33280
5540,33344
5541,33472
5542,33472
5543,33408
5544,33408
5545,33408
5546,33408
5547,33408
5548,33408
5549,33344
5550,33280
5551,33152
5552,33152
5553,33088
5554,33088
5555,33024
5556,32960
5557,32896
5558,32896
5559,32768
5560,32640
5561,32512
5562,32448
5563,32384
5564,32384
5565,32448
5566,32512
5567,32512
5568,32512
5569,32512
5570,32512
5571,32576
5572,32640
5573,32704
5574,32768
5575,32768
5576,32704
5577,32768
5578,32768
5579,32832
5580,32768
5581,32832
5582,32832
5583,32832
5584,32832
5585,32768
5586,32768
5587,32768
5588,32768
5589,32704
5590,32768
5591,32832
5592,32832
5593,32768
5594,32704
5595,32704
5596,32704
5597,32704
5598,32640
5599,32640
5600,32640
5601,32576
5602,32576
5603,32640
5604,32640
5605,32640
5606,32640
5607,32640
5608,32576
5609,32576
5610,32512
5611,32576
5612,32640
5613,32640
5614,32640
5615,32640
5616,32576
5617,32640
5618,32640
5619,32640
5620,32704
5621,32640
5622,32512
5623,32512
5624,32576
5625,32512
5626,32512
5627,32512
5628,32576
5629,32576
5630,32576
5631,32576
5632,32512
5633,32576
5634,32640
5635,32768
5636,32960
5637,33088
5638,33088
5639,33024
5640,32960
5641,32832
5642,32640
5643,32512
5644,32384
5645,32320
5646,32320
5647,32320
5648,32320
5649,32384
5650,32448
5651,32384
5652,32448
5653,32512
5654,32640
5655,32576
5656,32576
5657,32640
5658,32704
5659,32704
5660,32704
5661,32640
5662,32768
5663,33024
5664,33472
5665,34048
5666,34880
5667,35776
5668,36544
5669,36160
5670,34880
5671,33408
5672,32000
5673,30848
5674,30208
5675,29952
5676,30080
5677,30464
5678,31104
5679,31744
5680,32192
5681,32576
5682,32896
5683,33088
5684,33152
5685,33216
5686,33216
5687,33216
5688,33152
5689,33088
5690,33088
5691,33024
5692,32896
5693,32832
5694,32768
5695,32832
5696,32832
5697,32832
5698,32832
5699,32896
5700,32960
5701,32832
5702,32832
5703,32832
5704,32832
5705,32832
5706,32832
5707,32896
5708,32960
5709,32960
5710,33024
5711,33088
5712,33152
5713,33152
5714,33152
5715,33216
5716,33280
5717,33280
5718,33280
5719,33280
5720,33344
5721,33408
5722,33408
5723,33408
5724,33472
5725,33472
5726,33408
5727,33408
5728,33408
5729,33344
5730,33280
5731,33216
5732,33216
5733,33216
5734,33152
5735,33088
5736,32960
5737,32896
5738,32832
5739,32768
5740,32640
5741,32640
5742,32576
5743,32512
5744,32512
5745,32576
5746,32576
5747,32576
5748,32576
5749,32512
5750,32512
5751,32512
5752,32576
5753,32704
5754,32704
5755,32704
5756,32704
5757,32768
5758,32832
5759,32832
5760,32896
5761,32960
5762,32960
5763,32960
5764,32896
5765,32896
5766,32896
5767,32896
5768,32896
5769,32896
5770,32960
5771,32960
5772,32896
5773,32832
5774,32832
5775,32896
5776,32896
5777,32896
5778,32896
5779,32832
5780,32768
5781,32768
5782,32768
5783,32768
5784,32768
5785,32704
5786,32768
5787,32768
5788,32768
5789,32768
5790,32768
5791,32768
5792,32768
5793,32704
5794,32704
5795,32768
5796,32768
5797,32768
5798,32704
5799,32768
5800,32768
5801,32768
5802,32704
5803,32768
5804,32768
5805,32704
5806,32704
5807,32768
5808,32832
5809,32832
5810,32768
5811,32704
5812,32704
5813,32640
5814,32704
5815,32832
5816,32960
5817,33088
5818,33152
5819,33216
5820,33152
5821,33024
5822,32832
5823,32704
5824,32640
5825,32576
5826,32512
5827,32448
5828,32448
5829,32512
5830,32512
5831,32512
5832,32576
5833,32576
5834,32640
5835,32640
5836,32704
5837,32768
5838,32768
5839,32768
5840,32768
5841,32832
5842,32832
5843,33024
5844,33408
5845,33920
5846,34624
5847,35456
5848,36480
5849,37056
5850,36288
5851,34752
5852,33024
5853,31616
5854,30528
5855,29952
5856,29760
5857,30080
5858,30656
5859,31296
5860,31872
5861,32384
5862,32768
5863,33024
5864,33152
5865,33280
5866,33344
5867,33344
5868,33280
5869,33216
5870,33152
5871,33088
5872,33024
5873,32960
5874,32960
5875,32960
5876,32896
5877,32896
5878,32896
5879,32960
5880,32896
5881,32832
5882,32832
5883,32896
5884,32896
5885,32960
5886,33024
5887,33024
5888,32960
5889,32896
5890,32896
5891,32960
5892,33024
5893,33088
5894,33088
5895,33152
5896,33152
5897,33152
5898,33216
5899,33280
5900,33344
5901,33344
5902,33344
5903,33408
5904,33472
5905,33472
5906,33408
5907,33344
5908,33344
5909,33344
5910,33280
5911,33216
5912,33216
5913,33152
5914,33024
5915,32960
5916,32960
5917,32896
5918,32768
5919,32704
5920,32640
5921,32576
5922,32512
5923,32512
5924,32512
5925,32448
5926,32448
5927,32384
5928,32384
5929,32448
5930,32448
5931,32448
5932,32448
5933,32512
5934,32512
5935,32576
5936,32576
5937,32640
5938,32704
5939,32640
5940,32704
5941,32704
5942,32768
5943,32704
5944,32768
5945,32832
5946,32896
5947,32832
5948,32768
5949,32768
5950,32832
5951,32768
5952,32768
5953,32768
5954,32768
5955,32768
5956,32704
5957,32704
5958,32768
5959,32768
5960,32768
5961,32832
5962,32832
5963,32768
5964,32704
5965,32768
5966,32768
5967,32704
5968,32640
5969,32576
5970,32640
5971,32640
5972,32640
5973,32640
5974,32704
5975,32768
5976,32704
5977,32704
5978,32768
5979,32832
5980,32768
5981,32704
5982,32704
5983,32768
5984,32768
5985,32704
5986,32704
5987,32704
5988,32704
5989,32704
5990,32704
5991,32768
5992,32832
5993,32768
5994,32768
5995,32768
5996,32768
5997,32704
5998,32704
5999,32704
6000,32704
6001,32768
6002,32896
6003,33024
6004,33152
6005,33216
6006,33216
6007,33152
6008,33088
6009,32896
6010,32768
6011,32640
6012,32576
6013,32576
6014,32576
6015,32512
6016,32512
6017,32576
6018,32640
6019,32640
6020,32704
6021,32704
6022,32704
6023,32768
6024,32768
6025,32832
6026,32832
6027,32768
6028,32832
6029,32832
6030,32896
6031,33216
6032,33728
6033,34432
6034,35328
6035,36416
6036,37312
6037,37056
6038,35648
6039,33856
6040,32128
6041,30784
6042,30016
6043,29696
6044,29888
6045,30464
6046,31104
6047,31680
6048,32128
6049,32512
6050,32896
6051,33088
6052,33216
6053,33344
6054,33408
6055,33344
6056,33280
6057,33280
6058,33216
6059,33152
6060,33024
6061,32960
6062,32960
6063,32960
6064,32960
6065,32896
6066,32896
6067,32960
6068,32960
6069,32960
6070,32960
6071,32960
6072,32960
6073,32896
6074,32896
6075,32960
6076,32960
6077,33024
6078,33152
6079,33152
6080,33152
6081,33088
6082,33152
6083,33216
6084,33280
6085,33280
6086,33344
6087,33408
6088,33472
6089,33472
6090,33408
6091,33472
6092,33536
6093,33536
6094,33536
6095,33472
6096,33472
6097,33408
6098,33280
6099,33216
6100,33216
6101,33152
6102,33024
6103,32960
6104,32960
6105,32832
6106,32768
6107,32704
6108,32704
6109,32704
6110,32640
6111,32576
6112,32512
6113,32448
6114,32448
6115,32448
6116,32448
6117,32448
6118,32448
6119,32512
6120,32512
6121,32640
6122,32640
6123,32640
6124,32704
6125,32768
6126,32768
6127,32768
6128,32832
6129,32832
6130,32832
6131,32832
6132,32832
6133,32832
6134,32832
6135,32832
6136,32832
6137,32832
6138,32832
6139,32768
6140,32768
6141,32832
6142,32896
6143,32896
6144,32832
6145,32832
6146,32832
6147,32768
6148,32704
6149,32704
6150,32768
6151,32704
6152,32704
6153,32640
6154,32704
6155,32704
6156,32704
6157,32704
6158,32704
6159,32704
6160,32640
6161,32704
6162,32768
6163,32768
6164,32704
6165,32704
6166,32640
6167,32640
6168,32640
6169,32640
6170,32704
6171,32704
6172,32704
6173,32640
6174,32704
6175,32768
6176,32704
6177,32640
6178,32640
6179,32640
6180,32640
6181,32640
6182,32704
6183,32704
6184,32704
6185,32704
6186,32704
6187,32768
6188,32704
6189,32704
6190,32640
6191,32640
6192,32640
6193,32640
6194,32640
6195,32640
6196,32704
6197,32704
6198,32768
6199,32960
6200,33152
6201,33152
6202,33152
6203,33088
6204,33088
6205,32896
6206,32704
6207,32576
6208,32512
6209,32512
6210,32448
6211,32448
6212,32448
6213,32448
6214,32512
6215,32512
6216,32576
6217,32640
6218,32640
6219,32704
6220,32768
6221,32832
6222,32768
6223,32768
6224,32768
6225,32768
6226,32896
6227,33152
6228,33600
6229,34304
6230,35328
6231,36352
6232,37376
6233,37248
6234,35840
6235,34048
6236,32192
6237,30848
6238,29952
6239,29568
6240,29696
6241,30208
6242,30912
6243,31552
6244,32064
6245,32512
6246,32832
6247,33024
6248,33152
6249,33280
6250,33344
6251,33344
6252,33280
6253,33216
6254,33088
6255,33024
6256,32960
6257,32896
6258,32896
6259,32832
6260,32832
6261,32832
6262,32896
6263,32960
6264,32960
6265,32960
6266,32896
6267,32896
6268,32896
6269,32896
6270,32896
6271,32960
6272,32960
6273,32960
6274,33024
6275,33088
6276,33088
6277,33088
6278,33152
6279,33216
6280,33280
6281,33216
6282,33216
6283,33280
6284,33344
6285,33344
6286,33408
6287,33472
6288,33536
6289,33536
6290,33536
6291,33536
6292,33472
6293,33344
6294,33216
6295,33152
6296,33088
6297,33088
6298,33024
6299,32960
6300,32960
6301,32896
6302,32768
6303,32704
6304,32704
6305,32704
6306,32640
6307,32512
6308,32448
6309,32384
6310,32320
6311,32320
6312,32384
6313,32448
6314,32448
6315,32512
6316,32576
6317,32640
6318,32576
6319,32640
6320,32704
6321,32768
6322,32768
6323,32704
6324,32768
6325,32832
6326,32832
6327,32832
6328,32832
6329,32832
6330,32832
6331,32832
6332,32896
6333,32896
6334,32896
6335,32832
6336,32896
6337,32832
6338,32768
6339,32768
6340,32768
6341,32768
6342,32704
6343,32704
6344,32704
6345,32768
6346,32832
6347,32768
6348,32704
6349,32704
6350,32640
6351,32704
6352,32768
6353,32768
6354,32704
6355,32640
6356,32640
6357,32640
6358,32704
6359,32704
6360,32704
6361,32704
6362,32768
6363,32768
6364,32704
6365,32704
6366,32704
6367,32704
6368,32704
6369,32704
6370,32768
6371,32768
6372,32704
6373,32704
6374,32704
6375,32704
6376,32704
6377,32640
6378,32768
6379,32768
6380,32704
6381,32704
6382,32704
6383,32704
6384,32704
6385,32704
6386,32832
6387,32832
6388,32768
6389,32768
6390,32832
6391,33024
6392,33088
6393,33088
6394,33088
6395,33088
6396,32960
6397,32832
6398,32768
6399,32768
6400,32704
6401,32576
6402,32512
6403,32576
6404,32576
6405,32576
6406,32576
6407,32640
6408,32640
6409,32704
6410,32704
6411,32704
6412,32768
6413,32768
6414,32704
6415,32768
6416,32768
6417,32768
6418,32704
6419,32832
6420,33152
6421,33664
6422,34304
6423,35264
6424,36672
6425,36736
6426,36608
6427,35200
6428,33600
6429,32064
6430,30848
6431,30144
6432,29888
6433,30080
6434,30592
6435,31232
6436,31872
6437,32320
6438,32704
6439,32960
6440,33152
6441,33216
6442,33280
6443,33280
6444,33280
6445,33344
6446,33280
6447,33152
6448,33088
6449,33024
6450,32896
6451,32832
6452,32768
6453,32832
6454,32832
6455,32832
6456,32896
6457,32960
6458,32960
6459,32960
6460,33024
6461,33024
6462,33024
6463,33024
6464,32960
6465,32960
6466,33024
6467,33024
6468,33088
6469,33088
6470,33088
6471,33152
6472,33152
6473,33216
6474,33280
6475,33344
6476,33408
6477,33408
6478,33472
6479,33536
6480,33472
6481,33472
6482,33536
6483,33536
6484,33472
6485,33408
6486,33408
6487,33344
6488,33280
6489,33216
6490,33152
6491,33088
6492,32960
6493,32896
6494,32896
6495,32832
6496,32768
6497,32704
6498,32640
6499,32640
6500,32576
6501,32576
6502,32512
6503,32448
6504,32448
6505,32448
6506,32512
6507,32576
6508,32640
6509,32640
6510,32704
6511,32832
6512,32832
6513,32768
6514,32768
6515,32768
6516,32832
6517,32832
6518,32832
6519,32832
6520,32896
6521,32832
6522,32832
6523,32896
6524,32960
6525,32896
6526,32896
6527,32896
6528,32832
6529,32960
6530,32896
6531,32896
6532,32960
6533,32896
6534,32832
6535,32768
6536,32832
6537,32896
6538,32832
6539,32768
6540,32768
6541,32768
6542,32768
6543,32768
6544,32832
6545,32832
6546,32768
6547,32768
6548,32768
6549,32768
6550,32768
6551,32768
6552,32768
6553,32768
6554,32704
6555,32704
6556,32704
6557,32768
6558,32768
6559,32704
6560,32704
6561,32832
6562,32896
6563,32832
6564,32768
6565,32704
6566,32704
6567,32704
6568,32640
6569,32704
6570,32768
6571,32768
6572,32768
6573,32832
6574,32896
6575,32960
6576,33024
6577,33152
6578,33216
6579,33280
6580,33216
6581,33024
6582,32896
6583,32768
6584,32640
6585,32576
6586,32576
6587,32576
6588,32512
6589,32512
6590,32576
6591,32704
6592,32768
6593,32768
6594,32832
6595,32896
6596,32832
6597,32832
6598,32768
6599,32832
6600,32832
6601,32768
6602,32832
6603,33088
6604,33600
6605,33600
6606,34560
6607,35456
6608,36480
6609,36736
6610,35776
6611,34304
6612,32832
6613,31488
6614,30592
6615,30144
6616,30144
6617,30400
6618,30912
6619,31552
6620,32128
6621,32576
6622,32896
6623,33088
6624,33280
6625,33344
6626,33344
6627,33280
6628,33216
6629,33216
6630,33152
6631,33152
6632,33088
6633,33024
6634,32960
6635,32896
6636,32960
6637,32960
6638,32896
6639,32896
6640,32896
6641,32960
6642,33024
6643,33024
6644,33024
6645,33024
6646,33024
6647,32960
6648,32960
6649,33024
6650,33088
6651,33088
6652,33152
6653,33152
6654,33216
6655,33216
6656,33216
6657,33280
6658,33344
6659,33344
6660,33408
6661,33472
6662,33408
6663,33408
6664,33408
6665,33408
6666,33472
6667,33472
6668,33472
6669,33408
6670,33408
6671,33344
6672,33280
6673,33216
6674,33152
6675,33088
6676,33024
6677,32960
6678,32896
6679,32768
6680,32704
6681,32640
6682,32640
6683,32576
6684,32512
6685,32448
6686,32448
6687,32512
6688,32512
6689,32512
6690,32512
6691,32576
6692,32640
6693,32640
6694,32640
6695,32704
6696,32768
6697,32832
6698,32832
6699,32768
6700,32768
6701,32768
6702,32768
6703,32832
6704,32832
6705,32832
6706,32960
6707,33024
6708,33024
6709,32960
6710,32896
6711,32896
6712,32896
6713,32832
6714,32832
6715,32768
6716,32768
6717,32768
6718,32704
6719,32704
6720,32768
6721,32768
6722,32768
6723,32768
6724,32832
6725,32768
6726,32768
6727,32768
6728,32768
6729,32768
6730,32768
6731,32704
6732,32768
6733,32768
6734,32768
6735,32704
6736,32704
6737,32704
6738,32640
6739,32640
6740,32640
6741,32704
6742,32704
6743,32704
6744,32704
6745,32704
6746,32704
6747,32640
6748,32640
6749,32704
6750,32704
6751,32704
6752,32704
6753,32768
6754,32768
6755,32704
6756,32832
6757,32960
6758,33152
6759,33280
6760,33280
6761,33152
6762,33088
6763,32896
6764,32704
6765,32576
6766,32512
6767,32448
6768,32384
6769,32512
6770,32448
6771,32512
6772,32512
6773,32576
6774,32640
6775,32704
6776,32704
6777,32768
6778,32768
6779,32768
6780,32768
6781,32768
6782,32768
6783,32832
6784,32960
6785,33344
6786,33856
6787,34432
6788,35136
6789,36096
6790,36928
6791,36608
6792,35200
6793,33536
6794,32000
6795,30784
6796,30080
6797,29760
6798,29888
6799,30528
6800,31104
6801,31744
6802,32256
6803,32704
6804,32960
6805,33152
6806,33280
6807,33344
6808,33408
6809,33344
6810,33216
6811,33152
6812,33152
6813,33088
6814,32960
6815,32896
6816,32960
6817,32896
6818,32832
6819,32832
6820,32896
6821,32960
6822,32960
6823,32960
6824,32960
6825,32896
6826,32832
6827,32896
6828,32960
6829,33024
6830,33024
6831,33024
6832,33088
6833,33152
6834,33152
6835,33088
6836,33088
6837,33152
6838,33216
6839,33216
6840,33280
6841,33344
6842,33408
6843,33408
6844,33408
6845,33408
6846,33408
6847,33408
6848,33408
6849,33408
6850,33408
6851,33344
6852,33280
6853,33216
6854,33152
6855,33088
6856,33024
6857,33024
6858,33024
6859,32960
6860,32768
6861,32704
6862,32640
6863,32576
6864,32512
6865,32448
6866,32448
6867,32384
6868,32384
6869,32384
6870,32448
6871,32448
6872,32512
6873,32512
6874,32640
6875,32576
6876,32640
6877,32576
6878,32640
6879,32640
6880,32640
6881,32704
6882,32768
6883,32768
6884,32768
6885,32768
6886,32832
6887,32832
6888,32832
6889,32832
6890,32832
6891,32832
6892,32832
6893,32832
6894,32832
6895,32832
6896,32896
6897,32832
6898,32832
6899,32832
6900,32768
6901,32768
6902,32704
6903,32704
6904,32704
6905,32640
6906,32704
6907,32704
6908,32704
6909,32704
6910,32704
6911,32704
6912,32704
6913,32704
6914,32704
6915,32704
6916,32768
6917,32768
6918,32704
6919,32704
6920,32640
6921,32704
6922,32704
6923,32704
6924,32768
6925,32768
6926,32704
6927,32640
6928,32640
6929,32640
6930,32640
6931,32640
6932,32640
6933,32704
6934,32704
6935,32704
6936,32768
6937,32768
6938,32704
6939,32640
6940,32640
6941,32704
6942,32704
6943,32704
6944,32768
6945,32832
6946,32960
6947,33024
6948,33088
6949,33152
6950,33152
6951,33024
6952,32832
6953,32704
6954,32640
6955,32512
6956,32512
6957,32512
6958,32512
6959,32512
6960,32512
6961,32576
6962,32576
6963,32640
6964,32640
6965,32640
6966,32704
6967,32704
6968,32704
6969,32704
6970,32768
6971,32768
6972,32704
6973,32768
6974,33088
6975,33536
6976,34176
6977,35136
6978,36224
6979,37440
6980,37376
6981,35904
6982,34176
6983,32512
6984,31040
6985,30080
6986,29632
6987,29760
6988,30208
6989,30784
6990,31424
6991,32000
6992,32384
6993,32704
6994,32960
6995,33152
6996,33280
6997,33280
6998,33280
6999,33280
7000,33216
7001,33152
7002,33024
7003,33024
7004,33024
7005,32960
7006,32896
7007,32896
7008,32896
7009,32960
7010,32896
7011,32960
7012,32960
7013,32896
7014,32896
7015,32960
7016,32960
7017,32960
7018,33024
7019,33024
7020,33088
7021,33152
7022,33152
7023,33088
7024,33152
7025,33152
7026,33152
7027,33152
7028,33216
7029,33280
7030,33280
7031,33344
7032,33408
7033,33472
7034,33472
7035,33472
7036,33472
7037,33536
7038,33472
7039,33408
7040,33344
7041,33280
7042,33216
7043,33088
7044,33088
7045,33024
7046,33024
7047,32960
7048,32896
7049,32832
7050,32768
7051,32768
7052,32640
7053,32640
7054,32576
7055,32448
7056,32384
7057,32320
7058,32384
7059,32384
7060,32384
7061,32384
7062,32448
7063,32512
7064,32576
7065,32640
7066,32704
7067,32704
7068,32704
7069,32832
7070,32768
7071,32832
7072,32768
7073,32768
7074,32768
7075,32768
7076,32704
7077,32768
7078,32768
7079,32832
7080,32896
7081,32896
7082,32896
7083,32896
7084,32896
7085,32832
7086,32832
7087,32832
7088,32832
7089,32768
7090,32768
7091,32768
7092,32768
7093,32704
7094,32640
7095,32576
7096,32640
7097,32640
7098,32640
7099,32640
7100,32640
7101,32640
7102,32576
7103,32640
7104,32704
7105,32704
7106,32640
7107,32704
7108,32704
7109,32704
7110,32640
7111,32640
7112,32640
7113,32640
7114,32640
7115,32704
7116,32704
7117,32704
7118,32640
7119,32640
7120,32640
7121,32640
7122,32640
7123,32640
7124,32704
7125,32704
7126,32640
7127,32576
7128,32576
7129,32640
7130,32640
7131,32640
7132,32640
7133,32768
7134,32960
7135,33024
7136,33088
7137,33088
7138,33024
7139,32896
7140,32768
7141,32704
7142,32576
7143,32512
7144,32512
7145,32448
7146,32384
7147,32384
7148,32384
7149,32448
7150,32576
7151,32576
7152,32576
7153,32576
7154,32640
7155,32640
7156,32640
7157,32704
7158,32768
7159,32768
7160,32704
7161,32768
7162,33088
7163,33600
7164,34240
7165,35136
7166,36224
7167,37184
7168,37056
7169,35776
7170,34048
7171,32320
7172,30912
7173,29952
7174,29568
7175,29696
7176,30208
7177,30784
7178,31488
7179,32064
7180,32448
7181,32768
7182,32960
7183,33088
7184,33216
7185,33216
7186,33216
7187,33216
7188,33152
7189,33088
7190,33088
7191,33024
7192,32960
7193,32896
7194,32896
7195,32896
7196,32896
7197,32832
7198,32832
7199,32896
7200,32960
7201,32896
7202,32832
7203,32832
7204,32896
7205,32960
7206,32960
7207,32960
7208,33024
7209,33024
7210,33088
7211,33088
7212,33152
7213,33152
7214,33216
7215,33216
7216,33280
7217,33280
7218,33280
7219,33280
7220,33344
7221,33408
7222,33472
7223,33472
7224,33472
7225,33536
7226,33472
7227,33408
7228,33344
7229,33344
7230,33216
7231,33152
7232,33088
7233,33088
7234,33024
7235,32896
7236,32832
7237,32768
7238,32704
7239,32576
7240,32512
7241,32576
7242,32576
7243,32512
7244,32512
7245,32512
7246,32448
7247,32448
7248,32384
7249,32448
7250,32512
7251,32512
7252,32512
7253,32576
7254,32704
7255,32768
7256,32704
7257,32704
7258,32768
7259,32768
7260,32768
7261,32768
7262,32832
7263,32832
7264,32832
7265,32896
7266,32960
7267,32960
7268,32960
7269,32896
7270,32960
7271,32960
7272,32960
7273,32896
7274,32896
7275,32896
7276,32832
7277,32768
7278,32768
7279,32832
7280,32832
7281,32768
7282,32768
7283,32768
7284,32768
7285,32768
7286,32704
7287,32704
7288,32704
7289,32768
7290,32768
7291,32832
7292,32832
7293,32768
7294,32768
7295,32832
7296,32896
7297,32896
7298,32832
7299,32768
7300,32704
7301,32704
7302,32704
7303,32704
7304,32704
7305,32704
7306,32704
7307,32704
7308,32768
7309,32768
7310,32768
7311,32768
7312,32832
7313,32832
7314,32768
7315,32832
7316,32960
7317,33024
7318,33152
7319,33216
7320,33216
7321,33216
7322,33088
7323,32960
7324,32832
7325,32768
7326,32640
7327,32512
7328,32512
7329,32576
7330,32512
7331,32512
7332,32576
7333,32640
7334,32704
7335,32704
7336,32704
7337,32832
7338,32832
7339,32832
7340,32896
7341,32896
7342,32832
7343,32768
7344,32960
7345,33280
7346,33728
7347,34304
7348,35136
7349,36160
7350,36992
7351,36544
7352,35136
7353,33600
7354,32064
7355,30912
7356,30208
7357,29952
7358,30144
7359,30592
7360,31232
7361,31872
7362,32384
7363,32832
7364,33088
7365,33216
7366,33344
7367,33344
7368,33280
7369,33280
7370,33280
7371,33216
7372,33152
7373,33088
7374,33088
7375,33088
7376,33024
7377,33024
7378,32960
7379,33024
7380,32960
7381,32960
7382,32960
7383,32960
7384,33024
7385,33024
7386,33088
7387,33088
7388,33024
7389,32960
7390,33088
7391,33152
7392,33216
7393,33216
7394,33152
7395,33216
7396,33216
7397,33216
7398,33216
7399,33280
7400,33344
7401,33344
7402,33408
7403,33408
7404,33536
7405,33600
7406,33536
7407,33536
7408,33600
7409,33536
7410,33408
7411,33408
7412,33344
7413,33344
7414,33280
7415,33216
7416,33152
7417,33088
7418,32960
7419,32960
7420,32896
7421,32832
7422,32768
7423,32704
7424,32640
7425,32640
7426,32640
7427,32640
7428,32640
7429,32704
7430,32640
7431,32576
7432,32576
7433,32576
7434,32640
7435,32640
7436,32704
7437,32768
7438,32832
7439,32896
7440,32896
7441,32896
7442,32960
7443,32960
7444,32896
7445,32960
7446,32896
7447,32896
7448,32896
7449,32896
7450,32896
7451,32896
7452,32960
7453,32960
7454,33024
7455,32960
7456,32960
7457,32960
7458,32960
7459,32896
7460,32832
7461,32832
7462,32896
7463,32832
7464,32768
7465,32768
7466,32768
7467,32832
7468,32832
7469,32832
7470,32768
7471,32768
7472,32768
7473,32768
7474,32768
7475,32832
7476,32832
7477,32832
7478,32832
7479,32832
7480,32832
7481,32768
7482,32768
7483,32832
7484,32896
7485,32768
7486,32768
7487,32768
7488,32640
7489,32640
7490,32640
7491,32704
7492,32832
7493,33024
7494,33216
7495,33280
7496,33280
7497,33216
7498,33024
7499,32896
7500,32768
7501,32640
7502,32576
7503,32576
7504,32640
7505,32640
7506,32640
7507,32640
7508,32640
7509,32704
7510,32768
7511,32768
7512,32832
7513,32768
7514,32768
7515,32704
7516,32704
7517,32704
7518,32704
7519,32768
7520,33024
7521,33344
7522,33792
7523,34432
7524,35328
7525,36352
7526,36672
7527,35712
7528,34304
7529,32896
7530,31616
7531,30720
7532,30272
7533,30208
7534,30464
7535,30976
7536,31552
7537,32128
7538,32576
7539,32832
7540,33088
7541,33216
7542,33280
7543,33280
7544,33216
7545,33216
7546,33216
7547,33152
7548,33088
7549,33024
7550,33024
7551,32960
7552,33024
7553,33024
7554,33024
7555,32896
7556,32832
7557,32896
7558,32896
7559,32960
7560,32896
7561,32960
7562,33024
7563,33088
7564,33088
7565,33088
7566,33152
7567,33152
7568,33152
7569,33088
7570,33088
7571,33152
7572,33152
7573,33216
7574,33280
7575,33344
7576,33344
7577,33344
7578,33408
7579,33408
7580,33472
7581,33472
7582,33472
7583,33536
7584,33472
7585,33408
7586,33408
7587,33344
7588,33280
7589,33216
7590,33152
7591,33152
7592,33088
7593,32960
7594,32896
7595,32832
7596,32768
7597,32704
7598,32576
7599,32576
7600,32576
7601,32512
7602,32512
7603,32448
7604,32512
7605,32512
7606,32512
7607,32576
7608,32640
7609,32704
7610,32704
7611,32704
7612,32832
7613,32896
7614,32896
7615,32832
7616,32832
7617,32832
7618,32832
7619,32768
7620,32896
7621,32960
7622,32960
7623,32896
7624,32896
7625,32960
7626,32896
7627,32896
7628,32960
7629,32960
7630,32960
7631,32896
7632,32832
7633,32896
7634,32832
7635,32832
7636,32768
7637,32832
7638,32896
7639,32832
7640,32768
7641,32768
7642,32768
7643,32832
7644,32768
7645,32832
7646,32832
7647,32768
7648,32768
7649,32832
7650,32832
7651,32832
7652,32704
7653,32704
7654,32704
7655,32768
7656,32768
7657,32768
7658,32768
7659,32704
7660,32704
7661,32704
7662,32768
7663,32768
7664,32768
7665,32704
7666,32704
7667,32768
7668,32768
7669,32768
7670,32896
7671,33024
7672,33152
7673,33216
7674,33216
7675,33216
7676,33088
7677,32896
7678,32832
7679,32768
7680,32704
7681,32576
7682,32512
7683,32512
7684,32576
7685,32576
7686,32512
7687,32576
7688,32576
7689,32576
7690,32640
7691,32704
7692,32768
7693,32768
7694,32768
7695,32768
7696,32832
7697,32896
7698,33024
7699,33344
7700,33856
7701,34496
7702,35264
7703,36288
7704,37056
7705,36544
7706,35136
7707,33536
7708,32000
7709,30784
7710,30016
7711,29760
7712,30080
7713,30528
7714,31168
7715,31744
7716,32320
7717,32768
7718,32960
7719,33088
7720,33216
7721,33280
7722,33344
7723,33280
7724,33280
7725,33280
7726,33152
7727,33088
7728,33024
7729,33024
7730,33024
7731,32960
7732,32960
7733,32960
7734,32960
7735,32960
7736,32896
7737,32896
7738,32960
7739,32960
7740,32960
7741,33024
7742,33088
7743,33088
7744,33088
7745,33088
7746,33152
7747,33088
7748,33088
7749,33152
7750,33216
7751,33216
7752,33280
7753,33280
7754,33280
7755,33344
7756,33344
7757,33408
7758,33472
7759,33472
7760,33472
7761,33472
7762,33536
7763,33472
7764,33408
7765,33408
7766,33344
7767,33280
7768,33152
7769,33088
7770,33024
7771,33024
7772,32960
7773,32896
7774,32832
7775,32832
7776,32768
7777,32640
7778,32576
7779,32512
7780,32512
7781,32448
7782,32448
7783,32448
7784,32448
7785,32448
7786,32448
7787,32512
7788,32576
7789,32576
7790,32640
7791,32704
7792,32768
7793,32832
7794,32832
7795,32896
7796,32896
7797,32896
7798,32896
7799,32896
7800,32960
7801,32896
7802,32896
7803,32896
7804,32896
7805,32896
7806,32896
7807,32896
7808,32896
7809,32896
7810,32832
7811,32832
7812,32768
7813,32768
7814,32768
7815,32768
7816,32768
7817,32832
7818,32832
7819,32768
7820,32768
7821,32768
7822,32768
7823,32704
7824,32704
7825,32704
7826,32704
7827,32640
7828,32704
7829,32768
7830,32768
7831,32768
7832,32704
7833,32704
7834,32704
7835,32704
7836,32640
7837,32704
7838,32768
7839,32704
7840,32704
7841,32704
7842,32704
7843,32704
7844,32704
7845,32704
7846,32768
7847,32704
7848,32704
7849,32896
7850,33088
7851,33152
7852,33216
7853,33216
7854,33152
7855,32960
7856,32768
7857,32640
7858,32576
7859,32576
7860,32512
7861,32512
7862,32576
7863,32576
7864,32512
7865,32576
7866,32640
7867,32704
7868,32768
7869,32768
7870,32768
7871,32832
7872,32832
7873,32832
7874,32768
7875,32768
7876,32768
7877,32960
7878,33408
7879,33984
7880,34752
7881,35712
7882,36800
7883,37312
7884,36416
7885,34816
7886,33024
7887,31488
7888,30400
7889,29824
7890,29696
7891,30080
7892,30656
7893,31296
7894,31872
7895,32384
7896,32768
7897,33024
7898,33152
7899,33344
7900,33408
7901,33344
7902,33216
7903,33152
7904,33152
7905,33088
7906,33024
7907,32960
7908,33024
7909,32960
7910,32896
7911,32896
7912,32960
7913,33024
7914,32960
7915,32960
7916,32960
7917,33024
7918,32960
7919,32960
7920,33024
7921,33024
7922,33024
7923,33024
7924,33024
7925,33088
7926,33088
7927,33088
7928,33152
7929,33216
7930,33280
7931,33280
7932,33344
7933,33408
7934,33472
7935,33472
7936,33536
7937,33600
7938,33600
7939,33600
7940,33536
7941,33472
7942,33472
7943,33344
7944,33280
7945,33280
7946,33280
7947,33216
7948,33152
7949,33152
7950,33152
7951,33024
7952,32896
7953,32768
7954,32704
7955,32640
7956,32576
7957,32512
7958,32448
7959,32448
7960,32448
7961,32448
7962,32576
7963,32640
7964,32576
7965,32576
7966,32640
7967,32704
7968,32704
7969,32704
7970,32768
7971,32832
7972,32768
7973,32768
7974,32768
7975,32832
7976,32832
7977,32832
7978,32896
7979,32960
7980,33024
7981,32960
7982,32896
7983,32896
7984,32896
7985,32896
7986,32832
7987,32896
7988,32896
7989,32960
7990,32960
7991,32960
7992,32896
7993,32768
7994,32704
7995,32704
7996,32768
7997,32768
7998,32768
7999,32704
8000,32768
8001,32768
8002,32768
8003,32768
8004,32768
8005,32704
8006,32704
8007,32704
8008,32768
8009,32768
8010,32768
8011,32704
8012,32832
8013,32832
8014,32768
8015,32704
8016,32704
8017,32704
8018,32704
8019,32704
8020,32704
8021,32704
8022,32704
8023,32640
8024,32704
8025,32896
8026,33024
8027,33152
8028,33152
8029,33216
8030,33152
8031,33088
8032,32896
8033,32768
8034,32640
8035,32512
8036,32448
8037,32448
8038,32448
8039,32512
8040,32576
8041,32704
8042,32704
8043,32704
8044,32704
8045,32704
8046,32704
8047,32704
8048,32640
8049,32704
8050,32768
8051,32768
8052,32768
8053,32960
8054,33344
8055,33920
8056,34560
8057,35456
8058,36544
8059,37312
8060,36800
8061,35264
8062,33472
8063,31808
8064,30592
8065,29888
8066,29696
8067,29952
8068,30464
8069,31168
8070,31808
8071,32384
8072,32768
8073,33024
8074,33152
8075,33280
8076,33280
8077,33216
8078,33152
8079,33152
8080,33152
8081,33088
8082,33024
8083,33024
8084,32960
8085,32960
8086,32896
8087,32960
8088,32960
8089,32960
8090,32896
8091,32896
8092,32960
8093,32896
8094,32896
8095,32896
8096,33024
8097,33088
8098,33024
8099,33024
8100,33088
8101,33088
8102,33088
8103,33088
8104,33152
8105,33216
8106,33216
8107,33216
8108,33216
8109,33280
8110,33344
8111,33344
8112,33472
8113,33472
8114,33472
8115,33472
8116,33536
8117,33536
8118,33472
8119,33408
8120,33344
8121,33280
8122,33216
8123,33152
8124,33088
8125,33088
8126,33088
8127,32960
8128,32896
8129,32832
8130,32704
8131,32576
8132,32512
8133,32512
8134,32448
8135,32384
8136,32384
8137,32384
8138,32512
8139,32512
8140,32512
8141,32512
8142,32576
8143,32640
8144,32576
8145,32640
8146,32640
8147,32704
8148,32704
8149,32704
8150,32768
8151,32768
8152,32768
8153,32896
8154,32896
8155,32896
8156,32896
8157,32896
8158,32960
8159,32960
8160,32960
8161,32896
8162,32896
8163,32832
8164,32832
8165,32832
8166,32896
8167,32832
8168,32768
8169,32768
8170,32768
8171,32768
8172,32768
8173,32704
8174,32768
8175,32768
8176,32768
8177,32768
8178,32704
8179,32704
8180,32640
8181,32640
8182,32704
8183,32768
8184,32704
8185,32704
8186,32768
8187,32704
8188,32704
8189,32640
8190,32640
8191,32704
8192,32768
8193,32768
8194,32704
8195,32704
8196,32640
8197,32640
8198,32640
8199,32640
8200,32768
8201,32896
8202,33088
8203,33152
8204,33152
8205,33152
8206,33088
8207,32960
8208,32896
8209,32704
8210,32640
8211,32512
8212,32512
8213,32448
8214,32448
8215,32512
8216,32512
8217,32576
8218,32576
8219,32640
8220,32704
8221,32832
8222,32832
8223,32768
8224,32768
8225,32768
8226,32704
8227,32704
8228,32768
8229,33024
8230,33344
8231,33792
8232,34496
8233,35328
8234,36352
8235,36992
8236,36288
8237,34880
8238,33216
8239,31680
8240,30592
8241,30016
8242,29888
8243,30080
8244,30592
8245,31232
8246,31872
8247,32320
8248,32704
8249,33024
8250,33152
8251,33216
8252,33280
8253,33280
8254,33280
8255,33216
8256,33152
8257,33152
8258,33088
8259,33024
8260,32960
8261,32960
8262,32896
8263,32832
8264,32832
8265,32832
8266,32896
8267,32896
8268,32832
8269,32960
8270,32896
8271,32960
8272,33088
8273,33088
8274,33024
8275,33024
8276,33024
8277,33024
8278,33088
8279,33152
8280,33088
8281,33152
8282,33216
8283,33280
8284,33216
8285,33216
8286,33344
8287,33408
8288,33472
8289,33472
8290,33472
8291,33536
8292,33472
8293,33408
8294,33408
8295,33408
8296,33344
8297,33344
8298,33216
8299,33152
8300,33088
8301,32960
8302,32896
8303,32832
8304,32832
8305,32768
8306,32704
8307,32640
8308,32576
8309,32576
8310,32576
8311,32576
8312,32512
8313,32448
8314,32384
8315,32384
8316,32512
8317,32512
8318,32576
8319,32640
8320,32704
8321,32768
8322,32768
8323,32768
8324,32832
8325,32832
8326,32832
8327,32896
8328,32960
8329,32960
8330,32896
8331,32832
8332,32896
8333,32960
8334,32960
8335,32960
8336,32960
8337,32960
8338,32896
8339,32832
8340,32832
8341,32832
8342,32832
8343,32768
8344,32832
8345,32768
8346,32832
8347,32832
8348,32832
8349,32832
8350,32832
8351,32768
8352,32768
8353,32768
8354,32768
8355,32704
8356,32704
8357,32768
8358,32832
8359,32832
8360,32832
8361,32832
8362,32896
8363,32832
8364,32768
8365,32768
8366,32768
8367,32704
8368,32704
8369,32704
8370,32704
8371,32768
8372,32704
8373,32704
8374,32704
8375,32704
8376,32896
8377,33088
8378,33280
8379,33408
8380,33408
8381,33344
8382,33216
8383,32960
8384,32704
8385,32576
8386,32640
8387,32576
8388,32512
8389,32512
8390,32448
8391,32640
8392,32640
8393,32640
8394,32640
8395,32768
8396,32832
8397,32832
8398,32832
8399,32832
8400,32832
8401,32832
8402,32832
8403,32896
8404,33088
8405,33408
8406,33920
8407,34560
8408,35392
8409,36352
8410,36800
8411,35968
8412,34560
8413,33088
8414,31680
8415,30720
8416,30208
8417,30080
8418,30400
8419,31104
8420,31168
8421,32192
8422,32512
8423,32832
8424,33152
8425,33280
8426,33344
8427,33408
8428,33408
8429,33344
8430,33280
8431,33216
8432,33152
8433,33088
8434,33024
8435,32960
8436,33024
8437,33024
8438,33024
8439,32960
8440,32960
8441,33024
8442,33024
8443,33024
8444,33024
8445,33024
8446,33024
8447,33024
8448,33024
8449,33024
8450,33024
8451,33088
8452,33088
8453,33152
8454,33216
8455,33216
8456,33216
8457,33280
8458,33344
8459,33344
8460,33408
8461,33408
8462,33472
8463,33408
8464,33408
8465,33408
8466,33472
8467,33472
8468,33472
8469,33472
8470,33472
8471,33408
8472,33344
8473,33280
8474,33216
8475,33152
8476,33088
8477,32960
8478,32896
8479,32896
8480,32832
8481,32704
8482,32640
8483,32640
8484,32576
8485,32512
8486,32576
8487,32640
8488,32640
8489,32576
8490,32512
8491,32576
8492,32576
8493,32576
8494,32640
8495,32704
8496,32768
8497,32768
8498,32768
8499,32832
8500,32832
8501,32832
8502,32832
8503,32832
8504,32960
8505,32960
8506,32960
8507,32960
8508,33024
8509,33024
8510,32960
8511,32896
8512,32832
8513,32832
8514,32832
8515,32832
8516,32896
8517,32896
8518,32832
8519,32768
8520,32768
8521,32768
8522,32768
8523,32768
8524,32832
8525,32768
8526,32768
8527,32768
8528,32768
8529,32832
8530,32768
8531,32768
8532,32768
8533,32768
8534,32768
8535,32768
8536,32768
8537,32832
8538,32768
8539,32768
8540,32704
8541,32832
8542,32768
8543,32704
8544,32768
8545,32768
8546,32768
8547,32704
8548,32640
8549,32704
8550,32704
8551,32704
8552,32768
8553,32768
8554,32896
8555,32960
8556,33088
8557,33216
8558,33280
8559,33216
8560,33024
8561,32960
8562,32832
8563,32704
8564,32576
8565,32576
8566,32512
8567,32512
8568,32512
8569,32512
8570,32576
8571,32640
8572,32640
8573,32704
8574,32768
8575,32832
8576,32832
8577,32768
8578,32832
8579,32832
8580,32832
8581,32768
8582,33024
8583,33344
8584,34048
8585,34112
8586,35392
8587,36416
8588,37056
8589,36416
8590,35008
8591,33408
8592,31936
8593,30784
8594,30144
8595,29888
8596,30080
8597,30720
8598,31232
8599,32064
8600,32064
8601,32768
8602,33024
8603,33216
8604,33344
8605,33344
8606,33344
8607,33344
8608,33344
8609,33280
8610,33216
8611,33152
8612,33088
8613,33024
8614,32896
8615,32896
8616,32960
8617,32960
8618,32960
8619,32960
8620,32960
8621,32960
8622,32896
8623,32896
8624,32960
8625,33024
8626,33088
8627,33088
8628,33088
8629,33088
8630,33024
8631,33024
8632,33088
8633,33216
8634,33280
8635,33280
8636,33280
8637,33344
8638,33344
8639,33344
8640,33408
8641,33472
8642,33472
8643,33472
8644,33472
8645,33472
8646,33536
8647,33472
8648,33472
8649,33408
8650,33280
8651,33152
8652,33088
8653,33088
8654,33088
8655,33024
8656,32896
8657,32896
8658,32832
8659,32704
8660,32704
8661,32640
8662,32640
8663,32640
8664,32576
8665,32576
8666,32576
8667,32576
8668,32512
8669,32512
8670,32640
8671,32704
8672,32768
8673,32768
8674,32768
8675,32768
8676,32768
8677,32768
8678,32768
8679,32768
8680,32832
8681,32832
8682,32896
8683,32960
8684,32960
8685,33024
8686,33088
8687,33088
8688,33088
8689,32960
8690,32896
8691,32960
8692,32960
8693,32960
8694,32896
8695,32896
8696,32896
8697,32896
8698,32832
8699,32896
8700,32896
8701,32896
8702,32832
8703,32832
8704,32896
8705,32832
8706,32832
8707,32832
8708,32832
8709,32832
8710,32832
8711,32768
8712,32768
8713,32768
8714,32832
8715,32832
8716,32832
8717,32832
8718,32768
8719,32768
8720,32832
8721,32832
8722,32768
8723,32768
8724,32768
8725,32768
8726,32704
8727,32704
8728,32768
8729,32832
8730,32960
8731,33088
8732,33216
8733,33280
8734,33216
8735,33152
8736,33024
8737,32960
8738,32832
8739,32640
8740,32512
8741,32512
8742,32512
8743,32512
8744,32576
8745,32640
8746,32704
8747,32704
8748,32704
8749,32768
8750,32832
8751,32832
8752,32768
8753,32832
8754,32832
8755,32832
8756,32832
8757,33024
8758,33408
8759,33920
8760,34496
8761,35328
8762,36416
8763,37248
8764,36288
8765,36032
8766,33600
8767,31936
8768,30656
8769,29952
8770,29760
8771,29952
8772,30464
8773,31104
8774,31744
8775,32320
8776,32704
8777,32960
8778,33152
8779,33280
8780,33344
8781,33344
8782,33344
8783,33344
8784,33216
8785,33152
8786,33088
8787,33024
8788,33024
8789,32960
8790,32960
8791,32896
8792,32896
8793,32896
8794,32896
8795,32832
8796,32960
8797,32960
8798,32960
8799,32960
8800,33024
8801,33088
8802,33024
8803,33024
8804,33088
8805,33152
8806,33152
8807,33152
8808,33216
8809,33280
8810,33280
8811,33280
8812,33344
8813,33344
8814,33344
8815,33344
8816,33408
8817,33472
8818,33472
8819,33536
8820,33536
8821,33536
8822,33536
8823,33536
8824,33472
8825,33344
8826,33216
8827,33152
8828,33152
8829,33088
8830,33024
8831,32896
8832,32832
8833,32832
8834,32704
8835,32640
8836,32576
8837,32576
8838,32576
8839,32512
8840,32448
8841,32512
8842,32512
8843,32576
8844,32576
8845,32576
8846,32640
8847,32640
8848,32640
8849,32704
8850,32768
8851,32704
8852,32704
8853,32768
8854,32896
8855,32832
8856,32832
8857,32896
8858,32896
8859,32896
8860,32896
8861,32832
8862,32896
8863,32896
8864,32832
8865,32832
8866,32896
8867,32896
8868,32896
8869,32896
8870,32896
8871,32896
8872,32768
8873,32768
8874,32832
8875,32832
8876,32768
8877,32768
8878,32768
8879,32768
8880,32704
8881,32704
8882,32704
8883,32768
8884,32768
8885,32704
8886,32704
8887,32768
8888,32704
8889,32704
8890,32704
8891,32704
8892,32704
8893,32704
8894,32640
8895,32704
8896,32768
8897,32768
8898,32832
8899,33024
8900,32960
8901,33152
8902,33152
8903,33216
8904,33152
8905,32960
8906,32768
8907,32640
8908,32576
8909,32448
8910,32384
8911,32384
8912,32448
8913,32448
8914,32512
8915,32448
8916,32576
8917,32704
8918,32704
8919,32704
8920,32768
8921,32832
8922,32832
8923,32832
8924,32832
8925,32832
8926,32832
8927,33088
8928,33600
8929,34304
8930,35072
8931,36032
8932,36992
8933,36992
8934,35712
8935,34048
8936,32320
8937,30976
8938,30144
8939,29760
8940,29824
8941,30272
8942,30976
8943,31552
8944,32320
8945,32320
8946,32832
8947,33024
8948,33152
8949,33216
8950,33280
8951,33280
8952,33216
8953,33152
8954,33152
8955,33088
8956,33024
8957,33024
8958,32960
8959,32960
8960,32896
8961,32896
8962,32896
8963,32960
8964,32896
8965,32896
8966,32960
8967,32960
8968,32896
8969,32896
8970,32896
8971,32960
8972,33024
8973,33024
8974,33088
8975,33024
8976,33152
8977,33152
8978,33216
8979,33280
8980,33280
8981,33344
8982,33344
8983,33408
8984,33408
8985,33408
8986,33408
8987,33472
8988,33472
8989,33472
8990,33472
8991,33536
8992,33472
8993,33408
8994,33280
8995,33280
8996,33216
8997,33152
8998,33088
8999,33024
9000,32960
9001,32896
9002,32832
9003,32768
9004,32704
9005,32576
9006,32512
9007,32448
9008,32448
9009,32448
9010,32448
9011,32512
9012,32512
9013,32576
9014,32512
9015,32576
9016,32576
9017,32640
9018,32640
9019,32640
9020,32640
9021,32704
9022,32768
9023,32768
9024,32832
9025,32896
9026,32832
9027,32768
9028,32832
9029,32896
9030,32896
9031,32832
9032,32832
9033,32896
9034,32896
9035,32896
9036,32896
9037,32896
9038,32896
9039,32832
9040,32832
9041,32832
9042,32832
9043,32768
9044,32768
9045,32768
9046,32768
9047,32768
9048,32704
9049,32704
9050,32704
9051,32704
9052,32704
9053,32704
9054,32768
9055,32704
9056,32704
9057,32640
9058,32704
9059,32704
9060,32768
9061,32768
9062,32768
9063,32768
9064,32704
9065,32768
9066,32768
9067,32768
9068,32768
9069,32768
9070,32832
9071,32896
9072,32960
9073,33024
9074,33152
9075,33280
9076,33216
9077,33152
9078,33024
9079,32896
9080,32768
9081,32576
9082,32448
9083,32384
9084,32384
9085,32384
9086,32384
9087,32448
9088,32512
9089,32512
9090,32512
9091,32640
9092,32704
9093,32704
9094,32768
9095,32768
9096,32832
9097,32768
9098,32768
9099,32768
9100,32768
9101,32832
9102,33088
9103,33536
9104,34112
9105,34816
9106,35712
9107,36800
9108,37184
9109,36224
9110,34560
9111,32832
9112,31360
9113,30400
9114,29824
9115,29824
9116,30144
9117,30720
9118,31360
9119,31936
9120,32384
9121,32768
9122,33088
9123,33152
9124,33280
9125,33280
9126,33216
9127,33152
9128,33152
9129,33152
9130,33152
9131,33024
9132,32960
9133,32960
9134,32960
9135,32960
9136,32960
9137,32896
9138,32896
9139,32832
9140,32832
9141,32896
9142,32960
9143,32960
9144,32960
9145,33024
9146,33088
9147,33088
9148,33088
9149,33088
9150,33152
9151,33216
9152,33216
9153,33216
9154,33216
9155,33280
9156,33280
9157,33280
9158,33408
9159,33472
9160,33472
9161,33536
9162,33536
9163,33536
9164,33536
9165,33472
9166,33472
9167,33408
9168,33344
9169,33280
9170,33280
9171,33280
9172,33216
9173,33152
9174,33024
9175,32960
9176,32896
9177,32768
9178,32704
9179,32704
9180,32640
9181,32576
9182,32512
9183,32512
9184,32512
9185,32448
9186,32448
9187,32512
9188,32512
9189,32576
9190,32576
9191,32576
9192,32576
9193,32640
9194,32640
9195,32704
9196,32768
9197,32768
9198,32768
9199,32768
9200,32832
9201,32832
9202,32896
9203,32896
9204,32896
9205,32896
9206,32832
9207,32832
9208,32832
9209,32896
9210,32832
9211,32832
9212,32832
9213,32832
9214,32768
9215,32704
9216,32704
9217,32768
9218,32832
9219,32832
9220,32832
9221,32832
9222,32768
9223,32704
9224,32704
9225,32704
9226,32704
9227,32640
9228,32640
9229,32704
9230,32704
9231,32640
9232,32640
9233,32640
9234,32640
9235,32576
9236,32576
9237,32576
9238,32640
9239,32640
9240,32640
9241,32704
9242,32704
9243,32704
9244,32704
9245,32704
9246,32768
9247,32768
9248,32768
9249,32832
9250,32960
9251,33024
9252,33088
9253,33152
9254,33152
9255,33152
9256,33088
9257,32896
9258,32704
9259,32512
9260,32320
9261,32192
9262,32128
9263,32128
9264,32128
9265,32192
9266,32320
9267,32448
9268,32512
9269,32576
9270,32640
9271,32704
9272,32704
9273,32704
9274,32640
9275,32704
9276,32704
9277,32704
9278,32704
9279,32704
9280,32768
9281,32960
9282,33408
9283,34048
9284,34816
9285,35776
9286,36736
9287,36864
9288,35776
9289,34176
9290,32448
9291,31040
9292,30144
9293,29760
9294,29824
9295,30272
9296,30912
9297,31552
9298,32064
9299,32448
9300,32832
9301,33024
9302,33152
9303,33280
9304,33344
9305,33280
9306,33216
9307,33216
9308,33152
9309,33152
9310,33024
9311,32960
9312,32896
9313,32896
9314,32896
9315,32896
9316,32896
9317,32960
9318,32960
9319,32960
9320,33024
9321,33024
9322,33024
9323,32960
9324,32960
9325,32960
9326,32960
9327,33024
9328,33088
9329,33152
9330,33216
9331,33152
9332,33152
9333,33216
9334,33280
9335,33344
9336,33344
9337,33408
9338,33536
9339,33600
9340,33536
9341,33600
9342,33600
9343,33600
9344,33536
9345,33536
9346,33472
9347,33472
9348,33344
9349,33344
9350,33280
9351,33216
9352,33088
9353,33024
9354,33024
9355,32960
9356,32896
9357,32832
9358,32832
9359,32768
9360,32704
9361,32640
9362,32576
9363,32576
9364,32512
9365,32512
9366,32576
9367,32640
9368,32640
9369,32640
9370,32704
9371,32768
9372,32832
9373,32768
9374,32768
9375,32768
9376,32768
9377,32768
9378,32832
9379,32896
9380,32960
9381,32960
9382,32960
9383,32960
9384,32960
9385,32960
9386,32960
9387,32960
9388,33024
9389,33024
9390,32896
9391,32960
9392,32960
9393,32896
9394,32896
9395,32960
9396,33024
9397,32960
9398,32832
9399,32768
9400,32768
9401,32768
9402,32768
9403,32832
9404,32832
9405,32896
9406,32832
9407,32768
9408,32768
9409,32768
9410,32768
9411,32704
9412,32768
9413,32832
9414,32832
9415,32832
9416,32960
9417,33088
9418,33088
9419,33024
9420,33088
9421,33152
9422,33216
9423,33216
9424,33216
9425,33216
9426,33088
9427,32896
9428,32704
9429,32512
9430,32448
9431,32256
9432,32192
9433,32256
9434,32320
9435,32384
9436,32384
9437,32448
9438,32512
9439,32512
9440,32576
9441,32576
9442,32576
9443,32640
9444,32640
9445,32704
9446,32704
9447,32704
9448,32640
9449,32576
9450,32704
9451,33024
9452,33408
9453,33984
9454,34752
9455,35712
9456,36416
9457,35968
9458,34624
9459,33216
9460,31808
9461,30656
9462,30080
9463,29824
9464,29952
9465,30400
9466,31040
9467,31680
9468,32064
9469,32448
9470,32704
9471,32896
9472,33024
9473,33024
9474,33024
9475,32960
9476,32960
9477,32896
9478,32896
9479,32832
9480,32768
9481,32704
9482,32704
9483,32704
9484,32640
9485,32576
9486,32576
9487,32640
9488,32640
9489,32704
9490,32704
9491,32768
9492,32768
9493,32704
9494,32640
9495,32704
9496,32768
9497,32832
9498,32832
9499,32832
9500,32896
9501,32960
9502,32960
9503,32960
9504,33088
9505,33152
9506,33152
9507,33152
9508,33152
9509,33216
9510,33216
9511,33216
9512,33216
9513,33280
9514,33216
9515,33152
9516,33152
9517,33088
9518,33088
9519,33024
9520,32960
9521,32960
9522,32896
9523,32768
9524,32768
9525,32704
9526,32704
9527,32576
9528,32512
9529,32448
9530,32448
9531,32448
9532,32448
9533,32448
9534,32448
9535,32384
9536,32384
9537,32448
9538,32512
9539,32512
9540,32576
9541,32640
9542,32704
9543,32768
9544,32704
9545,32768
9546,32832
9547,32896
9548,32832
9549,32832
9550,32896
9551,32896
9552,32832
9553,32832
9554,32832
9555,32832
9556,32832
9557,32768
9558,32832
9559,32832
9560,32768
9561,32768
9562,32768
9563,32832
9564,32832
9565,32832
9566,32832
9567,32832
9568,32832
9569,32832
9570,32832
9571,32896
9572,32832
9573,32704
9574,32768
9575,32768
9576,32832
9577,32768
9578,32832
9579,32832
9580,32832
9581,32896
9582,32896
9583,32960
9584,33024
9585,33024
9586,33024
9587,33088
9588,33088
9589,33152
9590,33216
9591,33280
9592,33344
9593,33280
9594,33152
9595,33088
9596,33024
9597,32832
9598,32704
9599,32576
9600,32512
9601,32448
9602,32384
9603,32448
9604,32512
9605,32640
9606,32640
9607,32704
9608,32768
9609,32896
9610,32896
9611,32896
9612,32896
9613,32960
9614,32960
9615,32960
9616,32960
9617,32896
9618,32896
9619,32960
9620,33280
9621,33792
9622,34368
9623,35136
9624,36096
9625,36992
9626,36672
9627,35264
9628,33664
9629,32192
9630,31040
9631,30400
9632,30080
9633,30272
9634,30784
9635,31424
9636,31936
9637,32512
9638,32896
9639,33152
9640,33344
9641,33472
9642,33536
9643,33472
9644,33408
9645,33408
9646,33344
9647,33280
9648,33152
9649,33152
9650,33152
9651,33152
9652,33088
9653,33024
9654,33024
9655,33024
9656,33088
9657,33088
9658,33152
9659,33152
9660,33152
9661,33152
9662,33152
9663,33216
9664,33216
9665,33216
9666,33280
9667,33280
9668,33344
9669,33280
9670,33344
9671,33408
9672,33472
9673,33472
9674,33472
9675,33536
9676,33536
9677,33536
9678,33536
9679,33536
9680,33600
9681,33536
9682,33536
9683,33536
9684,33472
9685,33472
9686,33344
9687,33344
9688,33344
9689,33344
9690,33280
9691,33216
9692,33216
9693,33152
9694,33024
9695,32896
9696,32832
9697,32768
9698,32704
9699,32640
9700,32640
9701,32640
9702,32576
9703,32576
9704,32576
9705,32640
9706,32640
9707,32704
9708,32768
9709,32832
9710,32832
9711,32832
9712,32896
9713,32960
9714,32960
9715,32960
9716,32960
9717,33088
9718,33088
9719,33024
9720,33024
9721,33024
9722,33024
9723,32960
9724,33024
9725,33088
9726,33088
9727,33024
9728,32960
9729,32960
9730,33024
9731,33024
9732,33024
9733,33024
9734,32960
9735,32960
9736,32896
9737,32832
9738,32832
9739,32832
9740,32768
9741,32768
9742,32832
9743,32896
9744,32896
9745,32896
9746,32896
9747,32896
9748,32832
9749,32832
9750,32896
9751,32896
9752,32832
9753,32832
9754,32832
9755,32832
9756,32832
9757,32768
9758,32832
9759,32832
9760,32896
9761,32896
9762,32896
9763,32960
9764,33024
9765,33088
9766,33152
9767,33152
9768,33088
9769,33088
9770,33088
9771,33152
9772,33216
9773,33216
9774,33152
9775,33088
9776,33088
9777,32960
9778,32896
9779,32768
9780,32640
9781,32576
9782,32448
9783,32448
9784,32512
9785,32512
9786,32576
9787,32640
9788,32768
9789,32768
9790,32768
9791,32832
9792,32896
9793,32896
9794,32832
9795,32832
9796,32896
9797,32896
9798,32832
9799,32832
9800,32960
9801,33280
9802,33792
9803,34432
9804,35200
9805,36224
9806,37184
9807,36992
9808,35648
9809,33984
9810,32256
9811,30912
9812,30080
9813,29760
9814,29888
9815,30336
9816,30976
9817,31616
9818,32192
9819,32576
9820,32896
9821,33216
9822,33344
9823,33408
9824,33408
9825,33344
9826,33344
9827,33280
9828,33152
9829,33152
9830,33088
9831,33024
9832,32960
9833,32960
9834,33024
9835,32960
9836,32960
9837,32960
9838,32960
9839,32960
9840,32896
9841,32960
9842,33024
9843,33024
9844,33024
9845,33024
9846,33088
9847,33088
9848,33088
9849,33088
9850,33152
9851,33216
9852,33216
9853,33216
9854,33280
9855,33344
9856,33408
9857,33408
9858,33408
9859,33472
9860,33536
9861,33472
9862,33472
9863,33536
9864,33536
9865,33472
9866,33408
9867,33344
9868,33280
9869,33216
9870,33152
9871,33152
9872,33216
9873,33152
9874,32960
9875,32896
9876,32832
9877,32768
9878,32640
9879,32640
9880,32640
9881,32576
9882,32512
9883,32512
9884,32512
9885,32512
9886,32448
9887,32512
9888,32512
9889,32576
9890,32640
9891,32640
9892,32704
9893,32768
9894,32768
9895,32768
9896,32832
9897,32896
9898,32896
9899,32896
9900,32960
9901,32960
9902,32960
9903,32960
9904,32960
9905,32960
9906,32960
9907,32896
9908,32896
9909,32896
9910,32896
9911,32896
9912,32832
9913,32832
9914,32896
9915,32896
9916,32832
9917,32768
9918,32768
9919,32704
9920,32704
9921,32768
9922,32768
9923,32704
9924,32768
9925,32768
9926,32768
9927,32768
9928,32768
9929,32768
9930,32768
9931,32768
9932,32768
9933,32768
9934,32832
9935,32832
9936,32768
9937,32768
9938,32832
9939,32768
9940,32768
9941,32704
9942,32704
9943,32704
9944,32704
9945,32768
9946,32832
9947,32832
9948,32832
9949,32832
9950,32832
9951,32832
9952,32768
9953,32704
9954,32768
9955,32832
9956,32832
9957,32768
9958,32768
9959,32832
9960,32832
9961,32832
9962,32896
9963,32960
9964,33024
9965,33024
9966,33024
9967,33088
9968,33152
9969,33152
9970,33088
9971,33152
9972,33216
9973,33152
9974,33024
9975,32960
9976,32832
9977,32768
9978,32640
9979,32512
9980,32448
9981,32384
9982,32384
9983,32448
9984,32512
9985,32576
9986,32576
9987,32640
9988,32704
9989,32768
9990,32832
9991,32832
9992,32832
9993,32832
9994,32768
9995,32768
9996,32832
9997,32832
9998,33088
9999,33472
10000,34112
10001,34816
10002,35840
10003,36992
10004,37504
10005,36544
10006,34624
10007,34432
10008,31488
10009,30400
10010,30272
10011,29696
10012,30016
10013,30656
10014,31296
10015,31936
10016,32448
10017,32832
10018,33024
10019,33216
10020,33344
10021,33472
10022,33408
10023,33408
10024,33344
10025,33280
10026,33216
10027,33088
10028,33024
10029,33024
10030,32960
10031,32896
10032,32896
10033,32960
10034,32960
10035,32960
10036,32960
10037,32896
10038,32960
10039,32960
10040,32960
10041,33024
10042,33088
10043,33088
10044,33088
10045,33152
10046,33216
10047,33216
10048,33216
10049,33216
10050,33280
10051,33280
10052,33280
10053,33344
10054,33408
10055,33344
10056,33408
10057,33472
10058,33536
10059,33536
10060,33536
10061,33472
10062,33472
10063,33472
10064,33408
10065,33344
10066,33280
10067,33216
10068,33152
10069,33152
10070,33088
10071,33088
10072,33024
10073,32896
10074,32832
10075,32768
10076,32768
10077,32640
10078,32640
10079,32640
10080,32640
10081,32640
10082,32576
10083,32576
10084,32576
10085,32576
10086,32512
10087,32640
10088,32704
10089,32768
10090,32768
10091,32768
10092,32768
10093,32768
10094,32768
10095,32832
10096,32896
10097,32960
10098,32896
10099,32896
10100,32960
10101,32960
10102,32896
10103,32896
10104,32896
10105,32896
10106,32832
10107,32832
10108,32832
10109,32896
10110,32896
10111,32896
10112,32960
10113,32960
10114,32896
10115,32832
10116,32832
10117,32832
10118,32768
10119,32704
10120,32640
10121,32704
10122,32704
10123,32704
10124,32768
10125,32768
10126,32832
10127,32832
10128,32832
10129,32832
10130,32832
10131,32704
10132,32640
10133,32640
10134,32704
10135,32640
10136,32640
10137,32704
10138,32768
10139,32704
10140,32704
10141,32768
10142,32768
10143,32768
10144,32768
10145,32768
10146,32768
10147,32704
10148,32704
10149,32704
10150,32768
10151,32768
10152,32768
10153,32768
10154,32768
10155,32832
10156,32768
10157,32768
10158,32768
10159,32832
10160,32768
10161,32704
10162,32704
10163,32704
10164,32704
10165,32704
10166,32704
10167,32768
10168,32832
10169,32896
10170,33024
10171,33152
10172,33216
10173,33152
10174,33152
10175,33088
10176,32896
10177,32768
10178,32640
10179,32576
10180,32576
10181,32512
10182,32448
10183,32512
10184,32576
10185,32576
10186,32640
10187,32704
10188,32704
10189,32768
10190,32768
10191,32832
10192,32896
10193,32832
10194,32768
10195,32768
10196,32832
10197,32768
10198,32960
10199,33344
10200,33920
10201,34688
10202,35776
10203,36736
10204,37376
10205,36608
10206,35008
10207,33216
10208,31680
10209,30528
10210,29888
10211,29696
10212,30016
10213,30592
10214,31296
10215,31872
10216,32320
10217,32768
10218,32960
10219,33152
10220,33280
10221,33344
10222,33344
10223,33280
10224,33280
10225,33280
10226,33152
10227,33088
10228,33024
10229,32960
10230,32960
10231,32896
10232,32896
10233,32960
10234,32960
10235,32960
10236,32960
10237,32960
10238,32960
10239,33024
10240,33024
10241,33024
10242,33024
10243,33024
10244,32960
10245,33024
10246,33088
10247,33088
10248,33088
10249,33152
10250,33216
10251,33216
10252,33216
10253,33280
10254,33344
10255,33408
10256,33408
10257,33408
10258,33472
10259,33472
10260,33472
10261,33536
10262,33536
10263,33472
10264,33344
10265,33280
10266,33216
10267,33152
10268,33088
10269,33024
10270,33024
10271,33024
10272,32960
10273,32832
10274,32704
10275,32704
10276,32704
10277,32640
10278,32576
10279,32576
10280,32512
10281,32448
10282,32448
10283,32448
10284,32448
10285,32448
10286,32448
10287,32512
10288,32576
10289,32576
10290,32576
10291,32640
10292,32704
10293,32704
10294,32704
10295,32768
10296,32832
10297,32832
10298,32832
10299,32832
10300,32896
10301,32896
10302,32896
10303,32896
10304,32896
10305,32896
10306,32896
10307,32832
10308,32832
10309,32768
10310,32768
10311,32704
10312,32768
10313,32832
10314,32896
10315,32832
10316,32768
10317,32768
10318,32768
10319,32704
10320,32704
10321,32704
10322,32704
10323,32640
10324,32704
10325,32704
10326,32704
10327,32640
10328,32704
10329,32768
10330,32768
10331,32704
10332,32640
10333,32640
10334,32704
10335,32768
10336,32768
10337,32768
10338,32768
10339,32704
10340,32704
10341,32640
10342,32704
10343,32704
10344,32640
10345,32704
10346,32704
10347,32640
10348,32512
10349,32512
10350,32576
10351,32576
10352,32512
10353,32576
10354,32576
10355,32640
10356,32576
10357,32576
10358,32576
10359,32576
10360,32512
10361,32448
10362,32512
10363,32512
10364,32576
10365,32576
10366,32640
10367,32768
10368,32896
10369,33024
10370,33024
10371,33024
10372,32960
10373,32832
10374,32768
10375,32704
10376,32576
10377,32448
10378,32384
10379,32384
10380,32384
10381,32384
10382,32448
10383,32512
10384,32576
10385,32640
10386,32640
10387,32704
10388,32704
10389,32704
10390,32704
10391,32640
10392,32704
10393,32640
10394,32576
10395,32768
10396,33088
10397,33600
10398,34240
10399,35072
10400,36160
10401,36864
10402,36224
10403,34816
10404,33280
10405,31808
10406,30656
10407,30016
10408,29824
10409,30080
10410,30592
10411,31232
10412,31872
10413,32320
10414,32768
10415,32960
10416,33088
10417,33216
10418,33216
10419,33152
10420,33152
10421,33152
10422,33088
10423,33024
10424,32960
10425,33024
10426,33024
10427,32960
10428,32832
10429,32832
10430,32832
10431,32832
10432,32768
10433,32768
10434,32832
10435,32832
10436,32832
10437,32896
10438,32960
10439,33024
10440,33024
10441,33088
10442,33152
10443,33152
10444,33152
10445,33152
10446,33216
10447,33216
10448,33216
10449,33216
10450,33280
10451,33344
10452,33280
10453,33280
10454,33344
10455,33344
10456,33408
10457,33408
10458,33472
10459,33472
10460,33472
10461,33408
10462,33344
10463,33344
10464,33280
10465,33152
10466,33152
10467,33152
10468,33152
10469,33024
10470,33024
10471,33024
10472,32896
10473,32768
10474,32704
10475,32704
10476,32640
10477,32640
10478,32576
10479,32576
10480,32576
10481,32576
10482,32576
10483,32640
10484,32640
10485,32704
10486,32704
10487,32768
10488,32832
10489,32960
10490,32896
10491,32960
10492,32960
10493,32960
10494,32960
10495,32960
10496,32960
10497,32960
10498,32960
10499,32960
10500,33024
10501,33024
10502,32960
10503,32896
10504,32896
10505,32896
10506,32896
10507,32896
10508,32960
10509,32960
10510,32960
10511,32896
10512,32832
10513,32832
10514,32832
10515,32768
10516,32768
10517,32768
10518,32768
10519,32704
10520,32704
10521,32704
10522,32704
10523,32704
10524,32704
10525,32768
10526,32768
10527,32832
10528,32768
10529,32768
10530,32768
10531,32768
10532,32832
10533,32832
10534,32832
10535,32832
10536,32832
10537,32832
10538,32832
10539,32768
10540,32704
10541,32704
10542,32704
10543,32704
10544,32704
10545,32704
10546,32768
10547,32832
10548,32896
10549,33152
10550,33216
10551,33344
10552,33280
10553,33216
10554,33088
10555,33024
10556,32832
10557,32704
10558,32576
10559,32576
10560,32640
10561,32640
10562,32640
10563,32704
10564,32704
10565,32704
10566,32768
10567,32832
10568,32896
10569,32832
10570,32832
10571,32832
10572,32832
10573,32832
10574,32832
10575,32896
10576,33152
10577,33472
10578,33984
10579,34688
10580,35648
10581,36544
10582,36672
10583,35648
10584,34176
10585,32704
10586,31424
10587,30592
10588,30208
10589,30208
10590,30464
10591,31104
10592,31744
10593,32256
10594,32768
10595,32960
10596,33216
10597,33344
10598,33408
10599,33344
10600,33344
10601,33344
10602,33280
10603,33152
10604,33152
10605,33152
10606,33088
10607,33024
10608,32960
10609,33024
10610,32960
10611,32960
10612,32960
10613,32960
10614,33024
10615,33024
10616,32960
10617,32960
10618,33024
10619,33024
10620,33024
10621,33088
10622,33088
10623,33152
10624,33216
10625,33216
10626,33216
10627,33216
10628,33216
10629,33216
10630,33280
10631,33344
10632,33408
10633,33472
10634,33536
10635,33536
10636,33600
10637,33600
10638,33600
10639,33600
10640,33536
10641,33472
10642,33472
10643,33472
10644,33344
10645,33280
10646,33216
10647,33152
10648,33088
10649,32960
10650,32960
10651,32960
10652,32896
10653,32832
10654,32704
10655,32704
10656,32640
10657,32640
10658,32576
10659,32576
10660,32576
10661,32576
10662,32640
10663,32704
10664,32704
10665,32704
10666,32704
10667,32768
10668,32768
10669,32768
10670,32768
10671,32832
10672,32896
10673,32896
10674,32896
10675,32960
10676,33024
10677,33024
10678,33024
10679,33024
10680,33024
10681,33088
10682,33088
10683,33024
10684,33024
10685,33024
10686,32960
10687,32960
10688,32896
10689,32896
10690,32832
10691,32832
10692,32832
10693,32832
10694,32832
10695,32832
10696,32896
10697,32896
10698,32832
10699,32768
10700,32768
10701,32768
10702,32768
10703,32768
10704,32768
10705,32832
10706,32768
10707,32768
10708,32768
10709,32832
10710,32832
10711,32832
10712,32832
10713,32832
10714,32896
10715,32832
10716,32832
10717,32832
10718,32832
10719,32768
10720,32768
10721,32768
10722,32704
10723,32704
10724,32704
10725,32704
10726,32768
10727,32704
10728,32768
10729,32896
10730,33024
10731,33088
10732,33152
10733,33216
10734,33216
10735,33152
10736,32960
10737,32832
10738,32768
10739,32704
10740,32576
10741,32512
10742,32512
10743,32512
10744,32512
10745,32576
10746,32576
10747,32704
10748,32768
10749,32832
10750,32832
10751,32832
10752,32832
10753,32768
10754,32768
10755,32832
10756,32832
10757,33152
10758,33344
10759,34176
10760,34624
10761,35392
10762,36416
10763,37248
10764,36672
10765,35200
10766,33472
10767,31936
10768,30720
10769,29952
10770,29696
10771,29952
10772,30528
10773,31168
10774,31808
10775,32320
10776,32768
10777,32960
10778,33088
10779,33216
10780,33280
10781,33344
10782,33344
10783,33280
10784,33216
10785,33216
10786,33088
10787,33024
10788,33024
10789,32960
10790,32960
10791,32896
10792,32960
10793,32960
10794,32960
10795,32960
10796,32960
10797,33024
10798,32960
10799,33024
10800,33024
10801,33088
10802,33024
10803,33024
10804,33152
10805,33152
10806,33216
10807,33216
10808,33216
10809,33216
10810,33216
10811,33280
10812,33280
10813,33344
10814,33408
10815,33472
10816,33472
10817,33536
10818,33600
10819,33600
10820,33600
10821,33600
10822,33600
10823,33472
10824,33408
10825,33344
10826,33280
10827,33216
10828,33152
10829,33088
10830,33088
10831,33024
10832,32960
10833,32896
10834,32832
10835,32768
10836,32640
10837,32576
10838,32576
10839,32576
10840,32512
10841,32512
10842,32512
10843,32576
10844,32640
10845,32576
10846,32640
10847,32704
10848,32704
10849,32768
10850,32768
10851,32832
10852,32896
10853,32832
10854,32832
10855,32832
10856,32896
10857,32896
10858,32960
10859,33024
10860,33024
10861,33024
10862,33024
10863,33088
10864,33088
10865,33024
10866,33088
10867,33024
10868,33024
10869,32960
10870,32960
10871,32960
10872,32960
10873,32896
10874,32832
10875,32832
10876,32832
10877,32832
10878,32832
10879,32832
10880,32832
10881,32832
10882,32768
10883,32768
10884,32832
10885,32832
10886,32832
10887,32832
10888,32896
10889,32896
10890,32832
10891,32832
10892,32832
10893,32832
10894,32896
10895,32896
10896,32960
10897,32896
10898,32896
10899,32832
10900,32832
10901,32832
10902,32832
10903,32768
10904,32768
10905,32768
10906,32768
10907,32768
10908,32768
10909,32896
10910,32896
10911,32896
10912,32896
10913,32960
10914,33152
10915,33280
10916,33280
10917,33280
10918,33216
10919,33024
10920,32832
10921,32768
10922,32704
10923,32640
10924,32576
