,ECG
0,33280
1,33344
2,33344
3,33408
4,33472
5,33536
6,33600
7,33728
8,33728
9,33792
10,33792
11,33856
12,33920
13,33984
14,34048
15,34048
16,34048
17,34112
18,34112
19,34176
20,34176
21,34176
22,34112
23,34112
24,34112
25,34048
26,34048
27,34048
28,34048
29,33984
30,33984
31,33920
32,33920
33,33920
34,33856
35,33792
36,33728
37,33728
38,33792
39,33920
40,34048
41,34176
42,34304
43,34432
44,34560
45,34752
46,34816
47,34816
48,34752
49,34624
50,34432
51,34176
52,33856
53,33664
54,33472
55,33216
56,33152
57,33088
58,33152
59,33152
60,33216
61,33280
62,33344
63,33344
64,33344
65,33472
66,33536
67,33600
68,33600
69,33664
70,33664
71,33536
72,33280
73,33024
74,32832
75,32960
76,33664
77,35392
78,38144
79,41344
80,43904
81,44800
82,43200
83,40640
84,37568
85,34880
86,32704
87,31232
88,30464
89,30400
90,30656
91,31040
92,31360
93,31680
94,32000
95,32256
96,32448
97,32640
98,32832
99,32960
100,33088
101,33152
102,33280
103,33344
104,33472
105,33472
106,33536
107,33600
108,33664
109,33728
110,33792
111,33856
112,33920
113,33856
114,33920
115,33984
116,34112
117,34112
118,34176
119,34176
120,34176
121,34176
122,34176
123,34240
124,34304
125,34368
126,34368
127,34432
128,34432
129,34560
130,34560
131,34624
132,34624
133,34688
134,34688
135,34752
136,34816
137,34816
138,34880
139,34880
140,34816
141,34816
142,34688
143,34688
144,34688
145,34688
146,34688
147,34688
148,34624
149,34688
150,34560
151,34496
152,34432
153,34368
154,34304
155,34240
156,34176
157,34112
158,33984
159,33856
160,33728
161,33600
162,33472
163,33408
164,33344
165,33280
166,33280
167,33216
168,33280
169,33344
170,33344
171,33344
172,33408
173,33472
174,33600
175,33600
176,33664
177,33728
178,33792
179,33856
180,33856
181,33920
182,33920
183,33920
184,33920
185,33920
186,33920
187,33984
188,33984
189,33984
190,33984
191,33984
192,33984
193,33920
194,33920
195,33856
196,33856
197,33856
198,33856
199,33856
200,33792
201,33728
202,33728
203,33728
204,33728
205,33728
206,33664
207,33728
208,33856
209,33984
210,34112
211,34176
212,34240
213,34304
214,34432
215,34624
216,34688
217,34688
218,34688
219,34624
220,34496
221,34304
222,34112
223,33856
224,33664
225,33408
226,33216
227,33088
228,33088
229,33152
230,33152
231,33152
232,33280
233,33280
234,33344
235,33472
236,33472
237,33536
238,33600
239,33600
240,33600
241,33600
242,33472
243,33152
244,32896
245,32896
246,33216
247,34304
248,36544
249,39936
250,42752
251,44672
252,44416
253,42368
254,39296
255,36288
256,33728
257,31872
258,30720
259,30272
260,30336
261,30720
262,31296
263,31424
264,31744
265,32064
266,32256
267,32448
268,32640
269,32832
270,32960
271,33024
272,33152
273,33216
274,33344
275,33408
276,33472
277,33600
278,33600
279,33728
280,33728
281,33792
282,33792
283,33792
284,33792
285,33856
286,33920
287,33984
288,33984
289,34048
290,34112
291,34176
292,34240
293,34240
294,34240
295,34240
296,34176
297,34240
298,34304
299,34304
300,34432
301,34496
302,34624
303,34752
304,34752
305,34752
306,34752
307,34752
308,34816
309,34816
310,34816
311,34816
312,34752
313,34752
314,34688
315,34688
316,34624
317,34560
318,34560
319,34560
320,34496
321,34496
322,34432
323,34368
324,34368
325,34304
326,34112
327,33984
328,33856
329,33792
330,33664
331,33472
332,33344
333,33280
334,33216
335,33152
336,33152
337,33088
338,33024
339,33088
340,33088
341,33152
342,33216
343,33280
344,33280
345,33344
346,33344
347,33408
348,33472
349,33536
350,33600
351,33664
352,33728
353,33792
354,33792
355,33856
356,33856
357,33856
358,33920
359,33920
360,33920
361,33920
362,33856
363,33792
364,33792
365,33792
366,33792
367,33792
368,33792
369,33792
370,33728
371,33664
372,33664
373,33664
374,33664
375,33664
376,33664
377,33664
378,33664
379,33664
380,33728
381,33856
382,34048
383,34048
384,34112
385,34176
386,34240
387,34432
388,34496
389,34560
390,34560
391,34496
392,34368
393,34176
394,34048
395,33856
396,33600
397,33344
398,33216
399,33152
400,33088
401,33088
402,33152
403,33216
404,33280
405,33344
406,33344
407,33344
408,33408
409,33472
410,33536
411,33536
412,33600
413,33600
414,33600
415,33408
416,33088
417,32896
418,32896
419,33408
420,34752
421,37120
422,40192
423,43008
424,44352
425,43520
426,40960
427,37056
428,35328
429,33088
430,31360
431,30592
432,30400
433,30592
434,30976
435,31360
436,31744
437,32000
438,32256
439,32448
440,32576
441,32768
442,32896
443,32960
444,33088
445,33216
446,33280
447,33408
448,33472
449,33536
450,33600
451,33600
452,33600
453,33664
454,33664
455,33728
456,33728
457,33792
458,33792
459,33856
460,33856
461,33920
462,33984
463,34048
464,34112
465,34176
466,34240
467,34240
468,34304
469,34368
470,34432
471,34432
472,34496
473,34496
474,34560
475,34624
476,34688
477,34752
478,34752
479,34752
480,34752
481,34688
482,34688
483,34624
484,34624
485,34624
486,34624
487,34624
488,34624
489,34624
490,34624
491,34560
492,34560
493,34496
494,34432
495,34368
496,34304
497,34240
498,34176
499,34112
500,33984
501,33920
502,33728
503,33664
504,33536
505,33408
506,33344
507,33280
508,33216
509,33152
510,33152
511,33152
512,33088
513,33088
514,33088
515,33152
516,33216
517,33344
518,33472
519,33600
520,33664
521,33664
522,33728
523,33728
524,33792
525,33856
526,33920
527,33920
528,33920
529,33920
530,33984
531,33984
532,34048
533,34112
534,34176
535,34112
536,34048
537,34048
538,34048
539,33984
540,33984
541,33920
542,33920
543,33920
544,33792
545,33728
546,33664
547,33728
548,33856
549,33984
550,34176
551,34240
552,34240
553,34368
554,34496
555,34560
556,34496
557,34496
558,34368
559,34304
560,34176
561,34112
562,33920
563,33792
564,33536
565,33344
566,33216
567,33152
568,33152
569,33216
570,33280
571,33344
572,33472
573,33472
574,33408
575,33408
576,33344
577,33408
578,33472
579,33472
580,33536
581,33536
582,33408
583,33152
584,32960
585,32960
586,33408
587,34688
588,36864
589,39808
590,42688
591,44224
592,43648
593,41280
594,38400
595,35584
596,33408
597,31680
598,30720
599,30336
600,30464
601,30912
602,31360
603,31744
604,32064
605,32320
606,32576
607,32768
608,33024
609,33152
610,33216
611,33280
612,33344
613,33408
614,33472
615,33536
616,33600
617,33664
618,33728
619,33792
620,33920
621,33984
622,33984
623,34048
624,34048
625,34048
626,33984
627,34048
628,34112
629,34176
630,34240
631,34304
632,34432
633,34432
634,34432
635,34368
636,34368
637,34432
638,34496
639,34560
640,34624
641,34688
642,34752
643,34816
644,34880
645,34880
646,34944
647,34944
648,34944
649,34944
650,34944
651,34944
652,34880
653,34880
654,34816
655,34752
656,34688
657,34688
658,34560
659,34560
660,34496
661,34496
662,34496
663,34432
664,34432
665,34368
666,34304
667,34112
668,33920
669,33792
670,33664
671,33536
672,33408
673,33344
674,33280
675,33216
676,33216
677,33216
678,33280
679,33280
680,33280
681,33344
682,33408
683,33472
684,33536
685,33536
686,33536
687,33600
688,33728
689,33792
690,33856
691,33920
692,33984
693,34048
694,34048
695,34112
696,34176
697,34112
698,34112
699,34112
700,34112
701,34112
702,34112
703,34176
704,34176
705,34176
706,34112
707,34112
708,34048
709,33984
710,33984
711,33920
712,33856
713,33792
714,33792
715,33728
716,33792
717,33984
718,34048
719,34176
720,34240
721,34304
722,34304
723,34432
724,34496
725,34560
726,34624
727,34624
728,34560
729,34496
730,34304
731,34176
732,33984
733,33728
734,33536
735,33344
736,33280
737,33216
738,33216
739,33280
740,33280
741,33344
742,33344
743,33408
744,33472
745,33472
746,33600
747,33664
748,33728
749,33792
750,33728
751,33536
752,33216
753,33024
754,33024
755,33344
756,34496
757,36864
758,39744
759,42880
760,44608
761,44288
762,42112
763,39104
764,36224
765,33728
766,31872
767,30784
768,30336
769,30464
770,30784
771,31168
772,31552
773,31872
774,32192
775,32448
776,32640
777,32832
778,33024
779,33152
780,33216
781,33280
782,33408
783,33472
784,33536
785,33600
786,33600
787,33664
788,33728
789,33728
790,33728
791,33792
792,33856
793,33920
794,33984
795,33984
796,33984
797,33984
798,33984
799,34048
800,34112
801,34176
802,34176
803,34240
804,34304
805,34368
806,34432
807,34432
808,34496
809,34560
810,34560
811,34688
812,34752
813,34752
814,34880
815,34880
816,34944
817,34880
818,34880
819,34880
820,34880
821,34944
822,34880
823,34880
824,34816
825,34752
826,34752
827,34688
828,34688
829,34688
830,34624
831,34560
832,34496
833,34368
834,34304
835,34176
836,34048
837,33920
838,33856
839,33728
840,33600
841,33472
842,33344
843,33280
844,33216
845,33152
846,33216
847,33152
848,33152
849,33152
850,33152
851,33152
852,33216
853,33280
854,33344
855,33408
856,33472
857,33472
858,33600
859,33664
860,33664
861,33728
862,33792
863,33920
864,33920
865,33920
866,33920
867,33984
868,33984
869,33984
870,34048
871,34048
872,34048
873,34048
874,33920
875,33856
876,33856
877,33792
878,33728
879,33728
880,33792
881,33728
882,33728
883,33728
884,33728
885,33792
886,33792
887,33792
888,33856
889,33920
890,34112
891,34240
892,34304
893,34240
894,34240
895,34304
896,34368
897,34496
898,34560
899,34560
900,34496
901,34432
902,34240
903,34176
904,33984
905,33792
906,33536
907,33344
908,33280
909,33216
910,33216
911,33280
912,33344
913,33408
914,33408
915,33472
916,33536
917,33600
918,33600
919,33600
920,33664
921,33728
922,33728
923,33600
924,33344
925,33088
926,32960
927,33152
928,33984
929,35840
930,38656
931,41856
932,44288
933,44928
934,43392
935,40512
936,37504
937,34816
938,32640
939,31232
940,30528
941,30464
942,30784
943,31104
944,31424
945,31744
946,32000
947,32256
948,32448
949,32640
950,32832
951,32960
952,33088
953,33216
954,33280
955,33408
956,33408
957,33472
958,33536
959,33600
960,33600
961,33664
962,33664
963,33728
964,33792
965,33856
966,33920
967,33920
968,33984
969,33984
970,34048
971,34112
972,34112
973,34176
974,34240
975,34240
976,34304
977,34304
978,34368
979,34432
980,34432
981,34496
982,34560
983,34560
984,34624
985,34688
986,34752
987,34816
988,34816
989,34880
990,34944
991,34944
992,35008
993,34944
994,34944
995,34880
996,34880
997,34816
998,34752
999,34688
1000,34688
1001,34624
1002,34624
1003,34560
1004,34496
1005,34368
1006,34240
1007,34112
1008,34048
1009,33920
1010,33728
1011,33536
1012,33408
1013,33280
1014,33152
1015,33088
1016,33088
1017,33088
1018,33024
1019,33024
1020,33024
1021,33024
1022,33024
1023,33088
1024,33088
1025,33216
1026,33280
1027,33344
1028,33472
1029,33472
1030,33536
1031,33536
1032,33600
1033,33664
1034,33664
1035,33728
1036,33728
1037,33792
1038,33792
1039,33792
1040,33856
1041,33856
1042,33920
1043,33920
1044,33984
1045,33920
1046,33920
1047,33920
1048,33920
1049,33920
1050,33920
1051,33856
1052,33856
1053,33856
1054,33728
1055,33728
1056,33728
1057,33728
1058,33728
1059,33856
1060,33920
1061,34048
1062,34112
1063,34176
1064,34176
1065,34304
1066,34432
1067,34496
1068,34560
1069,34560
1070,34560
1071,34432
1072,34304
1073,34240
1074,34112
1075,33728
1076,33536
1077,33344
1078,33216
1079,33152
1080,33152
1081,33152
1082,33216
1083,33280
1084,33344
1085,33408
1086,33472
1087,33536
1088,33600
1089,33600
1090,33600
1091,33664
1092,33600
1093,33472
1094,33216
1095,32960
1096,32832
1097,32960
1098,33664
1099,35392
1100,38016
1101,41024
1102,43392
1103,44032
1104,42496
1105,39808
1106,36992
1107,34496
1108,32512
1109,31168
1110,30464
1111,30336
1112,30592
1113,31040
1114,31424
1115,31808
1116,32128
1117,32384
1118,32576
1119,32768
1120,32896
1121,33088
1122,33152
1123,33216
1124,33280
1125,33280
1126,33344
1127,33408
1128,33536
1129,33600
1130,33664
1131,33664
1132,33728
1133,33792
1134,33792
1135,33920
1136,34176
1137,34304
1138,34112
1139,33920
1140,33728
1141,33728
1142,33792
1143,33856
1144,33920
1145,33984
1146,34048
1147,34112
1148,34112
1149,34176
1150,34432
1151,34560
1152,34688
1153,34752
1154,34816
1155,34816
1156,34816
1157,34816
1158,34816
1159,34880
1160,34880
1161,34880
1162,34816
1163,34752
1164,34752
1165,34752
1166,34688
1167,34624
1168,34560
1169,34624
1170,34624
1171,34560
1172,34496
1173,34496
1174,34432
1175,34368
1176,34240
1177,34176
1178,34048
1179,33984
1180,33856
1181,33728
1182,33664
1183,33536
1184,33344
1185,33280
1186,33216
1187,33216
1188,33152
1189,33152
1190,33152
1191,33152
1192,33088
1193,33088
1194,33152
1195,33216
1196,33280
1197,33408
1198,33408
1199,33408
1200,33472
1201,33536
1202,33600
1203,33728
1204,33792
1205,33920
1206,33920
1207,33984
1208,34048
1209,34048
1210,34048
1211,34112
1212,34112
1213,34176
1214,34176
1215,34176
1216,34176
1217,34112
1218,34048
1219,34048
1220,33984
1221,33920
1222,33792
1223,33792
1224,33792
1225,33856
1226,33920
1227,33984
1228,34112
1229,34176
1230,34240
1231,34240
1232,34368
1233,34496
1234,34624
1235,34688
1236,34752
1237,34752
1238,34624
1239,34496
1240,34368
1241,34176
1242,33984
1243,33664
1244,33408
1245,33280
1246,33152
1247,33152
1248,33152
1249,33152
1250,33152
1251,33216
1252,33280
1253,33344
1254,33472
1255,33472
1256,33536
1257,33600
1258,33664
1259,33664
1260,33600
1261,33344
1262,33088
1263,32896
1264,33024
1265,33664
1266,35328
1267,37952
1268,41088
1269,43712
1270,44544
1271,43200
1272,40512
1273,37568
1274,34944
1275,32832
1276,31360
1277,30592
1278,30464
1279,30656
1280,31040
1281,31424
1282,31808
1283,32128
1284,32320
1285,32576
1286,32768
1287,32960
1288,33088
1289,33216
1290,33280
1291,33408
1292,33536
1293,33600
1294,33664
1295,33792
1296,33856
1297,33856
1298,33920
1299,33984
1300,34048
1301,33984
1302,33984
1303,34048
1304,34048
1305,34048
1306,34048
1307,34112
1308,34240
1309,34304
1310,34304
1311,34304
1312,34368
1313,34368
1314,34368
1315,34432
1316,34432
1317,34496
1318,34560
1319,34624
1320,34752
1321,34752
1322,34816
1323,34880
1324,34944
1325,35008
1326,34944
1327,35008
1328,35008
1329,35072
1330,35072
1331,35072
1332,35008
1333,34944
1334,34816
1335,34816
1336,34752
1337,34752
1338,34688
1339,34688
1340,34624
1341,34560
1342,34496
1343,34368
1344,34304
1345,34176
1346,34048
1347,33856
1348,33728
1349,33600
1350,33472
1351,33344
1352,33280
1353,33216
1354,33216
1355,33152
1356,33152
1357,33152
1358,33152
1359,33152
1360,33216
1361,33280
1362,33280
1363,33344
1364,33344
1365,33472
1366,33536
1367,33600
1368,33600
1369,33664
1370,33728
1371,33792
1372,33856
1373,33856
1374,33984
1375,33984
1376,33984
1377,34048
1378,34112
1379,34112
1380,34048
1381,34048
1382,34048
1383,34048
1384,34048
1385,34048
1386,34048
1387,34048
1388,33984
1389,33920
1390,33920
1391,33856
1392,33856
1393,33792
1394,33792
1395,33792
1396,33792
1397,33728
1398,33728
1399,33792
1400,33792
1401,33920
1402,33984
1403,34112
1404,34240
1405,34240
1406,34304
1407,34432
1408,34560
1409,34624
1410,34624
1411,34624
1412,34624
1413,34496
1414,34368
1415,34240
1416,33984
1417,33792
1418,33600
1419,33408
1420,33280
1421,33216
1422,33216
1423,33280
1424,33344
1425,33344
1426,33344
1427,33408
1428,33472
1429,33472
1430,33536
1431,33600
1432,33664
1433,33728
1434,33728
1435,33536
1436,33216
1437,32960
1438,32896
1439,33216
1440,34304
1441,36480
1442,39552
1443,42688
1444,44672
1445,44672
1446,42624
1447,39424
1448,36416
1449,34048
1450,32064
1451,30784
1452,30272
1453,30336
1454,30656
1455,31040
1456,31360
1457,31680
1458,32000
1459,32192
1460,32448
1461,32640
1462,32832
1463,32960
1464,33152
1465,33216
1466,33344
1467,33408
1468,33472
1469,33600
1470,33600
1471,33664
1472,33664
1473,33728
1474,33792
1475,33792
1476,33792
1477,33792
1478,33856
1479,33856
1480,33920
1481,33920
1482,33984
1483,34048
1484,34048
1485,34048
1486,34112
1487,34112
1488,34176
1489,34240
1490,34304
1491,34368
1492,34432
1493,34496
1494,34560
1495,34624
1496,34688
1497,34752
1498,34816
1499,34880
1500,34944
1501,34944
1502,35008
1503,35008
1504,34944
1505,34944
1506,34944
1507,34944
1508,34944
1509,34944
1510,34944
1511,34944
1512,34880
1513,34816
1514,34816
1515,34752
1516,34688
1517,34560
1518,34432
1519,34304
1520,34176
1521,34048
1522,33920
1523,33792
1524,33728
1525,33536
1526,33408
1527,33344
1528,33280
1529,33216
1530,33152
1531,33152
1532,33152
1533,33152
1534,33152
1535,33216
1536,33216
1537,33280
1538,33280
1539,33344
1540,33344
1541,33408
1542,33408
1543,33472
1544,33472
1545,33536
1546,33600
1547,33664
1548,33728
1549,33728
1550,33728
1551,33792
1552,33856
1553,33920
1554,33920
1555,33920
1556,33920
1557,33920
1558,33920
1559,33920
1560,33920
1561,33920
1562,33920
1563,33920
1564,33920
1565,33856
1566,33856
1567,33792
1568,33728
1569,33728
1570,33728
1571,33664
1572,33600
1573,33664
1574,33664
1575,33664
1576,33664
1577,33728
1578,33728
1579,33664
1580,33664
1581,33664
1582,33664
1583,33728
1584,33728
1585,33728
1586,33792
1587,33856
1588,33920
1589,33984
1590,34112
1591,34176
1592,34240
1593,34304
1594,34496
1595,34624
1596,34624
1597,34624
1598,34560
1599,34432
1600,34304
1601,34176
1602,33984
1603,33792
1604,33600
1605,33408
1606,33280
1607,33216
1608,33152
1609,33152
1610,33152
1611,33216
1612,33280
1613,33408
1614,33408
1615,33408
1616,33472
1617,33472
1618,33536
1619,33600
1620,33664
1621,33600
1622,33408
1623,33088
1624,32896
1625,32896
1626,33344
1627,34752
1628,37184
1629,40448
1630,43136
1631,44480
1632,43712
1633,41216
1634,38208
1635,35456
1636,33152
1637,31552
1638,30528
1639,30208
1640,30336
1641,30784
1642,31168
1643,31488
1644,31872
1645,32128
1646,32384
1647,32640
1648,32832
1649,33024
1650,33088
1651,33152
1652,33216
1653,33344
1654,33408
1655,33472
1656,33472
1657,33536
1658,33600
1659,33600
1660,33600
1661,33728
1662,33792
1663,33728
1664,33728
1665,33728
1666,33792
1667,33856
1668,33920
1669,33984
1670,34048
1671,34048
1672,34048
1673,34112
1674,34176
1675,34176
1676,34176
1677,34240
1678,34304
1679,34368
1680,34432
1681,34496
1682,34560
1683,34624
1684,34688
1685,34752
1686,34816
1687,34880
1688,34880
1689,34880
1690,34880
1691,34880
1692,34880
1693,34880
1694,34816
1695,34752
1696,34752
1697,34752
1698,34688
1699,34688
1700,34688
1701,34624
1702,34560
1703,34496
1704,34496
1705,34368
1706,34240
1707,34176
1708,34048
1709,33920
1710,33792
1711,33664
1712,33536
1713,33472
1714,33344
1715,33344
1716,33344
1717,33280
1718,33152
1719,33088
1720,33088
1721,33088
1722,33152
1723,33216
1724,33216
1725,33216
1726,33280
1727,33280
1728,33344
1729,33408
1730,33472
1731,33536
1732,33600
1733,33728
1734,33728
1735,33728
1736,33792
1737,33856
1738,33856
1739,33920
1740,33920
1741,33920
1742,33984
1743,33984
1744,33984
1745,33984
1746,33984
1747,33984
1748,33920
1749,33920
1750,33920
1751,33856
1752,33792
1753,33728
1754,33728
1755,33728
1756,33728
1757,33792
1758,33792
1759,33728
1760,33728
1761,33728
1762,33792
1763,33792
1764,33856
1765,33984
1766,34048
1767,34176
1768,34240
1769,34304
1770,34560
1771,34688
1772,34752
1773,34752
1774,34752
1775,34560
1776,34432
1777,34240
1778,34048
1779,33792
1780,33472
1781,33280
1782,33152
1783,33152
1784,33152
1785,33152
1786,33216
1787,33344
1788,33344
1789,33344
1790,33408
1791,33472
1792,33600
1793,33600
1794,33600
1795,33664
1796,33664
1797,33600
1798,33280
1799,33024
1800,32832
1801,32960
1802,33600
1803,35136
1804,37696
1805,40768
1806,43392
1807,44352
1808,43072
1809,40512
1810,37632
1811,35008
1812,32896
1813,31424
1814,30592
1815,30400
1816,30592
1817,30976
1818,31360
1819,31744
1820,32064
1821,32320
1822,32640
1823,32768
1824,32896
1825,33024
1826,33088
1827,33280
1828,33408
1829,33472
1830,33536
1831,33600
1832,33664
1833,33728
1834,33792
1835,33856
1836,33920
1837,33984
1838,34048
1839,34048
1840,34048
1841,34048
1842,34048
1843,34048
1844,34112
1845,34176
1846,34176
1847,34176
1848,34176
1849,34176
1850,34304
1851,34368
1852,34432
1853,34496
1854,34560
1855,34560
1856,34624
1857,34688
1858,34752
1859,34816
1860,34880
1861,34944
1862,34944
1863,34944
1864,34944
1865,34944
1866,34880
1867,34880
1868,34816
1869,34752
1870,34752
1871,34752
1872,34752
1873,34752
1874,34752
1875,34688
1876,34624
1877,34560
1878,34560
1879,34432
1880,34368
1881,34240
1882,34176
1883,34112
1884,33984
1885,33856
1886,33728
1887,33600
1888,33536
1889,33408
1890,33408
1891,33344
1892,33344
1893,33280
1894,33216
1895,33216
1896,33216
1897,33216
1898,33280
1899,33344
1900,33408
1901,33472
1902,33472
1903,33536
1904,33600
1905,33664
1906,33664
1907,33728
1908,33856
1909,33856
1910,33920
1911,33920
1912,33920
1913,33984
1914,34048
1915,34048
1916,34112
1917,34112
1918,34112
1919,34112
1920,34112
1921,34112
1922,34112
1923,34048
1924,34048
1925,34048
1926,34048
1927,33984
1928,33920
1929,33920
1930,33856
1931,33920
1932,33920
1933,33920
1934,33920
1935,33856
1936,33792
1937,33728
1938,33728
1939,33728
1940,33792
1941,33856
1942,33984
1943,34112
1944,34176
1945,34304
1946,34560
1947,34752
1948,34880
1949,35008
1950,35008
1951,34880
1952,34688
1953,34560
1954,34368
1955,34112
1956,33856
1957,33536
1958,33408
1959,33344
1960,33280
1961,33280
1962,33280
1963,33344
1964,33408
1965,33408
1966,33472
1967,33536
1968,33600
1969,33664
1970,33728
1971,33792
1972,33792
1973,33728
1974,33472
1975,33152
1976,33024
1977,33152
1978,33792
1979,35392
1980,38080
1981,41216
1982,43776
1983,44672
1984,43392
1985,40704
1986,37696
1987,35072
1988,32896
1989,31360
1990,30528
1991,30336
1992,30592
1993,30976
1994,31360
1995,31744
1996,32064
1997,32320
1998,32576
1999,32768
2000,32960
2001,33024
2002,33152
2003,33216
2004,33344
2005,33408
2006,33472
2007,33600
2008,33664
2009,33728
2010,33728
2011,33728
2012,33792
2013,33792
2014,33792
2015,33856
2016,33920
2017,33984
2018,33984
2019,33984
2020,33984
2021,33984
2022,34048
2023,34112
2024,34176
2025,34304
2026,34304
2027,34304
2028,34432
2029,34496
2030,34496
2031,34560
2032,34624
2033,34688
2034,34752
2035,34816
2036,34816
2037,34880
2038,34880
2039,34880
2040,34944
2041,34944
2042,34944
2043,34944
2044,34944
2045,34944
2046,34880
2047,34816
2048,34816
2049,34816
2050,34752
2051,34752
2052,34752
2053,34752
2054,34688
2055,34624
2056,34496
2057,34432
2058,34368
2059,34176
2060,34048
2061,33856
2062,33728
2063,33664
2064,33600
2065,33472
2066,33408
2067,33280
2068,33216
2069,33216
2070,33216
2071,33280
2072,33344
2073,33344
2074,33408
2075,33472
2076,33536
2077,33536
2078,33472
2079,33472
2080,33536
2081,33536
2082,33536
2083,33600
2084,33600
2085,33728
2086,33792
2087,33920
2088,34112
2089,34240
2090,34240
2091,34176
2092,34176
2093,34176
2094,34112
2095,34112
2096,34048
2097,34048
2098,33984
2099,33984
2100,34048
2101,33984
2102,33856
2103,33792
2104,33728
2105,33664
2106,33664
2107,33600
2108,33664
2109,33728
2110,33728
2111,33792
2112,33792
2113,33856
2114,33856
2115,33856
2116,33792
2117,33728
2118,33792
2119,33856
2120,33792
2121,33728
2122,33664
2123,33664
2124,33664
2125,33664
2126,33664
2127,33664
2128,33728
2129,33792
2130,33856
2131,33984
2132,34112
2133,34304
2134,34432
2135,34688
2136,34880
2137,35008
2138,35072
2139,35072
2140,35008
2141,34880
2142,34624
2143,34304
2144,34048
2145,33728
2146,33536
2147,33408
2148,33408
2149,33408
2150,33472
2151,33408
2152,33344
2153,33408
2154,33536
2155,33600
2156,33600
2157,33664
2158,33856
2159,33984
2160,33856
2161,33600
2162,33280
2163,32960
2164,32832
2165,33088
2166,33856
2167,36096
2168,38400
2169,41664
2170,44288
2171,45184
2172,43968
2173,41216
2174,38016
2175,35072
2176,32640
2177,31040
2178,30208
2179,30080
2180,30336
2181,30784
2182,31360
2183,31680
2184,32000
2185,32256
2186,32512
2187,32640
2188,32832
2189,32896
2190,33024
2191,33152
2192,33344
2193,33472
2194,33536
2195,33600
2196,33664
2197,33728
2198,33728
2199,33856
2200,33920
2201,33920
2202,33984
2203,33984
2204,34112
2205,34048
2206,33984
2207,33984
2208,33984
2209,33984
2210,33984
2211,34112
2212,34368
2213,34432
2214,34432
2215,34368
2216,34368
2217,34496
2218,34432
2219,34432
2220,34432
2221,34496
2222,34496
2223,34560
2224,34688
2225,34816
2226,34880
2227,34944
2228,34944
2229,34944
2230,34944
2231,34944
2232,34944
2233,34880
2234,34880
2235,34880
2236,34880
2237,34880
2238,34880
2239,34880
2240,34880
2241,34880
2242,34816
2243,34688
2244,34560
2245,34560
2246,34432
2247,34304
2248,34176
2249,34112
2250,33984
2251,33920
2252,33792
2253,33664
2254,33600
2255,33536
2256,33472
2257,33408
2258,33408
2259,33344
2260,33344
2261,33344
2262,33408
2263,33408
2264,33408
2265,33472
2266,33536
2267,33536
2268,33536
2269,33536
2270,33664
2271,33664
2272,33664
2273,33664
2274,33728
2275,33792
2276,33856
2277,33920
2278,33984
2279,34048
2280,34048
2281,34048
2282,34112
2283,34112
2284,34112
2285,34112
2286,34112
2287,34048
2288,33984
2289,33856
2290,33792
2291,33792
2292,33792
2293,33792
2294,33792
2295,33792
2296,33792
2297,33856
2298,33920
2299,33920
2300,34048
2301,34112
2302,34112
2303,33984
2304,33856
2305,33792
2306,33728
2307,33728
2308,33792
2309,33792
2310,33856
2311,33856
2312,33856
2313,33920
2314,33856
2315,33920
2316,33984
2317,34048
2318,34240
2319,34368
2320,34560
2321,34752
2322,34880
2323,35008
2324,35072
2325,35008
2326,34944
2327,34816
2328,34688
2329,34496
2330,34240
2331,33920
2332,33600
2333,33472
2334,33344
2335,33344
2336,33280
2337,33280
2338,33344
2339,33408
2340,33536
2341,33536
2342,33600
2343,33664
2344,33792
2345,33728
2346,33664
2347,33472
2348,33408
2349,33152
2350,32896
2351,32832
2352,33024
2353,33984
2354,36032
2355,38976
2356,42240
2357,44608
2358,45056
2359,43328
2360,40384
2361,37248
2362,34368
2363,32320
2364,30912
2365,30272
2366,30272
2367,30592
2368,30976
2369,31360
2370,31680
2371,31936
2372,32192
2373,32384
2374,32576
2375,32768
2376,32960
2377,33152
2378,33152
2379,33344
2380,33472
2381,33600
2382,33728
2383,33664
2384,33536
2385,33472
2386,33472
2387,33408
2388,33472
2389,33536
2390,33600
2391,33728
2392,33792
2393,33792
2394,33920
2395,33920
2396,33984
2397,34048
2398,34048
2399,34112
2400,34112
2401,34176
2402,34176
2403,34240
2404,34304
2405,34368
2406,34432
2407,34560
2408,34688
2409,34752
2410,34816
2411,34816
2412,34816
2413,34752
2414,34816
2415,34816
2416,34880
2417,34816
2418,34752
2419,34752
2420,34752
2421,34752
2422,34752
2423,34688
2424,34752
2425,34752
2426,34816
2427,34752
2428,34624
2429,34496
2430,34432
2431,34368
2432,34304
2433,34240
2434,34176
2435,34176
2436,34048
2437,33856
2438,33728
2439,33600
2440,33536
2441,33408
2442,33408
2443,33344
2444,33216
2445,33152
2446,33088
2447,33088
2448,33216
2449,33344
2450,33344
2451,33344
2452,33472
2453,33536
2454,33664
2455,33664
2456,33536
2457,33408
2458,33344
2459,33408
2460,33472
2461,33536
2462,33600
2463,33664
2464,33728
2465,33792
2466,33856
2467,33856
2468,33920
2469,33920
2470,33856
2471,33728
2472,33664
2473,33600
2474,33600
2475,33664
2476,33728
2477,33728
2478,33728
2479,33664
2480,33664
2481,33600
2482,33600
2483,33600
2484,33600
2485,33600
2486,33600
2487,33600
2488,33600
2489,33536
2490,33536
2491,33600
2492,33664
2493,33664
2494,33664
2495,33728
2496,33792
2497,33792
2498,33792
2499,33856
2500,33984
2501,33984
2502,33984
2503,34112
2504,34368
2505,34560
2506,34688
2507,34752
2508,34752
2509,34688
2510,34624
2511,34496
2512,34368
2513,34176
2514,33984
2515,33792
2516,33536
2517,33344
2518,33152
2519,33088
2520,33088
2521,33152
2522,33152
2523,33280
2524,33408
2525,33472
2526,33472
2527,33536
2528,33600
2529,33600
2530,33664
2531,33536
2532,33280
2533,33024
2534,32832
2535,32832
2536,33344
2537,34752
2538,37248
2539,40256
2540,42944
2541,44224
2542,43264
2543,40704
2544,37760
2545,35200
2546,33024
2547,31424
2548,30400
2549,30080
2550,30272
2551,30720
2552,31232
2553,31680
2554,32000
2555,32256
2556,32448
2557,32640
2558,32832
2559,32960
2560,33088
2561,33216
2562,33280
2563,33344
2564,33408
2565,33472
2566,33472
2567,33536
2568,33600
2569,33728
2570,33856
2571,33856
2572,33792
2573,33792
2574,33856
2575,33920
2576,33856
2577,33856
2578,33856
2579,33920
2580,34112
2581,34240
2582,34176
2583,34112
2584,34048
2585,33984
2586,33984
2587,34112
2588,34176
2589,34304
2590,34432
2591,34496
2592,34496
2593,34560
2594,34624
2595,34688
2596,34752
2597,34816
2598,34752
2599,34688
2600,34624
2601,34560
2602,34560
2603,34560
2604,34560
2605,34560
2606,34560
2607,34688
2608,34688
2609,34624
2610,34496
2611,34368
2612,34240
2613,34176
2614,34176
2615,34176
2616,34176
2617,34112
2618,34048
2619,33984
2620,33984
2621,33920
2622,33792
2623,33664
2624,33536
2625,33536
2626,33472
2627,33408
2628,33408
2629,33408
2630,33344
2631,33280
2632,33216
2633,33216
2634,33280
2635,33344
2636,33472
2637,33728
2638,33856
2639,33792
2640,33856
2641,33920
2642,34112
2643,34112
2644,34048
2645,33984
2646,33984
2647,33920
2648,33856
2649,33792
2650,33792
2651,33792
2652,33792
2653,33792
2654,33792
2655,33792
2656,33792
2657,33792
2658,33856
2659,33856
2660,33920
2661,33984
2662,33984
2663,33920
2664,33728
2665,33600
2666,33536
2667,33408
2668,33408
2669,33344
2670,33408
2671,33472
2672,33600
2673,33792
2674,33984
2675,34112
2676,34240
2677,34432
2678,34624
2679,34752
2680,34880
2681,34816
2682,34752
2683,34688
2684,34624
2685,34368
2686,33984
2687,33600
2688,33344
2689,33152
2690,33024
2691,32960
2692,32896
2693,32960
2694,33024
2695,33216
2696,33344
2697,33408
2698,33536
2699,33600
2700,33664
2701,33664
2702,33728
2703,33664
2704,33408
2705,33088
2706,32832
2707,32832
2708,33344
2709,34560
2710,36736
2711,39616
2712,42496
2713,44096
2714,43584
2715,41344
2716,38464
2717,35712
2718,33344
2719,31680
2720,30592
2721,30080
2722,30208
2723,30592
2724,31104
2725,31616
2726,32000
2727,32320
2728,32640
2729,32832
2730,33024
2731,33024
2732,33152
2733,33216
2734,33280
2735,33344
2736,33472
2737,33536
2738,33600
2739,33600
2740,33664
2741,33664
2742,33728
2743,33792
2744,33856
2745,33984
2746,34112
2747,34112
2748,34048
2749,33984
2750,33984
2751,34048
2752,34112
2753,34112
2754,34112
2755,34112
2756,34112
2757,34240
2758,34368
2759,34432
2760,34432
2761,34432
2762,34496
2763,34496
2764,34496
2765,34624
2766,34752
2767,34816
2768,34880
2769,34816
2770,34752
2771,34688
2772,34624
2773,34624
2774,34624
2775,34624
2776,34624
2777,34560
2778,34496
2779,34496
2780,34432
2781,34432
2782,34368
2783,34304
2784,34304
2785,34368
2786,34368
2787,34368
2788,34304
2789,34240
2790,34176
2791,34112
2792,33984
2793,33792
2794,33728
2795,33600
2796,33536
2797,33472
2798,33472
2799,33408
2800,33408
2801,33472
2802,33536
2803,33536
2804,33536
2805,33536
2806,33536
2807,33600
2808,33664
2809,33664
2810,33728
2811,33792
2812,33920
2813,33984
2814,34048
2815,34112
2816,34240
2817,34240
2818,34176
2819,34176
2820,34176
2821,34176
2822,34176
2823,34112
2824,34112
2825,34048
2826,34048
2827,33984
2828,33984
2829,33984
2830,33920
2831,33920
2832,33984
2833,33984
2834,33984
2835,33984
2836,33984
2837,34112
2838,34240
2839,34368
2840,34560
2841,34816
2842,35008
2843,35008
2844,34944
2845,34880
2846,34752
2847,34560
2848,34240
2849,34048
2850,33728
2851,33536
2852,33344
2853,33216
2854,33152
2855,33152
2856,33152
2857,33216
2858,33216
2859,33280
2860,33280
2861,33408
2862,33536
2863,33728
2864,33856
2865,33792
2866,33728
2867,33536
2868,33216
2869,32896
2870,32768
2871,33088
2872,34240
2873,36544
2874,39488
2875,42432
2876,44352
2877,44288
2878,42176
2879,39232
2880,36288
2881,33792
2882,31872
2883,30720
2884,30272
2885,30400
2886,30720
2887,31040
2888,31424
2889,31744
2890,32064
2891,32320
2892,32640
2893,32832
2894,33024
2895,33088
2896,33088
2897,33152
2898,33344
2899,33472
2900,33536
2901,33600
2902,33664
2903,33728
2904,33792
2905,33920
2906,34048
2907,33984
2908,33984
2909,33920
2910,33856
2911,33920
2912,33984
2913,34048
2914,34048
2915,34048
2916,34112
2917,34176
2918,34176
2919,34304
2920,34368
2921,34432
2922,34432
2923,34496
2924,34560
2925,34560
2926,34624
2927,34688
2928,34688
2929,34752
2930,34816
2931,34880
2932,34944
2933,34880
2934,34880
2935,34880
2936,34816
2937,34752
2938,34752
2939,34688
2940,34624
2941,34624
2942,34624
2943,34624
2944,34624
2945,34624
2946,34560
2947,34496
2948,34496
2949,34432
2950,34304
2951,34240
2952,34112
2953,34048
2954,33984
2955,33920
2956,33856
2957,33728
2958,33600
2959,33472
2960,33408
2961,33344
2962,33344
2963,33280
2964,33344
2965,33344
2966,33216
2967,33216
2968,33216
2969,33280
2970,33344
2971,33472
2972,33536
2973,33664
2974,33728
2975,33792
2976,33856
2977,33856
2978,33856
2979,33920
2980,33920
2981,33984
2982,33920
2983,33920
2984,33920
2985,33920
2986,33920
2987,33856
2988,33920
2989,33920
2990,33920
2991,33856
2992,33856
2993,33856
2994,33856
2995,33856
2996,33856
2997,33856
2998,33792
2999,33792
3000,33728
3001,33728
3002,33728
3003,33792
3004,33856
3005,33920
3006,33984
3007,34112
3008,34304
3009,34432
3010,34560
3011,34688
3012,34752
3013,34880
3014,34944
3015,34880
3016,34624
3017,34432
3018,34176
3019,33920
3020,33664
3021,33472
3022,33280
3023,33216
3024,33152
3025,33152
3026,33216
3027,33280
3028,33344
3029,33408
3030,33472
3031,33472
3032,33536
3033,33600
3034,33664
3035,33664
3036,33664
3037,33536
3038,33280
3039,32896
3040,32768
3041,32960
3042,33792
3043,35584
3044,38464
3045,41728
3046,44288
3047,45120
3048,43712
3049,40832
3050,37632
3051,34752
3052,32512
3053,31040
3054,30336
3055,30272
3056,30592
3057,31040
3058,31424
3059,31744
3060,32064
3061,32320
3062,32512
3063,32640
3064,32832
3065,33024
3066,33152
3067,33280
3068,33344
3069,33408
3070,33472
3071,33536
3072,33600
3073,33664
3074,33664
3075,33728
3076,33728
3077,33792
3078,33856
3079,33856
3080,33856
3081,33856
3082,33920
3083,33984
3084,33984
3085,34048
3086,34112
3087,34112
3088,34176
3089,34176
3090,34240
3091,34304
3092,34304
3093,34368
3094,34432
3095,34432
3096,34496
3097,34496
3098,34624
3099,34688
3100,34752
3101,34816
3102,34880
3103,34880
3104,34880
3105,34880
3106,34816
3107,34816
3108,34752
3109,34688
3110,34688
3111,34688
3112,34688
3113,34624
3114,34560
3115,34560
3116,34496
3117,34496
3118,34432
3119,34432
3120,34368
3121,34368
3122,34304
3123,34240
3124,34176
3125,34048
3126,33984
3127,33856
3128,33728
3129,33664
3130,33536
3131,33408
3132,33408
3133,33344
3134,33280
3135,33280
3136,33344
3137,33344
3138,33344
3139,33344
3140,33344
3141,33408
3142,33472
3143,33472
3144,33536
3145,33600
3146,33600
3147,33664
3148,33728
3149,33792
3150,33856
3151,33856
3152,33856
3153,33856
3154,33856
3155,33856
3156,33856
3157,33920
3158,33856
3159,33856
3160,33792
3161,33856
3162,33856
3163,33792
3164,33728
3165,33728
3166,33728
3167,33664
3168,33600
3169,33664
3170,33664
3171,33664
3172,33664
3173,33792
3174,33984
3175,34048
3176,34112
3177,34240
3178,34432
3179,34560
3180,34688
3181,34752
3182,34752
3183,34688
3184,34496
3185,34304
3186,34112
3187,33792
3188,33472
3189,33216
3190,33088
3191,32960
3192,32896
3193,32960
3194,33088
3195,33152
3196,33216
3197,33280
3198,33344
3199,33408
3200,33408
3201,33472
3202,33536
3203,33600
3204,33600
3205,33472
3206,33280
3207,32960
3208,32768
3209,32832
3210,33344
3211,34752
3212,37248
3213,40320
3214,43072
3215,44288
3216,43328
3217,40576
3218,37568
3219,35008
3220,32768
3221,31232
3222,30336
3223,30080
3224,30272
3225,30720
3226,31168
3227,31552
3228,31936
3229,32256
3230,32448
3231,32640
3232,32832
3233,33024
3234,33152
3235,33216
3236,33280
3237,33344
3238,33408
3239,33472
3240,33536
3241,33536
3242,33600
3243,33664
3244,33792
3245,33856
3246,33856
3247,33856
3248,33920
3249,33984
3250,33984
3251,33920
3252,33920
3253,33920
3254,33984
3255,34048
3256,34112
3257,34112
3258,34176
3259,34240
3260,34304
3261,34368
3262,34432
3263,34432
3264,34496
3265,34560
3266,34624
3267,34688
3268,34688
3269,34752
3270,34752
3271,34752
3272,34688
3273,34688
3274,34688
3275,34752
3276,34688
3277,34624
3278,34624
3279,34560
3280,34496
3281,34432
3282,34432
3283,34432
3284,34432
3285,34432
3286,34368
3287,34368
3288,34304
3289,34176
3290,34112
3291,34048
3292,34048
3293,33920
3294,33856
3295,33728
3296,33664
3297,33536
3298,33536
3299,33472
3300,33344
3301,33280
3302,33216
3303,33216
3304,33216
3305,33280
3306,33280
3307,33344
3308,33408
3309,33472
3310,33536
3311,33600
3312,33664
3313,33728
3314,33792
3315,33856
3316,33984
3317,33984
3318,34048
3319,34048
3320,34048
3321,34112
3322,34048
3323,34048
3324,33984
3325,33984
3326,33920
3327,33920
3328,33920
3329,33920
3330,33856
3331,33856
3332,33856
3333,33984
3334,34048
3335,34112
3336,34176
3337,34176
3338,34240
3339,34368
3340,34496
3341,34560
3342,34560
3343,34496
3344,34368
3345,34176
3346,34048
3347,33856
3348,33664
3349,33536
3350,33344
3351,33216
3352,33088
3353,33088
3354,33088
3355,33088
3356,33152
3357,33216
3358,33280
3359,33344
3360,33472
3361,33536
3362,33600
3363,33600
3364,33536
3365,33600
3366,33536
3367,33344
3368,33024
3369,32896
3370,32960
3371,33408
3372,34752
3373,37184
3374,40192
3375,43008
3376,44352
3377,43456
3378,40896
3379,37952
3380,35328
3381,33088
3382,31424
3383,30592
3384,30272
3385,30464
3386,30912
3387,31360
3388,31808
3389,32192
3390,32512
3391,32704
3392,32832
3393,32960
3394,33088
3395,33216
3396,33344
3397,33472
3398,33536
3399,33664
3400,33664
3401,33728
3402,33792
3403,33792
3404,33856
3405,33856
3406,33920
3407,33920
3408,33984
3409,33984
3410,34048
3411,34048
3412,34112
3413,34176
3414,34176
3415,34176
3416,34176
3417,34240
3418,34240
3419,34304
3420,34304
3421,34368
3422,34432
3423,34496
3424,34624
3425,34688
3426,34688
3427,34688
3428,34688
3429,34752
3430,34688
3431,34688
3432,34688
3433,34624
3434,34624
3435,34624
3436,34624
3437,34688
3438,34624
3439,34560
3440,34496
3441,34432
3442,34368
3443,34304
3444,34368
3445,34368
3446,34368
3447,34368
3448,34368
3449,34368
3450,34304
3451,34240
3452,34112
3453,34048
3454,33984
3455,33856
3456,33728
3457,33664
3458,33600
3459,33472
3460,33408
3461,33344
3462,33344
3463,33344
3464,33408
3465,33408
3466,33472
3467,33472
3468,33536
3469,33600
3470,33664
3471,33728
3472,33792
3473,33856
3474,33920
3475,33984
3476,33984
3477,34048
3478,34048
3479,34112
3480,34112
3481,34112
3482,34112
3483,34112
3484,34112
3485,34112
3486,34048
3487,34048
3488,34112
3489,34240
3490,34304
3491,34368
3492,34432
3493,34432
3494,34432
3495,34432
3496,34560
3497,34688
3498,34752
3499,34688
3500,34624
3501,34496
3502,34368
3503,34240
3504,34048
3505,33792
3506,33536
3507,33344
3508,33152
3509,33024
3510,33024
3511,33024
3512,33088
3513,33152
3514,33152
3515,33216
3516,33216
3517,33216
3518,33280
3519,33408
3520,33472
3521,33600
3522,33600
3523,33600
3524,33344
3525,33024
3526,32768
3527,32832
3528,33344
3529,34752
3530,37248
3531,40384
3532,43264
3533,44416
3534,43456
3535,40896
3536,37952
3537,35264
3538,33024
3539,31424
3540,30528
3541,30272
3542,30528
3543,30976
3544,31360
3545,31744
3546,32064
3547,32320
3548,32576
3549,32768
3550,32960
3551,33024
3552,33152
3553,33280
3554,33408
3555,33472
3556,33472
3557,33536
3558,33600
3559,33664
3560,33728
3561,33792
3562,33856
3563,33856
3564,33856
3565,33856
3566,33920
3567,33984
3568,33984
3569,34048
3570,34048
3571,34048
3572,34112
3573,34176
3574,34240
3575,34240
3576,34304
3577,34368
3578,34432
3579,34496
3580,34496
3581,34496
3582,34560
3583,34688
3584,34688
3585,34752
3586,34752
3587,34816
3588,34816
3589,34816
3590,34816
3591,34816
3592,34816
3593,34752
3594,34752
3595,34688
3596,34688
3597,34688
3598,34688
3599,34688
3600,34624
3601,34624
3602,34560
3603,34560
3604,34560
3605,34432
3606,34368
3607,34304
3608,34176
3609,33984
3610,33920
3611,33792
3612,33728
3613,33664
3614,33600
3615,33536
3616,33472
3617,33472
3618,33408
3619,33344
3620,33280
3621,33216
3622,33280
3623,33280
3624,33408
3625,33472
3626,33536
3627,33600
3628,33664
3629,33728
3630,33792
3631,33856
3632,33920
3633,33984
3634,33984
3635,33984
3636,34048
3637,34048
3638,34048
3639,34048
3640,34048
3641,34048
3642,34112
3643,34048
3644,34048
3645,34112
3646,34112
3647,34112
3648,34048
3649,33984
3650,33984
3651,33920
3652,33920
3653,33984
3654,34048
3655,34048
3656,34112
3657,34240
3658,34304
3659,34368
3660,34432
3661,34624
3662,34752
3663,34752
3664,34688
3665,34624
3666,34496
3667,34368
3668,34176
3669,34048
3670,33856
3671,33664
3672,33408
3673,33280
3674,33152
3675,33152
3676,33216
3677,33216
3678,33280
3679,33344
3680,33408
3681,33472
3682,33536
3683,33536
3684,33600
3685,33600
3686,33664
3687,33600
3688,33536
3689,33216
3690,32960
3691,32896
3692,33152
3693,34048
3694,36032
3695,38976
3696,42176
3697,44544
3698,44736
3699,42816
3700,39744
3701,36864
3702,34240
3703,32128
3704,30848
3705,30208
3706,30144
3707,30528
3708,30976
3709,31360
3710,31744
3711,32064
3712,32320
3713,32512
3714,32704
3715,32896
3716,33024
3717,33088
3718,33216
3719,33280
3720,33408
3721,33472
3722,33472
3723,33536
3724,33536
3725,33600
3726,33664
3727,33664
3728,33728
3729,33792
3730,33856
3731,33920
3732,33984
3733,34048
3734,34048
3735,34048
3736,34048
3737,34112
3738,34176
3739,34176
3740,34176
3741,34240
3742,34304
3743,34304
3744,34368
3745,34432
3746,34496
3747,34560
3748,34624
3749,34688
3750,34752
3751,34880
3752,34944
3753,34880
3754,34880
3755,34816
3756,34752
3757,34752
3758,34752
3759,34752
3760,34752
3761,34752
3762,34752
3763,34752
3764,34752
3765,34752
3766,34688
3767,34688
3768,34624
3769,34560
3770,34496
3771,34432
3772,34368
3773,34304
3774,34176
3775,33984
3776,33792
3777,33664
3778,33536
3779,33472
3780,33408
3781,33344
3782,33280
3783,33280
3784,33216
3785,33152
3786,33216
3787,33280
3788,33280
3789,33344
3790,33408
3791,33472
3792,33472
3793,33536
3794,33600
3795,33664
3796,33664
3797,33664
3798,33728
3799,33728
3800,33792
3801,33792
3802,33856
3803,33920
3804,33984
3805,33984
3806,33920
3807,33920
3808,33856
3809,33856
3810,33856
3811,33920
3812,33920
3813,33920
3814,33920
3815,33920
3816,33920
3817,33856
3818,33856
3819,33792
3820,33792
3821,33728
3822,33728
3823,33728
3824,33728
3825,33792
3826,33920
3827,34112
3828,34176
3829,34240
3830,34176
3831,34176
3832,34176
3833,34304
3834,34368
3835,34432
3836,34432
3837,34432
3838,34304
3839,34176
3840,34048
3841,33856
3842,33728
3843,33536
3844,33408
3845,33280
3846,33152
3847,33152
3848,33152
3849,33216
3850,33280
3851,33280
3852,33408
3853,33472
3854,33536
3855,33536
3856,33600
3857,33664
3858,33728
3859,33728
3860,33664
3861,33472
3862,33216
3863,32960
3864,32832
3865,33088
3866,34176
3867,36352
3868,39360
3869,42496
3870,44544
3871,44480
3872,42368
3873,39360
3874,36352
3875,33792
3876,31872
3877,30656
3878,30208
3879,30272
3880,30592
3881,30976
3882,31360
3883,31744
3884,32064
3885,32320
3886,32512
3887,32704
3888,32832
3889,32960
3890,33024
3891,33152
3892,33216
3893,33280
3894,33344
3895,33472
3896,33472
3897,33536
3898,33600
3899,33664
3900,33728
3901,33792
3902,33792
3903,33856
3904,33856
3905,33856
3906,33856
3907,33856
3908,33856
3909,33920
3910,33984
3911,34048
3912,34048
3913,34048
3914,34048
3915,34112
3916,34176
3917,34304
3918,34368
3919,34496
3920,34560
3921,34560
3922,34560
3923,34624
3924,34688
3925,34752
3926,34816
3927,34816
3928,34880
3929,34880
3930,34816
3931,34752
3932,34688
3933,34688
3934,34688
3935,34688
3936,34688
3937,34624
3938,34688
3939,34624
3940,34560
3941,34496
3942,34432
3943,34304
3944,34240
3945,34176
3946,34112
3947,34048
3948,33920
3949,33792
3950,33664
3951,33536
3952,33408
3953,33280
3954,33280
3955,33216
3956,33152
3957,33152
3958,33216
3959,33216
3960,33216
3961,33280
3962,33280
3963,33280
3964,33280
3965,33344
3966,33472
3967,33536
3968,33536
3969,33600
3970,33664
3971,33664
3972,33664
3973,33664
3974,33664
3975,33728
3976,33792
3977,33856
3978,33920
3979,33984
3980,33920
3981,33920
3982,33920
3983,33856
3984,33920
3985,33856
3986,33920
3987,33856
3988,33792
3989,33792
3990,33728
3991,33792
3992,33792
3993,33792
3994,33920
3995,33984
3996,34048
3997,34112
3998,34112
3999,34240
4000,34432
4001,34560
4002,34624
4003,34560
4004,34496
4005,34368
4006,34304
4007,34240
4008,34048
4009,33792
4010,33536
4011,33344
4012,33216
4013,33152
4014,33088
4015,33088
4016,33152
4017,33152
4018,33216
4019,33280
4020,33344
4021,33408
4022,33408
4023,33472
4024,33536
4025,33600
4026,33536
4027,33408
4028,33216
4029,32960
4030,32832
4031,32896
4032,33472
4033,34944
4034,37504
4035,40576
4036,43264
4037,44352
4038,43136
4039,40512
4040,37568
4041,35008
4042,32192
4043,31232
4044,30400
4045,30144
4046,30400
4047,30848
4048,31360
4049,31744
4050,32064
4051,32320
4052,32576
4053,32832
4054,33024
4055,33152
4056,33280
4057,33344
4058,33408
4059,33408
4060,33408
4061,33536
4062,33600
4063,33600
4064,33664
4065,33728
4066,33792
4067,33792
4068,33792
4069,33856
4070,33920
4071,33920
4072,33920
4073,33920
4074,33920
4075,33984
4076,34048
4077,34112
4078,34176
4079,34240
4080,34304
4081,34304
4082,34368
4083,34368
4084,34432
4085,34432
4086,34496
4087,34560
4088,34560
4089,34624
4090,34624
4091,34624
4092,34688
4093,34752
4094,34752
4095,34752
4096,34752
4097,34688
4098,34624
4099,34624
4100,34560
4101,34496
4102,34496
4103,34496
4104,34496
4105,34432
4106,34368
4107,34304
4108,34240
4109,34176
4110,34112
4111,33984
4112,33920
4113,33792
4114,33728
4115,33600
4116,33536
4117,33472
4118,33408
4119,33344
4120,33280
4121,33216
4122,33088
4123,33088
4124,33088
4125,33024
4126,33024
4127,33088
4128,33216
4129,33280
4130,33344
4131,33344
4132,33536
4133,33536
4134,33664
4135,33792
4136,33792
4137,33920
4138,33920
4139,33984
4140,34048
4141,34112
4142,34112
4143,34112
4144,34112
4145,34112
4146,34112
4147,34112
4148,34048
4149,34048
4150,34048
4151,33984
4152,34048
4153,34048
4154,33984
4155,33920
4156,33856
4157,33856
4158,33920
4159,33984
4160,34112
4161,34240
4162,34368
4163,34432
4164,34560
4165,34688
4166,34752
4167,34816
4168,34752
4169,34688
4170,34560
4171,34368
4172,34176
4173,33984
4174,33728
4175,33472
4176,33280
4177,33152
4178,33152
4179,33152
4180,33216
4181,33216
4182,33280
4183,33344
4184,33408
4185,33472
4186,33536
4187,33600
4188,33600
4189,33600
4190,33664
4191,33664
4192,33408
4193,33152
4194,33024
4195,33152
4196,33728
4197,35264
4198,37696
4199,40768
4200,43456
4201,44544
4202,43456
4203,40768
4204,37824
4205,35200
4206,33024
4207,31104
4208,30656
4209,30336
4210,30528
4211,30912
4212,31360
4213,31744
4214,32064
4215,32320
4216,32576
4217,32768
4218,32896
4219,33024
4220,33216
4221,33280
4222,33408
4223,33472
4224,33600
4225,33664
4226,33728
4227,33728
4228,33792
4229,33856
4230,33856
4231,33856
4232,33856
4233,33920
4234,33984
4235,33984
4236,33984
4237,33984
4238,34048
4239,34048
4240,34112
4241,34240
4242,34240
4243,34304
4244,34304
4245,34304
4246,34368
4247,34432
4248,34496
4249,34624
4250,34688
4251,34752
4252,34816
4253,34816
4254,34944
4255,34944
4256,34944
4257,34944
4258,34944
4259,34944
4260,34880
4261,34880
4262,34880
4263,34816
4264,34816
4265,34816
4266,34816
4267,34816
4268,34752
4269,34752
4270,34688
4271,34560
4272,34432
4273,34368
4274,34368
4275,34240
4276,34176
4277,34048
4278,33984
4279,33856
4280,33728
4281,33600
4282,33472
4283,33408
4284,33344
4285,33280
4286,33280
4287,33280
4288,33280
4289,33280
4290,33280
4291,33344
4292,33344
4293,33344
4294,33408
4295,33536
4296,33664
4297,33728
4298,33792
4299,33856
4300,33856
4301,33856
4302,33856
4303,33920
4304,33984
4305,34048
4306,34048
4307,34048
4308,34048
4309,34112
4310,34176
4311,34176
4312,34176
4313,34176
4314,34112
4315,34112
4316,34112
4317,34112
4318,34048
4319,34048
4320,34048
4321,34048
4322,33984
4323,33920
4324,33920
4325,33920
4326,33856
4327,33984
4328,34048
4329,34176
4330,34304
4331,34368
4332,34496
4333,34624
4334,34752
4335,34880
4336,34944
4337,34944
4338,34816
4339,34624
4340,34432
4341,34240
4342,33856
4343,33664
4344,33472
4345,33280
4346,33216
4347,33216
4348,33216
4349,33280
4350,33344
4351,33344
4352,33344
4353,33408
4354,33408
4355,33472
4356,33536
4357,33600
4358,33664
4359,33728
4360,33664
4361,33408
4362,33152
4363,32960
4364,32960
4365,33472
4366,34816
4367,37184
4368,40320
4369,43264
4370,44800
4371,44224
4372,40704
4373,38656
4374,35776
4375,33408
4376,31680
4377,30656
4378,30272
4379,30464
4380,30848
4381,31232
4382,31616
4383,32000
4384,32256
4385,32448
4386,32704
4387,32896
4388,33024
4389,33088
4390,33152
4391,33280
4392,33408
4393,33472
4394,33600
4395,33664
4396,33728
4397,33728
4398,33792
4399,33856
4400,33856
4401,33920
4402,33984
4403,33920
4404,33984
4405,33984
4406,33984
4407,34048
4408,34112
4409,34176
4410,34176
4411,34240
4412,34304
4413,34304
4414,34368
4415,34368
4416,34432
4417,34560
4418,34560
4419,34624
4420,34688
4421,34752
4422,34816
4423,34880
4424,34944
4425,35008
4426,35072
4427,35072
4428,35008
4429,35008
4430,34944
4431,34880
4432,34880
4433,34816
4434,34816
4435,34880
4436,34816
4437,34816
4438,34816
4439,34752
4440,34752
4441,34688
4442,34624
4443,34496
4444,34368
4445,34240
4446,34176
4447,33984
4448,33856
4449,33728
4450,33664
4451,33536
4452,33408
4453,33344
4454,33280
4455,33216
4456,33216
4457,33216
4458,33280
4459,33280
4460,33280
4461,33280
4462,33344
4463,33408
4464,33408
4465,33472
4466,33536
4467,33600
4468,33664
4469,33792
4470,33856
4471,33856
4472,33920
4473,33920
4474,33920
4475,33984
4476,33984
4477,34048
4478,34048
4479,34112
4480,34176
4481,34112
4482,34112
4483,34112
4484,34048
4485,33984
4486,33984
4487,33984
4488,33984
4489,33920
4490,33920
4491,33920
4492,33920
4493,33856
4494,33856
4495,33856
4496,33856
4497,33856
4498,33856
4499,33856
4500,33792
4501,33728
4502,33728
4503,33728
4504,33664
4505,33728
4506,33728
4507,33792
4508,33792
4509,33856
4510,33856
4511,33856
4512,33920
4513,33984
4514,34048
4515,34176
4516,34240
4517,34304
4518,34304
4519,34304
4520,34368
4521,34432
4522,34496
4523,34496
4524,34496
4525,34432
4526,34304
4527,34176
4528,34112
4529,34048
4530,33920
4531,33728
4532,33536
4533,33408
4534,33344
4535,33344
4536,33280
4537,33344
4538,33344
4539,33408
4540,33472
4541,33536
4542,33600
4543,33664
4544,33664
4545,33728
4546,33728
4547,33728
4548,33600
4549,33344
4550,33024
4551,32960
4552,33152
4553,34112
4554,35840
4555,38720
4556,41984
4557,44544
4558,45248
4559,43712
4560,40832
4561,37696
4562,34880
4563,32576
4564,31104
4565,30336
4566,30208
4567,30528
4568,30912
4569,31296
4570,31680
4571,31936
4572,32192
4573,32384
4574,32640
4575,32832
4576,32960
4577,33088
4578,33152
4579,33216
4580,33344
4581,33408
4582,33472
4583,33600
4584,33664
4585,33664
4586,33664
4587,33728
4588,33728
4589,33728
4590,33792
4591,33856
4592,33856
4593,33920
4594,33984
4595,34048
4596,34112
4597,34112
4598,34112
4599,34176
4600,34176
4601,34240
4602,34304
4603,34368
4604,34432
4605,34496
4606,34496
4607,34560
4608,34624
4609,34688
4610,34752
4611,34816
4612,34816
4613,34880
4614,34880
4615,34880
4616,34944
4617,34944
4618,34944
4619,35008
4620,34944
4621,34880
4622,34816
4623,34816
4624,34816
4625,34816
4626,34752
4627,34752
4628,34752
4629,34752
4630,34688
4631,34560
4632,34496
4633,34432
4634,34240
4635,34112
4636,33920
4637,33856
4638,33728
4639,33600
4640,33536
4641,33472
4642,33408
4643,33344
4644,33280
4645,33216
4646,33216
4647,33216
4648,33280
4649,33280
4650,33344
4651,33408
4652,33408
4653,33408
4654,33472
4655,33536
4656,33536
4657,33600
4658,33664
4659,33664
4660,33728
4661,33792
4662,33856
4663,33856
4664,33856
4665,33856
4666,33920
4667,33984
4668,33984
4669,33984
4670,33984
4671,33920
4672,33920
4673,33920
4674,33984
4675,33920
4676,33984
4677,33984
4678,33920
4679,33856
4680,33856
4681,33792
4682,33792
4683,33792
4684,33792
4685,33792
4686,33856
4687,33856
4688,33792
4689,33792
4690,33792
4691,33728
4692,33728
4693,33728
4694,33728
4695,33728
4696,33728
4697,33792
4698,33792
4699,33856
4700,33856
4701,33856
4702,33856
4703,33920
4704,33920
4705,33920
4706,33920
4707,33920
4708,33984
4709,34048
4710,34112
4711,34240
4712,34368
4713,34432
4714,34432
4715,34432
4716,34432
4717,34496
4718,34496
4719,34496
4720,34432
4721,34368
4722,34240
4723,34176
4724,34112
4725,34048
4726,33920
4727,33728
4728,33600
4729,33472
4730,33344
4731,33344
4732,33408
4733,33472
4734,33536
4735,33472
4736,33600
4737,33664
4738,33664
4739,33664
4740,33664
4741,33664
4742,33664
4743,33664
4744,33536
4745,33280
4746,32960
4747,32832
4748,33024
4749,33792
4750,33856
4751,38016
4752,41152
4753,43776
4754,44800
4755,43520
4756,40832
4757,37760
4758,35008
4759,32704
4760,31104
4761,30272
4762,30080
4763,30400
4764,30912
4765,31360
4766,31744
4767,32064
4768,32320
4769,32512
4770,32768
4771,32960
4772,33024
4773,33152
4774,33216
4775,33280
4776,33344
4777,33408
4778,33536
4779,33536
4780,33536
4781,33600
4782,33664
4783,33664
4784,33728
4785,33856
4786,33920
4787,33920
4788,33920
4789,33856
4790,33856
4791,33920
4792,33920
4793,33920
4794,34048
4795,34112
4796,34176
4797,34240
4798,34304
4799,34304
4800,34368
4801,34368
4802,34432
4803,34496
4804,34496
4805,34560
4806,34560
4807,34624
4808,34688
4809,34688
4810,34752
4811,34816
4812,34816
4813,34816
4814,34752
4815,34688
4816,34688
4817,34624
4818,34624
4819,34560
4820,34560
4821,34560
4822,34496
4823,34496
4824,34432
4825,34368
4826,34240
4827,34240
4828,34176
4829,34112
4830,34048
4831,33984
4832,33984
4833,33856
4834,33728
4835,33664
4836,33536
4837,33472
4838,33344
4839,33280
4840,33280
4841,33216
4842,33216
4843,33152
4844,33152
4845,33216
4846,33280
4847,33280
4848,33344
4849,33408
4850,33408
4851,33472
4852,33472
4853,33536
4854,33664
4855,33728
4856,33728
4857,33792
4858,33856
4859,33984
4860,33984
4861,34048
4862,33984
4863,33984
4864,33984
4865,34048
4866,34048
4867,34048
4868,33984
4869,33984
4870,33984
4871,33856
4872,33856
4873,33792
4874,33792
4875,33728
4876,33664
4877,33664
4878,33728
4879,33728
4880,33728
4881,33728
4882,33728
4883,33728
4884,33728
4885,33664
4886,33664
4887,33664
4888,33664
4889,33664
4890,33728
4891,33728
4892,33792
4893,33856
4894,33920
4895,33984
4896,33984
4897,34048
4898,34112
4899,34176
4900,34176
4901,34240
4902,34304
4903,34432
4904,34496
4905,34560
4906,34496
4907,34496
4908,34496
4909,34368
4910,34240
4911,34112
4912,33984
4913,33792
4914,33664
4915,33472
4916,33408
4917,33344
4918,33344
4919,33344
4920,33408
4921,33408
4922,33472
4923,33536
4924,33600
4925,33664
4926,33728
4927,33728
4928,33792
4929,33792
4930,33792
4931,33600
4932,33216
4933,32960
4934,32896
4935,33280
4936,34432
4937,36608
4938,39552
4939,42496
4940,44352
4941,44160
4942,41920
4943,38912
4944,36224
4945,33856
4946,32000
4947,30848
4948,30336
4949,30400
4950,30784
4951,31232
4952,31680
4953,32064
4954,32384
4955,32576
4956,32832
4957,33024
4958,33152
4959,33280
4960,33344
4961,33472
4962,33536
4963,33600
4964,33664
4965,33664
4966,33728
4967,33728
4968,33728
4969,33792
4970,33856
4971,33920
4972,33920
4973,33920
4974,33920
4975,33984
4976,33984
4977,34048
4978,34112
4979,34176
4980,34176
4981,34176
4982,34240
4983,34304
4984,34304
4985,34368
4986,34368
4987,34432
4988,34432
4989,34496
4990,34560
4991,34624
4992,34688
4993,34688
4994,34688
4995,34752
4996,34816
4997,34816
4998,34816
4999,34816
5000,34752
5001,34752
5002,34688
5003,34624
5004,34624
5005,34560
5006,34560
5007,34560
5008,34496
5009,34432
5010,34432
5011,34432
5012,34368
5013,34304
5014,34240
5015,34240
5016,34112
5017,34048
5018,33920
5019,33856
5020,33792
5021,33664
5022,33600
5023,33472
5024,33472
5025,33408
5026,33344
5027,33280
5028,33280
5029,33216
5030,33216
5031,33216
5032,33280
5033,33280
5034,33344
5035,33408
5036,33536
5037,33600
5038,33728
5039,33792
5040,33856
5041,33920
5042,33984
5043,34048
5044,34112
5045,34112
5046,34112
5047,34112
5048,34112
5049,34176
5050,34176
5051,34240
5052,34240
5053,34240
5054,34176
5055,34176
5056,34112
5057,34048
5058,33984
5059,33920
5060,33920
5061,33920
5062,33920
5063,33856
5064,33856
5065,33792
5066,33792
5067,33792
5068,33728
5069,33792
5070,33792
5071,33728
5072,33728
5073,33728
5074,33728
5075,33856
5076,33984
5077,34048
5078,34176
5079,34240
5080,34304
5081,34304
5082,34304
5083,34368
5084,34496
5085,34560
5086,34624
5087,34624
5088,34496
5089,34368
5090,34304
5091,34176
5092,34048
5093,33920
5094,33728
5095,33536
5096,33344
5097,33280
5098,33216
5099,33280
5100,33344
5101,33408
5102,33408
5103,33472
5104,33536
5105,33536
5106,33664
5107,33728
5108,33728
5109,33792
5110,33792
5111,33728
5112,33408
5113,33024
5114,32896
5115,33152
5116,34048
5117,36032
5118,38848
5119,41984
5120,44224
5121,44608
5122,42816
5123,39872
5124,36928
5125,34304
5126,32256
5127,30912
5128,30272
5129,30208
5130,30592
5131,31040
5132,31424
5133,31808
5134,32128
5135,32384
5136,32640
5137,32832
5138,33024
5139,33088
5140,33216
5141,33280
5142,33344
5143,33408
5144,33472
5145,33472
5146,33536
5147,33600
5148,33664
5149,33728
5150,33792
5151,33856
5152,33856
5153,33920
5154,33984
5155,33984
5156,34048
5157,34048
5158,34048
5159,34048
5160,34112
5161,34176
5162,34240
5163,34176
5164,34176
5165,34240
5166,34304
5167,34368
5168,34432
5169,34560
5170,34560
5171,34560
5172,34624
5173,34624
5174,34688
5175,34752
5176,34816
5177,34880
5178,34880
5179,34880
5180,34880
5181,34880
5182,34880
5183,34816
5184,34688
5185,34624
5186,34624
5187,34560
5188,34560
5189,34496
5190,34560
5191,34560
5192,34496
5193,34368
5194,34240
5195,34176
5196,34112
5197,34048
5198,33984
5199,33920
5200,33856
5201,33664
5202,33600
5203,33472
5204,33408
5205,33344
5206,33280
5207,33280
5208,33216
5209,33216
5210,33216
5211,33216
5212,33216
5213,33280
5214,33344
5215,33472
5216,33536
5217,33600
5218,33600
5219,33664
5220,33792
5221,33792
5222,33856
5223,33920
5224,33984
5225,34048
5226,34112
5227,34112
5228,34112
5229,34112
5230,34112
5231,34112
5232,34112
5233,34112
5234,34048
5235,34048
5236,34048
5237,33984
5238,33984
5239,33920
5240,33856
5241,33920
5242,33920
5243,33920
5244,33920
5245,33856
5246,33792
5247,33792
5248,33792
5249,33792
5250,33792
5251,33792
5252,33792
5253,33856
5254,33920
5255,33920
5256,33984
5257,34048
5258,34176
5259,34304
5260,34304
5261,34368
5262,34304
5263,34304
5264,34304
5265,34368
5266,34432
5267,34432
5268,34432
5269,34304
5270,34176
5271,34048
5272,33920
5273,33792
5274,33600
5275,33408
5276,33280
5277,33280
5278,33280
5279,33344
5280,33408
5281,33472
5282,33536
5283,33600
5284,33600
5285,33600
5286,33664
5287,33664
5288,33664
5289,33664
5290,33664
5291,33536
5292,33280
5293,33024
5294,32896
5295,33088
5296,33984
5297,35968
5298,38912
5299,42112
5300,44416
5301,44800
5302,43072
5303,40192
5304,37056
5305,34176
5306,32384
5307,30976
5308,30272
5309,30208
5310,30528
5311,30976
5312,31360
5313,31744
5314,32064
5315,32320
5316,32576
5317,32768
5318,32896
5319,33024
5320,33152
5321,33216
5322,33280
5323,33408
5324,33472
5325,33536
5326,33600
5327,33664
5328,33664
5329,33728
5330,33728
5331,33792
5332,33856
5333,33856
5334,33856
5335,33856
5336,33920
5337,33920
5338,33984
5339,33984
5340,34112
5341,34176
5342,34176
5343,34112
5344,34176
5345,34240
5346,34304
5347,34368
5348,34432
5349,34560
5350,34560
5351,34624
5352,34624
5353,34688
5354,34816
5355,34880
5356,34880
5357,34944
5358,34880
5359,34880
5360,34816
5361,34752
5362,34688
5363,34688
5364,34624
5365,34624
5366,34560
5367,34560
5368,34560
5369,34560
5370,34560
5371,34496
5372,34432
5373,34368
5374,34368
5375,34240
5376,34176
5377,34112
5378,34048
5379,33856
5380,33728
5381,33536
5382,33408
5383,33344
5384,33280
5385,33216
5386,33152
5387,33088
5388,33088
5389,33152
5390,33152
5391,33216
5392,33216
5393,33280
5394,33408
5395,33472
5396,33472
5397,33536
5398,33600
5399,33664
5400,33664
5401,33728
5402,33792
5403,33856
5404,33856
5405,33856
5406,33920
5407,33920
5408,33984
5409,33920
5410,33920
5411,33920
5412,33920
5413,33856
5414,33856
5415,33856
5416,33856
5417,33792
5418,33792
5419,33856
5420,33856
5421,33856
5422,33856
5423,33856
5424,33856
5425,33792
5426,33728
5427,33728
5428,33728
5429,33728
5430,33728
5431,33728
5432,33792
5433,33792
5434,33856
5435,33920
5436,34048
5437,34112
5438,34176
5439,34176
5440,34176
5441,34240
5442,34304
5443,34368
5444,34432
5445,34432
5446,34368
5447,34240
5448,34112
5449,34048
5450,33856
5451,33664
5452,33536
5453,33408
5454,33344
5455,33280
5456,33216
5457,33216
5458,33280
5459,33280
5460,33344
5461,33408
5462,33408
5463,33472
5464,33536
5465,33600
5466,33664
5467,33664
5468,33600
5469,33472
5470,33152
5471,32896
5472,32832
5473,33152
5474,34240
5475,36352
5476,39360
5477,42368
5478,44352
5479,44224
5480,42048
5481,39040
5482,36160
5483,33664
5484,31808
5485,30656
5486,30144
5487,30144
5488,30528
5489,30976
5490,31424
5491,31808
5492,32128
5493,32384
5494,32640
5495,32832
5496,32960
5497,33088
5498,33152
5499,33280
5500,33344
5501,33408
5502,33536
5503,33600
5504,33664
5505,33664
5506,33600
5507,33664
5508,33728
5509,33728
5510,33792
5511,33792
5512,33856
5513,33856
5514,33920
5515,33920
5516,33984
5517,34048
5518,34048
5519,34112
5520,34240
5521,34240
5522,34240
5523,34240
5524,34304
5525,34304
5526,34304
5527,34368
5528,34496
5529,34560
5530,34624
5531,34624
5532,34624
5533,34688
5534,34688
5535,34688
5536,34752
5537,34752
5538,34688
5539,34688
5540,34624
5541,34560
5542,34560
5543,34560
5544,34560
5545,34496
5546,34496
5547,34432
5548,34368
5549,34304
5550,34240
5551,34176
5552,34176
5553,34112
5554,34048
5555,33984
5556,33856
5557,33728
5558,33600
5559,33472
5560,33344
5561,33216
5562,33152
5563,33088
5564,33024
5565,33088
5566,33088
5567,33088
5568,33152
5569,33216
5570,33280
5571,33344
5572,33344
5573,33408
5574,33472
5575,33536
5576,33600
5577,33664
5578,33728
5579,33856
5580,33920
5581,33920
5582,33984
5583,34048
5584,34048
5585,34112
5586,34112
5587,34176
5588,34176
5589,34112
5590,34112
5591,34048
5592,34048
5593,33984
5594,33984
5595,33984
5596,33984
5597,33984
5598,33984
5599,33920
5600,33920
5601,33984
5602,34048
5603,34112
5604,34176
5605,34240
5606,34304
5607,34368
5608,34560
5609,34624
5610,34624
5611,34560
5612,34496
5613,34368
5614,34240
5615,34048
5616,33856
5617,33664
5618,33408
5619,33216
5620,33088
5621,33024
5622,33024
5623,33088
5624,33152
5625,33216
5626,33280
5627,33344
5628,33408
5629,33472
5630,33472
5631,33536
5632,33600
5633,33600
5634,33600
5635,33472
5636,33216
5637,32960
5638,32896
5639,33152
5640,34176
5641,36160
5642,39040
5643,42112
5644,44160
5645,44288
5646,42240
5647,39168
5648,36480
5649,34048
5650,32128
5651,30912
5652,30336
5653,30336
5654,30720
5655,31104
5656,31552
5657,31936
5658,32256
5659,32576
5660,32768
5661,32960
5662,33088
5663,33216
5664,33344
5665,33536
5666,33664
5667,33728
5668,33728
5669,33728
5670,33792
5671,33792
5672,33792
5673,33856
5674,33920
5675,33920
5676,33920
5677,33920
5678,33984
5679,34112
5680,34112
5681,34112
5682,34112
5683,34176
5684,34240
5685,34304
5686,34304
5687,34368
5688,34368
5689,34368
5690,34496
5691,34560
5692,34624
5693,34624
5694,34624
5695,34688
5696,34752
5697,34816
5698,34816
5699,34880
5700,34880
5701,34880
5702,34944
5703,34944
5704,34880
5705,34880
5706,34816
5707,34752
5708,34688
5709,34624
5710,34560
5711,34560
5712,34560
5713,34560
5714,34560
5715,34496
5716,34432
5717,34368
5718,34240
5719,34176
5720,34048
5721,33984
5722,33920
5723,33856
5724,33728
5725,33664
5726,33536
5727,33472
5728,33408
5729,33344
5730,33280
5731,33280
5732,33280
5733,33280
5734,33280
5735,33344
5736,33408
5737,33472
5738,33536
5739,33600
5740,33664
5741,33664
5742,33728
5743,33792
5744,33920
5745,33984
5746,33984
5747,34048
5748,34112
5749,34176
5750,34240
5751,34240
5752,34240
5753,34240
5754,34240
5755,34240
5756,34240
5757,34240
5758,34176
5759,34112
5760,34112
5761,34112
5762,34112
5763,34048
5764,33984
5765,33984
5766,33984
5767,33984
5768,34048
5769,34112
5770,34176
5771,34240
5772,34368
5773,34496
5774,34752
5775,34816
5776,34880
5777,34816
5778,34752
5779,34624
5780,34368
5781,34176
5782,33920
5783,33792
5784,33600
5785,33408
5786,33280
5787,33216
5788,33152
5789,33152
5790,33216
5791,33280
5792,33344
5793,33408
5794,33472
5795,33536
5796,33600
5797,33600
5798,33664
5799,33728
5800,33728
5801,33536
5802,33280
5803,33024
5804,32960
5805,33216
5806,34240
5807,36416
5808,39296
5809,42368
5810,44416
5811,44416
5812,41600
5813,39296
5814,36416
5815,33920
5816,32064
5817,30912
5818,30400
5819,30464
5820,30848
5821,31232
5822,31552
5823,31936
5824,32192
5825,32512
5826,32704
5827,32896
5828,33024
5829,33152
5830,33280
5831,33344
5832,33472
5833,33536
5834,33600
5835,33664
5836,33728
5837,33792
5838,33792
5839,33856
5840,33920
5841,33920
5842,33920
5843,33920
5844,33984
5845,33984
5846,34048
5847,34048
5848,34112
5849,34176
5850,34176
5851,34240
5852,34240
5853,34304
5854,34368
5855,34368
5856,34432
5857,34496
5858,34560
5859,34624
5860,34688
5861,34752
5862,34880
5863,34880
5864,34944
5865,34944
5866,35008
5867,35008
5868,35008
5869,34944
5870,34944
5871,34880
5872,34880
5873,34816
5874,34752
5875,34752
5876,34688
5877,34688
5878,34752
5879,34688
5880,34624
5881,34560
5882,34432
5883,34368
5884,34240
5885,34112
5886,33984
5887,33792
5888,33728
5889,33600
5890,33472
5891,33344
5892,33344
5893,33280
5894,33216
5895,33152
5896,33152
5897,33152
5898,33152
5899,33216
5900,33216
5901,33280
5902,33344
5903,33408
5904,33472
5905,33536
5906,33536
5907,33600
5908,33664
5909,33728
5910,33792
5911,33856
5912,33856
5913,33856
5914,33856
5915,33920
5916,33920
5917,33984
5918,33984
5919,34048
5920,34112
5921,34176
5922,34112
5923,34112
5924,34112
5925,34048
5926,33984
5927,33920
5928,33984
5929,33984
5930,33984
5931,33984
5932,33920
5933,33920
5934,33856
5935,33792
5936,33792
5937,33792
5938,33856
5939,33856
5940,33984
5941,34048
5942,34176
5943,34304
5944,34432
5945,34496
5946,34560
5947,34688
5948,34752
5949,34752
5950,34752
5951,34688
5952,34624
5953,34432
5954,34240
5955,34048
5956,33792
5957,33600
5958,33408
5959,33216
5960,33152
5961,33152
5962,33216
5963,33280
5964,33344
5965,33408
5966,33472
5967,33472
5968,33536
5969,33536
5970,33600
5971,33664
5972,33664
5973,33664
5974,33600
5975,33344
5976,33024
5977,32832
5978,32896
5979,33472
5980,35136
5981,37760
5982,41024
5983,43776
5984,44928
5985,43840
5986,41216
5987,38144
5988,35328
5989,32960
5990,31360
5991,30464
5992,30272
5993,30464
5994,30848
5995,31296
5996,31616
5997,31936
5998,32192
5999,32512
6000,32704
6001,32896
6002,33024
6003,33088
6004,33216
6005,33280
6006,33408
6007,33472
6008,33536
6009,33536
6010,33664
6011,33728
6012,33728
6013,33728
6014,33728
6015,33792
6016,33856
6017,33856
6018,33920
6019,33920
6020,33984
6021,34048
6022,34048
6023,34112
6024,34112
6025,34176
6026,34240
6027,34240
6028,34304
6029,34304
6030,34368
6031,34432
6032,34496
6033,34560
6034,34624
6035,34688
6036,34688
6037,34816
6038,34816
6039,34880
6040,34944
6041,34944
6042,34944
6043,34880
6044,34880
6045,34880
6046,34880
6047,34880
6048,34880
6049,34880
6050,34880
6051,34752
6052,34688
6053,34624
6054,34560
6055,34496
6056,34368
6057,34240
6058,34112
6059,33984
6060,33856
6061,33792
6062,33664
6063,33536
6064,33408
6065,33344
6066,33216
6067,33152
6068,33152
6069,33152
6070,33152
6071,33152
6072,33088
6073,33088
6074,33152
6075,33152
6076,33152
6077,33216
6078,33216
6079,33280
6080,33344
6081,33408
6082,33408
6083,33408
6084,33408
6085,33472
6086,33536
6087,33600
6088,33728
6089,33792
6090,33792
6091,33792
6092,33856
6093,33856
6094,33856
6095,33920
6096,33984
6097,33984
6098,33920
6099,33920
6100,33984
6101,33984
6102,33984
6103,33920
6104,33920
6105,33856
6106,33792
6107,33792
6108,33792
6109,33728
6110,33664
6111,33664
6112,33728
6113,33728
6114,33728
6115,33792
6116,33792
6117,33856
6118,33984
6119,34048
6120,34176
6121,34176
6122,34176
6123,34304
6124,34432
6125,34496
6126,34560
6127,34560
6128,34496
6129,34432
6130,34240
6131,34112
6132,33920
6133,33728
6134,33536
6135,33408
6136,33280
6137,33216
6138,33152
6139,33152
6140,33152
6141,33216
6142,33280
6143,33344
6144,33408
6145,33536
6146,33536
6147,33600
6148,33664
6149,33664
6150,33664
6151,33536
6152,33280
6153,33024
6154,32832
6155,32896
6156,33344
6157,35264
6158,37056
6159,40064
6160,43008
6161,44224
6162,43456
6163,40960
6164,38016
6165,35328
6166,33088
6167,31424
6168,30464
6169,30144
6170,30336
6171,30784
6172,31168
6173,31552
6174,31808
6175,32128
6176,32384
6177,32640
6178,32832
6179,32960
6180,33024
6181,33088
6182,33152
6183,33280
6184,33344
6185,33408
6186,33472
6187,33536
6188,33536
6189,33664
6190,33856
6191,33920
6192,33920
6193,33856
6194,33792
6195,33792
6196,33856
6197,33856
6198,33920
6199,33920
6200,33920
6201,33920
6202,34048
6203,34048
6204,34048
6205,34048
6206,34112
6207,34176
6208,34304
6209,34368
6210,34432
6211,34496
6212,34560
6213,34624
6214,34624
6215,34688
6216,34752
6217,34752
6218,34688
6219,34688
6220,34688
6221,34688
6222,34688
6223,34688
6224,34688
6225,34624
6226,34560
6227,34496
6228,34496
6229,34496
6230,34432
6231,34368
6232,34304
6233,34240
6234,34176
6235,34112
6236,34048
6237,33920
6238,33792
6239,33664
6240,33600
6241,33536
6242,33408
6243,33280
6244,33152
6245,33152
6246,33088
6247,33024
6248,33024
6249,33024
6250,33024
6251,33024
6252,33024
6253,33088
6254,33152
6255,33152
6256,33216
6257,33280
6258,33408
6259,33472
6260,33536
6261,33664
6262,33792
6263,33792
6264,33856
6265,33856
6266,33920
6267,33920
6268,33984
6269,34048
6270,34112
6271,34112
6272,34112
6273,34048
6274,34048
6275,34048
6276,34048
6277,34048
6278,34048
6279,34048
6280,34048
6281,33984
6282,33920
6283,33920
6284,33920
6285,33984
6286,33984
6287,34048
6288,34112
6289,34240
6290,34368
6291,34560
6292,34688
6293,34688
6294,34624
6295,34560
6296,34368
6297,34176
6298,34048
6299,33920
6300,33728
6301,33472
6302,33280
6303,33216
6304,33152
6305,33152
6306,33152
6307,33280
6308,33280
6309,33344
6310,33408
6311,33472
6312,33536
6313,33536
6314,33600
6315,33664
6316,33664
6317,33600
6318,33536
6319,33344
6320,33088
6321,32896
6322,33088
6323,33792
6324,35456
6325,38272
6326,41216
6327,43648
6328,44416
6329,43008
6330,40256
6331,37376
6332,34816
6333,32832
6334,31424
6335,30528
6336,30336
6337,30784
6338,30976
6339,31424
6340,31808
6341,32128
6342,32320
6343,32576
6344,32768
6345,32896
6346,33024
6347,33152
6348,33280
6349,33472
6350,33600
6351,33600
6352,33600
6353,33664
6354,33664
6355,33664
6356,33728
6357,33792
6358,33856
6359,33920
6360,33920
6361,33984
6362,33984
6363,34048
6364,34048
6365,34112
6366,34176
6367,34240
6368,34176
6369,34240
6370,34304
6371,34304
6372,34368
6373,34432
6374,34496
6375,34560
6376,34560
6377,34624
6378,34688
6379,34752
6380,34816
6381,34880
6382,34944
6383,34944
6384,35008
6385,35008
6386,35008
6387,34944
6388,34816
6389,34816
6390,34752
6391,34752
6392,34752
6393,34688
6394,34688
6395,34688
6396,34624
6397,34560
6398,34496
6399,34432
6400,34368
6401,34240
6402,34176
6403,34048
6404,33920
6405,33728
6406,33600
6407,33600
6408,33536
6409,33472
6410,33344
6411,33280
6412,33216
6413,33152
6414,33216
6415,33216
6416,33280
6417,33216
6418,33216
6419,33280
6420,33344
6421,33472
6422,33472
6423,33536
6424,33664
6425,33728
6426,33856
6427,33920
6428,33984
6429,33984
6430,33984
6431,34048
6432,34112
6433,34176
6434,34176
6435,34240
6436,34304
6437,34304
6438,34304
6439,34304
6440,34304
6441,34368
6442,34368
6443,34368
6444,34368
6445,34304
6446,34240
6447,34176
6448,34112
6449,34112
6450,34176
6451,34304
6452,34368
6453,34496
6454,34496
6455,34560
6456,34688
6457,34816
6458,34880
6459,34816
6460,34752
6461,34624
6462,34496
6463,34368
6464,34112
6465,33920
6466,33664
6467,33472
6468,33344
6469,33280
6470,33216
6471,33216
6472,33216
6473,33344
6474,33408
6475,33472
6476,33472
6477,33536
6478,33600
6479,33664
6480,33728
6481,33728
6482,33728
6483,33600
6484,33216
6485,32960
6486,32832
6487,34048
6488,34176
6489,38656
6490,41792
6491,44096
6492,44480
6493,42816
6494,40000
6495,37056
6496,34432
6497,32384
6498,31040
6499,30336
6500,30272
6501,30592
6502,30976
6503,31424
6504,31872
6505,32192
6506,32384
6507,32576
6508,32768
6509,32896
6510,33024
6511,33152
6512,33280
6513,33408
6514,33472
6515,33536
6516,33600
6517,33664
6518,33728
6519,33728
6520,33728
6521,33728
6522,33792
6523,33920
6524,33984
6525,34048
6526,34112
6527,34112
6528,34112
6529,34112
6530,34112
6531,34112
6532,34176
6533,34176
6534,34304
6535,34368
6536,34432
6537,34432
6538,34432
6539,34496
6540,34560
6541,34560
6542,34688
6543,34752
6544,34816
6545,34880
6546,34944
6547,35008
6548,35008
6549,35008
6550,34944
6551,35008
6552,35008
6553,34944
6554,35008
6555,35008
6556,34944
6557,34880
6558,34880
6559,34816
6560,34816
6561,34752
6562,34688
6563,34624
6564,34496
6565,34304
6566,34176
6567,34048
6568,33920
6569,33792
6570,33664
6571,33536
6572,33472
6573,33408
6574,33344
6575,33280
6576,33280
6577,33280
6578,33280
6579,33280
6580,33216
6581,33216
6582,33216
6583,33216
6584,33216
6585,33344
6586,33472
6587,33472
6588,33536
6589,33600
6590,33664
6591,33728
6592,33792
6593,33856
6594,33984
6595,34048
6596,34048
6597,33984
6598,33984
6599,34048
6600,34048
6601,34112
6602,34176
6603,34112
6604,34112
6605,34112
6606,34176
6607,34176
6608,34176
6609,34176
6610,34112
6611,34112
6612,34048
6613,33984
6614,33984
6615,33920
6616,33920
6617,33856
6618,33920
6619,33920
6620,33856
6621,33792
6622,33792
6623,33792
6624,33856
6625,33856
6626,33920
6627,33984
6628,34048
6629,34112
6630,34240
6631,34304
6632,34368
6633,34432
6634,34624
6635,34816
6636,34880
6637,34944
6638,34880
6639,34816
6640,34624
6641,34496
6642,34304
6643,34112
6644,33856
6645,33664
6646,33472
6647,33344
6648,33344
6649,33344
6650,33344
6651,33344
6652,33408
6653,33408
6654,33472
6655,33472
6656,33536
6657,33600
6658,33664
6659,33728
6660,33728
6661,33728
6662,33536
6663,33216
6664,32960
6665,32896
6666,33280
6667,34432
6668,36864
6669,39808
6670,42944
6671,44864
6672,44800
6673,42624
6674,39552
6675,36544
6676,33920
6677,31936
6678,30720
6679,30208
6680,30272
6681,30592
6682,30976
6683,31360
6684,31680
6685,31936
6686,32192
6687,32384
6688,32576
6689,32704
6690,32896
6691,33088
6692,33152
6693,33280
6694,33344
6695,33408
6696,33472
6697,33536
6698,33600
6699,33664
6700,33728
6701,33792
6702,33856
6703,33856
6704,33856
6705,33856
6706,33856
6707,33920
6708,33920
6709,33984
6710,33984
6711,34048
6712,34048
6713,34112
6714,34176
6715,34240
6716,34304
6717,34368
6718,34432
6719,34432
6720,34496
6721,34560
6722,34624
6723,34688
6724,34752
6725,34752
6726,34816
6727,34880
6728,34880
6729,34880
6730,34880
6731,34880
6732,34880
6733,34880
6734,34880
6735,34880
6736,34816
6737,34816
6738,34752
6739,34752
6740,34752
6741,34688
6742,34624
6743,34496
6744,34368
6745,34240
6746,34112
6747,34048
6748,33920
6749,33792
6750,33600
6751,33472
6752,33408
6753,33344
6754,33280
6755,33216
6756,33152
6757,33088
6758,33088
6759,33088
6760,33024
6761,33088
6762,33088
6763,33088
6764,33216
6765,33216
6766,33280
6767,33344
6768,33408
6769,33472
6770,33472
6771,33472
6772,33472
6773,33536
6774,33600
6775,33600
6776,33664
6777,33728
6778,33728
6779,33728
6780,33728
6781,33728
6782,33792
6783,33792
6784,33792
6785,33856
6786,33856
6787,33920
6788,33920
6789,33920
6790,33920
6791,33856
6792,33792
6793,33792
6794,33792
6795,33728
6796,33728
6797,33728
6798,33728
6799,33728
6800,33728
6801,33728
6802,33664
6803,33664
6804,33600
6805,33600
6806,33664
6807,33664
6808,33664
6809,33664
6810,33728
6811,33792
6812,33856
6813,33920
6814,33984
6815,34112
6816,34176
6817,34176
6818,34240
6819,34432
6820,34560
6821,34560
6822,34560
6823,34496
6824,34368
6825,34240
6826,34112
6827,33920
6828,33856
6829,33664
6830,33472
6831,33344
6832,33216
6833,33152
6834,33216
6835,33280
6836,33344
6837,33408
6838,33472
6839,33472
6840,33472
6841,33536
6842,33536
6843,33600
6844,33664
6845,33664
6846,33472
6847,33216
6848,32896
6849,32832
6850,32960
6851,33664
6852,35392
6853,38080
6854,41216
6855,43840
6856,44672
6857,43200
6858,40384
6859,37376
6860,34752
6861,32640
6862,31104
6863,30336
6864,30144
6865,30400
6866,30784
6867,31296
6868,31744
6869,32064
6870,32320
6871,32576
6872,32704
6873,32832
6874,33024
6875,33152
6876,33280
6877,33344
6878,33344
6879,33408
6880,33408
6881,33536
6882,33600
6883,33536
6884,33600
6885,33664
6886,33664
6887,33728
6888,33728
6889,33728
6890,33792
6891,33856
6892,33920
6893,33984
6894,34048
6895,34048
6896,34112
6897,34112
6898,34176
6899,34240
6900,34176
6901,34240
6902,34304
6903,34304
6904,34368
6905,34368
6906,34496
6907,34560
6908,34624
6909,34752
6910,34752
6911,34752
6912,34752
6913,34816
6914,34816
6915,34816
6916,34752
6917,34688
6918,34688
6919,34688
6920,34688
6921,34624
6922,34624
6923,34560
6924,34560
6925,34560
6926,34496
6927,34496
6928,34368
6929,34240
6930,34176
6931,34048
6932,33984
6933,33856
6934,33792
6935,33664
6936,33600
6937,33536
6938,33408
6939,33344
6940,33280
6941,33216
6942,33152
6943,33088
6944,33024
6945,33024
6946,33088
6947,33152
6948,33280
6949,33280
6950,33344
6951,33344
6952,33344
6953,33344
6954,33408
6955,33472
6956,33600
6957,33728
6958,33792
6959,33792
6960,33920
6961,33984
6962,34048
6963,34048
6964,34048
6965,34048
6966,33984
6967,33984
6968,34048
6969,34112
6970,34048
6971,34048
6972,33984
6973,33984
6974,33984
6975,33920
6976,33920
6977,33856
6978,33856
6979,33792
6980,33792
6981,33792
6982,33792
6983,33792
6984,33856
6985,33856
6986,33920
6987,34048
6988,34176
6989,34304
6990,34304
6991,34368
6992,34496
6993,34688
6994,34752
6995,34752
6996,34688
6997,34560
6998,34432
6999,34304
7000,34112
7001,33984
7002,33792
7003,33536
7004,33344
7005,33216
7006,33152
7007,33216
7008,33216
7009,33280
7010,33344
7011,33408
7012,33536
7013,33536
7014,33600
7015,33600
7016,33664
7017,33664
7018,33728
7019,33664
7020,33472
7021,33152
7022,32896
7023,32960
7024,33472
7025,34880
7026,37312
7027,40384
7028,43264
7029,44736
7030,43648
7031,41408
7032,38400
7033,35584
7034,33280
7035,31552
7036,30528
7037,30144
7038,30272
7039,30720
7040,31168
7041,31616
7042,31936
7043,32256
7044,32512
7045,32704
7046,32896
7047,33024
7048,33216
7049,33280
7050,33344
7051,33408
7052,33536
7053,33600
7054,33664
7055,33728
7056,33728
7057,33792
7058,33856
7059,33920
7060,33920
7061,33920
7062,33920
7063,33984
7064,33984
7065,33984
7066,33984
7067,34048
7068,34048
7069,34112
7070,34176
7071,34240
7072,34304
7073,34304
7074,34304
7075,34304
7076,34432
7077,34496
7078,34560
7079,34688
7080,34688
7081,34816
7082,34816
7083,34880
7084,34880
7085,34880
7086,34944
7087,34944
7088,34880
7089,34880
7090,34880
7091,34752
7092,34752
7093,34752
7094,34816
7095,34752
7096,34688
7097,34624
7098,34560
7099,34496
7100,34432
7101,34368
7102,34240
7103,34112
7104,34048
7105,33984
7106,33856
7107,33792
7108,33728
7109,33600
7110,33536
7111,33472
7112,33408
7113,33344
7114,33344
7115,33344
7116,33344
7117,33344
7118,33344
7119,33408
7120,33408
7121,33408
7122,33472
7123,33472
7124,33472
7125,33536
7126,33600
7127,33664
7128,33792
7129,33856
7130,33920
7131,33984
7132,34048
7133,34048
7134,34048
7135,34048
7136,34112
7137,34112
7138,34176
7139,34176
7140,34240
7141,34240
7142,34240
7143,34240
7144,34176
7145,34176
7146,34112
7147,34048
7148,34048
7149,34048
7150,33984
7151,33984
7152,33984
7153,33920
7154,33856
7155,33856
7156,33856
7157,33856
7158,33792
7159,33856
7160,33856
7161,33920
7162,33856
7163,33920
7164,34112
7165,34176
7166,34304
7167,34368
7168,34368
7169,34496
7170,34624
7171,34688
7172,34688
7173,34752
7174,34688
7175,34560
7176,34432
7177,34240
7178,34048
7179,33856
7180,33664
7181,33472
7182,33344
7183,33216
7184,33216
7185,33280
7186,33344
7187,33408
7188,33408
7189,33472
7190,33536
7191,33600
7192,33536
7193,33536
7194,33600
7195,33600
7196,33664
7197,33600
7198,33344
7199,33088
7200,32960
7201,33152
7202,33984
7203,35840
7204,38592
7205,41792
7206,44224
7207,44864
7208,43328
7209,40512
7210,37184
7211,34688
7212,32512
7213,31104
7214,30336
7215,30208
7216,30464
7217,30848
7218,31296
7219,31680
7220,32000
7221,32320
7222,32576
7223,32768
7224,32896
7225,33024
7226,33152
7227,33216
7228,33344
7229,33408
7230,33472
7231,33536
7232,33600
7233,33600
7234,33664
7235,33728
7236,33728
7237,33792
7238,33792
7239,33792
7240,33856
7241,33856
7242,33856
7243,33920
7244,33920
7245,33984
7246,33984
7247,34048
7248,34112
7249,34176
7250,34240
7251,34304
7252,34304
7253,34368
7254,34368
7255,34432
7256,34560
7257,34624
7258,34688
7259,34752
7260,34816
7261,34880
7262,34880
7263,34880
7264,34880
7265,34944
7266,34944
7267,34944
7268,34880
7269,34880
7270,34816
7271,34752
7272,34752
7273,34752
7274,34752
7275,34688
7276,34688
7277,34624
7278,34560
7279,34496
7280,34432
7281,34304
7282,34240
7283,34048
7284,33920
7285,33792
7286,33728
7287,33600
7288,33536
7289,33408
7290,33344
7291,33280
7292,33216
7293,33216
7294,33216
7295,33216
7296,33216
7297,33216
7298,33280
7299,33280
7300,33344
7301,33408
7302,33536
7303,33600
7304,33600
7305,33600
7306,33664
7307,33792
7308,33856
7309,33920
7310,33984
7311,33984
7312,33984
7313,33920
7314,33920
7315,33984
7316,33984
7317,33984
7318,33920
7319,33920
7320,33920
7321,33920
7322,33920
7323,33920
7324,33920
7325,33856
7326,33856
7327,33920
7328,33920
7329,33920
7330,33856
7331,33856
7332,33856
7333,33792
7334,33792
7335,33728
7336,33792
7337,33792
7338,33728
7339,33728
7340,33728
7341,33728
7342,33728
7343,33792
7344,33856
7345,33984
7346,34048
7347,34176
7348,34304
7349,34368
7350,34368
7351,34368
7352,34432
7353,34496
7354,34496
7355,34560
7356,34560
7357,34560
7358,34432
7359,34304
7360,34176
7361,34048
7362,33856
7363,33664
7364,33472
7365,33344
7366,33216
7367,33216
7368,33280
7369,33344
7370,33344
7371,33408
7372,33536
7373,33600
7374,33600
7375,33664
7376,33728
7377,33792
7378,33792
7379,33792
7380,33600
7381,33344
7382,33024
7383,32896
7384,33152
7385,34112
7386,36224
7387,39488
7388,42432
7389,44672
7390,44992
7391,43136
7392,40128
7393,37056
7394,34368
7395,32192
7396,30848
7397,30144
7398,30144
7399,30464
7400,30912
7401,31296
7402,31680
7403,32000
7404,32256
7405,32512
7406,32704
7407,32832
7408,32960
7409,33088
7410,33280
7411,33344
7412,33408
7413,33472
7414,33536
7415,33600
7416,33664
7417,33664
7418,33664
7419,33728
7420,33728
7421,33728
7422,33728
7423,33792
7424,33792
7425,33856
7426,33856
7427,33920
7428,33984
7429,33984
7430,34048
7431,34112
7432,34112
7433,34112
7434,34176
7435,34176
7436,34240
7437,34240
7438,34304
7439,34368
7440,34496
7441,34560
7442,34624
7443,34688
7444,34752
7445,34752
7446,34816
7447,34816
7448,34816
7449,34752
7450,34688
7451,34624
7452,34624
7453,34560
7454,34560
7455,34560
7456,34560
7457,34560
7458,34496
7459,34496
7460,34432
7461,34368
7462,34304
7463,34240
7464,34112
7465,34048
7466,33920
7467,33856
7468,33792
7469,33664
7470,33600
7471,33472
7472,33408
7473,33408
7474,33344
7475,33216
7476,33152
7477,33088
7478,33088
7479,33088
7480,33152
7481,33152
7482,33216
7483,33280
7484,33344
7485,33408
7486,33472
7487,33472
7488,33536
7489,33536
7490,33600
7491,33600
7492,33664
7493,33728
7494,33792
7495,33856
7496,33920
7497,33920
7498,33920
7499,33920
7500,33920
7501,33984
7502,33920
7503,33920
7504,33920
7505,33856
7506,33856
7507,33792
7508,33792
7509,33792
7510,33792
7511,33792
7512,33792
7513,33792
7514,33792
7515,33728
7516,33664
7517,33664
7518,33664
7519,33728
7520,33856
7521,33920
7522,34048
7523,34112
7524,34176
7525,34176
7526,34304
7527,34432
7528,34496
7529,34496
7530,34496
7531,34496
7532,34368
7533,34240
7534,34112
7535,33920
7536,33728
7537,33472
7538,33344
7539,33216
7540,33152
7541,33152
7542,33216
7543,33280
7544,33280
7545,33280
7546,33344
7547,33408
7548,33472
7549,33472
7550,33536
7551,33600
7552,33600
7553,33600
7554,33536
7555,33280
7556,32960
7557,32896
7558,33088
7559,33984
7560,35904
7561,38656
7562,41728
7563,43968
7564,44352
7565,42496
7566,39552
7567,36288
7568,34112
7569,32128
7570,30848
7571,30208
7572,30144
7573,30464
7574,30912
7575,31424
7576,31808
7577,32128
7578,32448
7579,32640
7580,32832
7581,32960
7582,33088
7583,33152
7584,33280
7585,33408
7586,33472
7587,33536
7588,33536
7589,33600
7590,33600
7591,33600
7592,33664
7593,33664
7594,33728
7595,33728
7596,33792
7597,33856
7598,33856
7599,33856
7600,33856
7601,33920
7602,33984
7603,34048
7604,34048
7605,34112
7606,34176
7607,34176
7608,34176
7609,34240
7610,34304
7611,34368
7612,34432
7613,34432
7614,34496
7615,34560
7616,34560
7617,34624
7618,34688
7619,34752
7620,34752
7621,34816
7622,34816
7623,34752
7624,34688
7625,34624
7626,34560
7627,34560
7628,34560
7629,34560
7630,34496
7631,34368
7632,34368
7633,34304
7634,34240
7635,34176
7636,34112
7637,33984
7638,33920
7639,33920
7640,33856
7641,33792
7642,33728
7643,33600
7644,33536
7645,33408
7646,33408
7647,33280
7648,33280
7649,33216
7650,33152
7651,33088
7652,33088
7653,33088
7654,33152
7655,33152
7656,33216
7657,33280
7658,33344
7659,33408
7660,33600
7661,33728
7662,33728
7663,33792
7664,33792
7665,33856
7666,33920
7667,33984
7668,34048
7669,34112
7670,34176
7671,34176
7672,34176
7673,34176
7674,34176
7675,34176
7676,34176
7677,34112
7678,34112
7679,34048
7680,33984
7681,33920
7682,33920
7683,33920
7684,33920
7685,34048
7686,34112
7687,34240
7688,34240
7689,34304
7690,34304
7691,34368
7692,34496
7693,34624
7694,34624
7695,34560
7696,34432
7697,34368
7698,34240
7699,34112
7700,33984
7701,33792
7702,33536
7703,33344
7704,33216
7705,33152
7706,33088
7707,33088
7708,33152
7709,33216
7710,33280
7711,33344
7712,33408
7713,33472
7714,33536
7715,33600
7716,33600
7717,33600
7718,33600
7719,33472
7720,33280
7721,33024
7722,32960
7723,33152
7724,33984
7725,35776
7726,38464
7727,41600
7728,43968
7729,44480
7730,42880
7731,40000
7732,36864
7733,34496
7734,32448
7735,31040
7736,30336
7737,30208
7738,30528
7739,30976
7740,31424
7741,31872
7742,32192
7743,32512
7744,32768
7745,32896
7746,33088
7747,33216
7748,33344
7749,33408
7750,33472
7751,33536
7752,33600
7753,33664
7754,33664
7755,33728
7756,33728
7757,33792
7758,33792
7759,33792
7760,33792
7761,33856
7762,33920
7763,33984
7764,33984
7765,34048
7766,33984
7767,33984
7768,34112
7769,34176
7770,34240
7771,34304
7772,34368
7773,34432
7774,34496
7775,34560
7776,34560
7777,34624
7778,34624
7779,34688
7780,34752
7781,34816
7782,34880
7783,34944
7784,34944
7785,34944
7786,34944
7787,34880
7788,34816
7789,34816
7790,34752
7791,34688
7792,34688
7793,34624
7794,34560
7795,34496
7796,34432
7797,34432
7798,34368
7799,34368
7800,34304
7801,34240
7802,34176
7803,34048
7804,33984
7805,33984
7806,33920
7807,33792
7808,33728
7809,33600
7810,33536
7811,33408
7812,33344
7813,33280
7814,33280
7815,33280
7816,33280
7817,33280
7818,33344
7819,33408
7820,33408
7821,33472
7822,33536
7823,33536
7824,33600
7825,33664
7826,33728
7827,33856
7828,33856
7829,33920
7830,33920
7831,33984
7832,34048
7833,34112
7834,34176
7835,34240
7836,34240
7837,34240
7838,34240
7839,34240
7840,34176
7841,34112
7842,34048
7843,34048
7844,34048
7845,34048
7846,34048
7847,34048
7848,34048
7849,34112
7850,34240
7851,34304
7852,34368
7853,34368
7854,34368
7855,34432
7856,34560
7857,34624
7858,34560
7859,34560
7860,34560
7861,34432
7862,34304
7863,34176
7864,33984
7865,33792
7866,33536
7867,33344
7868,33216
7869,33152
7870,33216
7871,33216
7872,33216
7873,33280
7874,33344
7875,33344
7876,33344
7877,33408
7878,33472
7879,33536
7880,33600
7881,33664
7882,33664
7883,33600
7884,33280
7885,32960
7886,32896
7887,33088
7888,33984
7889,35968
7890,38848
7891,41984
7892,44224
7893,44608
7894,42816
7895,39872
7896,36864
7897,33664
7898,32192
7899,30976
7900,30336
7901,30336
7902,30656
7903,31104
7904,31488
7905,31872
7906,32192
7907,32448
7908,32640
7909,32832
7910,33024
7911,33152
7912,33280
7913,33408
7914,33472
7915,33536
7916,33600
7917,33600
7918,33664
7919,33728
7920,33792
7921,33856
7922,33920
7923,33920
7924,33984
7925,33984
7926,33984
7927,34048
7928,34048
7929,34048
7930,34112
7931,34112
7932,34176
7933,34176
7934,34176
7935,34240
7936,34304
7937,34368
7938,34432
7939,34496
7940,34560
7941,34624
7942,34688
7943,34752
7944,34816
7945,34816
7946,34880
7947,34880
7948,34944
7949,34944
7950,34944
7951,34944
7952,34944
7953,34944
7954,34880
7955,34816
7956,34752
7957,34688
7958,34624
7959,34624
7960,34624
7961,34624
7962,34560
7963,34496
7964,34496
7965,34432
7966,34304
7967,34176
7968,34048
7969,33856
7970,33728
7971,33664
7972,33600
7973,33536
7974,33472
7975,33344
7976,33280
7977,33280
7978,33216
7979,33216
7980,33216
7981,33216
7982,33280
7983,33344
7984,33344
7985,33408
7986,33472
7987,33536
7988,33600
7989,33664
7990,33664
7991,33728
7992,33728
7993,33856
7994,33920
7995,34048
7996,34112
7997,34176
7998,34176
7999,34112
8000,34112
8001,34048
8002,34048
8003,34048
8004,34112
8005,34112
8006,34112
8007,34048
8008,33984
8009,33920
8010,33920
8011,33856
8012,33792
8013,33728
8014,33792
8015,33792
8016,33920
8017,34112
8018,34240
8019,34304
8020,34304
8021,34304
8022,34304
8023,34432
8024,34496
8025,34496
8026,34496
8027,34496
8028,34432
8029,34304
8030,34176
8031,33984
8032,33792
8033,33600
8034,33408
8035,33280
8036,33216
8037,33152
8038,33152
8039,33152
8040,33216
8041,33216
8042,33280
8043,33344
8044,33408
8045,33536
8046,33600
8047,33664
8048,33664
8049,33664
8050,33664
8051,33472
8052,33216
8053,32960
8054,32896
8055,33216
8056,34304
8057,36480
8058,39488
8059,42624
8060,44608
8061,44480
8062,41280
8063,39296
8064,36288
8065,33728
8066,31744
8067,30656
8068,30208
8069,30208
8070,30528
8071,30912
8072,31232
8073,31616
8074,32000
8075,32320
8076,32576
8077,32768
8078,32960
8079,33024
8080,33152
8081,33216
8082,33280
8083,33344
8084,33344
8085,33408
8086,33408
8087,33472
8088,33536
8089,33664
8090,33664
8091,33728
8092,33664
8093,33728
8094,33728
8095,33792
8096,33856
8097,33856
8098,33856
8099,33920
8100,33984
8101,33984
8102,33984
8103,34048
8104,34112
8105,34176
8106,34240
8107,34304
8108,34368
8109,34432
8110,34496
8111,34624
8112,34624
8113,34624
8114,34688
8115,34688
8116,34688
8117,34688
8118,34688
8119,34752
8120,34816
8121,34752
8122,34688
8123,34560
8124,34496
8125,34432
8126,34432
8127,34432
8128,34432
8129,34432
8130,34368
8131,34304
8132,34176
8133,34048
8134,33920
8135,33856
8136,33792
8137,33664
8138,33600
8139,33536
8140,33536
8141,33408
8142,33344
8143,33216
8144,33152
8145,33088
8146,33024
8147,33024
8148,33088
8149,33152
8150,33152
8151,33152
8152,33152
8153,33152
8154,33216
8155,33280
8156,33344
8157,33408
8158,33472
8159,33536
8160,33600
8161,33664
8162,33728
8163,33728
8164,33728
8165,33792
8166,33856
8167,33920
8168,33920
8169,33920
8170,33856
8171,33920
8172,33920
8173,33920
8174,33920
8175,33920
8176,33856
8177,33792
8178,33792
8179,33856
8180,33984
8181,34112
8182,34176
8183,34240
8184,34304
8185,34432
8186,34560
8187,34496
8188,34432
8189,34368
8190,34368
8191,34304
8192,34176
8193,34048
8194,33792
8195,33600
8196,33344
8197,33088
8198,32960
8199,32960
8200,32960
8201,32960
8202,33024
8203,33088
8204,33216
8205,33280
8206,33408
8207,33472
8208,33472
8209,33408
8210,33408
8211,33344
8212,33280
8213,33216
8214,33024
8215,32768
8216,32640
8217,32896
8218,33728
8219,35456
8220,38080
8221,41088
8222,43392
8223,43840
8224,42176
8225,39424
8226,36672
8227,33536
8228,32256
8229,30976
8230,30336
8231,30144
8232,30464
8233,30848
8234,31296
8235,31872
8236,32192
8237,32384
8238,32576
8239,32768
8240,32896
8241,33088
8242,33216
8243,33280
8244,33344
8245,33408
8246,33536
8247,33600
8248,33600
8249,33600
8250,33664
8251,33728
8252,33792
8253,33856
8254,33792
8255,33792
8256,33792
8257,33792
8258,33792
8259,33856
8260,33856
8261,33920
8262,33984
8263,33984
8264,33984
8265,34048
8266,34048
8267,34112
8268,34240
8269,34432
8270,34496
8271,34496
8272,34560
8273,34496
8274,34560
8275,34560
8276,34624
8277,34688
8278,34688
8279,34688
8280,34688
8281,34688
8282,34688
8283,34688
8284,34624
8285,34496
8286,34368
8287,34368
8288,34240
8289,34176
8290,34240
8291,34304
8292,34304
8293,34304
8294,34176
8295,34048
8296,33920
8297,33792
8298,33728
8299,33664
8300,33600
8301,33472
8302,33408
8303,33344
8304,33280
8305,33088
8306,33088
8307,33024
8308,33024
8309,33088
8310,33152
8311,33088
8312,33088
8313,33152
8314,33280
8315,33344
8316,33344
8317,33280
8318,33280
8319,33408
8320,33344
8321,33664
8322,33792
8323,33856
8324,33792
8325,33792
8326,33920
8327,33984
8328,33984
8329,34048
8330,34112
8331,34304
8332,34496
8333,34624
8334,34752
8335,34816
8336,34880
8337,34944
8338,34880
8339,34816
8340,34816
8341,34816
8342,34688
8343,34496
8344,34304
8345,34176
8346,33984
8347,33728
8348,33408
8349,33152
8350,33088
8351,33088
8352,33088
8353,33024
8354,33088
8355,33152
8356,33280
8357,33280
8358,33344
8359,33472
8360,33600
8361,33664
8362,33600
8363,33536
8364,33344
8365,33088
8366,32832
8367,32832
8368,33152
8369,34048
8370,35904
8371,38592
8372,41536
8373,43712
8374,44096
8375,42368
8376,38144
8377,37696
8378,34176
8379,32128
8380,30848
8381,30208
8382,30144
8383,30464
8384,30912
8385,31360
8386,31808
8387,32192
8388,32512
8389,32768
8390,32896
8391,32960
8392,33088
8393,33216
8394,33344
8395,33408
8396,33536
8397,33600
8398,33600
8399,33600
8400,33600
8401,33664
8402,33728
8403,33856
8404,33856
8405,33856
8406,33920
8407,33920
8408,33984
8409,34048
8410,34048
8411,34112
8412,34112
8413,34112
8414,34176
8415,34240
8416,34304
8417,34304
8418,34368
8419,34368
8420,34432
8421,34496
8422,34624
8423,34624
8424,34752
8425,34816
8426,34880
8427,34944
8428,34944
8429,34880
8430,34880
8431,34816
8432,34816
8433,34688
8434,34688
8435,34624
8436,34560
8437,34560
8438,34496
8439,34496
8440,34496
8441,34496
8442,34496
8443,34496
8444,34432
8445,34304
8446,34176
8447,34048
8448,33984
8449,33920
8450,33856
8451,33728
8452,33600
8453,33472
8454,33472
8455,33472
8456,33472
8457,33408
8458,33344
8459,33408
8460,33344
8461,33344
8462,33344
8463,33408
8464,33472
8465,33536
8466,33600
8467,33664
8468,33664
8469,33728
8470,33792
8471,33856
8472,33856
8473,33920
8474,33984
8475,34048
8476,34112
8477,34176
8478,34176
8479,34240
8480,34304
8481,34432
8482,34560
8483,34688
8484,34880
8485,34944
8486,35072
8487,35200
8488,35328
8489,35392
8490,35392
8491,35328
8492,35136
8493,34944
8494,34688
8495,34432
8496,34176
8497,33920
8498,33600
8499,33344
8500,33216
8501,33216
8502,33216
8503,33216
8504,33280
8505,33344
8506,33408
8507,33472
8508,33536
8509,33600
8510,33600
8511,33664
8512,33664
8513,33664
8514,33536
8515,33216
8516,32960
8517,32960
8518,33280
8519,34240
8520,36288
8521,39168
8522,42304
8523,44480
8524,44608
8525,42624
8526,39680
8527,36672
8528,34112
8529,32192
8530,30976
8531,30400
8532,30336
8533,30592
8534,30976
8535,31360
8536,31808
8537,32128
8538,32448
8539,32640
8540,32832
8541,32960
8542,33024
8543,33152
8544,33152
8545,33216
8546,33344
8547,33408
8548,33472
8549,33536
8550,33536
8551,33600
8552,33600
8553,33664
8554,33728
8555,33792
8556,33856
8557,33856
8558,33920
8559,33984
8560,34048
8561,34048
8562,34048
8563,34112
8564,34112
8565,34176
8566,34240
8567,34304
8568,34368
8569,34432
8570,34496
8571,34496
8572,34560
8573,34560
8574,34624
8575,34688
8576,34752
8577,34816
8578,34880
8579,34880
8580,34880
8581,34880
8582,34816
8583,34816
8584,34816
8585,34752
8586,34688
8587,34624
8588,34624
8589,34624
8590,34624
8591,34624
8592,34624
8593,34560
8594,34496
8595,34432
8596,34368
8597,34240
8598,34176
8599,34112
8600,34048
8601,33984
8602,33856
8603,33728
8604,33664
8605,33600
8606,33536
8607,33472
8608,33472
8609,33472
8610,33472
8611,33472
8612,33536
8613,33536
8614,33600
8615,33664
8616,33728
8617,33792
8618,33920
8619,33984
8620,33984
8621,34048
8622,34112
8623,34112
8624,34176
8625,34176
8626,34240
8627,34240
8628,34304
8629,34368
8630,34368
8631,34432
8632,34560
8633,34688
8634,34752
8635,34944
8636,35072
8637,35136
8638,35200
8639,35200
8640,35072
8641,34880
8642,34688
8643,34496
8644,34304
8645,34048
8646,33792
8647,33536
8648,33344
8649,33216
8650,33152
8651,33088
8652,33152
8653,33152
8654,33216
8655,33280
8656,33344
8657,33408
8658,33472
8659,33472
8660,33536
8661,33536
8662,33600
8663,33600
8664,33344
8665,32960
8666,32704
8667,32832
8668,33472
8669,35200
8670,37888
8671,41152
8672,43968
8673,45056
8674,43904
8675,41152
8676,37952
8677,35136
8678,32768
8679,31168
8680,30336
8681,30144
8682,30400
8683,30848
8684,31360
8685,31744
8686,32000
8687,32320
8688,32512
8689,32768
8690,32896
8691,33024
8692,33152
8693,33280
8694,33408
8695,33472
8696,33600
8697,33600
8698,33664
8699,33664
8700,33728
8701,33728
8702,33792
8703,33856
8704,33920
8705,33984
8706,34048
8707,34048
8708,34048
8709,34048
8710,34048
8711,34048
8712,34112
8713,34176
8714,34240
8715,34368
8716,34432
8717,34496
8718,34560
8719,34560
8720,34560
8721,34624
8722,34688
8723,34752
8724,34752
8725,34816
8726,34816
8727,34816
8728,34816
8729,34752
8730,34752
8731,34752
8732,34688
8733,34624
8734,34624
8735,34560
8736,34560
8737,34496
8738,34560
8739,34560
8740,34560
8741,34560
8742,34496
8743,34432
8744,34368
8745,34240
8746,34176
8747,34112
8748,34048
8749,33920
8750,33856
8751,33728
8752,33664
8753,33536
8754,33472
8755,33408
8756,33408
8757,33344
8758,33344
8759,33408
8760,33408
8761,33472
8762,33472
8763,33600
8764,33664
8765,33664
8766,33728
8767,33792
8768,33856
8769,33920
8770,33984
8771,33984
8772,34048
8773,34112
8774,34176
8775,34176
8776,34240
8777,34240
8778,34240
8779,34240
8780,34240
8781,34240
8782,34176
8783,34112
8784,34112
8785,34112
8786,34112
8787,34048
8788,34048
8789,33984
8790,33920
8791,33920
8792,33920
8793,33856
8794,33856
8795,33792
8796,33856
8797,33920
8798,34048
8799,34176
8800,34368
8801,34560
8802,34752
8803,34880
8804,34944
8805,34944
8806,34752
8807,34560
8808,34304
8809,34048
8810,33792
8811,33600
8812,33408
8813,33280
8814,33280
8815,33280
8816,33280
8817,33344
8818,33408
8819,33472
8820,33536
8821,33600
8822,33600
8823,33664
8824,33728
8825,33728
8826,33792
8827,33792
8828,33600
8829,33280
8830,33088
8831,33024
8832,33408
8833,34496
8834,36736
8835,39872
8836,43008
8837,44928
8838,44736
8839,42560
8840,39360
8841,36288
8842,33664
8843,31808
8844,30656
8845,30144
8846,30272
8847,30656
8848,31040
8849,31488
8850,31808
8851,32128
8852,32384
8853,32576
8854,32704
8855,32896
8856,33024
8857,33152
8858,33280
8859,33344
8860,33408
8861,33472
8862,33536
8863,33600
8864,33728
8865,33728
8866,33728
8867,33792
8868,33856
8869,33856
8870,33856
8871,33920
8872,33920
8873,33984
8874,33984
8875,34048
8876,34112
8877,34112
8878,34176
8879,34240
8880,34304
8881,34304
8882,34368
8883,34368
8884,34432
8885,34496
8886,34560
8887,34560
8888,34624
8889,34752
8890,34816
8891,34816
8892,34816
8893,34816
8894,34816
8895,34752
8896,34752
8897,34816
8898,34752
8899,34752
8900,34752
8901,34752
8902,34688
8903,34688
8904,34624
8905,34560
8906,34496
8907,34432
8908,34368
8909,34368
8910,34368
8911,34240
8912,34176
8913,34048
8914,33984
8915,33856
8916,33792
8917,33664
8918,33600
8919,33536
8920,33536
8921,33472
8922,33472
8923,33472
8924,33472
8925,33408
8926,33408
8927,33408
8928,33344
8929,33344
8930,33344
8931,33408
8932,33472
8933,33472
8934,33600
8935,33664
8936,33728
8937,33792
8938,33792
8939,33856
8940,33856
8941,33856
8942,33856
8943,33856
8944,33856
8945,33856
8946,33856
8947,33920
8948,33920
8949,33920
8950,33920
8951,33920
8952,33856
8953,33792
8954,33856
8955,33856
8956,33856
8957,33792
8958,33664
8959,33664
8960,33664
8961,33664
8962,33728
8963,33728
8964,33728
8965,33664
8966,33664
8967,33664
8968,33728
8969,33792
8970,33920
8971,34048
8972,34240
8973,34432
8974,34624
8975,34752
8976,34816
8977,34880
8978,34816
8979,34624
8980,34368
8981,34112
8982,33856
8983,33600
8984,33344
8985,33216
8986,33088
8987,33024
8988,33088
8989,33152
8990,33216
8991,33216
8992,33280
8993,33344
8994,33408
8995,33472
8996,33536
8997,33600
8998,33664
8999,33664
9000,33664
9001,33536
9002,33216
9003,32960
9004,32896
9005,33216
9006,34304
9007,36416
9008,39360
9009,42304
9010,44096
9011,43712
9012,41472
9013,38528
9014,35776
9015,33408
9016,31680
9017,30592
9018,30208
9019,30336
9020,30784
9021,31232
9022,31616
9023,32000
9024,32320
9025,32640
9026,32832
9027,33024
9028,33088
9029,33152
9030,33280
9031,33344
9032,33408
9033,33472
9034,33536
9035,33600
9036,33664
9037,33664
9038,33728
9039,33728
9040,33792
9041,33856
9042,33856
9043,33920
9044,33920
9045,33920
9046,33920
9047,33920
9048,33984
9049,33984
9050,34048
9051,34112
9052,34112
9053,34048
9054,34112
9055,34176
9056,34240
9057,34304
9058,34368
9059,34368
9060,34432
9061,34496
9062,34560
9063,34624
9064,34624
9065,34624
9066,34560
9067,34560
9068,34560
9069,34496
9070,34496
9071,34432
9072,34496
9073,34432
9074,34368
9075,34304
9076,34304
9077,34240
9078,34240
9079,34240
9080,34240
9081,34240
9082,34176
9083,34176
9084,34112
9085,34112
9086,33984
9087,33920
9088,33856
9089,33728
9090,33664
9091,33536
9092,33536
9093,33472
9094,33408
9095,33344
9096,33280
9097,33280
9098,33280
9099,33280
9100,33344
9101,33408
9102,33408
9103,33472
9104,33536
9105,33600
9106,33728
9107,33792
9108,33856
9109,33920
9110,33984
9111,33984
9112,34048
9113,34048
9114,34048
9115,34112
9116,34112
9117,34112
9118,34112
9119,34112
9120,34048
9121,34048
9122,34048
9123,34048
9124,33984
9125,33920
9126,33920
9127,33856
9128,33856
9129,33792
9130,33792
9131,33792
9132,33856
9133,33984
9134,34176
9135,34304
9136,34496
9137,34624
9138,34688
9139,34816
9140,34816
9141,34752
9142,34624
9143,34432
9144,34176
9145,33920
9146,33600
9147,33344
9148,33216
9149,33152
9150,33088
9151,33152
9152,33152
9153,33216
9154,33280
9155,33344
9156,33408
9157,33472
9158,33472
9159,33536
9160,33600
9161,33600
9162,33600
9163,33536
9164,33344
9165,33024
9166,32768
9167,32832
9168,33280
9169,34624
9170,36992
9171,39936
9172,42688
9173,44032
9174,43200
9175,40704
9176,37824
9177,35136
9178,32960
9179,31424
9180,30528
9181,30208
9182,30336
9183,30784
9184,31296
9185,31808
9186,32128
9187,32448
9188,32704
9189,32960
9190,33088
9191,33152
9192,33216
9193,33344
9194,33408
9195,33472
9196,33536
9197,33600
9198,33664
9199,33728
9200,33856
9201,33920
9202,33920
9203,33920
9204,33920
9205,33920
9206,33920
9207,33920
9208,33984
9209,34048
9210,34048
9211,34112
9212,34112
9213,34176
9214,34176
9215,34240
9216,34304
9217,34368
9218,34432
9219,34496
9220,34496
9221,34560
9222,34560
9223,34624
9224,34688
9225,34688
9226,34752
9227,34752
9228,34752
9229,34752
9230,34688
9231,34688
9232,34624
9233,34560
9234,34496
9235,34496
9236,34432
9237,34368
9238,34368
9239,34368
9240,34304
9241,34304
9242,34368
9243,34368
9244,34368
9245,34304
9246,34304
9247,34240
9248,34176
9249,34048
9250,33984
9251,33920
9252,33856
9253,33792
9254,33664
9255,33600
9256,33536
9257,33472
9258,33408
9259,33408
9260,33408
9261,33408
9262,33472
9263,33472
9264,33600
9265,33664
9266,33728
9267,33792
9268,33856
9269,33984
9270,34048
9271,34112
9272,34176
9273,34240
9274,34240
9275,34240
9276,34304
9277,34368
9278,34368
9279,34368
9280,34304
9281,34304
9282,34240
9283,34176
9284,34176
9285,34112
9286,34048
9287,34048
9288,33984
9289,33984
9290,33984
9291,33984
9292,33920
9293,33920
9294,33920
9295,33920
9296,33856
9297,33920
9298,33984
9299,34112
9300,34240
9301,34432
9302,34624
9303,34816
9304,34880
9305,34880
9306,34880
9307,34688
9308,34560
9309,34368
9310,34112
9311,33856
9312,33600
9313,33408
9314,33280
9315,33216
9316,33216
9317,33216
9318,33280
9319,33344
9320,33408
9321,33408
9322,33472
9323,33536
9324,33600
9325,33664
9326,33728
9327,33728
9328,33664
9329,33408
9330,33152
9331,32896
9332,32896
9333,33344
9334,34560
9335,36864
9336,39936
9337,42816
9338,44416
9339,43968
9340,41408
9341,38528
9342,35648
9343,33280
9344,31552
9345,30528
9346,30208
9347,30336
9348,30784
9349,31232
9350,31616
9351,31936
9352,32256
9353,32512
9354,32768
9355,32960
9356,33152
9357,33216
9358,33280
9359,33344
9360,33472
9361,33536
9362,33600
9363,33664
9364,33728
9365,33728
9366,33792
9367,33856
9368,33856
9369,33920
9370,33920
9371,33920
9372,33984
9373,33984
9374,34048
9375,34112
9376,34112
9377,34176
9378,34176
9379,34176
9380,34176
9381,34240
9382,34304
9383,34368
9384,34368
9385,34432
9386,34496
9387,34560
9388,34624
9389,34688
9390,34688
9391,34688
9392,34688
9393,34752
9394,34752
9395,34816
9396,34816
9397,34752
9398,34688
9399,34560
9400,34496
9401,34432
9402,34432
9403,34368
9404,34368
9405,34368
9406,34432
9407,34432
9408,34432
9409,34368
9410,34368
9411,34240
9412,34176
9413,34112
9414,34048
9415,33984
9416,33856
9417,33792
9418,33664
9419,33600
9420,33536
9421,33472
9422,33408
9423,33344
9424,33344
9425,33344
9426,33408
9427,33472
9428,33472
9429,33472
9430,33472
9431,33536
9432,33600
9433,33600
9434,33664
9435,33728
9436,33792
9437,33856
9438,33920
9439,33984
9440,33984
9441,34048
9442,34048
9443,34048
9444,34112
9445,34112
9446,34048
9447,34048
9448,34048
9449,34048
9450,34112
9451,34112
9452,34048
9453,34048
9454,33984
9455,33984
9456,33920
9457,33920
9458,33856
9459,33856
9460,33856
9461,33792
9462,33792
9463,33792
9464,33856
9465,33856
9466,33792
9467,33728
9468,33728
9469,33728
9470,33792
9471,33856
9472,33856
9473,33920
9474,33984
9475,34112
9476,34304
9477,34496
9478,34688
9479,34880
9480,35008
9481,35072
9482,35008
9483,34816
9484,34688
9485,34432
9486,34176
9487,33920
9488,33664
9489,33472
9490,33344
9491,33280
9492,33216
9493,33216
9494,33280
9495,33344
9496,33408
9497,33472
9498,33600
9499,33600
9500,33664
9501,33728
9502,33728
9503,33728
9504,33728
9505,33536
9506,33280
9507,33024
9508,33088
9509,33536
9510,34880
9511,37248
9512,40320
9513,43264
9514,44928
9515,44352
9516,41920
9517,38720
9518,35840
9519,33344
9520,31552
9521,30528
9522,30144
9523,30336
9524,30720
9525,31168
9526,31616
9527,32000
9528,32256
9529,32448
9530,32640
9531,32832
9532,32960
9533,33152
9534,33280
9535,33408
9536,33536
9537,33600
9538,33600
9539,33664
9540,33664
9541,33728
9542,33728
9543,33856
9544,33920
9545,33984
9546,33984
9547,34048
9548,34048
9549,33984
9550,34048
9551,34048
9552,34048
9553,34112
9554,34112
9555,34176
9556,34240
9557,34304
9558,34368
9559,34432
9560,34432
9561,34432
9562,34496
9563,34560
9564,34624
9565,34688
9566,34752
9567,34752
9568,34752
9569,34752
9570,34816
9571,34816
9572,34816
9573,34752
9574,34752
9575,34688
9576,34560
9577,34560
9578,34496
9579,34496
9580,34496
9581,34496
9582,34496
9583,34432
9584,34432
9585,34432
9586,34368
9587,34368
9588,34304
9589,34240
9590,34112
9591,33984
9592,33920
9593,33856
9594,33728
9595,33664
9596,33600
9597,33536
9598,33472
9599,33472
9600,33408
9601,33344
9602,33344
9603,33344
9604,33344
9605,33408
9606,33472
9607,33536
9608,33536
9609,33600
9610,33664
9611,33664
9612,33664
9613,33728
9614,33792
9615,33792
9616,33856
9617,33856
9618,33856
9619,33856
9620,33856
9621,33856
9622,33920
9623,33920
9624,33856
9625,33856
9626,33792
9627,33856
9628,33856
9629,33856
9630,33856
9631,33792
9632,33792
9633,33728
9634,33664
9635,33664
9636,33664
9637,33664
9638,33728
9639,33728
9640,33664
9641,33664
9642,33600
9643,33600
9644,33664
9645,33664
9646,33664
9647,33664
9648,33664
9649,33728
9650,33792
9651,33920
9652,34048
9653,34240
9654,34432
9655,34624
9656,34816
9657,34880
9658,34880
9659,34816
9660,34624
9661,34432
9662,34176
9663,33920
9664,33664
9665,33472
9666,33280
9667,33152
9668,33088
9669,33088
9670,33088
9671,33152
9672,33216
9673,33280
9674,33344
9675,33408
9676,33472
9677,33536
9678,33600
9679,33600
9680,33536
9681,33408
9682,33088
9683,32768
9684,32704
9685,32960
9686,33792
9687,35648
9688,38336
9689,41408
9690,43776
9691,44288
9692,42624
9693,39744
9694,36736
9695,34112
9696,32128
9697,30656
9698,30144
9699,30080
9700,30400
9701,30848
9702,31360
9703,31808
9704,32128
9705,32448
9706,32640
9707,32832
9708,32960
9709,33088
9710,33280
9711,33344
9712,33408
9713,33536
9714,33600
9715,33664
9716,33664
9717,33728
9718,33792
9719,33856
9720,33856
9721,33856
9722,33856
9723,33856
9724,33856
9725,33920
9726,33920
9727,33984
9728,33984
9729,34048
9730,34048
9731,34048
9732,34112
9733,34112
9734,34176
9735,34176
9736,34240
9737,34240
9738,34304
9739,34368
9740,34496
9741,34496
9742,34560
9743,34560
9744,34560
9745,34560
9746,34560
9747,34624
9748,34624
9749,34624
9750,34560
9751,34560
9752,34496
9753,34368
9754,34304
9755,34304
9756,34304
9757,34240
9758,34176
9759,34176
9760,34240
9761,34240
9762,34176
9763,34112
9764,34048
9765,34048
9766,33920
9767,33856
9768,33856
9769,33792
9770,33728
9771,33664
9772,33600
9773,33536
9774,33472
9775,33408
9776,33344
9777,33344
9778,33344
9779,33344
9780,33344
9781,33344
9782,33408
9783,33472
9784,33536
9785,33664
9786,33728
9787,33792
9788,33856
9789,33984
9790,34048
9791,34112
9792,34112
9793,34112
9794,34176
9795,34112
9796,34112
9797,34176
9798,34176
9799,34176
9800,34112
9801,34112
9802,34048
9803,33984
9804,33984
9805,34048
9806,34048
9807,34048
9808,33984
9809,33856
9810,33856
9811,33792
9812,33728
9813,33664
9814,33664
9815,33728
9816,33792
9817,33920
9818,34112
9819,34240
9820,34496
9821,34624
9822,34752
9823,34880
9824,34816
9825,34752
9826,34560
9827,34432
9828,34240
9829,33984
9830,33664
9831,33408
9832,33216
9833,33152
9834,33152
9835,33152
9836,33216
9837,33216
9838,33280
9839,33344
9840,33408
9841,33472
9842,33536
9843,33664
9844,33728
9845,33728
9846,33728
9847,33472
9848,33216
9849,32960
9850,32896
9851,33216
9852,34304
9853,36352
9854,39296
9855,42304
9856,44288
9857,44224
9858,42048
9859,39104
9860,36224
9861,33792
9862,31872
9863,30720
9864,30144
9865,30208
9866,30528
9867,31040
9868,31552
9869,32000
9870,32256
9871,32512
9872,32768
9873,33024
9874,33152
9875,33216
9876,33344
9877,33408
9878,33408
9879,33472
9880,33536
9881,33664
9882,33664
9883,33664
9884,33728
9885,33856
9886,33920
9887,33984
9888,33920
9889,33920
9890,33920
9891,33920
9892,33984
9893,34048
9894,34112
9895,34112
9896,34112
9897,34176
9898,34176
9899,34304
9900,34368
9901,34432
9902,34496
9903,34496
9904,34496
9905,34560
9906,34624
9907,34688
9908,34688
9909,34688
9910,34752
9911,34752
9912,34752
9913,34752
9914,34752
9915,34688
9916,34688
9917,34560
9918,34560
9919,34560
9920,34496
9921,34432
9922,34368
9923,34304
9924,34304
9925,34304
9926,34240
9927,34176
9928,34176
9929,34112
9930,34112
9931,34112
9932,34048
9933,33984
9934,33920
9935,33792
9936,33728
9937,33664
9938,33600
9939,33536
9940,33472
9941,33408
9942,33408
9943,33408
9944,33408
9945,33472
9946,33472
9947,33536
9948,33600
9949,33664
9950,33664
9951,33728
9952,33792
9953,33856
9954,33920
9955,34048
9956,34112
9957,34176
9958,34176
9959,34240
9960,34240
9961,34240
9962,34240
9963,34240
9964,34240
9965,34304
9966,34304
9967,34304
9968,34240
9969,34176
9970,34176
9971,34112
9972,34048
9973,34048
9974,33984
9975,33920
9976,33920
9977,33920
9978,33984
9979,34112
9980,34240
9981,34432
9982,34688
9983,34752
9984,34880
9985,34944
9986,34944
9987,34816
9988,34624
9989,34432
9990,34240
9991,33920
9992,33664
9993,33408
9994,33280
9995,33152
9996,33152
9997,33216
9998,33216
9999,33280
10000,33344
10001,33344
10002,33408
10003,33408
10004,33472
10005,33536
10006,33600
10007,33600
10008,33664
10009,33536
10010,33280
10011,33024
10012,32960
10013,33152
10014,34048
10015,35904
10016,38656
10017,41728
10018,44032
10019,44544
10020,42752
10021,39808
10022,36800
10023,34240
10024,32192
10025,30848
10026,30208
10027,30144
10028,30528
10029,31040
10030,31488
10031,31808
10032,32128
10033,32448
10034,32704
10035,32896
10036,33024
10037,33152
10038,33280
10039,33344
10040,33408
10041,33472
10042,33536
10043,33600
10044,33664
10045,33728
10046,33792
10047,33792
10048,33856
10049,33856
10050,33920
10051,33920
10052,33984
10053,34048
10054,34048
10055,34112
10056,34112
10057,34176
10058,34176
10059,34176
10060,34240
10061,34304
10062,34368
10063,34432
10064,34432
10065,34496
10066,34496
10067,34560
10068,34624
10069,34624
10070,34688
10071,34752
10072,34752
10073,34816
10074,34816
10075,34816
10076,34816
10077,34816
10078,34752
10079,34688
10080,34688
10081,34624
10082,34560
10083,34560
10084,34496
10085,34496
10086,34496
10087,34432
10088,34368
10089,34304
10090,34304
10091,34240
10092,34176
10093,34048
10094,33984
10095,33920
10096,33856
10097,33792
10098,33728
10099,33664
10100,33600
10101,33472
10102,33472
10103,33472
10104,33472
10105,33472
10106,33472
10107,33472
10108,33472
10109,33472
10110,33536
10111,33600
10112,33600
10113,33664
10114,33728
10115,33792
10116,33792
10117,33856
10118,33856
10119,33920
10120,33984
10121,33984
10122,34048
10123,34112
10124,34112
10125,34112
10126,34112
10127,34048
10128,34048
10129,34048
10130,34048
10131,34048
10132,33984
10133,33984
10134,33920
10135,33920
10136,33856
10137,33792
10138,33792
10139,33856
10140,33856
10141,33792
10142,33856
10143,33856
10144,33856
10145,33856
10146,33856
10147,33792
10148,33792
10149,33856
10150,33856
10151,33984
10152,34112
10153,34240
10154,34368
10155,34560
10156,34816
10157,34944
10158,35008
10159,35008
10160,35008
10161,34752
10162,34624
10163,34368
10164,34048
10165,33792
10166,33536
10167,33344
10168,33216
10169,33152
10170,33152
10171,33216
10172,33280
10173,33344
10174,33344
10175,33408
10176,33600
10177,33664
10178,33728
10179,33728
10180,33664
10181,33728
10182,33600
10183,33408
10184,33088
10185,32960
10186,33088
10187,33728
10188,35392
10189,38016
10190,41216
10191,44480
10192,44480
10193,43712
10194,40832
10195,40384
10196,34944
10197,32640
10198,31104
10199,30336
10200,30144
10201,30464
10202,30912
10203,31360
10204,31744
10205,32064
10206,32384
10207,32640
10208,32832
10209,32832
10210,33152
10211,33280
10212,33280
10213,33408
10214,33472
10215,33472
10216,33536
10217,33600
10218,33664
10219,33728
10220,33728
10221,33856
10222,33792
10223,33856
10224,33856
10225,33920
10226,33984
10227,33984
10228,33984
10229,34048
10230,34048
10231,34112
10232,34048
10233,34112
10234,34176
10235,34176
10236,34240
10237,34304
10238,34368
10239,34432
10240,34496
10241,34560
10242,34624
10243,34624
10244,34688
10245,34688
10246,34752
10247,34752
10248,34688
10249,34624
10250,34624
10251,34624
10252,34560
10253,34560
10254,34560
10255,34560
10256,34496
10257,34496
10258,34432
10259,34432
10260,34432
10261,34368
10262,34368
10263,34368
10264,34368
10265,34304
10266,34176
10267,34112
10268,33984
10269,33920
10270,33856
10271,33792
10272,33728
10273,33664
10274,33600
10275,33536
10276,33472
10277,33408
10278,33344
10279,33344
10280,33344
10281,33344
10282,33344
10283,33408
10284,33472
10285,33472
10286,33536
10287,33600
10288,33664
10289,33664
10290,33664
10291,33728
10292,33792
10293,33856
10294,33856
10295,33920
10296,33984
10297,33920
10298,33984
10299,33984
10300,33984
10301,33920
10302,33920
10303,33920
10304,33920
10305,33920
10306,33856
10307,33856
10308,33792
10309,33792
10310,33792
10311,33792
10312,33728
10313,33728
10314,33728
10315,33728
10316,33728
10317,33728
10318,33728
10319,33728
10320,33664
10321,33664
10322,33664
10323,33728
10324,33728
10325,33664
10326,33728
10327,33664
10328,33728
10329,33792
10330,33856
10331,33984
10332,34112
10333,34176
10334,34304
10335,34432
10336,34624
10337,34752
10338,34816
10339,34880
10340,34816
10341,34624
10342,34560
10343,34304
10344,34112
10345,33856
10346,33600
10347,33408
10348,33280
10349,33152
10350,33152
10351,33216
10352,33280
10353,33344
10354,33408
10355,33536
10356,33536
10357,33536
10358,33536
10359,33664
10360,33728
10361,33664
10362,33600
10363,33344
10364,33088
10365,32832
10366,32832
10367,33280
10368,34560
10369,36864
10370,39808
10371,42624
10372,44160
10373,43520
10374,41152
10375,38144
10376,35328
10377,33024
10378,31360
10379,30400
10380,30016
10381,30144
10382,30592
10383,31104
10384,31552
10385,31936
10386,32192
10387,32448
10388,32704
10389,32896
10390,33088
10391,33152
10392,33280
10393,33280
10394,33344
10395,33344
10396,33408
10397,33408
10398,33472
10399,33536
10400,33600
10401,33664
10402,33664
10403,33664
10404,33728
10405,33728
10406,33792
10407,33856
10408,33856
10409,33920
10410,33920
10411,33984
10412,33984
10413,34048
10414,34176
10415,34176
10416,34176
10417,34240
10418,34368
10419,34368
10420,34368
10421,34432
10422,34432
10423,34496
10424,34496
10425,34496
10426,34560
10427,34560
10428,34560
10429,34560
10430,34496
10431,34432
10432,34432
10433,34432
10434,34432
10435,34432
10436,34432
10437,34368
10438,34304
10439,34304
10440,34240
10441,34240
10442,34176
10443,34176
10444,34176
10445,34176
10446,34176
10447,34112
10448,34048
10449,33920
10450,33856
10451,33792
10452,33728
10453,33664
10454,33600
10455,33600
10456,33536
10457,33472
10458,33472
10459,33408
10460,33408
10461,33408
10462,33408
10463,33472
10464,33536
10465,33600
10466,33664
10467,33728
10468,33792
10469,33792
10470,33856
10471,33920
10472,33984
10473,34048
10474,34112
10475,34048
10476,34112
10477,34176
10478,34176
10479,34240
10480,34240
10481,34176
10482,34176
10483,34112
10484,34112
10485,34112
10486,34112
10487,34048
10488,33984
10489,33920
10490,33920
10491,33920
10492,33856
10493,33792
10494,33728
10495,33728
10496,33728
10497,33664
10498,33664
10499,33600
10500,33664
10501,33792
10502,33984
10503,34112
10504,34240
10505,34432
10506,34688
10507,34880
10508,34880
10509,34880
10510,34816
10511,34624
10512,34432
10513,34240
10514,34048
10515,33792
10516,33536
10517,33344
10518,33280
10519,33216
10520,33216
10521,33216
10522,33280
10523,33344
10524,33408
10525,33408
10526,33472
10527,33536
10528,33600
10529,33600
10530,33664
10531,33600
10532,33536
10533,33344
10534,33024
10535,32832
10536,32832
10537,33280
10538,34624
10539,37184
10540,39936
10541,42816
10542,44416
10543,43904
10544,41536
10545,38528
10546,35712
10547,33344
10548,31552
10549,30528
10550,30080
10551,30208
10552,30656
10553,31168
10554,31616
10555,32000
10556,32320
10557,32576
10558,32832
10559,33024
10560,33152
10561,33280
10562,33408
10563,33472
10564,33536
10565,33536
10566,33600
10567,33728
10568,33792
10569,33792
10570,33792
10571,33856
10572,33856
10573,33920
10574,33984
10575,33984
10576,34048
10577,34048
10578,34048
10579,34112
10580,34112
10581,34112
10582,34112
10583,34176
10584,34240
10585,34304
10586,34304
10587,34368
10588,34432
10589,34432
10590,34496
10591,34560
10592,34624
10593,34624
10594,34624
10595,34624
10596,34688
10597,34688
10598,34688
10599,34624
10600,34560
10601,34560
10602,34560
10603,34496
10604,34496
10605,34432
10606,34432
10607,34432
10608,34368
10609,34368
10610,34432
10611,34432
10612,34368
10613,34368
10614,34368
10615,34240
10616,34176
10617,34112
10618,34048
10619,33984
10620,33920
10621,33792
10622,33728
10623,33728
10624,33728
10625,33664
10626,33600
10627,33536
10628,33472
10629,33472
10630,33408
10631,33472
10632,33472
10633,33536
10634,33600
10635,33664
10636,33728
10637,33792
10638,33792
10639,33856
10640,33920
10641,34048
10642,34112
10643,34176
10644,34240
10645,34240
10646,34304
10647,34368
10648,34304
10649,34304
10650,34304
10651,34304
10652,34304
10653,34240
10654,34176
10655,34176
10656,34176
10657,34112
10658,34048
10659,33984
10660,33984
10661,33920
10662,33984
10663,33984
10664,34048
10665,33984
10666,33920
10667,33920
10668,33856
10669,33920
10670,34048
10671,34112
10672,34304
10673,34496
10674,34688
10675,34880
10676,34944
10677,35072
10678,35072
10679,34944
10680,34752
10681,34496
10682,34304
10683,34048
10684,33792
10685,33600
10686,33408
10687,33344
10688,33280
10689,33344
10690,33344
10691,33408
10692,33472
10693,33536
10694,33600
10695,33600
10696,33664
10697,33728
10698,33792
10699,33792
10700,33792
10701,33664
10702,33408
10703,33152
10704,32960
10705,33152
10706,33856
10707,35520
10708,38144
10709,41344
10710,43904
10711,44800
10712,43456
10713,40704
10714,37568
10715,34944
10716,32704
10717,31168
10718,30400
10719,30208
10720,30464
10721,30976
10722,31488
10723,31936
10724,32256
10725,32512
10726,32704
10727,32896
10728,33024
10729,33152
10730,33280
10731,33344
10732,33472
10733,33536
10734,33600
10735,33728
10736,33728
10737,33792
10738,33856
10739,33856
10740,33920
10741,33920
10742,33920
10743,33920
10744,33984
10745,33984
10746,33984
10747,34048
10748,34112
10749,34112
10750,34112
10751,34176
10752,34176
10753,34240
10754,34304
10755,34368
10756,34368
10757,34432
10758,34432
10759,34432
10760,34496
10761,34560
10762,34624
10763,34624
10764,34688
10765,34752
10766,34688
10767,34688
10768,34688
10769,34688
10770,34624
10771,34624
10772,34624
10773,34624
10774,34496
10775,34496
10776,34432
10777,34496
10778,34496
10779,34432
10780,34432
10781,34368
10782,34304
10783,34304
10784,34240
10785,34176
10786,34048
10787,33984
10788,33920
10789,33856
10790,33792
10791,33728
10792,33664
10793,33600
10794,33600
10795,33536
10796,33472
10797,33472
10798,33408
10799,33408
10800,33408
10801,33408
10802,33472
10803,33536
10804,33536
10805,33600
10806,33664
10807,33728
10808,33792
10809,33856
10810,33920
10811,33920
10812,33920
10813,34048
10814,34112
10815,34112
10816,34176
10817,34240
10818,34240
10819,34176
10820,34112
10821,34112
10822,34048
10823,34048
10824,33984
10825,33984
10826,33984
10827,33920
10828,33920
10829,33920
10830,33920
10831,33856
10832,33792
10833,33792
10834,33728
10835,33728
10836,33728
10837,33792
10838,33792
10839,33856
10840,33920
10841,33920
10842,34048
10843,34176
10844,34304
10845,34496
10846,34688
10847,34816
10848,34880
10849,34880
10850,34752
10851,34560
10852,34432
10853,34176
10854,33920
10855,33664
10856,33472
10857,33280
10858,33152
10859,33152
10860,33152
10861,33280
10862,33280
10863,33344
10864,33408
10865,33472
10866,33472
10867,33600
10868,33600
10869,33664
10870,33728
10871,33728
10872,33664
10873,33472
10874,33152
10875,32960
10876,33024
10877,33600
10878,35200
10879,37824
10880,41024
10881,43776
10882,44928
10883,43776
10884,41088
10885,37760
10886,35008
10887,32704
10888,31104
10889,30272
10890,30080
10891,30336
10892,30848
10893,31296
10894,31680
10895,32064
10896,32320
10897,32512
10898,32704
10899,32896
10900,33088
10901,33216
10902,33280
10903,33344
10904,33408
10905,33472
10906,33536
10907,33600
10908,33664
10909,33728
10910,33728
10911,33792
10912,33792
10913,33856
10914,33920
10915,33920
10916,33984
10917,33984
10918,34048
10919,34112
10920,34112
10921,34176
10922,34176
10923,34240
10924,34240
