,ECG
0,-143
1,-107
2,-78
3,-56
4,-45
5,-45
6,-51
7,-53
8,-51
9,-47
10,-36
11,-14
12,11
13,38
14,68
15,113
16,165
17,207
18,235
19,249
20,235
21,184
22,115
23,47
24,-11
25,-53
26,-73
27,-66
28,-40
29,-15
30,27
31,40
32,43
33,45
34,49
35,55
36,64
37,69
38,73
39,67
40,50
41,55
42,83
43,134
44,219
45,311
46,367
47,371
48,314
49,198
50,49
51,-101
52,-206
53,-226
54,-177
55,-82
56,36
57,133
58,171
59,155
60,105
61,44
62,-12
63,-41
64,13
65,61
66,113
67,157
68,189
69,209
70,227
71,241
72,241
73,211
74,171
75,154
76,158
77,196
78,266
79,338
80,386
81,389
82,336
83,238
84,120
85,9
86,-57
87,-58
88,-22
89,24
90,71
91,103
92,114
93,116
94,110
95,106
96,128
97,143
98,157
99,162
100,152
101,139
102,125
103,113
104,110
105,108
106,99
107,91
108,85
109,74
110,69
111,76
112,88
113,99
114,107
115,107
116,92
117,66
118,32
119,9
120,-5
121,-17
122,-22
123,-23
124,-30
125,-35
126,-35
127,-48
128,-63
129,-36
130,4
131,60
132,111
133,128
134,119
135,101
136,69
137,32
138,-10
139,-53
140,-86
141,-117
142,-155
143,-155
144,-189
145,-205
146,-205
147,-170
148,-102
149,-41
150,-5
151,3
152,-6
153,-11
154,7
155,47
156,96
157,137
158,151
159,130
160,78
161,4
162,-113
163,-126
164,-99
165,-49
166,-8
167,17
168,48
169,91
170,151
171,224
172,292
173,327
174,300
175,219
176,112
177,1
178,-92
179,-138
180,-129
181,-98
182,-70
183,-56
184,-58
185,-66
186,-63
187,-32
188,19
189,62
190,82
191,75
192,40
193,-8
194,-47
195,-58
196,-26
197,19
198,67
199,103
200,119
201,118
202,107
203,94
204,78
205,60
206,44
207,37
208,31
209,24
210,18
211,11
212,6
213,9
214,22
215,43
216,61
217,73
218,81
219,83
220,69
221,39
222,5
223,-13
224,-14
225,1
226,27
227,46
228,34
229,12
230,-16
231,-39
232,-41
233,-11
234,47
235,114
236,161
237,173
238,143
239,83
240,16
241,-45
242,-96
243,-121
244,-111
245,-83
246,-55
247,-30
248,-13
249,4
250,44
251,96
252,147
253,173
254,165
255,114
256,31
257,-54
258,-119
259,-144
260,-124
261,-5
262,35
263,37
264,12
265,-24
266,-60
267,-76
268,-60
269,-17
270,42
271,112
272,177
273,226
274,256
275,268
276,264
277,237
278,193
279,143
280,94
281,40
282,-18
283,-69
284,-114
285,-114
286,-159
287,-193
288,-211
289,-225
290,-240
291,-250
292,-253
293,-248
294,-233
295,-210
296,-150
297,-85
298,6
299,112
300,211
301,271
302,262
303,183
304,64
305,-61
306,-167
307,-234
308,-234
309,-171
310,-92
311,-31
312,2
313,-5
314,-33
315,-46
316,-23
317,17
318,63
319,100
320,116
321,106
322,80
323,51
324,25
325,7
326,6
327,24
328,47
329,60
330,58
331,55
332,59
333,72
334,96
335,122
336,145
337,160
338,152
339,131
340,116
341,100
342,87
343,91
344,121
345,168
346,221
347,264
348,272
349,232
350,149
351,48
352,-46
353,-130
354,-189
355,-195
356,-145
357,-70
358,7
359,73
360,105
361,106
362,100
363,67
364,40
365,21
366,21
367,32
368,56
369,92
370,131
371,153
372,162
373,163
374,150
375,133
376,122
377,133
378,170
379,211
380,237
381,237
382,202
383,142
384,78
385,27
386,-1
387,-4
388,8
389,29
390,48
391,53
392,48
393,43
394,43
395,62
396,72
397,77
398,72
399,67
400,55
401,30
402,17
403,38
404,83
405,142
406,201
407,235
408,227
409,179
410,101
411,16
412,-54
413,-102
414,-115
415,-90
416,-42
417,14
418,68
419,112
420,126
421,105
422,68
423,30
424,0
425,-18
426,-25
427,-25
428,-25
429,-19
430,-31
431,-47
432,-68
433,-77
434,-50
435,-4
436,37
437,81
438,125
439,163
440,197
441,220
442,208
443,166
444,117
445,77
446,50
447,29
448,12
449,4
450,0
451,-2
452,-7
453,-9
454,1
455,29
456,65
457,88
458,77
459,32
460,-31
461,-97
462,-156
463,-234
464,-247
465,-232
466,-202
467,-164
468,-120
469,-80
470,-45
471,-14
472,4
473,10
474,10
475,10
476,1
477,-9
478,-5
479,10
480,43
481,94
482,142
483,167
484,165
485,135
486,88
487,43
488,4
489,-17
490,-7
491,18
492,44
493,59
494,50
495,31
496,19
497,39
498,111
499,193
500,266
501,318
502,326
503,271
504,168
505,43
506,-72
507,-170
508,-239
509,-257
510,-230
511,-177
512,-100
513,-20
514,49
515,91
516,92
517,68
518,33
519,-3
520,-20
521,-12
522,3
523,19
524,22
525,-5
526,-44
527,-76
528,-95
529,-83
530,-9
531,12
532,15
533,-2
534,-32
535,-56
536,-75
537,-81
538,-79
539,-79
540,-78
541,-71
542,-51
543,-12
544,35
545,77
546,101
547,94
548,54
549,13
550,-12
551,-11
552,33
553,99
554,149
555,180
556,188
557,171
558,151
559,140
560,141
561,153
562,159
563,150
564,82
565,27
566,-17
567,-45
568,-73
569,-73
570,-109
571,-154
572,-196
573,-229
574,-248
575,-239
576,-212
577,-181
578,-156
579,-146
580,-142
581,-136
582,-128
583,-97
584,-36
585,40
586,107
587,149
588,153
589,118
590,55
591,-18
592,-78
593,-115
594,-128
595,-107
596,-68
597,-29
598,17
599,17
600,5
601,-6
602,-11
603,-5
604,15
605,40
606,60
607,79
608,92
609,98
610,106
611,112
612,111
613,116
614,123
615,118
616,103
617,81
618,62
619,56
620,48
621,28
622,3
623,-20
624,-26
625,-2
626,42
627,91
628,128
629,143
630,138
631,102
632,88
633,94
634,110
635,116
636,114
637,112
638,114
639,125
640,144
641,165
642,177
643,166
644,140
645,107
646,73
647,51
648,56
649,84
650,107
651,112
652,100
653,77
654,54
655,44
656,43
657,41
658,39
659,37
660,29
661,25
662,24
663,23
664,66
665,107
666,154
667,189
668,204
669,211
670,204
671,189
672,196
673,216
674,236
675,254
676,255
677,224
678,156
679,72
680,-3
681,-61
682,-72
683,-19
684,86
685,210
686,308
687,353
688,333
689,254
690,136
691,27
692,-49
693,-91
694,-79
695,-37
696,50
697,99
698,146
699,197
700,239
701,255
702,238
703,189
704,115
705,33
706,-38
707,-86
708,-102
709,-98
710,-86
711,-82
712,-82
713,-81
714,-74
715,-42
716,8
717,61
718,105
719,132
720,132
721,108
722,74
723,39
724,4
725,-25
726,-39
727,-38
728,-31
729,-24
730,-2
731,9
732,34
733,79
734,129
735,173
736,212
737,234
738,233
739,216
740,183
741,139
742,84
743,20
744,-36
745,-64
746,-65
747,-34
748,28
749,98
750,137
751,141
752,112
753,47
754,-31
755,-96
756,-130
757,-128
758,-106
759,-73
760,-40
761,-15
762,5
763,69
764,101
765,116
766,119
767,107
768,84
769,62
770,52
771,53
772,59
773,66
774,76
775,80
776,73
777,66
778,61
779,53
780,52
781,57
782,66
783,74
784,76
785,67
786,49
787,22
788,5
789,11
790,35
791,71
792,113
793,136
794,135
795,111
796,27
797,-8
798,-27
799,-26
800,-13
801,-4
802,-3
803,-10
804,-25
805,-39
806,-50
807,-58
808,-65
809,-72
810,-73
811,-70
812,-62
813,-55
814,-52
815,-49
816,-49
817,-53
818,-57
819,-57
820,-55
821,-52
822,-48
823,-43
824,-40
825,-37
826,-37
827,-40
828,-45
829,-54
830,-54
831,-52
832,-50
833,-44
834,-32
835,-21
836,-12
837,-6
838,2
839,15
840,27
841,38
842,47
843,54
844,63
845,78
846,101
847,126
848,147
849,169
850,181
851,172
852,148
853,118
854,118
855,92
856,69
857,52
858,34
859,-1
860,-51
861,-121
862,-266
863,-340
864,-387
865,-383
866,-331
867,-228
868,-91
869,41
870,130
871,161
872,130
873,56
874,-32
875,-124
876,-188
877,-206
878,-192
879,-157
880,-119
881,-96
882,-81
883,-62
884,-33
885,0
886,24
887,29
888,23
889,7
890,-11
891,-27
892,-35
893,-35
894,-22
895,3
896,55
897,74
898,87
899,90
900,84
901,72
902,60
903,49
904,44
905,40
906,36
907,34
908,40
909,56
910,82
911,109
912,127
913,137
914,141
915,132
916,109
917,74
918,41
919,15
920,-3
921,-8
922,2
923,16
924,30
925,39
926,40
927,22
928,-6
929,-53
930,-58
931,-45
932,-16
933,16
934,43
935,65
936,79
937,81
938,76
939,71
940,66
941,61
942,57
943,60
944,70
945,87
946,105
947,126
948,142
949,150
950,149
951,141
952,130
953,118
954,107
955,98
956,88
957,82
958,88
959,105
960,132
961,165
962,201
963,187
964,153
965,110
966,59
967,11
968,-20
969,-34
970,-42
971,-51
972,-62
973,-72
974,-80
975,-78
976,-61
977,-32
978,-5
979,17
980,35
981,47
982,57
983,64
984,78
985,98
986,114
987,124
988,120
989,94
990,51
991,0
992,-52
993,-91
994,-114
995,-117
996,-103
997,-78
998,-57
999,-46
1000,-54
1001,-76
1002,-98
1003,-115
1004,-124
1005,-118
1006,-101
1007,-75
1008,-53
1009,-35
1010,-22
1011,-13
1012,-6
1013,0
1014,1
1015,0
1016,-12
1017,-39
1018,-68
1019,-91
1020,-104
1021,-100
1022,-79
1023,-49
1024,-20
1025,-2
1026,6
1027,9
1028,3
1029,-8
1030,-13
1031,-19
1032,-29
1033,-42
1034,-55
1035,-63
1036,-62
1037,-52
1038,-41
1039,-34
1040,-33
1041,-42
1042,-57
1043,-71
1044,-79
1045,-82
1046,-74
1047,-63
1048,-50
1049,-43
1050,-50
1051,-59
1052,-50
1053,-25
1054,14
1055,73
1056,153
1057,220
1058,246
1059,246
1060,233
1061,202
1062,134
1063,111
1064,62
1065,-18
1066,-113
1067,-206
1068,-288
1069,-343
1070,-337
1071,-269
1072,-186
1073,-106
1074,-40
1075,-14
1076,-28
1077,-50
1078,-65
1079,-69
1080,-59
1081,-38
1082,-15
1083,6
1084,19
1085,22
1086,16
1087,5
1088,-3
1089,-8
1090,-8
1091,-5
1092,1
1093,10
1094,18
1095,22
1096,2
1097,-17
1098,-29
1099,-29
1100,-12
1101,15
1102,32
1103,37
1104,33
1105,19
1106,0
1107,-18
1108,-36
1109,-48
1110,-51
1111,-56
1112,-60
1113,-71
1114,-91
1115,-98
1116,-84
1117,-60
1118,-30
1119,0
1120,30
1121,54
1122,76
1123,98
1124,113
1125,123
1126,129
1127,133
1128,127
1129,114
1130,83
1131,36
1132,-5
1133,-44
1134,-77
1135,-99
1136,-116
1137,-139
1138,-139
1139,-178
1140,-211
1141,-221
1142,-209
1143,-178
1144,-120
1145,-55
1146,-17
1147,-21
1148,-58
1149,-110
1150,-144
1151,-139
1152,-82
1153,12
1154,94
1155,133
1156,118
1157,47
1158,-52
1159,-139
1160,-191
1161,-198
1162,-80
1163,-9
1164,52
1165,95
1166,122
1167,147
1168,171
1169,193
1170,204
1171,195
1172,162
1173,117
1174,66
1175,15
1176,-22
1177,-41
1178,-37
1179,-11
1180,20
1181,53
1182,82
1183,101
1184,113
1185,111
1186,105
1187,107
1188,121
1189,150
1190,187
1191,212
1192,213
1193,185
1194,87
1195,46
1196,18
1197,14
1198,38
1199,64
1200,80
1201,90
1202,101
1203,112
1204,133
1205,166
1206,194
1207,199
1208,186
1209,152
1210,113
1211,79
1212,60
1213,64
1214,91
1215,122
1216,141
1217,150
1218,138
1219,106
1220,77
1221,64
1222,68
1223,93
1224,129
1225,158
1226,169
1227,159
1228,97
1229,58
1230,35
1231,38
1232,64
1233,103
1234,150
1235,196
1236,225
1237,239
1238,237
1239,220
1240,195
1241,164
1242,139
1243,121
1244,103
1245,86
1246,73
1247,59
1248,52
1249,67
1250,96
1251,132
1252,174
1253,197
1254,181
1255,135
1256,72
1257,6
1258,-48
1259,-73
1260,-66
1261,4
1262,42
1263,68
1264,78
1265,69
1266,53
1267,37
1268,19
1269,-2
1270,-14
1271,-24
1272,-32
1273,-19
1274,11
1275,47
1276,79
1277,93
1278,80
1279,43
1280,-3
1281,-3
1282,-52
1283,-84
1284,-104
1285,-108
1286,-88
1287,-64
1288,-45
1289,-14
1290,28
1291,75
1292,118
1293,155
1294,175
1295,151
1296,120
1297,83
1298,35
1299,-13
1300,-51
1301,-78
1302,-99
1303,-110
1304,-99
1305,-69
1306,-39
1307,-16
1308,-12
1309,-30
1310,-59
1311,-79
1312,-84
1313,-75
1314,-55
1315,-34
1316,-18
1317,-10
1318,-14
1319,-33
1320,-58
1321,-83
1322,-99
1323,-102
1324,-101
1325,-100
1326,-100
1327,-101
1328,-105
1329,-105
1330,-104
1331,-105
1332,-107
1333,-111
1334,-118
1335,-124
1336,-127
1337,-127
1338,-119
1339,-109
1340,-100
1341,-98
1342,-101
1343,-109
1344,-107
1345,-92
1346,-65
1347,-35
1348,-12
1349,-8
1350,-25
1351,-61
1352,-104
1353,-147
1354,-174
1355,-176
1356,-160
1357,-132
1358,-99
1359,-85
1360,-93
1361,-77
1362,-57
1363,-32
1364,0
1365,28
1366,35
1367,21
1368,-19
1369,-83
1370,-162
1371,-231
1372,-269
1373,-283
1374,-288
1375,-287
1376,-279
1377,-272
1378,-277
1379,-283
1380,-294
1381,-311
1382,-317
1383,-312
1384,-307
1385,-304
1386,-294
1387,-283
1388,-274
1389,-264
1390,-256
1391,-248
1392,-238
1393,-199
1394,-174
1395,-159
1396,-157
1397,-168
1398,-190
1399,-223
1400,-255
1401,-272
1402,-271
1403,-253
1404,-217
1405,-177
1406,-138
1407,-104
1408,-79
1409,-56
1410,-42
1411,-41
1412,-46
1413,-53
1414,-72
1415,-95
1416,-117
1417,-145
1418,-178
1419,-220
1420,-278
1421,-352
1422,-432
1423,-432
1424,-514
1425,-584
1426,-631
1427,-638
1428,-601
1429,-553
1430,-503
1431,-462
1432,-433
1433,-414
1434,-398
1435,-383
1436,-371
1437,-356
1438,-336
1439,-317
1440,-305
1441,-297
1442,-295
1443,-299
1444,-304
1445,-304
1446,-303
1447,-298
1448,-290
1449,-280
1450,-271
1451,-265
1452,-263
1453,-262
1454,-260
1455,-256
1456,-248
1457,-240
1458,-236
1459,-234
1460,-220
1461,-211
1462,-202
1463,-193
1464,-190
1465,-193
1466,-206
1467,-221
1468,-232
1469,-233
1470,-223
1471,-203
1472,-177
1473,-154
1474,-137
1475,-125
1476,-123
1477,-127
1478,-133
1479,-139
1480,-138
1481,-134
1482,-134
1483,-130
1484,-118
1485,-103
1486,-86
1487,-68
1488,-58
1489,-52
1490,-51
1491,-61
1492,-83
1493,-90
1494,-89
1495,-82
1496,-74
1497,-64
1498,-63
1499,-73
1500,-82
1501,-87
1502,-93
1503,-91
1504,-78
1505,-62
1506,-47
1507,-39
1508,-33
1509,-33
1510,-47
1511,-71
1512,-94
1513,-119
1514,-140
1515,-141
1516,-123
1517,-90
1518,-45
1519,4
1520,50
1521,83
1522,98
1523,95
1524,53
1525,30
1526,16
1527,8
1528,7
1529,11
1530,19
1531,27
1532,39
1533,50
1534,59
1535,60
1536,60
1537,73
1538,92
1539,106
1540,123
1541,139
1542,150
1543,154
1544,154
1545,145
1546,124
1547,95
1548,64
1549,34
1550,0
1551,-47
1552,-91
1553,-118
1554,-129
1555,-122
1556,-99
1557,-46
1558,-33
1559,-34
1560,-48
1561,-63
1562,-74
1563,-72
1564,-51
1565,-51
1566,-17
1567,21
1568,57
1569,79
1570,91
1571,109
1572,129
1573,151
1574,173
1575,181
1576,167
1577,129
1578,77
1579,18
1580,-35
1581,-82
1582,-106
1583,-97
1584,-64
1585,-22
1586,23
1587,62
1588,85
1589,90
1590,62
1591,33
1592,3
1593,-20
1594,-42
1595,-55
1596,-45
1597,-15
1598,33
1599,81
1600,114
1601,124
1602,101
1603,51
1604,-7
1605,-72
1606,-137
1607,-179
1608,-190
1609,-190
1610,-186
1611,-184
1612,-181
1613,-174
1614,-166
1615,-158
1616,-158
1617,-170
1618,-182
1619,-184
1620,-168
1621,-141
1622,-116
1623,-76
1624,-60
1625,-47
1626,-38
1627,-32
1628,-27
1629,-32
1630,-51
1631,-78
1632,-107
1633,-138
1634,-158
1635,-158
1636,-148
1637,-143
1638,-139
1639,-135
1640,-138
1641,-148
1642,-161
1643,-175
1644,-191
1645,-208
1646,-220
1647,-226
1648,-227
1649,-225
1650,-219
1651,-218
1652,-232
1653,-262
1654,-304
1655,-346
1656,-380
1657,-409
1658,-407
1659,-402
1660,-396
1661,-391
1662,-390
1663,-385
1664,-377
1665,-367
1666,-357
1667,-353
1668,-350
1669,-354
1670,-375
1671,-385
1672,-366
1673,-329
1674,-284
1675,-243
1676,-220
1677,-224
1678,-252
1679,-296
1680,-336
1681,-373
1682,-415
1683,-436
1684,-434
1685,-437
1686,-445
1687,-450
1688,-447
1689,-439
1690,-411
1691,-390
1692,-370
1693,-350
1694,-326
1695,-296
1696,-274
1697,-271
1698,-284
1699,-305
1700,-334
1701,-369
1702,-399
1703,-425
1704,-453
1705,-490
1706,-542
1707,-542
1708,-610
1709,-690
1710,-777
1711,-852
1712,-898
1713,-917
1714,-913
1715,-884
1716,-843
1717,-803
1718,-772
1719,-751
1720,-740
1721,-736
1722,-725
1723,-704
1724,-650
1725,-640
1726,-630
1727,-598
1728,-542
1729,-469
1730,-396
1731,-350
1732,-359
1733,-428
1734,-544
1735,-674
1736,-790
1737,-868
1738,-879
1739,-823
1740,-742
1741,-672
1742,-632
1743,-620
1744,-637
1745,-671
1746,-692
1747,-693
1748,-685
1749,-664
1750,-634
1751,-603
1752,-578
1753,-562
1754,-553
1755,-546
1756,-545
1757,-537
1758,-529
1759,-532
1760,-537
1761,-534
1762,-525
1763,-507
1764,-481
1765,-461
1766,-454
1767,-453
1768,-459
1769,-469
1770,-476
1771,-478
1772,-472
1773,-461
1774,-453
1775,-455
1776,-461
1777,-466
1778,-465
1779,-460
1780,-451
1781,-430
1782,-405
1783,-376
1784,-342
1785,-311
1786,-291
1787,-287
1788,-351
1789,-397
1790,-426
1791,-427
1792,-389
1793,-335
1794,-288
1795,-262
1796,-267
1797,-302
1798,-350
1799,-398
1800,-438
1801,-454
1802,-432
1803,-385
1804,-318
1805,-245
1806,-186
1807,-151
1808,-153
1809,-192
1810,-255
1811,-327
1812,-387
1813,-409
1814,-385
1815,-330
1816,-264
1817,-204
1818,-168
1819,-155
1820,-166
1821,-215
1822,-241
1823,-261
1824,-269
1825,-272
1826,-271
1827,-262
1828,-246
1829,-234
1830,-225
1831,-213
1832,-202
1833,-193
1834,-173
1835,-143
1836,-116
1837,-94
1838,-88
1839,-110
1840,-157
1841,-218
1842,-282
1843,-330
1844,-355
1845,-361
1846,-347
1847,-322
1848,-297
1849,-274
1850,-274
1851,-267
1852,-269
1853,-264
1854,-260
1855,-250
1856,-237
1857,-237
1858,-246
1859,-251
1860,-255
1861,-264
1862,-273
1863,-270
1864,-255
1865,-241
1866,-225
1867,-204
1868,-199
1869,-209
1870,-214
1871,-201
1872,-179
1873,-152
1874,-117
1875,-84
1876,-68
1877,-65
1878,-66
1879,-72
1880,-74
1881,-61
1882,-33
1883,0
1884,37
1885,63
1886,80
1887,89
1888,92
1889,103
1890,115
1891,132
1892,155
1893,189
1894,226
1895,263
1896,289
1897,300
1898,294
1899,276
1900,263
1901,266
1902,290
1903,329
1904,371
1905,391
1906,384
1907,359
1908,325
1909,295
1910,282
1911,286
1912,311
1913,349
1914,400
1915,484
1916,587
1917,689
1918,772
1919,815
1920,796
1921,616
1922,511
1923,441
1924,421
1925,454
1926,526
1927,598
1928,637
1929,646
1930,636
1931,625
1932,629
1933,647
1934,670
1935,692
1936,707
1937,717
1938,725
1939,726
1940,725
1941,732
1942,752
1943,782
1944,812
1945,834
1946,837
1947,820
1948,793
1949,768
1950,749
1951,738
1952,735
1953,735
1954,700
1955,651
1956,596
1957,533
1958,469
1959,428
1960,399
1961,388
1962,428
1963,510
1964,610
1965,700
1966,740
1967,702
1968,592
1969,436
1970,278
1971,164
1972,103
1973,107
1974,183
1975,276
1976,346
1977,381
1978,381
1979,365
1980,349
1981,352
1982,374
1983,405
1984,437
1985,472
1986,507
1987,531
1988,522
1989,509
1990,500
1991,501
1992,501
1993,515
1994,545
1995,581
1996,616
1997,637
1998,632
1999,602
2000,549
2001,476
2002,394
2003,316
2004,250
2005,206
2006,185
2007,180
2008,185
2009,188
2010,185
2011,193
2012,223
2013,266
2014,316
2015,366
2016,405
2017,426
2018,420
2019,391
2020,355
2021,264
2022,254
2023,287
2024,344
2025,405
2026,464
2027,512
2028,527
2029,506
2030,452
2031,370
2032,269
2033,176
2034,124
2035,103
2036,102
2037,114
2038,137
2039,164
2040,186
2041,199
2042,193
2043,166
2044,134
2045,108
2046,90
2047,77
2048,69
2049,64
2050,61
2051,53
2052,40
2053,24
2054,-1
2055,-9
2056,-14
2057,-14
2058,-16
2059,-28
2060,-42
2061,-49
2062,-56
2063,-61
2064,-57
2065,-53
2066,-63
2067,-89
2068,-111
2069,-119
2070,-120
2071,-109
2072,-90
2073,-75
2074,-77
2075,-103
2076,-137
2077,-166
2078,-186
2079,-190
2080,-168
2081,-133
2082,-101
2083,-75
2084,-64
2085,-73
2086,-97
2087,-167
2088,-194
2089,-214
2090,-226
2091,-222
2092,-204
2093,-182
2094,-164
2095,-152
2096,-152
2097,-157
2098,-163
2099,-168
2100,-172
2101,-176
2102,-178
2103,-176
2104,-171
2105,-161
2106,-143
2107,-122
2108,-104
2109,-92
2110,-84
2111,-88
2112,-103
2113,-120
2114,-137
2115,-138
2116,-112
2117,-72
2118,-26
2119,12
2120,13
2121,-29
2122,-92
2123,-162
2124,-216
2125,-244
2126,-235
2127,-196
2128,-150
2129,-109
2130,-81
2131,-71
2132,-78
2133,-92
2134,-92
2135,-100
2136,-112
2137,-123
2138,-103
2139,-52
2140,12
2141,77
2142,119
2143,117
2144,72
2145,2
2146,-76
2147,-148
2148,-200
2149,-213
2150,-179
2151,-122
2152,-72
2153,-37
2154,-18
2155,-18
2156,-12
2157,-4
2158,3
2159,15
2160,26
2161,31
2162,42
2163,62
2164,88
2165,116
2166,140
2167,150
2168,144
2169,129
2170,105
2171,71
2172,51
2173,55
2174,73
2175,97
2176,112
2177,101
2178,74
2179,43
2180,8
2181,-7
2182,4
2183,25
2184,61
2185,98
2186,78
2187,42
2188,-2
2189,-40
2190,-56
2191,-51
2192,-15
2193,51
2194,124
2195,196
2196,257
2197,292
2198,301
2199,293
2200,269
2201,233
2202,202
2203,187
2204,188
2205,202
2206,224
2207,241
2208,239
2209,227
2210,224
2211,233
2212,251
2213,278
2214,301
2215,313
2216,310
2217,289
2218,255
2219,220
2220,187
2221,206
2222,231
2223,252
2224,268
2225,273
2226,269
2227,265
2228,260
2229,253
2230,248
2231,246
2232,248
2233,253
2234,257
2235,257
2236,258
2237,256
2238,253
2239,252
2240,259
2241,270
2242,280
2243,290
2244,302
2245,309
2246,311
2247,308
2248,296
2249,283
2250,285
2251,297
2252,310
2253,284
2254,231
2255,153
2256,58
2257,-31
2258,-109
2259,-173
2260,-212
2261,-223
2262,-221
2263,-220
2264,-213
2265,-196
2266,-169
2267,-143
2268,-121
2269,-102
2270,-96
2271,-98
2272,-84
2273,-35
2274,52
2275,156
2276,156
2277,242
2278,282
2279,261
2280,182
2281,73
2282,-36
2283,-123
2284,-167
2285,-86
2286,-9
2287,51
2288,79
2289,82
2290,87
2291,103
2292,135
2293,170
2294,191
2295,183
2296,159
2297,125
2298,81
2299,57
2300,67
2301,115
2302,197
2303,288
2304,367
2305,422
2306,446
2307,446
2308,446
2309,444
2310,425
2311,401
2312,370
2313,313
2314,230
2315,139
2316,56
2317,0
2318,6
2319,55
2320,105
2321,129
2322,124
2323,104
2324,78
2325,56
2326,63
2327,93
2328,126
2329,158
2330,187
2331,209
2332,232
2333,257
2334,290
2335,327
2336,355
2337,365
2338,379
2339,400
2340,423
2341,445
2342,454
2343,436
2344,388
2345,314
2346,240
2347,196
2348,195
2349,238
2350,316
2351,435
2352,438
2353,407
2354,364
2355,328
2356,313
2357,324
2358,361
2359,411
2360,455
2361,488
2362,503
2363,498
2364,486
2365,474
2366,462
2367,454
2368,454
2369,452
2370,451
2371,454
2372,457
2373,458
2374,458
2375,456
2376,455
2377,455
2378,450
2379,445
2380,440
2381,419
2382,404
2383,432
2384,476
2385,549
2386,628
2387,688
2388,710
2389,682
2390,609
2391,510
2392,404
2393,332
2394,311
2395,327
2396,378
2397,449
2398,518
2399,569
2400,598
2401,611
2402,621
2403,630
2404,638
2405,643
2406,648
2407,651
2408,647
2409,634
2410,615
2411,595
2412,579
2413,575
2414,594
2415,617
2416,645
2417,645
2418,643
2419,643
2420,649
2421,662
2422,682
2423,709
2424,727
2425,717
2426,683
2427,633
2428,577
2429,526
2430,487
2431,480
2432,510
2433,560
2434,631
2435,721
2436,809
2437,857
2438,849
2439,796
2440,702
2441,587
2442,480
2443,410
2444,397
2445,425
2446,476
2447,532
2448,571
2449,578
2450,538
2451,519
2452,502
2453,489
2454,483
2455,484
2456,489
2457,498
2458,499
2459,491
2460,490
2461,499
2462,514
2463,544
2464,594
2465,650
2466,706
2467,750
2468,758
2469,725
2470,654
2471,565
2472,481
2473,414
2474,381
2475,388
2476,426
2477,478
2478,533
2479,576
2480,591
2481,591
2482,590
2483,583
2484,578
2485,574
2486,558
2487,529
2488,503
2489,485
2490,472
2491,470
2492,483
2493,506
2494,530
2495,554
2496,574
2497,588
2498,598
2499,601
2500,605
2501,606
2502,601
2503,598
2504,595
2505,593
2506,607
2507,630
2508,659
2509,711
2510,764
2511,796
2512,816
2513,817
2514,788
2515,743
2516,682
2517,560
2518,531
2519,515
2520,529
2521,560
2522,586
2523,614
2524,629
2525,615
2526,578
2527,530
2528,479
2529,451
2530,457
2531,488
2532,541
2533,606
2534,659
2535,688
2536,693
2537,670
2538,629
2539,590
2540,557
2541,534
2542,527
2543,528
2544,530
2545,534
2546,543
2547,554
2548,566
2549,577
2550,593
2551,582
2552,560
2553,539
2554,521
2555,513
2556,519
2557,526
2558,523
2559,520
2560,518
2561,518
2562,515
2563,520
2564,550
2565,602
2566,662
2567,713
2568,736
2569,713
2570,644
2571,545
2572,447
2573,372
2574,330
2575,333
2576,376
2577,426
2578,460
2579,480
2580,490
2581,487
2582,486
2583,498
2584,532
2585,553
2586,564
2587,556
2588,530
2589,494
2590,465
2591,440
2592,418
2593,403
2594,399
2595,406
2596,422
2597,449
2598,480
2599,508
2600,528
2601,543
2602,549
2603,549
2604,542
2605,535
2606,529
2607,527
2608,520
2609,511
2610,506
2611,507
2612,516
2613,531
2614,547
2615,556
2616,539
2617,521
2618,505
2619,496
2620,505
2621,541
2622,592
2623,638
2624,662
2625,653
2626,604
2627,538
2628,482
2629,442
2630,425
2631,440
2632,483
2633,541
2634,597
2635,639
2636,664
2637,677
2638,681
2639,678
2640,672
2641,652
2642,608
2643,549
2644,475
2645,393
2646,302
2647,219
2648,170
2649,166
2650,274
2651,346
2652,390
2653,397
2654,375
2655,329
2656,283
2657,250
2658,240
2659,265
2660,308
2661,342
2662,369
2663,388
2664,402
2665,437
2666,490
2667,535
2668,565
2669,577
2670,556
2671,510
2672,454
2673,395
2674,357
2675,345
2676,352
2677,376
2678,405
2679,426
2680,453
2681,494
2682,563
2683,580
2684,574
2685,532
2686,460
2687,375
2688,294
2689,235
2690,216
2691,238
2692,291
2693,348
2694,402
2695,448
2696,475
2697,486
2698,490
2699,487
2700,470
2701,444
2702,419
2703,419
2704,395
2705,380
2706,382
2707,397
2708,425
2709,452
2710,475
2711,486
2712,478
2713,455
2714,425
2715,373
2716,378
2717,406
2718,459
2719,526
2720,583
2721,614
2722,613
2723,581
2724,520
2725,438
2726,354
2727,301
2728,288
2729,307
2730,348
2731,393
2732,414
2733,410
2734,397
2735,380
2736,362
2737,362
2738,387
2739,435
2740,485
2741,513
2742,513
2743,488
2744,444
2745,398
2746,370
2747,356
2748,349
2749,365
2750,370
2751,369
2752,362
2753,351
2754,340
2755,335
2756,335
2757,341
2758,347
2759,350
2760,349
2761,348
2762,343
2763,338
2764,345
2765,363
2766,390
2767,426
2768,455
2769,464
2770,450
2771,416
2772,371
2773,324
2774,281
2775,255
2776,252
2777,263
2778,273
2779,270
2780,258
2781,265
2782,290
2783,328
2784,358
2785,361
2786,336
2787,289
2788,226
2789,161
2790,108
2791,90
2792,98
2793,115
2794,137
2795,151
2796,149
2797,140
2798,130
2799,124
2800,131
2801,146
2802,168
2803,196
2804,218
2805,232
2806,249
2807,253
2808,248
2809,240
2810,229
2811,219
2812,217
2813,212
2814,189
2815,181
2816,173
2817,170
2818,179
2819,194
2820,209
2821,225
2822,242
2823,256
2824,259
2825,249
2826,231
2827,209
2828,180
2829,155
2830,140
2831,138
2832,135
2833,133
2834,134
2835,119
2836,84
2837,68
2838,84
2839,127
2840,188
2841,245
2842,269
2843,247
2844,182
2845,182
2846,97
2847,18
2848,-75
2849,-19
2850,83
2851,189
2852,278
2853,329
2854,329
2855,292
2856,236
2857,168
2858,94
2859,25
2860,-15
2861,-27
2862,-28
2863,-28
2864,-24
2865,-8
2866,21
2867,64
2868,116
2869,160
2870,188
2871,198
2872,188
2873,161
2874,123
2875,79
2876,40
2877,22
2878,25
2879,41
2880,66
2881,123
2882,148
2883,165
2884,174
2885,172
2886,159
2887,136
2888,121
2889,120
2890,128
2891,143
2892,161
2893,166
2894,148
2895,125
2896,100
2897,84
2898,84
2899,98
2900,116
2901,128
2902,125
2903,104
2904,72
2905,42
2906,33
2907,55
2908,97
2909,140
2910,166
2911,167
2912,140
2913,98
2914,41
2915,23
2916,17
2917,21
2918,24
2919,24
2920,18
2921,7
2922,3
2923,14
2924,37
2925,67
2926,95
2927,111
2928,114
2929,104
2930,88
2931,73
2932,58
2933,46
2934,44
2935,47
2936,50
2937,51
2938,54
2939,65
2940,81
2941,94
2942,105
2943,109
2944,102
2945,91
2946,85
2947,108
2948,133
2949,153
2950,183
2951,218
2952,250
2953,295
2954,354
2955,411
2956,449
2957,452
2958,414
2959,334
2960,227
2961,116
2962,28
2963,-33
2964,-79
2965,-107
2966,-127
2967,-156
2968,-191
2969,-220
2970,-253
2971,-284
2972,-272
2973,-215
2974,-126
2975,-17
2976,87
2977,159
2978,184
2979,159
2980,23
2981,-53
2982,-109
2983,-118
2984,-95
2985,-63
2986,-30
2987,-6
2988,-6
2989,8
2990,18
2991,29
2992,33
2993,24
2994,17
2995,17
2996,20
2997,20
2998,16
2999,6
3000,-10
3001,-30
3002,-51
3003,-58
3004,-50
3005,-33
3006,-7
3007,19
3008,33
3009,32
3010,20
3011,3
3012,-20
3013,-27
3014,74
3015,159
3016,233
3017,278
3018,270
3019,221
3020,146
3021,56
3022,-26
3023,-85
3024,-103
3025,-83
3026,-56
3027,-39
3028,-30
3029,-20
3030,-9
3031,10
3032,38
3033,58
3034,65
3035,68
3036,67
3037,62
3038,54
3039,49
3040,48
3041,48
3042,50
3043,47
3044,39
3045,37
3046,58
3047,76
3048,102
3049,132
3050,156
3051,166
3052,155
3053,128
3054,88
3055,52
3056,33
3057,28
3058,35
3059,48
3060,60
3061,75
3062,93
3063,100
3064,106
3065,112
3066,116
3067,118
3068,111
3069,96
3070,87
3071,81
3072,70
3073,70
3074,76
3075,72
3076,62
3077,60
3078,64
3079,87
3080,114
3081,142
3082,163
3083,185
3084,212
3085,233
3086,247
3087,250
3088,227
3089,178
3090,118
3091,60
3092,20
3093,-3
3094,-20
3095,-37
3096,-53
3097,-73
3098,-96
3099,-114
3100,-135
3101,-142
3102,-131
3103,-115
3104,-97
3105,-80
3106,-67
3107,-48
3108,-9
3109,35
3110,69
3111,89
3112,75
3113,49
3114,18
3115,0
3116,-17
3117,-34
3118,-24
3119,8
3120,48
3121,90
3122,128
3123,141
3124,126
3125,95
3126,59
3127,29
3128,11
3129,9
3130,9
3131,32
3132,62
3133,72
3134,69
3135,78
3136,103
3137,144
3138,190
3139,216
3140,203
3141,148
3142,66
3143,-28
3144,-124
3145,-204
3146,-246
3147,-217
3148,-186
3149,-167
3150,-149
3151,-132
3152,-117
3153,-94
3154,-72
3155,-50
3156,-28
3157,-8
3158,3
3159,0
3160,-22
3161,-55
3162,-81
3163,-93
3164,-83
3165,-65
3166,-46
3167,-21
3168,-7
3169,-2
3170,0
3171,4
3172,7
3173,4
3174,1
3175,14
3176,44
3177,76
3178,100
3179,81
3180,15
3181,-71
3182,-164
3183,-243
3184,-288
3185,-284
3186,-236
3187,-168
3188,-101
3189,-52
3190,-23
3191,-5
3192,11
3193,27
3194,39
3195,40
3196,32
3197,17
3198,-3
3199,-32
3200,-55
3201,-65
3202,-61
3203,-35
3204,10
3205,64
3206,110
3207,137
3208,137
3209,113
3210,68
3211,14
3212,-64
3213,-74
3214,-62
3215,-42
3216,-21
3217,-5
3218,8
3219,20
3220,33
3221,51
3222,73
3223,91
3224,104
3225,109
3226,101
3227,81
3228,59
3229,41
3230,34
3231,33
3232,32
3233,24
3234,5
3235,-19
3236,-42
3237,-60
3238,-73
3239,-83
3240,-95
3241,-106
3242,-118
3243,-143
3244,-167
3245,-191
3246,-184
3247,-164
3248,-132
3249,-96
3250,-67
3251,-44
3252,-25
3253,-17
3254,-23
3255,-31
3256,-36
3257,-39
3258,-37
3259,-38
3260,-34
3261,-16
3262,7
3263,34
3264,64
3265,86
3266,90
3267,75
3268,31
3269,-12
3270,-5
3271,57
3272,57
3273,177
3274,339
3275,479
3276,541
3277,521
3278,425
3279,138
3280,24
3281,-30
3282,-14
3283,21
3284,38
3285,23
3286,-30
3287,-108
3288,-176
3289,-228
3290,-261
3291,-272
3292,-269
3293,-263
3294,-246
3295,-223
3296,-196
3297,-164
3298,-127
3299,-86
3300,-52
3301,-38
3302,-29
3303,-13
3304,9
3305,34
3306,62
3307,77
3308,64
3309,26
3310,-22
3311,-72
3312,-101
3313,-71
3314,-10
3315,57
3316,111
3317,151
3318,165
3319,150
3320,125
3321,96
3322,65
3323,43
3324,28
3325,15
3326,3
3327,-3
3328,-12
3329,-27
3330,-56
3331,-101
3332,-142
3333,-175
3334,-198
3335,-204
3336,-184
3337,-148
3338,-102
3339,-47
3340,2
3341,37
3342,52
3343,47
3344,34
3345,-29
3346,-44
3347,-26
3348,23
3349,93
3350,159
3351,201
3352,211
3353,191
3354,145
3355,88
3356,34
3357,3
3358,-2
3359,-2
3360,-1
3361,-10
3362,-37
3363,-55
3364,-46
3365,-9
3366,37
3367,65
3368,68
3369,63
3370,54
3371,45
3372,47
3373,53
3374,47
3375,42
3376,30
3377,2
3378,-65
3379,-91
3380,-89
3381,-68
3382,-40
3383,-1
3384,36
3385,76
3386,110
3387,124
3388,124
3389,123
3390,116
3391,109
3392,107
3393,97
3394,78
3395,60
3396,40
3397,22
3398,15
3399,20
3400,44
3401,67
3402,70
3403,48
3404,8
3405,-27
3406,-36
3407,-14
3408,23
3409,50
3410,63
3411,62
3412,42
3413,31
3414,31
3415,21
3416,-1
3417,-19
3418,-35
3419,-66
3420,-99
3421,-123
3422,-137
3423,-135
3424,-121
3425,-108
3426,-101
3427,-97
3428,-95
3429,-85
3430,-67
3431,-53
3432,-44
3433,-40
3434,-46
3435,-54
3436,-63
3437,-74
3438,-79
3439,-83
3440,-81
3441,-78
3442,-72
3443,-51
3444,-19
3445,16
3446,72
3447,64
3448,33
3449,-17
3450,-90
3451,-160
3452,-202
3453,-202
3454,-157
3455,-82
3456,-3
3457,51
3458,64
3459,47
3460,21
3461,-4
3462,-24
3463,-27
3464,-16
3465,-6
3466,-6
3467,-18
3468,-40
3469,-69
3470,-94
3471,-96
3472,-78
3473,-57
3474,-39
3475,-30
3476,-31
3477,-39
3478,-50
3479,-66
3480,-67
3481,5
3482,69
3483,119
3484,136
3485,129
3486,99
3487,64
3488,42
3489,37
3490,40
3491,48
3492,52
3493,35
3494,-6
3495,-72
3496,-135
3497,-159
3498,-143
3499,-96
3500,-28
3501,37
3502,76
3503,84
3504,69
3505,31
3506,-11
3507,-45
3508,-62
3509,-54
3510,-26
3511,3
3512,20
3513,25
3514,14
3515,5
3516,-1
3517,-1
3518,-5
3519,-9
3520,-7
3521,4
3522,25
3523,57
3524,86
3525,102
3526,114
3527,121
3528,128
3529,141
3530,153
3531,146
3532,116
3533,89
3534,76
3535,76
3536,87
3537,93
3538,89
3539,76
3540,48
3541,14
3542,-21
3543,-55
3544,-78
3545,-68
3546,-28
3547,-27
3548,-36
3549,-54
3550,-56
3551,-45
3552,-33
3553,-19
3554,-10
3555,-7
3556,2
3557,2
3558,17
3559,24
3560,25
3561,26
3562,23
3563,20
3564,14
3565,9
3566,9
3567,15
3568,28
3569,47
3570,57
3571,52
3572,54
3573,64
3574,82
3575,110
3576,139
3577,153
3578,144
3579,121
3580,84
3581,-4
3582,-27
3583,-23
3584,-14
3585,-14
3586,-14
3587,-3
3588,18
3589,62
3590,149
3591,256
3592,346
3593,403
3594,416
3595,371
3596,279
3597,172
3598,82
3599,32
3600,13
3601,11
3602,28
3603,38
3604,18
3605,-22
3606,-71
3607,-130
3608,-193
3609,-241
3610,-269
3611,-281
3612,-278
3613,-260
3614,-164
3615,-106
3616,-53
3617,-15
3618,-4
3619,-13
3620,-29
3621,-48
3622,-47
3623,-16
3624,33
3625,92
3626,148
3627,188
3628,199
3629,179
3630,147
3631,114
3632,83
3633,65
3634,79
3635,107
3636,121
3637,120
3638,107
3639,80
3640,39
3641,-3
3642,-33
3643,-51
3644,-61
3645,-53
3646,-30
3647,-11
3648,18
3649,35
3650,47
3651,57
3652,66
3653,71
3654,71
3655,69
3656,68
3657,72
3658,76
3659,82
3660,91
3661,97
3662,98
3663,97
3664,98
3665,97
3666,94
3667,92
3668,95
3669,105
3670,115
3671,120
3672,121
3673,120
3674,113
3675,107
3676,106
3677,102
3678,94
3679,90
3680,91
3681,96
3682,98
3683,99
3684,91
3685,93
3686,116
3687,153
3688,195
3689,246
3690,293
3691,308
3692,281
3693,225
3694,149
3695,67
3696,-1
3697,-32
3698,-20
3699,-20
3700,4
3701,28
3702,59
3703,87
3704,97
3705,105
3706,121
3707,136
3708,143
3709,142
3710,129
3711,110
3712,86
3713,62
3714,53
3715,65
3716,118
3717,149
3718,175
3719,187
3720,185
3721,177
3722,168
3723,156
3724,140
3725,119
3726,96
3727,75
3728,59
3729,49
3730,51
3731,65
3732,86
3733,105
3734,108
3735,96
3736,66
3737,37
3738,26
3739,30
3740,48
3741,76
3742,96
3743,99
3744,87
3745,52
3746,-2
3747,-57
3748,-98
3749,-116
3750,-108
3751,-91
3752,-69
3753,-52
3754,-58
3755,-77
3756,-67
3757,-17
3758,68
3759,185
3760,287
3761,323
3762,277
3763,168
3764,16
3765,-142
3766,-268
3767,-329
3768,-302
3769,-222
3770,-137
3771,-71
3772,-41
3773,-47
3774,-60
3775,-59
3776,-54
3777,-47
3778,-24
3779,6
3780,37
3781,71
3782,119
3783,118
3784,104
3785,78
3786,44
3787,19
3788,15
3789,33
3790,69
3791,113
3792,154
3793,174
3794,163
3795,130
3796,84
3797,36
3798,-3
3799,-25
3800,-32
3801,-35
3802,-35
3803,-30
3804,-30
3805,-34
3806,-33
3807,-24
3808,-15
3809,-11
3810,-10
3811,-10
3812,-7
3813,5
3814,29
3815,53
3816,64
3817,27
3818,-9
3819,-53
3820,-94
3821,-110
3822,-103
3823,-81
3824,-46
3825,-12
3826,3
3827,1
3828,-14
3829,-41
3830,-52
3831,-31
3832,34
3833,140
3834,253
3835,334
3836,354
3837,304
3838,191
3839,43
3840,-97
3841,-97
3842,-194
3843,-228
3844,-201
3845,-132
3846,-52
3847,4
3848,32
3849,36
3850,36
3851,26
3852,16
3853,16
3854,20
3855,26
3856,29
3857,15
3858,-12
3859,-52
3860,-98
3861,-131
3862,-148
3863,-154
3864,-135
3865,-96
3866,-50
3867,-10
3868,6
3869,1
3870,-8
3871,-21
3872,-32
3873,-34
3874,-34
3875,-34
3876,-34
3877,-40
3878,-47
3879,-54
3880,-64
3881,-68
3882,-63
3883,-57
3884,-50
3885,-52
3886,-79
3887,-87
3888,-83
3889,-66
3890,-39
3891,-10
3892,10
3893,25
3894,48
3895,78
3896,117
3897,163
3898,209
3899,246
3900,264
3901,259
3902,236
3903,208
3904,178
3905,155
3906,143
3907,128
3908,99
3909,59
3910,4
3911,-59
3912,-120
3913,-170
3914,-207
3915,-227
3916,-232
3917,-227
3918,-222
3919,-206
3920,-170
3921,-112
3922,-36
3923,34
3924,91
3925,126
3926,134
3927,125
3928,116
3929,108
3930,108
3931,122
3932,126
3933,96
3934,34
3935,-51
3936,-132
3937,-181
3938,-194
3939,-167
3940,-112
3941,-51
3942,8
3943,58
3944,93
3945,117
3946,136
3947,148
3948,147
3949,132
3950,107
3951,77
3952,48
3953,26
3954,33
3955,52
3956,78
3957,101
3958,116
3959,120
3960,117
3961,108
3962,90
3963,74
3964,52
3965,25
3966,10
3967,11
3968,21
3969,39
3970,51
3971,41
3972,21
3973,4
3974,-11
3975,-26
3976,-45
3977,-58
3978,-54
3979,-41
3980,-26
3981,-13
3982,-22
3983,-22
3984,-54
3985,-80
3986,-89
3987,-99
3988,-77
3989,-20
3990,48
3991,107
3992,136
3993,112
3994,43
3995,-39
3996,-106
3997,-141
3998,-146
3999,-119
4000,-63
4001,2
4002,57
4003,95
4004,111
4005,101
4006,80
4007,54
4008,20
4009,-19
4010,-57
4011,-83
4012,-85
4013,-69
4014,-48
4015,-24
4016,-9
4017,-11
4018,-22
4019,-35
4020,-45
4021,-47
4022,-41
4023,-35
4024,-39
4025,-58
4026,-77
4027,-89
4028,-97
4029,-96
4030,-88
4031,-74
4032,-67
4033,-80
4034,-90
4035,-72
4036,-33
4037,18
4038,68
4039,86
4040,47
4041,-40
4042,-158
4043,-278
4044,-377
4045,-437
4046,-429
4047,-351
4048,-251
4049,-161
4050,-86
4051,-39
4052,-31
4053,-40
4054,-63
4055,-116
4056,-186
4057,-310
4058,-347
4059,-362
4060,-356
4061,-329
4062,-289
4063,-254
4064,-229
4065,-213
4066,-215
4067,-225
4068,-228
4069,-233
4070,-236
4071,-227
4072,-211
4073,-194
4074,-177
4075,-160
4076,-150
4077,-153
4078,-170
4079,-185
4080,-191
4081,-186
4082,-172
4083,-152
4084,-142
4085,-150
4086,-169
4087,-190
4088,-196
4089,-184
4090,-74
4091,0
4092,47
4093,53
4094,10
4095,-75
4096,-185
4097,-281
4098,-350
4099,-385
4100,-387
4101,-363
4102,-328
4103,-295
4104,-270
4105,-252
4106,-238
4107,-228
4108,-219
4109,-205
4110,-199
4111,-208
4112,-216
4113,-208
4114,-179
4115,-128
4116,-75
4117,-35
4118,-18
4119,-31
4120,-76
4121,-131
4122,-187
4123,-233
4124,-249
4125,-238
4126,-216
4127,-192
4128,-183
4129,-186
4130,-193
4131,-201
4132,-212
4133,-215
4134,-211
4135,-205
4136,-202
4137,-202
4138,-200
4139,-192
4140,-185
4141,-175
4142,-160
4143,-151
4144,-156
4145,-163
4146,-166
4147,-165
4148,-153
4149,-137
4150,-118
4151,-108
4152,-112
4153,-116
4154,-107
4155,-91
4156,-67
4157,-45
4158,-46
4159,-80
4160,-169
4161,-198
4162,-199
4163,-172
4164,-131
4165,-99
4166,-99
4167,-127
4168,-165
4169,-198
4170,-213
4171,-190
4172,-144
4173,-100
4174,-67
4175,-48
4176,-52
4177,-76
4178,-113
4179,-154
4180,-187
4181,-209
4182,-222
4183,-213
4184,-185
4185,-153
4186,-122
4187,-92
4188,-83
4189,-100
4190,-126
4191,-145
4192,-151
4193,-144
4194,-128
4195,-96
4196,-113
4197,-138
4198,-145
4199,-123
4200,-85
4201,-33
4202,15
4203,28
4204,-11
4205,-87
4206,-178
4207,-266
4208,-322
4209,-325
4210,-277
4211,-200
4212,-125
4213,-52
4214,17
4215,77
4216,128
4217,175
4218,211
4219,219
4220,208
4221,176
4222,123
4223,58
4224,-10
4225,-77
4226,-140
4227,-200
4228,-285
4229,-304
4230,-315
4231,-309
4232,-275
4233,-215
4234,-139
4235,-59
4236,3
4237,49
4238,85
4239,114
4240,138
4241,155
4242,158
4243,144
4244,121
4245,100
4246,93
4247,101
4248,120
4249,142
4250,156
4251,147
4252,111
4253,59
4254,6
4255,-29
4256,-35
4257,-10
4258,29
4259,62
4260,77
4261,76
4262,69
4263,74
4264,80
4265,90
4266,107
4267,131
4268,131
4269,156
4270,177
4271,190
4272,191
4273,178
4274,156
4275,131
4276,104
4277,82
4278,72
4279,70
4280,74
4281,81
4282,88
4283,94
4284,100
4285,108
4286,130
4287,161
4288,195
4289,223
4290,240
4291,235
4292,208
4293,165
4294,112
4295,64
4296,31
4297,56
4298,105
4299,158
4300,201
4301,220
4302,207
4303,166
4304,112
4305,52
4306,0
4307,-36
4308,-58
4309,-64
4310,-57
4311,-54
4312,-54
4313,-57
4314,-59
4315,-57
4316,-50
4317,-43
4318,-43
4319,-50
4320,-62
4321,-73
4322,-82
4323,-87
4324,-83
4325,-70
4326,-54
4327,-39
4328,-31
4329,-60
4330,-99
4331,-135
4332,-160
4333,-171
4334,-173
4335,-166
4336,-159
4337,-161
4338,-171
4339,-191
4340,-233
4341,-281
4342,-292
4343,-254
4344,-184
4345,-103
4346,-48
4347,-48
4348,-101
4349,-186
4350,-280
4351,-362
4352,-420
4353,-441
4354,-425
4355,-401
4356,-396
4357,-415
4358,-452
4359,-487
4360,-499
4361,-482
4362,-452
4363,-424
4364,-396
4365,-401
4366,-410
4367,-418
4368,-431
4369,-445
4370,-458
4371,-469
4372,-483
4373,-499
4374,-516
4375,-533
4376,-545
4377,-547
4378,-539
4379,-519
4380,-492
4381,-464
4382,-440
4383,-425
4384,-425
4385,-436
4386,-450
4387,-464
4388,-474
4389,-481
4390,-487
4391,-486
4392,-484
4393,-493
4394,-504
4395,-516
4396,-515
4397,-420
4398,-357
4399,-316
4400,-319
4401,-358
4402,-423
4403,-504
4404,-582
4405,-634
4406,-658
4407,-651
4408,-624
4409,-597
4410,-597
4411,-583
4412,-584
4413,-592
4414,-597
4415,-602
4416,-606
4417,-611
4418,-619
4419,-625
4420,-630
4421,-628
4422,-622
4423,-616
4424,-611
4425,-611
4426,-626
4427,-647
4428,-669
4429,-694
4430,-715
4431,-727
4432,-731
4433,-725
4434,-704
4435,-699
4436,-698
4437,-694
4438,-684
4439,-664
4440,-644
4441,-632
4442,-629
4443,-644
4444,-669
4445,-691
4446,-706
4447,-709
4448,-697
4449,-671
4450,-640
4451,-615
4452,-597
4453,-592
4454,-593
4455,-598
4456,-608
4457,-613
4458,-613
4459,-604
4460,-594
4461,-587
4462,-565
4463,-525
4464,-484
4465,-444
4466,-420
4467,-473
4468,-537
4469,-595
4470,-631
4471,-646
4472,-648
4473,-636
4474,-626
4475,-645
4476,-684
4477,-731
4478,-779
4479,-816
4480,-825
4481,-805
4482,-781
4483,-768
4484,-766
4485,-774
4486,-784
4487,-794
4488,-798
4489,-797
4490,-790
4491,-779
4492,-769
4493,-758
4494,-744
4495,-733
4496,-724
4497,-710
4498,-694
4499,-683
4500,-678
4501,-674
4502,-670
4503,-684
4504,-684
4505,-677
4506,-662
4507,-644
4508,-628
4509,-624
4510,-633
4511,-652
4512,-672
4513,-686
4514,-689
4515,-670
4516,-623
4517,-566
4518,-515
4519,-468
4520,-438
4521,-432
4522,-435
4523,-434
4524,-432
4525,-431
4526,-428
4527,-429
4528,-442
4529,-477
4530,-531
4531,-593
4532,-659
4533,-730
4534,-792
4535,-840
4536,-887
4537,-882
4538,-859
4539,-827
4540,-790
4541,-752
4542,-718
4543,-699
4544,-698
4545,-700
4546,-688
4547,-650
4548,-580
4549,-493
4550,-411
4551,-362
4552,-362
4553,-363
4554,-415
4555,-505
4556,-607
4557,-693
4558,-738
4559,-735
4560,-695
4561,-634
4562,-577
4563,-535
4564,-514
4565,-511
4566,-511
4567,-511
4568,-509
4569,-501
4570,-490
4571,-476
4572,-462
4573,-439
4574,-440
4575,-444
4576,-454
4577,-464
4578,-471
4579,-476
4580,-478
4581,-471
4582,-465
4583,-458
4584,-435
4585,-398
4586,-353
4587,-299
4588,-247
4589,-210
4590,-189
4591,-184
4592,-198
4593,-227
4594,-260
4595,-289
4596,-306
4597,-317
4598,-318
4599,-308
4600,-296
4601,-281
4602,-279
4603,-286
4604,-281
4605,-259
4606,-217
4607,-113
4608,-104
4609,-119
4610,-150
4611,-196
4612,-232
4613,-248
4614,-237
4615,-190
4616,-132
4617,-87
4618,-57
4619,-51
4620,-61
4621,-60
4622,-43
4623,-29
4624,-15
4625,1
4626,14
4627,28
4628,46
4629,68
4630,88
4631,105
4632,117
4633,123
4634,127
4635,130
4636,138
4637,150
4638,160
4639,161
4640,155
4641,124
4642,105
4643,97
4644,103
4645,121
4646,139
4647,151
4648,154
4649,145
4650,129
4651,111
4652,102
4653,95
4654,91
4655,93
4656,96
4657,93
4658,85
4659,80
4660,80
4661,82
4662,80
4663,89
4664,124
4665,175
4666,236
4667,308
4668,367
4669,390
4670,372
4671,319
4672,241
4673,154
4674,45
4675,46
4676,64
4677,86
4678,113
4679,127
4680,122
4681,116
4682,117
4683,125
4684,146
4685,187
4686,233
4687,279
4688,323
4689,358
4690,385
4691,412
4692,443
4693,486
4694,486
4695,535
4696,586
4697,634
4698,668
4699,678
4700,671
4701,652
4702,625
4703,602
4704,593
4705,595
4706,599
4707,603
4708,603
4709,593
4710,583
4711,577
4712,571
4713,567
4714,563
4715,553
4716,540
4717,522
4718,503
4719,493
4720,484
4721,475
4722,485
4723,518
4724,566
4725,628
4726,693
4727,739
4728,758
4729,749
4730,711
4731,652
4732,582
4733,526
4734,505
4735,512
4736,531
4737,556
4738,574
4739,571
4740,513
4741,485
4742,462
4743,456
4744,475
4745,507
4746,531
4747,540
4748,536
4749,524
4750,505
4751,490
4752,486
4753,489
4754,492
4755,495
4756,495
4757,497
4758,501
4759,512
4760,532
4761,557
4762,573
4763,576
4764,560
4765,525
4766,485
4767,444
4768,422
4769,440
4770,485
4771,547
4772,609
4773,649
4774,605
4775,530
4776,456
4777,412
4778,405
4779,448
4780,529
4781,604
4782,651
4783,658
4784,621
4785,551
4786,471
4787,402
4788,361
4789,354
4790,373
4791,407
4792,445
4793,481
4794,509
4795,534
4796,552
4797,568
4798,584
4799,591
4800,584
4801,573
4802,561
4803,551
4804,546
4805,547
4806,556
4807,566
4808,581
4809,597
4810,612
4811,615
4812,602
4813,590
4814,588
4815,590
4816,597
4817,611
4818,633
4819,650
4820,654
4821,656
4822,668
4823,687
4824,717
4825,771
4826,829
4827,858
4828,851
4829,827
4830,797
4831,767
4832,754
4833,769
4834,792
4835,816
4836,834
4837,834
4838,839
4839,826
4840,745
4841,683
4842,601
4843,508
4844,422
4845,343
4846,285
4847,266
4848,285
4849,330
4850,390
4851,449
4852,496
4853,522
4854,525
4855,514
4856,505
4857,510
4858,530
4859,564
4860,606
4861,635
4862,644
4863,639
4864,623
4865,606
4866,589
4867,585
4868,596
4869,619
4870,647
4871,672
4872,691
4873,694
4874,664
4875,630
4876,587
4877,559
4878,565
4879,613
4880,691
4881,768
4882,818
4883,822
4884,779
4885,709
4886,637
4887,579
4888,550
4889,557
4890,585
4891,613
4892,627
4893,619
4894,602
4895,592
4896,598
4897,617
4898,641
4899,658
4900,658
4901,644
4902,631
4903,627
4904,625
4905,652
4906,680
4907,701
4908,716
4909,717
4910,704
4911,678
4912,647
4913,617
4914,591
4915,564
4916,548
4917,552
4918,566
4919,580
4920,596
4921,609
4922,615
4923,620
4924,620
4925,618
4926,614
4927,610
4928,616
4929,633
4930,658
4931,683
4932,703
4933,702
4934,684
4935,653
4936,608
4937,565
4938,543
4939,565
4940,605
4941,647
4942,675
4943,682
4944,666
4945,639
4946,608
4947,573
4948,550
4949,540
4950,535
4951,535
4952,545
4953,558
4954,570
4955,571
4956,562
4957,564
4958,579
4959,605
4960,640
4961,669
4962,678
4963,660
4964,609
4965,530
4966,445
4967,373
4968,328
4969,315
4970,335
4971,386
4972,518
4973,572
4974,599
4975,579
4976,518
4977,444
4978,376
4979,376
4980,329
4981,313
4982,344
4983,406
4984,461
4985,487
4986,477
4987,436
4988,381
4989,339
4990,330
4991,347
4992,381
4993,422
4994,457
4995,474
4996,470
4997,458
4998,448
4999,445
5000,450
5001,460
5002,469
5003,472
5004,463
5005,442
5006,391
5007,366
5008,355
5009,357
5010,363
5011,370
5012,378
5013,389
5014,402
5015,419
5016,437
5017,456
5018,467
5019,469
5020,468
5021,466
5022,461
5023,454
5024,441
5025,419
5026,398
5027,384
5028,385
5029,406
5030,432
5031,445
5032,460
5033,484
5034,501
5035,510
5036,514
5037,498
5038,472
5039,417
5040,397
5041,381
5042,366
5043,370
5044,385
5045,388
5046,380
5047,368
5048,357
5049,357
5050,374
5051,399
5052,415
5053,420
5054,416
5055,407
5056,397
5057,396
5058,401
5059,408
5060,415
5061,419
5062,423
5063,432
5064,441
5065,453
5066,472
5067,494
5068,509
5069,511
5070,502
5071,481
5072,453
5073,411
5074,413
5075,427
5076,447
5077,468
5078,481
5079,478
5080,456
5081,428
5082,401
5083,379
5084,372
5085,380
5086,390
5087,393
5088,387
5089,370
5090,350
5091,333
5092,327
5093,337
5094,365
5095,393
5096,414
5097,424
5098,423
5099,414
5100,401
5101,391
5102,384
5103,377
5104,371
5105,366
5106,389
5107,414
5108,448
5109,471
5110,464
5111,425
5112,368
5113,306
5114,255
5115,230
5116,235
5117,268
5118,313
5119,352
5120,373
5121,373
5122,372
5123,358
5124,342
5125,330
5126,322
5127,313
5128,299
5129,289
5130,295
5131,313
5132,338
5133,382
5134,438
5135,495
5136,536
5137,546
5138,523
5139,405
5140,350
5141,326
5142,332
5143,364
5144,414
5145,465
5146,498
5147,512
5148,509
5149,495
5150,477
5151,460
5152,436
5153,398
5154,340
5155,264
5156,177
5157,98
5158,47
5159,30
5160,40
5161,66
5162,99
5163,130
5164,152
5165,166
5166,173
5167,177
5168,183
5169,194
5170,203
5171,207
5172,213
5173,211
5174,212
5175,204
5176,194
5177,201
5178,231
5179,281
5180,345
5181,404
5182,436
5183,436
5184,401
5185,342
5186,282
5187,231
5188,203
5189,210
5190,239
5191,274
5192,306
5193,333
5194,347
5195,343
5196,328
5197,302
5198,270
5199,243
5200,222
5201,206
5202,202
5203,209
5204,232
5205,243
5206,245
5207,244
5208,246
5209,252
5210,260
5211,265
5212,265
5213,267
5214,277
5215,286
5216,289
5217,285
5218,275
5219,262
5220,254
5221,253
5222,258
5223,269
5224,286
5225,302
5226,312
5227,308
5228,291
5229,268
5230,246
5231,237
5232,252
5233,283
5234,325
5235,385
5236,446
5237,494
5238,518
5239,486
5240,430
5241,369
5242,320
5243,289
5244,279
5245,287
5246,308
5247,329
5248,333
5249,324
5250,302
5251,271
5252,249
5253,238
5254,232
5255,239
5256,262
5257,286
5258,312
5259,343
5260,364
5261,372
5262,370
5263,370
5264,355
5265,339
5266,320
5267,304
5268,302
5269,306
5270,305
5271,305
5272,299
5273,293
5274,285
5275,271
5276,257
5277,240
5278,219
5279,196
5280,182
5281,189
5282,217
5283,258
5284,300
5285,328
5286,326
5287,297
5288,253
5289,198
5290,152
5291,136
5292,152
5293,195
5294,250
5295,293
5296,310
5297,298
5298,259
5299,211
5300,166
5301,124
5302,94
5303,85
5304,82
5305,81
5306,84
5307,76
5308,65
5309,58
5310,62
5311,70
5312,78
5313,94
5314,119
5315,149
5316,176
5317,194
5318,194
5319,175
5320,146
5321,117
5322,96
5323,88
5324,94
5325,117
5326,148
5327,178
5328,201
5329,210
5330,209
5331,203
5332,193
5333,183
5334,178
5335,179
5336,189
5337,205
5338,225
5339,258
5340,261
5341,245
5342,225
5343,207
5344,196
5345,200
5346,214
5347,215
5348,197
5349,166
5350,128
5351,89
5352,61
5353,47
5354,50
5355,69
5356,102
5357,144
5358,183
5359,209
5360,215
5361,205
5362,175
5363,125
5364,69
5365,22
5366,-8
5367,-12
5368,16
5369,56
5370,95
5371,133
5372,194
5373,210
5374,227
5375,243
5376,253
5377,260
5378,260
5379,252
5380,225
5381,185
5382,144
5383,114
5384,98
5385,110
5386,162
5387,237
5388,312
5389,370
5390,384
5391,362
5392,313
5393,249
5394,190
5395,146
5396,118
5397,109
5398,110
5399,116
5400,128
5401,147
5402,168
5403,201
5404,240
5405,266
5406,271
5407,262
5408,241
5409,205
5410,173
5411,164
5412,182
5413,228
5414,288
5415,343
5416,374
5417,369
5418,332
5419,278
5420,222
5421,170
5422,139
5423,127
5424,119
5425,112
5426,115
5427,132
5428,163
5429,209
5430,261
5431,297
5432,299
5433,268
5434,208
5435,138
5436,78
5437,45
5438,81
5439,104
5440,119
5441,128
5442,121
5443,106
5444,105
5445,117
5446,144
5447,184
5448,225
5449,267
5450,303
5451,326
5452,346
5453,365
5454,371
5455,368
5456,361
5457,347
5458,327
5459,299
5460,261
5461,214
5462,163
5463,107
5464,57
5465,24
5466,8
5467,7
5468,13
5469,15
5470,1
5471,-64
5472,-96
5473,-123
5474,-144
5475,-125
5476,-54
5477,47
5478,157
5479,257
5480,319
5481,320
5482,267
5483,183
5484,86
5485,-7
5486,-74
5487,-87
5488,-54
5489,-6
5490,41
5491,79
5492,105
5493,116
5494,117
5495,113
5496,100
5497,82
5498,65
5499,60
5500,67
5501,78
5502,93
5503,105
5504,110
5505,102
5506,90
5507,77
5508,66
5509,59
5510,58
5511,59
5512,64
5513,77
5514,90
5515,97
5516,105
5517,114
5518,122
5519,131
5520,143
5521,144
5522,125
5523,113
5524,124
5525,148
5526,177
5527,215
5528,249
5529,256
5530,233
5531,179
5532,102
5533,20
5534,-36
5535,-41
5536,-7
5537,29
5538,88
5539,104
5540,103
5541,106
5542,105
5543,94
5544,89
5545,95
5546,99
5547,98
5548,98
5549,98
5550,101
5551,111
5552,118
5553,121
5554,128
5555,136
5556,142
5557,156
5558,173
5559,182
5560,181
5561,170
5562,146
5563,116
5564,84
5565,61
5566,56
5567,62
5568,74
5569,86
5570,97
5571,99
5572,87
5573,60
5574,68
5575,71
5576,86
5577,121
5578,155
5579,186
5580,213
5581,219
5582,193
5583,138
5584,66
5585,-5
5586,-78
5587,-151
5588,-189
5589,-177
5590,-137
5591,-81
5592,-22
5593,12
5594,18
5595,6
5596,-15
5597,-45
5598,-75
5599,-100
5600,-106
5601,-96
5602,-85
5603,-79
5604,-75
5605,-73
5606,-61
5607,-52
5608,-43
5609,-39
5610,-41
5611,-41
5612,-41
5613,-46
5614,-61
5615,-76
5616,-86
5617,-90
5618,-89
5619,-83
5620,-75
5621,-70
5622,-72
5623,-76
5624,-94
5625,-125
5626,-142
5627,-131
5628,-100
5629,-44
5630,28
5631,86
5632,113
5633,105
5634,57
5635,-17
5636,-101
5637,-169
5638,-196
5639,-164
5640,-128
5641,-96
5642,-84
5643,-80
5644,-70
5645,-59
5646,-45
5647,-31
5648,-32
5649,-49
5650,-71
5651,-97
5652,-120
5653,-132
5654,-125
5655,-105
5656,-81
5657,-61
5658,-46
5659,-35
5660,-39
5661,-56
5662,-78
5663,-98
5664,-111
5665,-113
5666,-98
5667,-77
5668,-65
5669,-60
5670,-59
5671,-66
5672,-83
5673,-140
5674,-137
5675,-121
5676,-104
5677,-78
5678,-55
5679,-54
5680,-65
5681,-86
5682,-117
5683,-149
5684,-177
5685,-187
5686,-168
5687,-147
5688,-141
5689,-147
5690,-147
5691,-161
5692,-182
5693,-197
5694,-195
5695,-179
5696,-159
5697,-138
5698,-115
5699,-94
5700,-81
5701,-78
5702,-80
5703,-80
5704,-85
5705,-98
5706,-120
5707,-134
5708,-148
5709,-160
5710,-166
5711,-164
5712,-152
5713,-131
5714,-106
5715,-91
5716,-87
5717,-86
5718,-96
5719,-113
5720,-130
5721,-142
5722,-151
5723,-156
5724,-162
5725,-167
5726,-167
5727,-163
5728,-147
5729,-120
5730,-92
5731,-69
5732,-49
5733,-37
5734,-37
5735,-47
5736,-64
5737,-86
5738,-108
5739,-129
5740,-147
5741,-145
5742,-136
5743,-132
5744,-134
5745,-141
5746,-154
5747,-169
5748,-180
5749,-186
5750,-181
5751,-164
5752,-140
5753,-116
5754,-95
5755,-85
5756,-92
5757,-114
5758,-142
5759,-162
5760,-172
5761,-176
5762,-167
5763,-141
5764,-115
5765,-95
5766,-81
5767,-76
5768,-83
5769,-97
5770,-103
5771,-100
5772,-91
5773,-76
5774,-20
5775,7
5776,33
5777,58
5778,83
5779,106
5780,127
5781,144
5782,146
5783,125
5784,79
5785,14
5786,-71
5787,-165
5788,-252
5789,-324
5790,-374
5791,-408
5792,-431
5793,-423
5794,-384
5795,-329
5796,-260
5797,-189
5798,-142
5799,-117
5800,-112
5801,-128
5802,-147
5803,-161
5804,-174
5805,-172
5806,-153
5807,-102
5808,-79
5809,-72
5810,-83
5811,-114
5812,-162
5813,-210
5814,-244
5815,-261
5816,-252
5817,-210
5818,-150
5819,-96
5820,-65
5821,-58
5822,-67
5823,-79
5824,-85
5825,-88
5826,-91
5827,-93
5828,-95
5829,-96
5830,-100
5831,-107
5832,-107
5833,-112
5834,-113
5835,-114
5836,-112
5837,-112
5838,-114
5839,-108
5840,-97
5841,-84
5842,-65
5843,-79
5844,-77
5845,-55
5846,-14
5847,48
5848,106
5849,129
5850,109
5851,43
5852,-57
5853,-164
5854,-260
5855,-312
5856,-301
5857,-247
5858,-178
5859,-109
5860,-65
5861,-49
5862,-52
5863,-63
5864,-83
5865,-109
5866,-133
5867,-155
5868,-171
5869,-171
5870,-152
5871,-119
5872,-83
5873,-47
5874,-23
5875,-19
5876,-64
5877,-96
5878,-131
5879,-151
5880,-145
5881,-120
5882,-75
5883,-17
5884,41
5885,78
5886,80
5887,47
5888,-15
5889,-94
5890,-167
5891,-223
5892,-245
5893,-221
5894,-159
5895,-78
5896,-5
5897,37
5898,42
5899,7
5900,-55
5901,-120
5902,-169
5903,-203
5904,-207
5905,-173
5906,-128
5907,-87
5908,-57
5909,-33
5910,-34
5911,-42
5912,-52
5913,-63
5914,-79
5915,-97
5916,-108
5917,-118
5918,-129
5919,-141
5920,-156
5921,-174
5922,-191
5923,-206
5924,-212
5925,-209
5926,-204
5927,-203
5928,-202
5929,-202
5930,-197
5931,-187
5932,-172
5933,-158
5934,-148
5935,-143
5936,-149
5937,-167
5938,-187
5939,-209
5940,-223
5941,-226
5942,-222
5943,-209
5944,-207
5945,-208
5946,-209
5947,-213
5948,-220
5949,-223
5950,-226
5951,-228
5952,-231
5953,-237
5954,-247
5955,-256
5956,-258
5957,-250
5958,-230
5959,-206
5960,-185
5961,-168
5962,-160
5963,-162
5964,-175
5965,-194
5966,-212
5967,-224
5968,-229
5969,-229
5970,-221
5971,-211
5972,-201
5973,-187
5974,-183
5975,-185
5976,-185
5977,-141
5978,-89
5979,-28
5980,15
5981,24
5982,-5
5983,-68
5984,-146
5985,-214
5986,-262
5987,-273
5988,-249
5989,-204
5990,-155
5991,-117
5992,-95
5993,-86
5994,-82
5995,-81
5996,-86
5997,-98
5998,-103
5999,-103
6000,-97
6001,-77
6002,-52
6003,-39
6004,-43
6005,-63
6006,-91
6007,-121
6008,-141
6009,-123
6010,-98
6011,-74
6012,-58
6013,-57
6014,-68
6015,-86
6016,-103
6017,-112
6018,-110
6019,-100
6020,-82
6021,-65
6022,-57
6023,-58
6024,-65
6025,-77
6026,-91
6027,-100
6028,-95
6029,-73
6030,-38
6031,6
6032,43
6033,61
6034,64
6035,63
6036,53
6037,34
6038,19
6039,25
6040,49
6041,84
6042,128
6043,210
6044,227
6045,242
6046,242
6047,213
6048,157
6049,94
6050,39
6051,-10
6052,-51
6053,-72
6054,-76
6055,-78
6056,-79
6057,-68
6058,-52
6059,-29
6060,8
6061,51
6062,85
6063,99
6064,82
6065,43
6066,-7
6067,-56
6068,-85
6069,-81
6070,-49
6071,-2
6072,35
6073,49
6074,39
6075,1
6076,-36
6077,-21
6078,12
6079,52
6080,74
6081,73
6082,51
6083,17
6084,-13
6085,-37
6086,-53
6087,-36
6088,8
6089,57
6090,96
6091,119
6092,119
6093,98
6094,58
6095,13
6096,-36
6097,-90
6098,-120
6099,-115
6100,-84
6101,-43
6102,-7
6103,17
6104,27
6105,32
6106,48
6107,82
6108,130
6109,222
6110,246
6111,251
6112,238
6113,214
6114,183
6115,143
6116,91
6117,91
6118,45
6119,1
6120,-44
6121,-87
6122,-131
6123,-175
6124,-217
6125,-262
6126,-306
6127,-340
6128,-360
6129,-352
6130,-305
6131,-236
6132,-167
6133,-107
6134,-65
6135,-36
6136,-18
6137,-12
6138,-7
6139,-12
6140,-31
6141,-53
6142,-80
6143,-122
6144,-113
6145,-89
6146,-56
6147,-35
6148,-41
6149,-76
6150,-132
6151,-184
6152,-213
6153,-215
6154,-189
6155,-137
6156,-92
6157,-70
6158,-64
6159,-66
6160,-69
6161,-61
6162,-38
6163,-14
6164,-3
6165,-14
6166,-43
6167,-75
6168,-111
6169,-134
6170,-118
6171,-76
6172,-28
6173,24
6174,65
6175,79
6176,66
6177,-24
6178,-80
6179,-129
6180,-156
6181,-151
6182,-126
6183,-97
6184,-70
6185,-54
6186,-48
6187,-47
6188,-48
6189,-46
6190,-40
6191,-33
6192,-28
6193,-25
6194,-22
6195,-21
6196,-24
6197,-31
6198,-41
6199,-52
6200,-65
6201,-75
6202,-70
6203,-43
6204,-5
6205,36
6206,68
6207,75
6208,62
6209,44
6210,2
6211,-18
6212,-41
6213,-63
6214,-86
6215,-109
6216,-125
6217,-128
6218,-113
6219,-80
6220,-43
6221,-17
6222,-7
6223,-8
6224,-7
6225,2
6226,17
6227,33
6228,37
6229,13
6230,-31
6231,-76
6232,-102
6233,-96
6234,-56
6235,-2
6236,33
6237,24
6238,-31
6239,-124
6240,-234
6241,-329
6242,-381
6243,-339
6244,-288
6245,-236
6246,-193
6247,-169
6248,-161
6249,-155
6250,-151
6251,-154
6252,-159
6253,-167
6254,-190
6255,-222
6256,-233
6257,-220
6258,-187
6259,-187
6260,-147
6261,-118
6262,-116
6263,-149
6264,-203
6265,-258
6266,-304
6267,-332
6268,-324
6269,-279
6270,-230
6271,-201
6272,-206
6273,-236
6274,-259
6275,-261
6276,-170
6277,-131
6278,-131
6279,-166
6280,-235
6281,-324
6282,-404
6283,-453
6284,-452
6285,-405
6286,-341
6287,-275
6288,-220
6289,-188
6290,-174
6291,-163
6292,-164
6293,-184
6294,-211
6295,-239
6296,-267
6297,-289
6298,-299
6299,-286
6300,-261
6301,-248
6302,-243
6303,-228
6304,-206
6305,-174
6306,-132
6307,-98
6308,-100
6309,-195
6310,-278
6311,-344
6312,-359
6313,-317
6314,-213
6315,-81
6316,23
6317,59
6318,23
6319,-74
6320,-202
6321,-316
6322,-394
6323,-409
6324,-359
6325,-275
6326,-185
6327,-102
6328,-47
6329,-43
6330,-64
6331,-77
6332,-85
6333,-78
6334,-46
6335,-13
6336,-3
6337,-19
6338,-57
6339,-113
6340,-167
6341,-220
6342,-248
6343,-171
6344,-109
6345,-42
6346,3
6347,2
6348,-22
6349,-45
6350,-68
6351,-75
6352,-63
6353,-51
6354,-39
6355,-31
6356,-36
6357,-49
6358,-71
6359,-88
6360,-72
6361,-38
6362,-10
6363,0
6364,-18
6365,-72
6366,-138
6367,-184
6368,-203
6369,-204
6370,-194
6371,-167
6372,-132
6373,-107
6374,-92
6375,-83
6376,-84
6377,-82
6378,-63
6379,-39
6380,-17
6381,3
6382,16
6383,17
6384,3
6385,-22
6386,-54
6387,-84
6388,-103
6389,-104
6390,-88
6391,-61
6392,-38
6393,-16
6394,10
6395,28
6396,41
6397,72
6398,110
6399,136
6400,164
6401,164
6402,192
6403,203
6404,196
6405,176
6406,142
6407,101
6408,50
6409,0
6410,-28
6411,-44
6412,-57
6413,-47
6414,-42
6415,-43
6416,-47
6417,-53
6418,-54
6419,-42
6420,-25
6421,-1
6422,27
6423,41
6424,37
6425,27
6426,13
6427,1
6428,-12
6429,-21
6430,-8
6431,3
6432,28
6433,131
6434,298
6435,484
6436,652
6437,757
6438,750
6439,627
6440,426
6441,207
6442,38
6443,-63
6444,-72
6445,110
6446,149
6447,128
6448,56
6449,-43
6450,-129
6451,-175
6452,-187
6453,-190
6454,-194
6455,-177
6456,-137
6457,-80
6458,-10
6459,58
6460,104
6461,126
6462,130
6463,123
6464,114
6465,110
6466,114
6467,140
6468,162
6469,170
6470,172
6471,160
6472,145
6473,151
6474,172
6475,196
6476,211
6477,196
6478,175
6479,151
6480,132
6481,125
6482,122
6483,125
6484,134
6485,143
6486,151
6487,154
6488,152
6489,149
6490,152
6491,161
6492,173
6493,188
6494,202
6495,212
6496,213
6497,211
6498,210
6499,207
6500,206
6501,210
6502,203
6503,190
6504,198
6505,236
6506,301
6507,376
6508,425
6509,445
6510,399
6511,341
6512,281
6513,220
6514,167
6515,140
6516,126
6517,108
6518,85
6519,58
6520,48
6521,72
6522,117
6523,166
6524,212
6525,247
6526,259
6527,253
6528,245
6529,236
6530,231
6531,234
6532,241
6533,247
6534,248
6535,239
6536,220
6537,195
6538,167
6539,145
6540,136
6541,137
6542,135
6543,143
6544,143
6545,164
6546,193
6547,236
6548,275
6549,294
6550,295
6551,285
6552,266
6553,242
6554,217
6555,194
6556,173
6557,155
6558,139
6559,130
6560,118
6561,108
6562,120
6563,155
6564,194
6565,222
6566,232
6567,215
6568,174
6569,127
6570,88
6571,60
6572,45
6573,53
6574,79
6575,106
6576,118
6577,95
6578,76
6579,60
6580,58
6581,80
6582,105
6583,119
6584,126
6585,118
6586,89
6587,54
6588,29
6589,22
6590,31
6591,52
6592,64
6593,66
6594,58
6595,47
6596,47
6597,62
6598,86
6599,111
6600,121
6601,111
6602,84
6603,41
6604,-4
6605,-35
6606,-56
6607,-74
6608,-93
6609,-112
6610,-119
6611,-102
6612,-74
6613,-41
6614,-4
6615,40
6616,84
6617,123
6618,165
6619,201
6620,216
6621,206
6622,178
6623,132
6624,68
6625,11
6626,-24
6627,-45
6628,-58
6629,-56
6630,-39
6631,-18
6632,6
6633,42
6634,87
6635,128
6636,155
6637,176
6638,185
6639,181
6640,170
6641,167
6642,178
6643,236
6644,262
6645,271
6646,252
6647,207
6648,155
6649,108
6650,80
6651,80
6652,104
6653,139
6654,167
6655,183
6656,188
6657,187
6658,186
6659,180
6660,165
6661,150
6662,136
6663,121
6664,104
6665,91
6666,79
6667,65
6668,49
6669,28
6670,9
6671,-4
6672,-8
6673,8
6674,44
6675,82
6676,131
6677,140
6678,138
6679,131
6680,122
6681,117
6682,120
6683,126
6684,138
6685,150
6686,150
6687,155
6688,149
6689,140
6690,129
6691,119
6692,112
6693,113
6694,129
6695,148
6696,161
6697,166
6698,159
6699,142
6700,120
6701,98
6702,83
6703,73
6704,66
6705,65
6706,70
6707,73
6708,75
6709,78
6710,84
6711,90
6712,87
6713,82
6714,72
6715,58
6716,48
6717,48
6718,53
6719,61
6720,70
6721,77
6722,76
6723,69
6724,56
6725,38
6726,22
6727,7
6728,-2
6729,-3
6730,2
6731,7
6732,-1
6733,-21
6734,-45
6735,-65
6736,-79
6737,-86
6738,-80
6739,-68
6740,-56
6741,-45
6742,-38
6743,-46
6744,-89
6745,-100
6746,-105
6747,-111
6748,-116
6749,-118
6750,-120
6751,-119
6752,-114
6753,-112
6754,-107
6755,-91
6756,-77
6757,-66
6758,-48
6759,-29
6760,-11
6761,9
6762,19
6763,13
6764,-5
6765,-31
6766,-52
6767,-58
6768,-54
6769,-29
6770,15
6771,71
6772,125
6773,161
6774,173
6775,162
6776,105
6777,77
6778,43
6779,7
6780,-28
6781,-63
6782,-97
6783,-129
6784,-163
6785,-192
6786,-205
6787,-204
6788,-185
6789,-151
6790,-116
6791,-79
6792,-45
6793,-22
6794,-7
6795,-7
6796,-24
6797,-48
6798,-80
6799,-114
6800,-131
6801,-129
6802,-111
6803,-68
6804,-11
6805,36
6806,70
6807,68
6808,-14
6809,-55
6810,-80
6811,-75
6812,-51
6813,-24
6814,0
6815,4
6816,-9
6817,-32
6818,-62
6819,-85
6820,-90
6821,-91
6822,-94
6823,-95
6824,-94
6825,-89
6826,-75
6827,-54
6828,-54
6829,-32
6830,-7
6831,20
6832,44
6833,63
6834,74
6835,75
6836,69
6837,53
6838,28
6839,8
6840,0
6841,-6
6842,-7
6843,14
6844,24
6845,28
6846,23
6847,9
6848,-20
6849,-63
6850,-106
6851,-140
6852,-169
6853,-182
6854,-170
6855,-142
6856,-109
6857,-78
6858,-53
6859,-36
6860,-29
6861,-27
6862,-24
6863,-22
6864,-21
6865,-20
6866,-18
6867,-14
6868,-5
6869,8
6870,19
6871,29
6872,35
6873,37
6874,37
6875,34
6876,31
6877,32
6878,34
6879,35
6880,35
6881,32
6882,21
6883,8
6884,-4
6885,-21
6886,-41
6887,-61
6888,-88
6889,-114
6890,-133
6891,-144
6892,-144
6893,-132
6894,-117
6895,-101
6896,-90
6897,-88
6898,-86
6899,-83
6900,-80
6901,-75
6902,-64
6903,-57
6904,-60
6905,-71
6906,-89
6907,-105
6908,-116
6909,-112
6910,-103
6911,-97
6912,-90
6913,-85
6914,-87
6915,-93
6916,-94
6917,-101
6918,-114
6919,-128
6920,-139
6921,-152
6922,-166
6923,-177
6924,-183
6925,-193
6926,-211
6927,-226
6928,-234
6929,-237
6930,-233
6931,-212
6932,-182
6933,-157
6934,-137
6935,-126
6936,-123
6937,-131
6938,-143
6939,-148
6940,-148
6941,-139
6942,-123
6943,-125
6944,-129
6945,-127
6946,-118
6947,-104
6948,-85
6949,-68
6950,-61
6951,-65
6952,-76
6953,-94
6954,-112
6955,-124
6956,-126
6957,-118
6958,-109
6959,-107
6960,-109
6961,-114
6962,-121
6963,-125
6964,-124
6965,-120
6966,-111
6967,-100
6968,-90
6969,-82
6970,-82
6971,-78
6972,-77
6973,-78
6974,-77
6975,-75
6976,-61
6977,-54
6978,-53
6979,-58
6980,-68
6981,-80
6982,-89
6983,-91
6984,-83
6985,-67
6986,-44
6987,-23
6988,-9
6989,-4
6990,-10
6991,-27
6992,-46
6993,-56
6994,-54
6995,-43
6996,-23
6997,-1
6998,20
6999,37
7000,45
7001,44
7002,32
7003,8
7004,-18
7005,-44
7006,-66
7007,-79
7008,-77
7009,-61
7010,10
7011,41
7012,58
7013,59
7014,49
7015,38
7016,26
7017,22
7018,26
7019,26
7020,15
7021,-3
7022,-29
7023,-58
7024,-76
7025,-93
7026,-104
7027,-82
7028,-35
7029,27
7030,96
7031,150
7032,168
7033,144
7034,82
7035,1
7036,-73
7037,-131
7038,-155
7039,-123
7040,-62
7041,-3
7042,45
7043,93
7044,90
7045,80
7046,70
7047,59
7048,44
7049,28
7050,18
7051,14
7052,8
7053,0
7054,-6
7055,-12
7056,-17
7057,-18
7058,-10
7059,6
7060,23
7061,32
7062,30
7063,18
7064,0
7065,-21
7066,-35
7067,-38
7068,-36
7069,-34
7070,-33
7071,-30
7072,-30
7073,-28
7074,-2
7075,25
7076,53
7077,70
7078,77
7079,68
7080,44
7081,18
7082,0
7083,-8
7084,-1
7085,19
7086,50
7087,81
7088,104
7089,116
7090,121
7091,119
7092,112
7093,112
7094,118
7095,128
7096,143
7097,162
7098,185
7099,215
7100,250
7101,285
7102,321
7103,361
7104,400
7105,433
7106,460
7107,467
7108,395
7109,316
7110,211
7111,90
7112,-33
7113,-33
7114,-140
7115,-218
7116,-265
7117,-284
7118,-278
7119,-255
7120,-221
7121,-177
7122,-126
7123,-76
7124,-25
7125,24
7126,67
7127,96
7128,113
7129,121
7130,119
7131,113
7132,107
7133,105
7134,107
7135,113
7136,128
7137,145
7138,160
7139,181
7140,208
7141,232
7142,256
7143,260
7144,257
7145,247
7146,234
7147,222
7148,212
7149,208
7150,210
7151,211
7152,205
7153,192
7154,182
7155,180
7156,179
7157,184
7158,195
7159,204
7160,210
7161,213
7162,209
7163,198
7164,190
7165,187
7166,197
7167,216
7168,233
7169,247
7170,256
7171,260
7172,261
7173,262
7174,261
7175,263
7176,271
7177,278
7178,281
7179,282
7180,278
7181,277
7182,280
7183,283
7184,288
7185,299
7186,313
7187,330
7188,349
7189,364
7190,367
7191,360
7192,344
7193,318
7194,288
7195,259
7196,235
7197,223
7198,223
7199,231
7200,246
7201,266
7202,287
7203,310
7204,335
7205,355
7206,370
7207,376
7208,351
7209,337
7210,323
7211,307
7212,295
7213,283
7214,272
7215,268
7216,270
7217,270
7218,273
7219,281
7220,292
7221,304
7222,315
7223,323
7224,330
7225,337
7226,346
7227,355
7228,356
7229,347
7230,332
7231,318
7232,300
7233,279
7234,258
7235,234
7236,210
7237,183
7238,148
7239,112
7240,79
7241,29
7242,23
7243,26
7244,31
7245,36
7246,33
7247,18
7248,-1
7249,-19
7250,-29
7251,-35
7252,-41
7253,-46
7254,-53
7255,-53
7256,-66
7257,-82
7258,-95
7259,-100
7260,-94
7261,-74
7262,-47
7263,-20
7264,1
7265,19
7266,31
7267,42
7268,52
7269,63
7270,73
7271,81
7272,87
7273,90
7274,87
7275,89
7276,94
7277,99
7278,106
7279,113
7280,120
7281,128
7282,135
7283,143
7284,160
7285,180
7286,201
7287,224
7288,241
7289,246
7290,235
7291,216
7292,199
7293,189
7294,180
7295,178
7296,184
7297,196
7298,212
7299,233
7300,251
7301,263
7302,269
7303,271
7304,269
7305,260
7306,243
7307,217
7308,212
7309,213
7310,214
7311,215
7312,221
7313,232
7314,246
7315,266
7316,290
7317,314
7318,334
7319,348
7320,358
7321,363
7322,368
7323,375
7324,381
7325,381
7326,373
7327,368
7328,369
7329,375
7330,376
7331,379
7332,381
7333,376
7334,368
7335,364
7336,362
7337,363
7338,377
7339,399
7340,425
7341,452
7342,480
7343,506
7344,520
7345,518
7346,495
7347,460
7348,424
7349,391
7350,370
7351,370
7352,378
7353,389
7354,398
7355,403
7356,404
7357,402
7358,405
7359,415
7360,428
7361,437
7362,446
7363,456
7364,463
7365,466
7366,468
7367,463
7368,452
7369,439
7370,427
7371,404
7372,401
7373,403
7374,410
7375,416
7376,427
7377,441
7378,448
7379,455
7380,461
7381,458
7382,443
7383,419
7384,389
7385,358
7386,326
7387,301
7388,286
7389,281
7390,282
7391,292
7392,307
7393,315
7394,323
7395,331
7396,333
7397,333
7398,332
7399,338
7400,351
7401,373
7402,402
7403,428
7404,447
7405,448
7406,437
7407,425
7408,410
7409,400
7410,400
7411,402
7412,403
7413,405
7414,408
7415,419
7416,440
7417,472
7418,511
7419,550
7420,576
7421,588
7422,594
7423,586
7424,574
7425,584
7426,615
7427,666
7428,739
7429,809
7430,840
7431,814
7432,723
7433,574
7434,390
7435,201
7436,38
7437,-63
7438,-99
7439,-54
7440,6
7441,62
7442,108
7443,148
7444,177
7445,192
7446,208
7447,226
7448,247
7449,276
7450,307
7451,339
7452,366
7453,387
7454,397
7455,396
7456,388
7457,377
7458,370
7459,369
7460,373
7461,379
7462,386
7463,389
7464,387
7465,382
7466,380
7467,380
7468,384
7469,397
7470,411
7471,414
7472,404
7473,398
7474,399
7475,408
7476,424
7477,441
7478,449
7479,438
7480,415
7481,386
7482,360
7483,350
7484,360
7485,384
7486,408
7487,414
7488,398
7489,366
7490,328
7491,294
7492,276
7493,280
7494,302
7495,332
7496,359
7497,377
7498,386
7499,388
7500,391
7501,400
7502,416
7503,431
7504,441
7505,431
7506,411
7507,389
7508,374
7509,363
7510,360
7511,366
7512,375
7513,388
7514,405
7515,416
7516,418
7517,419
7518,419
7519,415
7520,414
7521,414
7522,419
7523,437
7524,453
7525,459
7526,463
7527,463
7528,461
7529,463
7530,466
7531,461
7532,444
7533,419
7534,391
7535,363
7536,337
7537,318
7538,322
7539,322
7540,331
7541,331
7542,325
7543,315
7544,302
7545,292
7546,285
7547,281
7548,282
7549,286
7550,292
7551,298
7552,308
7553,315
7554,317
7555,316
7556,322
7557,330
7558,340
7559,351
7560,359
7561,361
7562,355
7563,338
7564,320
7565,305
7566,290
7567,286
7568,299
7569,319
7570,334
7571,338
7572,312
7573,281
7574,248
7575,221
7576,200
7577,187
7578,181
7579,173
7580,166
7581,154
7582,142
7583,139
7584,143
7585,155
7586,174
7587,189
7588,194
7589,193
7590,183
7591,170
7592,162
7593,159
7594,165
7595,177
7596,184
7597,185
7598,181
7599,167
7600,147
7601,131
7602,122
7603,120
7604,134
7605,139
7606,140
7607,134
7608,125
7609,118
7610,115
7611,115
7612,129
7613,153
7614,179
7615,201
7616,212
7617,204
7618,188
7619,177
7620,170
7621,168
7622,170
7623,169
7624,158
7625,132
7626,93
7627,51
7628,16
7629,-7
7630,-12
7631,4
7632,28
7633,46
7634,58
7635,66
7636,64
7637,68
7638,72
7639,76
7640,81
7641,86
7642,95
7643,108
7644,120
7645,126
7646,128
7647,126
7648,120
7649,112
7650,102
7651,94
7652,91
7653,89
7654,92
7655,99
7656,103
7657,106
7658,110
7659,114
7660,122
7661,129
7662,133
7663,139
7664,145
7665,152
7666,159
7667,165
7668,166
7669,165
7670,165
7671,163
7672,168
7673,173
7674,184
7675,198
7676,210
7677,218
7678,219
7679,215
7680,207
7681,199
7682,199
7683,188
7684,182
7685,179
7686,177
7687,178
7688,183
7689,183
7690,183
7691,181
7692,178
7693,172
7694,164
7695,157
7696,155
7697,162
7698,182
7699,204
7700,215
7701,218
7702,213
7703,197
7704,173
7705,116
7706,85
7707,56
7708,38
7709,27
7710,14
7711,5
7712,6
7713,7
7714,7
7715,12
7716,20
7717,38
7718,70
7719,113
7720,163
7721,205
7722,232
7723,247
7724,240
7725,225
7726,218
7727,221
7728,235
7729,263
7730,297
7731,326
7732,343
7733,349
7734,354
7735,352
7736,352
7737,381
7738,375
7739,337
7740,271
7741,178
7742,66
7743,-37
7744,-114
7745,-157
7746,-168
7747,-154
7748,-123
7749,-92
7750,-67
7751,-45
7752,-17
7753,12
7754,44
7755,83
7756,118
7757,143
7758,159
7759,168
7760,168
7761,163
7762,159
7763,157
7764,155
7765,154
7766,159
7767,171
7768,188
7769,207
7770,224
7771,237
7772,228
7773,213
7774,196
7775,181
7776,168
7777,159
7778,160
7779,168
7780,173
7781,173
7782,173
7783,179
7784,189
7785,195
7786,207
7787,234
7788,269
7789,303
7790,334
7791,352
7792,336
7793,286
7794,223
7795,163
7796,115
7797,87
7798,89
7799,113
7800,141
7801,162
7802,173
7803,170
7804,166
7805,170
7806,177
7807,186
7808,197
7809,204
7810,207
7811,211
7812,222
7813,228
7814,228
7815,231
7816,235
7817,235
7818,235
7819,240
7820,246
7821,250
7822,252
7823,255
7824,255
7825,262
7826,270
7827,277
7828,285
7829,296
7830,307
7831,317
7832,320
7833,314
7834,296
7835,266
7836,185
7837,148
7838,119
7839,102
7840,101
7841,114
7842,140
7843,173
7844,210
7845,245
7846,272
7847,286
7848,279
7849,258
7850,234
7851,205
7852,178
7853,163
7854,163
7855,170
7856,177
7857,183
7858,184
7859,183
7860,182
7861,185
7862,198
7863,220
7864,251
7865,281
7866,297
7867,303
7868,289
7869,295
7870,307
7871,324
7872,337
7873,339
7874,328
7875,298
7876,246
7877,174
7878,103
7879,35
7880,-14
7881,-36
7882,-44
7883,-37
7884,-9
7885,31
7886,68
7887,88
7888,91
7889,74
7890,48
7891,26
7892,15
7893,16
7894,25
7895,37
7896,51
7897,62
7898,60
7899,53
7900,51
7901,56
7902,70
7903,86
7904,99
7905,109
7906,111
7907,107
7908,104
7909,101
7910,93
7911,89
7912,113
7913,182
7914,282
7915,388
7916,472
7917,504
7918,456
7919,331
7920,165
7921,-11
7922,-161
7923,-237
7924,-218
7925,-121
7926,9
7927,124
7928,200
7929,223
7930,196
7931,145
7932,90
7933,35
7934,-32
7935,-42
7936,-43
7937,-44
7938,-50
7939,-54
7940,-48
7941,-29
7942,6
7943,47
7944,87
7945,119
7946,141
7947,150
7948,149
7949,134
7950,111
7951,92
7952,81
7953,80
7954,88
7955,99
7956,108
7957,108
7958,97
7959,98
7960,118
7961,154
7962,208
7963,269
7964,309
7965,313
7966,276
7967,276
7968,102
7969,0
7970,-85
7971,-118
7972,-109
7973,-71
7974,4
7975,96
7976,177
7977,233
7978,257
7979,246
7980,200
7981,129
7982,56
7983,7
7984,-18
7985,-22
7986,2
7987,35
7988,64
7989,80
7990,86
7991,94
7992,89
7993,69
7994,60
7995,69
7996,101
7997,155
7998,216
7999,261
8000,226
8001,147
8002,70
8003,20
8004,25
8005,83
8006,161
8007,211
8008,198
8009,123
8010,8
8011,-117
8012,-212
8013,-242
8014,-203
8015,-117
8016,-15
8017,62
8018,105
8019,114
8020,101
8021,84
8022,71
8023,57
8024,50
8025,51
8026,54
8027,51
8028,46
8029,40
8030,36
8031,31
8032,36
8033,62
8034,84
8035,113
8036,135
8037,164
8038,215
8039,285
8040,366
8041,444
8042,498
8043,514
8044,491
8045,428
8046,342
8047,249
8048,155
8049,90
8050,61
8051,43
8052,33
8053,23
8054,5
8055,-20
8056,-51
8057,-74
8058,-88
8059,-90
8060,-72
8061,-27
8062,22
8063,65
8064,117
8065,124
8066,128
8067,126
8068,127
8069,130
8070,129
8071,129
8072,126
8073,111
8074,91
8075,76
8076,67
8077,67
8078,73
8079,79
8080,85
8081,88
8082,89
8083,88
8084,85
8085,83
8086,86
8087,92
8088,99
8089,106
8090,108
8091,110
8092,115
8093,120
8094,128
8095,141
8096,161
8097,200
8098,210
8099,206
8100,188
8101,160
8102,136
8103,125
8104,130
8105,144
8106,161
8107,173
8108,173
8109,175
8110,154
8111,119
8112,77
8113,37
8114,11
8115,3
8116,9
8117,16
8118,22
8119,24
8120,21
8121,20
8122,20
8123,17
8124,19
8125,30
8126,46
8127,64
8128,83
8129,94
8130,99
8131,77
8132,53
8133,30
8134,7
8135,-6
8136,0
8137,19
8138,46
8139,79
8140,110
8141,134
8142,149
8143,153
8144,144
8145,123
8146,99
8147,79
8148,72
8149,75
8150,84
8151,97
8152,106
8153,111
8154,114
8155,109
8156,94
8157,78
8158,62
8159,45
8160,32
8161,21
8162,13
8163,7
8164,5
8165,21
8166,40
8167,56
8168,74
8169,83
8170,75
8171,52
8172,18
8173,-24
8174,-61
8175,-84
8176,-93
8177,-84
8178,-62
8179,-45
8180,-33
8181,-29
8182,-37
8183,-51
8184,-68
8185,-91
8186,-112
8187,-126
8188,-139
8189,-142
8190,-133
8191,-125
8192,-118
8193,-100
8194,-76
8195,-50
8196,-8
8197,-11
8198,-35
8199,-86
8200,-148
8201,-186
8202,-190
8203,-157
8204,-84
8205,2
8206,66
8207,88
8208,61
8209,-3
8210,-89
8211,-170
8212,-221
8213,-231
8214,-215
8215,-180
8216,-130
8217,-75
8218,-25
8219,17
8220,48
8221,57
8222,45
8223,13
8224,-36
8225,-99
8226,-158
8227,-203
8228,-228
8229,-211
8230,-165
8231,-111
8232,-63
8233,-33
8234,-34
8235,-71
8236,-130
8237,-186
8238,-224
8239,-236
8240,-212
8241,-162
8242,-102
8243,-62
8244,-55
8245,-72
8246,-86
8247,-66
8248,-3
8249,85
8250,85
8251,164
8252,207
8253,191
8254,109
8255,-19
8256,-165
8257,-290
8258,-354
8259,-348
8260,-284
8261,-105
8262,-43
8263,-5
8264,8
8265,-1
8266,-11
8267,-7
8268,6
8269,33
8270,66
8271,84
8272,85
8273,61
8274,14
8275,-32
8276,-68
8277,-88
8278,-82
8279,-58
8280,-29
8281,-5
8282,4
8283,1
8284,-5
8285,-19
8286,-35
8287,-44
8288,-51
8289,-63
8290,-79
8291,-90
8292,-95
8293,-103
8294,-104
8295,-82
8296,-56
8297,-20
8298,17
8299,46
8300,54
8301,30
8302,-24
8303,-93
8304,-160
8305,-207
8306,-230
8307,-225
8308,-193
8309,-155
8310,-125
8311,-114
8312,-125
8313,-158
8314,-199
8315,-231
8316,-249
8317,-259
8318,-260
8319,-249
8320,-224
8321,-187
8322,-137
8323,-85
8324,-39
8325,-9
8326,4
8327,-5
8328,-88
8329,-134
8330,-171
8331,-183
8332,-169
8333,-138
8334,-97
8335,-51
8336,-3
8337,39
8338,79
8339,115
8340,142
8341,164
8342,181
8343,183
8344,175
8345,162
8346,146
8347,124
8348,86
8349,29
8350,-37
8351,-110
8352,-192
8353,-262
8354,-311
8355,-353
8356,-382
8357,-387
8358,-382
8359,-378
8360,-374
8361,-293
8362,-221
8363,-153
8364,-96
8365,-62
8366,-65
8367,-94
8368,-130
8369,-171
8370,-207
8371,-221
8372,-202
8373,-165
8374,-121
8375,-75
8376,-34
8377,-10
8378,-6
8379,-18
8380,-39
8381,-64
8382,-88
8383,-101
8384,-97
8385,-82
8386,-65
8387,-50
8388,-45
8389,-54
8390,-69
8391,-78
8392,-80
8393,-80
8394,-80
8395,-21
8396,9
8397,39
8398,58
8399,70
8400,81
8401,81
8402,75
8403,76
8404,85
8405,99
8406,111
8407,118
8408,129
8409,140
8410,144
8411,144
8412,132
8413,95
8414,43
8415,-8
8416,-53
8417,-94
8418,-123
8419,-128
8420,-102
8421,-56
8422,-1
8423,52
8424,90
8425,100
8426,88
8427,58
8428,-23
8429,-55
8430,-65
8431,-50
8432,-18
8433,23
8434,61
8435,82
8436,86
8437,84
8438,75
8439,68
8440,63
8441,72
8442,91
8443,117
8444,158
8445,212
8446,279
8447,361
8448,436
8449,493
8450,511
8451,471
8452,371
8453,245
8454,118
8455,-2
8456,-86
8457,-127
8458,-128
8459,-98
8460,-61
8461,-24
8462,25
8463,28
8464,27
8465,29
8466,19
8467,4
8468,-1
8469,-2
8470,1
8471,6
8472,-1
8473,-15
8474,-34
8475,-56
8476,-69
8477,-73
8478,-76
8479,-75
8480,-71
8481,-81
8482,-92
8483,-91
8484,-81
8485,-54
8486,-10
8487,33
8488,75
8489,96
8490,81
8491,51
8492,21
8493,-9
8494,-26
8495,-24
8496,-36
8497,-49
8498,-51
8499,-47
8500,-34
8501,-23
8502,-21
8503,-32
8504,-67
8505,-119
8506,-171
8507,-208
8508,-219
8509,-202
8510,-152
8511,-82
8512,-4
8513,70
8514,123
8515,147
8516,132
8517,83
8518,21
8519,-35
8520,-73
8521,-81
8522,-51
8523,-3
8524,30
8525,34
8526,9
8527,-76
8528,-111
8529,-121
8530,-107
8531,-73
8532,-19
8533,39
8534,85
8535,85
8536,107
8537,101
8538,65
8539,6
8540,-62
8541,-127
8542,-176
8543,-190
8544,-168
8545,-126
8546,-85
8547,-50
8548,-23
8549,-7
8550,1
8551,1
8552,-7
8553,-18
8554,-28
8555,-36
8556,-34
8557,-24
8558,-22
8559,-20
8560,-5
8561,36
8562,59
8563,75
8564,79
8565,75
8566,67
8567,59
8568,52
8569,40
8570,36
8571,41
8572,40
8573,38
8574,39
8575,39
8576,36
8577,28
8578,16
8579,-7
8580,-44
8581,-90
8582,-125
8583,-141
8584,-132
8585,-93
8586,-43
8587,0
8588,16
8589,1
8590,-32
8591,-73
8592,-101
8593,-99
8594,-69
8595,33
8596,57
8597,40
8598,-12
8599,-85
8600,-160
8601,-212
8602,-215
8603,-172
8604,-98
8605,-15
8606,65
8607,129
8608,173
8609,193
8610,188
8611,157
8612,96
8613,20
8614,-41
8615,-92
8616,-138
8617,-151
8618,-136
8619,-102
8620,-58
8621,-9
8622,45
8623,101
8624,147
8625,174
8626,155
8627,84
8628,-17
8629,-222
8630,-278
8631,-259
8632,-170
8633,-31
8634,121
8635,253
8636,341
8637,367
8638,345
8639,298
8640,231
8641,149
8642,76
8643,50
8644,74
8645,134
8646,212
8647,267
8648,260
8649,179
8650,41
8651,-143
8652,-344
8653,-499
8654,-559
8655,-524
8656,-434
8657,-309
8658,-149
8659,11
8660,156
8661,299
8662,402
8663,326
8664,177
8665,0
8666,-173
8667,-319
8668,-390
8669,-364
8670,-285
8671,-193
8672,-108
8673,-60
8674,-48
8675,-41
8676,-33
8677,-33
8678,-24
8679,-2
8680,23
8681,43
8682,60
8683,74
8684,81
8685,85
8686,86
8687,84
8688,78
8689,66
8690,52
8691,34
8692,12
8693,-8
8694,-24
8695,-33
8696,-29
8697,-2
8698,2
8699,-2
8700,-9
8701,-14
8702,-21
8703,-17
8704,1
8705,30
8706,64
8707,99
8708,131
8709,154
8710,169
8711,182
8712,193
8713,192
8714,182
8715,170
8716,156
8717,141
8718,134
8719,138
8720,154
8721,174
8722,193
8723,212
8724,222
8725,218
8726,207
8727,196
8728,194
8729,198
8730,211
8731,210
8732,193
8733,163
8734,122
8735,73
8736,27
8737,0
8738,-10
8739,0
8740,23
8741,50
8742,84
8743,115
8744,143
8745,171
8746,201
8747,236
8748,277
8749,320
8750,350
8751,361
8752,345
8753,303
8754,240
8755,161
8756,75
8757,-3
8758,-62
8759,-98
8760,-112
8761,-109
8762,-96
8763,-81
8764,-58
8765,-54
8766,-55
8767,-61
8768,-67
8769,-72
8770,-82
8771,-96
8772,-115
8773,-139
8774,-162
8775,-181
8776,-194
8777,-199
8778,-193
8779,-183
8780,-175
8781,-172
8782,-181
8783,-205
8784,-240
8785,-279
8786,-315
8787,-343
8788,-359
8789,-358
8790,-342
8791,-319
8792,-295
8793,-271
8794,-251
8795,-238
8796,-231
8797,-219
8798,-221
8799,-226
8800,-232
8801,-236
8802,-240
8803,-241
8804,-237
8805,-230
8806,-224
8807,-215
8808,-201
8809,-187
8810,-172
8811,-163
8812,-162
8813,-168
8814,-185
8815,-211
8816,-234
8817,-248
8818,-251
8819,-251
8820,-241
8821,-217
8822,-188
8823,-165
8824,-155
8825,-156
8826,-165
8827,-179
8828,-193
8829,-202
8830,-202
8831,-204
8832,-201
8833,-191
8834,-177
8835,-159
8836,-134
8837,-103
8838,-74
8839,-62
8840,-71
8841,-92
8842,-119
8843,-140
8844,-147
8845,-141
8846,-123
8847,-98
8848,-76
8849,-55
8850,-39
8851,-35
8852,-35
8853,-29
8854,-18
8855,-3
8856,11
8857,22
8858,35
8859,50
8860,65
8861,79
8862,92
8863,121
8864,132
8865,142
8866,149
8867,149
8868,153
8869,166
8870,188
8871,219
8872,250
8873,274
8874,287
8875,282
8876,260
8877,229
8878,197
8879,166
8880,142
8881,129
8882,118
8883,103
8884,90
8885,84
8886,85
8887,94
8888,105
8889,117
8890,127
8891,130
8892,132
8893,128
8894,120
8895,129
8896,230
8897,297
8898,354
8899,375
8900,345
8901,268
8902,165
8903,62
8904,-25
8905,-80
8906,-79
8907,-41
8908,5
8909,48
8910,77
8911,88
8912,87
8913,82
8914,80
8915,89
8916,101
8917,110
8918,125
8919,142
8920,156
8921,168
8922,163
8923,143
8924,125
8925,102
8926,82
8927,87
8928,91
8929,121
8930,225
8931,379
8932,561
8933,715
8934,796
8935,777
8936,656
8937,468
8938,270
8939,97
8940,-2
8941,7
8942,89
8943,171
8944,214
8945,192
8946,118
8947,31
8948,-33
8949,-63
8950,-53
8951,-6
8952,62
8953,133
8954,192
8955,228
8956,242
8957,240
8958,233
8959,236
8960,244
8961,263
8962,263
8963,274
8964,280
8965,284
8966,283
8967,279
8968,280
8969,285
8970,293
8971,302
8972,310
8973,320
8974,324
8975,325
8976,329
8977,340
8978,354
8979,361
8980,350
8981,347
8982,370
8983,418
8984,484
8985,551
8986,583
8987,557
8988,483
8989,373
8990,249
8991,138
8992,64
8993,59
8994,115
8995,269
8996,337
8997,383
8998,410
8999,426
9000,425
9001,397
9002,352
9003,299
9004,254
9005,233
9006,236
9007,258
9008,291
9009,317
9010,330
9011,330
9012,322
9013,310
9014,302
9015,301
9016,304
9017,310
9018,312
9019,311
9020,306
9021,305
9022,311
9023,330
9024,352
9025,365
9026,371
9027,367
9028,365
9029,372
9030,386
9031,400
9032,413
9033,420
9034,416
9035,398
9036,369
9037,337
9038,305
9039,273
9040,249
9041,229
9042,210
9043,197
9044,191
9045,193
9046,203
9047,211
9048,216
9049,220
9050,223
9051,228
9052,237
9053,249
9054,257
9055,265
9056,268
9057,264
9058,256
9059,224
9060,209
9061,198
9062,185
9063,171
9064,155
9065,129
9066,105
9067,103
9068,126
9069,164
9070,213
9071,247
9072,248
9073,208
9074,141
9075,70
9076,10
9077,-26
9078,-32
9079,-5
9080,28
9081,44
9082,40
9083,17
9084,-15
9085,-44
9086,-54
9087,-49
9088,-41
9089,-36
9090,-38
9091,-55
9092,-112
9093,-131
9094,-137
9095,-125
9096,-96
9097,-60
9098,-26
9099,-3
9100,10
9101,19
9102,23
9103,29
9104,29
9105,41
9106,50
9107,47
9108,32
9109,17
9110,3
9111,-9
9112,-11
9113,8
9114,36
9115,64
9116,91
9117,121
9118,150
9119,177
9120,195
9121,195
9122,163
9123,104
9124,39
9125,-99
9126,-158
9127,-193
9128,-205
9129,-201
9130,-185
9131,-168
9132,-159
9133,-150
9134,-132
9135,-112
9136,-101
9137,-90
9138,-68
9139,-38
9140,-3
9141,28
9142,53
9143,62
9144,50
9145,27
9146,2
9147,-28
9148,-60
9149,-83
9150,-96
9151,-99
9152,-91
9153,-73
9154,-44
9155,-10
9156,23
9157,49
9158,69
9159,62
9160,52
9161,41
9162,36
9163,32
9164,27
9165,24
9166,16
9167,8
9168,4
9169,4
9170,8
9171,15
9172,23
9173,26
9174,24
9175,15
9176,7
9177,6
9178,4
9179,5
9180,13
9181,20
9182,18
9183,11
9184,4
9185,-2
9186,-4
9187,-1
9188,4
9189,14
9190,18
9191,2
9192,-7
9193,-20
9194,-29
9195,-32
9196,-23
9197,-5
9198,15
9199,36
9200,51
9201,47
9202,31
9203,18
9204,12
9205,14
9206,25
9207,38
9208,55
9209,66
9210,67
9211,61
9212,48
9213,30
9214,21
9215,21
9216,23
9217,28
9218,36
9219,47
9220,64
9221,87
9222,111
9223,155
9224,168
9225,177
9226,183
9227,183
9228,179
9229,165
9230,139
9231,100
9232,49
9233,-8
9234,-68
9235,-127
9236,-183
9237,-226
9238,-255
9239,-274
9240,-283
9241,-282
9242,-276
9243,-267
9244,-253
9245,-232
9246,-232
9247,-209
9248,-185
9249,-165
9250,-145
9251,-127
9252,-115
9253,-106
9254,-98
9255,-91
9256,-84
9257,-73
9258,-70
9259,-69
9260,-72
9261,-75
9262,-73
9263,-69
9264,-65
9265,-68
9266,-77
9267,-91
9268,-107
9269,-117
9270,-119
9271,-113
9272,-100
9273,-81
9274,-61
9275,-47
9276,-44
9277,-52
9278,-66
9279,-73
9280,-76
9281,-75
9282,-71
9283,-68
9284,-67
9285,-68
9286,-71
9287,-77
9288,-87
9289,-105
9290,-108
9291,-111
9292,-112
9293,-112
9294,-111
9295,-110
9296,-107
9297,-101
9298,-90
9299,-78
9300,-63
9301,-47
9302,-29
9303,-14
9304,-6
9305,-6
9306,-8
9307,-12
9308,-15
9309,-17
9310,-18
9311,-19
9312,-18
9313,-19
9314,-22
9315,-15
9316,7
9317,48
9318,104
9319,153
9320,177
9321,131
9322,62
9323,-11
9324,-76
9325,-115
9326,-121
9327,-93
9328,-43
9329,7
9330,49
9331,84
9332,112
9333,132
9334,139
9335,136
9336,125
9337,104
9338,70
9339,34
9340,0
9341,-30
9342,-59
9343,-77
9344,-81
9345,-75
9346,-60
9347,-37
9348,-13
9349,3
9350,9
9351,9
9352,4
9353,-13
9354,-20
9355,-22
9356,-24
9357,-28
9358,-32
9359,-40
9360,-49
9361,-52
9362,-54
9363,-54
9364,-51
9365,-53
9366,-60
9367,-71
9368,-84
9369,-97
9370,-107
9371,-111
9372,-109
9373,-103
9374,-98
9375,-95
9376,-91
9377,-92
9378,-90
9379,-86
9380,-80
9381,-74
9382,-73
9383,-80
9384,-84
9385,-62
9386,-30
9387,-1
9388,-1
9389,17
9390,17
9391,-5
9392,-45
9393,-90
9394,-131
9395,-152
9396,-154
9397,-146
9398,-127
9399,-106
9400,-95
9401,-84
9402,-66
9403,-45
9404,-32
9405,-34
9406,-47
9407,-68
9408,-105
9409,-143
9410,-161
9411,-164
9412,-160
9413,-144
9414,-123
9415,-105
9416,-96
9417,-96
9418,-92
9419,-104
9420,-107
9421,-87
9422,-56
9423,-14
9424,35
9425,84
9426,123
9427,144
9428,146
9429,131
9430,94
9431,31
9432,-32
9433,-90
9434,-144
9435,-184
9436,-203
9437,-199
9438,-177
9439,-146
9440,-110
9441,-79
9442,-62
9443,-59
9444,-60
9445,-60
9446,-60
9447,-62
9448,-62
9449,-61
9450,-63
9451,-66
9452,-66
9453,-61
9454,-53
9455,-48
9456,-41
9457,-35
9458,-36
9459,-33
9460,-27
9461,-28
9462,-31
9463,-36
9464,-44
9465,-52
9466,-63
9467,-76
9468,-83
9469,-80
9470,-74
9471,-69
9472,-72
9473,-85
9474,-104
9475,-125
9476,-149
9477,-169
9478,-179
9479,-172
9480,-158
9481,-137
9482,-113
9483,-96
9484,-94
9485,-100
9486,-104
9487,-105
9488,-109
9489,-115
9490,-123
9491,-134
9492,-141
9493,-140
9494,-126
9495,-97
9496,-58
9497,-25
9498,-5
9499,2
9500,-1
9501,-9
9502,-12
9503,-9
9504,-2
9505,0
9506,-7
9507,-26
9508,-54
9509,-82
9510,-99
9511,-96
9512,-72
9513,-40
9514,-9
9515,10
9516,0
9517,-7
9518,-1
9519,19
9520,60
9521,112
9522,157
9523,182
9524,186
9525,173
9526,144
9527,111
9528,83
9529,52
9530,18
9531,18
9532,-8
9533,-29
9534,-43
9535,-45
9536,-40
9537,-38
9538,-52
9539,-90
9540,-154
9541,-234
9542,-316
9543,-375
9544,-397
9545,-383
9546,-345
9547,-291
9548,-238
9549,-177
9550,-169
9551,-160
9552,-132
9553,-88
9554,-33
9555,34
9556,92
9557,118
9558,107
9559,62
9560,-7
9561,-87
9562,-153
9563,-184
9564,-174
9565,-143
9566,-103
9567,-56
9568,-17
9569,-1
9570,3
9571,6
9572,-5
9573,-28
9574,-51
9575,-72
9576,-94
9577,-109
9578,-112
9579,-104
9580,-84
9581,-51
9582,-46
9583,-49
9584,-55
9585,-60
9586,-58
9587,-52
9588,-46
9589,-44
9590,-46
9591,-55
9592,-66
9593,-72
9594,-69
9595,-55
9596,-31
9597,-6
9598,17
9599,36
9600,43
9601,40
9602,32
9603,22
9604,13
9605,10
9606,12
9607,15
9608,16
9609,13
9610,9
9611,0
9612,-11
9613,-17
9614,-13
9615,-2
9616,16
9617,44
9618,77
9619,109
9620,135
9621,152
9622,154
9623,140
9624,117
9625,83
9626,42
9627,12
9628,5
9629,16
9630,46
9631,88
9632,127
9633,164
9634,193
9635,207
9636,210
9637,196
9638,169
9639,141
9640,111
9641,80
9642,55
9643,35
9644,23
9645,21
9646,29
9647,28
9648,22
9649,14
9650,6
9651,-2
9652,-1
9653,5
9654,13
9655,23
9656,34
9657,41
9658,41
9659,33
9660,20
9661,5
9662,-4
9663,-6
9664,-2
9665,7
9666,23
9667,35
9668,36
9669,27
9670,6
9671,-24
9672,-56
9673,-56
9674,-86
9675,-107
9676,-120
9677,-128
9678,-130
9679,-122
9680,-118
9681,-106
9682,-93
9683,-78
9684,-66
9685,-56
9686,-48
9687,-42
9688,-37
9689,-29
9690,-24
9691,-27
9692,-33
9693,-36
9694,-39
9695,-38
9696,-37
9697,-39
9698,-49
9699,-64
9700,-74
9701,-75
9702,-69
9703,-54
9704,-34
9705,-15
9706,-12
9707,-27
9708,-48
9709,-76
9710,-102
9711,-106
9712,-57
9713,-31
9714,-11
9715,2
9716,9
9717,8
9718,6
9719,2
9720,-8
9721,-25
9722,-41
9723,-55
9724,-67
9725,-72
9726,-64
9727,-38
9728,-5
9729,28
9730,58
9731,80
9732,90
9733,90
9734,84
9735,75
9736,68
9737,64
9738,62
9739,61
9740,55
9741,49
9742,42
9743,34
9744,19
9745,17
9746,14
9747,10
9748,6
9749,3
9750,2
9751,6
9752,13
9753,25
9754,39
9755,51
9756,59
9757,64
9758,65
9759,61
9760,56
9761,51
9762,47
9763,40
9764,30
9765,21
9766,11
9767,12
9768,34
9769,75
9770,125
9771,171
9772,201
9773,205
9774,179
9775,127
9776,2
9777,-42
9778,-59
9779,-52
9780,-34
9781,-15
9782,-1
9783,5
9784,4
9785,-4
9786,-15
9787,-20
9788,-22
9789,-21
9790,-9
9791,8
9792,31
9793,59
9794,84
9795,102
9796,114
9797,116
9798,113
9799,109
9800,96
9801,79
9802,64
9803,47
9804,26
9805,12
9806,3
9807,0
9808,6
9809,36
9810,47
9811,50
9812,46
9813,41
9814,35
9815,35
9816,29
9817,30
9818,34
9819,38
9820,47
9821,59
9822,72
9823,88
9824,105
9825,127
9826,149
9827,170
9828,194
9829,223
9830,255
9831,289
9832,317
9833,343
9834,370
9835,390
9836,392
9837,380
9838,346
9839,291
9840,221
9841,52
9842,-36
9843,-125
9844,-196
9845,-244
9846,-270
9847,-272
9848,-243
9849,-193
9850,-138
9851,-85
9852,-46
9853,-25
9854,-13
9855,-7
9856,1
9857,12
9858,26
9859,40
9860,51
9861,57
9862,59
9863,62
9864,66
9865,74
9866,82
9867,85
9868,86
9869,88
9870,89
9871,87
9872,82
9873,74
9874,46
9875,33
9876,26
9877,25
9878,34
9879,49
9880,65
9881,79
9882,89
9883,93
9884,95
9885,101
9886,108
9887,115
9888,122
9889,129
9890,133
9891,132
9892,127
9893,121
9894,114
9895,107
9896,99
9897,94
9898,101
9899,118
9900,142
9901,163
9902,180
9903,194
9904,202
9905,194
9906,181
9907,158
9908,127
9909,100
9910,76
9911,55
9912,40
9913,41
9914,59
9915,84
9916,107
9917,121
9918,129
9919,131
9920,126
9921,118
9922,114
9923,114
9924,117
9925,124
9926,136
9927,146
9928,152
9929,154
9930,151
9931,149
9932,146
9933,140
9934,142
9935,154
9936,170
9937,209
9938,221
9939,220
9940,207
9941,185
9942,160
9943,136
9944,116
9945,111
9946,119
9947,132
9948,147
9949,156
9950,157
9951,147
9952,130
9953,120
9954,119
9955,125
9956,138
9957,138
9958,152
9959,163
9960,165
9961,155
9962,137
9963,117
9964,93
9965,72
9966,57
9967,42
9968,22
9969,-1
9970,-28
9971,-31
9972,-7
9973,33
9974,76
9975,110
9976,129
9977,132
9978,119
9979,93
9980,61
9981,30
9982,11
9983,-2
9984,-16
9985,-25
9986,-29
9987,-29
9988,-22
9989,-11
9990,-2
9991,1
9992,1
9993,-2
9994,-7
9995,-9
9996,-11
9997,-9
9998,0
9999,13
10000,31
10001,51
10002,66
10003,85
10004,80
10005,72
10006,68
10007,64
10008,65
10009,79
10010,98
10011,111
10012,119
10013,118
10014,108
10015,85
10016,50
10017,19
10018,-5
10019,-26
10020,-38
10021,-35
10022,-22
10023,-9
10024,7
10025,24
10026,30
10027,35
10028,37
10029,35
10030,38
10031,48
10032,63
10033,85
10034,104
10035,118
10036,117
10037,111
10038,104
10039,97
10040,83
10041,68
10042,51
10043,30
10044,10
10045,-3
10046,-7
10047,0
10048,19
10049,39
10050,50
10051,53
10052,51
10053,45
10054,42
10055,42
10056,43
10057,47
10058,53
10059,54
10060,50
10061,46
10062,40
10063,38
10064,37
10065,27
10066,11
10067,0
10068,8
10069,27
10070,53
10071,74
10072,89
10073,91
10074,80
10075,57
10076,21
10077,-13
10078,-28
10079,-27
10080,-21
10081,-7
10082,15
10083,39
10084,60
10085,78
10086,86
10087,86
10088,80
10089,70
10090,57
10091,40
10092,16
10093,-5
10094,-20
10095,-19
10096,-3
10097,22
10098,51
10099,77
10100,94
10101,100
10102,98
10103,90
10104,81
10105,75
10106,74
10107,74
10108,72
10109,66
10110,57
10111,46
10112,37
10113,36
10114,43
10115,49
10116,53
10117,55
10118,51
10119,42
10120,30
10121,24
10122,21
10123,20
10124,20
10125,20
10126,14
10127,8
10128,9
10129,18
10130,31
10131,52
10132,79
10133,114
10134,111
10135,95
10136,69
10137,36
10138,9
10139,-8
10140,-23
10141,-34
10142,-33
10143,-24
10144,-13
10145,-1
10146,10
10147,21
10148,28
10149,34
10150,41
10151,48
10152,58
10153,80
10154,107
10155,136
10156,172
10157,213
10158,255
10159,292
10160,318
10161,334
10162,339
10163,330
10164,312
10165,287
10166,182
10167,111
10168,35
10169,-46
10170,-122
10171,-183
10172,-221
10173,-232
10174,-222
10175,-197
10176,-167
10177,-139
10178,-112
10179,-85
10180,-56
10181,-31
10182,-6
10183,16
10184,31
10185,42
10186,51
10187,60
10188,71
10189,81
10190,91
10191,100
10192,97
10193,84
10194,65
10195,44
10196,21
10197,4
10198,-4
10199,-3
10200,-4
10201,-5
10202,-2
10203,0
10204,0
10205,4
10206,10
10207,12
10208,12
10209,14
10210,16
10211,18
10212,18
10213,24
10214,42
10215,66
10216,93
10217,118
10218,135
10219,140
10220,134
10221,121
10222,104
10223,83
10224,65
10225,54
10226,49
10227,50
10228,58
10229,76
10230,121
10231,141
10232,149
10233,139
10234,118
10235,93
10236,68
10237,52
10238,50
10239,62
10240,77
10241,88
10242,88
10243,96
10244,100
10245,102
10246,112
10247,132
10248,155
10249,175
10250,184
10251,180
10252,164
10253,138
10254,108
10255,79
10256,52
10257,33
10258,27
10259,28
10260,35
10261,49
10262,59
10263,51
10264,42
10265,26
10266,14
10267,11
10268,20
10269,38
10270,51
10271,60
10272,59
10273,39
10274,17
10275,11
10276,27
10277,58
10278,102
10279,146
10280,177
10281,186
10282,175
10283,153
10284,125
10285,98
10286,88
10287,96
10288,107
10289,117
10290,126
10291,134
10292,139
10293,142
10294,150
10295,148
10296,142
10297,132
10298,122
10299,110
10300,97
10301,92
10302,89
10303,85
10304,84
10305,81
10306,78
10307,74
10308,69
10309,66
10310,63
10311,59
10312,57
10313,57
10314,57
10315,58
10316,56
10317,52
10318,46
10319,38
10320,31
10321,28
10322,29
10323,36
10324,45
10325,45
10326,46
10327,49
10328,48
10329,47
10330,48
10331,43
10332,31
10333,15
10334,-6
10335,-29
10336,-49
10337,-47
10338,-15
10339,39
10340,98
10341,147
10342,167
10343,150
10344,99
10345,26
10346,-45
10347,-103
10348,-140
10349,-151
10350,-146
10351,-134
10352,-124
10353,-119
10354,-114
10355,-99
10356,-73
10357,-41
10358,20
10359,35
10360,40
10361,37
10362,33
10363,28
10364,22
10365,14
10366,8
10367,5
10368,5
10369,5
10370,5
10371,6
10372,10
10373,14
10374,18
10375,25
10376,35
10377,44
10378,48
10379,46
10380,46
10381,49
10382,49
10383,54
10384,54
10385,71
10386,90
10387,104
10388,113
10389,114
10390,101
10391,37
10392,7
10393,-18
10394,-39
10395,-42
10396,-25
10397,7
10398,46
10399,87
10400,119
10401,133
10402,125
10403,103
10404,72
10405,37
10406,15
10407,7
10408,11
10409,23
10410,39
10411,48
10412,53
10413,55
10414,54
10415,53
10416,56
10417,58
10418,57
10419,58
10420,62
10421,70
10422,78
10423,97
10424,103
10425,96
10426,83
10427,69
10428,53
10429,42
10430,44
10431,56
10432,69
10433,77
10434,78
10435,78
10436,82
10437,93
10438,115
10439,147
10440,177
10441,192
10442,185
10443,159
10444,120
10445,80
10446,49
10447,39
10448,51
10449,70
10450,86
10451,95
10452,91
10453,72
10454,42
10455,47
10456,65
10457,89
10458,105
10459,109
10460,108
10461,105
10462,107
10463,113
10464,117
10465,113
10466,95
10467,66
10468,30
10469,-5
10470,-38
10471,-51
10472,-40
10473,-13
10474,13
10475,30
10476,29
10477,21
10478,16
10479,27
10480,48
10481,75
10482,108
10483,134
10484,140
10485,125
10486,36
10487,-10
10488,-38
10489,-39
10490,-14
10491,21
10492,58
10493,90
10494,110
10495,119
10496,122
10497,129
10498,146
10499,170
10500,192
10501,208
10502,217
10503,213
10504,195
10505,166
10506,131
10507,94
10508,51
10509,2
10510,-50
10511,-104
10512,-152
10513,-188
10514,-211
10515,-224
10516,-227
10517,-224
10518,-214
10519,-180
10520,-161
10521,-140
10522,-116
10523,-91
10524,-76
10525,-71
10526,-71
10527,-73
10528,-75
10529,-76
10530,-74
10531,-69
10532,-64
10533,-62
10534,-66
10535,-74
10536,-87
10537,-102
10538,-109
10539,-108
10540,-95
10541,-74
10542,-52
10543,-33
10544,-16
10545,-5
10546,3
10547,8
10548,8
10549,2
10550,-5
10551,-15
10552,-31
10553,-65
10554,-65
10555,-53
10556,-37
10557,-21
10558,-7
10559,0
10560,1
10561,-1
10562,0
10563,-5
10564,-15
10565,-19
10566,-21
10567,-28
10568,-40
10569,-50
10570,-51
10571,-39
10572,-22
10573,-4
10574,10
10575,21
10576,26
10577,26
10578,21
10579,8
10580,-6
10581,-23
10582,-39
10583,-51
10584,-61
10585,-73
10586,-80
10587,-80
10588,-72
10589,-66
10590,-60
10591,-51
10592,-45
10593,-40
10594,-29
10595,-14
10596,2
10597,20
10598,33
10599,34
10600,26
10601,14
10602,3
10603,3
10604,14
10605,31
10606,53
10607,72
10608,79
10609,76
10610,66
10611,46
10612,32
10613,29
10614,31
10615,36
10616,43
10617,47
10618,45
10619,38
10620,30
10621,22
10622,13
10623,5
10624,2
10625,-1
10626,-4
10627,-7
10628,-9
10629,-7
10630,-4
10631,-3
10632,-3
10633,0
10634,12
10635,34
10636,62
10637,88
10638,97
10639,81
10640,37
10641,-23
10642,-89
10643,-144
10644,-177
10645,-180
10646,-156
10647,-114
10648,-74
10649,-49
10650,-37
10651,-38
10652,-54
10653,-58
10654,-61
10655,-59
10656,-54
10657,-43
10658,-33
10659,-26
10660,-22
10661,-20
10662,-25
10663,-33
10664,-42
10665,-52
10666,-64
10667,-73
10668,-77
10669,-77
10670,-79
10671,-80
10672,-77
10673,-72
10674,-65
10675,-55
10676,-40
10677,-25
10678,-12
10679,-4
10680,3
10681,9
10682,10
10683,12
10684,12
10685,3
10686,-14
10687,-21
10688,-14
10689,8
10690,43
10691,88
10692,130
10693,153
10694,151
10695,128
10696,89
10697,48
10698,11
10699,-14
10700,-23
10701,-24
10702,-25
10703,-24
10704,-21
10705,-19
10706,-16
10707,-5
10708,9
10709,24
10710,36
10711,47
10712,55
10713,58
10714,57
10715,59
10716,59
10717,58
10718,56
10719,54
10720,54
10721,55
10722,56
10723,55
10724,55
10725,57
10726,59
10727,64
10728,74
10729,84
10730,90
10731,88
10732,77
10733,61
10734,39
10735,14
10736,-3
10737,-12
10738,-16
10739,-15
10740,-11
10741,-10
10742,-15
10743,-23
10744,-26
10745,-29
10746,-33
10747,-22
10748,9
10749,59
10750,113
10751,158
10752,179
10753,134
10754,84
10755,32
10756,-11
10757,-30
10758,-16
10759,16
10760,53
10761,85
10762,107
10763,114
10764,110
10765,100
10766,86
10767,66
10768,47
10769,36
10770,33
10771,39
10772,52
10773,66
10774,84
10775,96
10776,101
10777,101
10778,102
10779,99
10780,92
10781,85
10782,78
10783,72
10784,64
10785,59
10786,61
10787,67
10788,79
10789,94
10790,110
10791,118
10792,126
10793,132
10794,133
10795,132
10796,129
10797,119
10798,108
10799,101
10800,91
10801,81
10802,76
10803,75
10804,77
10805,77
10806,81
10807,79
10808,69
10809,47
10810,26
10811,26
10812,12
10813,1
10814,-8
10815,-9
10816,-4
10817,-1
10818,-3
10819,-6
10820,2
10821,10
10822,26
10823,53
10824,79
10825,102
10826,119
10827,124
10828,110
10829,79
10830,48
10831,22
10832,3
10833,3
10834,19
10835,48
10836,81
10837,106
10838,119
10839,118
10840,102
10841,89
10842,91
10843,103
10844,121
10845,147
10846,170
10847,181
10848,178
10849,161
10850,136
10851,109
10852,84
10853,71
10854,76
10855,85
10856,98
10857,106
10858,107
10859,106
10860,101
10861,98
10862,102
10863,114
10864,136
10865,167
10866,203
10867,241
10868,274
10869,298
10870,316
10871,333
10872,346
10873,358
10874,372
10875,381
10876,385
10877,378
10878,356
10879,322
10880,278
10881,224
10882,165
10883,103
10884,42
10885,-11
10886,-88
10887,-108
10888,-115
10889,-109
10890,-92
10891,-65
10892,-40
10893,-21
10894,-7
10895,5
10896,13
10897,12
10898,14
10899,27
10900,50
10901,79
10902,111
10903,137
10904,147
10905,141
10906,123
10907,100
10908,73
10909,46
10910,33
10911,36
10912,47
10913,64
10914,81
10915,94
10916,100
10917,103
10918,103
10919,108
10920,115
10921,126
10922,137
10923,145
10924,149
10925,141
10926,126
10927,112
10928,103
10929,90
10930,82
10931,88
10932,98
10933,112
10934,133
10935,154
10936,175
10937,183
10938,178
10939,167
10940,146
10941,111
10942,82
10943,66
10944,54
10945,49
10946,56
10947,72
10948,95
10949,115
10950,128
10951,132
10952,101
10953,101
10954,80
10955,68
10956,62
10957,66
10958,80
10959,95
10960,109
10961,117
10962,117
10963,117
10964,118
10965,123
10966,135
10967,151
10968,163
10969,172
10970,174
10971,169
10972,161
10973,151
10974,141
10975,135
10976,133
10977,134
10978,142
10979,151
10980,161
10981,171
10982,180
10983,190
10984,198
10985,204
10986,205
10987,203
10988,199
10989,192
10990,189
10991,186
10992,177
10993,160
10994,147
10995,156
10996,187
10997,237
10998,303
10999,367
11000,404
11001,400
11002,361
11003,297
11004,217
11005,138
11006,85
11007,64
11008,61
11009,64
11010,72
11011,75
11012,73
11013,70
11014,68
11015,72
11016,78
11017,79
11018,81
11019,79
11020,76
11021,76
11022,79
11023,82
11024,85
11025,85
11026,84
11027,82
11028,77
11029,76
11030,76
11031,77
11032,77
11033,79
11034,78
11035,72
11036,65
11037,62
11038,64
11039,73
11040,85
11041,98
11042,110
11043,117
11044,123
11045,125
11046,119
11047,114
11048,112
11049,115
11050,125
11051,141
11052,160
11053,155
11054,140
11055,126
11056,114
11057,103
11058,107
11059,119
11060,133
11061,151
11062,165
11063,165
11064,151
11065,136
11066,130
11067,133
11068,149
11069,174
11070,200
11071,220
11072,226
11073,218
11074,195
11075,155
11076,110
11077,76
11078,54
11079,41
11080,39
11081,45
11082,57
11083,71
11084,86
11085,105
11086,110
11087,114
11088,116
11089,121
11090,128
11091,135
11092,140
11093,139
11094,133
11095,133
11096,124
11097,111
11098,101
11099,97
11100,96
11101,95
11102,99
11103,106
11104,114
11105,123
11106,133
11107,144
11108,152
11109,156
11110,155
11111,150
11112,142
11113,135
11114,134
11115,140
11116,150
11117,152
11118,149
11119,120
11120,101
11121,86
11122,79
11123,80
11124,88
11125,98
11126,109
11127,113
11128,111
11129,105
11130,101
11131,101
11132,101
11133,99
11134,95
11135,90
11136,76
11137,57
11138,43
11139,38
11140,44
11141,56
11142,75
11143,92
11144,102
11145,106
11146,109
11147,114
11148,117
11149,122
11150,131
11151,136
11152,121
11153,107
11154,94
11155,85
11156,84
11157,87
11158,91
11159,94
11160,95
11161,93
11162,88
11163,88
11164,98
11165,112
11166,129
11167,145
11168,155
11169,156
11170,146
11171,127
11172,111
11173,103
11174,104
11175,118
11176,140
11177,161
11178,176
11179,188
11180,194
11181,197
11182,200
11183,203
11184,210
11185,207
11186,203
11187,201
11188,205
11189,213
11190,225
11191,231
11192,226
11193,218
11194,208
11195,192
11196,183
11197,183
11198,188
11199,194
11200,197
11201,192
11202,177
11203,154
11204,126
11205,101
11206,79
11207,57
11208,40
11209,24
11210,6
11211,-3
11212,-5
11213,0
11214,13
11215,28
11216,55
11217,63
11218,66
11219,68
11220,66
11221,61
11222,61
11223,69
11224,81
11225,100
11226,124
11227,147
11228,163
11229,167
11230,154
11231,127
11232,88
11233,49
11234,16
11235,-2
11236,-9
11237,-3
11238,-3
11239,10
11240,28
11241,50
11242,69
11243,81
11244,93
11245,114
11246,139
11247,169
11248,205
11249,239
11250,274
11251,277
11252,276
11253,272
11254,269
11255,277
11256,296
11257,311
11258,319
11259,312
11260,284
11261,234
11262,173
11263,102
11264,24
11265,-47
11266,-113
11267,-165
11268,-200
11269,-219
11270,-223
11271,-211
11272,-189
11273,-157
11274,-115
11275,-74
11276,-39
11277,-10
11278,14
11279,26
11280,21
11281,19
11282,81
11283,139
11284,209
11285,265
11286,283
11287,251
11288,182
11289,97
11290,7
11291,-63
11292,-91
11293,-81
11294,-51
11295,-10
11296,31
11297,64
11298,88
11299,103
11300,114
11301,114
11302,104
11303,87
11304,70
11305,54
11306,51
11307,60
11308,73
11309,88
11310,99
11311,102
11312,100
11313,97
11314,95
11315,89
11316,84
11317,79
11318,75
11319,77
11320,86
11321,98
11322,111
11323,120
11324,126
11325,129
11326,130
11327,127
11328,123
11329,118
11330,115
11331,116
11332,115
11333,113
11334,112
11335,107
11336,99
11337,91
11338,79
11339,61
11340,44
11341,37
11342,46
11343,70
11344,100
11345,134
11346,165
11347,177
11348,161
11349,145
11350,126
11351,112
11352,113
11353,123
11354,131
11355,145
11356,169
11357,197
11358,224
11359,248
11360,267
11361,270
11362,252
11363,222
11364,195
11365,172
11366,155
11367,150
11368,151
11369,146
11370,134
11371,123
11372,117
11373,118
11374,127
11375,144
11376,157
11377,158
11378,152
11379,138
11380,123
11381,114
11382,114
11383,119
11384,119
11385,111
11386,102
11387,94
11388,87
11389,85
11390,87
11391,87
11392,90
11393,91
11394,83
11395,72
11396,59
11397,46
11398,33
11399,22
11400,13
11401,3
11402,-8
11403,-13
11404,-11
11405,-10
11406,-12
11407,-13
11408,-13
11409,-12
11410,-11
11411,-6
11412,0
11413,1
11414,0
11415,-3
11416,-6
11417,-12
11418,-23
11419,-27
11420,-25
11421,-18
11422,-3
11423,15
11424,29
11425,32
11426,23
11427,2
11428,-20
11429,-43
11430,-59
11431,-59
11432,-48
11433,-34
11434,-18
11435,-7
11436,-4
11437,-2
11438,0
11439,1
11440,6
11441,12
11442,18
11443,27
11444,35
11445,38
11446,37
11447,32
11448,11
11449,-3
11450,-16
11451,-23
11452,-28
11453,-30
11454,-28
11455,-26
11456,-25
11457,-27
11458,-32
11459,-36
11460,-38
11461,-21
11462,17
11463,75
11464,138
11465,193
11466,225
11467,222
11468,180
11469,111
11470,35
11471,-29
11472,-69
11473,-78
11474,-62
11475,-37
11476,-12
11477,7
11478,18
11479,22
11480,23
11481,22
11482,18
11483,13
11484,6
11485,0
11486,-5
11487,-9
11488,-12
11489,-17
11490,-23
11491,-30
11492,-42
11493,-56
11494,-64
11495,-68
11496,-70
11497,-64
11498,-53
11499,-43
11500,-36
11501,-35
11502,-39
11503,-44
11504,-49
11505,-51
11506,-44
11507,-31
11508,-18
11509,-6
11510,-1
11511,-8
11512,-20
11513,-27
11514,-2
11515,28
11516,60
11517,80
11518,84
11519,71
11520,39
11521,0
11522,0
11523,-34
11524,-58
11525,-67
11526,-67
11527,-67
11528,-71
11529,-79
11530,-94
11531,-105
11532,-108
11533,-109
11534,-102
11535,-90
11536,-77
11537,-60
11538,-39
11539,-16
11540,6
11541,24
11542,32
11543,27
11544,10
11545,-15
11546,-43
11547,-66
11548,-65
11549,-38
11550,-5
11551,27
11552,54
11553,69
11554,66
11555,49
11556,23
11557,0
11558,-16
11559,-26
11560,-24
11561,-17
11562,-18
11563,-21
11564,-18
11565,-12
11566,-4
11567,4
11568,13
11569,18
11570,15
11571,9
11572,7
11573,9
11574,10
11575,15
11576,15
11577,1
11578,-21
11579,-49
11580,-72
11581,-82
11582,-64
11583,-42
11584,-28
11585,-22
11586,-24
11587,-32
11588,-40
11589,-43
11590,-45
11591,-42
11592,-34
11593,-21
11594,-9
11595,2
11596,12
11597,20
11598,21
11599,16
11600,7
11601,-4
11602,-16
11603,-24
11604,-26
11605,-22
11606,-14
11607,-3
11608,6
11609,9
11610,4
11611,0
11612,-1
11613,7
11614,91
11615,152
11616,212
11617,261
11618,281
11619,267
11620,232
11621,190
11622,156
11623,131
11624,117
11625,109
11626,89
11627,52
11628,4
11629,-52
11630,-112
11631,-165
11632,-199
11633,-218
11634,-227
11635,-229
11636,-227
11637,-217
11638,-195
11639,-156
11640,-106
11641,-54
11642,-14
11643,10
11644,18
11645,8
11646,-7
11647,-23
11648,-41
11649,-35
11650,-27
11651,-20
11652,-14
11653,-10
11654,-8
11655,-5
11656,1
11657,6
11658,10
11659,13
11660,15
11661,18
11662,24
11663,32
11664,32
11665,39
11666,44
11667,46
11668,46
11669,46
11670,47
11671,49
11672,52
11673,54
11674,56
11675,59
11676,60
11677,56
11678,53
11679,51
11680,47
11681,70
11682,93
11683,120
11684,143
11685,155
11686,150
11687,132
11688,107
11689,83
11690,60
11691,46
11692,45
11693,49
11694,47
11695,40
11696,29
11697,16
11698,7
11699,8
11700,16
11701,25
11702,40
11703,61
11704,88
11705,113
11706,131
11707,145
11708,149
11709,141
11710,124
11711,103
11712,79
11713,62
11714,55
11715,58
11716,60
11717,60
11718,62
11719,61
11720,60
11721,64
11722,71
11723,83
11724,98
11725,114
11726,122
11727,121
11728,115
11729,106
11730,94
11731,79
11732,66
11733,62
11734,70
11735,87
11736,108
11737,131
11738,147
11739,150
11740,143
11741,127
11742,103
11743,75
11744,51
11745,40
11746,42
11747,52
11748,61
11749,84
11750,98
11751,111
11752,123
11753,129
11754,129
11755,121
11756,108
11757,89
11758,69
11759,45
11760,24
11761,9
11762,0
11763,-3
11764,-3
11765,-1
11766,5
11767,10
11768,11
11769,10
11770,6
11771,2
11772,0
11773,2
11774,6
11775,12
11776,18
11777,23
11778,22
11779,17
11780,10
11781,1
11782,-16
11783,-28
11784,-34
11785,-31
11786,-19
11787,-1
11788,18
11789,29
11790,29
11791,18
11792,0
11793,-15
11794,-20
11795,-18
11796,-6
11797,6
11798,9
11799,1
11800,-16
11801,-39
11802,-57
11803,-64
11804,-58
11805,-43
11806,-26
11807,-26
11808,-13
11809,-6
11810,-9
11811,-16
11812,-24
11813,-31
11814,-34
11815,-32
11816,-27
11817,-13
11818,-8
11819,-7
11820,-9
11821,-14
11822,-21
11823,-27
11824,-28
11825,-28
11826,-24
11827,-24
11828,-24
11829,-21
11830,-22
11831,-28
11832,-28
11833,-31
11834,-32
11835,-23
11836,-2
11837,24
11838,59
11839,91
11840,111
11841,116
11842,102
11843,71
11844,37
11845,2
11846,-27
11847,-38
11848,-34
11849,-25
11850,-12
11851,11
11852,24
11853,35
11854,47
11855,53
11856,52
11857,41
11858,17
11859,-14
11860,-42
11861,-61
11862,-64
11863,-44
11864,-14
11865,11
11866,32
11867,37
11868,30
11869,12
11870,-9
11871,-25
11872,-29
11873,-28
11874,-20
11875,-10
11876,-8
11877,-14
11878,-22
11879,-32
11880,-32
11881,-20
11882,-1
11883,20
11884,37
11885,26
11886,0
11887,-38
11888,-73
11889,-95
11890,-101
11891,-88
11892,-66
11893,-41
11894,-20
11895,-3
11896,14
11897,37
11898,64
11899,88
11900,105
11901,107
11902,90
11903,60
11904,29
11905,2
11906,-14
11907,-19
11908,-10
11909,8
11910,23
11911,28
11912,28
11913,23
11914,17
11915,18
11916,24
11917,31
11918,39
11919,37
11920,33
11921,25
11922,20
11923,21
11924,24
11925,30
11926,40
11927,50
11928,60
11929,73
11930,87
11931,97
11932,96
11933,83
11934,59
11935,26
11936,-8
11937,-33
11938,-42
11939,-39
11940,-29
11941,-19
11942,-18
11943,-23
11944,-36
11945,-49
11946,-56
11947,-54
11948,-47
11949,-47
11950,-39
11951,-30
11952,-17
11953,12
11954,31
11955,47
11956,56
11957,53
11958,37
11959,14
11960,-7
11961,-18
11962,-13
11963,7
11964,32
11965,53
11966,67
11967,65
11968,46
11969,17
11970,-18
11971,-54
11972,-74
11973,-71
11974,-49
11975,-8
11976,46
11977,99
11978,140
11979,168
11980,186
11981,199
11982,211
11983,225
11984,251
11985,304
11986,320
11987,325
11988,317
11989,296
11990,262
11991,216
11992,159
11993,92
11994,18
11995,-47
11996,-102
11997,-143
11998,-165
11999,-168
12000,-160
12001,-144
12002,-125
12003,-104
12004,-82
12005,-59
12006,-34
12007,-6
12008,23
12009,54
12010,84
12011,112
12012,128
12013,137
12014,150
12015,170
12016,192
12017,223
12018,269
12019,264
12020,241
12021,202
12022,161
12023,124
12024,105
12025,109
12026,123
12027,143
12028,173
12029,201
12030,220
12031,234
12032,235
12033,219
12034,191
12035,157
12036,119
12037,86
12038,64
12039,64
12040,85
12041,114
12042,144
12043,171
12044,184
12045,183
12046,176
12047,167
12048,158
12049,158
12050,190
12051,217
12052,241
12053,252
12054,246
12055,226
12056,200
12057,173
12058,150
12059,136
12060,133
12061,135
12062,141
12063,149
12064,157
12065,164
12066,171
12067,180
12068,187
12069,191
12070,190
12071,185
12072,177
12073,166
12074,160
12075,161
12076,170
12077,186
12078,202
12079,215
12080,222
12081,219
12082,210
12083,183
12084,182
12085,186
12086,194
12087,203
12088,208
12089,206
12090,198
12091,198
12092,188
12093,179
12094,174
12095,169
12096,171
12097,177
12098,174
12099,172
12100,180
12101,188
12102,195
12103,199
12104,203
12105,203
12106,196
12107,190
12108,187
12109,189
12110,195
12111,206
12112,217
12113,219
12114,212
12115,200
12116,186
12117,164
12118,162
12119,160
12120,155
12121,147
12122,132
12123,113
12124,89
12125,63
12126,44
12127,38
12128,46
12129,66
12130,96
12131,126
12132,145
12133,146
12134,131
12135,103
12136,70
12137,38
12138,15
12139,3
12140,8
12141,27
12142,54
12143,84
12144,106
12145,114
12146,104
12147,80
12148,47
12149,16
12150,-18
12151,-8
12152,13
12153,37
12154,64
12155,84
12156,92
12157,94
12158,91
12159,83
12160,71
12161,59
12162,53
12163,55
12164,62
12165,75
12166,88
12167,93
12168,91
12169,84
12170,76
12171,71
12172,70
12173,75
12174,87
12175,93
12176,92
12177,85
12178,79
12179,81
12180,93
12181,115
12182,160
12183,157
12184,139
12185,113
12186,84
12187,64
12188,62
12189,74
12190,88
12191,96
12192,91
12193,70
12194,38
12195,7
12196,-7
12197,-8
12198,1
12199,22
12200,51
12201,80
12202,104
12203,121
12204,119
12205,101
12206,76
12207,49
12208,17
12209,-8
12210,-10
12211,12
12212,52
12213,108
12214,168
12215,217
12216,251
12217,242
12218,213
12219,161
12220,114
12221,85
12222,65
12223,56
12224,56
12225,61
12226,72
12227,90
12228,116
12229,151
12230,173
12231,179
12232,172
12233,172
12234,149
12235,110
12236,71
12237,34
12238,12
12239,11
12240,25
12241,42
12242,54
12243,57
12244,51
12245,42
12246,37
12247,35
12248,37
12249,47
12250,71
12251,73
12252,77
12253,87
12254,112
12255,150
12256,189
12257,221
12258,230
12259,215
12260,187
12261,150
12262,110
12263,86
12264,81
12265,85
12266,85
12267,85
12268,88
12269,94
12270,100
12271,113
12272,123
12273,113
12274,92
12275,67
12276,40
12277,21
12278,14
12279,25
12280,46
12281,60
12282,69
12283,72
12284,72
12285,73
12286,78
12287,79
12288,71
12289,61
12290,54
12291,53
12292,57
12293,64
12294,72
12295,74
12296,70
12297,62
12298,58
12299,57
12300,59
12301,64
12302,69
12303,71
12304,64
12305,47
12306,28
12307,20
12308,24
12309,42
12310,76
12311,115
12312,145
12313,159
12314,149
12315,78
12316,36
12317,8
12318,2
12319,5
12320,16
12321,28
12322,32
12323,31
12324,29
12325,32
12326,47
12327,74
12328,103
12329,125
12330,134
12331,125
12332,102
12333,72
12334,38
12335,12
12336,-5
12337,-14
12338,-9
12339,6
12340,24
12341,44
12342,64
12343,77
12344,75
12345,63
12346,43
12347,18
12348,-3
12349,-20
12350,-12
12351,1
12352,20
12353,43
12354,66
12355,87
12356,108
12357,133
12358,160
12359,189
12360,222
12361,255
12362,284
12363,304
12364,315
12365,315
12366,302
12367,277
12368,237
12369,188
12370,128
12371,61
12372,-7
12373,-69
12374,-125
12375,-125
12376,-168
12377,-191
12378,-197
12379,-193
12380,-176
12381,-151
12382,-92
12383,-64
12384,-39
12385,-19
12386,-5
12387,0
12388,2
12389,7
12390,14
12391,23
12392,40
12393,57
12394,72
12395,78
12396,76
12397,73
12398,66
12399,55
12400,48
12401,51
12402,52
12403,49
12404,52
12405,63
12406,74
12407,87
12408,103
12409,114
12410,114
12411,102
12412,85
12413,68
12414,49
12415,28
12416,29
12417,24
12418,18
12419,11
12420,5
12421,3
12422,9
12423,21
12424,36
12425,42
12426,39
12427,30
12428,17
12429,-1
12430,-14
12431,-19
12432,-13
12433,0
12434,15
12435,33
12436,48
12437,56
12438,61
12439,66
12440,70
12441,72
12442,74
12443,74
12444,74
12445,75
12446,77
12447,82
12448,92
12449,137
12450,159
12451,171
12452,175
12453,166
12454,147
12455,126
12456,106
12457,88
12458,81
12459,81
12460,81
12461,85
12462,96
12463,113
12464,142
12465,174
12466,201
12467,212
12468,201
12469,174
12470,134
12471,91
12472,61
12473,57
12474,77
12475,110
12476,143
12477,157
12478,149
12479,126
12480,101
12481,66
12482,60
12483,66
12484,80
12485,95
12486,108
12487,118
12488,121
12489,118
12490,114
12491,106
12492,93
12493,76
12494,59
12495,46
12496,43
12497,44
12498,45
12499,48
12500,51
12501,51
12502,50
12503,43
12504,39
12505,36
12506,31
12507,32
12508,40
12509,44
12510,45
12511,42
12512,33
12513,19
12514,2
12515,-5
12516,36
12517,61
12518,61
12519,78
12520,87
12521,80
12522,60
12523,34
12524,10
12525,-12
12526,-31
12527,-41
12528,-46
12529,-58
12530,-75
12531,-89
12532,-87
12533,-74
12534,-55
12535,-34
12536,-17
12537,-12
12538,-12
12539,-14
12540,-13
12541,-7
12542,5
12543,24
12544,46
12545,59
12546,62
12547,57
12548,45
12549,23
12550,20
12551,21
12552,24
12553,20
12554,14
12555,26
12556,57
12557,108
12558,172
12559,225
12560,246
12561,224
12562,165
12563,86
12564,5
12565,-65
12566,-108
12567,-102
12568,-63
12569,-9
12570,40
12571,73
12572,87
12573,86
12574,75
12575,65
12576,48
12577,21
12578,2
12579,2
12580,12
12581,29
12582,66
12583,74
12584,74
12585,65
12586,47
12587,21
12588,-2
12589,-13
12590,-11
12591,-1
12592,13
12593,28
12594,40
12595,42
12596,43
12597,42
12598,36
12599,33
12600,34
12601,40
12602,51
12603,62
12604,63
12605,58
12606,57
12607,58
12608,62
12609,72
12610,78
12611,67
12612,34
12613,-7
12614,-82
12615,-102
12616,-104
12617,-84
12618,-56
12619,-38
12620,-28
12621,-19
12622,-14
12623,-5
12624,10
12625,34
12626,50
12627,45
12628,23
12629,0
12630,-22
12631,-38
12632,-41
12633,-29
12634,-8
12635,8
12636,19
12637,30
12638,30
12639,22
12640,21
12641,24
12642,26
12643,27
12644,27
12645,26
12646,24
12647,13
12648,24
12649,40
12650,66
12651,102
12652,132
12653,144
12654,140
12655,119
12656,82
12657,35
12658,-10
12659,-46
12660,-46
12661,-64
12662,-64
12663,-50
12664,-33
12665,-11
12666,20
12667,63
12668,109
12669,145
12670,159
12671,144
12672,102
12673,44
12674,-12
12675,-57
12676,-87
12677,-91
12678,-70
12679,-39
12680,9
12681,17
12682,12
12683,3
12684,-5
12685,-14
12686,-26
12687,-33
12688,-38
12689,-35
12690,-19
12691,2
12692,20
12693,37
12694,56
12695,74
12696,90
12697,102
12698,100
12699,83
12700,50
12701,13
12702,-13
12703,-28
12704,-34
12705,-31
12706,-27
12707,-25
12708,-22
12709,-24
12710,-28
12711,-22
12712,-2
12713,24
12714,70
12715,68
12716,42
12717,0
12718,-59
12719,-111
12720,-118
12721,-78
12722,0
12723,107
12724,208
12725,265
12726,267
12727,218
12728,126
12729,35
12730,-15
12731,-2
12732,87
12733,213
12734,327
12735,426
12736,492
12737,528
12738,569
12739,628
12740,699
12741,779
12742,851
12743,885
12744,877
12745,836
12746,782
12747,685
12748,698
12749,777
12750,891
12751,1012
12752,1096
12753,1119
12754,1084
12755,986
12756,851
12757,733
12758,649
12759,601
12760,606
12761,666
12762,751
12763,827
12764,872
12765,886
12766,877
12767,881
12768,945
12769,1068
12770,1203
12771,1283
12772,1277
12773,1196
12774,1050
12775,865
12776,702
12777,613
12778,619
12779,849
12780,933
12781,934
12782,853
12783,735
12784,634
12785,560
12786,524
12787,538
12788,575
12789,629
12790,687
12791,726
12792,762
12793,798
12794,814
12795,809
12796,777
12797,706
12798,621
12799,540
12800,446
12801,378
12802,378
12803,374
12804,421
12805,518
12806,652
12807,768
12808,827
12809,821
12810,719
12811,558
12812,458
12813,446
12814,557
12815,774
12816,987
12817,1161
12818,1269
12819,1229
12820,1008
12821,641
12822,244
12823,-63
12824,-286
12825,-436
12826,-410
12827,-216
12828,2
12829,197
12830,322
12831,319
12832,249
12833,223
12834,280
12835,362
12836,413
12837,440
12838,439
12839,379
12840,278
12841,191
12842,119
12843,91
12844,112
12845,133
12846,101
12847,63
12848,45
12849,35
12850,65
12851,161
12852,292
12853,430
12854,531
12855,520
12856,413
12857,273
12858,104
12859,-58
12860,-188
12861,-286
12862,-289
12863,-197
12864,-71
12865,53
12866,124
12867,127
12868,127
12869,142
12870,159
12871,191
12872,211
12873,195
12874,164
12875,123
12876,59
12877,-21
12878,-139
12879,-96
12880,-1
12881,92
12882,133
12883,99
12884,18
12885,-64
12886,-135
12887,-198
12888,-239
12889,-260
12890,-273
12891,-250
12892,-204
12893,-169
12894,-124
12895,-64
12896,-27
12897,-33
12898,-71
12899,-120
12900,-179
12901,-246
12902,-255
12903,-138
12904,69
12905,303
12906,497
12907,583
12908,524
12909,325
12910,50
12911,-230
12912,-632
12913,-647
12914,-533
12915,-368
12916,-229
12917,-139
12918,-80
12919,-42
12920,-33
12921,-50
12922,-84
12923,-135
12924,-192
12925,-258
12926,-333
12927,-366
12928,-334
12929,-265
12930,-176
12931,-73
12932,-15
12933,-13
12934,-29
12935,-87
12936,-190
12937,-262
12938,-235
12939,-74
12940,164
12941,343
12942,371
12943,258
12944,24
12945,24
12946,-531
12947,-677
12948,-683
12949,-516
12950,-224
12951,65
12952,255
12953,317
12954,263
12955,164
12956,77
12957,-6
12958,-86
12959,-131
12960,-141
12961,-139
12962,-130
12963,-119
12964,-116
12965,-118
12966,-116
12967,-107
12968,-91
12969,-72
12970,-48
12971,-30
12972,-40
12973,-46
12974,-49
12975,-78
12976,-100
12977,-94
12978,-75
12979,26
12980,12
12981,-29
12982,-67
12983,-99
12984,-93
12985,-55
12986,-5
12987,69
12988,135
12989,162
12990,163
12991,121
12992,44
12993,-19
12994,-54
12995,-76
12996,-98
12997,-106
12998,-76
12999,-27
13000,19
13001,69
13002,109
13003,124
13004,121
13005,91
13006,46
13007,9
13008,-17
13009,-39
13010,-53
13011,-59
13012,-45
13013,-29
13014,-17
13015,-13
13016,-33
13017,-67
13018,-96
13019,-112
13020,-113
13021,-124
13022,-147
13023,-147
13024,-119
13025,-62
13026,37
13027,160
13028,285
13029,382
13030,425
13031,405
13032,331
13033,222
13034,122
13035,74
13036,65
13037,69
13038,65
13039,37
13040,0
13041,-37
13042,-56
13043,-46
13044,-22
13045,14
13046,59
13047,51
13048,23
13049,5
13050,13
13051,42
13052,68
13053,77
13054,94
13055,133
13056,191
13057,259
13058,302
13059,287
13060,225
13061,154
13062,84
13063,38
13064,30
13065,61
13066,147
13067,258
13068,329
13069,331
13070,275
13071,197
13072,135
13073,106
13074,101
13075,114
13076,131
13077,143
13078,161
13079,186
13080,245
13081,274
13082,274
13083,277
13084,255
13085,223
13086,185
13087,185
13088,158
13089,153
13090,178
13091,219
13092,251
13093,267
13094,276
13095,269
13096,259
13097,266
13098,280
13099,291
13100,304
13101,317
13102,328
13103,335
13104,309
13105,254
13106,212
13107,179
13108,150
13109,148
13110,182
13111,250
13112,342
13113,428
13114,528
13115,479
13116,390
13117,335
13118,327
13119,359
13120,417
13121,474
13122,496
13123,467
13124,386
13125,268
13126,156
13127,84
13128,87
13129,177
13130,307
13131,423
13132,500
13133,528
13134,513
13135,473
13136,415
13137,336
13138,252
13139,174
13140,106
13141,44
13142,-23
13143,-82
13144,-105
13145,-99
13146,-76
13147,-32
13148,18
13149,63
13150,57
13151,61
13152,59
13153,38
13154,19
13155,26
13156,66
13157,106
13158,153
13159,223
13160,291
13161,357
13162,413
13163,430
13164,393
13165,333
13166,273
13167,233
13168,239
13169,253
13170,269
13171,301
13172,321
13173,319
13174,284
13175,212
13176,134
13177,84
13178,69
13179,83
13180,200
13181,276
13182,344
13183,389
13184,403
13185,390
13186,361
13187,334
13188,308
13189,282
13190,265
13191,265
13192,282
13193,320
13194,368
13195,403
13196,418
13197,400
13198,346
13199,293
13200,252
13201,217
13202,209
13203,221
13204,228
13205,243
13206,266
13207,283
13208,315
13209,344
13210,327
13211,286
13212,238
13213,158
13214,12
13215,-10
13216,12
13217,65
13218,117
13219,165
13220,206
13221,228
13222,249
13223,276
13224,277
13225,252
13226,211
13227,152
13228,106
13229,106
13230,101
13231,137
13232,202
13233,282
13234,357
13235,379
13236,333
13237,271
13238,219
13239,160
13240,116
13241,118
13242,148
13243,180
13244,194
13245,199
13246,214
13247,227
13248,273
13249,307
13250,296
13251,256
13252,206
13253,137
13254,69
13255,16
13256,-12
13257,-11
13258,2
13259,20
13260,35
13261,40
13262,36
13263,12
13264,-22
13265,-52
13266,-75
13267,-68
13268,0
13269,108
13270,230
13271,345
13272,381
13273,314
13274,200
13275,62
13276,-67
13277,-139
13278,-156
13279,-136
13280,-48
13281,-49
13282,-69
13283,-113
13284,-147
13285,-123
13286,-81
13287,-62
13288,-66
13289,-113
13290,-209
13291,-297
13292,-349
13293,-365
13294,-329
13295,-248
13296,-151
13297,-62
13298,-2
13299,40
13300,67
13301,59
13302,29
13303,13
13304,-2
13305,-35
13306,-69
13307,-113
13308,-155
13309,-187
13310,-215
13311,-227
13312,-247
13313,-293
13314,-264
13315,-206
