,ECG
0,33792
1,33856
2,33920
3,33856
4,33920
5,33984
6,34112
7,34048
8,34304
9,34304
10,34240
11,34176
12,34048
13,33984
14,33856
15,33728
16,33664
17,33664
18,33600
19,33472
20,33408
21,33536
22,33472
23,33664
24,33664
25,33728
26,33728
27,33728
28,33728
29,33792
30,33856
31,33856
32,33856
33,33920
34,33920
35,33856
36,33728
37,33536
38,33152
39,32768
40,32640
41,33088
42,34176
43,35904
44,38272
45,40896
46,42560
47,42432
48,40384
49,37568
50,34944
51,32832
52,31552
53,30720
54,30464
55,30592
56,31040
57,31616
58,32320
59,32960
60,33472
61,33856
62,34112
63,34304
64,34368
65,34304
66,34304
67,34240
68,34368
69,34368
70,34368
71,34368
72,34368
73,34304
74,34304
75,34240
76,34240
77,34176
78,34240
79,34368
80,34368
81,34368
82,34368
83,34368
84,34496
85,34496
86,34432
87,34496
88,34560
89,34560
90,34496
91,34560
92,34688
93,34752
94,34752
95,34752
96,34880
97,34880
98,34944
99,35008
100,35072
101,35136
102,35072
103,35008
104,35072
105,35136
106,35072
107,35008
108,34944
109,34880
110,34752
111,34496
112,34240
113,34112
114,33856
115,33600
116,33408
117,33344
118,33216
119,33088
120,33152
121,33216
122,33280
123,33280
124,33280
125,33344
126,33408
127,33472
128,33536
129,33600
130,33664
131,33664
132,33600
133,33600
134,33600
135,33600
136,33472
137,33536
138,33600
139,33664
140,33600
141,33664
142,33600
143,33728
144,33600
145,33536
146,33600
147,33600
148,33600
149,33600
150,33664
151,33664
152,33728
153,33664
154,33664
155,33728
156,33728
157,33664
158,33728
159,33728
160,33664
161,33536
162,33536
163,33536
164,33536
165,33536
166,33536
167,33600
168,33664
169,33600
170,33600
171,33664
172,33664
173,33664
174,33600
175,33664
176,33728
177,33728
178,33664
179,33664
180,33664
181,33664
182,33600
183,33600
184,33664
185,33664
186,33600
187,33664
188,33728
189,33728
190,33728
191,33664
192,33728
193,33728
194,33728
195,33664
196,33728
197,33728
198,33728
199,33728
200,33856
201,33984
202,34048
203,34112
204,34176
205,34304
206,34304
207,34240
208,34176
209,34112
210,33984
211,33856
212,33728
213,33664
214,33600
215,33472
216,33472
217,33408
218,33536
219,33536
220,33600
221,33728
222,33792
223,33792
224,33792
225,33856
226,33920
227,33920
228,33856
229,33856
230,33920
231,33856
232,33792
233,33792
234,33728
235,33472
236,33088
237,32832
238,33088
239,33856
240,35200
241,37312
242,39872
243,41984
244,42624
245,41280
246,38784
247,36096
248,33792
249,32064
250,31104
251,30656
252,30592
253,30912
254,31488
255,32192
256,32832
257,33408
258,33856
259,34240
260,34432
261,34560
262,34624
263,34688
264,34624
265,34560
266,34432
267,34432
268,34432
269,34368
270,34368
271,34368
272,34368
273,34304
274,34304
275,34368
276,34432
277,34432
278,34432
279,34432
280,34496
281,34560
282,34624
283,34688
284,34752
285,34688
286,34624
287,34688
288,34816
289,34880
290,34944
291,35008
292,34944
293,35136
294,35200
295,35200
296,35264
297,35264
298,35200
299,35200
300,35264
301,35264
302,35200
303,35136
304,35072
305,35008
306,34880
307,34816
308,34624
309,34496
310,34304
311,34048
312,33856
313,33664
314,33472
315,33344
316,33216
317,33280
318,33280
319,33280
320,33280
321,33408
322,33344
323,33472
324,33472
325,33536
326,33600
327,33600
328,33600
329,33664
330,33728
331,33728
332,33728
333,33792
334,33856
335,33856
336,33792
337,33856
338,33920
339,33920
340,33856
341,33792
342,33856
343,33856
344,33856
345,33856
346,33920
347,33920
348,33920
349,33856
350,33920
351,33984
352,33920
353,33920
354,33920
355,33984
356,33920
357,33856
358,33856
359,33856
360,33856
361,33792
362,33792
363,33856
364,33856
365,33856
366,33920
367,33856
368,33920
369,33920
370,33856
371,33920
372,33920
373,33856
374,33856
375,33856
376,33920
377,33920
378,33856
379,33856
380,33920
381,33856
382,33792
383,33856
384,33920
385,33920
386,33856
387,33856
388,33856
389,33856
390,33792
391,33792
392,33856
393,33856
394,33856
395,33856
396,33920
397,33920
398,33856
399,33856
400,33856
401,33920
402,33920
403,33984
404,34112
405,34240
406,34304
407,34304
408,34368
409,34432
410,34368
411,34112
412,33984
413,33920
414,33792
415,33664
416,33600
417,33600
418,33600
419,33536
420,33536
421,33600
422,33664
423,33664
424,33664
425,33792
426,33856
427,33856
428,33856
429,33856
430,33920
431,33920
432,33920
433,33920
434,33984
435,33856
436,33600
437,33216
438,32960
439,33088
440,33728
441,35712
442,35968
443,39360
444,41664
445,42880
446,42304
447,39936
448,36928
449,34176
450,32064
451,30848
452,30272
453,30208
454,30592
455,31232
456,31936
457,32576
458,33216
459,33728
460,34048
461,34240
462,34368
463,34496
464,34496
465,34432
466,34368
467,34368
468,34368
469,34240
470,34240
471,34240
472,34176
473,34176
474,34176
475,34176
476,34176
477,34176
478,34176
479,34240
480,34304
481,34304
482,34304
483,34304
484,34432
485,34432
486,34432
487,34496
488,34560
489,34624
490,34624
491,34624
492,34752
493,34816
494,34816
495,34880
496,34880
497,34944
498,34944
499,35008
500,35008
501,35072
502,35008
503,34944
504,35008
505,34944
506,34880
507,34752
508,34688
509,34560
510,34368
511,34112
512,33920
513,33728
514,33472
515,33280
516,33088
517,33024
518,33024
519,32896
520,32832
521,32832
522,32896
523,32960
524,33024
525,33088
526,33152
527,33216
528,33280
529,33344
530,33408
531,33408
532,33408
533,33472
534,33472
535,33472
536,33408
537,33408
538,33472
539,33408
540,33344
541,33344
542,33408
543,33472
544,33472
545,33472
546,33472
547,33472
548,33408
549,33408
550,33408
551,33472
552,33408
553,33408
554,33472
555,33472
556,33472
557,33408
558,33408
559,33472
560,33472
561,33408
562,33472
563,33536
564,33536
565,33472
566,33472
567,33536
568,33536
569,33536
570,33536
571,33600
572,33600
573,33600
574,33536
575,33600
576,33664
577,33600
578,33600
579,33600
580,33664
581,33664
582,33600
583,33600
584,33664
585,33664
586,33664
587,33664
588,33728
589,33728
590,33664
591,33728
592,33664
593,33792
594,33728
595,33792
596,33920
597,33984
598,33984
599,34048
600,34112
601,34240
602,34304
603,34304
604,34368
605,34368
606,34176
607,33984
608,33856
609,33792
610,33728
611,33600
612,33536
613,33536
614,33536
615,33472
616,33472
617,33600
618,33664
619,33664
620,33664
621,33792
622,33728
623,33792
624,33792
625,33856
626,33920
627,33920
628,33856
629,33920
630,33920
631,33728
632,33408
633,33088
634,32896
635,33088
636,34304
637,35264
638,37376
639,40000
640,42176
641,43136
642,42112
643,39424
644,36352
645,33600
646,31616
647,30528
648,30144
649,30208
650,30784
651,31488
652,32256
653,32896
654,33472
655,33856
656,34112
657,34304
658,34432
659,34496
660,34496
661,34432
662,34432
663,34432
664,34432
665,34368
666,34368
667,34304
668,34304
669,34304
670,34304
671,34304
672,34368
673,34368
674,34304
675,34368
676,34368
677,34368
678,34368
679,34432
680,34496
681,34560
682,34560
683,34688
684,34816
685,34816
686,34816
687,34880
688,34944
689,35008
690,35072
691,35072
692,35200
693,35200
694,35200
695,35200
696,35264
697,35264
698,35264
699,35136
700,35136
701,35072
702,35008
703,34944
704,34880
705,34816
706,34560
707,34240
708,34048
709,33856
710,33664
711,33408
712,33280
713,33216
714,33152
715,33088
716,33088
717,33152
718,33216
719,33152
720,33216
721,33344
722,33408
723,33408
724,33408
725,33536
726,33600
727,33600
728,33536
729,33600
730,33664
731,33600
732,33600
733,33600
734,33664
735,33664
736,33600
737,33600
738,33664
739,33600
740,33600
741,33600
742,33600
743,33600
744,33600
745,33600
746,33664
747,33664
748,33600
749,33600
750,33600
751,33664
752,33600
753,33536
754,33600
755,33664
756,33600
757,33536
758,33600
759,33600
760,33664
761,33600
762,33600
763,33664
764,33600
765,33600
766,33536
767,33664
768,33664
769,33664
770,33664
771,33728
772,33728
773,33664
774,33600
775,33664
776,33728
777,33728
778,33664
779,33728
780,33792
781,33792
782,33728
783,33728
784,33792
785,33728
786,33728
787,33728
788,33792
789,33856
790,33856
791,33920
792,34048
793,34176
794,34176
795,34304
796,34368
797,34432
798,34368
799,34176
800,34112
801,33984
802,33856
803,33728
804,33664
805,33664
806,33536
807,33408
808,33472
809,33536
810,33600
811,33600
812,33728
813,33792
814,33792
815,33792
816,33792
817,33856
818,33856
819,33856
820,33856
821,33920
822,33920
823,33920
824,33728
825,33472
826,33088
827,32896
828,33152
829,33984
830,35456
831,37632
832,40192
833,42240
834,42816
835,41280
836,38528
837,35776
838,33536
839,31872
840,30912
841,30464
842,30528
843,30912
844,31488
845,32192
846,32896
847,33536
848,33984
849,34304
850,34496
851,34624
852,34688
853,34688
854,34688
855,34688
856,34624
857,34496
858,34496
859,34496
860,34496
861,34432
862,34368
863,34432
864,34432
865,34432
866,34432
867,34496
868,34496
869,34496
870,34496
871,34560
872,34624
873,34624
874,34624
875,34688
876,34752
877,34752
878,34688
879,34816
880,34944
881,35008
882,35008
883,35072
884,35136
885,35200
886,35136
887,35200
888,35264
889,35264
890,35200
891,35200
892,35200
893,35200
894,35072
895,34944
896,34880
897,34816
898,34624
899,34432
900,34240
901,33984
902,33728
903,33536
904,33408
905,33344
906,33280
907,33152
908,33088
909,33152
910,33216
911,33216
912,33344
913,33408
914,33472
915,33472
916,33472
917,33600
918,33600
919,33536
920,33536
921,33600
922,33664
923,33600
924,33600
925,33664
926,33664
927,33664
928,33600
929,33600
930,33664
931,33600
932,33600
933,33536
934,33600
935,33600
936,33536
937,33536
938,33600
939,33600
940,33600
941,33536
942,33600
943,33600
944,33536
945,33536
946,33536
947,33600
948,33536
949,33536
950,33536
951,33600
952,33600
953,33536
954,33600
955,33600
956,33600
957,33600
958,33600
959,33600
960,33664
961,33600
962,33664
963,33664
964,33664
965,33664
966,33600
967,33664
968,33664
969,33600
970,33600
971,33664
972,33728
973,33728
974,33792
975,33920
976,34048
977,34112
978,34176
979,34240
980,34304
981,34176
982,33984
983,33920
984,33856
985,33728
986,33600
987,33536
988,33536
989,33408
990,33344
991,33344
992,33408
993,33472
994,33472
995,33536
996,33600
997,33664
998,33664
999,33664
1000,33728
1001,33792
1002,33792
1003,33728
1004,33792
1005,33856
1006,33792
1007,33664
1008,33408
1009,33088
1010,32768
1011,32832
1012,33472
1013,34688
1014,36608
1015,39104
1016,41472
1017,42752
1018,42112
1019,39744
1020,36736
1021,34304
1022,32320
1023,30976
1024,30336
1025,30272
1026,30592
1027,31168
1028,31808
1029,32576
1030,33216
1031,33728
1032,34048
1033,34304
1034,34496
1035,34560
1036,34560
1037,34560
1038,34560
1039,34496
1040,34432
1041,34304
1042,34304
1043,34304
1044,34240
1045,34176
1046,34240
1047,34240
1048,34176
1049,34176
1050,34240
1051,34304
1052,34368
1053,34368
1054,34432
1055,34560
1056,34560
1057,34560
1058,34560
1059,34688
1060,34688
1061,34752
1062,34816
1063,34880
1064,34944
1065,34944
1066,35008
1067,35072
1068,35136
1069,35136
1070,35136
1071,35200
1072,35264
1073,35200
1074,35136
1075,35136
1076,35136
1077,35008
1078,34944
1079,34880
1080,34816
1081,34624
1082,34432
1083,34176
1084,34048
1085,33792
1086,33536
1087,33408
1088,33344
1089,33280
1090,33152
1091,33088
1092,33152
1093,33152
1094,33152
1095,33216
1096,33344
1097,33408
1098,33408
1099,33408
1100,33536
1101,33600
1102,33600
1103,33600
1104,33600
1105,33600
1106,33600
1107,33600
1108,33600
1109,33664
1110,33664
1111,33600
1112,33600
1113,33600
1114,33664
1115,33600
1116,33600
1117,33664
1118,33664
1119,33664
1120,33600
1121,33600
1122,33664
1123,33600
1124,33536
1125,33600
1126,33664
1127,33664
1128,33600
1129,33664
1130,33664
1131,33664
1132,33600
1133,33600
1134,33664
1135,33664
1136,33600
1137,33600
1138,33664
1139,33664
1140,33664
1141,33600
1142,33664
1143,33664
1144,33600
1145,33600
1146,33664
1147,33664
1148,33664
1149,33600
1150,33664
1151,33664
1152,33664
1153,33600
1154,33664
1155,33664
1156,33664
1157,33664
1158,33664
1159,33728
1160,33792
1161,33728
1162,33728
1163,33792
1164,33792
1165,33792
1166,33792
1167,33856
1168,33856
1169,33856
1170,33920
1171,34048
1172,34176
1173,34240
1174,34304
1175,34368
1176,34368
1177,34240
1178,34112
1179,33984
1180,33920
1181,33792
1182,33664
1183,33600
1184,33600
1185,33536
1186,33472
1187,33472
1188,33536
1189,33600
1190,33600
1191,33600
1192,33664
1193,33728
1194,33728
1195,33728
1196,33792
1197,33856
1198,33856
1199,33792
1200,33856
1201,33920
1202,33792
1203,33600
1204,33344
1205,33024
1206,32896
1207,33216
1208,34112
1209,35776
1210,37952
1211,40512
1212,42496
1213,43008
1214,41472
1215,38592
1216,35648
1217,33152
1218,31424
1219,30464
1220,30144
1221,30336
1222,30912
1223,31552
1224,32256
1225,32960
1226,33536
1227,33920
1228,34112
1229,34368
1230,34496
1231,34560
1232,34496
1233,34496
1234,34496
1235,34432
1236,34368
1237,34240
1238,34240
1239,34240
1240,34176
1241,34176
1242,34176
1243,34240
1244,34240
1245,34240
1246,34304
1247,34368
1248,34304
1249,34368
1250,34432
1251,34496
1252,34496
1253,34496
1254,34560
1255,34688
1256,34688
1257,34688
1258,34752
1259,34880
1260,34944
1261,34944
1262,35008
1263,35072
1264,35136
1265,35136
1266,35136
1267,35200
1268,35200
1269,35200
1270,35136
1271,35136
1272,35136
1273,35072
1274,34944
1275,34880
1276,34816
1277,34624
1278,34368
1279,34176
1280,33984
1281,33728
1282,33472
1283,33280
1284,33216
1285,33152
1286,33024
1287,33024
1288,33088
1289,33088
1290,33088
1291,33152
1292,33216
1293,33344
1294,33344
1295,33408
1296,33536
1297,33600
1298,33536
1299,33536
1300,33600
1301,33600
1302,33600
1303,33536
1304,33536
1305,33600
1306,33600
1307,33536
1308,33600
1309,33664
1310,33600
1311,33536
1312,33536
1313,33600
1314,33600
1315,33600
1316,33536
1317,33600
1318,33600
1319,33536
1320,33536
1321,33536
1322,33600
1323,33536
1324,33472
1325,33472
1326,33536
1327,33536
1328,33536
1329,33536
1330,33600
1331,33600
1332,33536
1333,33600
1334,33600
1335,33664
1336,33600
1337,33536
1338,33600
1339,33600
1340,33536
1341,33536
1342,33664
1343,33664
1344,33664
1345,33600
1346,33600
1347,33664
1348,33664
1349,33600
1350,33664
1351,33728
1352,33728
1353,33664
1354,33728
1355,33728
1356,33728
1357,33728
1358,33728
1359,33792
1360,33792
1361,33728
1362,33728
1363,33792
1364,33856
1365,33792
1366,33792
1367,33920
1368,33984
1369,34048
1370,34112
1371,34176
1372,34304
1373,34368
1374,34304
1375,34304
1376,34240
1377,34048
1378,33856
1379,33792
1380,33728
1381,33664
1382,33600
1383,33536
1384,33536
1385,33472
1386,33472
1387,33536
1388,33600
1389,33664
1390,33600
1391,33664
1392,33728
1393,33792
1394,33792
1395,33792
1396,33856
1397,33856
1398,33856
1399,33792
1400,33792
1401,33728
1402,33472
1403,33088
1404,32832
1405,33088
1406,33856
1407,35200
1408,37184
1409,39744
1410,41984
1411,42944
1412,42048
1413,39488
1414,36480
1415,33728
1416,31744
1417,30656
1418,30208
1419,30272
1420,30656
1421,31360
1422,32128
1423,32768
1424,33280
1425,33792
1426,34112
1427,34304
1428,34368
1429,34368
1430,34496
1431,34432
1432,34432
1433,34368
1434,34368
1435,34368
1436,34240
1437,34176
1438,34240
1439,34240
1440,34176
1441,34176
1442,34240
1443,34304
1444,34304
1445,34304
1446,34304
1447,34368
1448,34368
1449,34368
1450,34496
1451,34624
1452,34624
1453,34624
1454,34688
1455,34752
1456,34752
1457,34752
1458,34816
1459,34944
1460,35072
1461,35072
1462,35136
1463,35200
1464,35264
1465,35264
1466,35264
1467,35264
1468,35264
1469,35200
1470,35136
1471,35136
1472,35136
1473,35008
1474,34880
1475,34688
1476,34496
1477,34304
1478,33984
1479,33792
1480,33600
1481,33408
1482,33280
1483,33216
1484,33216
1485,33152
1486,33152
1487,33088
1488,33152
1489,33216
1490,33280
1491,33280
1492,33408
1493,33472
1494,33472
1495,33472
1496,33600
1497,33664
1498,33600
1499,33600
1500,33600
1501,33664
1502,33664
1503,33600
1504,33600
1505,33664
1506,33664
1507,33600
1508,33600
1509,33600
1510,33600
1511,33536
1512,33536
1513,33600
1514,33600
1515,33600
1516,33536
1517,33600
1518,33600
1519,33600
1520,33600
1521,33664
1522,33664
1523,33664
1524,33600
1525,33664
1526,33664
1527,33664
1528,33600
1529,33600
1530,33664
1531,33664
1532,33600
1533,33600
1534,33600
1535,33664
1536,33600
1537,33600
1538,33664
1539,33664
1540,33600
1541,33600
1542,33664
1543,33728
1544,33728
1545,33664
1546,33728
1547,33728
1548,33728
1549,33664
1550,33728
1551,33792
1552,33792
1553,33728
1554,33792
1555,33792
1556,33792
1557,33792
1558,33856
1559,33984
1560,34048
1561,34112
1562,34176
1563,34304
1564,34368
1565,34240
1566,34112
1567,34048
1568,33984
1569,33792
1570,33664
1571,33664
1572,33600
1573,33536
1574,33472
1575,33472
1576,33600
1577,33600
1578,33600
1579,33600
1580,33728
1581,33728
1582,33792
1583,33792
1584,33856
1585,33856
1586,33856
1587,33856
1588,33856
1589,33856
1590,33856
1591,33728
1592,33536
1593,33152
1594,32832
1595,32832
1596,33472
1597,34752
1598,36672
1599,39104
1600,41536
1601,42688
1602,41920
1603,39488
1604,36672
1605,34240
1606,32448
1607,31232
1608,30656
1609,30464
1610,30720
1611,31232
1612,31872
1613,32576
1614,33216
1615,33664
1616,34048
1617,34304
1618,34496
1619,34496
1620,34496
1621,34496
1622,34496
1623,34432
1624,34368
1625,34368
1626,34368
1627,34304
1628,34240
1629,34240
1630,34304
1631,34304
1632,34304
1633,34304
1634,34368
1635,34368
1636,34368
1637,34432
1638,34496
1639,34496
1640,34496
1641,34496
1642,34624
1643,34688
1644,34688
1645,34752
1646,34816
1647,34944
1648,34944
1649,34944
1650,35008
1651,35072
1652,35072
1653,35072
1654,35136
1655,35136
1656,35136
1657,35136
1658,35136
1659,35136
1660,35136
1661,35008
1662,34944
1663,34880
1664,34752
1665,34624
1666,34368
1667,34240
1668,33984
1669,33728
1670,33536
1671,33344
1672,33280
1673,33152
1674,33088
1675,33088
1676,33152
1677,33152
1678,33152
1679,33216
1680,33344
1681,33344
1682,33344
1683,33408
1684,33536
1685,33600
1686,33536
1687,33536
1688,33600
1689,33600
1690,33536
1691,33536
1692,33600
1693,33664
1694,33600
1695,33536
1696,33600
1697,33600
1698,33536
1699,33536
1700,33536
1701,33600
1702,33536
1703,33536
1704,33536
1705,33536
1706,33536
1707,33472
1708,33536
1709,33600
1710,33664
1711,33600
1712,33536
1713,33600
1714,33600
1715,33536
1716,33536
1717,33600
1718,33664
1719,33664
1720,33536
1721,33600
1722,33536
1723,33536
1724,33472
1725,33536
1726,33600
1727,33600
1728,33536
1729,33600
1730,33600
1731,33600
1732,33600
1733,33600
1734,33664
1735,33664
1736,33600
1737,33664
1738,33664
1739,33664
1740,33664
1741,33728
1742,33728
1743,33664
1744,33664
1745,33664
1746,33728
1747,33728
1748,33664
1749,33664
1750,33728
1751,33728
1752,33728
1753,33792
1754,33920
1755,33984
1756,34048
1757,34112
1758,34240
1759,34304
1760,34304
1761,34176
1762,34112
1763,34048
1764,33984
1765,33728
1766,33664
1767,33664
1768,33600
1769,33536
1770,33536
1771,33536
1772,33536
1773,33536
1774,33600
1775,33664
1776,33664
1777,33664
1778,33728
1779,33728
1780,33728
1781,33728
1782,33728
1783,33792
1784,33856
1785,33792
1786,33728
1787,33664
1788,33408
1789,33024
1790,32768
1791,33088
1792,33152
1793,35328
1794,37376
1795,39936
1796,42112
1797,42944
1798,41728
1799,39040
1800,36160
1801,33536
1802,31616
1803,30528
1804,30144
1805,30208
1806,30720
1807,30784
1808,32128
1809,32832
1810,33344
1811,33792
1812,34112
1813,34368
1814,34432
1815,34432
1816,34432
1817,34432
1818,34432
1819,34368
1820,34368
1821,34368
1822,34304
1823,34240
1824,34176
1825,34240
1826,34240
1827,34176
1828,34176
1829,34304
1830,34304
1831,34304
1832,34368
1833,34432
1834,34432
1835,34432
1836,34432
1837,34560
1838,34624
1839,34560
1840,34624
1841,34688
1842,34752
1843,34816
1844,34816
1845,34880
1846,35008
1847,35072
1848,35008
1849,35072
1850,35136
1851,35200
1852,35136
1853,35136
1854,35136
1855,35072
1856,35008
1857,34944
1858,34944
1859,34880
1860,34688
1861,34496
1862,34368
1863,34176
1864,33920
1865,33664
1866,33536
1867,33408
1868,33216
1869,33088
1870,33024
1871,33088
1872,33024
1873,33024
1874,33088
1875,33216
1876,33216
1877,33280
1878,33344
1879,33472
1880,33536
1881,33536
1882,33472
1883,33600
1884,33600
1885,33536
1886,33536
1887,33536
1888,33600
1889,33536
1890,33536
1891,33536
1892,33600
1893,33536
1894,33472
1895,33536
1896,33600
1897,33536
1898,33536
1899,33536
1900,33600
1901,33600
1902,33536
1903,33536
1904,33600
1905,33536
1906,33472
1907,33472
1908,33536
1909,33536
1910,33536
1911,33536
1912,33600
1913,33600
1914,33600
1915,33536
1916,33600
1917,33600
1918,33600
1919,33536
1920,33600
1921,33664
1922,33600
1923,33600
1924,33600
1925,33664
1926,33664
1927,33664
1928,33664
1929,33728
1930,33728
1931,33664
1932,33664
1933,33728
1934,33728
1935,33728
1936,33664
1937,33728
1938,33728
1939,33728
1940,33728
1941,33728
1942,33728
1943,33728
1944,33664
1945,33728
1946,33728
1947,33792
1948,33728
1949,33792
1950,33792
1951,33856
1952,33856
1953,33920
1954,33984
1955,34112
1956,34112
1957,34240
1958,34368
1959,34368
1960,34368
1961,34240
1962,34176
1963,34048
1964,33856
1965,33728
1966,33728
1967,33664
1968,33600
1969,33536
1970,33472
1971,33536
1972,33600
1973,33664
1974,33664
1975,33728
1976,33664
1977,33664
1978,33728
1979,33792
1980,33856
1981,33856
1982,33856
1983,33920
1984,33984
1985,33920
1986,33792
1987,33600
1988,33280
1989,32960
1990,33024
1991,33792
1992,35136
1993,36992
1994,39488
1995,41792
1996,43136
1997,42496
1998,39936
1999,36864
2000,34048
2001,31808
2002,30592
2003,30144
2004,30208
2005,30656
2006,31296
2007,32064
2008,32768
2009,33408
2010,33792
2011,34048
2012,34304
2013,34496
2014,34496
2015,34432
2016,34496
2017,34432
2018,34368
2019,34304
2020,34304
2021,34304
2022,34240
2023,34176
2024,34176
2025,34240
2026,34240
2027,34240
2028,34240
2029,34304
2030,34368
2031,34368
2032,34368
2033,34432
2034,34496
2035,34432
2036,34432
2037,34560
2038,34624
2039,34624
2040,34688
2041,34752
2042,34816
2043,34880
2044,34880
2045,34944
2046,35072
2047,35136
2048,35136
2049,35200
2050,35200
2051,35200
2052,35200
2053,35200
2054,35200
2055,35200
2056,35136
2057,35136
2058,35072
2059,34944
2060,34752
2061,34496
2062,34304
2063,34112
2064,33856
2065,33600
2066,33408
2067,33280
2068,33152
2069,33024
2070,33024
2071,33088
2072,33088
2073,33088
2074,33152
2075,33216
2076,33280
2077,33280
2078,33344
2079,33408
2080,33472
2081,33472
2082,33472
2083,33536
2084,33536
2085,33536
2086,33472
2087,33536
2088,33600
2089,33536
2090,33472
2091,33536
2092,33536
2093,33536
2094,33472
2095,33472
2096,33536
2097,33536
2098,33472
2099,33472
2100,33536
2101,33536
2102,33472
2103,33472
2104,33536
2105,33536
2106,33472
2107,33472
2108,33536
2109,33536
2110,33472
2111,33472
2112,33472
2113,33536
2114,33472
2115,33472
2116,33472
2117,33536
2118,33536
2119,33472
2120,33536
2121,33600
2122,33600
2123,33600
2124,33600
2125,33664
2126,33664
2127,33600
2128,33600
2129,33664
2130,33728
2131,33664
2132,33664
2133,33664
2134,33664
2135,33664
2136,33600
2137,33664
2138,33728
2139,33664
2140,33664
2141,33664
2142,33728
2143,33728
2144,33664
2145,33728
2146,33792
2147,33792
2148,33792
2149,33792
2150,33920
2151,34048
2152,34048
2153,34304
2154,34432
2155,34496
2156,34432
2157,34304
2158,34240
2159,34112
2160,33920
2161,33792
2162,33728
2163,33728
2164,33600
2165,33536
2166,33472
2167,33536
2168,33536
2169,33536
2170,33600
2171,33664
2172,33728
2173,33728
2174,33792
2175,33856
2176,33920
2177,33920
2178,33920
2179,33984
2180,33984
2181,33920
2182,33792
2183,33664
2184,33344
2185,32960
2186,32832
2187,33408
2188,34496
2189,36096
2190,38400
2191,40960
2192,42688
2193,42752
2194,40768
2195,37888
2196,34432
2197,34048
2198,31232
2199,30400
2200,30272
2201,30528
2202,30976
2203,31616
2204,32384
2205,33088
2206,33600
2207,33984
2208,34304
2209,34432
2210,34496
2211,34496
2212,34496
2213,34560
2214,34560
2215,34496
2216,34432
2217,34432
2218,34368
2219,34304
2220,34304
2221,34368
2222,34368
2223,34304
2224,34368
2225,34432
2226,34432
2227,34432
2228,34432
2229,34496
2230,34560
2231,34560
2232,34560
2233,34624
2234,34688
2235,34688
2236,34752
2237,34816
2238,34880
2239,34944
2240,34944
2241,35072
2242,35008
2243,35136
2244,35200
2245,35200
2246,35328
2247,35328
2248,35264
2249,35264
2250,35264
2251,35264
2252,35200
2253,35200
2254,35136
2255,35008
2256,34752
2257,34688
2258,34496
2259,34304
2260,34048
2261,33792
2262,33600
2263,33472
2264,33344
2265,33152
2266,33088
2267,33152
2268,33152
2269,33216
2270,33280
2271,33408
2272,33344
2273,33408
2274,33472
2275,33536
2276,33600
2277,33600
2278,33600
2279,33664
2280,33664
2281,33664
2282,33664
2283,33728
2284,33728
2285,33664
2286,33664
2287,33728
2288,33728
2289,33728
2290,33664
2291,33728
2292,33728
2293,33728
2294,33664
2295,33664
2296,33664
2297,33664
2298,33664
2299,33664
2300,33728
2301,33664
2302,33600
2303,33600
2304,33600
2305,33600
2306,33600
2307,33600
2308,33664
2309,33664
2310,33664
2311,33664
2312,33728
2313,33728
2314,33728
2315,33664
2316,33792
2317,33728
2318,33792
2319,33728
2320,33728
2321,33728
2322,33728
2323,33728
2324,33728
2325,33792
2326,33792
2327,33792
2328,33728
2329,33728
2330,33792
2331,33728
2332,33600
2333,33600
2334,33600
2335,33664
2336,33664
2337,33728
2338,33792
2339,33856
2340,33984
2341,34112
2342,34240
2343,34560
2344,34944
2345,35072
2346,34752
2347,34240
2348,33920
2349,33600
2350,33408
2351,33216
2352,33152
2353,33152
2354,33280
2355,33344
2356,33408
2357,33600
2358,33728
2359,33792
2360,33856
2361,33856
2362,33984
2363,34048
2364,34048
2365,33984
2366,34048
2367,34048
2368,34048
2369,33984
2370,33984
2371,33920
2372,33728
2373,33472
2374,33024
2375,32704
2376,33024
2377,33088
2378,34752
2379,36864
2380,39488
2381,41792
2382,42816
2383,41920
2384,39488
2385,36608
2386,34176
2387,32384
2388,31232
2389,30592
2390,30400
2391,30720
2392,31360
2393,32128
2394,32768
2395,33344
2396,33792
2397,34176
2398,34368
2399,34560
2400,34624
2401,34624
2402,34560
2403,34560
2404,34560
2405,34496
2406,34368
2407,34304
2408,34368
2409,34368
2410,34304
2411,34304
2412,34304
2413,34304
2414,34304
2415,34368
2416,34432
2417,34496
2418,34432
2419,34368
2420,34368
2421,34496
2422,34496
2423,34560
2424,34624
2425,34688
2426,34752
2427,34816
2428,34880
2429,35008
2430,35008
2431,35072
2432,35072
2433,35136
2434,35136
2435,35136
2436,35136
2437,35136
2438,35200
2439,35136
2440,35136
2441,35136
2442,35072
2443,35008
2444,34880
2445,34752
2446,34624
2447,34368
2448,34112
2449,33920
2450,33728
2451,33472
2452,33344
2453,33280
2454,33216
2455,33216
2456,33152
2457,33152
2458,33216
2459,33280
2460,33280
2461,33344
2462,33408
2463,33472
2464,33472
2465,33472
2466,33600
2467,33600
2468,33664
2469,33664
2470,33664
2471,33728
2472,33728
2473,33728
2474,33728
2475,33792
2476,33728
2477,33664
2478,33664
2479,33664
2480,33664
2481,33536
2482,33536
2483,33600
2484,33536
2485,33472
2486,33472
2487,33600
2488,33600
2489,33600
2490,33664
2491,33728
2492,33728
2493,33728
2494,33664
2495,33600
2496,33600
2497,33472
2498,33472
2499,33536
2500,33664
2501,33664
2502,33600
2503,33792
2504,34048
2505,34432
2506,34752
2507,34944
2508,34688
2509,34112
2510,33344
2511,32832
2512,32640
2513,32576
2514,32640
2515,32768
2516,32960
2517,33280
2518,33536
2519,33664
2520,33728
2521,33664
2522,33664
2523,33728
2524,34048
2525,34624
2526,35200
2527,35200
2528,35392
2529,35520
2530,35136
2531,34176
2532,33344
2533,32960
2534,32960
2535,33024
2536,33216
2537,33472
2538,33600
2539,33728
2540,33856
2541,34112
2542,34048
2543,34176
2544,34112
2545,33984
2546,33920
2547,33920
2548,33856
2549,33792
2550,33664
2551,33664
2552,33664
2553,33792
2554,34240
2555,34816
2556,34880
2557,34432
2558,33728
2559,33216
2560,33024
2561,33024
2562,33152
2563,33280
2564,33408
2565,33088
2566,32832
2567,33088
2568,34048
2569,35456
2570,37504
2571,40832
2572,42048
2573,42816
2574,41664
2575,39488
2576,37056
2577,34560
2578,32000
2579,30336
2580,29632
2581,29504
2582,29760
2583,30656
2584,32128
2585,33280
2586,33536
2587,33408
2588,33536
2589,33856
2590,34112
2591,34176
2592,34112
2593,34048
2594,34048
2595,34240
2596,34304
2597,34240
2598,34176
2599,34112
2600,34176
2601,34304
2602,34240
2603,34304
2604,34496
2605,34688
2606,34816
2607,34688
2608,34752
2609,34880
2610,34688
2611,34304
2612,33984
2613,33728
2614,33600
2615,33856
2616,34368
2617,34624
2618,34752
2619,34816
2620,34816
2621,34880
2622,34880
2623,34944
2624,35008
2625,35008
2626,35008
2627,34880
2628,34816
2629,34880
2630,35008
2631,35136
2632,35136
2633,35136
2634,34944
2635,34752
2636,34624
2637,34496
2638,34240
2639,33984
2640,33728
2641,33536
2642,33280
2643,33088
2644,32896
2645,32768
2646,32640
2647,32576
2648,32512
2649,32576
2650,32768
2651,32896
2652,33088
2653,33280
2654,33472
2655,33536
2656,33472
2657,33408
2658,33344
2659,33280
2660,33216
2661,33216
2662,33216
2663,33280
2664,33280
2665,33280
2666,33280
2667,33344
2668,33344
2669,33344
2670,33408
2671,33408
2672,33408
2673,33472
2674,33472
2675,33600
2676,33600
2677,33536
2678,33472
2679,33408
2680,33408
2681,33344
2682,33280
2683,33344
2684,33344
2685,33408
2686,33408
2687,33472
2688,33536
2689,33408
2690,33344
2691,33472
2692,33536
2693,33600
2694,33536
2695,33536
2696,33536
2697,33472
2698,33408
2699,33344
2700,33344
2701,33344
2702,33344
2703,33408
2704,33472
2705,33472
2706,33472
2707,33408
2708,33472
2709,33536
2710,33536
2711,33536
2712,33536
2713,33472
2714,33472
2715,33600
2716,33792
2717,33856
2718,33792
2719,33728
2720,33856
2721,34048
2722,34112
2723,34112
2724,34112
2725,34176
2726,34304
2727,34240
2728,34048
2729,33920
2730,33728
2731,33664
2732,33600
2733,33664
2734,33600
2735,33472
2736,33216
2737,33216
2738,33344
2739,33408
2740,33408
2741,33536
2742,33600
2743,33600
2744,33536
2745,33600
2746,33728
2747,33792
2748,33792
2749,33856
2750,33920
2751,33920
2752,33856
2753,33792
2754,33664
2755,33408
2756,33024
2757,32960
2758,33472
2759,34560
2760,36224
2761,38464
2762,40832
2763,42304
2764,41984
2765,39808
2766,36928
2767,34176
2768,32064
2769,30720
2770,30272
2771,30272
2772,30720
2773,31296
2774,32000
2775,32704
2776,33280
2777,33600
2778,33856
2779,34112
2780,34240
2781,34240
2782,34240
2783,34304
2784,34368
2785,34304
2786,34176
2787,34112
2788,34048
2789,33984
2790,33984
2791,33984
2792,34048
2793,34112
2794,34048
2795,34112
2796,34176
2797,34240
2798,34176
2799,34176
2800,34240
2801,34368
2802,34368
2803,34432
2804,34496
2805,34560
2806,34560
2807,34560
2808,34624
2809,34688
2810,34752
2811,34752
2812,34816
2813,34944
2814,35008
2815,35008
2816,35072
2817,35072
2818,35072
2819,35008
2820,34944
2821,35008
2822,35008
2823,34880
2824,34880
2825,34880
2826,34816
2827,34752
2828,34560
2829,34304
2830,34048
2831,33792
2832,33536
2833,33344
2834,33216
2835,33088
2836,33024
2837,33024
2838,33024
2839,33024
2840,33024
2841,33152
2842,33280
2843,33408
2844,33408
2845,33344
2846,33408
2847,33408
2848,33472
2849,33472
2850,33600
2851,33664
2852,33664
2853,33600
2854,33664
2855,33664
2856,33664
2857,33600
2858,33600
2859,33664
2860,33536
2861,33472
2862,33472
2863,33600
2864,33600
2865,33600
2866,33536
2867,33536
2868,33536
2869,33536
2870,33536
2871,33600
2872,33664
2873,33600
2874,33600
2875,33664
2876,33664
2877,33536
2878,33536
2879,33600
2880,33600
2881,33536
2882,33472
2883,33536
2884,33600
2885,33664
2886,33664
2887,33664
2888,33792
2889,33792
2890,33728
2891,33728
2892,33728
2893,33664
2894,33664
2895,33664
2896,33728
2897,33728
2898,33728
2899,33728
2900,33792
2901,33728
2902,33728
2903,33728
2904,33792
2905,33856
2906,33856
2907,33792
2908,33856
2909,33920
2910,33984
2911,34048
2912,34176
2913,34240
2914,34304
2915,34304
2916,34304
2917,34240
2918,34112
2919,33984
2920,33856
2921,33792
2922,33664
2923,33536
2924,33536
2925,33536
2926,33536
2927,33472
2928,33536
2929,33600
2930,33728
2931,33728
2932,33792
2933,33856
2934,33856
2935,33856
2936,33856
2937,33920
2938,33984
2939,33920
2940,33856
2941,33856
2942,33856
2943,33728
2944,33280
2945,32960
2946,32896
2947,33408
2948,34368
2949,35968
2950,38272
2951,40704
2952,42304
2953,42176
2954,40384
2955,37632
2956,35008
2957,32896
2958,31488
2959,30784
2960,30528
2961,30656
2962,31168
2963,31872
2964,32576
2965,33152
2966,33664
2967,34112
2968,34368
2969,34496
2970,34624
2971,34688
2972,34624
2973,34560
2974,34432
2975,34432
2976,34368
2977,34304
2978,34176
2979,34112
2980,34112
2981,34112
2982,34112
2983,34240
2984,34304
2985,34368
2986,34368
2987,34432
2988,34496
2989,34496
2990,34432
2991,34496
2992,34624
2993,34624
2994,34624
2995,34624
2996,34752
2997,34816
2998,34816
2999,34816
3000,34944
3001,35008
3002,35008
3003,35072
3004,35136
3005,35200
3006,35200
3007,35136
3008,35200
3009,35200
3010,35264
3011,35200
3012,35136
3013,35136
3014,35072
3015,34880
3016,34624
3017,34432
3018,34240
3019,33984
3020,33792
3021,33664
3022,33536
3023,33344
3024,33216
3025,33216
3026,33216
3027,33088
3028,33088
3029,33152
3030,33280
3031,33344
3032,33344
3033,33472
3034,33600
3035,33600
3036,33600
3037,33664
3038,33728
3039,33728
3040,33664
3041,33664
3042,33728
3043,33728
3044,33664
3045,33728
3046,33728
3047,33728
3048,33664
3049,33600
3050,33600
3051,33664
3052,33600
3053,33600
3054,33664
3055,33728
3056,33728
3057,33728
3058,33728
3059,33792
3060,33728
3061,33664
3062,33664
3063,33728
3064,33728
3065,33664
3066,33664
3067,33728
3068,33728
3069,33664
3070,33600
3071,33664
3072,33728
3073,33664
3074,33664
3075,33664
3076,33664
3077,33664
3078,33664
3079,33728
3080,33728
3081,33728
3082,33664
3083,33728
3084,33792
3085,33856
3086,33792
3087,33920
3088,34048
3089,34048
3090,34112
3091,34112
3092,34240
3093,34240
3094,34176
3095,33984
3096,33920
3097,33792
3098,33664
3099,33536
3100,33536
3101,33536
3102,33472
3103,33408
3104,33408
3105,33536
3106,33600
3107,33600
3108,33664
3109,33728
3110,33728
3111,33728
3112,33856
3113,33856
3114,33792
3115,33728
3116,33728
3117,33728
3118,33728
3119,33728
3120,33600
3121,33408
3122,33152
3123,32768
3124,32832
3125,33408
3126,34496
3127,36352
3128,38528
3129,40896
3130,42048
3131,41408
3132,39232
3133,36672
3134,34432
3135,32640
3136,31424
3137,30784
3138,30656
3139,30784
3140,31232
3141,31872
3142,32576
3143,33216
3144,33664
3145,33920
3146,34176
3147,34368
3148,34432
3149,34496
3150,34560
3151,34560
3152,34496
3153,34368
3154,34304
3155,34304
3156,34240
3157,34240
3158,34304
3159,34304
3160,34304
3161,34240
3162,34304
3163,34368
3164,34432
3165,34368
3166,34368
3167,34432
3168,34496
3169,34560
3170,34560
3171,34688
3172,34816
3173,34880
3174,34816
3175,34880
3176,34880
3177,34880
3178,34880
3179,35008
3180,35072
3181,35072
3182,35008
3183,35008
3184,35136
3185,35328
3186,35456
3187,35520
3188,35520
3189,35392
3190,35200
3191,35008
3192,34880
3193,34688
3194,34432
3195,34176
3196,33984
3197,33792
3198,33600
3199,33408
3200,33344
3201,33344
3202,33344
3203,33344
3204,33408
3205,33408
3206,33408
3207,33408
3208,33472
3209,33536
3210,33536
3211,33536
3212,33600
3213,33600
3214,33600
3215,33600
3216,33664
3217,33728
3218,33664
3219,33600
3220,33600
3221,33728
3222,33792
3223,33792
3224,33856
3225,33856
3226,33920
3227,33792
3228,33664
3229,33600
3230,33600
3231,33600
3232,33600
3233,33664
3234,33664
3235,33536
3236,33472
3237,33536
3238,33600
3239,33664
3240,33728
3241,33728
3242,33728
3243,33728
3244,33664
3245,33536
3246,33600
3247,33664
3248,33728
3249,33728
3250,33792
3251,33792
3252,33728
3253,33664
3254,33728
3255,33728
3256,33664
3257,33600
3258,33600
3259,33728
3260,33792
3261,33792
3262,33792
3263,33920
3264,34112
3265,34304
3266,34304
3267,34304
3268,34112
3269,33856
3270,33664
3271,33664
3272,33600
3273,33536
3274,33472
3275,33408
3276,33408
3277,33472
3278,33472
3279,33536
3280,33536
3281,33536
3282,33536
3283,33600
3284,33664
3285,33728
3286,33728
3287,33792
3288,33792
3289,33856
3290,33856
3291,33856
3292,33856
3293,33728
3294,33472
3295,33152
3296,32896
3297,32960
3298,33472
3299,34496
3300,36288
3301,38592
3302,40832
3303,41920
3304,41344
3305,39232
3306,36608
3307,34304
3308,32640
3309,31552
3310,30976
3311,30784
3312,30976
3313,31488
3314,32128
3315,32704
3316,33280
3317,33792
3318,34176
3319,34368
3320,34496
3321,34560
3322,34560
3323,34496
3324,34432
3325,34368
3326,34368
3327,34304
3328,34240
3329,34176
3330,34176
3331,34176
3332,34112
3333,34176
3334,34240
3335,34240
3336,34240
3337,34304
3338,34368
3339,34432
3340,34368
3341,34368
3342,34496
3343,34496
3344,34496
3345,34496
3346,34560
3347,34624
3348,34688
3349,34688
3350,34752
3351,34816
3352,34880
3353,34944
3354,35008
3355,35072
3356,35008
3357,34944
3358,34944
3359,35008
3360,35008
3361,34944
3362,34880
3363,34880
3364,34816
3365,34688
3366,34496
3367,34368
3368,34176
3369,33856
3370,33664
3371,33536
3372,33472
3373,33280
3374,33152
3375,33152
3376,33152
3377,33152
3378,33088
3379,33152
3380,33216
3381,33280
3382,33280
3383,33344
3384,33408
3385,33472
3386,33408
3387,33472
3388,33536
3389,33536
3390,33536
3391,33536
3392,33600
3393,33600
3394,33600
3395,33536
3396,33600
3397,33664
3398,33600
3399,33600
3400,33600
3401,33664
3402,33600
3403,33600
3404,33600
3405,33664
3406,33664
3407,33600
3408,33600
3409,33600
3410,33600
3411,33600
3412,33600
3413,33600
3414,33600
3415,33536
3416,33536
3417,33600
3418,33600
3419,33600
3420,33600
3421,33664
3422,33664
3423,33600
3424,33600
3425,33600
3426,33664
3427,33664
3428,33600
3429,33664
3430,33664
3431,33664
3432,33600
3433,33600
3434,33664
3435,33664
3436,33664
3437,33664
3438,33792
3439,33856
3440,33920
3441,33984
3442,34112
3443,34112
3444,34176
3445,34176
3446,34176
3447,34112
3448,33984
3449,33792
3450,33664
3451,33600
3452,33536
3453,33472
3454,33408
3455,33408
3456,33408
3457,33344
3458,33408
3459,33472
3460,33536
3461,33536
3462,33536
3463,33664
3464,33664
3465,33664
3466,33664
3467,33728
3468,33792
3469,33792
3470,33728
3471,33728
3472,33728
3473,33600
3474,33280
3475,33024
3476,32896
3477,33216
3478,34048
3479,35456
3480,37504
3481,39808
3482,41600
3483,42112
3484,40768
3485,38208
3486,35392
3487,33024
3488,31488
3489,30720
3490,30464
3491,30656
3492,31168
3493,31808
3494,32448
3495,33024
3496,33536
3497,33920
3498,34176
3499,34304
3500,34368
3501,34432
3502,34432
3503,34368
3504,34368
3505,34368
3506,34368
3507,34304
3508,34304
3509,34304
3510,34304
3511,34240
3512,34240
3513,34240
3514,34304
3515,34304
3516,34304
3517,34368
3518,34432
3519,34432
3520,34432
3521,34496
3522,34560
3523,34560
3524,34560
3525,34624
3526,34688
3527,34752
3528,34816
3529,34880
3530,34944
3531,35008
3532,35072
3533,35136
3534,35200
3535,35200
3536,35264
3537,35264
3538,35264
3539,35264
3540,35200
3541,35200
3542,35200
3543,35136
3544,35008
3545,34880
3546,34752
3547,34560
3548,34304
3549,33984
3550,33792
3551,33600
3552,33408
3553,33216
3554,33152
3555,33152
3556,33152
3557,33152
3558,33280
3559,33280
3560,33344
3561,33344
3562,33344
3563,33472
3564,33536
3565,33536
3566,33664
3567,33728
3568,33728
3569,33728
3570,33728
3571,33792
3572,33728
3573,33728
3574,33728
3575,33728
3576,33664
3577,33600
3578,33664
3579,33600
3580,33664
3581,33600
3582,33600
3583,33600
3584,33664
3585,33600
3586,33600
3587,33600
3588,33664
3589,33600
3590,33600
3591,33600
3592,33600
3593,33600
3594,33536
3595,33600
3596,33600
3597,33600
3598,33536
3599,33600
3600,33600
3601,33664
3602,33664
3603,33664
3604,33728
3605,33728
3606,33664
3607,33664
3608,33728
3609,33664
3610,33728
3611,33728
3612,33728
3613,33728
3614,33664
3615,33664
3616,33664
3617,33728
3618,33728
3619,33664
3620,33728
3621,33792
3622,33856
3623,33920
3624,33920
3625,34176
3626,34240
3627,34240
3628,34304
3629,34368
3630,34304
3631,34176
3632,34048
3633,33920
3634,33856
3635,33664
3636,33536
3637,33472
3638,33536
3639,33472
3640,33408
3641,33472
3642,33536
3643,33536
3644,33536
3645,33600
3646,33664
3647,33728
3648,33728
3649,33728
3650,33792
3651,33792
3652,33728
3653,33728
3654,33792
3655,33792
3656,33728
3657,33664
3658,33472
3659,33216
3660,32896
3661,33024
3662,33792
3663,35072
3664,36864
3665,39168
3666,41344
3667,42432
3668,41472
3669,41216
3670,36096
3671,33280
3672,31488
3673,30464
3674,30208
3675,30528
3676,31104
3677,31744
3678,32448
3679,33088
3680,33536
3681,33856
3682,34112
3683,34368
3684,34432
3685,34432
3686,34368
3687,34368
3688,34368
3689,34304
3690,34240
3691,34240
3692,34304
3693,34240
3694,34176
3695,34176
3696,34240
3697,34240
3698,34240
3699,34176
3700,34368
3701,34368
3702,34368
3703,34368
3704,34432
3705,34496
3706,34496
3707,34496
3708,34560
3709,34624
3710,34624
3711,34688
3712,34752
3713,34880
3714,34944
3715,34944
3716,35008
3717,35072
3718,35136
3719,35136
3720,35200
3721,35200
3722,35200
3723,35200
3724,35200
3725,35200
3726,35136
3727,35072
3728,35008
3729,34944
3730,34816
3731,34560
3732,34304
3733,34048
3734,33856
3735,33600
3736,33344
3737,33216
3738,33152
3739,33088
3740,32960
3741,33024
3742,33024
3743,33088
3744,33024
3745,33216
3746,33280
3747,33344
3748,33344
3749,33344
3750,33408
3751,33408
3752,33408
3753,33472
3754,33536
3755,33536
3756,33536
3757,33536
3758,33536
3759,33600
3760,33536
3761,33536
3762,33536
3763,33600
3764,33536
3765,33536
3766,33536
3767,33600
3768,33536
3769,33472
3770,33472
3771,33536
3772,33536
3773,33472
3774,33472
3775,33536
3776,33536
3777,33472
3778,33472
3779,33472
3780,33536
3781,33536
3782,33536
3783,33600
3784,33600
3785,33536
3786,33536
3787,33472
3788,33600
3789,33600
3790,33536
3791,33600
3792,33664
3793,33600
3794,33536
3795,33536
3796,33600
3797,33600
3798,33536
3799,33600
3800,33664
3801,33664
3802,33600
3803,33664
3804,33664
3805,33664
3806,33664
3807,33664
3808,33728
3809,33728
3810,33728
3811,33728
3812,33728
3813,33792
3814,33728
3815,33728
3816,33728
3817,33792
3818,33792
3819,33728
3820,33792
3821,33856
3822,33920
3823,33984
3824,34112
3825,34176
3826,34240
3827,34240
3828,34304
3829,34368
3830,34304
3831,34112
3832,33984
3833,33856
3834,33728
3835,33600
3836,33536
3837,33536
3838,33536
3839,33536
3840,33472
3841,33536
3842,33600
3843,33664
3844,33600
3845,33664
3846,33728
3847,33728
3848,33792
3849,33792
3850,33856
3851,33856
3852,33856
3853,33856
3854,33920
3855,33920
3856,33728
3857,33536
3858,33216
3859,32960
3860,33024
3861,33728
3862,35072
3863,36864
3864,39232
3865,41344
3866,42496
3867,41792
3868,39424
3869,36480
3870,33792
3871,31936
3872,30784
3873,30400
3874,30464
3875,30976
3876,31744
3877,32320
3878,32960
3879,33600
3880,33920
3881,34176
3882,34368
3883,34496
3884,34560
3885,34496
3886,34432
3887,34432
3888,34496
3889,34432
3890,34304
3891,34368
3892,34368
3893,34304
3894,34240
3895,34240
3896,34304
3897,34304
3898,34304
3899,34368
3900,34432
3901,34496
3902,34432
3903,34432
3904,34496
3905,34624
3906,34624
3907,34624
3908,34688
3909,34752
3910,34816
3911,34816
3912,34880
3913,34944
3914,35008
3915,35008
3916,35072
3917,35136
3918,35200
3919,35200
3920,35200
3921,35264
3922,35264
3923,35200
3924,35136
3925,35136
3926,35136
3927,35072
3928,35008
3929,34880
3930,34752
3931,34496
3932,34176
3933,33984
3934,33792
3935,33536
3936,33280
3937,33216
3938,33152
3939,33088
3940,33088
3941,33088
3942,33152
3943,33216
3944,33280
3945,33280
3946,33408
3947,33472
3948,33472
3949,33536
3950,33600
3951,33600
3952,33600
3953,33600
3954,33600
3955,33664
3956,33664
3957,33600
3958,33600
3959,33600
3960,33600
3961,33600
3962,33600
3963,33600
3964,33600
3965,33600
3966,33600
3967,33600
3968,33664
3969,33600
3970,33600
3971,33600
3972,33600
3973,33600
3974,33600
3975,33664
3976,33664
3977,33664
3978,33600
3979,33600
3980,33664
3981,33664
3982,33600
3983,33600
3984,33664
3985,33600
3986,33600
3987,33600
3988,33664
3989,33664
3990,33600
3991,33600
3992,33664
3993,33664
3994,33600
3995,33600
3996,33728
3997,33728
3998,33728
3999,33728
4000,33728
4001,33728
4002,33728
4003,33728
4004,33728
4005,33792
4006,33728
4007,33728
4008,33792
4009,33792
4010,33792
4011,33792
4012,33792
4013,33856
4014,33856
4015,33856
4016,33984
4017,34048
4018,34176
4019,34240
4020,34304
4021,34368
4022,34304
4023,34176
4024,34048
4025,33984
4026,33856
4027,33664
4028,33600
4029,33600
4030,33536
4031,33472
4032,33536
4033,33600
4034,33664
4035,33664
4036,33664
4037,33728
4038,33792
4039,33792
4040,33792
4041,33856
4042,33856
4043,33920
4044,33920
4045,33856
4046,33920
4047,33920
4048,33856
4049,33600
4050,33280
4051,32960
4052,32832
4053,33280
4054,34368
4055,36032
4056,38720
4057,40640
4058,42048
4059,41664
4060,39552
4061,36864
4062,34496
4063,32768
4064,31552
4065,30912
4066,30720
4067,30976
4068,31424
4069,32000
4070,32576
4071,33216
4072,33728
4073,34048
4074,34304
4075,34496
4076,34560
4077,34560
4078,34560
4079,34496
4080,34496
4081,34432
4082,34368
4083,34304
4084,34368
4085,34368
4086,34304
4087,34304
4088,34304
4089,34368
4090,34304
4091,34368
4092,34432
4093,34496
4094,34432
4095,34496
4096,34560
4097,34560
4098,34560
4099,34560
4100,34624
4101,34752
4102,34752
4103,34816
4104,34880
4105,34944
4106,34944
4107,34944
4108,35008
4109,35136
4110,35136
4111,35136
4112,35136
4113,35200
4114,35200
4115,35136
4116,35136
4117,35072
4118,35072
4119,34944
4120,34816
4121,34752
4122,34624
4123,34368
4124,34112
4125,33856
4126,33664
4127,33472
4128,33280
4129,33280
4130,33216
4131,33152
4132,33152
4133,33152
4134,33216
4135,33280
4136,33280
4137,33280
4138,33408
4139,33408
4140,33472
4141,33472
4142,33536
4143,33600
4144,33536
4145,33600
4146,33664
4147,33664
4148,33664
4149,33600
4150,33664
4151,33664
4152,33664
4153,33600
4154,33600
4155,33664
4156,33664
4157,33600
4158,33600
4159,33664
4160,33600
4161,33600
4162,33536
4163,33664
4164,33600
4165,33600
4166,33600
4167,33600
4168,33664
4169,33600
4170,33600
4171,33600
4172,33600
4173,33600
4174,33600
4175,33600
4176,33664
4177,33600
4178,33536
4179,33600
4180,33600
4181,33536
4182,33536
4183,33536
4184,33600
4185,33600
4186,33600
4187,33600
4188,33664
4189,33664
4190,33600
4191,33664
4192,33664
4193,33664
4194,33664
4195,33600
4196,33664
4197,33664
4198,33664
4199,33664
4200,33664
4201,33728
4202,33664
4203,33664
4204,33728
4205,33728
4206,33728
4207,33728
4208,33792
4209,33856
4210,33920
4211,33984
4212,34112
4213,34176
4214,34240
4215,34240
4216,34304
4217,34304
4218,34176
4219,33984
4220,33856
4221,33728
4222,33664
4223,33600
4224,33472
4225,33472
4226,33472
4227,33408
4228,33408
4229,33472
4230,33600
4231,33600
4232,33600
4233,33664
4234,33728
4235,33728
4236,33728
4237,33728
4238,33792
4239,33792
4240,33792
4241,33792
4242,33856
4243,33792
4244,33600
4245,33216
4246,32896
4247,32896
4248,33344
4249,34368
4250,36032
4251,39104
4252,40640
4253,42112
4254,42048
4255,40128
4256,37376
4257,34624
4258,32512
4259,31232
4260,30592
4261,30464
4262,30720
4263,31360
4264,32000
4265,32640
4266,33344
4267,33728
4268,34048
4269,34240
4270,34368
4271,34432
4272,34496
4273,34432
4274,34368
4275,34368
4276,34368
4277,34304
4278,34240
4279,34240
4280,34240
4281,34240
4282,34176
4283,34240
4284,34240
4285,34240
4286,34240
4287,34304
4288,34368
4289,34432
4290,34432
4291,34496
4292,34560
4293,34560
4294,34560
4295,34624
4296,34688
4297,34752
4298,34816
4299,34816
4300,34944
4301,35008
4302,35008
4303,35072
4304,35136
4305,35200
4306,35264
4307,35264
4308,35264
4309,35328
4310,35264
4311,35200
4312,35136
4313,35200
4314,35136
4315,35008
4316,34880
4317,34688
4318,34496
4319,34240
4320,33984
4321,33856
4322,33664
4323,33472
4324,33344
4325,33280
4326,33216
4327,33152
4328,33088
4329,33152
4330,33216
4331,33280
4332,33344
4333,33408
4334,33472
4335,33536
4336,33600
4337,33600
4338,33728
4339,33728
4340,33728
4341,33728
4342,33728
4343,33728
4344,33728
4345,33728
4346,33728
4347,33728
4348,33728
4349,33728
4350,33728
4351,33728
4352,33728
4353,33664
4354,33664
4355,33728
4356,33664
4357,33664
4358,33664
4359,33728
4360,33728
4361,33664
4362,33664
4363,33728
4364,33728
4365,33664
4366,33600
4367,33664
4368,33728
4369,33664
4370,33664
4371,33664
4372,33664
4373,33664
4374,33536
4375,33536
4376,33600
4377,33600
4378,33600
4379,33664
4380,33728
4381,33728
4382,33664
4383,33600
4384,33664
4385,33664
4386,33664
4387,33664
4388,33728
4389,33728
4390,33664
4391,33664
4392,33728
4393,33728
4394,33728
4395,33728
4396,33728
4397,33792
4398,33792
4399,33728
4400,33728
4401,33792
4402,33792
4403,33728
4404,33792
4405,33792
4406,33792
4407,33792
4408,33792
4409,33856
4410,33856
4411,33792
4412,33792
4413,33856
4414,33856
4415,33792
4416,33792
4417,33856
4418,33856
4419,33792
4420,33792
4421,33856
4422,33920
4423,33920
4424,33984
4425,34048
4426,34240
4427,34304
4428,34368
4429,34368
4430,34432
4431,34432
4432,34304
4433,34176
4434,34112
4435,33984
4436,33792
4437,33664
4438,33664
4439,33664
4440,33536
4441,33536
4442,33600
4443,33664
4444,33664
4445,33664
4446,33728
4447,33792
4448,33856
4449,33856
4450,33920
4451,33920
4452,33920
4453,33856
4454,33856
4455,33920
4456,33920
4457,33792
4458,33600
4459,33344
4460,33024
4461,33088
4462,33472
4463,34496
4464,36224
4465,38272
4466,40704
4467,42368
4468,42368
4469,40448
4470,37632
4471,34816
4472,32640
4473,31168
4474,30464
4475,30400
4476,30976
4477,31296
4478,31936
4479,32640
4480,33280
4481,33728
4482,33984
4483,34240
4484,34432
4485,34496
4486,34496
4487,34432
4488,34496
4489,34432
4490,34368
4491,34304
4492,34304
4493,34304
4494,34240
4495,34240
4496,34240
4497,34304
4498,34304
4499,34240
4500,34304
4501,34368
4502,34432
4503,34368
4504,34432
4505,34496
4506,34560
4507,34560
4508,34560
4509,34688
4510,34688
4511,34752
4512,34816
4513,34880
4514,34944
4515,34944
4516,34944
4517,35072
4518,35136
4519,35136
4520,35200
4521,35264
4522,35328
4523,35264
4524,35200
4525,35200
4526,35200
4527,35136
4528,35072
4529,35008
4530,34944
4531,34816
4532,34624
4533,34432
4534,34176
4535,33984
4536,33600
4537,33536
4538,33408
4539,33280
4540,33152
4541,33088
4542,33152
4543,33152
4544,33152
4545,33152
4546,33216
4547,33280
4548,33344
4549,33344
4550,33472
4551,33536
4552,33536
4553,33536
4554,33600
4555,33664
4556,33664
4557,33600
4558,33600
4559,33600
4560,33600
4561,33600
4562,33600
4563,33600
4564,33600
4565,33536
4566,33536
4567,33536
4568,33536
4569,33536
4570,33472
4571,33536
4572,33536
4573,33536
4574,33536
4575,33600
4576,33664
4577,33664
4578,33664
4579,33664
4580,33664
4581,33664
4582,33664
4583,33600
4584,33664
4585,33664
4586,33600
4587,33536
4588,33536
4589,33536
4590,33472
4591,33408
4592,33472
4593,33600
4594,33664
4595,33728
4596,33792
4597,33920
4598,33856
4599,33728
4600,33728
4601,33728
4602,33728
4603,33664
4604,33664
4605,33728
4606,33728
4607,33728
4608,33792
4609,33792
4610,33856
4611,33792
4612,33792
4613,33792
4614,33792
4615,33792
4616,33728
4617,33792
4618,33856
4619,33856
4620,33792
4621,33856
4622,33920
4623,33920
4624,33856
4625,33856
4626,33920
4627,33856
4628,33792
4629,33856
4630,33856
4631,33856
4632,33792
4633,33792
4634,33856
4635,33856
4636,33856
4637,33856
4638,33856
4639,33920
4640,33920
4641,34048
4642,34112
4643,34304
4644,34368
4645,34432
4646,34496
4647,34560
4648,34496
4649,34304
4650,34176
4651,34112
4652,33984
4653,33792
4654,33728
4655,33664
4656,33664
4657,33536
4658,33536
4659,33664
4660,33664
4661,33728
4662,33728
4663,33792
4664,33856
4665,33920
4666,33920
4667,33920
4668,33984
4669,33984
4670,33984
4671,34048
4672,34048
4673,33984
4674,33792
4675,33536
4676,33216
4677,33024
4678,33280
4679,34112
4680,35584
4681,37632
4682,40128
4683,42048
4684,42688
4685,41344
4686,38592
4687,35584
4688,33088
4689,31424
4690,30528
4691,30336
4692,30656
4693,31232
4694,31872
4695,32576
4696,33216
4697,33728
4698,34048
4699,34240
4700,34432
4701,34560
4702,34560
4703,34496
4704,34496
4705,34496
4706,34496
4707,34368
4708,34304
4709,34304
4710,34304
4711,34304
4712,34304
4713,34304
4714,34368
4715,34368
4716,34368
4717,34432
4718,34496
4719,34496
4720,34496
4721,34496
4722,34560
4723,34560
4724,34560
4725,34624
4726,34688
4727,34752
4728,34752
4729,34816
4730,34944
4731,35008
4732,35008
4733,35072
4734,35200
4735,35264
4736,35264
4737,35264
4738,35328
4739,35328
4740,35328
4741,35200
4742,35264
4743,35264
4744,35264
4745,35200
4746,35136
4747,35008
4748,34816
4749,34560
4750,34304
4751,34048
4752,33856
4753,33600
4754,33408
4755,33344
4756,33216
4757,33152
4758,33088
4759,33152
4760,33216
4761,33216
4762,33280
4763,33408
4764,33536
4765,33536
4766,33536
4767,33600
4768,33664
4769,33664
4770,33600
4771,33664
4772,33664
4773,33664
4774,33600
4775,33600
4776,33664
4777,33664
4778,33664
4779,33664
4780,33728
4781,33728
4782,33664
4783,33664
4784,33728
4785,33792
4786,33792
4787,33728
4788,33728
4789,33792
4790,33792
4791,33728
4792,33728
4793,33728
4794,33728
4795,33664
4796,33664
4797,33664
4798,33664
4799,33664
4800,33664
4801,33728
4802,33728
4803,33664
4804,33664
4805,33728
4806,33792
4807,33728
4808,33728
4809,33792
4810,33792
4811,33728
4812,33664
4813,33728
4814,33856
4815,33856
4816,33792
4817,33792
4818,33856
4819,33792
4820,33728
4821,33728
4822,33792
4823,33792
4824,33728
4825,33792
4826,33856
4827,33920
4828,33856
4829,33856
4830,33920
4831,33920
4832,33856
4833,33856
4834,33920
4835,33920
4836,33856
4837,33856
4838,33856
4839,33920
4840,33920
4841,33920
4842,33984
4843,34048
4844,34112
4845,34112
4846,34176
4847,34368
4848,34432
4849,34432
4850,34432
4851,34368
4852,34304
4853,34176
4854,34048
4855,33920
4856,33856
4857,33728
4858,33664
4859,33664
4860,33664
4861,33664
4862,33664
4863,33728
4864,33792
4865,33792
4866,33792
4867,33920
4868,33920
4869,33984
4870,33920
4871,33920
4872,33984
4873,33984
4874,33984
4875,33984
4876,33920
4877,33728
4878,33408
4879,33024
4880,32960
4881,33408
4882,34240
4883,35904
4884,38400
4885,40768
4886,42240
4887,41920
4888,39936
4889,37312
4890,34880
4891,32960
4892,31808
4893,31104
4894,30848
4895,30976
4896,31360
4897,32000
4898,32704
4899,33280
4900,33728
4901,34176
4902,34432
4903,34560
4904,34624
4905,34688
4906,34688
4907,34624
4908,34560
4909,34560
4910,34560
4911,34496
4912,34432
4913,34496
4914,34496
4915,34432
4916,34368
4917,34368
4918,34432
4919,34496
4920,34496
4921,34560
4922,34560
4923,34560
4924,34560
4925,34560
4926,34688
4927,34688
4928,34688
4929,34752
4930,34880
4931,34944
4932,34944
4933,34944
4934,35008
4935,35072
4936,35136
4937,35136
4938,35264
4939,35264
4940,35264
4941,35200
4942,35200
4943,35264
4944,35264
4945,35200
4946,35136
4947,35136
4948,35072
4949,34880
4950,34688
4951,34560
4952,34304
4953,34048
4954,33792
4955,33600
4956,33472
4957,33280
4958,33216
4959,33280
4960,33280
4961,33216
4962,33152
4963,33216
4964,33344
4965,33408
4966,33408
4967,33472
4968,33600
4969,33600
4970,33600
4971,33664
4972,33728
4973,33728
4974,33728
4975,33728
4976,33728
4977,33728
4978,33664
4979,33664
4980,33664
4981,33728
4982,33664
4983,33664
4984,33728
4985,33792
4986,33728
4987,33728
4988,33728
4989,33728
4990,33728
4991,33664
4992,33664
4993,33728
4994,33728
4995,33664
4996,33664
4997,33728
4998,33728
4999,33664
5000,33664
5001,33664
5002,33664
5003,33600
5004,33600
5005,33664
5006,33728
5007,33728
5008,33664
5009,33728
5010,33728
5011,33728
5012,33664
5013,33664
5014,33728
5015,33728
5016,33728
5017,33728
5018,33792
5019,33792
5020,33728
5021,33728
5022,33792
5023,33792
5024,33728
5025,33728
5026,33792
5027,33856
5028,33856
5029,33856
5030,33856
5031,33856
5032,33856
5033,33792
5034,33920
5035,33984
5036,34048
5037,34112
5038,34240
5039,34368
5040,34368
5041,34304
5042,34176
5043,34112
5044,33984
5045,33792
5046,33664
5047,33664
5048,33600
5049,33536
5050,33472
5051,33536
5052,33600
5053,33600
5054,33664
5055,33728
5056,33792
5057,33792
5058,33792
5059,33856
5060,33920
5061,33920
5062,33856
5063,33856
5064,33920
5065,33856
5066,33792
5067,33728
5068,33536
5069,33152
5070,32832
5071,32960
5072,33664
5073,34880
5074,36736
5075,39168
5076,41344
5077,42240
5078,41216
5079,38656
5080,36224
5081,33920
5082,32192
5083,31168
5084,30656
5085,30656
5086,30976
5087,31552
5088,32192
5089,32896
5090,33472
5091,33856
5092,34176
5093,34432
5094,34496
5095,34560
5096,34560
5097,34560
5098,34496
5099,34432
5100,34368
5101,34368
5102,34368
5103,34304
5104,34240
5105,34240
5106,34304
5107,34304
5108,34304
5109,34368
5110,34432
5111,34432
5112,34432
5113,34496
5114,34560
5115,34624
5116,34624
5117,34624
5118,34688
5119,34752
5120,34752
5121,34816
5122,34880
5123,34944
5124,35008
5125,35008
5126,35072
5127,35136
5128,35136
5129,35136
5130,35200
5131,35264
5132,35264
5133,35136
5134,35136
5135,35136
5136,35072
5137,35008
5138,34944
5139,34880
5140,34752
5141,34496
5142,34304
5143,34112
5144,33856
5145,33600
5146,33408
5147,33344
5148,33280
5149,33152
5150,33152
5151,33152
5152,33216
5153,33216
5154,33216
5155,33216
5156,33344
5157,33344
5158,33408
5159,33472
5160,33536
5161,33600
5162,33600
5163,33600
5164,33600
5165,33664
5166,33600
5167,33600
5168,33664
5169,33664
5170,33600
5171,33664
5172,33664
5173,33664
5174,33664
5175,33664
5176,33664
5177,33728
5178,33664
5179,33600
5180,33600
5181,33600
5182,33536
5183,33536
5184,33600
5185,33600
5186,33600
5187,33536
5188,33600
5189,33664
5190,33664
5191,33600
5192,33600
5193,33664
5194,33664
5195,33600
5196,33600
5197,33600
5198,33664
5199,33600
5200,33600
5201,33600
5202,33664
5203,33664
5204,33600
5205,33664
5206,33664
5207,33664
5208,33664
5209,33664
5210,33728
5211,33728
5212,33664
5213,33664
5214,33728
5215,33792
5216,33728
5217,33728
5218,33792
5219,33792
5220,33664
5221,33664
5222,33728
5223,33792
5224,33728
5225,33728
5226,33856
5227,33920
5228,33856
5229,33792
5230,33792
5231,33792
5232,33792
5233,33792
5234,33920
5235,34048
5236,34112
5237,34176
5238,34240
5239,34368
5240,34368
5241,34304
5242,34240
5243,34176
5244,34112
5245,33920
5246,33792
5247,33728
5248,33664
5249,33600
5250,33536
5251,33600
5252,33664
5253,33664
5254,33600
5255,33664
5256,33728
5257,33792
5258,33792
5259,33856
5260,33920
5261,33920
5262,33856
5263,33856
5264,33920
5265,33984
5266,33984
5267,33792
5268,33600
5269,33216
5270,32896
5271,33024
5272,33792
5273,35072
5274,36992
5275,39296
5276,41408
5277,42432
5278,41600
5279,39168
5280,36416
5281,33920
5282,31936
5283,30912
5284,30464
5285,30592
5286,30976
5287,31680
5288,32384
5289,33088
5290,33600
5291,33920
5292,34176
5293,34368
5294,34560
5295,34560
5296,34560
5297,34560
5298,34496
5299,34432
5300,34368
5301,34368
5302,34368
5303,34304
5304,34304
5305,34304
5306,34368
5307,34368
5308,34304
5309,34240
5310,34176
5311,34240
5312,34240
5313,34368
5314,34432
5315,34560
5316,34624
5317,34752
5318,34880
5319,34880
5320,34816
5321,34816
5322,34880
5323,35008
5324,35008
5325,35072
5326,35072
5327,35136
5328,35136
5329,35200
5330,35200
5331,35136
5332,35072
5333,35072
5334,35200
5335,35328
5336,35392
5337,35264
5338,35200
5339,35072
5340,34944
5341,34752
5342,34624
5343,34496
5344,34240
5345,33920
5346,33664
5347,33472
5348,33408
5349,33280
5350,33216
5351,33152
5352,33152
5353,33152
5354,33152
5355,33280
5356,33408
5357,33536
5358,33536
5359,33600
5360,33664
5361,33728
5362,33728
5363,33792
5364,33856
5365,33856
5366,33792
5367,33728
5368,33792
5369,33920
5370,33920
5371,33920
5372,33856
5373,33792
5374,33664
5375,33664
5376,33600
5377,33536
5378,33536
5379,33472
5380,33728
5381,33728
5382,33664
5383,33792
5384,33920
5385,33920
5386,33856
5387,33792
5388,33792
5389,33792
5390,33728
5391,33664
5392,33600
5393,33536
5394,33472
5395,33408
5396,33536
5397,33536
5398,33536
5399,33600
5400,33728
5401,33728
5402,33792
5403,33792
5404,33792
5405,33728
5406,33728
5407,33728
5408,33728
5409,33664
5410,33600
5411,33664
5412,33664
5413,33728
5414,33728
5415,33664
5416,33728
5417,33792
5418,33792
5419,33664
5420,33536
5421,33536
5422,33600
5423,33664
5424,33600
5425,33792
5426,33856
5427,33984
5428,34048
5429,33984
5430,34112
5431,34496
5432,34432
5433,34304
5434,34176
5435,33984
5436,33792
5437,33792
5438,33728
5439,33600
5440,33536
5441,33536
5442,33472
5443,33408
5444,33280
5445,33280
5446,33344
5447,33472
5448,33600
5449,33728
5450,33920
5451,33984
5452,33984
5453,33984
5454,34048
5455,33984
5456,34048
5457,33984
5458,33856
5459,33728
5460,33472
5461,33024
5462,32768
5463,33024
5464,33856
5465,35328
5466,37504
5467,40128
5468,42240
5469,42688
5470,42560
5471,38528
5472,35456
5473,32832
5474,31040
5475,30208
5476,30144
5477,30464
5478,30976
5479,31616
5480,32384
5481,33024
5482,33472
5483,33984
5484,34304
5485,34560
5486,34560
5487,34496
5488,34496
5489,34496
5490,34432
5491,34368
5492,34368
5493,34304
5494,34176
5495,34048
5496,34048
5497,34112
5498,34112
5499,34048
5500,34048
5501,34112
5502,34176
5503,34176
5504,34240
5505,34496
5506,34688
5507,34752
5508,34752
5509,34816
5510,34752
5511,34688
5512,34688
5513,34880
5514,35008
5515,34944
5516,34944
5517,35008
5518,35136
5519,35200
5520,35264
5521,35392
5522,35456
5523,35456
5524,35392
5525,35328
5526,35264
5527,35264
5528,35264
5529,35200
5530,35072
5531,34944
5532,34688
5533,34432
5534,34240
5535,34048
5536,33792
5537,33472
5538,33280
5539,33152
5540,33024
5541,33024
5542,33088
5543,33088
5544,33088
5545,33024
5546,33152
5547,33152
5548,33216
5549,33280
5550,33408
5551,33536
5552,33600
5553,33600
5554,33536
5555,33472
5556,33472
5557,33472
5558,33536
5559,33600
5560,33536
5561,33408
5562,33280
5563,33280
5564,33344
5565,33344
5566,33344
5567,33344
5568,33408
5569,33408
5570,33408
5571,33408
5572,33408
5573,33472
5574,33472
5575,33536
5576,33664
5577,33664
5578,33600
5579,33600
5580,33600
5581,33600
5582,33472
5583,33408
5584,33408
5585,33536
5586,33472
5587,33536
5588,33664
5589,33792
5590,33792
5591,33728
5592,33664
5593,33728
5594,33664
5595,33600
5596,33600
5597,33728
5598,33728
5599,33728
5600,33728
5601,33728
5602,33728
5603,33792
5604,33856
5605,33920
5606,33984
5607,33920
5608,33792
5609,33792
5610,33792
5611,33792
5612,33792
5613,33856
5614,33792
5615,33728
5616,33728
5617,33792
5618,33984
5619,34112
5620,34048
5621,34240
5622,34304
5623,34304
5624,34240
5625,34304
5626,34368
5627,34304
5628,34112
5629,33984
5630,33984
5631,33920
5632,33792
5633,33664
5634,33664
5635,33600
5636,33600
5637,33664
5638,33664
5639,33600
5640,33536
5641,33600
5642,33792
5643,33984
5644,34048
5645,33984
5646,33984
5647,34048
5648,34048
5649,34048
5650,33984
5651,34048
5652,33920
5653,33600
5654,33344
5655,33216
5656,33280
5657,33856
5658,34880
5659,36736
5660,39104
5661,41536
5662,42368
5663,41600
5664,39296
5665,36480
5666,34048
5667,32320
5668,31296
5669,30720
5670,30592
5671,30912
5672,31552
5673,32192
5674,32896
5675,33472
5676,33984
5677,34304
5678,34432
5679,34496
5680,34560
5681,34560
5682,34624
5683,34688
5684,34688
5685,34688
5686,34496
5687,34368
5688,34304
5689,34368
5690,34432
5691,34432
5692,34432
5693,34368
5694,34368
5695,34368
5696,34496
5697,34624
5698,34624
5699,34560
5700,34624
5701,34752
5702,34816
5703,34816
5704,34816
5705,34816
5706,34752
5707,34816
5708,35008
5709,35136
5710,35200
5711,35264
5712,35328
5713,35392
5714,35456
5715,35456
5716,35456
5717,35456
5718,35520
5719,35392
5720,35328
5721,35264
5722,35136
5723,35008
5724,34816
5725,34624
5726,34496
5727,34368
5728,34112
5729,33792
5730,33600
5731,33472
5732,33408
5733,33408
5734,33344
5735,33280
5736,33216
5737,33216
5738,33280
5739,33344
5740,33408
5741,33408
5742,33408
5743,33536
5744,33536
5745,33536
5746,33536
5747,33536
5748,33472
5749,33472
5750,33536
5751,33664
5752,33728
5753,33664
5754,33600
5755,33664
5756,33728
5757,33728
5758,33728
5759,33728
5760,33664
5761,33600
5762,33600
5763,33664
5764,33664
5765,33600
5766,33536
5767,33536
5768,33664
5769,33664
5770,33600
5771,33600
5772,33600
5773,33664
5774,33664
5775,33728
5776,33792
5777,33728
5778,33600
5779,33536
5780,33600
5781,33664
5782,33600
5783,33600
5784,33600
5785,33600
5786,33536
5787,33536
5788,33600
5789,33664
5790,33600
5791,33536
5792,33536
5793,33600
5794,33728
5795,33728
5796,33856
5797,33984
5798,34112
5799,34112
5800,34176
5801,34176
5802,34176
5803,34112
5804,33984
5805,33920
5806,33792
5807,33600
5808,33408
5809,33344
5810,33280
5811,33280
5812,33344
5813,33472
5814,33600
5815,33536
5816,33408
5817,33472
5818,33600
5819,33728
5820,33728
5821,33728
5822,33664
5823,33728
5824,33792
5825,33920
5826,33984
5827,33984
5828,33856
5829,33664
5830,33344
5831,32960
5832,32640
5833,32704
5834,33344
5835,34624
5836,36416
5837,38848
5838,41088
5839,42240
5840,41408
5841,39104
5842,36416
5843,34112
5844,32320
5845,31104
5846,30528
5847,30464
5848,30784
5849,31296
5850,31872
5851,32576
5852,33216
5853,33664
5854,34048
5855,34304
5856,34432
5857,34368
5858,34368
5859,34432
5860,34432
5861,34432
5862,34368
5863,34368
5864,34368
5865,34304
5866,34176
5867,34176
5868,34240
5869,34240
5870,34176
5871,34112
5872,34176
5873,34304
5874,34368
5875,34368
5876,34368
5877,34368
5878,34368
5879,34432
5880,34560
5881,34688
5882,34688
5883,34752
5884,34880
5885,34944
5886,34944
5887,34944
5888,35008
5889,35136
5890,35200
5891,35200
5892,35264
5893,35200
5894,35200
5895,35200
5896,35200
5897,35200
5898,35200
5899,35072
5900,34944
5901,34752
5902,34496
5903,34240
5904,34112
5905,33984
5906,33792
5907,33536
5908,33280
5909,33088
5910,33024
5911,33024
5912,32960
5913,33024
5914,33088
5915,33152
5916,33088
5917,33088
5918,33280
5919,33344
5920,33344
5921,33408
5922,33472
5923,33536
5924,33536
5925,33536
5926,33536
5927,33600
5928,33664
5929,33664
5930,33664
5931,33728
5932,33664
5933,33664
5934,33728
5935,33792
5936,33792
5937,33664
5938,33600
5939,33536
5940,33472
5941,33408
5942,33472
5943,33664
5944,33728
5945,33664
5946,33600
5947,33664
5948,33664
5949,33536
5950,33472
5951,33600
5952,33664
5953,33664
5954,33600
5955,33664
5956,33600
5957,33536
5958,33472
5959,33600
5960,33664
5961,33600
5962,33536
5963,33600
5964,33664
5965,33664
5966,33664
5967,33664
5968,33664
5969,33664
5970,33664
5971,33664
5972,33664
5973,33664
5974,33664
5975,33600
5976,33664
5977,33664
5978,33664
5979,33728
5980,33792
5981,33792
5982,33792
5983,33856
5984,33984
5985,34112
5986,34176
5987,34112
5988,34112
5989,34240
5990,34240
5991,34112
5992,34048
5993,33920
5994,33792
5995,33600
5996,33536
5997,33536
5998,33472
5999,33472
6000,33408
6001,33472
6002,33472
6003,33536
6004,33600
6005,33600
6006,33664
6007,33664
6008,33664
6009,33728
6010,33856
6011,33984
6012,33920
6013,33920
6014,33920
6015,33920
6016,33856
6017,33728
6018,33408
6019,33088
6020,32896
6021,33344
6022,34368
6023,36032
6024,38336
6025,40704
6026,42304
6027,42304
6028,40320
6029,37568
6030,34880
6031,32704
6032,31296
6033,30528
6034,30464
6035,30784
6036,31424
6037,31872
6038,32576
6039,33280
6040,33728
6041,33984
6042,34176
6043,34304
6044,34368
6045,34432
6046,34560
6047,34624
6048,34624
6049,34560
6050,34432
6051,34368
6052,34368
6053,34304
6054,34304
6055,34304
6056,34432
6057,34432
6058,34368
6059,34304
6060,34368
6061,34432
6062,34496
6063,34624
6064,34688
6065,34688
6066,34688
6067,34688
6068,34752
6069,34816
6070,34816
6071,34880
6072,35008
6073,35136
6074,35136
6075,35200
6076,35328
6077,35328
6078,35392
6079,35328
6080,35392
6081,35456
6082,35392
6083,35328
6084,35392
6085,35456
6086,35456
6087,35456
6088,35328
6089,35200
6090,34944
6091,34560
6092,34240
6093,34048
6094,33856
6095,33600
6096,33408
6097,33344
6098,33344
6099,33216
6100,33088
6101,33088
6102,33216
6103,33344
6104,33344
6105,33408
6106,33536
6107,33600
6108,33600
6109,33728
6110,33856
6111,33856
6112,33792
6113,33792
6114,33792
6115,33792
6116,33728
6117,33664
6118,33792
6119,33728
6120,33664
6121,33728
6122,33728
6123,33664
6124,33536
6125,33536
6126,33664
6127,33728
6128,33792
6129,33856
6130,33920
6131,33984
6132,33920
6133,33856
6134,33792
6135,33792
6136,33792
6137,33664
6138,33664
6139,33664
6140,33600
6141,33600
6142,33600
6143,33728
6144,33728
6145,33728
6146,33728
6147,33728
6148,33728
6149,33792
6150,33792
6151,33792
6152,33856
6153,33856
6154,33792
6155,33792
6156,33792
6157,33728
6158,33664
6159,33728
6160,33856
6161,33792
6162,33664
6163,33664
6164,33792
6165,33856
6166,33856
6167,33856
6168,33920
6169,33984
6170,34048
6171,34112
6172,34176
6173,34304
6174,34368
6175,34304
6176,34240
6177,34176
6178,34048
6179,33856
6180,33792
6181,33792
6182,33664
6183,33536
6184,33472
6185,33472
6186,33472
6187,33472
6188,33600
6189,33728
6190,33792
6191,33856
6192,33856
6193,33856
6194,33856
6195,33792
6196,33792
6197,33856
6198,33856
6199,33792
6200,33792
6201,33856
6202,33856
6203,33664
6204,33280
6205,32960
6206,32832
6207,33216
6208,34112
6209,35776
6210,38144
6211,40704
6212,42432
6213,42496
6214,40640
6215,37824
6216,35136
6217,32960
6218,31488
6219,30720
6220,30400
6221,30464
6222,30976
6223,31616
6224,32320
6225,32896
6226,33472
6227,33984
6228,34304
6229,34432
6230,34560
6231,34624
6232,34560
6233,34432
6234,34432
6235,34496
6236,34496
6237,34368
6238,34304
6239,34304
6240,34240
6241,34176
6242,34176
6243,34240
6244,34304
6245,34304
6246,34304
6247,34368
6248,34432
6249,34432
6250,34432
6251,34560
6252,34688
6253,34688
6254,34752
6255,34816
6256,34880
6257,34880
6258,34880
6259,35008
6260,35072
6261,35136
6262,35072
6263,35072
6264,35200
6265,35328
6266,35328
6267,35328
6268,35328
6269,35392
6270,35328
6271,35264
6272,35200
6273,35136
6274,35008
6275,34816
6276,34624
6277,34432
6278,34112
6279,33792
6280,33536
6281,33408
6282,33280
6283,33152
6284,33152
6285,33152
6286,33152
6287,33088
6288,33088
6289,33152
6290,33216
6291,33280
6292,33344
6293,33408
6294,33536
6295,33536
6296,33536
6297,33536
6298,33536
6299,33472
6300,33536
6301,33600
6302,33728
6303,33728
6304,33664
6305,33664
6306,33664
6307,33664
6308,33600
6309,33600
6310,33664
6311,33664
6312,33664
6313,33600
6314,33664
6315,33600
6316,33536
6317,33536
6318,33600
6319,33664
6320,33600
6321,33600
6322,33600
6323,33600
6324,33664
6325,33600
6326,33664
6327,33664
6328,33664
6329,33600
6330,33600
6331,33664
6332,33664
6333,33600
6334,33536
6335,33600
6336,33664
6337,33664
6338,33664
6339,33728
6340,33728
6341,33664
6342,33600
6343,33664
6344,33728
6345,33728
6346,33728
6347,33792
6348,33792
6349,33792
6350,33792
6351,33920
6352,34048
6353,34176
6354,34240
6355,34240
6356,34304
6357,34304
6358,34240
6359,34112
6360,34048
6361,33920
6362,33792
6363,33664
6364,33536
6365,33472
6366,33472
6367,33408
6368,33472
6369,33536
6370,33472
6371,33536
6372,33600
6373,33664
6374,33728
6375,33728
6376,33856
6377,33920
6378,33920
6379,33920
6380,33920
6381,33984
6382,33920
6383,33856
6384,33792
6385,33664
6386,33472
6387,33088
6388,32832
6389,33024
6390,33792
6391,35008
6392,36928
6393,39296
6394,41408
6395,42368
6396,40768
6397,39040
6398,36416
6399,33856
6400,31936
6401,30848
6402,30528
6403,30592
6404,30976
6405,31616
6406,32320
6407,32896
6408,33344
6409,33792
6410,34112
6411,34368
6412,34368
6413,34368
6414,34432
6415,34432
6416,34368
6417,34304
6418,34304
6419,34304
6420,34240
6421,34176
6422,34176
6423,34240
6424,34176
6425,34176
6426,34240
6427,34240
6428,34240
6429,34240
6430,34304
6431,34304
6432,34368
6433,34368
6434,34432
6435,34560
6436,34624
6437,34624
6438,34688
6439,34752
6440,34816
6441,34816
6442,34880
6443,35008
6444,35008
6445,35072
6446,35136
6447,35200
6448,35264
6449,35264
6450,35264
6451,35264
6452,35264
6453,35200
6454,35200
6455,35136
6456,35072
6457,34944
6458,34752
6459,34496
6460,34304
6461,33984
6462,33728
6463,33536
6464,33344
6465,33216
6466,33024
6467,32960
6468,32960
6469,33024
6470,33088
6471,33152
6472,33152
6473,33216
6474,33280
6475,33280
6476,33408
6477,33472
6478,33536
6479,33536
6480,33536
6481,33600
6482,33600
6483,33536
6484,33536
6485,33600
6486,33664
6487,33600
6488,33536
6489,33536
6490,33536
6491,33472
6492,33536
6493,33536
6494,33600
6495,33536
6496,33472
6497,33536
6498,33536
6499,33600
6500,33600
6501,33664
6502,33664
6503,33664
6504,33600
6505,33536
6506,33600
6507,33600
6508,33536
6509,33536
6510,33600
6511,33536
6512,33472
6513,33472
6514,33600
6515,33600
6516,33600
6517,33536
6518,33600
6519,33600
6520,33600
6521,33664
6522,33728
6523,33728
6524,33728
6525,33664
6526,33664
6527,33728
6528,33664
6529,33664
6530,33728
6531,33856
6532,33984
6533,34048
6534,34112
6535,34176
6536,34240
6537,34240
6538,34240
6539,34240
6540,34176
6541,33984
6542,33856
6543,33728
6544,33600
6545,33536
6546,33408
6547,33408
6548,33408
6549,33408
6550,33408
6551,33472
6552,33600
6553,33600
6554,33600
6555,33664
6556,33728
6557,33792
6558,33728
6559,33792
6560,33856
6561,33856
6562,33856
6563,33792
6564,33856
6565,33856
6566,33664
6567,33344
6568,33024
6569,32832
6570,33152
6571,34048
6572,35520
6573,37632
6574,40128
6575,41984
6576,42112
6577,41024
6578,38272
6579,35328
6580,32896
6581,31296
6582,30464
6583,30272
6584,30592
6585,31168
6586,31872
6587,32512
6588,33088
6589,33600
6590,33984
6591,34176
6592,34304
6593,34368
6594,34496
6595,34432
6596,34368
6597,34304
6598,34304
6599,34304
6600,34176
6601,34176
6602,34240
6603,34176
6604,34176
6605,34240
6606,34304
6607,34304
6608,34304
6609,34304
6610,34368
6611,34432
6612,34432
6613,34432
6614,34560
6615,34624
6616,34624
6617,34624
6618,34688
6619,34752
6620,34816
6621,34816
6622,34880
6623,34944
6624,35008
6625,35008
6626,35072
6627,35200
6628,35264
6629,35328
6630,35328
6631,35392
6632,35392
6633,35328
6634,35264
6635,35264
6636,35200
6637,35072
6638,34880
6639,34688
6640,34432
6641,34112
6642,33792
6643,33600
6644,33408
6645,33216
6646,33088
6647,33024
6648,33024
6649,33024
6650,33024
6651,33088
6652,33152
6653,33216
6654,33280
6655,33344
6656,33408
6657,33536
6658,33536
6659,33536
6660,33536
6661,33600
6662,33600
6663,33600
6664,33664
6665,33664
6666,33600
6667,33600
6668,33600
6669,33664
6670,33600
6671,33536
6672,33600
6673,33664
6674,33664
6675,33600
6676,33600
6677,33536
6678,33472
6679,33472
6680,33472
6681,33472
6682,33536
6683,33472
6684,33408
6685,33536
6686,33536
6687,33536
6688,33536
6689,33600
6690,33728
6691,33728
6692,33664
6693,33664
6694,33728
6695,33728
6696,33664
6697,33664
6698,33664
6699,33664
6700,33600
6701,33600
6702,33664
6703,33728
6704,33664
6705,33664
6706,33728
6707,33728
6708,33792
6709,33856
6710,33984
6711,34112
6712,34176
6713,34176
6714,34304
6715,34432
6716,34432
6717,34304
6718,34176
6719,34048
6720,33920
6721,33728
6722,33664
6723,33600
6724,33472
6725,33408
6726,33344
6727,33408
6728,33472
6729,33536
6730,33536
6731,33600
6732,33664
6733,33664
6734,33664
6735,33792
6736,33856
6737,33856
6738,33856
6739,33856
6740,33920
6741,33856
6742,33792
6743,33792
6744,33664
6745,33472
6746,33152
6747,32896
6748,33216
6749,34048
6750,35392
6751,37440
6752,40000
6753,41984
6754,42496
6755,41088
6756,38464
6757,35648
6758,33280
6759,31488
6760,30784
6761,30464
6762,30592
6763,31040
6764,31744
6765,32448
6766,33024
6767,33472
6768,33920
6769,34240
6770,34368
6771,34432
6772,34560
6773,34560
6774,34496
6775,34432
6776,34368
6777,34432
6778,34368
6779,34304
6780,34240
6781,34304
6782,34368
6783,34368
6784,34304
6785,34304
6786,34304
6787,34240
6788,34240
6789,34368
6790,34432
6791,34432
6792,34432
6793,34496
6794,34624
6795,34624
6796,34688
6797,34688
6798,34816
6799,34880
6800,34944
6801,35008
6802,35136
6803,35200
6804,35200
6805,35200
6806,35264
6807,35328
6808,35328
6809,35264
6810,35328
6811,35328
6812,35264
6813,35200
6814,35200
6815,35136
6816,34944
6817,34688
6818,34496
6819,34176
6820,33856
6821,33600
6822,33408
6823,33280
6824,33152
6825,33024
6826,33024
6827,33024
6828,33088
6829,33088
6830,33152
6831,33216
6832,33344
6833,33344
6834,33408
6835,33472
6836,33600
6837,33600
6838,33600
6839,33664
6840,33664
6841,33664
6842,33600
6843,33664
6844,33728
6845,33728
6846,33664
6847,33600
6848,33664
6849,33664
6850,33600
6851,33600
6852,33664
6853,33728
6854,33664
6855,33664
6856,33664
6857,33728
6858,33664
6859,33728
6860,33792
6861,33792
6862,33728
6863,33664
6864,33664
6865,33728
6866,33728
6867,33664
6868,33600
6869,33664
6870,33600
6871,33600
6872,33664
6873,33728
6874,33728
6875,33728
6876,33728
6877,33856
6878,33984
6879,33984
6880,34048
6881,34112
6882,34304
6883,34368
6884,34432
6885,34432
6886,34368
6887,34112
6888,33920
6889,33728
6890,33664
6891,33536
6892,33472
6893,33472
6894,33472
6895,33472
6896,33472
6897,33472
6898,33472
6899,33536
6900,33536
6901,33600
6902,33664
6903,33728
6904,33792
6905,33856
6906,33920
6907,33920
6908,33856
6909,33856
6910,33856
6911,33920
6912,33856
6913,33792
6914,33600
6915,33344
6916,32960
6917,32960
6918,33600
6919,34880
6920,36672
6921,39040
6922,41344
6923,42496
6924,41728
6925,39168
6926,36544
6927,34112
6928,32192
6929,31040
6930,30528
6931,30528
6932,30912
6933,31424
6934,32192
6935,32960
6936,33600
6937,33920
6938,34176
6939,34368
6940,34496
6941,34560
6942,34560
6943,34560
6944,34560
6945,34496
6946,34368
6947,34304
6948,34304
6949,34304
6950,34304
6951,34304
6952,34368
6953,34368
6954,34304
6955,34304
6956,34368
6957,34432
6958,34432
6959,34432
6960,34496
6961,34560
6962,34560
6963,34624
6964,34752
6965,34816
6966,34880
6967,34944
6968,34944
6969,35072
6970,35136
6971,35136
6972,35200
6973,35328
6974,35328
6975,35328
6976,35328
6977,35392
6978,35392
6979,35328
6980,35264
6981,35264
6982,35264
6983,35136
6984,35008
6985,34816
6986,34624
6987,34368
6988,34112
6989,33920
6990,33728
6991,33600
6992,33408
6993,33344
6994,33280
6995,33216
6996,33152
6997,33216
6998,33280
6999,33344
7000,33344
7001,33408
7002,33472
7003,33536
7004,33536
7005,33600
7006,33728
7007,33792
7008,33728
7009,33664
7010,33728
7011,33728
7012,33728
7013,33728
7014,33728
7015,33792
7016,33728
7017,33728
7018,33792
7019,33792
7020,33792
7021,33728
7022,33728
7023,33728
7024,33728
7025,33664
7026,33664
7027,33728
7028,33728
7029,33728
7030,33664
7031,33728
7032,33728
7033,33792
7034,33856
7035,33984
7036,34112
7037,34112
7038,34112
7039,34176
7040,34304
7041,34368
7042,34240
7043,34112
7044,33984
7045,33792
7046,33600
7047,33536
7048,33536
7049,33472
7050,33408
7051,33344
7052,33344
7053,33408
7054,33408
7055,33408
7056,33472
7057,33600
7058,33664
7059,33664
7060,33792
7061,33856
7062,33856
7063,33792
7064,33856
7065,33856
7066,33856
7067,33792
7068,33792
7069,33728
7070,33664
7071,33408
7072,33088
7073,32768
7074,32768
7075,33280
7076,34304
7077,36224
7078,38656
7079,40960
7080,42112
7081,41344
7082,39104
7083,36416
7084,34112
7085,32384
7086,31360
7087,30784
7088,30656
7089,30848
7090,31360
7091,32000
7092,32576
7093,33216
7094,33728
7095,34048
7096,34240
7097,34432
7098,34560
7099,34624
7100,34560
7101,34496
7102,34432
7103,34432
7104,34304
7105,34304
7106,34304
7107,34240
7108,34240
7109,34240
7110,34240
7111,34240
7112,34240
7113,34240
7114,34368
7115,34496
7116,34560
7117,34560
7118,34560
7119,34688
7120,34688
7121,34688
7122,34688
7123,34752
7124,34752
7125,34752
7126,34816
7127,34944
7128,35008
7129,35072
7130,35072
7131,35136
7132,35200
7133,35200
7134,35200
7135,35200
7136,35264
7137,35200
7138,35072
7139,34944
7140,34816
7141,34752
7142,34496
7143,34240
7144,34112
7145,33920
7146,33664
7147,33472
7148,33344
7149,33280
7150,33152
7151,33088
7152,33088
7153,33152
7154,33152
7155,33216
7156,33280
7157,33344
7158,33344
7159,33280
7160,33344
7161,33344
7162,33344
7163,33472
7164,33664
7165,33792
7166,33792
7167,33728
7168,33664
7169,33728
7170,33664
7171,33600
7172,33600
7173,33664
7174,33664
7175,33600
7176,33536
7177,33600
7178,33664
7179,33728
7180,33664
7181,33664
7182,33600
7183,33600
7184,33536
7185,33536
7186,33600
7187,33600
7188,33536
7189,33600
7190,33664
7191,33664
7192,33600
7193,33536
7194,33600
7195,33664
7196,33664
7197,33728
7198,33792
7199,33856
7200,33984
7201,34112
7202,34176
7203,34304
7204,34304
7205,34304
7206,34176
7207,33920
7208,33856
7209,33664
7210,33600
7211,33472
7212,33344
7213,33344
7214,33280
7215,33280
7216,33280
7217,33280
7218,33344
7219,33344
7220,33280
7221,33344
7222,33344
7223,33472
7224,33600
7225,33600
7226,33664
7227,33728
7228,33728
7229,33664
7230,33728
7231,33728
7232,33728
7233,33600
7234,33408
7235,33088
7236,32768
7237,32832
7238,33472
7239,34880
7240,34880
7241,38912
7242,41088
7243,42304
7244,41664
7245,39360
7246,36544
7247,33984
7248,32064
7249,30848
7250,30272
7251,30272
7252,30720
7253,31360
7254,32064
7255,32064
7256,33280
7257,33728
7258,33984
7259,34176
7260,34368
7261,34432
7262,34432
7263,34496
7264,34496
7265,34496
7266,34368
7267,34240
7268,34240
7269,34176
7270,34176
7271,34112
7272,34112
7273,34112
7274,34048
7275,34048
7276,34176
7277,34368
7278,34368
7279,34368
7280,34368
7281,34432
7282,34496
7283,34432
7284,34432
7285,34560
7286,34688
7287,34752
7288,34688
7289,34880
7290,34944
7291,34880
7292,34944
7293,35008
7294,35136
7295,35200
7296,35200
7297,35200
7298,35200
7299,35136
7300,35072
7301,35072
7302,35072
7303,34944
7304,34816
7305,34624
7306,34496
7307,34240
7308,33984
7309,33792
7310,33664
7311,33472
7312,33280
7313,33152
7314,33024
7315,33024
7316,33088
7317,33088
7318,33216
7319,33280
7320,33280
7321,33280
7322,33408
7323,33472
7324,33472
7325,33472
7326,33536
7327,33664
7328,33728
7329,33600
7330,33600
7331,33728
7332,33728
7333,33664
7334,33600
7335,33600
7336,33600
7337,33472
7338,33472
7339,33536
7340,33600
7341,33600
7342,33664
7343,33664
7344,33664
7345,33600
7346,33536
7347,33600
7348,33664
7349,33664
7350,33600
7351,33664
7352,33600
7353,33600
7354,33536
7355,33600
7356,33664
7357,33664
7358,33664
7359,33728
7360,33728
7361,33728
7362,33664
7363,33664
7364,33728
7365,33728
7366,33664
7367,33600
7368,33536
7369,33536
7370,33536
7371,33600
7372,33664
7373,33728
7374,33664
7375,33664
7376,33792
7377,33984
7378,34112
7379,34176
7380,34176
7381,34240
7382,34304
7383,34240
7384,34176
7385,34176
7386,34112
7387,33984
7388,33856
7389,33792
7390,33664
7391,33600
7392,33536
7393,33536
7394,33472
7395,33408
7396,33344
7397,33344
7398,33408
7399,33472
7400,33536
7401,33600
7402,33600
7403,33600
7404,33600
7405,33664
7406,33728
7407,33792
7408,33856
7409,33856
7410,33920
7411,33856
7412,33600
7413,33280
7414,32960
7415,32832
7416,33280
7417,34304
7418,35968
7419,38144
7420,40512
7421,42048
7422,42112
7423,40256
7424,37504
7425,34688
7426,32448
7427,31040
7428,30336
7429,30208
7430,30528
7431,31232
7432,32000
7433,32640
7434,33280
7435,33728
7436,33984
7437,34112
7438,34240
7439,34304
7440,34368
7441,34304
7442,34304
7443,34432
7444,34432
7445,34368
7446,34304
7447,34304
7448,34240
7449,34240
7450,34176
7451,34240
7452,34240
7453,34304
7454,34240
7455,34240
7456,34304
7457,34368
7458,34368
7459,34496
7460,34560
7461,34624
7462,34624
7463,34624
7464,34752
7465,34816
7466,34816
7467,34816
7468,34816
7469,34880
7470,35008
7471,35136
7472,35264
7473,35328
7474,35328
7475,35264
7476,35200
7477,35264
7478,35200
7479,35136
7480,35200
7481,35200
7482,35136
7483,35008
7484,34816
7485,34624
7486,34432
7487,34112
7488,33856
7489,33600
7490,33472
7491,33280
7492,33152
7493,33152
7494,33152
7495,33152
7496,33152
7497,33216
7498,33344
7499,33408
7500,33408
7501,33536
7502,33600
7503,33664
7504,33664
7505,33728
7506,33792
7507,33792
7508,33728
7509,33792
7510,33792
7511,33792
7512,33728
7513,33664
7514,33664
7515,33664
7516,33600
7517,33600
7518,33600
7519,33600
7520,33600
7521,33536
7522,33472
7523,33472
7524,33600
7525,33728
7526,33856
7527,33920
7528,33856
7529,33792
7530,33728
7531,33728
7532,33728
7533,33664
7534,33664
7535,33664
7536,33664
7537,33664
7538,33600
7539,33664
7540,33728
7541,33664
7542,33664
7543,33728
7544,33856
7545,33792
7546,33728
7547,33728
7548,33728
7549,33728
7550,33664
7551,33728
7552,33728
7553,33728
7554,33728
7555,33856
7556,33984
7557,34048
7558,34048
7559,34112
7560,34176
7561,34304
7562,34304
7563,34240
7564,34176
7565,34112
7566,33920
7567,33728
7568,33664
7569,33600
7570,33536
7571,33408
7572,33408
7573,33408
7574,33408
7575,33472
7576,33536
7577,33600
7578,33600
7579,33600
7580,33728
7581,33792
7582,33856
7583,33792
7584,33792
7585,33792
7586,33856
7587,33856
7588,33920
7589,33920
7590,33920
7591,33664
7592,33344
7593,33024
7594,33024
7595,33536
7596,34752
7597,36352
7598,38592
7599,40960
7600,42176
7601,41920
7602,39872
7603,37056
7604,34432
7605,32384
7606,31104
7607,30464
7608,30400
7609,30784
7610,31424
7611,32192
7612,32832
7613,33344
7614,33856
7615,34112
7616,34304
7617,34432
7618,34496
7619,34624
7620,34624
7621,34560
7622,34496
7623,34432
7624,34304
7625,34240
7626,34240
7627,34240
7628,34176
7629,34176
7630,34176
7631,34240
7632,34240
7633,34304
7634,34304
7635,34368
7636,34432
7637,34432
7638,34496
7639,34560
7640,34624
7641,34688
7642,34688
7643,34816
7644,34816
7645,34816
7646,34752
7647,34752
7648,34816
7649,34944
7650,35072
7651,35136
7652,35264
7653,35264
7654,35264
7655,35264
7656,35328
7657,35328
7658,35200
7659,35072
7660,35072
7661,35072
7662,34880
7663,34688
7664,34496
7665,34304
7666,34048
7667,33728
7668,33600
7669,33472
7670,33280
7671,33152
7672,33024
7673,33088
7674,33088
7675,33152
7676,33280
7677,33408
7678,33408
7679,33408
7680,33472
7681,33600
7682,33664
7683,33600
7684,33600
7685,33664
7686,33664
7687,33600
7688,33600
7689,33664
7690,33728
7691,33664
7692,33664
7693,33728
7694,33728
7695,33664
7696,33600
7697,33664
7698,33664
7699,33664
7700,33600
7701,33600
7702,33664
7703,33600
7704,33536
7705,33664
7706,33792
7707,33792
7708,33728
7709,33664
7710,33600
7711,33600
7712,33600
7713,33536
7714,33536
7715,33600
7716,33728
7717,33728
7718,33792
7719,33792
7720,33728
7721,33664
7722,33728
7723,33728
7724,33664
7725,33664
7726,33664
7727,33728
7728,33792
7729,33792
7730,33920
7731,33984
7732,34112
7733,34112
7734,34176
7735,34240
7736,34176
7737,33984
7738,33856
7739,33792
7740,33792
7741,33600
7742,33472
7743,33408
7744,33344
7745,33280
7746,33280
7747,33344
7748,33472
7749,33536
7750,33536
7751,33664
7752,33664
7753,33664
7754,33728
7755,33728
7756,33856
7757,33856
7758,33856
7759,33792
7760,33792
7761,33792
7762,33728
7763,33600
7764,33280
7765,32896
7766,32640
7767,32768
7768,33536
7769,34880
7770,36864
7771,39232
7772,41152
7773,41600
7774,40256
7775,37888
7776,35264
7777,33536
7778,32128
7779,31296
7780,30912
7781,30976
7782,31168
7783,31616
7784,32192
7785,32832
7786,33472
7787,33856
7788,34112
7789,34240
7790,34368
7791,34368
7792,34368
7793,34496
7794,34432
7795,34368
7796,34240
7797,34176
7798,34240
7799,34240
7800,34240
7801,34240
7802,34240
7803,34176
7804,34176
7805,34176
7806,34240
7807,34304
7808,34368
7809,34368
7810,34432
7811,34496
7812,34496
7813,34560
7814,34688
7815,34688
7816,34688
7817,34688
7818,34752
7819,34880
7820,34944
7821,34944
7822,34944
7823,34944
7824,34880
7825,34816
7826,34880
7827,35008
7828,35136
7829,35072
7830,35072
7831,35072
7832,35072
7833,34944
7834,34752
7835,34560
7836,34496
7837,34368
7838,34176
7839,33984
7840,33728
7841,33536
7842,33344
7843,33280
7844,33216
7845,33152
7846,33152
7847,33216
7848,33280
7849,33344
7850,33344
7851,33408
7852,33536
7853,33536
7854,33536
7855,33536
7856,33728
7857,33792
7858,33792
7859,33792
7860,33792
7861,33792
7862,33728
7863,33664
7864,33728
7865,33728
7866,33664
7867,33664
7868,33728
7869,33664
7870,33664
7871,33664
7872,33728
7873,33792
7874,33728
7875,33664
7876,33664
7877,33664
7878,33728
7879,33728
7880,33728
7881,33728
7882,33728
7883,33664
7884,33600
7885,33600
7886,33664
7887,33664
7888,33728
7889,33792
7890,33792
7891,33856
7892,33792
7893,33792
7894,33920
7895,34048
7896,34176
7897,34240
7898,34304
7899,34368
7900,34240
7901,34176
7902,34112
7903,34112
7904,33984
7905,33792
7906,33728
7907,33600
7908,33536
7909,33408
7910,33408
7911,33408
7912,33408
7913,33472
7914,33536
7915,33600
7916,33664
7917,33664
7918,33664
7919,33728
7920,33728
7921,33728
7922,33728
7923,33728
7924,33728
7925,33664
7926,33728
7927,33856
7928,33920
7929,33728
7930,33408
7931,33088
7932,32896
7933,33024
7934,33664
7935,34944
7936,36928
7937,39168
7938,40896
7939,41152
7940,39808
7941,37056
7942,35264
7943,33536
7944,32320
7945,31424
7946,30976
7947,30912
7948,31296
7949,31808
7950,32320
7951,32896
7952,33408
7953,33856
7954,34112
7955,34304
7956,34496
7957,34560
7958,34560
7959,34496
7960,34496
7961,34368
7962,34304
7963,34240
7964,34240
7965,34304
7966,34176
7967,34048
7968,34112
7969,34304
7970,34304
7971,34176
7972,34176
7973,34240
7974,34240
7975,34240
7976,34304
7977,34368
7978,34368
7979,34432
7980,34496
7981,34624
7982,34752
7983,34816
7984,34880
7985,34880
7986,34944
7987,34880
7988,34880
7989,34944
7990,35008
7991,35008
7992,34944
7993,34944
7994,34944
7995,34880
7996,34880
7997,34816
7998,34752
7999,34688
8000,34560
8001,34304
8002,34176
8003,34048
8004,33856
8005,33664
8006,33536
8007,33408
8008,33280
8009,33280
8010,33344
8011,33408
8012,33344
8013,33408
8014,33472
8015,33536
8016,33536
8017,33472
8018,33472
8019,33600
8020,33600
8021,33536
8022,33600
8023,33728
8024,33664
8025,33600
8026,33600
8027,33664
8028,33728
8029,33728
8030,33728
8031,33728
8032,33728
8033,33664
8034,33664
8035,33728
8036,33792
8037,33728
8038,33728
8039,33728
8040,33728
8041,33728
8042,33664
8043,33664
8044,33600
8045,33600
8046,33600
8047,33600
8048,33600
8049,33664
8050,33600
8051,33600
8052,33728
8053,33856
8054,33984
8055,33984
8056,34048
8057,34048
8058,34048
8059,34112
8060,34176
8061,34176
8062,34048
8063,33856
8064,33728
8065,33600
8066,33536
8067,33344
8068,33344
8069,33344
8070,33344
8071,33344
8072,33472
8073,33600
8074,33600
8075,33536
8076,33664
8077,33664
8078,33728
8079,33728
8080,33728
8081,33728
8082,33792
8083,33728
8084,33728
8085,33792
8086,33792
8087,33792
8088,33664
8089,33536
8090,33280
8091,32960
8092,32896
8093,33280
8094,34176
8095,35648
8096,37568
8097,39680
8098,41152
8099,41024
8100,39232
8101,36864
8102,34816
8103,33216
8104,32064
8105,31296
8106,31040
8107,31168
8108,31488
8109,31936
8110,32576
8111,33216
8112,33600
8113,33920
8114,34176
8115,34368
8116,34432
8117,34432
8118,34432
8119,34496
8120,34496
8121,34368
8122,34304
8123,34304
8124,34304
8125,34240
8126,34240
8127,34240
8128,34240
8129,34240
8130,34304
8131,34368
8132,34432
8133,34432
8134,34432
8135,34432
8136,34560
8137,34560
8138,34496
8139,34560
8140,34624
8141,34688
8142,34688
8143,34688
8144,34752
8145,34816
8146,34816
8147,34880
8148,34880
8149,34944
8150,34944
8151,34944
8152,35008
8153,35008
8154,35008
8155,34944
8156,34944
8157,34880
8158,34752
8159,34624
8160,34560
8161,34432
8162,34240
8163,33984
8164,33792
8165,33664
8166,33536
8167,33408
8168,33344
8169,33344
8170,33344
8171,33344
8172,33344
8173,33408
8174,33472
8175,33472
8176,33536
8177,33600
8178,33664
8179,33728
8180,33792
8181,33792
8182,33856
8183,33920
8184,33792
8185,33792
8186,33792
8187,33728
8188,33664
8189,33664
8190,33728
8191,33728
8192,33728
8193,33856
8194,33920
8195,33856
8196,33792
8197,33728
8198,33792
8199,33792
8200,33664
8201,33664
8202,33728
8203,33728
8204,33664
8205,33664
8206,33728
8207,33792
8208,33792
8209,33792
8210,33792
8211,33728
8212,33664
8213,33664
8214,33664
8215,33728
8216,33856
8217,33920
8218,34048
8219,34176
8220,34176
8221,34112
8222,34176
8223,34240
8224,34304
8225,34176
8226,34048
8227,33856
8228,33792
8229,33664
8230,33600
8231,33536
8232,33536
8233,33472
8234,33472
8235,33536
8236,33600
8237,33600
8238,33600
8239,33600
8240,33664
8241,33664
8242,33664
8243,33664
8244,33792
8245,33856
8246,33856
8247,33856
8248,33856
8249,33920
8250,33856
8251,33856
8252,33792
8253,33600
8254,33216
8255,32960
8256,33216
8257,33664
8258,34688
8259,36288
8260,38464
8261,40512
8262,41600
8263,40960
8264,38976
8265,36544
8266,34304
8267,32640
8268,31552
8269,30976
8270,30912
8271,31168
8272,31616
8273,32256
8274,32896
8275,33344
8276,33728
8277,34112
8278,34304
8279,34432
8280,34496
8281,34560
8282,34560
8283,34496
8284,34432
8285,34368
8286,34368
8287,34304
8288,34240
8289,34304
8290,34304
8291,34304
8292,34304
8293,34304
8294,34304
8295,34304
8296,34304
8297,34304
8298,34368
8299,34432
8300,34432
8301,34496
8302,34496
8303,34624
8304,34560
8305,34560
8306,34560
8307,34688
8308,34752
8309,34752
8310,34816
8311,34880
8312,34944
8313,34880
8314,34944
8315,35008
8316,35008
8317,34944
8318,34880
8319,34880
8320,34880
8321,34752
8322,34688
8323,34624
8324,34560
8325,34432
8326,34240
8327,34048
8328,33856
8329,33664
8330,33472
8331,33408
8332,33408
8333,33280
8334,33280
8335,33280
8336,33280
8337,33280
8338,33280
8339,33344
8340,33472
8341,33472
8342,33536
8343,33536
8344,33664
8345,33728
8346,33728
8347,33664
8348,33728
8349,33728
8350,33664
8351,33664
8352,33664
8353,33728
8354,33664
8355,33600
8356,33600
8357,33664
8358,33664
8359,33664
8360,33664
8361,33664
8362,33664
8363,33600
8364,33536
8365,33600
8366,33600
8367,33536
8368,33536
8369,33536
8370,33600
8371,33600
8372,33536
8373,33536
8374,33600
8375,33600
8376,33536
8377,33536
8378,33536
8379,33536
8380,33472
8381,33536
8382,33664
8383,33728
8384,33856
8385,33984
8386,34112
8387,34176
8388,34112
8389,34176
8390,34304
8391,34176
8392,34048
8393,33920
8394,33728
8395,33600
8396,33408
8397,33280
8398,33280
8399,33280
8400,33216
8401,33216
8402,33280
8403,33344
8404,33408
8405,33408
8406,33472
8407,33600
8408,33600
8409,33600
8410,33600
8411,33664
8412,33664
8413,33664
8414,33728
8415,33792
8416,33792
8417,33728
8418,33600
8419,33472
8420,33152
8421,32896
8422,32960
8423,33600
8424,34624
8425,36224
8426,38272
8427,40320
8428,41472
8429,41024
8430,38912
8431,36160
8432,33664
8433,31872
8434,30848
8435,30528
8436,30720
8437,31232
8438,31808
8439,32448
8440,33024
8441,33472
8442,33728
8443,33984
8444,34112
8445,34240
8446,34240
8447,34240
8448,34304
8449,34304
8450,34176
8451,34112
8452,34112
8453,34112
8454,34112
8455,34112
8456,34112
8457,34176
8458,34176
8459,34112
8460,34176
8461,34240
8462,34240
8463,34240
8464,34304
8465,34368
8466,34432
8467,34368
8468,34368
8469,34432
8470,34496
8471,34496
8472,34560
8473,34624
8474,34688
8475,34688
8476,34688
8477,34816
8478,34880
8479,34880
8480,34880
8481,34880
8482,34944
8483,34944
8484,34880
8485,34816
8486,34880
8487,34880
8488,34752
8489,34688
8490,34624
8491,34496
8492,34304
8493,34112
8494,33920
8495,33728
8496,33472
8497,33408
8498,33344
8499,33280
8500,33216
8501,33152
8502,33280
8503,33344
8504,33408
8505,33408
8506,33472
8507,33536
8508,33536
8509,33600
8510,33600
8511,33728
8512,33728
8513,33664
8514,33728
8515,33728
8516,33728
8517,33664
8518,33664
8519,33728
8520,33792
8521,33728
8522,33728
8523,33728
8524,33728
8525,33728
8526,33728
8527,33728
8528,33728
8529,33728
8530,33664
8531,33664
8532,33728
8533,33728
8534,33664
8535,33664
8536,33728
8537,33728
8538,33664
8539,33664
8540,33728
8541,33728
8542,33664
8543,33600
8544,33664
8545,33728
8546,33664
8547,33600
8548,33600
8549,33664
8550,33600
8551,33664
8552,33728
8553,33920
8554,34048
8555,34112
8556,34240
8557,34304
8558,34304
8559,34304
8560,34304
8561,34240
8562,34048
8563,33856
8564,33728
8565,33600
8566,33472
8567,33408
8568,33344
8569,33280
8570,33280
8571,33216
8572,33216
8573,33344
8574,33408
8575,33472
8576,33536
8577,33600
8578,33664
8579,33728
8580,33664
8581,33728
8582,33856
8583,33856
8584,33792
8585,33792
8586,33792
8587,33728
8588,33536
8589,33152
8590,32832
8591,32896
8592,33408
8593,34432
8594,36096
8595,38208
8596,40384
8597,41728
8598,41472
8599,39488
8600,36608
8601,33856
8602,31936
8603,30912
8604,30592
8605,30656
8606,31168
8607,31808
8608,32448
8609,33024
8610,33472
8611,33856
8612,34112
8613,34240
8614,34368
8615,34432
8616,34432
8617,34368
8618,34304
8619,34368
8620,34368
8621,34304
8622,34240
8623,34240
8624,34240
8625,34176
8626,34176
8627,34240
8628,34304
8629,34240
8630,34240
8631,34304
8632,34368
8633,34368
8634,34368
8635,34432
8636,34496
8637,34560
8638,34624
8639,34624
8640,34688
8641,34752
8642,34752
8643,34752
8644,34816
8645,34880
8646,34880
8647,34880
8648,35008
8649,35008
8650,35008
8651,34944
8652,34944
8653,34944
8654,34944
8655,34880
8656,34880
8657,34944
8658,34880
8659,34688
8660,34560
8661,34432
8662,34240
8663,33984
8664,33792
8665,33664
8666,33536
8667,33344
8668,33280
8669,33216
8670,33280
8671,33280
8672,33280
8673,33344
8674,33472
8675,33536
8676,33536
8677,33600
8678,33728
8679,33728
8680,33664
8681,33728
8682,33792
8683,33792
8684,33728
8685,33728
8686,33792
8687,33792
8688,33728
8689,33664
8690,33728
8691,33728
8692,33664
8693,33664
8694,33728
8695,33728
8696,33728
8697,33664
8698,33664
8699,33664
8700,33664
8701,33600
8702,33600
8703,33664
8704,33664
8705,33664
8706,33664
8707,33728
8708,33728
8709,33664
8710,33664
8711,33664
8712,33664
8713,33600
8714,33600
8715,33664
8716,33664
8717,33664
8718,33600
8719,33664
8720,33664
8721,33664
8722,33600
8723,33664
8724,33728
8725,33728
8726,33728
8727,33792
8728,33920
8729,34048
8730,34112
8731,34176
8732,34304
8733,34368
8734,34368
8735,34368
8736,34304
8737,34176
8738,33920
8739,33792
8740,33664
8741,33536
8742,33408
8743,33344
8744,33344
8745,33344
8746,33408
8747,33408
8748,33472
8749,33600
8750,33600
8751,33600
8752,33664
8753,33792
8754,33856
8755,33792
8756,33792
8757,33856
8758,33856
8759,33792
8760,33792
8761,33856
8762,33792
8763,33600
8764,33216
8765,32896
8766,32896
8767,33408
8768,34432
8769,36160
8770,38272
8771,40512
8772,41920
8773,41664
8774,39616
8775,36736
8776,34048
8777,32000
8778,30912
8779,30528
8780,30656
8781,31168
8782,31872
8783,32448
8784,33024
8785,33472
8786,33920
8787,34176
8788,34304
8789,34368
8790,34496
8791,34496
8792,34432
8793,34432
8794,34432
8795,34368
8796,34304
8797,34176
8798,34176
8799,34304
8800,34304
8801,34304
8802,34304
8803,34368
8804,34432
8805,34368
8806,34368
8807,34432
8808,34432
8809,34432
8810,34496
8811,34560
8812,34624
8813,34624
8814,34688
8815,34752
8816,34816
8817,34816
8818,34816
8819,34944
8820,35008
8821,34944
8822,34944
8823,34944
8824,35008
8825,35008
8826,35008
8827,35008
8828,35008
8829,35008
8830,34944
8831,34944
8832,34944
8833,34880
8834,34688
8835,34560
8836,34496
8837,34368
8838,34048
8839,33792
8840,33664
8841,33536
8842,33344
8843,33280
8844,33280
8845,33280
8846,33280
8847,33344
8848,33408
8849,33472
8850,33472
8851,33536
8852,33600
8853,33664
8854,33664
8855,33728
8856,33728
8857,33728
8858,33792
8859,33792
8860,33728
8861,33792
8862,33792
8863,33728
8864,33728
8865,33792
8866,33792
8867,33728
8868,33664
8869,33728
8870,33728
8871,33728
8872,33664
8873,33728
8874,33792
8875,33728
8876,33664
8877,33664
8878,33664
8879,33664
8880,33600
8881,33664
8882,33728
8883,33792
8884,33664
8885,33664
8886,33664
8887,33728
8888,33728
8889,33664
8890,33728
8891,33728
8892,33664
8893,33664
8894,33664
8895,33728
8896,33728
8897,33728
8898,33728
8899,33792
8900,33792
8901,33856
8902,33920
8903,34048
8904,34176
8905,34240
8906,34304
8907,34432
8908,34432
8909,34240
8910,34112
8911,34048
8912,33920
8913,33728
8914,33600
8915,33536
8916,33472
8917,33344
8918,33344
8919,33408
8920,33472
8921,33536
8922,33536
8923,33600
8924,33664
8925,33728
8926,33664
8927,33728
8928,33792
8929,33792
8930,33792
8931,33792
8932,33856
8933,33856
8934,33792
8935,33664
8936,33472
8937,33152
8938,32768
8939,32768
8940,33280
8941,34368
8942,36096
8943,38464
8944,40768
8945,41792
8946,40896
8947,38592
8948,36096
8949,34048
8950,32448
8951,31424
8952,30912
8953,30848
8954,31040
8955,31552
8956,32128
8957,32768
8958,33280
8959,33728
8960,33984
8961,34240
8962,34432
8963,34496
8964,34496
8965,34496
8966,34496
8967,34432
8968,34304
8969,34304
8970,34304
8971,34240
8972,34176
8973,34176
8974,34240
8975,34240
8976,34176
8977,34240
8978,34240
8979,34304
8980,34304
8981,34304
8982,34432
8983,34496
8984,34496
8985,34496
8986,34560
8987,34624
8988,34624
8989,34624
8990,34688
8991,34752
8992,34752
8993,34752
8994,34752
8995,34816
8996,34816
8997,34816
8998,34816
8999,34880
9000,34880
9001,34816
9002,34752
9003,34752
9004,34688
9005,34624
9006,34560
9007,34560
9008,34432
9009,34240
9010,34048
9011,33920
9012,33792
9013,33600
9014,33408
9015,33344
9016,33344
9017,33280
9018,33344
9019,33408
9020,33472
9021,33472
9022,33536
9023,33600
9024,33664
9025,33600
9026,33600
9027,33664
9028,33664
9029,33664
9030,33664
9031,33728
9032,33728
9033,33728
9034,33664
9035,33728
9036,33728
9037,33728
9038,33664
9039,33664
9040,33664
9041,33664
9042,33600
9043,33664
9044,33664
9045,33600
9046,33536
9047,33536
9048,33600
9049,33600
9050,33536
9051,33536
9052,33600
9053,33600
9054,33600
9055,33600
9056,33664
9057,33664
9058,33664
9059,33664
9060,33728
9061,33728
9062,33728
9063,33664
9064,33728
9065,33664
9066,33728
9067,33664
9068,33664
9069,33728
9070,33664
9071,33728
9072,33728
9073,33856
9074,33984
9075,34112
9076,34176
9077,34304
9078,34368
9079,34368
9080,34432
9081,34432
9082,34240
9083,34048
9084,33856
9085,33792
9086,33664
9087,33536
9088,33408
9089,33408
9090,33408
9091,33408
9092,33472
9093,33536
9094,33600
9095,33600
9096,33600
9097,33600
9098,33728
9099,33728
9100,33728
9101,33792
9102,33856
9103,33920
9104,33920
9105,33920
9106,33920
9107,33856
9108,33600
9109,33152
9110,32832
9111,32896
9112,33408
9113,34496
9114,36288
9115,38592
9116,40896
9117,42176
9118,41728
9119,39488
9120,36608
9121,33920
9122,32000
9123,30976
9124,30592
9125,30720
9126,31168
9127,31808
9128,32512
9129,33024
9130,33472
9131,33856
9132,34176
9133,34304
9134,34368
9135,34496
9136,34560
9137,34496
9138,34368
9139,34368
9140,34368
9141,34304
9142,34240
9143,34240
9144,34240
9145,34240
9146,34176
9147,34176
9148,34304
9149,34304
9150,34304
9151,34304
9152,34368
9153,34432
9154,34432
9155,34432
9156,34496
9157,34560
9158,34560
9159,34560
9160,34624
9161,34688
9162,34688
9163,34688
9164,34688
9165,34816
9166,34816
9167,34816
9168,34880
9169,34944
9170,34944
9171,34880
9172,34880
9173,34880
9174,34880
9175,34816
9176,34752
9177,34752
9178,34688
9179,34560
9180,34432
9181,34304
9182,34112
9183,33920
9184,33664
9185,33536
9186,33472
9187,33280
9188,33216
9189,33216
9190,33280
9191,33280
9192,33280
9193,33344
9194,33472
9195,33536
9196,33536
9197,33536
9198,33664
9199,33664
9200,33664
9201,33664
9202,33728
9203,33792
9204,33728
9205,33728
9206,33728
9207,33792
9208,33728
9209,33664
9210,33664
9211,33728
9212,33664
9213,33664
9214,33664
9215,33664
9216,33664
9217,33664
9218,33664
9219,33728
9220,33728
9221,33664
9222,33664
9223,33728
9224,33728
9225,33664
9226,33664
9227,33664
9228,33728
9229,33664
9230,33664
9231,33664
9232,33728
9233,33728
9234,33664
9235,33664
9236,33728
9237,33664
9238,33600
9239,33664
9240,33728
9241,33728
9242,33664
9243,33728
9244,33856
9245,33984
9246,34048
9247,34176
9248,34240
9249,34304
9250,34304
9251,34304
9252,34304
9253,34240
9254,34048
9255,33856
9256,33792
9257,33664
9258,33536
9259,33408
9260,33344
9261,33344
9262,33344
9263,33408
9264,33472
9265,33536
9266,33600
9267,33536
9268,33600
9269,33728
9270,33728
9271,33728
9272,33728
9273,33792
9274,33856
9275,33792
9276,33792
9277,33792
9278,33792
9279,33536
9280,33216
9281,32832
9282,32768
9283,33216
9284,34176
9285,35840
9286,38144
9287,40576
9288,42240
9289,42176
9290,40192
9291,37248
9292,34304
9293,32256
9294,30976
9295,30528
9296,30464
9297,30848
9298,31488
9299,32256
9300,32832
9301,33344
9302,33792
9303,34112
9304,34240
9305,34304
9306,34432
9307,34432
9308,34432
9309,34368
9310,34368
9311,34304
9312,34240
9313,34176
9314,34240
9315,34240
9316,34240
9317,34176
9318,34176
9319,34304
9320,34304
9321,34304
9322,34368
9323,34432
9324,34496
9325,34432
9326,34432
9327,34560
9328,34560
9329,34560
9330,34624
9331,34688
9332,34752
9333,34752
9334,34752
9335,34816
9336,34880
9337,34880
9338,34944
9339,35008
9340,35008
9341,35008
9342,34944
9343,34944
9344,35008
9345,34944
9346,34944
9347,34880
9348,34816
9349,34752
9350,34624
9351,34496
9352,34432
9353,34240
9354,33984
9355,33728
9356,33600
9357,33472
9358,33344
9359,33280
9360,33216
9361,33216
9362,33280
9363,33280
9364,33408
9365,33472
9366,33536
9367,33536
9368,33664
9369,33728
9370,33728
9371,33728
9372,33792
9373,33856
9374,33856
9375,33792
9376,33728
9377,33792
9378,33792
9379,33728
9380,33664
9381,33728
9382,33728
9383,33664
9384,33664
9385,33664
9386,33728
9387,33728
9388,33664
9389,33728
9390,33728
9391,33728
9392,33664
9393,33664
9394,33664
9395,33664
9396,33664
9397,33728
9398,33728
9399,33792
9400,33728
9401,33664
9402,33728
9403,33728
9404,33728
9405,33664
9406,33728
9407,33792
9408,33728
9409,33728
9410,33728
9411,33856
9412,33920
9413,33984
9414,34112
9415,34240
9416,34240
9417,34304
9418,34368
9419,34304
9420,34176
9421,33984
9422,33856
9423,33728
9424,33664
9425,33536
9426,33408
9427,33408
9428,33408
9429,33408
9430,33408
9431,33472
9432,33600
9433,33600
9434,33536
9435,33600
9436,33728
9437,33728
9438,33728
9439,33792
9440,33856
9441,33856
9442,33856
9443,33856
9444,33856
9445,33792
9446,33600
9447,33216
9448,32896
9449,32768
9450,33088
9451,33920
9452,35520
9453,37824
9454,40256
9455,41792
9456,41472
9457,39616
9458,36928
9459,34496
9460,32832
9461,31744
9462,31040
9463,30784
9464,30912
9465,31360
9466,32000
9467,32576
9468,33152
9469,33728
9470,34048
9471,34240
9472,34368
9473,34496
9474,34560
9475,34496
9476,34496
9477,34432
9478,34432
9479,34368
9480,34304
9481,34304
9482,34304
9483,34240
9484,34240
9485,34240
9486,34240
9487,34240
9488,34240
9489,34304
9490,34368
9491,34432
9492,34432
9493,34496
9494,34560
9495,34688
9496,34624
9497,34624
9498,34688
9499,34752
9500,34752
9501,34752
9502,34816
9503,34880
9504,34880
9505,34880
9506,34944
9507,35008
9508,34944
9509,34944
9510,34944
9511,34944
9512,34944
9513,34880
9514,34880
9515,34816
9516,34752
9517,34560
9518,34368
9519,34240
9520,34112
9521,33856
9522,33664
9523,33600
9524,33472
9525,33344
9526,33280
9527,33280
9528,33280
9529,33280
9530,33280
9531,33408
9532,33472
9533,33536
9534,33536
9535,33600
9536,33664
9537,33664
9538,33664
9539,33664
9540,33728
9541,33792
9542,33728
9543,33728
9544,33728
9545,33728
9546,33728
9547,33728
9548,33728
9549,33728
9550,33728
9551,33664
9552,33664
9553,33728
9554,33664
9555,33664
9556,33728
9557,33728
9558,33728
9559,33600
9560,33600
9561,33664
9562,33664
9563,33600
9564,33600
9565,33664
9566,33664
9567,33600
9568,33600
9569,33664
9570,33664
9571,33664
9572,33664
9573,33792
9574,33856
9575,33920
9576,33984
9577,34112
9578,34240
9579,34304
9580,34240
9581,34176
9582,34048
9583,33856
9584,33664
9585,33536
9586,33472
9587,33408
9588,33280
9589,33216
9590,33216
9591,33280
9592,33280
9593,33344
9594,33472
9595,33536
9596,33536
9597,33536
9598,33600
9599,33664
9600,33664
9601,33664
9602,33728
9603,33728
9604,33728
9605,33728
9606,33728
9607,33600
9608,33344
9609,32960
9610,32704
9611,32704
9612,33280
9613,34368
9614,36160
9615,38656
9616,40960
9617,41920
9618,41024
9619,38720
9620,36160
9621,33792
9622,32192
9623,31232
9624,30720
9625,30656
9626,30976
9627,31488
9628,32192
9629,32768
9630,33280
9631,33728
9632,34048
9633,34240
9634,34368
9635,34432
9636,34496
9637,34432
9638,34368
9639,34368
9640,34368
9641,34368
9642,34304
9643,34240
9644,34240
9645,34240
9646,34240
9647,34240
9648,34304
9649,34304
9650,34304
9651,34304
9652,34368
9653,34368
9654,34368
9655,34368
9656,34432
9657,34496
9658,34560
9659,34560
9660,34624
9661,34752
9662,34752
9663,34752
9664,34816
9665,34880
9666,34944
9667,34944
9668,34944
9669,35008
9670,35008
9671,34944
9672,34880
9673,34880
9674,34880
9675,34752
9676,34688
9677,34624
9678,34624
9679,34496
9680,34240
9681,34112
9682,33920
9683,33728
9684,33536
9685,33408
9686,33344
9687,33280
9688,33280
9689,33216
9690,33280
9691,33344
9692,33344
9693,33408
9694,33536
9695,33600
9696,33600
9697,33600
9698,33664
9699,33664
9700,33664
9701,33600
9702,33664
9703,33728
9704,33664
9705,33664
9706,33728
9707,33792
9708,33792
9709,33728
9710,33728
9711,33792
9712,33792
9713,33728
9714,33664
9715,33664
9716,33664
9717,33664
9718,33664
9719,33728
9720,33728
9721,33664
9722,33600
9723,33664
9724,33664
9725,33664
9726,33664
9727,33664
9728,33664
9729,33664
9730,33600
9731,33664
9732,33728
9733,33728
9734,33664
9735,33664
9736,33728
9737,33792
9738,33728
9739,33792
9740,33920
9741,34048
9742,34112
9743,34112
9744,34240
9745,34304
9746,34368
9747,34240
9748,34176
9749,34048
9750,33856
9751,33728
9752,33600
9753,33536
9754,33408
9755,33344
9756,33280
9757,33344
9758,33408
9759,33408
9760,33472
9761,33536
9762,33600
9763,33664
9764,33664
9765,33728
9766,33792
9767,33792
9768,33792
9769,33792
9770,33856
9771,33856
9772,33792
9773,33792
9774,33600
9775,33280
9776,32832
9777,32704
9778,33152
9779,34112
9780,35648
9781,37888
9782,40448
9783,42112
9784,42112
9785,40192
9786,37312
9787,34752
9788,32576
9789,31168
9790,30528
9791,30400
9792,30656
9793,31168
9794,31872
9795,32576
9796,33152
9797,33600
9798,33920
9799,34176
9800,34368
9801,34432
9802,34496
9803,34496
9804,34496
9805,34432
9806,34368
9807,34368
9808,34304
9809,34240
9810,34240
9811,34240
9812,34240
9813,34176
9814,34176
9815,34240
9816,34304
9817,34240
9818,34240
9819,34368
9820,34368
9821,34432
9822,34432
9823,34496
9824,34624
9825,34624
9826,34624
9827,34688
9828,34816
9829,34816
9830,34816
9831,34880
9832,34944
9833,35008
9834,35008
9835,34944
9836,35008
9837,35008
9838,34944
9839,34880
9840,34944
9841,34880
9842,34816
9843,34752
9844,34688
9845,34624
9846,34432
9847,34240
9848,34112
9849,33984
9850,33792
9851,33536
9852,33408
9853,33344
9854,33280
9855,33216
9856,33216
9857,33280
9858,33280
9859,33280
9860,33344
9861,33472
9862,33536
9863,33536
9864,33600
9865,33664
9866,33728
9867,33664
9868,33664
9869,33728
9870,33728
9871,33728
9872,33664
9873,33728
9874,33728
9875,33728
9876,33664
9877,33664
9878,33728
9879,33664
9880,33664
9881,33664
9882,33664
9883,33728
9884,33664
9885,33600
9886,33664
9887,33664
9888,33664
9889,33600
9890,33664
9891,33664
9892,33664
9893,33664
9894,33728
9895,33728
9896,33728
9897,33664
9898,33664
9899,33728
9900,33664
9901,33664
9902,33664
9903,33728
9904,33792
9905,33856
9906,33984
9907,34112
9908,34176
9909,34176
9910,34240
9911,34304
9912,34240
9913,34112
9914,33984
9915,33856
9916,33728
9917,33536
9918,33408
9919,33344
9920,33344
9921,33280
9922,33280
9923,33344
9924,33472
9925,33472
9926,33472
9927,33472
9928,33600
9929,33600
9930,33664
9931,33664
9932,33728
9933,33728
9934,33728
9935,33728
9936,33792
9937,33792
9938,33664
9939,33536
9940,33216
9941,32896
9942,32704
9943,33152
9944,34176
9945,35904
9946,38144
9947,40640
9948,42304
9949,42304
9950,40256
9951,37248
9952,34496
9953,32256
9954,30848
9955,30336
9956,30336
9957,30784
9958,31424
9959,32128
9960,32768
9961,33344
9962,33792
9963,34048
9964,34240
9965,34368
9966,34496
9967,34432
9968,34432
9969,34432
9970,34368
9971,34304
9972,34240
9973,34304
9974,34304
9975,34304
9976,34240
9977,34240
9978,34304
9979,34304
9980,34240
9981,34304
9982,34368
9983,34432
9984,34432
9985,34432
9986,34560
9987,34624
9988,34624
9989,34624
9990,34752
9991,34816
9992,34816
9993,34816
9994,34880
9995,34944
9996,34944
9997,34944
9998,35008
9999,35072
10000,35072
10001,35072
10002,35072
10003,35072
10004,35072
10005,35008
10006,34944
10007,34944
10008,34880
10009,34752
10010,34560
10011,34432
10012,34240
10013,33984
10014,33792
10015,33664
10016,33536
10017,33344
10018,33280
10019,33216
10020,33216
10021,33216
10022,33216
10023,33280
10024,33408
10025,33472
10026,33536
10027,33536
10028,33664
10029,33728
10030,33664
10031,33664
10032,33728
10033,33792
10034,33792
10035,33792
10036,33792
10037,33792
10038,33792
10039,33728
10040,33728
10041,33792
10042,33728
10043,33664
10044,33664
10045,33728
10046,33728
10047,33664
10048,33664
10049,33728
10050,33728
10051,33664
10052,33664
10053,33728
10054,33728
10055,33664
10056,33600
10057,33664
10058,33664
10059,33664
10060,33664
10061,33664
10062,33664
10063,33664
10064,33600
10065,33664
10066,33664
10067,33664
10068,33728
10069,33792
10070,33984
10071,34048
10072,34048
10073,34112
10074,34240
10075,34304
10076,34240
10077,34240
10078,34176
10079,33984
10080,33856
10081,33728
10082,33664
10083,33536
10084,33408
10085,33344
10086,33344
10087,33344
10088,33344
10089,33408
10090,33472
10091,33536
10092,33600
10093,33600
10094,33664
10095,33728
10096,33728
10097,33728
10098,33792
10099,33856
10100,33856
10101,33792
10102,33792
10103,33728
10104,33472
10105,33088
10106,32704
10107,32832
10108,33408
10109,34624
10110,36544
10111,39104
10112,41472
10113,42240
10114,41216
10115,38720
10116,35904
10117,33600
10118,31872
10119,30848
10120,30528
10121,30528
10122,30912
10123,31552
10124,32256
10125,32896
10126,33408
10127,33792
10128,34112
10129,34304
10130,34368
10131,34432
10132,34496
10133,34496
10134,34432
10135,34368
10136,34304
10137,34304
10138,34176
10139,34112
10140,34176
10141,34176
10142,34176
10143,34176
10144,34240
10145,34304
10146,34304
10147,34304
10148,34368
10149,34432
10150,34432
10151,34432
10152,34496
10153,34560
10154,34624
10155,34624
10156,34688
10157,34752
10158,34816
10159,34880
10160,34880
10161,34944
10162,35008
10163,35008
10164,35008
10165,35072
10166,35072
10167,35008
10168,34944
10169,34944
10170,34944
10171,34880
10172,34752
10173,34688
10174,34560
10175,34432
10176,34176
10177,34048
10178,33856
10179,33664
10180,33472
10181,33280
10182,33216
10183,33216
10184,33152
10185,33088
10186,33152
10187,33216
10188,33216
10189,33280
10190,33344
10191,33472
10192,33472
10193,33472
10194,33536
10195,33664
10196,33664
10197,33600
10198,33664
10199,33664
10200,33664
10201,33600
10202,33600
10203,33664
10204,33664
10205,33600
10206,33664
10207,33664
10208,33664
10209,33664
10210,33600
10211,33664
10212,33664
10213,33600
10214,33600
10215,33600
10216,33600
10217,33600
10218,33536
10219,33600
10220,33600
10221,33600
10222,33536
10223,33600
10224,33600
10225,33600
10226,33536
10227,33600
10228,33600
10229,33600
10230,33600
10231,33600
10232,33600
10233,33664
10234,33600
10235,33600
10236,33664
10237,33664
10238,33664
10239,33728
10240,33856
10241,33984
10242,34048
10243,34112
10244,34112
10245,34240
10246,34304
10247,34176
10248,34112
10249,34048
10250,33856
10251,33664
10252,33600
10253,33536
10254,33408
10255,33280
10256,33216
10257,33280
10258,33344
10259,33408
10260,33408
10261,33472
10262,33536
10263,33536
10264,33536
10265,33600
10266,33664
10267,33664
10268,33664
10269,33728
10270,33792
10271,33792
10272,33728
10273,33728
10274,33600
10275,33280
10276,32832
10277,32704
10278,33152
10279,34176
10280,35840
10281,38400
10282,40704
10283,42368
10284,42240
10285,40000
10286,37184
10287,34432
10288,32192
10289,30848
10290,30272
10291,30336
10292,30720
10293,31296
10294,32064
10295,32768
10296,33536
10297,33728
10298,34048
10299,34304
10300,34432
10301,34432
10302,34432
10303,34496
10304,34432
10305,34368
10306,34304
10307,34304
10308,34304
10309,34240
10310,34240
10311,34304
10312,34304
10313,34240
10314,34240
10315,34304
10316,34368
10317,34432
10318,34432
10319,34432
10320,34496
10321,34496
10322,34496
10323,34560
10324,34624
10325,34688
10326,34752
10327,34752
10328,34880
10329,34944
10330,34944
10331,35008
10332,35072
10333,35072
10334,35072
10335,35072
10336,35136
10337,35200
10338,35136
10339,35072
10340,35072
10341,35072
10342,34944
10343,34816
10344,34752
10345,34624
10346,34496
10347,34240
10348,34048
10349,33856
10350,33664
10351,33472
10352,33344
10353,33280
10354,33280
10355,33216
10356,33216
10357,33280
10358,33344
10359,33344
10360,33408
10361,33472
10362,33536
10363,33600
10364,33600
10365,33664
10366,33728
10367,33728
10368,33664
10369,33664
10370,33728
10371,33792
10372,33728
10373,33728
10374,33728
10375,33728
10376,33664
10377,33664
10378,33728
10379,33728
10380,33664
10381,33664
10382,33728
10383,33728
10384,33728
10385,33664
10386,33728
10387,33728
10388,33664
10389,33664
10390,33664
10391,33728
10392,33728
10393,33664
10394,33664
10395,33664
10396,33664
10397,33664
10398,33664
10399,33664
10400,33664
10401,33664
10402,33664
10403,33728
10404,33792
10405,33792
10406,33728
10407,33792
10408,33856
10409,33856
10410,33920
10411,33984
10412,34112
10413,34112
10414,34112
10415,34240
10416,34304
10417,34240
10418,34112
10419,33984
10420,33920
10421,33792
10422,33664
10423,33536
10424,33472
10425,33408
10426,33344
10427,33344
10428,33472
10429,33536
10430,33600
10431,33600
10432,33664
10433,33792
10434,33792
10435,33792
10436,33792
10437,33856
10438,33856
10439,33792
10440,33856
10441,33920
10442,33920
10443,33728
10444,33472
10445,33152
10446,32768
10447,32832
10448,33472
10449,34816
10450,36736
10451,39168
10452,41280
10453,42112
10454,41024
10455,38528
10456,35840
10457,33728
10458,32128
10459,31168
10460,30720
10461,30848
10462,31040
10463,31552
10464,32128
10465,32832
10466,33408
10467,33856
10468,34112
10469,34368
10470,34496
10471,34560
10472,34560
10473,34560
10474,34560
10475,34496
10476,34432
10477,34368
10478,34304
10479,34304
10480,34240
10481,34240
10482,34304
10483,34368
10484,34304
10485,34304
10486,34304
10487,34368
10488,34368
10489,34368
10490,34496
10491,34624
10492,34624
10493,34560
10494,34624
10495,34688
10496,34752
10497,34752
10498,34816
10499,34944
10500,35008
10501,34944
10502,35008
10503,35072
10504,35072
10505,35008
10506,35008
10507,35072
10508,35072
10509,35008
10510,34944
10511,34944
10512,34880
10513,34752
10514,34560
10515,34432
10516,34304
10517,34112
10518,33856
10519,33664
10520,33536
10521,33408
10522,33280
10523,33216
10524,33280
10525,33280
10526,33216
10527,33280
10528,33344
10529,33408
10530,33472
10531,33536
10532,33600
10533,33600
10534,33600
10535,33600
10536,33664
10537,33728
10538,33728
10539,33664
10540,33664
10541,33728
10542,33728
10543,33664
10544,33728
10545,33728
10546,33792
10547,33728
10548,33728
10549,33792
10550,33792
10551,33728
10552,33728
10553,33792
10554,33856
10555,33792
10556,33728
10557,33728
10558,33728
10559,33664
10560,33600
10561,33664
10562,33664
10563,33600
10564,33600
10565,33600
10566,33664
10567,33664
10568,33664
10569,33664
10570,33728
10571,33728
10572,33728
10573,33664
10574,33728
10575,33664
10576,33664
10577,33664
10578,33728
10579,33728
10580,33728
10581,33728
10582,33792
10583,33920
10584,33984
10585,34048
10586,34112
10587,34240
10588,34304
10589,34240
10590,34176
10591,34048
10592,33920
10593,33728
10594,33664
10595,33600
10596,33472
10597,33408
10598,33344
10599,33344
10600,33408
10601,33408
10602,33408
10603,33536
10604,33600
10605,33600
10606,33600
10607,33664
10608,33728
10609,33728
10610,33728
10611,33728
10612,33792
10613,33792
10614,33728
10615,33728
10616,33600
10617,33344
10618,32896
10619,32640
10620,33024
10621,33856
10622,35264
10623,37504
10624,40000
10625,41856
10626,42048
10627,40320
10628,37696
10629,35072
10630,32960
10631,31488
10632,30720
10633,30464
10634,30592
10635,31040
10636,31680
10637,32448
10638,33024
10639,33472
10640,33856
10641,34176
10642,34368
10643,34432
10644,34432
10645,34496
10646,34432
10647,34368
10648,34304
10649,34368
10650,34368
10651,34304
10652,34240
10653,34240
10654,34304
10655,34240
10656,34240
10657,34304
10658,34368
10659,34368
10660,34368
10661,34368
10662,34432
10663,34496
10664,34496
10665,34560
10666,34624
10667,34624
10668,34624
10669,34688
10670,34816
10671,34880
10672,34880
10673,34944
10674,35072
10675,35072
10676,35072
10677,35072
10678,35072
10679,35136
10680,35072
10681,35008
10682,35008
10683,35008
10684,34944
10685,34816
10686,34688
10687,34560
10688,34432
10689,34176
10690,33984
10691,33856
10692,33664
10693,33472
10694,33344
10695,33280
10696,33280
10697,33216
10698,33152
10699,33216
10700,33216
10701,33216
10702,33216
10703,33280
10704,33408
10705,33408
10706,33408
10707,33536
10708,33600
10709,33664
10710,33664
10711,33664
10712,33728
10713,33728
10714,33664
10715,33728
10716,33728
10717,33728
10718,33728
10719,33728
10720,33728
10721,33728
10722,33728
10723,33728
10724,33728
10725,33792
10726,33728
10727,33664
10728,33728
10729,33728
10730,33728
10731,33664
10732,33664
10733,33728
10734,33664
10735,33600
10736,33600
10737,33664
10738,33664
10739,33600
10740,33600
10741,33664
10742,33664
10743,33664
10744,33600
10745,33664
10746,33664
10747,33664
10748,33664
10749,33664
10750,33664
10751,33600
10752,33600
10753,33664
10754,33664
10755,33664
10756,33664
10757,33664
10758,33728
10759,33728
10760,33728
10761,33856
10762,33984
10763,34048
10764,34112
10765,34176
10766,34240
10767,34304
10768,34304
10769,34240
10770,34176
10771,34048
10772,33920
10773,33728
10774,33664
10775,33600
10776,33472
10777,33344
10778,33344
10779,33408
10780,33472
10781,33472
10782,33536
10783,33600
10784,33600
10785,33600
10786,33664
10787,33728
10788,33728
10789,33728
10790,33792
10791,33792
10792,33856
10793,33856
10794,33856
10795,33792
10796,33600
10797,33216
10798,32832
10799,32960
10800,33600
10801,34752
10802,36544
10803,38976
10804,41344
10805,42560
10806,41920
10807,39360
10808,36608
10809,33984
10810,31808
10811,30720
10812,30272
10813,30336
10814,30720
10815,31360
10816,32128
10817,32768
10818,33280
10819,33728
10820,34048
10821,34240
10822,34368
10823,34368
10824,34432
10825,34432
10826,34304
10827,34240
10828,34240
10829,34240
10830,34240
10831,34176
10832,34176
10833,34240
10834,34240
10835,34240
10836,34304
10837,34368
10838,34304
10839,34304
10840,34368
10841,34432
10842,34432
10843,34496
10844,34560
10845,34624
10846,34624
10847,34688
10848,34752
10849,34880
10850,34880
10851,34880
10852,34944
10853,35072
10854,35072
10855,35072
10856,35136
10857,35200
10858,35200
10859,35136
10860,35072
10861,35136
10862,35136
10863,35008
10864,34944
10865,34880
10866,34752
10867,34496
10868,34368
10869,34048
10870,33792
10871,33536
10872,33344
10873,33280
10874,33216
10875,33216
10876,33152
10877,33152
10878,33216
10879,33280
10880,33280
10881,33408
10882,33344
10883,33472
10884,33472
10885,33472
10886,33600
10887,33664
10888,33664
10889,33664
10890,33664
10891,33728
10892,33728
10893,33728
10894,33728
10895,33728
10896,33664
10897,33664
10898,33664
10899,33728
10900,33664
10901,33664
10902,33664
10903,33664
10904,33664
10905,33664
10906,33664
10907,33728
10908,33728
10909,33664
10910,33664
10911,33664
10912,33728
10913,33728
10914,33728
10915,33728
10916,33728
10917,33728
10918,33664
10919,33664
10920,33728
10921,33728
10922,33728
10923,33728
10924,33728
