,ECG
0,35072
1,35200
2,35328
3,35392
4,35456
5,35520
6,35392
7,35200
8,35072
9,35008
10,34880
11,34880
12,34816
13,34752
14,34560
15,34368
16,34240
17,34112
18,33920
19,33728
20,33536
21,33472
22,33472
23,33408
24,33280
25,33152
26,32896
27,32704
28,32640
29,32448
30,32320
31,32320
32,32384
33,32448
34,32512
35,32576
36,32640
37,32768
38,32896
39,33024
40,33280
41,33408
42,33472
43,33664
44,33920
45,34048
46,34112
47,34048
48,33856
49,33664
50,33600
51,33536
52,33536
53,33536
54,33600
55,33600
56,33600
57,33728
58,33856
59,33920
60,33984
61,34112
62,34240
63,34368
64,34368
65,34112
66,33856
67,33728
68,33792
69,33920
70,34112
71,34304
72,34496
73,34624
74,34688
75,34752
76,34880
77,34880
78,34816
79,34944
80,34880
81,34304
82,33664
83,33280
84,33216
85,33024
86,32768
87,32576
88,32128
89,31744
90,31808
91,32320
92,32832
93,33344
94,34048
95,34496
96,34368
97,34112
98,33984
99,33856
100,33664
101,33664
102,34048
103,34304
104,33792
105,33216
106,32896
107,32960
108,33088
109,33344
110,33664
111,33792
112,33408
113,32640
114,32128
115,32512
116,33408
117,35008
118,37760
119,40896
120,43072
121,43904
122,43200
123,41024
124,38336
125,35840
126,34240
127,32704
128,30400
129,28736
130,28224
131,28736
132,29824
133,30912
134,31808
135,32512
136,33088
137,33408
138,33728
139,33920
140,34112
141,34240
142,34368
143,34752
144,34560
145,34240
146,34112
147,34368
148,34944
149,35264
150,34624
151,34112
152,33984
153,33920
154,33856
155,34496
156,35264
157,34944
158,34304
159,34112
160,34112
161,34176
162,34368
163,34560
164,34752
165,34816
166,35008
167,35328
168,35840
169,36224
170,36608
171,36160
172,35264
173,34688
174,34432
175,34368
176,34304
177,34240
178,34240
179,34240
180,34048
181,33856
182,33728
183,33664
184,33536
185,33472
186,33344
187,33152
188,32896
189,32704
190,32512
191,32576
192,32704
193,32768
194,32896
195,33280
196,33152
197,32640
198,32384
199,32320
200,32512
201,32768
202,32896
203,32960
204,32960
205,32960
206,33088
207,33216
208,33408
209,33536
210,33600
211,33728
212,33728
213,33728
214,33792
215,33664
216,33536
217,33472
218,33472
219,33536
220,33600
221,33728
222,33728
223,33856
224,34048
225,34112
226,34176
227,34176
228,34176
229,34176
230,34240
231,34368
232,34432
233,34560
234,34688
235,34752
236,34624
237,34496
238,34432
239,34432
240,34368
241,34304
242,34240
243,34176
244,33984
245,33792
246,33600
247,33408
248,33216
249,33088
250,33024
251,32960
252,32960
253,33024
254,33088
255,33152
256,33216
257,33216
258,33152
259,33152
260,33088
261,33088
262,33216
263,33344
264,33408
265,33472
266,33536
267,33536
268,33472
269,33472
270,33536
271,33536
272,33344
273,32768
274,32064
275,31936
276,32576
277,33984
278,36288
279,39360
280,42176
281,43776
282,43712
283,42048
284,39552
285,36864
286,34240
287,31936
288,30144
289,29056
290,28736
291,29120
292,30080
293,31232
294,32192
295,32896
296,33280
297,33472
298,33664
299,33792
300,33920
301,33984
302,33984
303,33984
304,33984
305,33984
306,34048
307,34112
308,34176
309,34304
310,34304
311,34368
312,34304
313,34304
314,34368
315,34432
316,34496
317,34560
318,34688
319,34688
320,34688
321,34752
322,34816
323,34880
324,34944
325,35008
326,35072
327,35136
328,35200
329,35264
330,35264
331,35136
332,35072
333,35008
334,35008
335,35008
336,34944
337,34944
338,34816
339,34752
340,34560
341,34368
342,34112
343,33792
344,33408
345,33280
346,33152
347,32960
348,32704
349,32512
350,32448
351,32384
352,32320
353,32320
354,32384
355,32448
356,32576
357,32704
358,32832
359,32896
360,32896
361,32960
362,33024
363,33152
364,33216
365,33280
366,33344
367,33472
368,33536
369,33536
370,33600
371,33664
372,33664
373,33600
374,33600
375,33728
376,33856
377,33984
378,34112
379,34176
380,34304
381,34304
382,34304
383,34240
384,34240
385,34304
386,34368
387,34432
388,34496
389,34496
390,34432
391,34368
392,34240
393,34112
394,33984
395,33920
396,33792
397,33600
398,33408
399,33280
400,33088
401,32960
402,32896
403,32832
404,32832
405,32896
406,32896
407,32896
408,32960
409,33024
410,33152
411,33216
412,33280
413,33344
414,33408
415,33408
416,33472
417,33536
418,33600
419,33664
420,33664
421,33664
422,33664
423,33536
424,33152
425,32512
426,31936
427,31936
428,32768
429,34368
430,36928
431,40192
432,42944
433,44224
434,43712
435,41728
436,39168
437,36544
438,34048
439,31872
440,30208
441,29184
442,28800
443,29184
444,30208
445,31360
446,32256
447,32832
448,33152
449,33408
450,33600
451,33728
452,33792
453,33856
454,34048
455,34112
456,34112
457,34176
458,34176
459,34176
460,34240
461,34240
462,34304
463,34368
464,34432
465,34432
466,34496
467,34560
468,34624
469,34688
470,34688
471,34816
472,34944
473,34944
474,34944
475,35008
476,35072
477,35136
478,35200
479,35200
480,35264
481,35264
482,35264
483,35264
484,35264
485,35200
486,35136
487,35072
488,35008
489,34880
490,34752
491,34560
492,34368
493,34112
494,33856
495,33600
496,33408
497,33152
498,32960
499,32768
500,32704
501,32704
502,32640
503,32512
504,32448
505,32448
506,32448
507,32512
508,32640
509,32832
510,32832
511,32832
512,32832
513,32896
514,32960
515,32960
516,33024
517,33088
518,33152
519,33216
520,33344
521,33536
522,33664
523,33728
524,33856
525,34048
526,34176
527,34240
528,34240
529,34304
530,34368
531,34368
532,34368
533,34432
534,34560
535,34560
536,34432
537,34368
538,34304
539,34176
540,34112
541,33984
542,33920
543,33792
544,33664
545,33600
546,33472
547,33344
548,33152
549,32960
550,32960
551,33024
552,33088
553,32960
554,32896
555,32960
556,33088
557,33152
558,33152
559,33152
560,33216
561,33216
562,33344
563,33408
564,33472
565,33472
566,33536
567,33600
568,33728
569,33728
570,33664
571,33536
572,33088
573,32384
574,31744
575,31680
576,32512
577,34240
578,36992
579,40512
580,43392
581,44736
582,44032
583,41984
584,39424
585,36736
586,34048
587,31936
588,30208
589,29056
590,28608
591,28928
592,30016
593,31104
594,32000
595,32704
596,33152
597,33408
598,33600
599,33728
600,33856
601,33984
602,34112
603,34176
604,34240
605,34240
606,34112
607,34048
608,34112
609,34240
610,34240
611,34240
612,34240
613,34304
614,34304
615,34304
616,34368
617,34496
618,34560
619,34624
620,34688
621,34816
622,34944
623,35008
624,35072
625,35072
626,35072
627,35072
628,35136
629,35200
630,35264
631,35200
632,35136
633,35072
634,35072
635,35008
636,34816
637,34624
638,34432
639,34304
640,34112
641,33920
642,33728
643,33472
644,33280
645,33152
646,32960
647,32832
648,32704
649,32576
650,32512
651,32512
652,32512
653,32512
654,32640
655,32704
656,32704
657,32768
658,32896
659,32960
660,33024
661,33088
662,33216
663,33280
664,33280
665,33280
666,33280
667,33344
668,33408
669,33472
670,33600
671,33728
672,33856
673,33984
674,34112
675,34240
676,34304
677,34368
678,34368
679,34432
680,34496
681,34496
682,34496
683,34432
684,34368
685,34304
686,34240
687,34240
688,34304
689,34240
690,34112
691,33920
692,33792
693,33728
694,33536
695,33280
696,33088
697,33024
698,32896
699,32896
700,32960
701,33024
702,33024
703,33024
704,33024
705,33088
706,33152
707,33216
708,33216
709,33280
710,33344
711,33408
712,33472
713,33536
714,33536
715,33600
716,33664
717,33664
718,33664
719,33472
720,33024
721,32384
722,32064
723,32320
724,33344
725,35200
726,37952
727,41344
728,43328
729,43968
730,42816
731,40704
732,38272
733,35840
734,33536
735,31552
736,29952
737,29120
738,28928
739,29504
740,30400
741,31424
742,32320
743,32832
744,33216
745,33472
746,33728
747,33856
748,33984
749,34048
750,34112
751,34176
752,34240
753,34176
754,34176
755,34240
756,34240
757,34240
758,34368
759,34432
760,34496
761,34496
762,34496
763,34560
764,34560
765,34624
766,34688
767,34816
768,34880
769,34880
770,34944
771,34944
772,35008
773,35072
774,35136
775,35136
776,35200
777,35264
778,35264
779,35264
780,35200
781,35072
782,35008
783,34880
784,34752
785,34688
786,34560
787,34368
788,34176
789,33984
790,33792
791,33536
792,33280
793,33088
794,32960
795,32896
796,32832
797,32768
798,32768
799,32768
800,32704
801,32704
802,32640
803,32704
804,32832
805,32960
806,33088
807,33088
808,33088
809,33152
810,33152
811,33216
812,33280
813,33344
814,33408
815,33536
816,33600
817,33728
818,33856
819,33984
820,34112
821,34304
822,34432
823,34496
824,34496
825,34560
826,34496
827,34432
828,34368
829,34432
830,34368
831,34304
832,34304
833,34240
834,34176
835,34112
836,34112
837,34048
838,33920
839,33792
840,33600
841,33472
842,33280
843,33088
844,32960
845,32896
846,32960
847,32960
848,33024
849,33088
850,33152
851,33216
852,33280
853,33344
854,33344
855,33280
856,33280
857,33408
858,33472
859,33536
860,33600
861,33664
862,33664
863,33664
864,33664
865,33600
866,33344
867,32704
868,31936
869,31680
870,32320
871,33792
872,36032
873,39104
874,42112
875,43904
876,43968
877,42240
878,40256
879,37952
880,35520
881,33216
882,31296
883,29888
884,29056
885,28992
886,29632
887,30528
888,31488
889,32256
890,32768
891,33088
892,33472
893,33664
894,33792
895,33984
896,34048
897,34048
898,34048
899,34112
900,34112
901,34240
902,34240
903,34240
904,34240
905,34368
906,34432
907,34432
908,34432
909,34368
910,34368
911,34432
912,34496
913,34624
914,34688
915,34752
916,34816
917,34880
918,34880
919,34944
920,35008
921,35136
922,35264
923,35264
924,35136
925,35072
926,35072
927,35008
928,34944
929,34816
930,34688
931,34560
932,34368
933,34176
934,33984
935,33856
936,33792
937,33600
938,33408
939,33280
940,33152
941,32960
942,32832
943,32768
944,32640
945,32640
946,32640
947,32576
948,32640
949,32704
950,32768
951,32768
952,32704
953,32704
954,32768
955,32832
956,32960
957,33088
958,33216
959,33344
960,33472
961,33536
962,33600
963,33600
964,33600
965,33728
966,33856
967,34048
968,34176
969,34240
970,34368
971,34432
972,34496
973,34496
974,34368
975,34368
976,34368
977,34432
978,34432
979,34368
980,34368
981,34304
982,34240
983,34240
984,34304
985,34240
986,34048
987,33856
988,33792
989,33536
990,33280
991,33088
992,33024
993,33088
994,33024
995,32896
996,32896
997,32960
998,33024
999,33152
1000,33152
1001,33216
1002,33216
1003,33216
1004,33280
1005,33280
1006,33344
1007,33408
1008,33472
1009,33600
1010,33664
1011,33664
1012,33664
1013,33600
1014,33472
1015,33088
1016,32448
1017,32000
1018,32192
1019,33216
1020,34880
1021,37568
1022,40832
1023,42880
1024,43712
1025,42880
1026,40832
1027,37952
1028,35776
1029,33408
1030,31360
1031,29760
1032,28928
1033,28800
1034,29504
1035,30592
1036,31680
1037,32448
1038,33024
1039,33408
1040,33600
1041,33792
1042,33920
1043,33984
1044,33984
1045,33984
1046,34048
1047,34048
1048,34048
1049,34048
1050,34048
1051,34048
1052,34176
1053,34304
1054,34368
1055,34432
1056,34432
1057,34560
1058,34624
1059,34624
1060,34624
1061,34688
1062,34752
1063,34880
1064,35008
1065,35072
1066,35136
1067,35136
1068,35200
1069,35264
1070,35328
1071,35392
1072,35392
1073,35392
1074,35392
1075,35392
1076,35328
1077,35264
1078,35136
1079,35008
1080,34880
1081,34752
1082,34432
1083,34176
1084,33920
1085,33728
1086,33472
1087,33280
1088,33024
1089,32832
1090,32704
1091,32576
1092,32448
1093,32320
1094,32320
1095,32320
1096,32320
1097,32384
1098,32384
1099,32512
1100,32640
1101,32832
1102,32960
1103,33024
1104,33216
1105,33280
1106,33280
1107,33344
1108,33344
1109,33344
1110,33344
1111,33344
1112,33408
1113,33472
1114,33536
1115,33536
1116,33600
1117,33792
1118,33920
1119,34048
1120,34112
1121,34176
1122,34368
1123,34496
1124,34624
1125,34560
1126,34496
1127,34496
1128,34560
1129,34432
1130,34432
1131,34496
1132,34496
1133,34368
1134,34240
1135,34112
1136,34048
1137,33920
1138,33792
1139,33664
1140,33536
1141,33344
1142,33152
1143,32960
1144,32896
1145,32960
1146,32960
1147,33024
1148,33088
1149,33152
1150,33216
1151,33280
1152,33216
1153,33152
1154,33088
1155,33152
1156,33344
1157,33408
1158,33408
1159,33472
1160,33472
1161,33472
1162,33536
1163,33600
1164,33536
1165,33280
1166,32768
1167,32128
1168,32000
1169,32640
1170,34048
1171,36352
1172,39232
1173,42048
1174,43584
1175,43520
1176,41920
1177,38720
1178,36992
1179,34688
1180,32384
1181,30592
1182,29376
1183,28800
1184,29120
1185,30016
1186,31104
1187,32128
1188,32768
1189,33216
1190,33472
1191,33664
1192,33856
1193,33920
1194,33984
1195,34048
1196,34176
1197,34176
1198,34176
1199,34112
1200,34048
1201,34112
1202,34240
1203,34304
1204,34368
1205,34432
1206,34560
1207,34624
1208,34624
1209,34688
1210,34688
1211,34816
1212,34880
1213,34944
1214,34944
1215,34944
1216,35008
1217,35072
1218,35136
1219,35200
1220,35264
1221,35328
1222,35392
1223,35456
1224,35456
1225,35456
1226,35392
1227,35264
1228,35136
1229,35008
1230,34880
1231,34752
1232,34688
1233,34432
1234,34176
1235,33920
1236,33536
1237,33216
1238,32960
1239,32768
1240,32704
1241,32640
1242,32576
1243,32512
1244,32448
1245,32448
1246,32384
1247,32384
1248,32448
1249,32512
1250,32640
1251,32768
1252,32896
1253,32960
1254,32960
1255,33024
1256,33088
1257,33216
1258,33216
1259,33280
1260,33344
1261,33408
1262,33472
1263,33536
1264,33728
1265,33920
1266,34048
1267,34240
1268,34240
1269,34240
1270,34304
1271,34368
1272,34368
1273,34432
1274,34496
1275,34560
1276,34496
1277,34432
1278,34304
1279,34240
1280,34176
1281,34176
1282,34240
1283,34176
1284,34048
1285,33920
1286,33728
1287,33536
1288,33344
1289,33088
1290,32960
1291,32896
1292,32832
1293,32896
1294,32960
1295,33024
1296,33152
1297,33216
1298,33216
1299,33216
1300,33216
1301,33280
1302,33280
1303,33280
1304,33280
1305,33344
1306,33472
1307,33472
1308,33536
1309,33600
1310,33664
1311,33600
1312,33344
1313,32768
1314,32192
1315,32000
1316,32640
1317,34048
1318,36288
1319,39360
1320,42112
1321,43648
1322,43584
1323,41984
1324,39616
1325,36992
1326,34432
1327,31296
1328,30336
1329,29184
1330,28736
1331,29120
1332,30080
1333,31168
1334,32128
1335,32768
1336,33216
1337,33472
1338,33664
1339,33792
1340,33856
1341,33920
1342,33984
1343,34112
1344,34176
1345,34176
1346,34240
1347,34304
1348,34304
1349,34368
1350,34432
1351,34496
1352,34496
1353,34496
1354,34496
1355,34496
1356,34560
1357,34624
1358,34688
1359,34688
1360,34752
1361,34880
1362,35072
1363,35136
1364,35200
1365,35264
1366,35328
1367,35392
1368,35456
1369,35520
1370,35520
1371,35520
1372,35520
1373,35456
1374,35392
1375,35264
1376,35136
1377,34944
1378,34752
1379,34560
1380,34304
1381,34048
1382,33792
1383,33536
1384,33280
1385,33024
1386,32832
1387,32704
1388,32576
1389,32448
1390,32384
1391,32320
1392,32384
1393,32384
1394,32448
1395,32448
1396,32448
1397,32576
1398,32704
1399,32832
1400,32896
1401,32960
1402,33024
1403,33088
1404,33088
1405,33152
1406,33280
1407,33344
1408,33408
1409,33536
1410,33728
1411,33920
1412,34048
1413,34112
1414,34240
1415,34240
1416,34240
1417,34240
1418,34304
1419,34368
1420,34432
1421,34432
1422,34304
1423,34304
1424,34304
1425,34240
1426,34240
1427,34240
1428,34176
1429,33984
1430,33856
1431,33664
1432,33664
1433,33408
1434,33216
1435,33088
1436,32960
1437,32960
1438,32896
1439,32960
1440,33024
1441,33024
1442,33088
1443,33152
1444,33216
1445,33216
1446,33280
1447,33280
1448,33344
1449,33408
1450,33472
1451,33472
1452,33536
1453,33600
1454,33664
1455,33664
1456,33536
1457,33472
1458,32768
1459,32128
1460,32000
1461,33472
1462,33600
1463,34240
1464,39872
1465,42560
1466,43904
1467,43456
1468,41664
1469,39232
1470,36608
1471,33920
1472,33600
1473,30208
1474,29184
1475,28864
1476,29632
1477,29760
1478,31360
1479,32320
1480,32896
1481,33280
1482,33472
1483,33664
1484,33792
1485,33856
1486,33920
1487,33984
1488,34048
1489,34048
1490,34112
1491,34176
1492,34112
1493,34240
1494,34240
1495,34240
1496,34240
1497,34304
1498,34368
1499,34496
1500,34624
1501,34752
1502,34752
1503,34752
1504,34816
1505,34880
1506,34944
1507,34880
1508,34944
1509,35008
1510,35072
1511,35200
1512,35264
1513,35264
1514,35328
1515,35392
1516,35392
1517,35328
1518,35264
1519,35136
1520,35072
1521,35008
1522,34880
1523,34688
1524,34432
1525,34240
1526,34048
1527,33728
1528,33472
1529,33280
1530,33088
1531,32832
1532,32640
1533,32512
1534,32448
1535,32384
1536,32320
1537,32256
1538,32256
1539,32384
1540,32448
1541,32576
1542,32640
1543,32768
1544,32832
1545,32832
1546,32896
1547,32960
1548,33088
1549,33216
1550,33344
1551,33408
1552,33344
1553,33472
1554,33408
1555,33472
1556,33600
1557,33664
1558,33728
1559,33792
1560,33792
1561,33920
1562,34048
1563,34112
1564,34176
1565,34240
1566,34368
1567,34304
1568,34432
1569,34432
1570,34432
1571,34432
1572,34496
1573,34496
1574,34432
1575,34432
1576,34432
1577,34304
1578,34240
1579,34176
1580,34048
1581,33920
1582,33856
1583,33728
1584,33600
1585,33408
1586,33152
1587,32960
1588,32832
1589,32704
1590,32704
1591,32832
1592,32960
1593,33088
1594,33152
1595,33216
1596,33216
1597,33280
1598,33280
1599,33280
1600,33408
1601,33472
1602,33536
1603,33536
1604,33536
1605,33600
1606,33664
1607,33664
1608,33536
1609,33152
1610,32576
1611,32000
1612,32000
1613,32704
1614,34240
1615,36672
1616,39808
1617,42432
1618,43712
1619,43264
1620,41408
1621,38976
1622,36416
1623,33984
1624,31872
1625,30208
1626,29120
1627,28800
1628,29248
1629,30208
1630,31296
1631,32128
1632,32768
1633,33216
1634,33536
1635,33792
1636,33920
1637,33984
1638,34048
1639,34112
1640,34176
1641,34176
1642,34176
1643,34176
1644,34240
1645,34304
1646,34304
1647,34304
1648,34304
1649,34368
1650,34304
1651,34368
1652,34432
1653,34432
1654,34496
1655,34624
1656,34752
1657,34880
1658,34944
1659,35008
1660,35072
1661,35136
1662,35136
1663,35200
1664,35328
1665,35392
1666,35392
1667,35392
1668,35456
1669,35456
1670,35392
1671,35264
1672,35136
1673,35008
1674,34880
1675,34816
1676,34688
1677,34496
1678,34176
1679,33920
1680,33664
1681,33408
1682,33152
1683,32960
1684,32768
1685,32640
1686,32512
1687,32448
1688,32384
1689,32320
1690,32384
1691,32448
1692,32512
1693,32576
1694,32640
1695,32704
1696,32832
1697,32896
1698,32896
1699,33024
1700,33088
1701,33152
1702,33216
1703,33280
1704,33280
1705,33408
1706,33472
1707,33536
1708,33600
1709,33600
1710,33600
1711,33600
1712,33600
1713,33664
1714,33728
1715,33728
1716,33664
1717,33664
1718,33792
1719,33856
1720,33920
1721,33920
1722,33920
1723,33856
1724,33856
1725,33920
1726,33984
1727,34048
1728,34176
1729,34240
1730,34368
1731,34432
1732,34496
1733,34560
1734,34624
1735,34688
1736,34624
1737,34560
1738,34496
1739,34432
1740,34368
1741,34304
1742,34240
1743,34112
1744,33920
1745,33856
1746,33728
1747,33600
1748,33344
1749,33088
1750,32960
1751,32960
1752,33024
1753,33024
1754,33088
1755,33088
1756,33088
1757,33152
1758,33152
1759,33216
1760,33216
1761,33216
1762,33280
1763,33344
1764,33408
1765,33472
1766,33536
1767,33536
1768,33536
1769,33536
1770,33600
1771,33600
1772,33408
1773,32832
1774,32192
1775,31936
1776,32384
1777,33728
1778,35840
1779,38912
1780,41792
1781,43520
1782,43584
1783,42048
1784,39808
1785,37312
1786,34752
1787,32512
1788,30656
1789,29376
1790,28800
1791,28992
1792,29888
1793,31040
1794,32064
1795,32768
1796,33280
1797,33536
1798,33728
1799,33856
1800,33920
1801,34048
1802,34112
1803,34176
1804,34240
1805,34240
1806,34176
1807,34176
1808,34240
1809,34240
1810,34304
1811,34368
1812,34432
1813,34432
1814,34496
1815,34496
1816,34560
1817,34624
1818,34752
1819,34752
1820,34880
1821,34944
1822,34944
1823,35008
1824,35072
1825,35072
1826,35072
1827,35200
1828,35264
1829,35392
1830,35456
1831,35456
1832,35392
1833,35328
1834,35264
1835,35200
1836,35072
1837,35008
1838,34880
1839,34752
1840,34560
1841,34368
1842,34112
1843,33856
1844,33600
1845,33344
1846,33152
1847,32960
1848,32768
1849,32576
1850,32512
1851,32448
1852,32448
1853,32512
1854,32576
1855,32576
1856,32640
1857,32640
1858,32704
1859,32768
1860,32832
1861,32960
1862,33088
1863,33216
1864,33280
1865,33344
1866,33344
1867,33408
1868,33408
1869,33408
1870,33408
1871,33472
1872,33600
1873,33728
1874,33856
1875,33856
1876,33792
1877,33728
1878,33728
1879,33728
1880,33792
1881,33856
1882,33856
1883,33856
1884,33856
1885,33856
1886,33792
1887,33792
1888,33792
1889,33792
1890,33792
1891,33856
1892,33920
1893,33920
1894,33856
1895,33792
1896,33792
1897,33792
1898,33792
1899,33792
1900,33728
1901,33792
1902,33792
1903,33792
1904,33792
1905,33856
1906,33984
1907,34048
1908,34048
1909,34048
1910,34112
1911,34176
1912,34368
1913,34496
1914,34560
1915,34560
1916,34624
1917,34624
1918,34560
1919,34560
1920,34624
1921,34752
1922,34688
1923,34624
1924,34560
1925,34496
1926,34432
1927,34368
1928,34240
1929,34112
1930,33984
1931,33920
1932,33792
1933,33600
1934,33472
1935,33344
1936,33280
1937,33280
1938,33216
1939,33216
1940,33216
1941,33280
1942,33344
1943,33408
1944,33472
1945,33536
1946,33600
1947,33536
1948,33536
1949,33600
1950,33664
1951,33728
1952,33664
1953,33344
1954,32768
1955,32064
1956,31744
1957,32256
1958,33472
1959,35392
1960,38272
1961,41024
1962,42624
1963,42880
1964,41664
1965,39872
1966,37760
1967,35520
1968,33408
1969,31552
1970,30144
1971,29248
1972,28992
1973,29440
1974,30464
1975,31552
1976,32448
1977,33088
1978,33472
1979,33728
1980,33920
1981,34048
1982,34112
1983,34176
1984,34240
1985,34304
1986,34240
1987,34240
1988,34240
1989,34240
1990,34304
1991,34304
1992,34368
1993,34432
1994,34496
1995,34560
1996,34560
1997,34560
1998,34624
1999,34688
2000,34816
2001,34816
2002,34880
2003,34880
2004,34880
2005,35008
2006,35008
2007,35072
2008,35136
2009,35200
2010,35200
2011,35200
2012,35264
2013,35264
2014,35200
2015,35136
2016,35072
2017,34944
2018,34880
2019,34752
2020,34624
2021,34560
2022,34432
2023,34304
2024,34112
2025,33856
2026,33664
2027,33472
2028,33280
2029,33152
2030,33024
2031,32960
2032,32832
2033,32832
2034,32832
2035,32768
2036,32704
2037,32704
2038,32768
2039,32832
2040,32896
2041,32896
2042,32960
2043,33024
2044,33024
2045,33088
2046,33152
2047,33216
2048,33280
2049,33408
2050,33536
2051,33664
2052,33664
2053,33728
2054,33792
2055,33728
2056,33664
2057,33664
2058,33728
2059,33856
2060,33920
2061,33920
2062,33920
2063,33856
2064,33856
2065,33856
2066,33856
2067,33856
2068,33920
2069,33984
2070,33984
2071,33920
2072,33856
2073,33792
2074,33792
2075,33792
2076,33792
2077,33792
2078,33728
2079,33728
2080,33792
2081,33856
2082,33920
2083,33984
2084,33984
2085,34048
2086,34240
2087,34368
2088,34496
2089,34560
2090,34624
2091,34560
2092,34560
2093,34496
2094,34432
2095,34432
2096,34496
2097,34560
2098,34560
2099,34496
2100,34368
2101,34176
2102,34048
2103,33856
2104,33792
2105,33792
2106,33792
2107,33728
2108,33536
2109,33344
2110,33216
2111,33152
2112,33216
2113,33216
2114,33216
2115,33216
2116,33216
2117,33280
2118,33344
2119,33472
2120,33536
2121,33600
2122,33600
2123,33664
2124,33664
2125,33664
2126,33664
2127,33664
2128,33408
2129,32960
2130,32256
2131,31744
2132,31872
2133,32768
2134,34368
2135,36928
2136,39872
2137,42240
2138,43200
2139,42752
2140,41152
2141,39104
2142,36864
2143,34624
2144,32576
2145,30912
2146,29696
2147,29120
2148,29248
2149,29888
2150,30848
2151,31808
2152,32640
2153,33088
2154,33408
2155,33664
2156,33920
2157,34048
2158,34112
2159,34112
2160,34112
2161,34176
2162,34176
2163,34176
2164,34176
2165,34240
2166,34304
2167,34368
2168,34432
2169,34368
2170,34368
2171,34368
2172,34432
2173,34496
2174,34624
2175,34688
2176,34752
2177,34752
2178,34816
2179,34816
2180,34880
2181,34880
2182,34944
2183,35008
2184,35072
2185,35136
2186,35200
2187,35200
2188,35200
2189,35136
2190,35072
2191,34944
2192,34816
2193,34688
2194,34560
2195,34432
2196,34368
2197,34240
2198,34112
2199,33984
2200,33856
2201,33792
2202,33664
2203,33472
2204,33344
2205,33152
2206,33024
2207,32960
2208,32896
2209,32960
2210,33024
2211,33024
2212,33024
2213,33024
2214,33024
2215,33088
2216,33152
2217,33216
2218,33280
2219,33344
2220,33472
2221,33472
2222,33536
2223,33600
2224,33600
2225,33600
2226,33664
2227,33728
2228,33728
2229,33792
2230,33856
2231,33920
2232,33920
2233,33920
2234,33920
2235,33920
2236,33856
2237,33856
2238,33856
2239,33920
2240,33984
2241,33984
2242,33984
2243,33984
2244,33984
2245,33984
2246,33920
2247,33920
2248,33984
2249,34048
2250,34112
2251,34240
2252,34304
2253,34432
2254,34560
2255,34560
2256,34624
2257,34688
2258,34624
2259,34624
2260,34624
2261,34752
2262,34816
2263,34816
2264,34752
2265,34688
2266,34624
2267,34560
2268,34496
2269,34368
2270,34176
2271,33984
2272,33856
2273,33728
2274,33600
2275,33408
2276,33216
2277,33088
2278,33024
2279,33024
2280,33152
2281,33280
2282,33280
2283,33216
2284,33216
2285,33280
2286,33344
2287,33472
2288,33600
2289,33664
2290,33664
2291,33664
2292,33664
2293,33600
2294,33600
2295,33600
2296,33728
2297,33792
2298,33664
2299,33216
2300,32512
2301,31936
2302,32000
2303,32832
2304,34560
2305,37120
2306,40128
2307,42432
2308,43456
2309,43008
2310,41408
2311,39104
2312,36864
2313,34496
2314,32448
2315,30784
2316,29696
2317,29248
2318,29440
2319,30144
2320,31104
2321,32000
2322,32704
2323,33216
2324,33536
2325,33728
2326,33984
2327,34176
2328,34304
2329,34432
2330,34432
2331,34432
2332,34368
2333,34304
2334,34304
2335,34304
2336,34368
2337,34368
2338,34368
2339,34368
2340,34432
2341,34496
2342,34624
2343,34688
2344,34752
2345,34752
2346,34816
2347,34816
2348,34880
2349,34880
2350,34944
2351,35072
2352,35200
2353,35264
2354,35328
2355,35328
2356,35392
2357,35328
2358,35328
2359,35264
2360,35200
2361,35136
2362,35072
2363,34944
2364,34816
2365,34752
2366,34624
2367,34496
2368,34304
2369,34048
2370,33856
2371,33600
2372,33472
2373,33280
2374,33152
2375,33088
2376,32960
2377,32896
2378,32896
2379,32832
2380,32832
2381,32768
2382,32768
2383,32768
2384,32832
2385,32896
2386,32896
2387,32896
2388,32960
2389,33024
2390,33152
2391,33280
2392,33344
2393,33408
2394,33408
2395,33408
2396,33472
2397,33536
2398,33600
2399,33664
2400,33728
2401,33792
2402,33792
2403,33856
2404,33856
2405,33920
2406,33920
2407,33920
2408,33856
2409,33856
2410,33856
2411,33856
2412,33920
2413,33920
2414,33920
2415,33984
2416,34048
2417,34112
2418,34176
2419,34304
2420,34496
2421,34624
2422,34688
2423,34624
2424,34560
2425,34624
2426,34752
2427,34816
2428,34752
2429,34688
2430,34560
2431,34496
2432,34432
2433,34368
2434,34368
2435,34176
2436,33920
2437,33728
2438,33600
2439,33472
2440,33280
2441,33088
2442,33024
2443,32896
2444,32896
2445,33024
2446,33088
2447,33152
2448,33216
2449,33216
2450,33344
2451,33344
2452,33408
2453,33408
2454,33408
2455,33472
2456,33536
2457,33600
2458,33600
2459,33600
2460,33600
2461,33664
2462,33664
2463,33600
2464,33344
2465,32832
2466,32128
2467,31936
2468,32448
2469,33728
2470,35840
2471,38848
2472,41472
2473,42944
2474,43136
2475,41920
2476,40000
2477,37696
2478,35328
2479,33152
2480,31296
2481,29952
2482,29184
2483,29184
2484,29760
2485,30720
2486,31744
2487,32576
2488,33152
2489,33536
2490,33792
2491,33984
2492,34048
2493,34048
2494,34112
2495,34112
2496,34176
2497,34240
2498,34240
2499,34240
2500,34304
2501,34304
2502,34368
2503,34432
2504,34560
2505,34624
2506,34624
2507,34560
2508,34560
2509,34624
2510,34624
2511,34624
2512,34752
2513,34880
2514,34944
2515,35008
2516,35136
2517,35200
2518,35200
2519,35264
2520,35328
2521,35392
2522,35456
2523,35456
2524,35456
2525,35392
2526,35328
2527,35264
2528,35136
2529,35072
2530,35008
2531,34880
2532,34688
2533,34368
2534,34112
2535,33856
2536,33600
2537,33408
2538,33216
2539,33152
2540,33024
2541,32960
2542,32832
2543,32704
2544,32576
2545,32576
2546,32576
2547,32576
2548,32640
2549,32704
2550,32768
2551,32832
2552,32896
2553,32960
2554,33024
2555,33088
2556,33216
2557,33280
2558,33408
2559,33472
2560,33536
2561,33536
2562,33600
2563,33600
2564,33600
2565,33664
2566,33664
2567,33664
2568,33664
2569,33728
2570,33792
2571,33856
2572,33920
2573,33920
2574,33920
2575,33856
2576,33920
2577,33920
2578,33920
2579,33920
2580,33920
2581,33920
2582,33984
2583,34048
2584,34176
2585,34368
2586,34496
2587,34560
2588,34624
2589,34688
2590,34624
2591,34624
2592,34688
2593,34688
2594,34688
2595,34624
2596,34560
2597,34496
2598,34368
2599,34368
2600,34304
2601,34240
2602,34048
2603,33856
2604,33664
2605,33472
2606,33344
2607,33216
2608,33088
2609,33024
2610,33024
2611,33088
2612,33088
2613,33152
2614,33216
2615,33280
2616,33280
2617,33280
2618,33280
2619,33344
2620,33408
2621,33408
2622,33408
2623,33472
2624,33536
2625,33600
2626,33664
2627,33728
2628,33792
2629,33792
2630,33728
2631,33344
2632,32640
2633,32128
2634,32192
2635,33024
2636,34560
2637,36928
2638,39808
2639,42048
2640,43200
2641,42816
2642,41280
2643,39168
2644,36736
2645,34432
2646,32320
2647,30528
2648,29376
2649,28864
2650,29120
2651,29952
2652,31040
2653,32064
2654,32832
2655,33344
2656,33664
2657,33920
2658,34048
2659,34112
2660,34112
2661,34176
2662,34112
2663,34112
2664,34112
2665,34240
2666,34304
2667,34368
2668,34496
2669,34496
2670,34496
2671,34496
2672,34496
2673,34496
2674,34560
2675,34624
2676,34688
2677,34816
2678,34880
2679,34944
2680,35008
2681,35072
2682,35200
2683,35264
2684,35200
2685,35200
2686,35264
2687,35328
2688,35392
2689,35392
2690,35392
2691,35328
2692,35264
2693,35200
2694,35200
2695,35136
2696,35008
2697,34944
2698,34752
2699,34624
2700,34368
2701,34112
2702,33920
2703,33728
2704,33472
2705,33280
2706,33024
2707,32832
2708,32704
2709,32640
2710,32640
2711,32576
2712,32512
2713,32384
2714,32320
2715,32384
2716,32512
2717,32640
2718,32768
2719,32896
2720,33024
2721,33088
2722,33088
2723,33152
2724,33152
2725,33216
2726,33216
2727,33280
2728,33408
2729,33408
2730,33472
2731,33536
2732,33600
2733,33600
2734,33728
2735,33792
2736,33856
2737,33856
2738,33856
2739,33792
2740,33728
2741,33664
2742,33664
2743,33728
2744,33728
2745,33792
2746,33792
2747,33792
2748,33792
2749,33792
2750,33792
2751,33856
2752,33920
2753,33856
2754,33920
2755,34048
2756,34112
2757,34176
2758,34304
2759,34432
2760,34560
2761,34752
2762,34816
2763,34688
2764,34560
2765,34432
2766,34432
2767,34496
2768,34496
2769,34560
2770,34496
2771,34432
2772,34368
2773,34240
2774,34112
2775,33984
2776,33792
2777,33664
2778,33536
2779,33344
2780,33152
2781,33024
2782,32960
2783,32896
2784,32960
2785,33088
2786,33152
2787,33088
2788,33216
2789,33280
2790,33280
2791,33216
2792,33216
2793,33280
2794,33344
2795,33472
2796,33472
2797,33536
2798,33600
2799,33664
2800,33664
2801,33600
2802,33600
2803,33344
2804,32832
2805,32256
2806,31936
2807,32448
2808,33728
2809,35776
2810,38528
2811,41024
2812,42560
2813,42944
2814,41920
2815,40000
2816,37568
2817,35136
2818,32768
2819,30784
2820,29376
2821,28672
2822,28864
2823,29632
2824,30784
2825,31808
2826,32640
2827,33280
2828,33600
2829,33856
2830,33984
2831,34048
2832,34176
2833,34176
2834,34176
2835,34112
2836,34112
2837,34112
2838,34176
2839,34304
2840,34368
2841,34368
2842,34368
2843,34432
2844,34432
2845,34496
2846,34496
2847,34560
2848,34624
2849,34688
2850,34816
2851,34880
2852,34944
2853,35072
2854,35200
2855,35264
2856,35264
2857,35264
2858,35328
2859,35328
2860,35392
2861,35328
2862,35328
2863,35392
2864,35392
2865,35328
2866,35328
2867,35328
2868,35264
2869,35136
2870,35008
2871,34880
2872,34688
2873,34496
2874,34176
2875,33920
2876,33728
2877,33536
2878,33216
2879,33024
2880,32832
2881,32704
2882,32576
2883,32448
2884,32448
2885,32384
2886,32384
2887,32320
2888,32384
2889,32448
2890,32576
2891,32768
2892,32896
2893,32960
2894,33024
2895,33024
2896,33152
2897,33216
2898,33280
2899,33344
2900,33408
2901,33472
2902,33472
2903,33472
2904,33536
2905,33536
2906,33536
2907,33536
2908,33600
2909,33600
2910,33600
2911,33536
2912,33536
2913,33600
2914,33728
2915,33856
2916,33984
2917,33984
2918,33984
2919,33856
2920,33728
2921,33664
2922,33728
2923,33792
2924,33792
2925,33728
2926,33728
2927,33728
2928,33600
2929,33664
2930,33728
2931,33920
2932,34048
2933,34112
2934,34176
2935,34240
2936,34304
2937,34304
2938,34304
2939,34368
2940,34368
2941,34368
2942,34240
2943,34240
2944,34176
2945,34112
2946,33984
2947,33920
2948,33856
2949,33728
2950,33536
2951,33280
2952,33088
2953,32896
2954,32704
2955,32512
2956,32384
2957,32384
2958,32448
2959,32576
2960,32640
2961,32704
2962,32704
2963,32704
2964,32832
2965,32960
2966,33088
2967,33152
2968,33280
2969,33344
2970,33344
2971,33408
2972,33408
2973,33472
2974,33536
2975,33536
2976,33408
2977,33088
2978,32576
2979,32128
2980,32320
2981,33280
2982,34944
2983,37504
2984,40448
2985,42624
2986,43520
2987,42688
2988,40768
2989,38208
2990,35520
2991,32896
2992,30400
2993,29312
2994,28736
2995,28992
2996,29952
2997,31040
2998,32064
2999,32832
3000,33344
3001,33600
3002,33792
3003,33856
3004,33984
3005,34048
3006,34112
3007,34176
3008,34112
3009,34112
3010,34112
3011,34176
3012,34176
3013,34176
3014,34176
3015,34176
3016,34240
3017,34304
3018,34368
3019,34368
3020,34496
3021,34688
3022,34816
3023,34816
3024,34816
3025,34816
3026,34816
3027,34816
3028,34752
3029,34816
3030,34880
3031,35008
3032,35136
3033,35200
3034,35200
3035,35200
3036,35200
3037,35200
3038,35200
3039,35136
3040,35072
3041,34880
3042,34752
3043,34624
3044,34496
3045,34368
3046,34176
3047,33984
3048,33728
3049,33408
3050,33152
3051,32896
3052,32576
3053,32384
3054,32256
3055,32192
3056,32192
3057,32256
3058,32256
3059,32256
3060,32320
3061,32384
3062,32448
3063,32448
3064,32512
3065,32576
3066,32704
3067,32832
3068,32960
3069,33024
3070,33088
3071,33216
3072,33344
3073,33472
3074,33472
3075,33536
3076,33472
3077,33472
3078,33472
3079,33472
3080,33536
3081,33536
3082,33600
3083,33600
3084,33728
3085,33728
3086,33728
3087,33664
3088,33600
3089,33664
3090,33728
3091,33856
3092,34048
3093,34176
3094,34240
3095,34368
3096,34432
3097,34560
3098,34560
3099,34496
3100,34432
3101,34496
3102,34560
3103,34560
3104,34432
3105,34304
3106,34304
3107,34304
3108,34240
3109,34176
3110,34048
3111,33856
3112,33664
3113,33536
3114,33408
3115,33280
3116,33088
3117,33024
3118,32896
3119,32832
3120,32896
3121,32896
3122,32896
3123,33024
3124,33152
3125,33216
3126,33472
3127,33536
3128,33408
3129,33152
3130,33024
3131,33024
3132,33024
3133,33088
3134,33280
3135,33408
3136,33600
3137,33600
3138,33408
3139,33088
3140,32448
3141,32064
3142,32704
3143,33664
3144,35392
3145,38080
3146,40960
3147,42880
3148,43392
3149,42176
3150,39936
3151,37376
3152,34432
3153,32384
3154,30464
3155,29184
3156,28800
3157,29504
3158,30272
3159,31360
3160,32256
3161,32896
3162,33216
3163,33408
3164,33600
3165,33728
3166,33856
3167,33920
3168,34048
3169,34112
3170,34112
3171,34112
3172,34112
3173,34176
3174,34240
3175,34240
3176,34304
3177,34304
3178,34368
3179,34368
3180,34432
3181,34496
3182,34496
3183,34560
3184,34624
3185,34688
3186,34688
3187,34752
3188,34816
3189,34944
3190,35072
3191,35136
3192,35136
3193,35200
3194,35200
3195,35264
3196,35392
3197,35456
3198,35456
3199,35456
3200,35392
3201,35328
3202,35136
3203,35072
3204,34944
3205,34816
3206,34688
3207,34496
3208,34176
3209,33856
3210,33600
3211,33344
3212,33152
3213,32896
3214,32704
3215,32512
3216,32384
3217,32256
3218,32256
3219,32256
3220,32192
3221,32256
3222,32384
3223,32576
3224,32640
3225,32768
3226,32832
3227,32896
3228,33024
3229,33088
3230,33152
3231,33216
3232,33344
3233,33344
3234,33344
3235,33408
3236,33408
3237,33472
3238,33536
3239,33536
3240,33600
3241,33664
3242,33600
3243,33728
3244,33856
3245,34048
3246,34176
3247,34176
3248,34176
3249,34368
3250,34432
3251,34368
3252,34368
3253,34368
3254,34496
3255,34560
3256,34496
3257,34432
3258,34368
3259,34304
3260,34176
3261,33984
3262,33920
3263,33856
3264,33728
3265,33664
3266,33664
3267,33600
3268,33280
3269,32960
3270,32768
3271,32768
3272,32832
3273,32832
3274,32896
3275,32896
3276,32960
3277,33024
3278,33088
3279,33152
3280,33216
3281,33216
3282,33216
3283,33280
3284,33344
3285,33408
3286,33472
3287,33536
3288,33536
3289,33600
3290,33664
3291,33600
3292,33536
3293,33280
3294,32192
3295,32064
3296,32768
3297,34304
3298,36608
3299,39744
3300,42368
3301,43712
3302,43456
3303,41728
3304,39424
3305,36864
3306,34368
3307,32128
3308,30400
3309,29312
3310,28864
3311,29184
3312,30144
3313,31296
3314,32192
3315,32832
3316,33280
3317,33600
3318,33856
3319,33920
3320,33984
3321,34112
3322,34048
3323,34304
3324,34368
3325,34304
3326,34176
3327,34112
3328,34176
3329,34304
3330,34240
3331,34304
3332,34368
3333,34432
3334,34432
3335,34432
3336,34496
3337,34624
3338,34624
3339,34624
3340,34624
3341,34752
3342,34944
3343,35200
3344,35392
3345,35456
3346,35520
3347,35392
3348,35200
3349,35072
3350,35072
3351,35136
3352,35072
3353,35264
3354,35264
3355,35200
3356,35072
3357,34944
3358,34752
3359,34624
3360,34368
3361,34176
3362,33984
3363,33792
3364,33536
3365,33344
3366,32960
3367,32896
3368,32640
3369,32512
3370,32448
3371,32448
3372,32448
3373,32512
3374,32640
3375,32768
3376,32704
3377,32704
3378,32704
3379,32704
3380,32832
3381,32896
3382,33024
3383,33088
3384,33216
3385,33344
3386,33408
3387,33408
3388,33344
3389,33280
3390,33344
3391,33408
3392,33536
3393,33728
3394,33920
3395,33984
3396,34048
3397,34112
3398,34176
3399,34304
3400,34368
3401,34368
3402,34304
3403,34304
3404,34368
3405,34432
3406,34432
3407,34368
3408,34304
3409,34240
3410,34176
3411,34112
3412,34048
3413,33984
3414,33856
3415,33728
3416,33536
3417,33280
3418,33152
3419,33024
3420,33024
3421,33024
3422,32960
3423,32896
3424,32832
3425,32896
3426,32896
3427,32896
3428,32896
3429,32896
3430,33024
3431,33152
3432,33216
3433,33344
3434,33344
3435,33408
3436,33408
3437,33472
3438,33472
3439,33536
3440,33536
3441,33536
3442,33280
3443,32768
3444,32128
3445,31936
3446,32576
3447,33984
3448,36352
3449,39552
3450,42432
3451,44032
3452,43776
3453,42048
3454,39616
3455,37056
3456,33344
3457,33024
3458,30336
3459,29184
3460,28800
3461,29120
3462,30016
3463,31168
3464,32128
3465,32768
3466,33152
3467,33472
3468,33728
3469,33856
3470,33920
3471,33984
3472,33984
3473,33984
3474,33984
3475,34048
3476,34176
3477,34176
3478,34240
3479,34240
3480,34240
3481,34304
3482,34368
3483,34496
3484,34560
3485,34624
3486,34688
3487,34816
3488,34816
3489,34816
3490,34816
3491,34880
3492,34880
3493,34816
3494,34752
3495,34752
3496,34816
3497,34944
3498,35136
3499,35328
3500,35392
3501,35392
3502,35328
3503,35264
3504,35136
3505,35072
3506,34944
3507,34816
3508,34688
3509,34560
3510,34304
3511,34112
3512,33920
3513,33728
3514,33472
3515,33280
3516,33088
3517,32960
3518,32768
3519,32640
3520,32512
3521,32448
3522,32448
3523,32448
3524,32512
3525,32512
3526,32512
3527,32576
3528,32704
3529,32832
3530,32832
3531,32960
3532,32960
3533,33088
3534,33152
3535,33280
3536,33344
3537,33408
3538,33408
3539,33472
3540,33600
3541,33664
3542,33856
3543,33984
3544,34176
3545,34304
3546,34368
3547,34432
3548,34432
3549,34496
3550,34560
3551,34688
3552,34688
3553,34688
3554,34560
3555,34304
3556,34048
3557,33856
3558,33792
3559,33664
3560,33536
3561,33344
3562,33280
3563,33216
3564,33088
3565,33024
3566,33024
3567,33088
3568,33280
3569,33472
3570,33408
3571,33216
3572,33024
3573,32960
3574,32896
3575,32896
3576,32960
3577,33024
3578,33088
3579,33216
3580,33344
3581,33472
3582,33600
3583,33664
3584,33664
3585,33664
3586,33600
3587,33536
3588,33344
3589,32896
3590,32256
3591,32000
3592,32448
3593,33728
3594,35712
3595,38656
3596,41664
3597,43584
3598,43840
3599,42368
3600,40000
3601,37440
3602,34816
3603,32512
3604,30720
3605,29504
3606,28992
3607,29184
3608,29952
3609,30976
3610,31872
3611,32448
3612,32896
3613,33216
3614,33472
3615,33728
3616,33856
3617,33984
3618,34112
3619,34176
3620,34176
3621,34240
3622,34240
3623,34304
3624,34368
3625,34368
3626,34304
3627,34368
3628,34432
3629,34432
3630,34432
3631,34496
3632,34560
3633,34688
3634,34752
3635,34880
3636,34944
3637,35008
3638,34944
3639,35008
3640,35008
3641,35072
3642,35200
3643,35392
3644,35456
3645,35392
3646,35264
3647,35200
3648,35072
3649,35008
3650,35008
3651,35008
3652,35072
3653,35072
3654,35008
3655,34880
3656,34688
3657,34368
3658,34048
3659,33728
3660,33472
3661,33216
3662,33024
3663,32832
3664,32704
3665,32512
3666,32448
3667,32448
3668,32448
3669,32576
3670,32640
3671,32704
3672,32768
3673,32832
3674,32896
3675,32960
3676,33024
3677,33088
3678,33152
3679,33216
3680,33280
3681,33344
3682,33408
3683,33472
3684,33600
3685,33728
3686,33856
3687,34048
3688,34176
3689,34240
3690,34304
3691,34304
3692,34304
3693,34368
3694,34432
3695,34432
3696,34496
3697,34496
3698,34432
3699,34432
3700,34368
3701,34304
3702,34176
3703,34112
3704,33984
3705,33792
3706,33664
3707,33600
3708,33408
3709,33152
3710,32960
3711,32832
3712,32832
3713,32768
3714,32768
3715,32832
3716,32960
3717,33024
3718,33024
3719,32960
3720,32960
3721,33024
3722,33152
3723,33280
3724,33280
3725,33408
3726,33536
3727,33536
3728,33536
3729,33536
3730,33536
3731,33600
3732,33600
3733,33472
3734,32896
3735,32128
3736,31680
3737,32128
3738,33536
3739,35776
3740,38912
3741,42112
3742,44224
3743,44608
3744,43008
3745,40448
3746,37632
3747,34944
3748,32384
3749,30336
3750,29056
3751,28416
3752,28608
3753,29504
3754,30656
3755,31680
3756,32448
3757,32896
3758,33280
3759,33600
3760,33792
3761,33920
3762,33920
3763,33984
3764,34112
3765,34176
3766,34240
3767,34240
3768,34304
3769,34304
3770,34240
3771,34240
3772,34240
3773,34304
3774,34432
3775,34432
3776,34432
3777,34432
3778,34496
3779,34624
3780,34688
3781,34752
3782,34752
3783,34752
3784,34816
3785,34880
3786,34944
3787,35008
3788,35072
3789,35136
3790,35136
3791,35200
3792,35136
3793,35072
3794,35008
3795,35008
3796,35008
3797,34944
3798,34816
3799,34624
3800,34432
3801,34240
3802,34112
3803,33984
3804,33792
3805,33600
3806,33408
3807,33216
3808,33024
3809,32832
3810,32704
3811,32640
3812,32576
3813,32576
3814,32576
3815,32640
3816,32704
3817,32832
3818,32960
3819,32960
3820,32896
3821,32896
3822,32960
3823,32960
3824,32960
3825,33024
3826,33152
3827,33280
3828,33408
3829,33536
3830,33600
3831,33664
3832,33728
3833,33792
3834,33920
3835,34048
3836,34048
3837,34048
3838,34176
3839,34240
3840,34368
3841,34496
3842,34496
3843,34560
3844,34560
3845,34432
3846,34304
3847,34240
3848,34240
3849,34176
3850,34112
3851,34048
3852,33920
3853,33792
3854,33728
3855,33536
3856,33344
3857,33216
3858,33088
3859,32960
3860,32896
3861,32832
3862,32896
3863,32960
3864,32960
3865,33024
3866,33024
3867,33088
3868,33152
3869,33216
3870,33344
3871,33408
3872,33408
3873,33472
3874,33536
3875,33664
3876,33664
3877,33664
3878,33728
3879,33728
3880,33536
3881,33024
3882,32320
3883,31936
3884,32384
3885,33600
3886,35456
3887,38272
3888,41280
3889,43200
3890,43520
3891,42112
3892,39872
3893,37568
3894,35136
3895,32896
3896,30976
3897,29632
3898,28928
3899,28928
3900,29504
3901,30656
3902,31744
3903,32576
3904,33152
3905,33536
3906,33728
3907,33856
3908,33920
3909,33984
3910,34048
3911,34176
3912,34304
3913,34304
3914,34304
3915,34304
3916,34368
3917,34432
3918,34432
3919,34368
3920,34304
3921,34240
3922,34240
3923,34304
3924,34496
3925,34624
3926,34688
3927,34624
3928,34624
3929,34688
3930,34752
3931,34880
3932,34944
3933,35008
3934,35072
3935,35072
3936,35008
3937,35072
3938,35136
3939,35200
3940,35200
3941,35200
3942,35136
3943,35008
3944,34816
3945,34688
3946,34688
3947,34560
3948,34368
3949,34176
3950,34048
3951,33856
3952,33664
3953,33472
3954,33344
3955,33152
3956,32960
3957,32832
3958,32704
3959,32640
3960,32576
3961,32640
3962,32640
3963,32704
3964,32704
3965,32768
3966,32896
3967,32960
3968,32960
3969,33024
3970,33152
3971,33280
3972,33280
3973,33216
3974,33216
3975,33216
3976,33216
3977,33344
3978,33472
3979,33600
3980,33728
3981,33856
3982,34048
3983,34112
3984,34176
3985,34176
3986,34176
3987,34176
3988,34176
3989,34176
3990,34176
3991,34240
3992,34368
3993,34368
3994,34240
3995,34240
3996,34176
3997,34176
3998,34112
3999,34048
4000,33920
4001,33728
4002,33472
4003,33344
4004,33280
4005,33216
4006,33088
4007,32960
4008,32960
4009,32960
4010,32896
4011,32896
4012,32960
4013,33088
4014,33088
4015,33088
4016,32960
4017,32960
4018,32960
4019,33024
4020,33088
4021,33216
4022,33280
4023,33280
4024,33280
4025,33344
4026,33408
4027,33472
4028,33408
4029,33216
4030,32768
4031,32128
4032,31808
4033,32256
4034,33536
4035,35584
4036,38592
4037,41664
4038,43648
4039,44032
4040,42496
4041,40064
4042,37312
4043,34752
4044,32384
4045,30464
4046,29120
4047,28544
4048,28672
4049,29504
4050,30720
4051,31808
4052,32576
4053,33152
4054,33472
4055,33728
4056,33856
4057,34048
4058,34176
4059,34176
4060,34176
4061,34176
4062,34240
4063,34368
4064,34368
4065,34368
4066,34368
4067,34432
4068,34368
4069,34304
4070,34304
4071,34432
4072,34496
4073,34496
4074,34496
4075,34624
4076,34688
4077,34688
4078,34816
4079,34944
4080,35072
4081,35136
4082,35136
4083,35136
4084,35200
4085,35200
4086,35200
4087,35200
4088,35200
4089,35264
4090,35200
4091,35072
4092,34880
4093,34688
4094,34560
4095,34496
4096,34368
4097,34176
4098,34048
4099,33856
4100,33728
4101,33600
4102,33408
4103,33280
4104,33088
4105,32960
4106,32832
4107,32768
4108,32640
4109,32640
4110,32640
4111,32640
4112,32704
4113,32768
4114,32832
4115,32832
4116,32896
4117,32896
4118,32832
4119,32896
4120,33024
4121,33152
4122,33216
4123,33280
4124,33344
4125,33472
4126,33536
4127,33600
4128,33664
4129,33600
4130,33600
4131,33664
4132,33792
4133,33920
4134,33984
4135,34112
4136,34176
4137,34240
4138,34240
4139,34304
4140,34304
4141,34368
4142,34368
4143,34432
4144,34560
4145,34624
4146,34560
4147,34496
4148,34368
4149,34368
4150,34304
4151,34240
4152,34176
4153,33984
4154,33792
4155,33664
4156,33536
4157,33344
4158,33152
4159,32960
4160,32896
4161,32896
4162,32896
4163,32960
4164,33024
4165,33088
4166,33152
4167,33152
4168,33216
4169,33280
4170,33280
4171,33280
4172,33344
4173,33280
4174,33280
4175,33344
4176,33344
4177,33408
4178,33472
4179,33536
4180,33472
4181,33344
4182,32960
4183,32448
4184,32128
4185,32512
4186,33664
4187,35520
4188,38272
4189,41216
4190,43136
4191,43520
4192,42240
4193,39936
4194,37312
4195,34624
4196,32320
4197,30400
4198,29184
4199,28672
4200,28864
4201,29760
4202,30912
4203,31936
4204,32768
4205,33280
4206,33664
4207,33856
4208,33984
4209,34112
4210,34112
4211,34176
4212,34240
4213,34240
4214,34176
4215,34176
4216,34240
4217,34304
4218,34368
4219,34368
4220,34304
4221,34304
4222,34304
4223,34432
4224,34496
4225,34560
4226,34624
4227,34688
4228,34752
4229,34816
4230,34880
4231,34944
4232,35008
4233,35008
4234,35072
4235,35200
4236,35328
4237,35456
4238,35456
4239,35456
4240,35328
4241,35264
4242,35136
4243,35072
4244,35008
4245,34944
4246,34816
4247,34688
4248,34560
4249,34432
4250,34304
4251,34112
4252,33856
4253,33536
4254,33280
4255,33152
4256,33024
4257,32896
4258,32768
4259,32704
4260,32640
4261,32512
4262,32448
4263,32448
4264,32512
4265,32640
4266,32768
4267,32896
4268,33024
4269,33088
4270,33152
4271,33152
4272,33216
4273,33216
4274,33280
4275,33344
4276,33408
4277,33472
4278,33536
4279,33536
4280,33536
4281,33600
4282,33664
4283,33728
4284,33856
4285,33856
4286,33792
4287,33856
4288,33984
4289,34048
4290,34176
4291,34240
4292,34240
4293,34304
4294,34368
4295,34432
4296,34368
4297,34368
4298,34368
4299,34432
4300,34432
4301,34368
4302,34368
4303,34304
4304,34240
4305,34176
4306,34176
4307,34048
4308,33856
4309,33728
4310,33600
4311,33472
4312,33280
4313,33152
4314,33088
4315,33024
4316,33024
4317,33024
4318,33088
4319,33216
4320,33152
4321,33088
4322,33088
4323,33152
4324,33216
4325,33216
4326,33280
4327,33408
4328,33472
4329,33472
4330,33472
4331,33472
4332,33472
4333,33536
4334,33664
4335,33664
4336,33408
4337,32832
4338,32192
4339,32000
4340,32512
4341,33856
4342,35904
4343,38848
4344,41600
4345,43200
4346,43200
4347,41728
4348,39552
4349,37184
4350,34880
4351,32704
4352,30976
4353,29568
4354,28864
4355,28864
4356,29568
4357,30656
4358,31680
4359,32576
4360,33152
4361,33600
4362,33856
4363,34048
4364,34112
4365,34176
4366,34240
4367,34240
4368,34304
4369,34368
4370,34304
4371,34304
4372,34304
4373,34240
4374,34240
4375,34240
4376,34304
4377,34432
4378,34560
4379,34624
4380,34624
4381,34688
4382,34752
4383,34752
4384,34688
4385,34624
4386,34688
4387,34752
4388,34944
4389,35072
4390,35136
4391,35200
4392,35264
4393,35328
4394,35392
4395,35392
4396,35328
4397,35200
4398,35072
4399,34944
4400,34816
4401,34752
4402,34560
4403,34432
4404,34240
4405,34112
4406,33920
4407,33664
4408,33408
4409,33152
4410,33024
4411,32896
4412,32832
4413,32704
4414,32704
4415,32768
4416,32768
4417,32768
4418,32768
4419,32832
4420,32896
4421,32960
4422,32960
4423,32960
4424,33024
4425,33088
4426,33152
4427,33216
4428,33344
4429,33408
4430,33408
4431,33408
4432,33408
4433,33472
4434,33536
4435,33600
4436,33664
4437,33664
4438,33728
4439,33728
4440,33792
4441,33856
4442,33984
4443,34048
4444,34176
4445,34240
4446,34304
4447,34368
4448,34496
4449,34496
4450,34496
4451,34432
4452,34432
4453,34432
4454,34368
4455,34304
4456,34240
4457,34176
4458,34176
4459,34176
4460,34112
4461,34048
4462,33920
4463,33728
4464,33536
4465,33216
4466,33024
4467,32960
4468,32960
4469,32960
4470,32896
4471,32896
4472,32896
4473,32960
4474,32960
4475,33024
4476,33088
4477,33088
4478,33152
4479,33280
4480,33344
4481,33472
4482,33536
4483,33600
4484,33536
4485,33408
4486,33344
4487,33408
4488,33472
4489,33408
4490,32960
4491,32448
4492,32128
4493,32512
4494,33600
4495,35520
4496,38272
4497,41280
4498,43136
4499,43456
4500,42112
4501,39808
4502,37440
4503,35008
4504,32768
4505,30976
4506,29632
4507,28992
4508,29120
4509,29888
4510,30976
4511,31936
4512,32640
4513,33152
4514,33472
4515,33728
4516,33920
4517,33920
4518,33920
4519,33920
4520,34048
4521,34176
4522,34240
4523,34240
4524,34240
4525,34304
4526,34368
4527,34432
4528,34496
4529,34496
4530,34432
4531,34432
4532,34496
4533,34560
4534,34624
4535,34752
4536,34816
4537,34816
4538,34816
4539,34880
4540,34944
4541,35008
4542,35072
4543,35136
4544,35136
4545,35200
4546,35200
4547,35200
4548,35200
4549,35136
4550,35136
4551,35136
4552,35072
4553,34944
4554,34752
4555,34496
4556,34304
4557,34112
4558,33984
4559,33792
4560,33600
4561,33408
4562,33280
4563,33088
4564,32960
4565,32832
4566,32768
4567,32704
4568,32640
4569,32576
4570,32576
4571,32576
4572,32640
4573,32640
4574,32704
4575,32768
4576,32832
4577,32960
4578,33088
4579,33216
4580,33216
4581,33152
4582,33216
4583,33280
4584,33408
4585,33408
4586,33472
4587,33472
4588,33472
4589,33472
4590,33472
4591,33536
4592,33536
4593,33600
4594,33664
4595,33728
4596,33792
4597,33856
4598,33856
4599,33856
4600,33920
4601,33984
4602,34176
4603,34304
4604,34304
4605,34304
4606,34368
4607,34432
4608,34496
4609,34496
4610,34624
4611,34688
4612,34624
4613,34560
4614,34432
4615,34432
4616,34368
4617,34304
4618,34240
4619,34112
4620,33984
4621,33792
4622,33664
4623,33472
4624,33344
4625,33152
4626,33024
4627,32960
4628,32896
4629,32960
4630,33024
4631,33088
4632,33152
4633,33216
4634,33216
4635,33216
4636,33280
4637,33280
4638,33408
4639,33472
4640,33600
4641,33600
4642,33600
4643,33600
4644,33600
4645,33536
4646,33600
4647,33472
4648,33216
4649,32768
4650,32192
4651,32128
4652,32832
4653,34112
4654,36288
4655,39232
4656,41920
4657,43392
4658,43136
4659,41472
4660,39104
4661,36608
4662,34176
4663,32000
4664,30272
4665,29184
4666,28800
4667,29184
4668,30144
4669,31296
4670,32320
4671,32960
4672,33472
4673,33664
4674,33792
4675,33984
4676,34112
4677,34176
4678,34176
4679,34240
4680,34304
4681,34240
4682,34176
4683,34176
4684,34240
4685,34240
4686,34304
4687,34304
4688,34304
4689,34368
4690,34432
4691,34560
4692,34624
4693,34624
4694,34624
4695,34624
4696,34688
4697,34816
4698,34944
4699,35008
4700,35072
4701,35136
4702,35200
4703,35264
4704,35264
4705,35328
4706,35392
4707,35392
4708,35328
4709,35328
4710,35264
4711,35136
4712,34944
4713,34816
4714,34688
4715,34560
4716,34304
4717,34048
4718,33856
4719,33664
4720,33408
4721,33216
4722,32960
4723,32832
4724,32704
4725,32704
4726,32640
4727,32576
4728,32576
4729,32576
4730,32640
4731,32704
4732,32768
4733,32768
4734,32768
4735,32832
4736,32960
4737,33088
4738,33216
4739,33344
4740,33344
4741,33344
4742,33280
4743,33344
4744,33408
4745,33408
4746,33472
4747,33536
4748,33536
4749,33536
4750,33536
4751,33600
4752,33600
4753,33664
4754,33664
4755,33664
4756,33664
4757,33664
4758,33664
4759,33792
4760,33920
4761,34112
4762,34240
4763,34304
4764,34368
4765,34432
4766,34496
4767,34496
4768,34496
4769,34496
4770,34496
4771,34496
4772,34496
4773,34432
4774,34432
4775,34368
4776,34304
4777,34176
4778,34048
4779,33856
4780,33664
4781,33536
4782,33408
4783,33280
4784,33152
4785,33024
4786,32960
4787,32896
4788,32896
4789,32896
4790,32960
4791,33088
4792,33088
4793,33088
4794,33088
4795,33152
4796,33216
4797,33152
4798,33152
4799,33216
4800,33344
4801,33408
4802,33472
4803,33536
4804,33664
4805,33664
4806,33664
4807,33472
4808,33088
4809,32448
4810,32064
4811,32320
4812,33344
4813,35200
4814,37952
4815,40960
4816,43136
4817,43648
4818,42496
4819,40256
4820,37696
4821,35136
4822,32384
4823,30720
4824,29312
4825,28672
4826,28800
4827,29632
4828,30848
4829,31872
4830,32640
4831,33152
4832,33536
4833,33728
4834,33920
4835,34048
4836,34112
4837,34176
4838,34176
4839,34304
4840,34368
4841,34368
4842,34304
4843,34240
4844,34176
4845,34240
4846,34304
4847,34304
4848,34368
4849,34432
4850,34496
4851,34496
4852,34560
4853,34560
4854,34688
4855,34752
4856,34880
4857,35008
4858,35136
4859,35200
4860,35200
4861,35264
4862,35264
4863,35200
4864,35200
4865,35200
4866,35200
4867,35264
4868,35264
4869,35200
4870,35136
4871,35008
4872,34816
4873,34688
4874,34496
4875,34368
4876,34176
4877,33984
4878,33728
4879,33536
4880,33344
4881,33216
4882,33152
4883,32960
4884,32896
4885,32768
4886,32704
4887,32576
4888,32512
4889,32512
4890,32576
4891,32640
4892,32768
4893,32832
4894,32896
4895,32896
4896,32960
4897,32960
4898,33024
4899,33088
4900,33152
4901,33280
4902,33344
4903,33472
4904,33600
4905,33664
4906,33728
4907,33728
4908,33792
4909,33792
4910,33792
4911,33728
4912,33728
4913,33728
4914,33792
4915,33856
4916,33920
4917,33920
4918,33856
4919,33728
4920,33792
4921,33984
4922,34112
4923,34240
4924,34304
4925,34368
4926,34432
4927,34432
4928,34432
4929,34432
4930,34496
4931,34560
4932,34560
4933,34560
4934,34496
4935,34432
4936,34432
4937,34368
4938,34304
4939,34240
4940,33984
4941,33792
4942,33600
4943,33472
4944,33280
4945,33088
4946,33024
4947,32960
4948,32960
4949,33024
4950,33088
4951,33088
4952,33088
4953,33024
4954,33024
4955,33152
4956,33216
4957,33344
4958,33408
4959,33472
4960,33536
4961,33536
4962,33536
4963,33536
4964,33600
4965,33600
4966,33600
4967,33536
4968,33280
4969,32832
4970,32192
4971,32064
4972,32704
4973,33984
4974,36096
4975,39104
4976,41856
4977,43328
4978,43136
4979,41472
4980,39168
4981,36736
4982,34368
4983,32192
4984,30464
4985,29248
4986,28736
4987,29120
4988,29824
4989,30976
4990,32000
4991,32704
4992,33216
4993,33600
4994,33856
4995,34048
4996,34112
4997,34176
4998,34176
4999,34240
5000,34240
5001,34304
5002,34368
5003,34368
5004,34432
5005,34432
5006,34432
5007,34432
5008,34368
5009,34432
5010,34432
5011,34496
5012,34560
5013,34624
5014,34688
5015,34624
5016,34624
5017,34688
5018,34752
5019,34880
5020,35008
5021,35136
5022,35200
5023,35264
5024,35328
5025,35264
5026,35264
5027,35264
5028,35200
5029,35136
5030,35136
5031,35072
5032,34880
5033,34816
5034,34688
5035,34624
5036,34496
5037,34240
5038,33984
5039,33792
5040,33600
5041,33408
5042,33216
5043,33088
5044,32960
5045,32832
5046,32704
5047,32576
5048,32512
5049,32448
5050,32448
5051,32512
5052,32576
5053,32704
5054,32768
5055,32832
5056,32960
5057,33088
5058,33216
5059,33344
5060,33536
5061,33600
5062,33600
5063,33536
5064,33536
5065,33600
5066,33664
5067,33792
5068,33792
5069,33728
5070,33600
5071,33600
5072,33536
5073,33728
5074,33856
5075,33984
5076,34176
5077,34112
5078,34176
5079,34368
5080,34432
5081,34560
5082,34496
5083,34432
5084,34496
5085,34560
5086,34560
5087,34624
5088,34496
5089,34368
5090,34304
5091,34240
5092,34176
5093,34176
5094,34112
5095,33984
5096,33792
5097,33664
5098,33536
5099,33344
5100,33216
5101,33024
5102,32960
5103,33024
5104,33024
5105,33024
5106,33088
5107,33024
5108,33088
5109,33088
5110,33088
5111,33088
5112,33152
5113,33216
5114,33344
5115,33472
5116,33536
5117,33472
5118,33472
5119,33536
5120,33600
5121,33600
5122,33600
5123,33472
5124,33024
5125,32320
5126,31872
5127,31936
5128,32960
5129,34752
5130,37632
5131,40896
5132,43072
5133,43776
5134,42688
5135,40576
5136,37440
5137,37056
5138,33408
5139,31488
5140,30016
5141,29248
5142,29056
5143,29440
5144,30400
5145,31488
5146,32384
5147,32960
5148,33344
5149,33536
5150,33728
5151,33856
5152,33856
5153,34048
5154,34112
5155,34112
5156,34176
5157,34240
5158,34304
5159,34240
5160,34240
5161,34368
5162,34432
5163,34496
5164,34496
5165,34496
5166,34496
5167,34496
5168,34496
5169,34560
5170,34624
5171,34688
5172,34752
5173,34880
5174,34880
5175,35008
5176,35008
5177,35072
5178,35136
5179,35200
5180,35264
5181,35264
5182,35264
5183,35136
5184,35008
5185,34944
5186,34816
5187,34688
5188,34560
5189,34496
5190,34368
5191,34304
5192,34176
5193,33984
5194,33792
5195,33600
5196,33408
5197,33344
5198,33152
5199,33024
5200,32896
5201,32832
5202,32768
5203,32704
5204,32640
5205,32640
5206,32640
5207,32640
5208,32640
5209,32704
5210,32768
5211,32896
5212,32832
5213,33024
5214,33152
5215,33216
5216,33280
5217,33344
5218,33408
5219,33472
5220,33536
5221,33600
5222,33664
5223,33728
5224,33728
5225,33728
5226,33728
5227,33792
5228,33856
5229,33856
5230,33792
5231,33664
5232,33664
5233,33664
5234,33728
5235,33792
5236,33984
5237,34112
5238,34304
5239,34432
5240,34496
5241,34560
5242,34496
5243,34496
5244,34560
5245,34624
5246,34624
5247,34624
5248,34624
5249,34624
5250,34560
5251,34432
5252,34304
5253,34240
5254,34048
5255,33856
5256,33728
5257,33664
5258,33472
5259,33280
5260,33088
5261,33024
5262,33024
5263,33088
5264,33088
5265,33152
5266,33216
5267,33216
5268,33152
5269,33152
5270,33152
5271,33152
5272,33216
5273,33280
5274,33344
5275,33344
5276,33408
5277,33536
5278,33600
5279,33664
5280,33728
5281,33664
5282,33600
5283,33408
5284,32960
5285,32320
5286,32192
5287,32192
5288,33792
5289,35712
5290,38656
5291,41536
5292,43264
5293,43392
5294,41920
5295,39680
5296,37184
5297,34688
5298,32320
5299,30400
5300,29184
5301,28672
5302,28672
5303,29952
5304,31104
5305,32128
5306,32832
5307,33280
5308,33600
5309,33792
5310,33920
5311,34048
5312,34176
5313,34240
5314,34240
5315,34240
5316,34240
5317,34176
5318,34304
5319,34368
5320,34368
5321,34368
5322,34368
5323,34432
5324,34496
5325,34560
5326,34560
5327,34624
5328,34688
5329,34752
5330,34816
5331,34944
5332,35008
5333,35072
5334,35136
5335,35200
5336,35328
5337,35264
5338,35200
5339,35200
5340,35200
5341,35264
5342,35328
5343,35328
5344,35264
5345,35264
5346,35200
5347,35136
5348,35008
5349,34752
5350,34624
5351,34432
5352,34304
5353,34112
5354,33856
5355,33600
5356,33344
5357,33152
5358,33024
5359,32832
5360,32768
5361,32704
5362,32640
5363,32640
5364,32576
5365,32576
5366,32576
5367,32576
5368,32640
5369,32768
5370,32832
5371,32896
5372,33024
5373,33152
5374,33216
5375,33280
5376,33344
5377,33408
5378,33472
5379,33536
5380,33600
5381,33664
5382,33664
5383,33664
5384,33664
5385,33728
5386,33792
5387,33792
5388,33792
5389,33856
5390,33856
5391,33856
5392,33856
5393,34048
5394,34112
5395,34240
5396,34368
5397,34496
5398,34560
5399,34560
5400,34432
5401,34304
5402,34304
5403,34432
5404,34496
5405,34560
5406,34496
5407,34432
5408,34432
5409,34368
5410,34240
5411,34176
5412,34048
5413,33856
5414,33728
5415,33600
5416,33408
5417,33280
5418,33088
5419,32896
5420,32832
5421,32896
5422,32896
5423,32960
5424,33088
5425,33152
5426,33152
5427,33152
5428,33152
5429,33216
5430,33280
5431,33344
5432,33408
5433,33472
5434,33472
5435,33536
5436,33600
5437,33664
5438,33664
5439,33664
5440,33536
5441,33216
5442,32576
5443,32000
5444,32000
5445,32832
5446,34432
5447,36800
5448,40000
5449,42624
5450,43904
5451,42496
5452,42176
5453,38912
5454,36416
5455,33984
5456,31808
5457,30208
5458,29120
5459,28736
5460,29120
5461,30144
5462,31232
5463,32192
5464,32896
5465,33344
5466,33792
5467,33728
5468,33984
5469,34048
5470,34112
5471,34176
5472,34176
5473,34176
5474,34240
5475,34304
5476,34368
5477,34368
5478,34368
5479,34368
5480,34368
5481,34496
5482,34560
5483,34560
5484,34624
5485,34688
5486,34752
5487,34816
5488,34880
5489,34880
5490,34880
5491,34944
5492,35008
5493,35136
5494,35200
5495,35264
5496,35392
5497,35328
5498,35392
5499,35392
5500,35328
5501,35200
5502,35200
5503,35136
5504,35072
5505,34944
5506,34880
5507,34816
5508,34688
5509,34432
5510,34176
5511,33792
5512,33728
5513,33472
5514,33280
5515,33088
5516,33024
5517,32832
5518,32640
5519,32512
5520,32512
5521,32512
5522,32576
5523,32640
5524,32704
5525,32768
5526,32832
5527,32832
5528,32960
5529,33024
5530,33088
5531,33216
5532,33152
5533,33216
5534,33280
5535,33408
5536,33472
5537,33536
5538,33536
5539,33536
5540,33536
5541,33600
5542,33664
5543,33728
5544,33664
5545,33728
5546,33792
5547,33792
5548,33792
5549,33920
5550,34048
5551,34240
5552,34368
5553,34432
5554,34496
5555,34432
5556,34432
5557,34432
5558,34368
5559,34432
5560,34496
5561,34496
5562,34432
5563,34496
5564,34432
5565,34368
5566,34240
5567,34112
5568,33984
5569,33856
5570,33792
5571,33664
5572,33536
5573,33344
5574,33216
5575,33088
5576,32960
5577,32960
5578,33024
5579,33088
5580,33152
5581,33152
5582,33152
5583,33216
5584,33280
5585,33344
5586,33408
5587,33472
5588,33536
5589,33536
5590,33536
5591,33600
5592,33728
5593,33728
5594,33792
5595,33792
5596,33728
5597,33536
5598,33024
5599,32320
5600,31872
5601,32064
5602,33024
5603,34816
5604,37632
5605,40768
5606,42944
5607,43584
5608,42496
5609,40512
5610,38336
5611,36032
5612,33920
5613,32064
5614,30528
5615,29504
5616,29056
5617,29376
5618,30272
5619,31296
5620,32256
5621,33024
5622,33472
5623,33856
5624,34048
5625,34176
5626,34240
5627,34240
5628,34240
5629,34304
5630,34304
5631,34240
5632,34112
5633,34176
5634,34240
5635,34240
5636,34304
5637,34304
5638,34368
5639,34432
5640,34496
5641,34624
5642,34688
5643,34752
5644,34816
5645,34816
5646,34880
5647,34944
5648,35072
5649,35136
5650,35136
5651,35136
5652,35200
5653,35264
5654,35264
5655,35200
5656,35136
5657,35136
5658,35072
5659,35008
5660,34944
5661,34880
5662,34880
5663,34752
5664,34560
5665,34368
5666,34176
5667,34048
5668,33856
5669,33664
5670,33536
5671,33344
5672,33152
5673,33024
5674,32896
5675,32768
5676,32704
5677,32640
5678,32704
5679,32768
5680,32832
5681,32896
5682,32960
5683,33024
5684,33088
5685,33152
5686,33216
5687,33280
5688,33280
5689,33344
5690,33408
5691,33408
5692,33408
5693,33536
5694,33600
5695,33536
5696,33536
5697,33536
5698,33664
5699,33728
5700,33728
5701,33792
5702,33920
5703,34048
5704,34176
5705,34368
5706,34432
5707,34496
5708,34560
5709,34624
5710,34624
5711,34624
5712,34624
5713,34752
5714,34880
5715,34752
5716,34624
5717,34496
5718,34368
5719,34368
5720,34304
5721,34240
5722,34112
5723,33984
5724,33856
5725,33728
5726,33536
5727,33280
5728,33152
5729,33088
5730,33088
5731,33024
5732,33024
5733,33088
5734,33280
5735,33280
5736,33216
5737,33216
5738,33216
5739,33216
5740,33216
5741,33280
5742,33408
5743,33536
5744,33600
5745,33600
5746,33536
5747,33536
5748,33536
5749,33664
5750,33728
5751,33600
5752,33344
5753,32704
5754,32064
5755,31872
5756,32512
5757,33984
5758,36288
5759,39424
5760,42176
5761,43584
5762,43264
5763,41664
5764,39424
5765,37056
5766,34752
5767,32576
5768,30912
5769,29696
5770,28992
5771,28992
5772,29696
5773,30784
5774,31808
5775,32640
5776,33216
5777,33600
5778,33856
5779,34048
5780,34176
5781,34240
5782,34304
5783,34304
5784,34368
5785,34368
5786,34304
5787,34304
5788,34368
5789,34432
5790,34432
5791,34368
5792,34368
5793,34432
5794,34432
5795,34432
5796,34496
5797,34560
5798,34560
5799,34624
5800,34688
5801,34816
5802,34880
5803,34944
5804,35008
5805,35136
5806,35200
5807,35264
5808,35328
5809,35264
5810,35200
5811,35136
5812,35072
5813,35008
5814,34944
5815,34880
5816,34816
5817,34688
5818,34624
5819,34432
5820,34240
5821,33984
5822,33728
5823,33536
5824,33408
5825,33280
5826,33152
5827,32960
5828,32832
5829,32768
5830,32640
5831,32576
5832,32576
5833,32640
5834,32640
5835,32704
5836,32768
5837,32896
5838,32960
5839,33088
5840,33152
5841,33152
5842,33216
5843,33344
5844,33344
5845,33408
5846,33408
5847,33472
5848,33536
5849,33600
5850,33600
5851,33536
5852,33536
5853,33536
5854,33536
5855,33600
5856,33728
5857,33728
5858,33792
5859,33856
5860,33920
5861,34048
5862,34176
5863,34304
5864,34432
5865,34496
5866,34560
5867,34560
5868,34560
5869,34560
5870,34560
5871,34560
5872,34560
5873,34496
5874,34432
5875,34432
5876,34368
5877,34304
5878,34176
5879,34112
5880,33920
5881,33728
5882,33536
5883,33344
5884,33152
5885,33088
5886,33024
5887,33088
5888,33024
5889,33024
5890,33088
5891,33088
5892,33152
5893,33152
5894,33216
5895,33216
5896,33216
5897,33280
5898,33408
5899,33472
5900,33536
5901,33600
5902,33664
5903,33664
5904,33664
5905,33664
5906,33664
5907,33664
5908,33472
5909,33152
5910,32512
5911,32000
5912,32128
5913,33024
5914,34688
5915,37248
5916,40320
5917,42752
5918,43520
5919,42816
5920,40832
5921,38400
5922,35776
5923,33280
5924,31168
5925,29696
5926,28864
5927,28864
5928,29696
5929,30912
5930,31872
5931,32640
5932,33152
5933,33472
5934,33728
5935,33920
5936,34048
5937,34112
5938,34048
5939,33984
5940,33984
5941,33984
5942,33984
5943,34112
5944,34240
5945,34368
5946,34432
5947,34496
5948,34560
5949,34560
5950,34560
5951,34496
5952,34496
5953,34496
5954,34560
5955,34688
5956,34816
5957,35008
5958,35072
5959,35072
5960,35200
5961,35328
5962,35328
5963,35200
5964,35136
5965,35136
5966,35200
5967,35264
5968,35328
5969,35328
5970,35264
5971,35200
5972,35072
5973,35008
5974,34944
5975,34752
5976,34624
5977,34368
5978,34112
5979,33792
5980,33600
5981,33408
5982,33216
5983,33024
5984,32960
5985,32832
5986,32704
5987,32576
5988,32512
5989,32512
5990,32512
5991,32576
5992,32704
5993,32768
5994,32832
5995,32832
5996,32896
5997,32896
5998,32960
5999,33088
6000,33216
6001,33344
6002,33408
6003,33472
6004,33472
6005,33536
6006,33536
6007,33536
6008,33600
6009,33664
6010,33728
6011,33728
6012,33792
6013,33792
6014,33792
6015,33856
6016,33856
6017,33856
6018,33856
6019,33984
6020,34176
6021,34304
6022,34368
6023,34368
6024,34432
6025,34432
6026,34432
6027,34432
6028,34496
6029,34496
6030,34560
6031,34560
6032,34496
6033,34432
6034,34432
6035,34368
6036,34304
6037,34240
6038,34176
6039,34112
6040,33984
6041,33856
6042,33728
6043,33472
6044,33216
6045,33088
6046,33024
6047,32960
6048,32960
6049,33024
6050,33024
6051,33088
6052,33088
6053,33152
6054,33216
6055,33280
6056,33280
6057,33280
6058,33280
6059,33344
6060,33408
6061,33472
6062,33536
6063,33600
6064,33728
6065,33792
6066,33856
6067,33856
6068,33600
6069,33088
6070,32448
6071,32128
6072,32512
6073,33664
6074,35520
6075,38336
6076,41408
6077,43392
6078,43840
6079,42496
6080,40256
6081,37696
6082,35008
6083,32832
6084,30912
6085,29568
6086,28864
6087,28928
6088,29696
6089,30912
6090,32064
6091,32832
6092,33280
6093,33472
6094,33664
6095,33856
6096,33984
6097,34112
6098,34176
6099,34176
6100,34240
6101,34304
6102,34368
6103,34368
6104,34304
6105,34240
6106,34176
6107,34176
6108,34240
6109,34304
6110,34432
6111,34560
6112,34624
6113,34624
6114,34688
6115,34752
6116,34816
6117,34880
6118,35008
6119,35008
6120,35072
6121,35200
6122,35200
6123,35264
6124,35264
6125,35328
6126,35392
6127,35392
6128,35392
6129,35392
6130,35328
6131,35264
6132,35200
6133,35136
6134,35008
6135,34816
6136,34624
6137,34368
6138,33984
6139,33728
6140,33472
6141,33216
6142,33088
6143,32896
6144,32704
6145,32640
6146,32576
6147,32576
6148,32512
6149,32512
6150,32512
6151,32576
6152,32640
6153,32704
6154,32704
6155,32768
6156,32832
6157,32896
6158,33024
6159,33088
6160,33152
6161,33216
6162,33344
6163,33472
6164,33536
6165,33600
6166,33600
6167,33664
6168,33664
6169,33600
6170,33664
6171,33728
6172,33792
6173,33792
6174,33728
6175,33664
6176,33664
6177,33728
6178,33792
6179,33792
6180,33792
6181,33792
6182,33792
6183,33792
6184,33856
6185,33984
6186,34176
6187,34368
6188,34432
6189,34368
6190,34304
6191,34304
6192,34368
6193,34368
6194,34368
6195,34432
6196,34560
6197,34496
6198,34432
6199,34432
6200,34432
6201,34432
6202,34368
6203,34368
6204,34304
6205,34048
6206,33792
6207,33664
6208,33472
6209,33280
6210,33152
6211,33088
6212,33024
6213,32960
6214,32960
6215,33024
6216,33024
6217,33088
6218,33088
6219,33152
6220,33280
6221,33344
6222,33408
6223,33472
6224,33472
6225,33536
6226,33600
6227,33600
6228,33600
6229,33600
6230,33600
6231,33664
6232,33728
6233,33536
6234,33088
6235,32512
6236,32000
6237,32128
6238,32960
6239,34560
6240,37056
6241,40192
6242,42624
6243,43648
6244,42944
6245,41088
6246,38720
6247,36288
6248,33920
6249,31872
6250,30208
6251,29184
6252,28800
6253,29184
6254,30144
6255,31232
6256,32192
6257,32896
6258,33280
6259,33536
6260,33728
6261,33920
6262,33984
6263,34048
6264,34112
6265,34176
6266,34176
6267,34176
6268,34240
6269,34304
6270,34304
6271,34368
6272,34432
6273,34432
6274,34496
6275,34560
6276,34688
6277,34688
6278,34688
6279,34624
6280,34624
6281,34624
6282,34688
6283,34688
6284,34752
6285,34880
6286,35008
6287,35072
6288,35200
6289,35264
6290,35328
6291,35328
6292,35328
6293,35264
6294,35264
6295,35200
6296,35136
6297,35072
6298,34944
6299,34752
6300,34624
6301,34496
6302,34304
6303,34112
6304,33920
6305,33728
6306,33536
6307,33344
6308,33152
6309,32960
6310,32832
6311,32768
6312,32640
6313,32576
6314,32512
6315,32512
6316,32512
6317,32512
6318,32576
6319,32640
6320,32768
6321,32832
6322,32896
6323,33024
6324,33088
6325,33216
6326,33280
6327,33344
6328,33408
6329,33408
6330,33472
6331,33536
6332,33600
6333,33600
6334,33600
6335,33600
6336,33536
6337,33600
6338,33664
6339,33792
6340,33856
6341,33920
6342,33920
6343,33920
6344,33856
6345,33920
6346,34048
6347,34176
6348,34304
6349,34432
6350,34560
6351,34560
6352,34560
6353,34496
6354,34432
6355,34432
6356,34432
6357,34496
6358,34560
6359,34496
6360,34368
6361,34304
6362,34240
6363,34176
6364,34176
6365,34112
6366,33984
6367,33792
6368,33664
6369,33536
6370,33344
6371,33216
6372,33152
6373,33088
6374,33088
6375,33088
6376,33024
6377,33024
6378,33024
6379,33088
6380,33152
6381,33216
6382,33280
6383,33280
6384,33280
6385,33344
6386,33344
6387,33408
6388,33472
6389,33536
6390,33536
6391,33600
6392,33664
6393,33664
6394,33664
6395,33408
6396,32832
6397,32128
6398,31744
6399,32064
6400,33280
6401,35328
6402,38144
6403,41088
6404,42944
6405,43264
6406,42112
6407,40192
6408,38144
6409,35776
6410,33728
6411,31808
6412,30272
6413,29376
6414,29056
6415,29440
6416,30336
6417,31360
6418,32256
6419,32896
6420,33408
6421,33728
6422,33856
6423,34048
6424,34048
6425,34112
6426,34112
6427,34176
6428,34240
6429,34304
6430,34304
6431,34304
6432,34304
6433,34368
6434,34304
6435,34368
6436,34368
6437,34432
6438,34496
6439,34560
6440,34560
6441,34560
6442,34624
6443,34688
6444,34752
6445,34880
6446,34880
6447,34944
6448,35008
6449,35072
6450,35136
6451,35136
6452,35136
6453,35136
6454,35136
6455,35072
6456,35072
6457,35072
6458,35008
6459,34944
6460,34752
6461,34560
6462,34432
6463,34240
6464,34048
6465,33856
6466,33728
6467,33536
6468,33344
6469,33152
6470,32960
6471,32832
6472,32832
6473,32832
6474,32832
6475,32832
6476,32832
6477,32832
6478,32832
6479,32896
6480,32960
6481,33024
6482,33024
6483,33152
6484,33216
6485,33280
6486,33280
6487,33408
6488,33472
6489,33536
6490,33536
6491,33536
6492,33536
6493,33600
6494,33664
6495,33664
6496,33600
6497,33600
6498,33600
6499,33664
6500,33728
6501,33792
6502,33792
6503,33856
6504,33984
6505,34112
6506,34240
6507,34368
6508,34432
6509,34496
6510,34496
6511,34496
6512,34496
6513,34432
6514,34496
6515,34624
6516,34752
6517,34752
6518,34624
6519,34496
6520,34368
6521,34304
6522,34240
6523,34176
6524,34048
6525,33856
6526,33728
6527,33600
6528,33472
6529,33280
6530,33152
6531,33024
6532,32960
6533,33024
6534,33024
6535,33024
6536,33024
6537,33088
6538,33152
6539,33216
6540,33344
6541,33408
6542,33408
6543,33408
6544,33408
6545,33408
6546,33472
6547,33472
6548,33408
6549,33408
6550,33472
6551,33472
6552,33472
6553,33536
6554,33408
6555,33024
6556,32448
6557,32064
6558,32384
6559,33536
6560,35392
6561,38144
6562,41216
6563,43008
6564,43456
6565,42240
6566,40256
6567,37952
6568,35584
6569,33408
6570,31552
6571,30144
6572,29184
6573,28928
6574,29376
6575,30336
6576,31360
6577,32320
6578,32960
6579,33344
6580,33600
6581,33792
6582,33920
6583,34048
6584,34112
6585,34176
6586,34240
6587,34240
6588,34240
6589,34304
6590,34304
6591,34368
6592,34368
6593,34368
6594,34368
6595,34432
6596,34432
6597,34496
6598,34560
6599,34560
6600,34560
6601,34624
6602,34688
6603,34688
6604,34752
6605,34880
6606,35008
6607,35136
6608,35200
6609,35264
6610,35264
6611,35264
6612,35264
6613,35264
6614,35264
6615,35328
6616,35264
6617,35136
6618,35008
6619,34880
6620,34624
6621,34432
6622,34176
6623,33984
6624,33728
6625,33536
6626,33344
6627,33152
6628,33088
6629,32960
6630,32896
6631,32832
6632,32768
6633,32640
6634,32576
6635,32512
6636,32512
6637,32640
6638,32768
6639,32832
6640,32896
6641,32896
6642,32960
6643,32960
6644,32960
6645,33088
6646,33216
6647,33280
6648,33408
6649,33472
6650,33600
6651,33600
6652,33664
6653,33664
6654,33728
6655,33728
6656,33664
6657,33600
6658,33600
6659,33664
6660,33728
6661,33792
6662,33856
6663,33984
6664,34112
6665,34176
6666,34240
6667,34368
6668,34496
6669,34624
6670,34688
6671,34560
6672,34496
6673,34496
6674,34624
6675,34624
6676,34624
6677,34560
6678,34496
6679,34432
6680,34432
6681,34432
6682,34240
6683,34048
6684,33792
6685,33664
6686,33472
6687,33280
6688,33088
6689,32896
6690,32832
6691,32832
6692,32832
6693,32896
6694,33024
6695,33088
6696,33216
6697,33280
6698,33280
6699,33280
6700,33280
6701,33344
6702,33408
6703,33472
6704,33536
6705,33600
6706,33664
6707,33792
6708,33856
6709,33792
6710,33792
6711,33728
6712,33472
6713,33088
6714,32448
6715,31936
6716,31936
6717,32768
6718,34368
6719,36800
6720,39872
6721,42304
6722,43392
6723,42880
6724,41216
6725,39040
6726,36672
6727,34176
6728,32384
6729,30784
6730,29760
6731,29248
6732,29376
6733,30080
6734,31040
6735,32000
6736,32768
6737,33216
6738,33536
6739,33728
6740,33856
6741,33984
6742,34048
6743,34112
6744,34112
6745,34176
6746,34240
6747,34304
6748,34368
6749,34432
6750,34432
6751,34432
6752,34432
6753,34496
6754,34560
6755,34624
6756,34688
6757,34688
6758,34752
6759,34816
6760,34880
6761,34880
6762,34944
6763,34944
6764,35008
6765,35136
6766,35264
6767,35264
6768,35200
6769,35136
6770,35200
6771,35200
6772,35264
6773,35200
6774,35200
6775,35072
6776,35008
6777,34944
6778,34816
6779,34624
6780,34496
6781,34304
6782,34112
6783,33920
6784,33664
6785,33408
6786,33152
6787,32896
6788,32768
6789,32704
6790,32640
6791,32640
6792,32704
6793,32640
6794,32576
6795,32512
6796,32576
6797,32640
6798,32768
6799,32832
6800,32960
6801,33024
6802,33024
6803,33024
6804,33088
6805,33152
6806,33216
6807,33344
6808,33472
6809,33536
6810,33664
6811,33664
6812,33664
6813,33664
6814,33600
6815,33664
6816,33664
6817,33792
6818,33792
6819,33792
6820,33792
6821,33856
6822,33856
6823,33856
6824,33856
6825,33920
6826,34048
6827,34240
6828,34304
6829,34432
6830,34560
6831,34560
6832,34560
6833,34560
6834,34560
6835,34624
6836,34624
6837,34624
6838,34688
6839,34688
6840,34560
6841,34368
6842,34304
6843,34176
6844,34048
6845,33792
6846,33600
6847,33408
6848,33280
6849,33024
6850,32960
6851,32960
6852,32960
6853,32960
6854,32960
6855,33088
6856,33152
6857,33216
6858,33280
6859,33280
6860,33280
6861,33280
6862,33280
6863,33216
6864,33216
6865,33280
6866,33344
6867,33408
6868,33472
6869,33600
6870,33792
6871,33984
6872,33920
6873,33600
6874,33152
6875,32000
6876,32192
6877,32256
6878,34752
6879,37376
6880,40512
6881,42752
6882,43648
6883,42880
6884,40960
6885,38592
6886,36032
6887,33664
6888,31616
6889,30080
6890,29248
6891,29056
6892,29696
6893,30656
6894,31680
6895,32512
6896,33152
6897,33472
6898,33664
6899,33792
6900,33920
6901,34048
6902,34112
6903,34112
6904,34048
6905,34112
6906,34112
6907,34176
6908,34176
6909,34240
6910,34304
6911,34432
6912,34496
6913,34496
6914,34496
6915,34496
6916,34560
6917,34624
6918,34688
6919,34816
6920,34816
6921,34816
6922,34752
6923,34880
6924,35008
6925,35072
6926,35136
6927,35200
6928,35264
6929,35264
6930,35264
6931,35200
6932,35200
6933,35200
6934,35200
6935,35136
6936,35072
6937,35008
6938,34816
6939,34688
6940,34496
6941,34240
6942,33984
6943,33792
6944,33664
6945,33408
6946,33088
6947,32832
6948,32640
6949,32640
6950,32768
6951,32896
6952,32704
6953,32512
6954,32384
6955,32320
6956,32320
6957,32448
6958,32576
6959,32704
6960,32832
6961,32960
6962,33088
6963,33280
6964,33472
6965,33600
6966,33600
6967,33536
6968,33472
6969,33536
6970,33664
6971,33728
6972,33728
6973,33728
6974,33728
6975,33728
6976,33728
6977,33728
6978,33792
6979,33856
6980,33856
6981,33920
6982,33920
6983,33984
6984,33984
6985,33984
6986,33920
6987,33984
6988,33984
6989,34112
6990,34112
6991,34112
6992,34112
6993,34240
6994,34368
6995,34368
6996,34432
6997,34368
6998,34496
6999,34496
7000,34560
7001,34624
7002,34624
7003,34560
7004,34496
7005,34496
7006,34496
7007,34432
7008,34368
7009,34240
7010,34176
7011,33984
7012,33728
7013,33536
7014,33408
7015,33280
7016,33152
7017,33024
7018,32896
7019,32960
7020,33088
7021,33152
7022,33088
7023,33024
7024,33088
7025,33088
7026,33216
7027,33152
7028,33280
7029,33280
7030,33344
7031,33408
7032,33536
7033,33664
7034,33792
7035,33792
7036,33728
7037,33600
7038,33600
7039,33536
7040,33216
7041,32640
7042,32512
7043,32384
7044,33344
7045,34944
7046,37312
7047,40256
7048,42560
7049,43520
7050,42880
7051,40960
7052,38592
7053,36032
7054,33600
7055,31488
7056,29824
7057,28928
7058,28800
7059,29440
7060,30656
7061,31808
7062,32640
7063,33152
7064,33472
7065,33728
7066,33984
7067,34048
7068,34112
7069,34112
7070,34112
7071,34240
7072,34176
7073,34368
7074,34304
7075,34304
7076,34240
7077,34176
7078,34176
7079,34240
7080,34304
7081,34432
7082,34496
7083,34560
7084,34624
7085,34560
7086,34688
7087,34688
7088,35008
7089,35008
7090,35008
7091,35008
7092,35072
7093,35200
7094,35264
7095,35264
7096,35328
7097,35392
7098,35456
7099,35456
7100,35392
7101,35200
7102,35136
7103,35008
7104,35008
7105,34944
7106,34816
7107,34624
7108,34432
7109,34304
7110,34112
7111,33728
7112,33408
7113,33088
7114,32896
7115,32768
7116,32640
7117,32512
7118,32512
7119,32448
7120,32448
7121,32512
7122,32512
7123,32640
7124,32704
7125,32768
7126,32832
7127,32896
7128,32960
7129,33024
7130,33088
7131,33152
7132,33216
7133,33280
7134,33408
7135,33536
7136,33664
7137,33664
7138,33664
7139,33664
7140,33664
7141,33600
7142,33536
7143,33600
7144,33600
7145,33600
7146,33600
7147,33600
7148,33664
7149,33728
7150,33728
7151,33792
7152,33792
7153,33856
7154,33856
7155,33856
7156,33856
7157,33920
7158,33920
7159,33984
7160,34112
7161,34176
7162,34304
7163,34432
7164,34432
7165,34496
7166,34624
7167,34560
7168,34496
7169,34560
7170,34624
7171,34560
7172,34432
7173,34304
7174,34240
7175,34240
7176,34176
7177,34112
7178,34112
7179,34048
7180,33856
7181,33664
7182,33536
7183,33472
7184,33344
7185,33280
7186,33216
7187,33152
7188,33088
7189,33024
7190,33024
7191,33024
7192,33088
7193,33216
7194,33344
7195,33280
7196,33216
7197,33152
7198,33152
7199,33152
7200,33216
7201,33280
7202,33280
7203,33408
7204,33472
7205,33536
7206,33664
7207,33600
7208,33600
7209,33344
7210,32832
7211,32256
7212,32064
7213,32640
7214,33984
7215,36160
7216,39168
7217,42048
7218,43776
7219,43904
7220,42304
7221,39936
7222,37312
7223,34752
7224,32448
7225,30592
7226,29312
7227,28672
7228,28864
7229,29760
7230,30848
7231,31808
7232,32576
7233,33152
7234,33472
7235,33728
7236,33920
7237,34112
7238,34176
7239,34176
7240,34176
7241,34240
7242,34304
7243,34368
7244,34304
7245,34304
7246,34368
7247,34432
7248,34496
7249,34560
7250,34560
7251,34688
7252,34624
7253,34624
7254,34560
7255,34624
7256,34752
7257,34816
7258,34816
7259,34880
7260,34944
7261,35072
7262,35200
7263,35264
7264,35264
7265,35328
7266,35392
7267,35456
7268,35456
7269,35456
7270,35456
7271,35328
7272,35200
7273,35136
7274,34944
7275,34752
7276,34624
7277,34560
7278,34432
7279,34176
7280,33856
7281,33536
7282,33216
7283,33024
7284,32896
7285,32768
7286,32640
7287,32512
7288,32448
7289,32448
7290,32448
7291,32512
7292,32576
7293,32640
7294,32768
7295,32832
7296,32960
7297,32960
7298,33088
7299,33152
7300,33216
7301,33344
7302,33472
7303,33600
7304,33664
7305,33600
7306,33600
7307,33600
7308,33664
7309,33728
7310,33664
7311,33600
7312,33536
7313,33536
7314,33536
7315,33600
7316,33664
7317,33664
7318,33728
7319,33792
7320,33856
7321,33856
7322,33856
7323,33856
7324,33856
7325,33856
7326,33920
7327,33920
7328,33984
7329,33984
7330,34048
7331,34176
7332,34368
7333,34368
7334,34432
7335,34432
7336,34432
7337,34432
7338,34432
7339,34432
7340,34368
7341,34496
7342,34496
7343,34496
7344,34496
7345,34496
7346,34432
7347,34368
7348,34304
7349,34176
7350,34112
7351,33984
7352,33856
7353,33728
7354,33536
7355,33280
7356,33088
7357,33024
7358,32896
7359,32832
7360,32832
7361,32896
7362,32960
7363,33024
7364,33088
7365,33152
7366,33152
7367,33152
7368,33216
7369,33280
7370,33344
7371,33344
7372,33408
7373,33472
7374,33536
7375,33664
7376,33664
7377,33664
7378,33664
7379,33600
7380,33344
7381,32832
7382,32256
7383,32000
7384,32512
7385,33792
7386,37248
7387,37568
7388,41728
7389,43456
7390,43520
7391,42048
7392,39808
7393,37376
7394,35008
7395,32896
7396,30976
7397,29696
7398,28992
7399,28928
7400,29504
7401,31040
7402,31168
7403,32448
7404,33024
7405,33408
7406,33728
7407,33856
7408,33920
7409,33984
7410,34048
7411,34112
7412,34176
7413,34240
7414,34240
7415,34304
7416,34368
7417,34304
7418,34368
7419,34432
7420,34368
7421,34368
7422,34496
7423,34496
7424,34560
7425,34624
7426,34688
7427,34688
7428,34752
7429,34816
7430,34880
7431,34944
7432,35008
7433,35072
7434,35136
7435,35200
7436,35264
7437,35328
7438,35328
7439,35264
7440,35264
7441,35264
7442,35200
7443,35136
7444,35072
7445,34880
7446,34624
7447,34560
7448,34304
7449,34176
7450,33920
7451,33728
7452,33536
7453,33344
7454,33152
7455,32960
7456,32832
7457,32704
7458,32640
7459,32576
7460,32576
7461,32576
7462,32512
7463,32512
7464,32576
7465,32576
7466,32640
7467,32704
7468,32832
7469,32960
7470,33024
7471,33088
7472,33216
7473,33344
7474,33472
7475,33536
7476,33600
7477,33536
7478,33408
7479,33408
7480,33472
7481,33536
7482,33664
7483,33664
7484,33664
7485,33664
7486,33664
7487,33600
7488,33600
7489,33728
7490,33792
7491,33856
7492,33792
7493,33856
7494,33856
7495,33856
7496,33792
7497,33792
7498,33920
7499,34176
7500,34368
7501,34496
7502,34560
7503,34560
7504,34624
7505,34560
7506,34560
7507,34560
7508,34624
7509,34688
7510,34688
7511,34560
7512,34496
7513,34496
7514,34432
7515,34304
7516,34240
7517,34048
7518,33856
7519,33728
7520,33600
7521,33408
7522,33280
7523,33152
7524,33024
7525,32960
7526,32960
7527,33088
7528,33088
7529,33088
7530,33088
7531,33152
7532,33216
7533,33216
7534,33216
7535,33280
7536,33408
7537,33472
7538,33408
7539,33408
7540,33408
7541,33472
7542,33600
7543,33664
7544,33664
7545,33600
7546,33600
7547,33472
7548,33152
7549,32512
7550,32000
7551,32128
7552,33024
7553,34688
7554,37248
7555,40256
7556,42560
7557,43392
7558,42688
7559,41024
7560,38912
7561,36544
7562,34304
7563,32192
7564,30592
7565,29440
7566,28992
7567,29184
7568,30016
7569,31040
7570,32000
7571,32704
7572,33280
7573,33664
7574,33920
7575,34048
7576,34048
7577,34112
7578,34176
7579,34176
7580,34176
7581,34176
7582,34240
7583,34240
7584,34240
7585,34304
7586,34368
7587,34432
7588,34560
7589,34560
7590,34560
7591,34624
7592,34624
7593,34624
7594,34624
7595,34688
7596,34688
7597,34752
7598,34880
7599,34944
7600,35072
7601,35136
7602,35200
7603,35264
7604,35264
7605,35264
7606,35264
7607,35200
7608,35200
7609,35200
7610,35072
7611,35008
7612,34816
7613,34624
7614,34496
7615,34368
7616,34240
7617,34048
7618,33920
7619,33728
7620,33472
7621,33216
7622,33024
7623,32896
7624,32832
7625,32704
7626,32640
7627,32640
7628,32640
7629,32640
7630,32640
7631,32704
7632,32768
7633,32896
7634,32960
7635,32960
7636,33024
7637,33088
7638,33152
7639,33152
7640,33216
7641,33216
7642,33280
7643,33408
7644,33472
7645,33472
7646,33408
7647,33536
7648,33664
7649,33664
7650,33792
7651,33792
7652,33792
7653,33728
7654,33728
7655,33728
7656,33728
7657,33728
7658,33728
7659,33792
7660,33792
7661,33856
7662,33920
7663,33984
7664,34112
7665,34240
7666,34368
7667,34432
7668,34496
7669,34560
7670,34560
7671,34496
7672,34496
7673,34624
7674,34624
7675,34560
7676,34432
7677,34432
7678,34368
7679,34304
7680,34240
7681,34176
7682,34048
7683,33920
7684,33792
7685,33600
7686,33344
7687,33088
7688,32896
7689,32832
7690,32832
7691,32896
7692,32896
7693,32960
7694,33024
7695,33088
7696,33152
7697,33216
7698,33280
7699,33280
7700,33280
7701,33344
7702,33408
7703,33408
7704,33408
7705,33472
7706,33536
7707,33600
7708,33600
7709,33600
7710,33664
7711,33600
7712,33216
7713,32704
7714,32128
7715,32000
7716,32512
7717,33856
7718,36032
7719,39168
7720,41984
7721,43584
7722,43584
7723,41984
7724,39680
7725,37184
7726,34688
7727,32384
7728,30592
7729,29376
7730,28864
7731,29056
7732,29888
7733,30976
7734,32064
7735,32832
7736,33280
7737,33600
7738,33856
7739,34048
7740,34112
7741,34112
7742,34112
7743,34112
7744,34112
7745,34176
7746,34176
7747,34240
7748,34304
7749,34368
7750,34432
7751,34432
7752,34432
7753,34432
7754,34432
7755,34496
7756,34560
7757,34624
7758,34688
7759,34816
7760,34880
7761,34880
7762,34880
7763,34944
7764,35072
7765,35200
7766,35264
7767,35328
7768,35392
7769,35456
7770,35456
7771,35520
7772,35456
7773,35392
7774,35200
7775,35008
7776,34816
7777,34688
7778,34624
7779,34496
7780,34304
7781,34112
7782,33920
7783,33664
7784,33408
7785,33216
7786,33088
7787,32896
7788,32768
7789,32704
7790,32576
7791,32448
7792,32384
7793,32384
7794,32384
7795,32448
7796,32512
7797,32576
7798,32704
7799,32768
7800,32832
7801,32960
7802,33088
7803,33152
7804,33152
7805,33216
7806,33344
7807,33408
7808,33472
7809,33600
7810,33664
7811,33728
7812,33664
7813,33664
7814,33728
7815,33728
7816,33664
7817,33600
7818,33600
7819,33664
7820,33664
7821,33664
7822,33664
7823,33664
7824,33728
7825,33728
7826,33792
7827,33792
7828,33792
7829,33856
7830,33984
7831,34112
7832,34304
7833,34368
7834,34432
7835,34496
7836,34496
7837,34432
7838,34432
7839,34496
7840,34560
7841,34624
7842,34624
7843,34560
7844,34560
7845,34560
7846,34432
7847,34304
7848,34176
7849,34112
7850,33920
7851,33728
7852,33664
7853,33472
7854,33280
7855,33088
7856,33024
7857,32960
7858,32960
7859,32960
7860,33024
7861,33088
7862,33216
7863,33216
7864,33152
7865,33152
7866,33152
7867,33152
7868,33216
7869,33280
7870,33408
7871,33536
7872,33600
7873,33600
7874,33600
7875,33600
7876,33600
7877,33600
7878,33600
7879,33472
7880,33088
7881,32448
7882,32128
7883,32320
7884,33408
7885,35200
7886,38016
7887,41088
7888,43264
7889,43968
7890,42880
7891,40512
7892,38080
7893,35456
7894,33024
7895,30976
7896,29504
7897,28800
7898,28864
7899,29568
7900,30656
7901,31744
7902,32576
7903,33088
7904,33472
7905,33728
7906,33920
7907,34048
7908,34112
7909,34112
7910,34176
7911,34176
7912,34240
7913,34240
7914,34240
7915,34304
7916,34304
7917,34368
7918,34432
7919,34432
7920,34432
7921,34432
7922,34496
7923,34624
7924,34688
7925,34688
7926,34752
7927,34816
7928,34880
7929,34944
7930,35008
7931,35264
7932,35328
7933,35328
7934,35264
7935,35264
7936,35328
7937,35392
7938,35392
7939,35392
7940,35328
7941,35264
7942,35200
7943,35136
7944,35008
7945,34880
7946,34752
7947,34624
7948,34368
7949,34112
7950,33856
7951,33600
7952,33344
7953,33152
7954,32960
7955,32896
7956,32832
7957,32704
7958,32512
7959,32448
7960,32448
7961,32448
7962,32576
7963,32576
7964,32640
7965,32704
7966,32832
7967,32896
7968,32960
7969,32960
7970,33024
7971,33152
7972,33280
7973,33344
7974,33344
7975,33408
7976,33472
7977,33536
7978,33600
7979,33664
7980,33792
7981,33792
7982,33728
7983,33664
7984,33728
7985,33728
7986,33728
7987,33792
7988,33792
7989,33856
7990,33792
7991,33792
7992,33792
7993,33792
7994,33792
7995,33728
7996,33664
7997,33664
7998,33792
7999,33856
8000,33984
8001,34048
8002,34176
8003,34240
8004,34368
8005,34496
8006,34560
8007,34560
8008,34560
8009,34560
8010,34624
8011,34688
8012,34624
8013,34560
8014,34496
8015,34496
8016,34432
8017,34368
8018,34304
8019,34176
8020,33984
8021,33728
8022,33536
8023,33408
8024,33344
8025,33216
8026,33024
8027,32896
8028,32896
8029,33024
8030,33344
8031,33472
8032,33216
8033,33024
8034,32960
8035,32960
8036,33024
8037,33024
8038,33088
8039,33216
8040,33344
8041,33472
8042,33472
8043,33472
8044,33408
8045,33408
8046,33472
8047,33600
8048,33664
8049,33536
8050,33216
8051,32640
8052,32064
8053,32064
8054,32960
8055,34560
8056,37056
8057,40192
8058,42816
8059,44032
8060,43520
8061,41536
8062,38976
8063,36416
8064,33984
8065,31808
8066,30080
8067,28992
8068,28608
8069,29056
8070,30080
8071,31296
8072,32256
8073,32896
8074,33280
8075,33536
8076,33792
8077,33920
8078,33920
8079,33984
8080,33984
8081,34048
8082,34048
8083,34112
8084,34176
8085,34240
8086,34240
8087,34240
8088,34240
8089,34240
8090,34240
8091,34304
8092,34368
8093,34496
8094,34688
8095,34688
8096,34688
8097,34688
8098,34752
8099,34816
8100,34944
8101,35072
8102,35136
8103,35200
8104,35264
8105,35328
8106,35392
8107,35392
8108,35328
8109,35264
8110,35200
8111,35136
8112,35072
8113,34944
8114,34880
8115,34752
8116,34560
8117,34368
8118,34176
8119,34048
8120,33792
8121,33536
8122,33408
8123,33216
8124,33024
8125,32896
8126,32768
8127,32704
8128,32640
8129,32640
8130,32640
8131,32704
8132,32640
8133,32704
8134,32704
8135,32768
8136,32832
8137,32896
8138,32960
8139,33024
8140,33216
8141,33280
8142,33344
8143,33344
8144,33408
8145,33408
8146,33408
8147,33472
8148,33472
8149,33472
8150,33472
8151,33472
8152,33600
8153,33664
8154,33728
8155,33792
8156,33856
8157,33856
8158,33792
8159,33856
8160,33856
8161,33856
8162,33856
8163,33792
8164,33856
8165,33856
8166,33984
8167,34048
8168,34176
8169,34240
8170,34368
8171,34432
8172,34496
8173,34560
8174,34624
8175,34560
8176,34624
8177,34624
8178,34624
8179,34496
8180,34496
8181,34560
8182,34432
8183,34240
8184,34112
8185,34048
8186,33920
8187,33728
8188,33536
8189,33408
8190,33280
8191,33216
8192,33088
8193,33024
8194,33024
8195,33024
8196,32960
8197,33024
8198,33024
8199,33088
8200,33152
8201,33216
8202,33280
8203,33280
8204,33344
8205,33344
8206,33344
8207,33408
8208,33536
8209,33600
8210,33664
8211,33728
8212,33792
8213,33856
8214,33856
8215,33664
8216,33280
8217,32640
8218,32064
8219,32000
8220,32704
8221,34112
8222,36544
8223,39424
8224,42048
8225,43328
8226,43072
8227,41280
8228,39296
8229,36992
8230,34688
8231,32576
8232,30848
8233,29568
8234,29056
8235,29248
8236,30016
8237,31040
8238,32000
8239,32768
8240,33344
8241,33728
8242,33984
8243,34048
8244,34048
8245,34112
8246,34112
8247,34176
8248,34176
8249,34176
8250,34176
8251,34240
8252,34240
8253,34240
8254,34304
8255,34304
8256,34368
8257,34496
8258,34496
8259,34496
8260,34560
8261,34560
8262,34688
8263,34752
8264,34880
8265,34880
8266,34944
8267,35072
8268,35200
8269,35264
8270,35328
8271,35328
8272,35264
8273,35264
8274,35264
8275,35200
8276,35136
8277,35136
8278,35072
8279,35008
8280,34816
8281,34688
8282,34496
8283,34368
8284,34176
8285,34048
8286,33792
8287,33536
8288,33344
8289,33216
8290,33088
8291,32960
8292,32832
8293,32768
8294,32704
8295,32640
8296,32640
8297,32576
8298,32576
8299,32576
8300,32704
8301,32768
8302,32896
8303,32960
8304,33024
8305,33152
8306,33216
8307,33280
8308,33280
8309,33344
8310,33408
8311,33472
8312,33600
8313,33536
8314,33472
8315,33472
8316,33536
8317,33600
8318,33728
8319,33792
8320,33792
8321,33856
8322,33920
8323,33984
8324,34048
8325,34176
8326,34304
8327,34368
8328,34496
8329,34624
8330,34816
8331,34752
8332,34560
8333,34560
8334,34688
8335,34752
8336,34624
8337,34368
8338,34176
8339,34112
8340,34112
8341,34176
8342,34048
8343,33920
8344,33728
8345,33664
8346,33600
8347,33408
8348,33216
8349,33088
8350,33024
8351,33024
8352,33216
8353,33280
8354,33280
8355,33280
8356,33344
8357,33408
8358,33280
8359,33088
8360,33024
8361,32960
8362,33024
8363,33088
8364,33088
8365,33152
8366,33344
8367,33408
8368,33472
8369,33536
8370,33600
8371,33600
8372,33600
8373,33472
8374,33088
8375,32384
8376,31936
8377,32192
8378,33216
8379,35072
8380,37888
8381,40896
8382,42944
8383,43520
8384,42496
8385,40576
8386,38400
8387,36096
8388,33856
8389,31936
8390,30464
8391,29504
8392,29120
8393,29440
8394,30336
8395,31424
8396,32384
8397,32960
8398,33408
8399,33792
8400,33984
8401,34048
8402,34112
8403,34112
8404,34112
8405,34112
8406,34112
8407,34112
8408,34112
8409,34240
8410,34304
8411,34368
8412,34432
8413,34432
8414,34432
8415,34496
8416,34560
8417,34624
8418,34752
8419,34816
8420,34816
8421,34880
8422,35008
8423,35072
8424,35072
8425,35072
8426,35072
8427,35072
8428,35136
8429,35136
8430,35072
8431,35072
8432,35008
8433,35008
8434,34944
8435,34816
8436,34752
8437,34688
8438,34688
8439,34624
8440,34560
8441,34432
8442,34304
8443,34048
8444,33856
8445,33600
8446,33408
8447,33152
8448,33024
8449,32896
8450,32832
8451,32832
8452,32832
8453,32640
8454,32576
8455,32512
8456,32448
8457,32576
8458,32640
8459,32704
8460,32768
8461,32832
8462,32896
8463,32896
8464,33024
8465,33344
8466,33344
8467,33280
8468,33216
8469,33280
8470,33280
8471,33344
8472,33472
8473,33536
8474,33600
8475,33792
8476,33984
8477,34112
8478,34112
8479,34176
8480,34304
8481,34368
8482,34560
8483,34688
8484,34752
8485,34560
8486,34368
8487,34304
8488,34304
8489,34240
8490,34240
8491,34240
8492,34240
8493,34240
8494,34176
8495,34112
8496,33984
8497,33856
8498,33664
8499,33536
8500,33344
8501,33216
8502,33152
8503,33152
8504,33152
8505,33088
8506,33024
8507,33088
8508,33152
8509,33152
8510,33152
8511,33216
8512,33280
8513,33280
8514,33280
8515,33280
8516,33344
8517,33344
8518,33344
8519,33344
8520,33408
8521,33536
8522,33664
8523,33664
8524,33728
8525,33728
8526,33728
8527,33280
8528,32576
8529,32000
8530,32128
8531,32960
8532,34624
8533,37248
8534,40384
8535,42688
8536,43584
8537,42752
8538,40768
8539,38464
8540,36032
8541,33728
8542,31680
8543,30144
8544,29184
8545,28928
8546,29312
8547,30272
8548,31360
8549,32256
8550,32960
8551,33472
8552,33792
8553,33984
8554,33984
8555,33920
8556,33984
8557,34048
8558,34112
8559,34176
8560,34304
8561,34304
8562,34304
8563,34304
8564,34304
8565,34368
8566,34368
8567,34368
8568,34432
8569,34432
8570,34496
8571,34560
8572,34560
8573,34624
8574,34624
8575,34688
8576,34752
8577,34816
8578,34880
8579,34944
8580,35072
8581,35136
8582,35328
8583,35520
8584,35648
8585,35520
8586,35328
8587,35264
8588,35136
8589,35072
8590,35008
8591,34816
8592,34624
8593,34368
8594,34176
8595,34048
8596,33792
8597,33472
8598,33216
8599,33088
8600,32960
8601,32896
8602,32768
8603,32640
8604,32576
8605,32448
8606,32384
8607,32320
8608,32384
8609,32512
8610,32576
8611,32576
8612,32640
8613,32768
8614,32768
8615,32832
8616,32960
8617,33152
8618,33280
8619,33280
8620,33280
8621,33344
8622,33408
8623,33472
8624,33472
8625,33536
8626,33664
8627,33792
8628,33856
8629,33984
8630,34112
8631,34176
8632,34240
8633,34304
8634,34368
8635,34432
8636,34432
8637,34432
8638,34432
8639,34496
8640,34496
8641,34432
8642,34432
8643,34368
8644,34304
8645,34240
8646,34176
8647,34112
8648,33984
8649,33856
8650,33728
8651,33664
8652,33472
8653,33216
8654,33088
8655,33024
8656,32960
8657,32832
8658,32832
8659,32896
8660,33024
8661,33024
8662,33088
8663,33088
8664,33152
8665,33216
8666,33344
8667,33472
8668,33600
8669,33728
8670,33600
8671,33408
8672,33344
8673,33344
8674,33408
8675,33408
8676,33408
8677,33344
8678,33152
8679,32640
8680,32064
8681,31808
8682,32384
8683,33728
8684,35968
8685,39040
8686,41984
8687,43712
8688,43776
8689,42176
8690,39872
8691,37312
8692,34816
8693,32576
8694,30720
8695,28864
8696,28992
8697,29824
8698,30912
8699,31808
8700,32512
8701,32512
8702,33024
8703,33664
8704,33792
8705,33920
8706,34048
8707,34048
8708,34112
8709,34240
8710,34176
8711,34112
8712,34112
8713,34112
8714,34240
8715,34304
8716,34240
8717,34368
8718,34496
8719,34560
8720,34624
8721,34688
8722,34688
8723,34752
8724,34816
8725,34752
8726,34816
8727,34880
8728,35008
8729,35136
8730,35200
8731,35264
8732,35328
8733,35328
8734,35328
8735,35392
8736,35392
8737,35328
8738,35264
8739,35136
8740,35072
8741,34944
8742,34816
8743,34560
8744,34304
8745,34112
8746,34048
8747,33664
8748,33472
8749,33344
8750,33152
8751,32960
8752,32768
8753,32640
8754,32576
8755,32512
8756,32384
8757,32320
8758,32384
8759,32384
8760,32448
8761,32576
8762,32576
8763,32768
8764,32832
8765,32896
8766,32960
8767,32960
8768,33024
8769,33152
8770,33216
8771,33408
8772,33536
8773,33600
8774,33664
8775,33664
8776,33600
8777,33600
8778,33600
8779,33664
8780,33728
8781,33856
8782,33856
8783,33920
8784,34112
8785,34240
8786,34304
8787,34368
8788,34432
8789,34432
8790,34432
8791,34432
8792,34432
8793,34496
8794,34496
8795,34496
8796,34432
8797,34368
8798,34304
8799,34240
8800,34240
8801,34176
8802,34048
8803,33856
8804,33728
8805,33536
8806,33408
8807,33216
8808,33152
8809,33088
8810,33024
8811,32960
8812,32896
8813,32896
8814,33088
8815,33152
8816,33152
8817,33152
8818,33216
8819,33152
8820,33216
8821,33280
8822,33280
8823,33344
8824,33344
8825,33408
8826,33472
8827,33472
8828,33536
8829,33600
8830,33600
8831,33472
8832,33216
8833,32832
8834,32320
8835,32256
8836,32896
8837,34368
8838,36608
8839,39616
8840,42240
8841,43520
8842,43136
8843,41344
8844,38976
8845,36416
8846,33984
8847,31808
8848,30144
8849,29120
8850,28864
8851,29312
8852,30272
8853,31360
8854,32256
8855,32896
8856,33536
8857,33536
8858,33856
8859,33920
8860,33984
8861,34048
8862,34112
8863,34176
8864,34176
8865,34176
8866,34176
8867,34176
8868,34176
8869,34240
8870,34304
8871,34368
8872,34304
8873,34432
8874,34496
8875,34560
8876,34624
8877,34624
8878,34688
8879,34752
8880,34816
8881,34944
8882,35008
8883,35136
8884,35264
8885,35392
8886,35392
8887,35328
8888,35328
8889,35328
8890,35328
8891,35328
8892,35264
8893,35200
8894,35200
8895,35072
8896,34880
8897,34752
8898,34560
8899,34368
8900,34112
8901,33856
8902,33664
8903,33472
8904,33216
8905,33024
8906,32832
8907,32640
8908,32512
8909,32448
8910,32448
8911,32448
8912,32448
8913,32512
8914,32576
8915,32640
8916,32704
8917,32640
8918,32768
8919,32768
8920,32832
8921,32896
8922,33024
8923,33152
8924,33280
8925,33344
8926,33408
8927,33408
8928,33472
8929,33536
8930,33600
8931,33664
8932,33664
8933,33664
8934,33728
8935,33728
8936,33792
8937,33856
8938,33984
8939,34048
8940,34112
8941,34176
8942,34304
8943,34368
8944,34432
8945,34496
8946,34496
8947,34432
8948,34496
8949,34496
8950,34560
8951,34432
8952,34368
8953,34304
8954,34240
8955,34240
8956,34240
8957,34112
8958,34048
8959,33856
8960,33728
8961,33600
8962,33536
8963,33344
8964,33216
8965,33088
8966,33024
8967,32960
8968,32896
8969,32960
8970,32960
8971,33024
8972,32960
8973,33024
8974,33024
8975,33152
8976,33280
8977,33280
8978,33536
8979,33536
8980,33472
8981,33536
8982,33536
8983,33536
8984,33536
8985,33600
8986,33664
8987,33728
8988,33536
8989,33024
8990,32384
8991,32064
8992,32384
8993,33600
8994,35520
8995,38272
8996,41088
8997,42880
8998,43264
8999,42048
9000,40064
9001,37824
9002,35584
9003,33408
9004,31552
9005,30080
9006,29184
9007,28992
9008,29568
9009,30592
9010,31616
9011,32512
9012,33088
9013,33472
9014,33792
9015,33984
9016,34048
9017,34048
9018,34176
9019,34240
9020,34304
9021,34304
9022,34304
9023,34176
9024,34176
9025,34176
9026,34240
9027,34240
9028,34304
9029,34368
9030,34496
9031,34560
9032,34624
9033,34688
9034,34752
9035,34752
9036,34816
9037,34752
9038,35008
9039,35200
9040,35200
9041,35200
9042,35264
9043,35328
9044,35456
9045,35456
9046,35328
9047,35264
9048,35200
9049,35200
9050,35136
9051,35136
9052,35072
9053,34880
9054,34688
9055,34496
9056,34304
9057,33984
9058,33728
9059,33472
9060,33280
9061,33088
9062,32960
9063,32832
9064,32640
9065,32576
9066,32512
9067,32512
9068,32512
9069,32512
9070,32512
9071,32576
9072,32576
9073,32704
9074,32832
9075,32896
9076,32960
9077,33024
9078,33152
9079,33280
9080,33344
9081,33408
9082,33344
9083,33472
9084,33472
9085,33408
9086,33472
9087,33536
9088,33600
9089,33664
9090,33728
9091,33664
9092,33664
9093,33728
9094,33792
9095,33792
9096,33856
9097,33792
9098,33920
9099,33984
9100,34048
9101,34176
9102,34304
9103,34432
9104,34560
9105,34624
9106,34624
9107,34560
9108,34496
9109,34496
9110,34560
9111,34496
9112,34432
9113,34432
9114,34368
9115,34368
9116,34304
9117,34176
9118,33984
9119,33792
9120,33600
9121,33472
9122,33408
9123,33216
9124,33024
9125,32896
9126,32896
9127,32832
9128,32960
9129,33024
9130,33024
9131,33088
9132,33152
9133,33216
9134,33216
9135,33216
9136,33280
9137,33344
9138,33408
9139,33472
9140,33472
9141,33472
9142,33472
9143,33536
9144,33600
9145,33600
9146,33664
9147,33664
9148,33472
9149,33024
9150,32384
9151,32128
9152,32512
9153,33728
9154,35712
9155,38656
9156,41600
9157,43328
9158,43520
9159,42176
9160,39872
9161,37248
9162,34752
9163,32448
9164,30592
9165,29376
9166,28864
9167,29120
9168,30080
9169,31232
9170,32128
9171,32960
9172,33344
9173,33600
9174,33728
9175,33856
9176,33984
9177,34048
9178,34048
9179,34112
9180,34112
9181,34176
9182,34176
9183,34176
9184,34176
9185,34240
9186,34304
9187,34368
9188,34432
9189,34432
9190,34432
9191,34432
9192,34496
9193,34624
9194,34752
9195,34880
9196,35008
9197,35008
9198,35072
9199,35072
9200,35200
9201,35328
9202,35264
9203,35392
9204,35456
9205,35456
9206,35392
9207,35392
9208,35392
9209,35328
9210,35200
9211,35072
9212,35008
9213,34816
9214,34624
9215,34432
9216,34240
9217,33984
9218,33792
9219,33600
9220,33408
9221,33216
9222,32960
9223,32832
9224,32704
9225,32704
9226,32704
9227,32640
9228,32512
9229,32448
9230,32448
9231,32576
9232,32512
9233,32704
9234,32832
9235,32896
9236,32896
9237,32960
9238,33024
9239,33088
9240,33216
9241,33280
9242,33344
9243,33408
9244,33472
9245,33536
9246,33600
9247,33664
9248,33664
9249,33728
9250,33728
9251,33728
9252,33728
9253,33792
9254,33920
9255,33920
9256,33920
9257,33920
9258,33856
9259,33792
9260,33792
9261,33920
9262,34112
9263,34240
9264,34304
9265,34304
9266,34368
9267,34432
9268,34496
9269,34496
9270,34496
9271,34560
9272,34624
9273,34624
9274,34624
9275,34560
9276,34432
9277,34368
9278,34368
9279,34304
9280,34240
9281,34048
9282,33920
9283,33792
9284,33664
9285,33536
9286,33344
9287,33216
9288,33088
9289,33088
9290,33024
9291,33088
9292,33024
9293,33152
9294,33216
9295,33216
9296,33216
9297,33280
9298,33280
9299,33280
9300,33344
9301,33408
9302,33344
9303,33344
9304,33408
9305,33472
9306,33472
9307,33408
9308,33472
9309,33600
9310,33600
9311,33408
9312,32896
9313,32256
9314,32128
9315,32832
9316,34240
9317,36416
9318,39360
9319,41856
9320,43136
9321,42880
9322,41344
9323,39232
9324,36928
9325,34624
9326,32512
9327,30784
9328,29568
9329,29056
9330,29184
9331,30016
9332,30976
9333,31936
9334,32768
9335,33344
9336,33856
9337,33792
9338,33984
9339,34048
9340,34048
9341,34112
9342,34112
9343,34176
9344,34240
9345,34240
9346,34240
9347,34304
9348,34304
9349,34304
9350,34368
9351,34496
9352,34496
9353,34624
9354,34688
9355,34688
9356,34688
9357,34752
9358,34816
9359,34816
9360,34944
9361,35008
9362,35072
9363,35072
9364,35200
9365,35264
9366,35264
9367,35264
9368,35264
9369,35328
9370,35328
9371,35328
9372,35264
9373,35136
9374,35008
9375,34944
9376,34816
9377,34624
9378,34496
9379,34368
9380,34176
9381,33792
9382,33600
9383,33344
9384,33152
9385,33024
9386,32896
9387,32704
9388,32512
9389,32384
9390,32384
9391,32384
9392,32512
9393,32576
9394,32512
9395,32576
9396,32640
9397,32640
9398,32832
9399,32896
9400,33024
9401,33152
9402,33216
9403,33344
9404,33408
9405,33408
9406,33472
9407,33472
9408,33472
9409,33408
9410,33472
9411,33536
9412,33536
9413,33664
9414,33728
9415,33792
9416,33856
9417,33920
9418,33920
9419,33920
9420,33920
9421,33920
9422,33984
9423,34112
9424,34176
9425,34304
9426,34368
9427,34432
9428,34432
9429,34496
9430,34624
9431,34624
9432,34560
9433,34560
9434,34560
9435,34496
9436,34432
9437,34496
9438,34496
9439,34432
9440,34304
9441,34112
9442,33920
9443,33728
9444,33664
9445,33600
9446,33408
9447,33280
9448,33152
9449,33024
9450,33024
9451,33088
9452,33088
9453,33088
9454,33024
9455,33024
9456,33152
9457,33088
9458,33216
9459,33152
9460,33152
9461,33152
9462,33216
9463,33344
9464,33344
9465,33408
9466,33472
9467,33472
9468,33536
9469,33600
9470,33664
9471,33536
9472,33216
9473,32704
9474,32128
9475,32064
9476,32832
9477,34368
9478,36672
9479,39808
9480,42368
9481,43584
9482,43200
9483,41280
9484,38912
9485,36352
9486,33856
9487,31616
9488,30016
9489,29056
9490,28800
9491,29248
9492,30272
9493,31360
9494,32256
9495,32896
9496,33344
9497,33600
9498,33792
9499,33920
9500,34048
9501,34112
9502,34176
9503,34176
9504,34240
9505,34240
9506,34304
9507,34304
9508,34304
9509,34304
9510,34304
9511,34304
9512,34368
9513,34368
9514,34432
9515,34560
9516,34624
9517,34624
9518,34688
9519,34688
9520,34816
9521,34880
9522,34944
9523,35008
9524,35136
9525,35200
9526,35328
9527,35392
9528,35456
9529,35456
9530,35520
9531,35520
9532,35456
9533,35456
9534,35328
9535,35136
9536,34944
9537,34752
9538,34560
9539,34432
9540,34176
9541,34048
9542,33856
9543,33536
9544,33216
9545,32960
9546,32832
9547,32768
9548,32704
9549,32576
9550,32448
9551,32384
9552,32384
9553,32448
9554,32512
9555,32576
9556,32640
9557,32640
9558,32704
9559,32768
9560,32832
9561,32960
9562,33088
9563,33216
9564,33344
9565,33472
9566,33472
9567,33536
9568,33664
9569,33664
9570,33600
9571,33600
9572,33600
9573,33664
9574,33664
9575,33664
9576,33728
9577,33728
9578,33728
9579,33664
9580,33664
9581,33728
9582,33792
9583,33792
9584,33856
9585,33856
9586,33856
9587,33856
9588,33984
9589,34176
9590,34368
9591,34432
9592,34432
9593,34432
9594,34368
9595,34432
9596,34432
9597,34432
9598,34496
9599,34560
9600,34560
9601,34496
9602,34432
9603,34432
9604,34368
9605,34240
9606,34176
9607,34048
9608,33856
9609,33728
9610,33664
9611,33600
9612,33472
9613,33280
9614,33152
9615,32960
9616,32896
9617,32960
9618,32960
9619,33024
9620,33152
9621,33280
9622,33344
9623,33344
9624,33344
9625,33344
9626,33344
9627,33344
9628,33408
9629,33472
9630,33472
9631,33472
9632,33472
9633,33472
9634,33536
9635,33600
9636,33472
9637,33280
9638,32768
9639,32192
9640,32064
9641,32640
9642,33984
9643,36032
9644,38976
9645,41792
9646,43456
9647,43584
9648,42048
9649,39744
9650,37248
9651,34624
9652,32256
9653,30400
9654,29248
9655,28736
9656,28992
9657,29952
9658,31104
9659,32064
9660,32832
9661,33280
9662,33600
9663,33792
9664,33856
9665,33856
9666,33920
9667,34048
9668,34176
9669,34176
9670,34240
9671,34240
9672,34240
9673,34240
9674,34304
9675,34304
9676,34368
9677,34432
9678,34432
9679,34496
9680,34560
9681,34624
9682,34752
9683,34816
9684,34880
9685,34880
9686,34880
9687,34880
9688,35008
9689,35072
9690,35200
9691,35328
9692,35392
9693,35456
9694,35456
9695,35520
9696,35520
9697,35456
9698,35392
9699,35264
9700,35136
9701,35008
9702,34880
9703,34752
9704,34560
9705,34368
9706,34048
9707,33728
9708,33472
9709,33280
9710,33152
9711,33024
9712,32896
9713,32704
9714,32576
9715,32448
9716,32384
9717,32320
9718,32384
9719,32448
9720,32448
9721,32448
9722,32512
9723,32576
9724,32704
9725,32832
9726,32960
9727,33024
9728,33024
9729,33024
9730,33088
9731,33216
9732,33344
9733,33344
9734,33408
9735,33408
9736,33472
9737,33536
9738,33600
9739,33600
9740,33600
9741,33600
9742,33600
9743,33600
9744,33664
9745,33664
9746,33664
9747,33664
9748,33600
9749,33664
9750,33664
9751,33792
9752,33984
9753,34176
9754,34304
9755,34368
9756,34368
9757,34304
9758,34368
9759,34368
9760,34304
9761,34304
9762,34368
9763,34368
9764,34432
9765,34432
9766,34432
9767,34432
9768,34304
9769,34240
9770,34176
9771,34048
9772,33856
9773,33728
9774,33536
9775,33344
9776,33152
9777,32960
9778,32832
9779,32768
9780,32832
9781,32960
9782,33024
9783,33024
9784,32960
9785,32960
9786,33024
9787,33088
9788,33088
9789,33152
9790,33280
9791,33408
9792,33472
9793,33472
9794,33472
9795,33472
9796,33472
9797,33600
9798,33728
9799,33728
9800,33664
9801,33408
9802,32832
9803,32128
9804,31872
9805,32320
9806,33600
9807,35648
9808,38592
9809,41600
9810,43392
9811,43520
9812,42048
9813,39872
9814,37504
9815,35200
9816,32960
9817,30976
9818,29696
9819,28992
9820,28992
9821,29632
9822,30656
9823,31616
9824,32384
9825,32960
9826,33408
9827,33728
9828,33920
9829,34048
9830,34112
9831,34176
9832,34112
9833,34112
9834,34176
9835,34176
9836,34176
9837,34176
9838,34176
9839,34240
9840,34304
9841,34368
9842,34432
9843,34432
9844,34432
9845,34432
9846,34496
9847,34560
9848,34688
9849,34752
9850,34816
9851,34880
9852,34944
9853,35072
9854,35136
9855,35200
9856,35264
9857,35328
9858,35328
9859,35328
9860,35328
9861,35264
9862,35136
9863,35072
9864,35008
9865,34944
9866,34816
9867,34688
9868,34496
9869,34304
9870,34048
9871,33792
9872,33536
9873,33216
9874,33024
9875,32832
9876,32768
9877,32704
9878,32704
9879,32640
9880,32640
9881,32640
9882,32576
9883,32576
9884,32640
9885,32768
9886,32832
9887,32896
9888,32960
9889,33024
9890,33024
9891,33088
9892,33216
9893,33280
9894,33344
9895,33344
9896,33344
9897,33344
9898,33408
9899,33472
9900,33536
9901,33600
9902,33664
9903,33728
9904,33792
9905,33856
9906,33792
9907,33728
9908,33728
9909,33728
9910,33792
9911,33920
9912,33984
9913,34048
9914,34176
9915,34240
9916,34368
9917,34432
9918,34496
9919,34496
9920,34560
9921,34496
9922,34496
9923,34560
9924,34624
9925,34560
9926,34496
9927,34432
9928,34368
9929,34304
9930,34240
9931,34176
9932,33984
9933,33792
9934,33664
9935,33472
9936,33344
9937,33216
9938,33088
9939,33088
9940,33152
9941,33088
9942,33024
9943,33024
9944,33024
9945,33088
9946,33152
9947,33152
9948,33152
9949,33152
9950,33216
9951,33280
9952,33344
9953,33280
9954,33280
9955,33344
9956,33408
9957,33472
9958,33536
9959,33600
9960,33664
9961,33536
9962,33216
9963,32704
9964,32064
9965,31872
9966,32576
9967,34112
9968,36160
9969,39232
9970,42112
9971,43712
9972,43712
9973,42048
9974,39744
9975,37120
9976,34560
9977,32192
9978,30336
9979,29120
9980,28608
9981,28864
9982,29824
9983,31040
9984,32064
9985,32832
9986,33344
9987,33664
9988,33856
9989,33920
9990,33984
9991,34112
9992,34176
9993,34176
9994,34176
9995,34112
9996,34112
9997,34112
9998,34176
9999,34176
10000,34240
10001,34304
10002,34432
10003,34432
10004,34496
10005,34560
10006,34624
10007,34624
10008,34688
10009,34752
10010,34816
10011,34880
10012,34944
10013,35072
10014,35136
10015,35200
10016,35264
10017,35328
10018,35328
10019,35328
10020,35328
10021,35328
10022,35328
10023,35328
10024,35264
10025,35200
10026,35072
10027,34944
10028,34752
10029,34560
10030,34368
10031,34112
10032,33856
10033,33664
10034,33472
10035,33216
10036,33024
10037,32832
10038,32640
10039,32512
10040,32448
10041,32384
10042,32384
10043,32384
10044,32512
10045,32576
10046,32576
10047,32640
10048,32768
10049,32832
10050,32896
10051,32896
10052,32896
10053,33024
10054,33152
10055,33280
10056,33344
10057,33472
10058,33536
10059,33536
10060,33600
10061,33600
10062,33664
10063,33664
10064,33600
10065,33600
10066,33600
10067,33600
10068,33600
10069,33664
10070,33664
10071,33728
10072,33792
10073,33856
10074,33856
10075,33920
10076,33984
10077,34048
10078,34112
10079,34240
10080,34304
10081,34368
10082,34432
10083,34432
10084,34432
10085,34432
10086,34496
10087,34560
10088,34560
10089,34560
10090,34496
10091,34432
10092,34304
10093,34176
10094,34112
10095,33920
10096,33792
10097,33664
10098,33600
10099,33344
10100,33152
10101,33024
10102,32896
10103,32896
10104,32896
10105,32960
10106,32960
10107,33024
10108,33088
10109,33152
10110,33152
10111,33152
10112,33152
10113,33216
10114,33280
10115,33344
10116,33344
10117,33344
10118,33344
10119,33408
10120,33472
10121,33536
10122,33600
10123,33664
10124,33536
10125,33088
10126,32512
10127,32064
10128,32192
10129,33088
10130,34816
10131,37376
10132,40640
10133,42880
10134,43712
10135,42816
10136,40832
10137,38464
10138,35904
10139,33408
10140,31296
10141,29696
10142,28800
10143,28672
10144,29248
10145,30336
10146,31424
10147,32256
10148,32896
10149,33344
10150,33664
10151,33856
10152,33984
10153,34048
10154,34048
10155,34112
10156,34112
10157,34176
10158,34240
10159,34240
10160,34240
10161,34240
10162,34304
10163,34368
10164,34432
10165,34496
10166,34560
10167,34560
10168,34624
10169,34624
10170,34624
10171,34688
10172,34688
10173,34688
10174,34816
10175,35008
10176,35136
10177,35264
10178,35328
10179,35392
10180,35392
10181,35392
10182,35392
10183,35328
10184,35264
10185,35200
10186,35136
10187,35072
10188,35008
10189,34944
10190,34752
10191,34624
10192,34496
10193,34240
10194,33984
10195,33792
10196,33600
10197,33408
10198,33216
10199,33088
10200,32960
10201,32768
10202,32704
10203,32576
10204,32576
10205,32576
10206,32512
10207,32512
10208,32512
10209,32640
10210,32704
10211,32768
10212,32832
10213,32960
10214,33088
10215,33152
10216,33216
10217,33280
10218,33280
10219,33344
10220,33408
10221,33472
10222,33600
10223,33664
10224,33664
10225,33664
10226,33664
10227,33664
10228,33728
10229,33792
10230,33792
10231,33856
10232,33920
10233,34112
10234,34176
10235,34240
10236,34304
10237,34304
10238,34304
10239,34368
10240,34368
10241,34432
10242,34496
10243,34560
10244,34624
10245,34624
10246,34560
10247,34496
10248,34368
10249,34304
10250,34240
10251,34240
10252,34176
10253,34048
10254,33856
10255,33728
10256,33600
10257,33344
10258,33088
10259,32960
10260,32896
10261,32896
10262,33024
10263,33152
10264,33152
10265,33088
10266,33152
10267,33152
10268,33216
10269,33216
10270,33216
10271,33216
10272,33216
10273,33344
10274,33472
10275,33536
10276,33536
10277,33536
10278,33536
10279,33536
10280,33600
10281,33664
10282,33664
10283,33344
10284,32768
10285,32128
10286,31808
10287,32320
10288,33664
10289,35904
10290,39040
10291,41856
10292,43520
10293,43456
10294,41920
10295,39808
10296,37440
10297,35008
10298,32960
10299,31232
10300,29888
10301,29120
10302,29056
10303,29632
10304,30656
10305,31680
10306,32576
10307,33216
10308,33600
10309,33792
10310,33856
10311,33984
10312,34048
10313,34112
10314,34240
10315,34240
10316,34304
10317,34368
10318,34368
10319,34304
10320,34304
10321,34304
10322,34304
10323,34304
10324,34368
10325,34368
10326,34432
10327,34432
10328,34496
10329,34560
10330,34624
10331,34752
10332,34880
10333,34944
10334,35008
10335,35072
10336,35200
10337,35200
10338,35200
10339,35200
10340,35200
10341,35136
10342,35200
10343,35200
10344,35136
10345,35008
10346,34880
10347,34752
10348,34560
10349,34432
10350,34304
10351,34176
10352,33984
10353,33792
10354,33536
10355,33408
10356,33216
10357,33088
10358,33024
10359,32960
10360,32832
10361,32768
10362,32704
10363,32704
10364,32704
10365,32704
10366,32704
10367,32768
10368,32896
10369,32896
10370,32960
10371,32960
10372,33024
10373,33152
10374,33216
10375,33280
10376,33280
10377,33344
10378,33344
10379,33472
10380,33472
10381,33472
10382,33472
10383,33536
10384,33600
10385,33664
10386,33728
10387,33728
10388,33792
10389,33792
10390,33856
10391,33856
10392,33984
10393,34048
10394,34240
10395,34304
10396,34368
10397,34368
10398,34368
10399,34368
10400,34432
10401,34432
10402,34432
10403,34432
10404,34432
10405,34432
10406,34432
10407,34432
10408,34368
10409,34304
10410,34304
10411,34240
10412,34112
10413,33984
10414,33792
10415,33664
10416,33472
10417,33216
10418,32960
10419,32832
10420,32832
10421,32896
10422,32960
10423,33024
10424,33088
10425,33152
10426,33152
10427,33216
10428,33216
10429,33280
10430,33280
10431,33280
10432,33344
10433,33408
10434,33472
10435,33472
10436,33536
10437,33536
10438,33600
10439,33664
10440,33664
10441,33600
10442,33280
10443,32704
10444,32128
10445,32000
10446,32768
10447,34304
10448,36608
10449,39680
10450,42304
10451,43584
10452,43200
10453,41536
10454,39168
10455,36608
10456,34048
10457,31680
10458,30080
10459,29056
10460,28800
10461,29248
10462,30272
10463,31296
10464,32256
10465,32896
10466,33408
10467,33728
10468,33920
10469,34048
10470,34176
10471,34176
10472,34176
10473,34112
10474,34112
10475,34112
10476,34176
10477,34240
10478,34304
10479,34368
10480,34432
10481,34432
10482,34432
10483,34432
10484,34560
10485,34560
10486,34624
10487,34688
10488,34752
10489,34816
10490,34880
10491,35008
10492,35072
10493,35072
10494,35136
10495,35136
10496,35200
10497,35264
10498,35328
10499,35328
10500,35328
10501,35328
10502,35264
10503,35264
10504,35264
10505,35200
10506,35072
10507,34880
10508,34688
10509,34496
10510,34304
10511,34048
10512,33792
10513,33600
10514,33152
10515,33024
10516,32960
10517,32832
10518,32768
10519,32704
10520,32576
10521,32448
10522,32448
10523,32448
10524,32576
10525,32704
10526,32768
10527,32768
10528,32832
10529,32960
10530,33024
10531,33088
10532,33152
10533,33280
10534,33408
10535,33472
10536,33472
10537,33408
10538,33472
10539,33600
10540,33664
10541,33664
10542,33664
10543,33664
10544,33728
10545,33792
10546,33856
10547,33920
10548,33920
10549,34048
10550,34112
10551,34240
10552,34176
10553,34368
10554,34432
10555,34496
10556,34496
10557,34432
10558,34496
10559,34560
10560,34624
10561,34560
10562,34496
10563,34432
10564,34368
10565,34240
10566,34176
10567,34112
10568,34048
10569,33920
10570,33792
10571,33664
10572,33472
10573,33216
10574,33088
10575,32960
10576,32896
10577,32896
10578,32960
10579,32960
10580,32960
10581,33024
10582,33088
10583,33152
10584,33216
10585,33216
10586,33280
10587,33344
10588,33344
10589,33344
10590,33344
10591,33344
10592,33408
10593,33472
10594,33536
10595,33600
10596,33664
10597,33600
10598,33408
10599,32960
10600,32256
10601,31936
10602,32256
10603,33408
10604,35264
10605,38080
10606,41344
10607,43328
10608,43904
10609,42752
10610,40512
10611,37760
10612,37376
10613,33152
10614,31104
10615,29632
10616,28864
10617,28864
10618,29504
10619,30592
10620,31616
10621,32448
10622,33024
10623,33472
10624,33728
10625,33856
10626,33984
10627,34048
10628,34112
10629,34176
10630,34176
10631,34176
10632,34176
10633,34112
10634,34112
10635,34176
10636,34240
10637,34368
10638,34432
10639,34496
10640,34560
10641,34624
10642,34688
10643,34688
10644,34688
10645,34752
10646,34816
10647,34944
10648,35072
10649,35136
10650,35200
10651,35200
10652,35200
10653,35200
10654,35200
10655,35264
10656,35264
10657,35200
10658,35264
10659,35264
10660,35200
10661,35136
10662,35008
10663,34880
10664,34688
10665,34496
10666,34240
10667,33984
10668,33792
10669,33600
10670,33536
10671,33344
10672,33280
10673,32960
10674,32832
10675,32704
10676,32576
10677,32512
10678,32512
10679,32576
10680,32576
10681,32640
10682,32704
10683,32832
10684,32832
10685,32896
10686,32960
10687,33024
10688,33088
10689,33088
10690,33088
10691,33152
10692,33216
10693,33280
10694,33472
10695,33536
10696,33600
10697,33600
10698,33664
10699,33728
10700,33792
10701,33856
10702,33856
10703,33920
10704,33984
10705,34112
10706,34176
10707,34240
10708,34304
10709,34432
10710,34496
10711,34496
10712,34432
10713,34432
10714,34496
10715,34560
10716,34496
10717,34432
10718,34368
10719,34304
10720,34240
10721,34304
10722,34304
10723,34240
10724,34048
10725,33856
10726,33664
10727,33408
10728,33280
10729,33088
10730,33024
10731,33024
10732,32960
10733,32896
10734,32896
10735,32896
10736,32960
10737,33024
10738,33088
10739,33152
10740,33216
10741,33280
10742,33280
10743,33344
10744,33408
10745,33408
10746,33536
10747,33472
10748,33600
10749,33600
10750,33664
10751,33664
10752,33728
10753,33600
10754,33216
10755,32512
10756,31872
10757,31872
10758,32768
10759,34368
10760,36992
10761,40896
10762,41216
10763,44096
10764,43392
10765,41408
10766,39040
10767,36544
10768,34112
10769,32000
10770,30400
10771,29312
10772,28864
10773,29120
10774,30016
10775,31168
10776,32256
10777,32320
10778,33216
10779,33472
10780,33728
10781,33856
10782,33984
10783,34048
10784,34112
10785,34240
10786,34304
10787,34368
10788,34432
10789,34368
10790,34304
10791,34240
10792,34304
10793,34368
10794,34432
10795,34432
10796,34432
10797,34560
10798,34688
10799,34752
10800,34816
10801,34752
10802,34752
10803,34752
10804,34816
10805,34944
10806,35072
10807,35136
10808,35200
10809,35200
10810,35200
10811,35200
10812,35200
10813,35200
10814,35200
10815,35136
10816,35072
10817,34944
10818,34880
10819,34688
10820,34560
10821,34368
10822,34176
10823,33984
10824,33792
10825,33600
10826,33344
10827,33152
10828,32960
10829,32896
10830,32832
10831,32704
10832,32704
10833,32704
10834,32640
10835,32576
10836,32576
10837,32640
10838,32704
10839,32768
10840,32768
10841,32832
10842,32896
10843,32960
10844,33024
10845,33088
10846,33216
10847,33280
10848,33344
10849,33472
10850,33536
10851,33600
10852,33600
10853,33664
10854,33664
10855,33664
10856,33664
10857,33728
10858,33792
10859,33920
10860,34048
10861,34240
10862,34304
10863,34304
10864,34304
10865,34304
10866,34304
10867,34240
10868,34432
10869,34496
10870,34624
10871,34624
10872,34560
10873,34496
10874,34432
10875,34304
10876,34240
10877,34112
10878,34048
10879,33856
10880,33664
10881,33536
10882,33536
10883,33408
10884,33280
10885,33088
10886,33024
10887,32960
10888,32960
10889,32896
10890,32896
10891,32960
10892,33088
10893,33152
10894,33152
10895,33152
10896,33216
10897,33216
10898,33280
10899,33280
10900,33344
10901,33344
10902,33408
10903,33472
10904,33536
10905,33600
10906,33664
10907,33664
10908,33536
10909,33216
10910,32640
10911,32128
10912,32064
10913,33088
10914,34624
10915,37056
10916,40192
10917,42752
10918,43904
10919,43200
10920,41216
10921,38528
10922,36096
10923,33600
10924,31424
