,ECG
0,28480
1,27328
2,27008
3,27456
4,28416
5,29312
6,30144
7,30784
8,31232
9,31552
10,31744
11,31872
12,31936
13,32064
14,32128
15,32128
16,32192
17,32256
18,32256
19,32320
20,32448
21,32576
22,32640
23,32704
24,32768
25,32768
26,32832
27,32832
28,32896
29,33024
30,33024
31,33088
32,33152
33,33216
34,33280
35,33472
36,33600
37,33664
38,33664
39,33664
40,33664
41,33664
42,33664
43,33600
44,33536
45,33536
46,33536
47,33472
48,33472
49,33344
50,33216
51,33024
52,32832
53,32640
54,32448
55,32192
56,32000
57,31808
58,31616
59,31424
60,31296
61,31168
62,31040
63,30976
64,30976
65,31040
66,31040
67,31040
68,31104
69,31168
70,31296
71,31296
72,31360
73,31424
74,31424
75,31488
76,31616
77,31744
78,31872
79,31872
80,31872
81,31936
82,32000
83,32128
84,32320
85,32448
86,32512
87,32576
88,32576
89,32576
90,32640
91,32704
92,32832
93,32960
94,33024
95,33088
96,33152
97,33216
98,33280
99,33280
100,33152
101,33152
102,33216
103,33344
104,33344
105,33280
106,33216
107,33216
108,33216
109,33152
110,33088
111,32960
112,32768
113,32640
114,32576
115,32512
116,32384
117,32256
118,32256
119,32192
120,32064
121,32064
122,32000
123,31936
124,31936
125,32000
126,32000
127,32000
128,32064
129,32128
130,32192
131,32256
132,32320
133,32448
134,32512
135,32576
136,32704
137,32832
138,32896
139,32960
140,32960
141,32896
142,32704
143,32192
144,31680
145,31104
146,31104
147,31936
148,33728
149,36096
150,39296
151,41920
152,43136
153,42560
154,40704
155,38336
156,35840
157,33408
158,31232
159,29504
160,28352
161,27776
162,27968
163,28864
164,29824
165,30848
166,31552
167,32128
168,32512
169,32768
170,32960
171,33152
172,33280
173,33280
174,33344
175,33344
176,33344
177,33408
178,33408
179,33472
180,33536
181,33600
182,33728
183,33792
184,33728
185,33728
186,33728
187,33856
188,33920
189,33984
190,34048
191,34048
192,34112
193,34176
194,34304
195,34368
196,34496
197,34560
198,34624
199,34624
200,34688
201,34688
202,34752
203,34752
204,34752
205,34688
206,34624
207,34496
208,34368
209,34176
210,34048
211,33856
212,33664
213,33408
214,33152
215,32896
216,32704
217,32512
218,32384
219,32256
220,32128
221,32000
222,31936
223,31936
224,31936
225,32000
226,32128
227,32192
228,32256
229,32320
230,32384
231,32448
232,32512
233,32576
234,32640
235,32768
236,32832
237,32896
238,32960
239,33088
240,33152
241,33216
242,33280
243,33280
244,33344
245,33344
246,33344
247,33344
248,33344
249,33344
250,33472
251,33536
252,33664
253,33792
254,33792
255,33920
256,34048
257,34176
258,34240
259,34240
260,34176
261,34176
262,34176
263,34176
264,34112
265,34048
266,33984
267,34048
268,34048
269,34048
270,33984
271,33984
272,33920
273,33856
274,33728
275,33600
276,33536
277,33472
278,33344
279,33216
280,33152
281,33024
282,32960
283,33024
284,33024
285,33088
286,33152
287,33216
288,33216
289,33216
290,33152
291,33152
292,33216
293,33280
294,33344
295,33408
296,33408
297,33472
298,33536
299,33600
300,33664
301,33728
302,33728
303,33728
304,33536
305,33152
306,32640
307,32320
308,32640
309,33728
310,35520
311,38208
312,41216
313,43264
314,43776
315,42560
316,40384
317,37760
318,35136
319,32640
320,30656
321,29376
322,28800
323,28992
324,29824
325,30912
326,31872
327,32512
328,33024
329,33408
330,33600
331,33664
332,33728
333,33792
334,33856
335,33856
336,33984
337,34048
338,34112
339,34176
340,34176
341,34240
342,34304
343,34368
344,34432
345,34432
346,34496
347,34496
348,34624
349,34688
350,34752
351,34816
352,34880
353,34944
354,35008
355,34944
356,34944
357,35008
358,35200
359,35328
360,35456
361,35584
362,35648
363,35648
364,35648
365,35584
366,35520
367,35392
368,35328
369,35200
370,35072
371,34880
372,34752
373,34560
374,34304
375,33856
376,33600
377,33344
378,33152
379,32896
380,32768
381,32576
382,32448
383,32320
384,32320
385,32320
386,32384
387,32448
388,32512
389,32640
390,32704
391,32768
392,32832
393,32896
394,33024
395,33088
396,33152
397,33280
398,33344
399,33472
400,33536
401,33600
402,33664
403,33728
404,33728
405,33728
406,33792
407,33792
408,33728
409,33792
410,33856
411,33856
412,33856
413,33920
414,33920
415,33920
416,33920
417,33792
418,33728
419,33792
420,33856
421,33984
422,34176
423,34176
424,34304
425,34560
426,34560
427,34496
428,34432
429,34368
430,34368
431,34432
432,34496
433,34560
434,34560
435,34496
436,34432
437,34240
438,34112
439,34048
440,33984
441,33856
442,33792
443,33792
444,33728
445,33536
446,33280
447,33152
448,33088
449,33152
450,33216
451,33216
452,33216
453,33216
454,33216
455,33280
456,33344
457,33408
458,33344
459,33472
460,33472
461,33600
462,33664
463,33664
464,33856
465,33856
466,33856
467,33856
468,33856
469,33856
470,33792
471,33472
472,32896
473,32576
474,32768
475,33792
476,35520
477,38592
478,38656
479,42944
480,43584
481,42560
482,40448
483,37952
484,35328
485,32832
486,30848
487,29504
488,28928
489,29056
490,29888
491,31104
492,32256
493,32256
494,33344
495,33536
496,33664
497,33792
498,33728
499,33856
500,33856
501,33920
502,33984
503,34048
504,34112
505,34176
506,34176
507,34240
508,34304
509,34368
510,34432
511,34432
512,34496
513,34496
514,34560
515,34624
516,34688
517,34752
518,34816
519,34816
520,34880
521,34944
522,35008
523,35136
524,35200
525,35264
526,35328
527,35392
528,35456
529,35520
530,35456
531,35456
532,35392
533,35328
534,35264
535,35136
536,35008
537,34816
538,34560
539,34304
540,34112
541,33920
542,33664
543,33472
544,33216
545,33024
546,32768
547,32640
548,32448
549,32384
550,32320
551,32320
552,32384
553,32448
554,32512
555,32576
556,32576
557,32704
558,32768
559,32896
560,32960
561,33024
562,33152
563,33088
564,33280
565,33280
566,33408
567,33408
568,33472
569,33472
570,33536
571,33600
572,33600
573,33664
574,33664
575,33664
576,33728
577,33728
578,33728
579,33728
580,33728
581,33664
582,33600
583,33664
584,33664
585,33728
586,33728
587,33792
588,33728
589,33792
590,33792
591,33792
592,33792
593,33792
594,33984
595,34112
596,34304
597,34496
598,34496
599,34432
600,34368
601,34304
602,34176
603,34176
604,34176
605,34176
606,34176
607,34240
608,34240
609,34240
610,34176
611,34112
612,34048
613,33920
614,33792
615,33664
616,33472
617,33280
618,33152
619,33152
620,33152
621,33088
622,33088
623,33088
624,33088
625,33152
626,33152
627,33152
628,33152
629,33216
630,33280
631,33344
632,33344
633,33408
634,33472
635,33536
636,33600
637,33728
638,33792
639,33856
640,33856
641,33792
642,33728
643,33536
644,33152
645,32576
646,32192
647,32512
648,33536
649,35200
650,37760
651,40704
652,42752
653,43520
654,42624
655,40576
656,38144
657,35648
658,33152
659,31040
660,29568
661,28864
662,28864
663,29632
664,30720
665,31680
666,32448
667,32960
668,33344
669,33600
670,33728
671,33792
672,33856
673,33856
674,33856
675,33920
676,33920
677,33920
678,33984
679,34048
680,34112
681,34112
682,34176
683,34176
684,34176
685,34240
686,34304
687,34368
688,34432
689,34496
690,34560
691,34560
692,34560
693,34624
694,34752
695,34880
696,35008
697,35072
698,35072
699,35136
700,35136
701,35136
702,35136
703,35136
704,35072
705,35008
706,34944
707,34816
708,34752
709,34688
710,34560
711,34432
712,34240
713,33984
714,33728
715,33472
716,33216
717,33024
718,32896
719,32704
720,32576
721,32448
722,32320
723,32256
724,32192
725,32192
726,32256
727,32320
728,32384
729,32448
730,32512
731,32640
732,32704
733,32832
734,32896
735,32960
736,33088
737,33088
738,33152
739,33280
740,33280
741,33344
742,33344
743,33408
744,33472
745,33472
746,33472
747,33472
748,33408
749,33472
750,33536
751,33600
752,33600
753,33600
754,33664
755,33664
756,33728
757,33728
758,33728
759,33728
760,33728
761,33728
762,33664
763,33664
764,33664
765,33664
766,33728
767,33728
768,33728
769,33664
770,33664
771,33664
772,33728
773,33728
774,33792
775,33920
776,34048
777,34112
778,34176
779,34176
780,34176
781,34112
782,34048
783,34112
784,34176
785,34240
786,34240
787,34304
788,34240
789,34176
790,34048
791,33920
792,33792
793,33664
794,33536
795,33472
796,33408
797,33216
798,33088
799,32960
800,32896
801,32832
802,32832
803,32832
804,32896
805,32960
806,33024
807,33024
808,33024
809,33088
810,33216
811,33280
812,33344
813,33408
814,33472
815,33536
816,33536
817,33600
818,33664
819,33664
820,33664
821,33664
822,33536
823,33216
824,32640
825,32064
826,32064
827,32832
828,34304
829,36544
830,39616
831,42240
832,43456
833,43136
834,41216
835,38784
836,36160
837,33600
838,31360
839,29760
840,28736
841,28608
842,29184
843,30272
844,31296
845,32128
846,32704
847,33088
848,33344
849,33600
850,33792
851,33856
852,33856
853,33856
854,33792
855,33792
856,33856
857,33984
858,34048
859,34048
860,34048
861,34048
862,34112
863,34176
864,34240
865,34304
866,34304
867,34368
868,34432
869,34496
870,34560
871,34624
872,34752
873,34752
874,34816
875,34880
876,34944
877,35072
878,35136
879,35200
880,35200
881,35136
882,35072
883,35008
884,34944
885,34880
886,34880
887,34816
888,34688
889,34560
890,34432
891,34304
892,34048
893,33856
894,33728
895,33536
896,33280
897,33024
898,32832
899,32640
900,32576
901,32512
902,32512
903,32512
904,32448
905,32384
906,32320
907,32256
908,32256
909,32256
910,32320
911,32448
912,32576
913,32704
914,32896
915,32960
916,32896
917,32960
918,33024
919,33088
920,33088
921,33152
922,33152
923,33216
924,33280
925,33344
926,33408
927,33472
928,33536
929,33536
930,33536
931,33536
932,33536
933,33536
934,33536
935,33600
936,33600
937,33600
938,33600
939,33536
940,33472
941,33472
942,33472
943,33536
944,33600
945,33600
946,33600
947,33600
948,33664
949,33664
950,33664
951,33600
952,33600
953,33664
954,33664
955,33728
956,33856
957,33920
958,34048
959,34176
960,34304
961,34368
962,34432
963,34368
964,34240
965,34176
966,34176
967,34240
968,34240
969,34240
970,34176
971,34112
972,33984
973,33856
974,33728
975,33664
976,33600
977,33600
978,33600
979,33472
980,33280
981,33088
982,32960
983,32896
984,32896
985,32832
986,32832
987,32960
988,33088
989,33216
990,33216
991,33216
992,33216
993,33152
994,33216
995,33216
996,33280
997,33280
998,33344
999,33408
1000,33472
1001,33472
1002,33536
1003,33536
1004,33536
1005,33280
1006,32832
1007,32256
1008,32000
1009,32576
1010,33856
1011,35904
1012,38784
1013,41920
1014,43392
1015,43456
1016,41728
1017,39296
1018,36672
1019,34112
1020,31744
1021,29952
1022,28736
1023,28288
1024,28736
1025,29760
1026,30912
1027,31872
1028,32576
1029,33024
1030,33344
1031,33536
1032,33664
1033,33792
1034,33920
1035,33856
1036,33856
1037,33792
1038,33792
1039,33856
1040,33856
1041,33920
1042,33920
1043,33920
1044,33984
1045,33984
1046,33984
1047,33984
1048,34048
1049,34112
1050,34176
1051,34240
1052,34304
1053,34432
1054,34496
1055,34624
1056,34752
1057,34880
1058,34880
1059,34944
1060,34944
1061,35072
1062,35072
1063,35136
1064,35072
1065,35008
1066,34944
1067,34944
1068,34944
1069,34880
1070,34816
1071,34624
1072,34496
1073,34304
1074,34048
1075,33856
1076,33664
1077,33472
1078,33216
1079,33024
1080,32832
1081,32768
1082,32576
1083,32384
1084,32192
1085,32064
1086,32064
1087,32128
1088,32192
1089,32256
1090,32256
1091,32256
1092,32320
1093,32384
1094,32448
1095,32512
1096,32640
1097,32768
1098,32896
1099,33024
1100,33088
1101,33088
1102,33152
1103,33216
1104,33280
1105,33344
1106,33344
1107,33408
1108,33408
1109,33472
1110,33472
1111,33472
1112,33536
1113,33536
1114,33536
1115,33536
1116,33536
1117,33536
1118,33600
1119,33600
1120,33600
1121,33536
1122,33472
1123,33472
1124,33408
1125,33472
1126,33536
1127,33600
1128,33536
1129,33472
1130,33408
1131,33408
1132,33408
1133,33472
1134,33472
1135,33472
1136,33536
1137,33536
1138,33600
1139,33728
1140,33920
1141,34048
1142,34176
1143,34304
1144,34304
1145,34304
1146,34304
1147,34176
1148,34176
1149,34240
1150,34304
1151,34304
1152,34240
1153,34240
1154,34176
1155,34048
1156,33984
1157,33792
1158,33600
1159,33472
1160,33408
1161,33344
1162,33280
1163,33088
1164,33024
1165,32960
1166,32896
1167,32896
1168,32896
1169,32896
1170,32896
1171,33024
1172,33088
1173,33152
1174,33152
1175,33152
1176,33152
1177,33216
1178,33280
1179,33280
1180,33280
1181,33344
1182,33344
1183,33408
1184,33472
1185,33472
1186,33536
1187,33408
1188,33088
1189,32576
1190,32064
1191,32128
1192,32960
1193,34560
1194,36992
1195,40128
1196,42624
1197,43648
1198,42880
1199,40896
1200,38400
1201,35840
1202,33344
1203,31168
1204,29568
1205,28608
1206,28480
1207,29056
1208,30336
1209,31232
1210,32064
1211,32704
1212,33024
1213,33280
1214,33408
1215,33536
1216,33664
1217,33792
1218,33792
1219,33792
1220,33728
1221,33728
1222,33728
1223,33856
1224,33920
1225,33984
1226,34048
1227,34112
1228,34112
1229,34176
1230,34240
1231,34304
1232,34304
1233,34368
1234,34368
1235,34496
1236,34560
1237,34624
1238,34688
1239,34752
1240,34816
1241,34880
1242,34944
1243,35008
1244,35072
1245,35072
1246,35072
1247,35072
1248,35136
1249,35072
1250,35008
1251,34880
1252,34752
1253,34688
1254,34560
1255,34368
1256,34240
1257,34112
1258,33856
1259,33600
1260,33344
1261,33152
1262,32960
1263,32768
1264,32576
1265,32448
1266,32320
1267,32320
1268,32256
1269,32320
1270,32320
1271,32256
1272,32320
1273,32384
1274,32384
1275,32320
1276,32256
1277,32256
1278,32320
1279,32448
1280,32640
1281,32768
1282,32896
1283,33024
1284,33088
1285,33152
1286,33280
1287,33344
1288,33344
1289,33344
1290,33344
1291,33344
1292,33280
1293,33280
1294,33344
1295,33472
1296,33536
1297,33536
1298,33600
1299,33600
1300,33536
1301,33472
1302,33408
1303,33344
1304,33344
1305,33344
1306,33280
1307,33280
1308,33280
1309,33280
1310,33280
1311,33280
1312,33344
1313,33344
1314,33344
1315,33344
1316,33344
1317,33344
1318,33344
1319,33472
1320,33600
1321,33728
1322,33856
1323,33984
1324,34048
1325,33984
1326,33920
1327,33920
1328,33920
1329,33984
1330,33984
1331,33984
1332,34048
1333,34048
1334,34048
1335,33984
1336,33856
1337,33728
1338,33600
1339,33408
1340,33280
1341,33280
1342,33152
1343,32960
1344,32832
1345,32768
1346,32704
1347,32704
1348,32704
1349,32704
1350,32768
1351,32768
1352,32832
1353,32832
1354,32896
1355,33024
1356,33024
1357,33024
1358,33024
1359,33088
1360,33088
1361,33216
1362,33216
1363,33216
1364,33216
1365,33216
1366,33216
1367,33216
1368,33088
1369,32768
1370,32256
1371,31744
1372,31744
1373,32576
1374,34176
1375,36544
1376,39744
1377,42624
1378,43712
1379,43200
1380,41152
1381,38656
1382,36032
1383,33472
1384,31168
1385,29504
1386,28416
1387,28160
1388,28928
1389,29760
1390,30848
1391,31808
1392,32512
1393,33024
1394,33216
1395,33344
1396,33408
1397,33472
1398,33536
1399,33600
1400,33664
1401,33728
1402,33792
1403,33792
1404,33792
1405,33728
1406,33728
1407,33728
1408,33728
1409,33856
1410,33984
1411,34112
1412,34240
1413,34304
1414,34432
1415,34496
1416,34560
1417,34560
1418,34560
1419,34624
1420,34688
1421,34688
1422,34752
1423,34816
1424,34880
1425,34944
1426,34944
1427,34944
1428,34944
1429,34880
1430,34880
1431,34752
1432,34688
1433,34624
1434,34496
1435,34432
1436,34304
1437,34176
1438,33984
1439,33728
1440,33536
1441,33280
1442,33088
1443,32896
1444,32704
1445,32512
1446,32320
1447,32192
1448,32192
1449,32192
1450,32128
1451,32000
1452,32000
1453,32000
1454,32000
1455,32064
1456,32128
1457,32320
1458,32512
1459,32576
1460,32640
1461,32704
1462,32768
1463,32832
1464,32896
1465,32960
1466,33024
1467,33088
1468,33088
1469,33152
1470,33152
1471,33216
1472,33280
1473,33280
1474,33280
1475,33280
1476,33280
1477,33280
1478,33344
1479,33344
1480,33344
1481,33344
1482,33344
1483,33280
1484,33344
1485,33280
1486,33216
1487,33216
1488,33216
1489,33280
1490,33344
1491,33472
1492,33472
1493,33344
1494,33344
1495,33344
1496,33408
1497,33408
1498,33408
1499,33408
1500,33472
1501,33664
1502,33792
1503,33984
1504,34112
1505,34240
1506,34240
1507,34112
1508,34048
1509,34048
1510,34048
1511,34048
1512,34048
1513,34048
1514,33984
1515,33920
1516,33792
1517,33728
1518,33600
1519,33472
1520,33408
1521,33280
1522,33216
1523,33024
1524,32896
1525,32896
1526,33024
1527,33024
1528,32832
1529,32576
1530,32384
1531,32320
1532,32320
1533,32448
1534,32640
1535,32832
1536,32960
1537,33152
1538,33344
1539,33344
1540,33344
1541,33344
1542,33344
1543,33344
1544,33408
1545,33408
1546,33408
1547,33408
1548,33088
1549,32576
1550,32000
1551,31936
1552,32640
1553,34688
1554,36288
1555,39296
1556,41984
1557,43328
1558,42880
1559,40960
1560,38464
1561,35840
1562,33344
1563,31104
1564,29504
1565,28480
1566,28160
1567,28736
1568,29824
1569,31040
1570,31936
1571,32640
1572,33024
1573,33280
1574,33472
1575,33600
1576,33664
1577,33728
1578,33792
1579,33792
1580,33792
1581,33728
1582,33792
1583,33792
1584,33792
1585,33792
1586,33792
1587,33856
1588,33920
1589,33984
1590,33984
1591,34048
1592,34112
1593,34176
1594,34240
1595,34368
1596,34432
1597,34560
1598,34624
1599,34624
1600,34688
1601,34752
1602,34816
1603,34880
1604,34944
1605,34944
1606,35008
1607,35072
1608,35008
1609,34944
1610,34816
1611,34752
1612,34688
1613,34560
1614,34496
1615,34368
1616,34240
1617,34048
1618,33792
1619,33600
1620,33344
1621,33152
1622,32896
1623,32704
1624,32512
1625,32384
1626,32256
1627,32192
1628,32128
1629,32064
1630,32064
1631,32128
1632,32256
1633,32320
1634,32384
1635,32384
1636,32448
1637,32448
1638,32576
1639,32640
1640,32640
1641,32704
1642,32768
1643,32768
1644,32768
1645,32832
1646,32896
1647,32960
1648,33088
1649,33152
1650,33280
1651,33280
1652,33344
1653,33408
1654,33408
1655,33344
1656,33344
1657,33408
1658,33472
1659,33472
1660,33472
1661,33408
1662,33472
1663,33536
1664,33536
1665,33472
1666,33344
1667,33216
1668,33088
1669,33088
1670,33024
1671,33024
1672,33088
1673,33216
1674,33344
1675,33664
1676,33920
1677,34048
1678,34112
1679,34176
1680,34176
1681,34048
1682,33984
1683,33920
1684,33920
1685,33984
1686,34048
1687,34048
1688,34048
1689,33984
1690,33920
1691,33792
1692,33664
1693,33536
1694,33408
1695,33408
1696,33280
1697,33152
1698,32960
1699,32768
1700,32640
1701,32576
1702,32576
1703,32704
1704,32768
1705,32832
1706,32896
1707,32896
1708,32896
1709,32832
1710,32832
1711,32896
1712,32960
1713,33024
1714,33152
1715,33344
1716,33408
1717,33408
1718,33344
1719,33344
1720,33344
1721,33472
1722,33472
1723,33216
1724,32640
1725,32000
1726,31744
1727,32320
1728,33664
1729,35776
1730,38784
1731,41792
1732,43648
1733,43264
1734,42048
1735,39552
1736,36800
1737,34048
1738,31744
1739,29760
1740,28480
1741,27968
1742,28288
1743,29248
1744,30400
1745,31488
1746,32384
1747,32960
1748,33472
1749,33536
1750,33664
1751,33664
1752,33664
1753,33728
1754,33856
1755,33984
1756,33856
1757,33792
1758,33792
1759,33792
1760,33856
1761,33856
1762,33920
1763,33984
1764,33984
1765,33920
1766,33920
1767,33920
1768,34048
1769,34112
1770,34240
1771,34304
1772,34432
1773,34560
1774,34688
1775,34752
1776,34816
1777,34880
1778,35008
1779,35136
1780,35136
1781,35072
1782,35072
1783,35008
1784,35008
1785,34880
1786,34688
1787,34560
1788,34496
1789,34432
1790,34304
1791,34176
1792,33984
1793,33728
1794,33536
1795,33344
1796,33152
1797,32960
1798,32704
1799,32512
1800,32384
1801,32320
1802,32256
1803,32128
1804,32064
1805,32064
1806,32064
1807,32064
1808,32064
1809,32064
1810,32128
1811,32256
1812,32384
1813,32512
1814,32576
1815,32704
1816,32768
1817,32832
1818,32832
1819,32896
1820,33024
1821,33024
1822,33024
1823,33024
1824,33024
1825,33088
1826,33024
1827,33088
1828,33088
1829,33152
1830,33152
1831,33280
1832,33280
1833,33280
1834,33216
1835,33216
1836,33216
1837,33280
1838,33344
1839,33280
1840,33344
1841,33344
1842,33408
1843,33408
1844,33344
1845,33408
1846,33344
1847,33344
1848,33408
1849,33600
1850,33792
1851,33920
1852,33984
1853,34048
1854,34048
1855,33984
1856,33856
1857,33856
1858,33920
1859,34048
1860,34048
1861,34048
1862,34048
1863,33920
1864,33728
1865,33536
1866,33344
1867,33152
1868,33024
1869,32960
1870,32832
1871,32704
1872,32576
1873,32448
1874,32384
1875,32384
1876,32384
1877,32512
1878,32576
1879,32704
1880,32768
1881,32704
1882,32704
1883,32768
1884,32768
1885,32832
1886,33024
1887,33152
1888,33216
1889,33280
1890,33344
1891,33280
1892,33216
1893,33152
1894,33152
1895,33280
1896,33152
1897,32640
1898,31936
1899,31424
1900,31552
1901,32512
1902,34496
1903,37056
1904,40320
1905,42816
1906,43776
1907,42816
1908,40512
1909,37824
1910,35072
1911,32512
1912,30400
1913,28864
1914,28032
1915,28032
1916,28800
1917,30016
1918,31168
1919,31936
1920,32512
1921,32832
1922,33024
1923,33216
1924,33280
1925,33344
1926,33408
1927,33472
1928,33536
1929,33600
1930,33664
1931,33664
1932,33728
1933,33792
1934,33792
1935,33856
1936,33920
1937,33984
1938,33984
1939,33920
1940,33984
1941,33984
1942,33984
1943,34112
1944,34240
1945,34368
1946,34560
1947,34688
1948,34816
1949,34816
1950,34880
1951,34880
1952,34944
1953,35008
1954,35136
1955,35200
1956,35136
1957,35072
1958,35008
1959,34880
1960,34752
1961,34624
1962,34624
1963,34560
1964,34432
1965,34240
1966,33920
1967,33664
1968,33408
1969,33152
1970,32960
1971,32768
1972,32576
1973,32448
1974,32320
1975,32128
1976,32064
1977,32000
1978,32064
1979,32064
1980,32000
1981,32000
1982,32000
1983,32064
1984,32128
1985,32192
1986,32256
1987,32384
1988,32512
1989,32640
1990,32768
1991,32832
1992,32896
1993,32960
1994,33024
1995,33024
1996,33024
1997,33024
1998,33088
1999,33152
2000,33216
2001,33280
2002,33280
2003,33280
2004,33280
2005,33280
2006,33344
2007,33408
2008,33408
2009,33344
2010,33280
2011,33216
2012,33216
2013,33152
2014,33216
2015,33280
2016,33344
2017,33472
2018,33600
2019,33856
2020,33984
2021,34048
2022,34048
2023,34048
2024,34048
2025,33920
2026,33856
2027,33856
2028,33920
2029,34048
2030,34048
2031,34048
2032,34048
2033,33984
2034,33856
2035,33728
2036,33664
2037,33536
2038,33408
2039,33408
2040,33344
2041,33152
2042,32896
2043,32768
2044,32640
2045,32704
2046,32704
2047,32704
2048,32640
2049,32640
2050,32704
2051,32768
2052,32832
2053,32832
2054,32896
2055,32960
2056,33024
2057,33152
2058,33216
2059,33280
2060,33280
2061,33280
2062,33344
2063,33344
2064,33408
2065,33472
2066,33344
2067,32896
2068,32128
2069,31680
2070,31872
2071,32960
2072,34880
2073,37696
2074,40960
2075,43392
2076,44224
2077,42944
2078,40512
2079,37632
2080,34816
2081,32256
2082,30144
2083,28608
2084,27904
2085,28032
2086,28992
2087,30272
2088,31488
2089,32384
2090,32960
2091,33280
2092,33472
2093,33600
2094,33728
2095,33856
2096,33920
2097,33856
2098,33856
2099,33792
2100,33792
2101,33792
2102,33792
2103,33792
2104,33792
2105,33728
2106,33792
2107,33920
2108,33984
2109,34048
2110,34048
2111,34112
2112,34176
2113,34240
2114,34368
2115,34432
2116,34432
2117,34560
2118,34752
2119,34880
2120,35072
2121,35200
2122,35264
2123,35264
2124,35200
2125,35200
2126,35200
2127,35136
2128,35072
2129,35072
2130,35008
2131,34880
2132,34752
2133,34560
2134,34304
2135,34112
2136,33920
2137,33728
2138,33472
2139,33216
2140,32960
2141,32832
2142,32640
2143,32448
2144,32320
2145,32192
2146,32192
2147,32128
2148,32064
2149,32000
2150,31936
2151,32000
2152,32192
2153,32448
2154,32640
2155,32640
2156,32640
2157,32640
2158,32640
2159,32704
2160,32768
2161,32832
2162,32896
2163,32896
2164,32960
2165,33088
2166,33152
2167,33216
2168,33280
2169,33280
2170,33344
2171,33408
2172,33344
2173,33344
2174,33344
2175,33280
2176,33280
2177,33408
2178,33408
2179,33408
2180,33344
2181,33280
2182,33408
2183,33472
2184,33600
2185,33728
2186,33920
2187,34048
2188,34112
2189,34176
2190,34240
2191,34240
2192,34240
2193,34176
2194,34176
2195,34240
2196,34176
2197,34112
2198,34048
2199,33984
2200,33920
2201,33728
2202,33664
2203,33600
2204,33280
2205,33216
2206,33152
2207,33088
2208,32960
2209,32832
2210,32768
2211,32768
2212,32768
2213,32768
2214,32768
2215,32896
2216,32960
2217,32960
2218,33088
2219,33152
2220,33216
2221,33216
2222,33280
2223,33280
2224,33344
2225,33408
2226,33408
2227,33408
2228,33344
2229,33344
2230,33344
2231,33344
2232,33152
2233,32768
2234,32256
2235,31680
2236,31744
2237,32512
2238,34112
2239,36544
2240,39872
2241,42816
2242,44352
2243,43968
2244,41856
2245,39168
2246,36160
2247,33600
2248,31232
2249,29440
2250,28224
2251,27904
2252,28416
2253,29568
2254,30784
2255,31680
2256,32384
2257,32896
2258,33280
2259,33536
2260,33664
2261,33792
2262,33920
2263,34048
2264,33984
2265,33920
2266,33856
2267,33792
2268,33856
2269,33920
2270,34048
2271,34112
2272,34176
2273,34240
2274,34304
2275,34304
2276,34304
2277,34304
2278,34304
2279,34368
2280,34624
2281,34752
2282,34752
2283,34688
2284,34688
2285,34752
2286,34688
2287,34752
2288,34816
2289,34944
2290,35072
2291,35200
2292,35200
2293,35200
2294,35200
2295,35200
2296,35264
2297,35200
2298,35072
2299,34752
2300,34496
2301,34240
2302,33984
2303,33664
2304,33408
2305,33216
2306,33024
2307,32832
2308,32704
2309,32512
2310,32448
2311,32320
2312,32256
2313,32192
2314,32192
2315,32320
2316,32448
2317,32512
2318,32512
2319,32448
2320,32320
2321,32384
2322,32576
2323,32768
2324,32896
2325,32960
2326,32896
2327,32960
2328,32960
2329,32896
2330,33024
2331,33088
2332,33216
2333,33344
2334,33280
2335,33216
2336,33216
2337,33152
2338,33152
2339,33216
2340,33280
2341,33408
2342,33472
2343,33472
2344,33408
2345,33344
2346,33344
2347,33472
2348,33600
2349,33664
2350,33728
2351,33856
2352,33984
2353,34112
2354,34176
2355,34176
2356,34176
2357,34112
2358,34048
2359,34112
2360,34112
2361,34112
2362,34112
2363,34176
2364,34112
2365,33920
2366,33792
2367,33664
2368,33600
2369,33408
2370,33344
2371,33344
2372,33216
2373,33024
2374,32832
2375,32704
2376,32640
2377,32640
2378,32640
2379,32640
2380,32704
2381,32640
2382,32576
2383,32576
2384,32576
2385,32704
2386,32768
2387,32832
2388,32960
2389,33024
2390,33152
2391,33152
2392,33216
2393,33280
2394,33280
2395,33280
2396,33280
2397,33280
2398,32960
2399,32448
2400,31680
2401,31296
2402,31744
2403,33088
2404,35264
2405,38464
2406,41792
2407,43840
2408,44032
2409,42304
2410,39616
2411,36672
2412,33472
2413,33344
2414,29312
2415,28096
2416,27776
2417,28160
2418,29056
2419,30144
2420,31104
2421,31872
2422,32320
2423,32640
2424,32832
2425,33024
2426,33152
2427,33216
2428,33216
2429,33216
2430,33280
2431,33408
2432,33536
2433,33600
2434,33600
2435,33344
2436,33216
2437,33216
2438,33280
2439,33408
2440,33472
2441,33472
2442,33472
2443,33536
2444,33536
2445,33600
2446,33664
2447,33792
2448,33856
2449,33984
2450,34048
2451,34176
2452,34240
2453,34304
2454,34368
2455,34368
2456,34304
2457,34240
2458,34240
2459,34176
2460,34112
2461,33984
2462,33856
2463,33728
2464,33600
2465,33472
2466,33280
2467,33088
2468,32896
2469,32640
2470,32384
2471,32128
2472,31872
2473,31680
2474,31488
2475,31296
2476,31104
2477,31040
2478,30976
2479,30976
2480,31040
2481,31104
2482,31168
2483,31232
2484,31360
2485,31360
2486,31424
2487,31488
2488,31552
2489,31616
2490,31680
2491,31744
2492,31808
2493,31808
2494,31872
2495,31936
2496,32000
2497,32064
2498,32064
2499,32000
2500,32000
2501,31936
2502,31872
2503,31872
2504,31872
2505,32000
2506,32064
2507,32064
2508,32128
2509,32128
2510,32192
2511,32256
2512,32256
2513,32256
2514,32384
2515,32512
2516,32640
2517,32768
2518,32832
2519,32960
2520,33024
2521,33024
2522,32960
2523,32896
2524,32832
2525,32768
2526,32640
2527,32640
2528,32640
2529,32512
2530,32384
2531,32192
2532,32128
2533,32064
2534,32000
2535,32000
2536,32000
2537,31936
2538,31744
2539,31552
2540,31424
2541,31360
2542,31296
2543,31296
2544,31360
2545,31424
2546,31424
2547,31488
2548,31552
2549,31616
2550,31680
2551,31744
2552,31744
2553,31872
2554,31936
2555,32000
2556,32000
2557,31872
2558,31808
2559,31744
2560,31744
2561,31808
2562,31744
2563,31552
2564,31040
2565,30400
2566,30144
2567,30720
2568,32064
2569,34368
2570,37568
2571,40704
2572,42432
2573,42304
2574,40576
2575,38144
2576,35200
2577,32832
2578,30464
2579,28544
2580,27264
2581,26752
2582,27072
2583,28096
2584,29248
2585,30144
2586,30848
2587,31360
2588,31616
2589,31872
2590,32000
2591,32128
2592,32192
2593,32256
2594,32320
2595,32384
2596,32512
2597,32512
2598,32576
2599,32576
2600,32640
2601,32640
2602,32640
2603,32640
2604,32704
2605,32832
2606,32960
2607,33024
2608,33152
2609,33216
2610,33280
2611,33408
2612,33408
2613,33408
2614,33408
2615,33408
2616,33408
2617,33408
2618,33472
2619,33536
2620,33664
2621,33728
2622,33728
2623,33728
2624,33664
2625,33664
2626,33600
2627,33600
2628,33536
2629,33408
2630,33280
2631,33152
2632,32960
2633,32768
2634,32576
2635,32384
2636,32256
2637,32064
2638,31872
2639,31808
2640,31616
2641,31488
2642,31360
2643,31296
2644,31168
2645,31104
2646,31104
2647,31104
2648,31104
2649,31232
2650,31360
2651,31488
2652,31616
2653,31744
2654,31872
2655,31936
2656,31936
2657,32000
2658,32064
2659,32128
2660,32256
2661,32384
2662,32512
2663,32512
2664,32512
2665,32512
2666,32576
2667,32640
2668,32704
2669,32704
2670,32704
2671,32832
2672,32960
2673,32960
2674,32896
2675,32832
2676,32960
2677,33024
2678,33024
2679,33024
2680,33024
2681,33088
2682,33152
2683,33216
2684,33216
2685,33216
2686,33344
2687,33408
2688,33472
2689,33472
2690,33408
2691,33280
2692,33216
2693,33088
2694,33024
2695,32896
2696,32768
2697,32768
2698,32640
2699,32512
2700,32384
2701,32320
2702,32256
2703,32256
2704,32256
2705,32256
2706,32192
2707,32064
2708,32000
2709,32064
2710,32128
2711,32192
2712,32320
2713,32384
2714,32448
2715,32576
2716,32640
2717,32768
2718,32832
2719,32896
2720,32960
2721,33152
2722,33152
2723,32960
2724,32768
2725,32320
2726,31552
2727,30784
2728,30720
2729,31488
2730,33216
2731,35968
2732,39424
2733,42432
2734,43904
2735,43392
2736,41472
2737,39040
2738,36416
2739,33920
2740,31616
2741,29824
2742,28480
2743,28032
2744,28224
2745,29056
2746,30208
2747,31232
2748,32000
2749,32576
2750,32896
2751,32960
2752,32960
2753,33024
2754,33088
2755,33216
2756,33344
2757,33408
2758,33472
2759,33472
2760,33536
2761,33664
2762,33664
2763,33728
2764,33792
2765,33792
2766,33856
2767,33856
2768,33920
2769,33920
2770,33984
2771,33984
2772,34112
2773,34304
2774,34496
2775,34496
2776,34496
2777,34432
2778,34496
2779,34496
2780,34624
2781,34688
2782,34688
2783,34624
2784,34560
2785,34560
2786,34560
2787,34560
2788,34496
2789,34432
2790,34304
2791,34240
2792,34112
2793,33984
2794,33728
2795,33536
2796,33344
2797,33152
2798,32960
2799,32832
2800,32704
2801,32576
2802,32448
2803,32384
2804,32320
2805,32320
2806,32384
2807,32512
2808,32512
2809,32512
2810,32448
2811,32320
2812,32320
2813,32384
2814,32448
2815,32576
2816,32640
2817,32832
2818,32896
2819,33024
2820,33088
2821,33152
2822,33216
2823,33216
2824,33280
2825,33280
2826,33344
2827,33408
2828,33472
2829,33536
2830,33536
2831,33536
2832,33536
2833,33536
2834,33600
2835,33664
2836,33792
2837,33856
2838,33984
2839,34048
2840,34112
2841,34176
2842,34176
2843,34176
2844,34112
2845,34048
2846,34048
2847,34112
2848,34176
2849,34240
2850,34240
2851,34176
2852,34048
2853,33920
2854,33856
2855,33728
2856,33600
2857,33472
2858,33408
2859,33280
2860,33152
2861,33088
2862,33024
2863,33024
2864,33088
2865,33088
2866,33024
2867,33024
2868,33024
2869,33024
2870,33088
2871,33152
2872,33152
2873,33280
2874,33280
2875,33280
2876,33344
2877,33408
2878,33472
2879,33536
2880,33600
2881,33664
2882,33664
2883,33664
2884,33664
2885,33472
2886,33088
2887,32384
2888,32000
2889,32256
2890,33472
2891,35456
2892,38336
2893,41600
2894,43840
2895,44480
2896,43200
2897,40832
2898,38144
2899,35392
2900,32896
2901,30784
2902,29312
2903,28480
2904,28416
2905,29184
2906,30336
2907,31488
2908,32320
2909,32960
2910,33344
2911,33664
2912,33792
2913,33920
2914,33984
2915,34048
2916,34112
2917,34112
2918,34176
2919,34240
2920,34368
2921,34368
2922,34240
2923,34176
2924,34176
2925,34240
2926,34368
2927,34368
2928,34432
2929,34496
2930,34560
2931,34624
2932,34624
2933,34688
2934,34752
2935,34816
2936,34944
2937,35008
2938,35072
2939,35136
2940,35200
2941,35264
2942,35328
2943,35392
2944,35392
2945,35392
2946,35392
2947,35264
2948,35200
2949,35136
2950,35072
2951,35008
2952,34816
2953,34624
2954,34368
2955,34176
2956,33920
2957,33664
2958,33344
2959,33152
2960,33024
2961,32896
2962,32768
2963,32640
2964,32576
2965,32512
2966,32512
2967,32512
2968,32512
2969,32576
2970,32640
2971,32704
2972,32768
2973,32768
2974,32896
2975,32960
2976,33152
2977,33280
2978,33408
2979,33472
2980,33536
2981,33600
2982,33664
2983,33664
2984,33600
2985,33600
2986,33664
2987,33664
2988,33728
2989,33728
2990,33792
2991,33792
2992,33856
2993,33856
2994,33856
2995,33984
2996,34048
2997,34112
2998,34112
2999,34176
3000,34368
3001,34368
3002,34304
3003,34240
3004,34240
3005,34304
3006,34304
3007,34368
3008,34368
3009,34432
3010,34496
3011,34496
3012,34496
3013,34432
3014,34368
3015,34240
3016,34176
3017,34048
3018,33920
3019,33792
3020,33728
3021,33728
3022,33600
3023,33408
3024,33216
3025,33152
3026,33088
3027,33152
3028,33216
3029,33280
3030,33344
3031,33344
3032,33280
3033,33280
3034,33344
3035,33408
3036,33472
3037,33472
3038,33600
3039,33600
3040,33600
3041,33600
3042,33664
3043,33664
3044,33728
3045,33792
3046,33792
3047,33792
3048,33600
3049,33152
3050,32576
3051,32064
3052,32256
3053,33216
3054,34944
3055,37568
3056,40768
3057,43392
3058,44224
3059,43328
3060,41216
3061,38656
3062,35904
3063,33536
3064,31488
3065,29888
3066,28928
3067,28672
3068,29184
3069,30208
3070,31360
3071,32192
3072,32768
3073,33152
3074,33472
3075,33600
3076,33728
3077,33856
3078,33984
3079,34048
3080,34112
3081,34176
3082,34176
3083,34240
3084,34240
3085,34304
3086,34304
3087,34304
3088,34304
3089,34304
3090,34368
3091,34368
3092,34496
3093,34560
3094,34624
3095,34688
3096,34752
3097,34880
3098,35008
3099,35072
3100,35072
3101,35136
3102,35136
3103,35200
3104,35264
3105,35328
3106,35392
3107,35392
3108,35456
3109,35392
3110,35328
3111,35264
3112,35136
3113,35008
3114,34880
3115,34752
3116,34624
3117,34432
3118,34304
3119,34048
3120,33728
3121,33408
3122,33152
3123,32960
3124,32832
3125,32704
3126,32640
3127,32576
3128,32448
3129,32448
3130,32384
3131,32448
3132,32448
3133,32512
3134,32576
3135,32640
3136,32704
3137,32768
3138,32896
3139,33024
3140,33152
3141,33152
3142,33216
3143,33280
3144,33280
3145,33344
3146,33344
3147,33472
3148,33536
3149,33600
3150,33664
3151,33664
3152,33664
3153,33664
3154,33728
3155,33728
3156,33728
3157,33664
3158,33664
3159,33728
3160,33728
3161,33792
3162,33856
3163,33856
3164,33792
3165,33728
3166,33728
3167,33792
3168,33856
3169,33984
3170,34176
3171,34240
3172,34368
3173,34432
3174,34368
3175,34368
3176,34304
3177,34304
3178,34240
3179,34304
3180,34304
3181,34304
3182,34240
3183,34176
3184,34176
3185,34176
3186,34112
3187,33984
3188,33792
3189,33600
3190,33472
3191,33408
3192,33280
3193,33216
3194,33088
3195,32960
3196,32896
3197,32896
3198,32960
3199,33024
3200,33088
3201,33088
3202,33152
3203,33216
3204,33216
3205,33216
3206,33216
3207,33216
3208,33280
3209,33280
3210,33344
3211,33408
3212,33408
3213,33472
3214,33472
3215,33600
3216,33664
3217,33664
3218,33408
3219,32896
3220,32320
3221,32064
3222,32576
3223,33856
3224,35776
3225,38592
3226,41600
3227,43520
3228,43776
3229,42304
3230,40000
3231,37504
3232,34944
3233,32512
3234,30464
3235,29056
3236,28352
3237,28480
3238,29568
3239,30656
3240,31808
3241,32640
3242,33088
3243,33408
3244,33600
3245,33792
3246,33920
3247,34048
3248,34112
3249,34048
3250,34048
3251,34048
3252,34048
3253,34112
3254,34176
3255,34240
3256,34240
3257,34304
3258,34368
3259,34432
3260,34432
3261,34496
3262,34560
3263,34624
3264,34624
3265,34688
3266,34752
3267,34752
3268,34816
3269,34880
3270,35136
3271,35328
3272,35328
3273,35328
3274,35456
3275,35520
3276,35456
3277,35392
3278,35264
3279,35200
3280,35200
3281,35072
3282,34944
3283,34880
3284,34752
3285,34624
3286,34432
3287,34176
3288,33984
3289,33792
3290,33536
3291,33280
3292,33088
3293,32896
3294,32768
3295,32640
3296,32448
3297,32320
3298,32320
3299,32320
3300,32320
3301,32384
3302,32512
3303,32576
3304,32640
3305,32640
3306,32768
3307,32832
3308,32896
3309,32960
3310,32960
3311,32960
3312,32960
3313,33024
3314,33088
3315,33216
3316,33280
3317,33344
3318,33408
3319,33472
3320,33472
3321,33472
3322,33536
3323,33600
3324,33600
3325,33600
3326,33664
3327,33664
3328,33664
3329,33792
3330,33792
3331,33792
3332,33792
3333,33856
3334,33856
3335,33792
3336,33600
3337,33472
3338,33408
3339,33408
3340,33408
3341,33472
3342,33536
3343,33600
3344,33600
3345,33664
3346,33728
3347,33856
3348,33984
3349,34112
3350,34176
3351,34304
3352,34304
3353,34304
3354,34240
3355,34112
3356,33984
3357,33984
3358,34240
3359,34368
3360,34560
3361,34560
3362,34432
3363,34176
3364,33984
3365,33792
3366,33664
3367,33472
3368,33408
3369,33408
3370,33344
3371,33280
3372,33152
3373,33024
3374,32960
3375,32896
3376,32896
3377,32960
3378,32960
3379,32960
3380,33024
3381,33024
3382,33024
3383,33088
3384,33152
3385,33280
3386,33408
3387,33472
3388,33536
3389,33472
3390,33472
3391,33472
3392,33536
3393,33536
3394,33536
3395,33536
3396,33472
3397,33280
3398,32832
3399,32320
3400,32000
3401,32448
3402,33664
3403,36096
3404,38528
3405,41344
3406,43200
3407,43456
3408,42048
3409,39744
3410,37248
3411,34752
3412,32512
3413,30592
3414,29248
3415,28544
3416,28544
3417,29312
3418,30720
3419,31616
3420,32320
3421,32896
3422,33280
3423,33536
3424,33664
3425,33728
3426,33792
3427,33856
3428,33920
3429,33984
3430,33984
3431,33984
3432,33984
3433,33920
3434,33920
3435,33920
3436,34048
3437,34176
3438,34304
3439,34304
3440,34304
3441,34304
3442,34432
3443,34496
3444,34624
3445,34688
3446,34752
3447,34816
3448,34816
3449,34880
3450,34944
3451,34944
3452,35008
3453,35072
3454,35072
3455,35072
3456,35072
3457,35136
3458,35136
3459,35072
3460,35008
3461,34880
3462,34688
3463,34624
3464,34496
3465,34368
3466,34176
3467,33984
3468,33728
3469,33472
3470,33280
3471,33088
3472,32896
3473,32768
3474,32640
3475,32512
3476,32448
3477,32320
3478,32320
3479,32320
3480,32384
3481,32448
3482,32448
3483,32384
3484,32320
3485,32384
3486,32384
3487,32512
3488,32704
3489,32896
3490,33024
3491,33024
3492,33088
3493,33152
3494,33216
3495,33280
3496,33344
3497,33408
3498,33472
3499,33536
3500,33536
3501,33536
3502,33600
3503,33600
3504,33600
3505,33664
3506,33792
3507,33792
3508,33920
3509,33920
3510,33792
3511,33664
3512,33600
3513,33664
3514,33728
3515,33664
3516,33536
3517,33472
3518,33472
3519,33536
3520,33536
3521,33600
3522,33600
3523,33664
3524,33664
3525,33664
3526,33664
3527,33664
3528,33728
3529,33728
3530,33792
3531,33856
3532,33856
3533,33920
3534,34048
3535,34176
3536,34240
3537,34368
3538,34432
3539,34496
3540,34496
3541,34304
3542,34240
3543,34176
3544,34176
3545,34240
3546,34240
3547,34112
3548,34048
3549,33920
3550,33792
3551,33664
3552,33600
3553,33472
3554,33472
3555,33408
3556,33280
3557,33088
3558,32960
3559,32832
3560,32832
3561,32896
3562,32960
3563,33088
3564,33152
3565,33216
3566,33280
3567,33344
3568,33408
3569,33472
3570,33536
3571,33536
3572,33600
3573,33536
3574,33472
3575,33344
3576,33344
3577,33344
3578,33344
3579,33408
3580,33472
3581,33472
3582,33344
3583,32768
3584,32320
3585,32000
3586,32320
3587,33408
3588,35136
3589,37760
3590,40640
3591,42624
3592,43200
3593,42176
3594,40256
3595,38080
3596,35776
3597,33536
3598,31616
3599,30080
3600,29184
3601,28864
3602,29312
3603,30208
3604,31232
3605,32000
3606,32640
3607,33024
3608,33280
3609,33472
3610,33600
3611,33664
3612,33792
3613,33856
3614,33856
3615,33856
3616,33920
3617,33984
3618,33920
3619,33920
3620,33920
3621,33984
3622,34048
3623,34176
3624,34240
3625,34304
3626,34432
3627,34496
3628,34496
3629,34432
3630,34432
3631,34496
3632,34560
3633,34560
3634,34624
3635,34624
3636,34688
3637,34816
3638,34880
3639,34944
3640,35008
3641,35008
3642,35008
3643,35008
3644,34944
3645,34816
3646,34752
3647,34624
3648,34496
3649,34368
3650,34176
3651,34048
3652,33920
3653,33728
3654,33600
3655,33344
3656,33152
3657,32960
3658,32768
3659,32640
3660,32576
3661,32512
3662,32448
3663,32384
3664,32320
3665,32256
3666,32192
3667,32128
3668,32128
3669,32256
3670,32320
3671,32384
3672,32512
3673,32640
3674,32704
3675,32768
3676,32896
3677,32960
3678,32960
3679,33024
3680,33088
3681,33152
3682,33280
3683,33344
3684,33472
3685,33472
3686,33536
3687,33600
3688,33664
3689,33664
3690,33664
3691,33728
3692,33664
3693,33600
3694,33600
3695,33664
3696,33600
3697,33472
3698,33408
3699,33344
3700,33344
3701,33344
3702,33344
3703,33344
3704,33344
3705,33344
3706,33344
3707,33408
3708,33408
3709,33472
3710,33536
3711,33600
3712,33600
3713,33600
3714,33600
3715,33664
3716,33664
3717,33728
3718,33856
3719,33920
3720,33984
3721,34112
3722,34240
3723,34304
3724,34304
3725,34240
3726,34112
3727,33984
3728,33856
3729,33792
3730,33856
3731,33920
3732,33920
3733,33920
3734,33856
3735,33792
3736,33728
3737,33600
3738,33472
3739,33408
3740,33408
3741,33280
3742,33088
3743,32960
3744,32896
3745,32832
3746,32832
3747,32960
3748,32960
3749,32960
3750,32960
3751,33024
3752,33088
3753,33152
3754,33088
3755,33088
3756,33024
3757,33024
3758,33088
3759,33152
3760,33216
3761,33280
3762,33344
3763,33408
3764,33408
3765,33472
3766,33472
3767,33280
3768,32896
3769,32320
3770,31872
3771,32128
3772,33152
3773,34816
3774,37440
3775,40384
3776,42496
3777,43136
3778,42176
3779,40256
3780,37952
3781,35520
3782,33216
3783,31168
3784,29632
3785,28672
3786,28352
3787,28800
3788,29760
3789,30848
3790,31680
3791,32320
3792,32768
3793,33152
3794,33280
3795,33408
3796,33536
3797,33600
3798,33664
3799,33664
3800,33664
3801,33664
3802,33664
3803,33664
3804,33664
3805,33728
3806,33792
3807,33856
3808,33984
3809,34048
3810,34048
3811,34112
3812,34112
3813,34176
3814,34304
3815,34304
3816,34368
3817,34368
3818,34368
3819,34496
3820,34560
3821,34688
3822,34752
3823,34880
3824,34944
3825,34944
3826,35008
3827,35072
3828,35072
3829,34944
3830,34880
3831,34752
3832,34624
3833,34496
3834,34240
3835,34048
3836,33856
3837,33600
3838,33216
3839,33088
3840,32896
3841,32704
3842,32576
3843,32448
3844,32256
3845,32128
3846,32000
3847,31936
3848,31872
3849,31872
3850,31872
3851,31936
3852,31936
3853,32000
3854,32064
3855,32192
3856,32320
3857,32384
3858,32448
3859,32448
3860,32448
3861,32448
3862,32512
3863,32512
3864,32576
3865,32640
3866,32704
3867,32832
3868,32960
3869,33024
3870,33024
3871,33088
3872,33088
3873,33152
3874,33152
3875,33216
3876,33216
3877,33216
3878,33280
3879,33280
3880,33280
3881,33344
3882,33280
3883,33216
3884,33216
3885,33216
3886,33216
3887,33216
3888,33152
3889,33152
3890,33152
3891,33088
3892,33088
3893,33088
3894,33088
3895,33088
3896,33152
3897,33152
3898,33152
3899,33152
3900,33216
3901,33216
3902,33216
3903,33216
3904,33280
3905,33344
3906,33344
3907,33408
3908,33536
3909,33664
3910,33728
3911,33792
3912,33856
3913,33920
3914,33920
3915,33856
3916,33792
3917,33728
3918,33728
3919,33728
3920,33792
3921,33856
3922,33856
3923,33728
3924,33664
3925,33536
3926,33472
3927,33344
3928,33216
3929,33152
3930,33088
3931,32896
3932,32768
3933,32640
3934,32576
3935,32576
3936,32576
3937,32576
3938,32576
3939,32576
3940,32640
3941,32640
3942,32640
3943,32768
3944,32832
3945,32896
3946,32960
3947,33024
3948,33024
3949,33088
3950,33088
3951,33152
3952,33216
3953,33216
3954,33280
3955,33280
3956,33216
3957,32896
3958,32320
3959,31808
3960,31744
3961,32384
3962,33856
3963,36096
3964,38976
3965,41600
3966,42944
3967,42752
3968,41088
3969,38720
3970,36224
3971,33664
3972,31360
3973,28992
3974,28480
3975,28224
3976,28608
3977,29632
3978,30656
3979,31616
3980,32256
3981,32704
3982,32960
3983,33152
3984,33280
3985,33344
3986,33408
3987,33408
3988,33536
3989,33536
3990,33600
3991,33664
3992,33664
3993,33664
3994,33728
3995,33728
3996,33728
3997,33856
3998,33856
3999,33920
4000,33920
4001,33920
4002,33920
4003,34112
4004,34176
4005,34304
4006,34368
4007,34496
4008,34624
4009,34752
4010,34880
4011,34944
4012,35008
4013,35008
4014,35008
4015,35008
4016,34944
4017,34944
4018,34880
4019,34752
4020,34624
4021,34496
4022,34368
4023,34240
4024,34048
4025,33984
4026,33536
4027,33280
4028,33024
4029,32832
4030,32640
4031,32512
4032,32320
4033,32128
4034,32064
4035,31808
4036,31808
4037,31808
4038,31872
4039,31936
4040,32000
4041,32000
4042,32000
4043,32000
4044,32064
4045,32128
4046,32192
4047,32256
4048,32320
4049,32320
4050,32512
4051,32640
4052,32768
4053,32832
4054,32960
4055,32960
4056,33024
4057,33024
4058,33024
4059,33024
4060,33024
4061,33024
4062,33088
4063,33088
4064,33152
4065,33216
4066,33280
4067,33344
4068,33408
4069,33344
4070,33344
4071,33344
4072,33344
4073,33344
4074,33344
4075,33344
4076,33344
4077,33344
4078,33344
4079,33280
4080,33344
4081,33408
4082,33408
4083,33408
4084,33344
4085,33344
4086,33280
4087,33216
4088,33280
4089,33280
4090,33280
4091,33344
4092,33408
4093,33344
4094,33344
4095,33344
4096,33344
4097,33408
4098,33408
4099,33472
4100,33472
4101,33536
4102,33600
4103,33728
4104,33792
4105,33984
4106,34112
4107,34176
4108,34240
4109,34176
4110,34112
4111,34048
4112,34048
4113,34112
4114,34112
4115,34176
4116,34176
4117,34048
4118,33920
4119,33728
4120,33536
4121,33408
4122,33280
4123,33216
4124,33216
4125,33216
4126,33088
4127,33024
4128,32960
4129,32896
4130,32768
4131,32768
4132,32704
4133,32832
4134,33024
4135,33088
4136,33088
4137,33152
4138,33152
4139,33152
4140,33152
4141,33152
4142,33152
4143,33216
4144,33216
4145,32960
4146,32640
4147,32000
4148,31680
4149,32000
4150,33088
4151,34880
4152,37504
4153,40512
4154,42560
4155,43200
4156,41984
4157,39936
4158,37504
4159,34944
4160,32448
4161,30400
4162,28992
4163,28288
4164,28288
4165,28992
4166,30144
4167,31232
4168,32128
4169,32704
4170,33088
4171,33344
4172,33536
4173,33664
4174,33728
4175,33728
4176,33728
4177,33792
4178,33792
4179,33920
4180,33920
4181,33920
4182,33920
4183,33920
4184,33920
4185,33984
4186,34048
4187,34048
4188,34112
4189,34176
4190,34240
4191,34304
4192,34368
4193,34432
4194,34496
4195,34624
4196,34752
4197,34880
4198,34944
4199,34944
4200,34944
4201,35072
4202,35136
4203,35264
4204,35264
4205,35328
4206,35392
4207,35328
4208,35264
4209,35200
4210,35136
4211,35008
4212,34752
4213,34496
4214,34240
4215,33920
4216,33600
4217,33408
4218,33152
4219,32896
4220,32704
4221,32512
4222,32384
4223,32192
4224,32128
4225,32064
4226,32064
4227,32064
4228,32064
4229,32128
4230,32128
4231,32128
4232,32128
4233,32192
4234,32192
4235,32256
4236,32448
4237,32576
4238,32640
4239,32704
4240,32768
4241,32832
4242,32960
4243,33088
4244,33216
4245,33344
4246,33344
4247,33344
4248,33280
4249,33280
4250,33344
4251,33408
4252,33472
4253,33472
4254,33472
4255,33408
4256,33408
4257,33408
4258,33408
4259,33472
4260,33472
4261,33600
4262,33600
4263,33664
4264,33600
4265,33600
4266,33536
4267,33600
4268,33600
4269,33664
4270,33664
4271,33664
4272,33600
4273,33536
4274,33536
4275,33536
4276,33600
4277,33664
4278,33664
4279,33600
4280,33536
4281,33472
4282,33536
4283,33600
4284,33792
4285,33792
4286,33600
4287,33472
4288,33472
4289,33472
4290,33472
4291,33600
4292,33728
4293,33920
4294,34112
4295,34240
4296,34368
4297,34368
4298,34368
4299,34304
4300,34240
4301,34240
4302,34240
4303,34304
4304,34304
4305,34240
4306,34176
4307,34048
4308,33984
4309,33920
4310,33856
4311,33728
4312,33664
4313,33664
4314,33600
4315,33344
4316,33088
4317,32896
4318,32768
4319,32768
4320,32832
4321,32896
4322,32896
4323,32960
4324,33024
4325,33088
4326,33088
4327,33088
4328,33152
4329,33216
4330,33216
4331,33280
4332,33408
4333,33408
4334,33280
4335,32896
4336,32320
4337,31808
4338,31872
4339,32768
4340,34368
4341,36864
4342,39936
4343,42432
4344,43392
4345,42624
4346,40576
4347,38144
4348,35584
4349,33280
4350,31168
4351,29568
4352,28544
4353,28288
4354,28736
4355,29696
4356,30848
4357,31744
4358,32512
4359,33024
4360,33344
4361,33536
4362,33664
4363,33792
4364,33856
4365,33920
4366,33984
4367,34048
4368,34048
4369,33984
4370,33920
4371,33856
4372,33856
4373,33856
4374,33920
4375,33920
4376,33984
4377,34048
4378,34112
4379,34176
4380,34240
4381,34304
4382,34368
4383,34496
4384,34560
4385,34688
4386,34816
4387,34944
4388,35008
4389,35072
4390,35136
4391,35264
4392,35392
4393,35392
4394,35392
4395,35392
4396,35264
4397,35200
4398,35200
4399,35072
4400,34944
4401,34816
4402,34560
4403,34368
4404,34048
4405,33792
4406,33472
4407,33216
4408,32960
4409,32704
4410,32448
4411,32256
4412,32064
4413,32000
4414,31936
4415,31936
4416,31936
4417,31936
4418,31936
4419,32000
4420,32128
4421,32256
4422,32320
4423,32384
4424,32448
4425,32448
4426,32512
4427,32640
4428,32768
4429,32832
4430,32896
4431,32960
4432,33024
4433,33024
4434,33088
4435,33088
4436,33152
4437,33216
4438,33280
4439,33280
4440,33280
4441,33344
4442,33408
4443,33472
4444,33536
4445,33472
4446,33472
4447,33472
4448,33472
4449,33472
4450,33408
4451,33280
4452,33216
4453,33280
4454,33344
4455,33344
4456,33344
4457,33344
4458,33344
4459,33344
4460,33408
4461,33408
4462,33408
4463,33472
4464,33472
4465,33600
4466,33728
4467,33792
4468,33856
4469,33920
4470,33984
4471,34112
4472,34176
4473,34176
4474,34176
4475,34048
4476,33984
4477,33984
4478,34112
4479,34176
4480,34176
4481,34176
4482,34112
4483,34048
4484,33920
4485,33792
4486,33600
4487,33408
4488,33344
4489,33280
4490,33280
4491,33152
4492,33024
4493,32896
4494,32768
4495,32768
4496,32704
4497,32704
4498,32704
4499,32768
4500,32832
4501,32832
4502,32896
4503,32960
4504,32960
4505,33088
4506,33152
4507,33152
4508,33216
4509,33280
4510,33280
4511,33024
4512,32576
4513,31936
4514,31616
4515,32064
4516,33280
4517,35200
4518,38080
4519,41024
4520,42880
4521,43136
4522,41664
4523,39360
4524,36928
4525,34496
4526,32192
4527,30272
4528,28864
4529,28288
4530,28352
4531,29184
4532,30336
4533,31424
4534,32192
4535,32768
4536,33152
4537,33344
4538,33472
4539,33600
4540,33664
4541,33728
4542,33728
4543,33792
4544,33792
4545,33792
4546,33856
4547,33920
4548,33984
4549,34048
4550,34048
4551,34048
4552,34048
4553,34112
4554,34176
4555,34176
4556,34304
4557,34368
4558,34496
4559,34560
4560,34688
4561,34752
4562,34752
4563,34752
4564,34816
4565,34944
4566,35072
4567,35200
4568,35200
4569,35200
4570,35200
4571,35200
4572,35200
4573,35200
4574,35136
4575,35072
4576,35008
4577,34880
4578,34624
4579,34368
4580,34112
4581,33856
4582,33536
4583,33280
4584,32960
4585,32768
4586,32576
4587,32384
4588,32256
4589,32128
4590,32064
4591,32064
4592,32064
4593,32000
4594,32000
4595,32000
4596,32128
4597,32128
4598,32192
4599,32256
4600,32320
4601,32512
4602,32576
4603,32704
4604,32832
4605,32896
4606,33024
4607,33088
4608,33152
4609,33216
4610,33216
4611,33216
4612,33216
4613,33216
4614,33216
4615,33280
4616,33344
4617,33408
4618,33472
4619,33472
4620,33536
4621,33536
4622,33536
4623,33472
4624,33536
4625,33536
4626,33536
4627,33536
4628,33536
4629,33536
4630,33536
4631,33536
4632,33600
4633,33664
4634,33792
4635,33920
4636,33984
4637,34048
4638,34112
4639,34176
4640,34176
4641,34176
4642,34112
4643,33984
4644,33984
4645,34048
4646,34048
4647,34112
4648,34048
4649,33984
4650,33856
4651,33792
4652,33728
4653,33600
4654,33536
4655,33472
4656,33408
4657,33280
4658,33088
4659,32960
4660,32832
4661,32768
4662,32768
4663,32832
4664,32896
4665,32896
4666,32960
4667,32960
4668,32896
4669,32896
4670,32960
4671,33024
4672,33152
4673,33216
4674,33280
4675,33344
4676,33344
4677,33344
4678,33408
4679,33408
4680,33472
4681,33536
4682,33408
4683,33088
4684,32512
4685,32000
4686,32000
4687,32832
4688,34368
4689,36736
4690,39808
4691,42304
4692,43392
4693,42752
4694,40896
4695,38592
4696,36160
4697,33856
4698,31744
4699,30080
4700,28992
4701,28544
4702,28864
4703,29760
4704,30848
4705,31808
4706,32512
4707,32960
4708,33280
4709,33472
4710,33600
4711,33728
4712,33792
4713,33856
4714,33920
4715,33920
4716,33984
4717,34048
4718,34048
4719,34048
4720,34048
4721,33984
4722,33984
4723,33984
4724,33984
4725,34048
4726,34112
4727,34240
4728,34304
4729,34368
4730,34496
4731,34496
4732,34560
4733,34624
4734,34752
4735,34880
4736,34944
4737,35008
4738,35136
4739,35136
4740,35136
4741,35136
4742,35200
4743,35136
4744,35072
4745,34944
4746,34816
4747,34688
4748,34560
4749,34432
4750,34304
4751,34112
4752,33920
4753,33728
4754,33536
4755,33280
4756,33088
4757,32896
4758,32704
4759,32576
4760,32512
4761,32384
4762,32320
4763,32256
4764,32256
4765,32256
4766,32320
4767,32448
4768,32512
4769,32576
4770,32640
4771,32704
4772,32768
4773,32832
4774,32896
4775,32960
4776,32960
4777,33024
4778,33088
4779,33216
4780,33280
4781,33344
4782,33408
4783,33472
4784,33536
4785,33536
4786,33536
4787,33600
4788,33600
4789,33664
4790,33664
4791,33664
4792,33664
4793,33664
4794,33664
4795,33664
4796,33664
4797,33728
4798,33728
4799,33856
4800,34048
4801,34176
4802,34304
4803,34368
4804,34432
4805,34432
4806,34432
4807,34304
4808,34240
4809,34240
4810,34304
4811,34304
4812,34240
4813,34176
4814,34048
4815,33920
4816,33856
4817,33728
4818,33664
4819,33536
4820,33536
4821,33408
4822,33152
4823,32960
4824,32832
4825,32768
4826,32768
4827,32768
4828,32832
4829,32832
4830,32896
4831,32960
4832,33024
4833,33024
4834,33152
4835,33216
4836,33344
4837,33344
4838,33408
4839,33408
4840,33472
4841,33472
4842,33472
4843,33472
4844,33472
4845,33536
4846,33536
4847,33472
4848,33280
4849,32768
4850,32128
4851,31744
4852,32064
4853,33152
4854,35072
4855,37760
4856,40704
4857,42752
4858,43328
4859,42304
4860,40320
4861,38144
4862,35776
4863,33472
4864,31552
4865,30080
4866,29056
4867,28736
4868,29056
4869,29888
4870,30912
4871,31808
4872,32512
4873,32960
4874,33216
4875,33408
4876,33536
4877,33728
4878,33664
4879,33792
4880,33792
4881,33856
4882,33856
4883,33856
4884,33856
4885,33856
4886,33856
4887,33920
4888,33984
4889,34048
4890,34112
4891,34112
4892,34176
4893,34304
4894,34368
4895,34432
4896,34432
4897,34496
4898,34496
4899,34560
4900,34624
4901,34688
4902,34752
4903,34880
4904,34944
4905,35008
4906,35072
4907,35008
4908,35008
4909,34944
4910,34880
4911,34816
4912,34688
4913,34624
4914,34432
4915,34304
4916,34112
4917,33920
4918,33792
4919,33600
4920,33344
4921,33152
4922,32960
4923,32832
4924,32704
4925,32576
4926,32448
4927,32384
4928,32320
4929,32256
4930,32256
4931,32256
4932,32384
4933,32448
4934,32512
4935,32576
4936,32640
4937,32768
4938,32832
4939,32896
4940,32896
4941,32960
4942,33024
4943,33024
4944,33024
4945,33024
4946,33088
4947,33216
4948,33216
4949,33344
4950,33408
4951,33408
4952,33472
4953,33472
4954,33536
4955,33536
4956,33536
4957,33600
4958,33536
4959,33600
4960,33664
4961,33664
4962,33664
4963,33664
4964,33728
4965,33792
4966,33920
4967,34048
4968,34112
4969,34176
4970,34240
4971,34240
4972,34176
4973,34112
4974,34048
4975,34048
4976,34112
4977,34112
4978,34112
4979,34112
4980,33984
4981,33920
4982,33792
4983,33664
4984,33536
4985,33408
4986,33280
4987,33152
4988,33088
4989,32960
4990,32832
4991,32768
4992,32768
4993,32704
4994,32768
4995,32832
4996,32832
4997,32896
4998,32960
4999,32960
5000,33024
5001,33088
5002,33152
5003,33216
5004,33280
5005,33280
5006,33344
5007,33344
5008,33408
5009,33472
5010,33472
5011,33472
5012,33472
5013,33408
5014,33280
5015,32960
5016,32384
5017,31808
5018,31936
5019,32640
5020,34176
5021,36544
5022,40320
5023,42112
5024,43328
5025,42944
5026,41216
5027,38976
5028,36544
5029,34112
5030,31936
5031,30208
5032,29056
5033,28608
5034,28800
5035,29568
5036,30656
5037,31616
5038,32320
5039,32768
5040,33152
5041,33408
5042,33536
5043,33600
5044,33600
5045,33536
5046,33600
5047,33664
5048,33664
5049,33728
5050,33792
5051,33856
5052,33856
5053,33920
5054,33920
5055,33984
5056,33984
5057,34048
5058,34048
5059,34112
5060,34112
5061,34240
5062,34304
5063,34432
5064,34496
5065,34560
5066,34624
5067,34688
5068,34752
5069,34816
5070,34880
5071,34944
5072,35072
5073,35072
5074,35072
5075,35008
5076,34944
5077,34880
5078,34752
5079,34688
5080,34624
5081,34432
5082,34304
5083,34048
5084,33792
5085,33600
5086,33344
5087,33088
5088,32960
5089,32768
5090,32576
5091,32384
5092,32256
5093,32192
5094,32128
5095,32064
5096,32064
5097,32128
5098,32128
5099,32192
5100,32192
5101,32256
5102,32320
5103,32448
5104,32576
5105,32704
5106,32768
5107,32832
5108,32832
5109,32896
5110,32960
5111,32960
5112,33088
5113,33088
5114,33152
5115,33152
5116,33216
5117,33280
5118,33344
5119,33344
5120,33280
5121,33344
5122,33344
5123,33280
5124,33280
5125,33344
5126,33344
5127,33408
5128,33408
5129,33408
5130,33472
5131,33536
5132,33600
5133,33664
5134,33728
5135,33792
5136,33920
5137,33984
5138,34112
5139,34176
5140,34112
5141,34048
5142,33984
5143,33856
5144,33792
5145,33792
5146,33792
5147,33856
5148,33792
5149,33792
5150,33664
5151,33600
5152,33536
5153,33408
5154,33280
5155,33152
5156,33088
5157,32960
5158,32832
5159,32704
5160,32640
5161,32576
5162,32576
5163,32576
5164,32576
5165,32640
5166,32704
5167,32768
5168,32768
5169,32832
5170,32960
5171,32960
5172,32960
5173,32960
5174,33024
5175,33024
5176,33088
5177,33088
5178,33088
5179,33152
5180,33152
5181,33216
5182,33216
5183,33152
5184,32896
5185,32384
5186,31872
5187,31872
5188,32640
5189,34176
5190,36416
5191,39488
5192,42048
5193,43328
5194,42944
5195,41216
5196,38848
5197,36352
5198,33792
5199,31552
5200,29824
5201,28672
5202,28288
5203,28608
5204,29568
5205,30656
5206,31616
5207,32320
5208,32768
5209,33024
5210,33216
5211,33344
5212,33408
5213,33472
5214,33472
5215,33536
5216,33664
5217,33728
5218,33728
5219,33792
5220,33792
5221,33856
5222,33856
5223,33856
5224,33920
5225,33984
5226,34048
5227,34112
5228,34176
5229,34176
5230,34240
5231,34304
5232,34304
5233,34368
5234,34432
5235,34496
5236,34624
5237,34688
5238,34752
5239,34816
5240,34816
5241,34880
5242,34944
5243,35008
5244,35008
5245,35008
5246,34944
5247,34816
5248,34688
5249,34560
5250,34432
5251,34240
5252,33984
5253,33728
5254,33536
5255,33280
5256,33024
5257,32832
5258,32640
5259,32448
5260,32256
5261,32192
5262,32064
5263,32000
5264,31936
5265,31936
5266,31872
5267,31872
5268,31936
5269,32000
5270,32064
5271,32128
5272,32192
5273,32320
5274,32384
5275,32512
5276,32576
5277,32704
5278,32768
5279,32832
5280,32896
5281,32960
5282,33024
5283,33024
5284,33152
5285,33216
5286,33216
5287,33216
5288,33216
5289,33280
5290,33216
5291,33152
5292,33088
5293,33152
5294,33216
5295,33280
5296,33344
5297,33408
5298,33344
5299,33344
5300,33344
5301,33344
5302,33344
5303,33344
5304,33344
5305,33344
5306,33344
5307,33408
5308,33536
5309,33664
5310,33792
5311,33920
5312,33984
5313,33984
5314,33920
5315,33856
5316,33792
5317,33856
5318,33920
5319,33920
5320,33920
5321,33920
5322,33856
5323,33728
5324,33664
5325,33600
5326,33472
5327,33344
5328,33152
5329,33088
5330,32896
5331,32704
5332,32512
5333,32448
5334,32384
5335,32384
5336,32384
5337,32448
5338,32448
5339,32512
5340,32512
5341,32576
5342,32704
5343,32768
5344,32832
5345,32896
5346,32960
5347,33024
5348,33024
5349,32960
5350,32960
5351,33024
5352,33216
5353,33280
5354,33344
5355,33280
5356,33152
5357,32704
5358,32256
5359,31616
5360,31488
5361,32128
5362,33536
5363,35776
5364,38848
5365,41600
5366,43008
5367,42816
5368,41152
5369,38720
5370,36160
5371,33536
5372,30656
5373,29440
5374,28288
5375,27904
5376,28288
5377,29568
5378,30784
5379,31296
5380,32000
5381,32448
5382,32704
5383,32896
5384,33024
5385,33088
5386,33088
5387,33152
5388,33216
5389,33280
5390,33280
5391,33280
5392,33344
5393,33344
5394,33408
5395,33408
5396,33472
5397,33536
5398,33536
5399,33600
5400,33664
5401,33664
5402,33728
5403,33728
5404,33792
5405,33920
5406,33984
5407,34112
5408,34176
5409,34240
5410,34368
5411,34432
5412,34432
5413,34496
5414,34496
5415,34560
5416,34560
5417,34560
5418,34432
5419,34368
5420,34304
5421,34240
5422,34112
5423,33984
5424,33856
5425,33664
5426,33408
5427,33152
5428,32960
5429,32704
5430,32448
5431,32192
5432,32000
5433,31808
5434,31680
5435,31552
5436,31488
5437,31424
5438,31360
5439,31360
5440,31360
5441,31424
5442,31552
5443,31552
5444,31616
5445,31680
5446,31808
5447,31936
5448,32000
5449,32064
5450,32192
5451,32256
5452,32320
5453,32384
5454,32448
5455,32448
5456,32512
5457,32576
5458,32512
5459,32576
5460,32576
5461,32576
5462,32576
5463,32576
5464,32640
5465,32640
5466,32704
5467,32704
5468,32640
5469,32704
5470,32640
5471,32640
5472,32640
5473,32576
5474,32512
5475,32512
5476,32576
5477,32640
5478,32640
5479,32640
5480,32704
5481,32704
5482,32768
5483,32768
5484,32896
5485,32960
5486,33024
5487,33088
5488,33216
5489,33280
5490,33344
5491,33344
5492,33280
5493,33216
5494,33152
5495,33152
5496,33216
5497,33216
5498,33216
5499,33152
5500,33088
5501,33024
5502,32896
5503,32832
5504,32704
5505,32576
5506,32576
5507,32512
5508,32448
5509,32256
5510,32064
5511,32000
5512,32000
5513,31936
5514,32000
5515,31936
5516,32000
5517,32064
5518,32128
5519,32192
5520,32192
5521,32256
5522,32256
5523,32384
5524,32448
5525,32512
5526,32512
5527,32512
5528,32512
5529,32576
5530,32576
5531,32640
5532,32704
5533,32640
5534,32576
5535,32320
5536,31744
5537,31232
5538,31168
5539,31936
5540,33472
5541,35840
5542,39424
5543,41536
5544,42816
5545,42496
5546,40640
5547,37888
5548,35456
5549,32960
5550,30720
5551,28992
5552,27776
5553,27584
5554,28160
5555,29248
5556,30336
5557,31232
5558,31808
5559,32256
5560,32512
5561,32768
5562,32960
5563,33024
5564,33024
5565,33088
5566,33152
5567,33152
5568,33152
5569,33152
5570,33216
5571,33216
5572,33280
5573,33344
5574,33344
5575,33408
5576,33472
5577,33472
5578,33600
5579,33664
5580,33664
5581,33664
5582,33728
5583,33728
5584,33856
5585,33984
5586,34112
5587,34240
5588,34240
5589,34304
5590,34368
5591,34432
5592,34496
5593,34560
5594,34624
5595,34688
5596,34624
5597,34560
5598,34432
5599,34368
5600,34240
5601,34112
5602,33984
5603,33728
5604,33536
5605,33344
5606,33024
5607,32768
5608,32576
5609,32384
5610,32192
5611,32064
5612,31936
5613,31872
5614,31808
5615,31680
5616,31616
5617,31552
5618,31552
5619,31552
5620,31616
5621,31744
5622,31808
5623,31872
5624,31936
5625,32000
5626,32064
5627,32192
5628,32320
5629,32384
5630,32512
5631,32576
5632,32640
5633,32640
5634,32704
5635,32768
5636,32832
5637,32960
5638,32960
5639,32960
5640,32960
5641,33024
5642,33088
5643,33088
5644,33088
5645,33088
5646,33088
5647,33088
5648,33088
5649,33088
5650,33088
5651,33088
5652,33024
5653,32960
5654,33024
5655,33024
5656,33024
5657,33024
5658,33024
5659,33024
5660,33024
5661,33024
5662,33088
5663,33088
5664,33088
5665,33216
5666,33280
5667,33408
5668,33472
5669,33664
5670,33792
5671,33920
5672,34048
5673,34048
5674,33920
5675,33856
5676,33792
5677,33728
5678,33792
5679,33856
5680,33920
5681,33856
5682,33856
5683,33728
5684,33600
5685,33472
5686,33408
5687,33280
5688,33152
5689,33088
5690,33024
5691,32832
5692,32704
5693,32640
5694,32640
5695,32640
5696,32640
5697,32640
5698,32640
5699,32704
5700,32768
5701,32832
5702,32896
5703,32960
5704,33088
5705,33088
5706,33088
5707,33088
5708,33088
5709,33088
5710,33152
5711,33280
5712,33344
5713,33344
5714,33344
5715,33344
5716,33280
5717,33088
5718,32768
5719,32192
5720,31808
5721,32064
5722,33216
5723,35072
5724,37440
5725,40448
5726,42496
5727,42944
5728,42112
5729,40128
5730,37760
5731,35328
5732,32960
5733,30976
5734,29440
5735,28544
5736,28416
5737,29056
5738,30144
5739,31104
5740,31936
5741,32576
5742,33152
5743,33280
5744,33472
5745,33664
5746,33728
5747,33792
5748,33728
5749,33728
5750,33728
5751,33728
5752,33728
5753,33792
5754,33856
5755,33920
5756,33984
5757,33984
5758,33984
5759,33984
5760,34048
5761,34048
5762,34112
5763,34176
5764,34240
5765,34304
5766,34368
5767,34432
5768,34432
5769,34496
5770,34624
5771,34752
5772,34944
5773,35008
5774,35008
5775,35072
5776,35072
5777,35072
5778,35008
5779,34944
5780,34880
5781,34752
5782,34624
5783,34496
5784,34304
5785,34112
5786,33920
5787,33728
5788,33536
5789,33344
5790,33216
5791,33024
5792,32896
5793,32768
5794,32640
5795,32576
5796,32512
5797,32448
5798,32448
5799,32384
5800,32384
5801,32384
5802,32384
5803,32384
5804,32448
5805,32448
5806,32512
5807,32640
5808,32704
5809,32768
5810,32896
5811,32960
5812,33088
5813,33088
5814,33088
5815,33088
5816,33152
5817,33216
5818,33280
5819,33280
5820,33280
5821,33344
5822,33344
5823,33408
5824,33408
5825,33472
5826,33472
5827,33472
5828,33536
5829,33536
5830,33536
5831,33536
5832,33536
5833,33472
5834,33408
5835,33408
5836,33536
5837,33600
5838,33664
5839,33664
5840,33600
5841,33536
5842,33472
5843,33472
5844,33408
5845,33536
5846,33536
5847,33536
5848,33664
5849,33728
5850,33856
5851,33984
5852,34048
5853,34048
5854,34304
5855,34304
5856,34240
5857,34240
5858,34240
5859,34240
5860,34240
5861,34240
5862,34176
5863,34176
5864,34112
5865,33920
5866,33856
5867,33792
5868,33664
5869,33600
5870,33472
5871,33472
5872,33408
5873,33280
5874,33152
5875,33088
5876,33024
5877,32960
5878,32960
5879,33024
5880,33024
5881,33088
5882,33088
5883,33088
5884,33152
5885,33152
5886,33216
5887,33280
5888,33344
5889,33344
5890,33408
5891,33472
5892,33408
5893,33472
5894,33536
5895,33536
5896,33472
5897,33408
5898,33408
5899,33344
5900,32960
5901,32320
5902,31936
5903,32192
5904,33216
5905,34944
5906,37760
5907,37824
5908,42816
5909,43520
5910,42624
5911,40640
5912,38272
5913,35712
5914,33344
5915,31296
5916,29824
5917,28928
5918,28672
5919,29184
5920,30144
5921,31168
5922,32064
5923,32640
5924,33088
5925,33408
5926,33600
5927,33664
5928,33728
5929,33792
5930,33792
5931,33792
5932,33856
5933,33856
5934,33920
5935,33920
5936,33984
5937,34112
5938,34048
5939,34240
5940,34304
5941,34368
5942,34368
5943,34368
5944,34368
5945,34432
5946,34496
5947,34560
5948,34688
5949,34752
5950,34752
5951,34816
5952,34816
5953,34944
5954,35008
5955,35072
5956,35072
5957,35072
5958,35072
5959,35072
5960,35072
5961,35008
5962,34944
5963,34816
5964,34752
5965,34624
5966,34560
5967,34496
5968,34240
5969,33984
5970,33792
5971,33536
5972,33344
5973,33216
5974,33024
5975,32832
5976,32704
5977,32576
5978,32512
5979,32384
5980,32320
5981,32256
5982,32192
5983,32128
5984,32064
5985,32128
5986,32320
5987,32448
5988,32576
5989,32640
5990,32704
5991,32768
5992,32832
5993,32896
5994,32960
5995,33024
5996,33152
5997,33280
5998,33280
5999,33344
6000,33408
6001,33472
6002,33536
6003,33600
6004,33664
6005,33664
6006,33664
6007,33664
6008,33600
6009,33536
6010,33536
6011,33600
6012,33600
6013,33600
6014,33600
6015,33600
6016,33600
6017,33536
6018,33536
6019,33536
6020,33536
6021,33600
6022,33600
6023,33664
6024,33664
6025,33600
6026,33600
6027,33600
6028,33600
6029,33664
6030,33664
6031,33664
6032,33664
6033,33664
6034,33664
6035,33728
6036,33728
6037,33856
6038,33984
6039,34176
6040,34304
6041,34368
6042,34368
6043,34368
6044,34368
6045,34240
6046,34176
6047,34176
6048,34240
6049,34304
6050,34304
6051,34304
6052,34240
6053,34112
6054,33984
6055,33856
6056,33728
6057,33600
6058,33536
6059,33472
6060,33408
6061,33216
6062,33088
6063,32960
6064,32960
6065,32960
6066,33024
6067,33088
6068,33152
6069,33152
6070,33088
6071,33088
6072,33088
6073,33088
6074,33152
6075,33152
6076,33280
6077,33344
6078,33344
6079,33408
6080,33472
6081,33472
6082,33472
6083,33536
6084,33536
6085,33536
6086,33536
6087,33344
6088,32832
6089,32256
6090,32000
6091,32448
6092,33728
6093,35776
6094,38656
6095,41472
6096,43072
6097,43136
6098,41600
6099,39552
6100,37184
6101,34752
6102,32512
6103,30656
6104,29312
6105,28672
6106,28736
6107,29440
6108,30528
6109,31488
6110,32192
6111,32768
6112,33152
6113,33344
6114,33536
6115,33728
6116,33792
6117,33856
6118,33856
6119,33856
6120,33856
6121,33920
6122,33984
6123,33984
6124,33984
6125,33984
6126,33984
6127,34048
6128,34048
6129,34048
6130,34112
6131,34112
6132,34176
6133,34240
6134,34304
6135,34368
6136,34432
6137,34560
6138,34624
6139,34752
6140,34752
6141,34816
6142,34816
6143,34880
6144,34944
6145,35008
6146,35072
6147,35008
6148,35008
6149,34944
6150,34944
6151,34880
6152,34752
6153,34560
6154,34432
6155,34240
6156,34048
6157,33856
6158,33664
6159,33408
6160,33152
6161,32960
6162,32768
6163,32576
6164,32448
6165,32384
6166,32320
6167,32256
6168,32192
6169,32192
6170,32256
6171,32256
6172,32256
6173,32320
6174,32384
6175,32384
6176,32448
6177,32576
6178,32640
6179,32704
6180,32768
6181,32768
6182,32896
6183,33024
6184,33088
6185,33088
6186,33152
6187,33216
6188,33280
6189,33280
6190,33344
6191,33344
6192,33408
6193,33408
6194,33472
6195,33472
6196,33472
6197,33536
6198,33536
6199,33536
6200,33536
6201,33536
6202,33536
6203,33472
6204,33472
6205,33344
6206,33280
6207,33280
6208,33280
6209,33280
6210,33280
6211,33280
6212,33408
6213,33472
6214,33472
6215,33472
6216,33472
6217,33472
6218,33408
6219,33408
6220,33408
6221,33472
6222,33472
6223,33536
6224,33600
6225,33664
6226,33792
6227,33856
6228,33984
6229,34048
6230,34112
6231,34112
6232,34112
6233,34048
6234,33984
6235,34048
6236,34048
6237,34048
6238,33984
6239,33984
6240,33920
6241,33792
6242,33728
6243,33600
6244,33472
6245,33408
6246,33344
6247,33344
6248,33280
6249,33152
6250,32960
6251,32832
6252,32768
6253,32768
6254,32832
6255,32832
6256,32832
6257,32896
6258,32896
6259,32960
6260,33024
6261,33088
6262,33088
6263,33088
6264,33088
6265,33152
6266,33152
6267,33216
6268,33280
6269,33280
6270,33344
6271,33408
6272,33408
6273,33408
6274,33344
6275,33024
6276,32448
6277,31872
6278,31872
6279,32640
6280,34176
6281,36416
6282,39424
6283,42048
6284,43328
6285,42944
6286,41216
6287,38848
6288,36288
6289,33792
6290,31552
6291,29888
6292,28736
6293,28352
6294,28672
6295,29568
6296,30656
6297,31616
6298,32320
6299,32832
6300,33152
6301,33344
6302,33536
6303,33664
6304,33728
6305,33792
6306,33792
6307,33856
6308,33856
6309,33856
6310,33792
6311,33856
6312,33856
6313,33984
6314,33984
6315,33984
6316,33984
6317,34048
6318,34112
6319,34176
6320,34240
6321,34304
6322,34368
6323,34368
6324,34432
6325,34496
6326,34560
6327,34688
6328,34752
6329,34880
6330,34944
6331,35008
6332,35072
6333,35072
6334,35072
6335,35072
6336,35008
6337,34944
6338,34880
6339,34752
6340,34624
6341,34560
6342,34368
6343,34240
6344,33984
6345,33792
6346,33600
6347,33280
6348,33024
6349,32832
6350,32576
6351,32448
6352,32320
6353,32192
6354,32064
6355,32000
6356,32000
6357,32000
6358,32000
6359,32064
6360,32128
6361,32192
6362,32320
6363,32448
6364,32512
6365,32576
6366,32704
6367,32768
6368,32832
6369,32832
6370,32960
6371,33088
6372,33152
6373,33216
6374,33280
6375,33280
6376,33344
6377,33344
6378,33344
6379,33344
6380,33344
6381,33408
6382,33408
6383,33408
6384,33408
6385,33408
6386,33408
6387,33408
6388,33408
6389,33408
6390,33472
6391,33536
6392,33600
6393,33600
6394,33600
6395,33600
6396,33472
6397,33408
6398,33344
6399,33344
6400,33472
6401,33536
6402,33536
6403,33600
6404,33536
6405,33536
6406,33536
6407,33536
6408,33600
6409,33600
6410,33600
6411,33600
6412,33536
6413,33536
6414,33600
6415,33728
6416,33856
6417,33984
6418,34048
6419,34112
6420,34176
6421,34176
6422,34112
6423,34048
6424,34048
6425,34112
6426,34112
6427,34112
6428,34112
6429,34048
6430,33920
6431,33792
6432,33728
6433,33600
6434,33472
6435,33344
6436,33216
6437,33088
6438,32960
6439,32896
6440,32768
6441,32704
6442,32704
6443,32768
6444,32832
6445,32832
6446,32832
6447,32896
6448,32896
6449,33024
6450,33024
6451,33024
6452,33024
6453,33024
6454,33152
6455,33280
6456,33344
6457,33344
6458,33088
6459,32704
6460,32128
6461,31744
6462,32064
6463,33152
6464,34944
6465,37568
6466,40640
6467,42816
6468,43456
6469,42432
6470,40384
6471,38016
6472,35456
6473,32448
6474,30720
6475,29248
6476,28416
6477,28352
6478,28992
6479,30080
6480,31232
6481,32128
6482,32768
6483,33152
6484,33344
6485,33536
6486,33728
6487,33792
6488,33920
6489,33984
6490,34048
6491,34112
6492,34112
6493,34112
6494,34112
6495,34112
6496,34176
6497,34240
6498,34304
6499,34304
6500,34240
6501,34240
6502,34240
6503,34304
6504,34304
6505,34368
6506,34432
6507,34496
6508,34496
6509,34624
6510,34752
6511,34816
6512,34880
6513,35008
6514,35072
6515,35200
6516,35264
6517,35264
6518,35264
6519,35264
6520,35264
6521,35264
6522,35200
6523,35200
6524,35072
6525,34880
6526,34560
6527,34368
6528,34112
6529,33792
6530,33472
6531,33152
6532,32896
6533,32640
6534,32512
6535,32320
6536,32256
6537,32128
6538,32064
6539,32000
6540,32000
6541,32000
6542,32064
6543,32128
6544,32192
6545,32320
6546,32384
6547,32512
6548,32576
6549,32704
6550,32768
6551,32832
6552,32896
6553,33024
6554,33088
6555,33152
6556,33216
6557,33280
6558,33408
6559,33408
6560,33408
6561,33344
6562,33280
6563,33216
6564,33280
6565,33344
6566,33408
6567,33472
6568,33536
6569,33600
6570,33664
6571,33664
6572,33664
6573,33728
6574,33728
6575,33664
6576,33664
6577,33664
6578,33664
6579,33600
6580,33600
6581,33600
6582,33664
6583,33728
6584,33664
6585,33600
6586,33600
6587,33536
6588,33536
6589,33536
6590,33536
6591,33600
6592,33600
6593,33600
6594,33536
6595,33600
6596,33536
6597,33536
6598,33600
6599,33664
6600,33664
6601,33664
6602,33664
6603,33664
6604,33728
6605,33792
6606,33792
6607,33792
6608,33792
6609,33920
6610,33984
6611,34048
6612,34112
6613,34176
6614,34240
6615,34304
6616,34240
6617,34240
6618,34176
6619,34240
6620,34368
6621,34432
6622,34432
6623,34368
6624,34304
6625,34112
6626,33984
6627,33856
6628,33792
6629,33664
6630,33664
6631,33600
6632,33536
6633,33344
6634,33088
6635,32896
6636,32768
6637,32768
6638,32768
6639,32768
6640,32768
6641,32832
6642,32960
6643,33088
6644,33216
6645,33280
6646,33344
6647,33344
6648,33344
6649,33344
6650,33408
6651,33344
6652,32960
6653,32384
6654,31872
6655,31936
6656,32832
6657,34496
6658,36928
6659,40000
6660,42432
6661,43392
6662,42624
6663,40576
6664,38080
6665,35584
6666,33216
6667,31104
6668,29568
6669,28608
6670,28352
6671,28864
6672,29888
6673,30976
6674,31936
6675,32576
6676,33088
6677,33408
6678,33664
6679,33792
6680,33856
6681,33920
6682,33984
6683,33984
6684,34048
6685,34048
6686,34112
6687,34112
6688,34112
6689,34112
6690,34112
6691,34112
6692,34176
6693,34176
6694,34240
6695,34240
6696,34304
6697,34368
6698,34432
6699,34496
6700,34560
6701,34688
6702,34752
6703,34880
6704,34944
6705,35072
6706,35136
6707,35200
6708,35200
6709,35200
6710,35200
6711,35136
6712,35072
6713,35072
6714,35072
6715,35072
6716,35008
6717,34880
6718,34752
6719,34624
6720,34496
6721,34304
6722,34048
6723,33792
6724,33472
6725,33280
6726,33024
6727,32768
6728,32576
6729,32448
6730,32320
6731,32192
6732,32128
6733,32128
6734,32192
6735,32128
6736,32192
6737,32192
6738,32256
6739,32320
6740,32384
6741,32512
6742,32576
6743,32640
6744,32704
6745,32832
6746,32896
6747,33024
6748,33088
6749,33216
6750,33216
6751,33216
6752,33216
6753,33344
6754,33408
6755,33408
6756,33408
6757,33408
6758,33408
6759,33408
6760,33408
6761,33408
6762,33408
6763,33408
6764,33472
6765,33536
6766,33536
6767,33536
6768,33536
6769,33536
6770,33536
6771,33600
6772,33600
6773,33664
6774,33664
6775,33600
6776,33536
6777,33472
6778,33408
6779,33408
6780,33408
6781,33408
6782,33344
6783,33280
6784,33280
6785,33344
6786,33408
6787,33408
6788,33472
6789,33472
6790,33472
6791,33472
6792,33472
6793,33472
6794,33472
6795,33536
6796,33600
6797,33600
6798,33600
6799,33664
6800,33728
6801,33792
6802,33856
6803,33984
6804,34048
6805,34112
6806,34176
6807,34176
6808,34112
6809,34048
6810,34048
6811,33984
6812,34048
6813,34048
6814,34048
6815,34112
6816,34112
6817,34048
6818,33920
6819,33856
6820,33856
6821,33728
6822,33536
6823,33344
6824,33152
6825,32960
6826,32832
6827,32768
6828,32768
6829,32704
6830,32640
6831,32704
6832,32768
6833,32832
6834,32896
6835,32960
6836,33024
6837,33024
6838,33088
6839,33088
6840,33152
6841,33152
6842,33152
6843,33152
6844,32960
6845,32576
6846,31936
6847,31552
6848,32320
6849,33152
6850,35072
6851,37888
6852,40832
6853,42816
6854,43136
6855,41728
6856,39360
6857,36992
6858,33984
6859,32256
6860,30336
6861,28864
6862,28096
6863,28096
6864,28864
6865,30016
6866,31168
6867,32000
6868,32640
6869,33088
6870,33280
6871,33408
6872,33600
6873,33728
6874,33856
6875,33984
6876,34112
6877,34176
6878,34112
6879,33984
6880,33920
6881,33856
6882,33856
6883,33856
6884,33856
6885,33920
6886,33984
6887,33920
6888,33920
6889,33920
6890,33984
6891,34112
6892,34240
6893,34432
6894,34560
6895,34752
6896,34880
6897,34944
6898,35072
6899,35136
6900,35200
6901,35264
6902,35264
6903,35264
6904,35200
6905,35200
6906,35200
6907,35200
6908,35136
6909,35072
6910,35072
6911,34880
6912,34560
6913,34304
6914,34112
6915,33920
6916,33536
6917,33152
6918,32768
6919,32512
6920,32320
6921,32192
6922,32064
6923,32000
6924,31872
6925,31808
6926,31808
6927,31808
6928,31872
6929,31936
6930,32000
6931,32064
6932,32128
6933,32192
6934,32320
6935,32384
6936,32576
6937,32704
6938,32896
6939,32960
6940,32960
6941,33024
6942,33088
6943,33088
6944,33024
6945,33024
6946,33152
6947,33216
6948,33216
6949,33216
6950,33216
6951,33216
6952,33216
6953,33280
6954,33280
6955,33280
6956,33280
6957,33344
6958,33408
6959,33408
6960,33472
6961,33408
6962,33408
6963,33408
6964,33408
6965,33472
6966,33408
6967,33344
6968,33344
6969,33344
6970,33344
6971,33408
6972,33472
6973,33472
6974,33536
6975,33600
6976,33600
6977,33600
6978,33600
6979,33536
6980,33408
6981,33408
6982,33408
6983,33472
6984,33472
6985,33536
6986,33600
6987,33728
6988,33856
6989,33984
6990,34048
6991,34176
6992,34240
6993,34240
6994,34304
6995,34240
6996,34112
6997,34048
6998,34112
6999,34112
7000,34112
7001,34112
7002,34048
7003,33920
7004,33856
7005,33728
7006,33600
7007,33472
7008,33408
7009,33344
7010,33280
7011,33152
7012,33024
7013,32896
7014,32832
7015,32832
7016,32832
7017,32896
7018,32896
7019,32896
7020,32896
7021,32960
7022,33024
7023,33088
7024,33152
7025,33216
7026,33216
7027,33216
7028,33216
7029,33216
7030,32896
7031,32320
7032,31616
7033,31360
7034,31872
7035,33216
7036,35392
7037,38528
7038,41472
7039,43136
7040,43136
7041,41472
7042,39104
7043,36736
7044,34368
7045,32128
7046,30144
7047,28672
7048,27968
7049,28096
7050,28928
7051,30144
7052,31360
7053,32320
7054,32832
7055,33216
7056,33472
7057,33664
7058,33792
7059,33856
7060,33920
7061,33984
7062,33984
7063,34048
7064,34048
7065,34048
7066,34048
7067,34048
7068,34048
7069,34112
7070,34112
7071,34176
7072,34176
7073,34240
7074,34304
7075,34368
7076,34432
7077,34496
7078,34560
7079,34560
7080,34560
7081,34624
7082,34688
7083,34752
7084,34880
7085,35008
7086,35136
7087,35200
7088,35264
7089,35328
7090,35328
7091,35328
7092,35328
7093,35264
7094,35136
7095,34944
7096,34688
7097,34432
7098,34240
7099,34112
7100,33920
7101,33728
7102,33536
7103,33280
7104,33152
7105,32960
7106,32768
7107,32512
7108,32256
7109,32064
7110,32064
7111,32128
7112,32064
7113,31936
7114,31936
7115,32000
7116,32128
7117,32192
7118,32256
7119,32320
7120,32448
7121,32512
7122,32640
7123,32768
7124,32896
7125,32960
7126,33024
7127,33152
7128,33216
7129,33152
7130,33152
7131,33152
7132,33152
7133,33216
7134,33280
7135,33280
7136,33280
7137,33344
7138,33344
7139,33344
7140,33408
7141,33472
7142,33536
7143,33600
7144,33536
7145,33536
7146,33536
7147,33536
7148,33536
7149,33536
7150,33472
7151,33408
7152,33344
7153,33408
7154,33472
7155,33536
7156,33664
7157,33728
7158,33792
7159,33920
7160,33984
7161,34048
7162,34048
7163,34112
7164,34048
7165,33984
7166,33856
7167,33792
7168,33792
7169,33920
7170,33984
7171,34112
7172,34112
7173,34112
7174,33984
7175,33856
7176,33728
7177,33600
7178,33536
7179,33472
7180,33408
7181,33216
7182,32960
7183,32768
7184,32704
7185,32768
7186,32832
7187,32832
7188,32896
7189,32896
7190,32896
7191,32896
7192,33024
7193,33088
7194,33088
7195,33088
7196,33152
7197,33280
7198,33408
7199,33472
7200,33472
7201,33472
7202,33280
7203,32832
7204,32128
7205,31616
7206,31680
7207,32512
7208,34752
7209,36416
7210,39360
7211,41728
7212,42880
7213,42368
7214,40512
7215,38336
7216,35968
7217,33728
7218,31744
7219,30208
7220,29184
7221,28544
7222,28608
7223,29760
7224,30528
7225,31424
7226,32192
7227,32768
7228,33216
7229,33408
7230,33600
7231,33728
7232,33792
7233,33856
7234,33856
7235,33856
7236,33920
7237,33920
7238,33920
7239,33920
7240,33920
7241,33984
7242,33920
7243,33984
7244,34048
7245,34176
7246,34176
7247,34112
7248,34048
7249,34048
7250,34112
7251,34176
7252,34240
7253,34304
7254,34368
7255,34432
7256,34560
7257,34624
7258,34688
7259,34752
7260,34816
7261,34816
7262,34816
7263,34816
7264,34752
7265,34752
7266,34688
7267,34560
7268,34368
7269,34176
7270,33984
7271,33664
7272,33408
7273,33152
7274,32960
7275,32768
7276,32576
7277,32320
7278,32128
7279,32000
7280,31808
7281,31744
7282,31680
7283,31616
7284,31552
7285,31488
7286,31360
7287,31360
7288,31424
7289,31488
7290,31680
7291,31744
7292,31872
7293,31936
7294,32000
7295,32128
7296,32256
7297,32320
7298,32384
7299,32448
7300,32576
7301,32640
7302,32640
7303,32704
7304,32704
7305,32704
7306,32704
7307,32640
7308,32640
7309,32640
7310,32640
7311,32704
7312,32704
7313,32704
7314,32704
7315,32768
7316,32768
7317,32768
7318,32768
7319,32832
7320,32896
7321,32960
7322,33152
7323,33344
7324,33472
7325,33472
7326,33472
7327,33408
7328,33408
7329,33280
7330,33088
7331,33088
7332,33088
7333,33088
7334,33024
7335,33024
7336,32896
7337,32768
7338,32640
7339,32576
7340,32640
7341,32640
7342,32576
7343,32320
7344,32064
7345,31872
7346,31744
7347,31680
7348,31680
7349,31680
7350,31744
7351,31872
7352,31936
7353,31872
7354,31872
7355,31872
7356,31936
7357,32000
7358,32064
7359,32128
7360,32192
7361,32256
7362,32320
7363,32320
7364,32320
7365,32384
7366,32448
7367,32512
7368,32512
7369,32448
7370,32000
7371,31296
7372,30656
7373,30656
7374,31552
7375,33216
7376,35776
7377,38784
7378,40960
7379,41856
7380,41280
7381,39616
7382,37440
7383,35136
7384,32960
7385,30912
7386,29376
7387,28288
7388,27776
7389,27904
7390,28608
7391,29568
7392,30464
7393,31168
7394,31680
7395,32064
7396,32256
7397,32384
7398,32448
7399,32384
7400,32384
7401,32448
7402,32576
7403,32704
7404,32896
7405,33024
7406,32960
7407,32896
7408,32896
7409,32896
7410,32896
7411,32960
7412,32960
7413,33024
7414,33024
7415,33088
7416,33152
7417,33280
7418,33344
7419,33472
7420,33600
7421,33664
7422,33664
7423,33728
7424,33792
7425,33792
7426,33792
7427,33792
7428,33792
7429,33856
7430,33856
7431,33920
7432,33856
7433,33728
7434,33600
7435,33472
7436,33216
7437,33024
7438,32832
7439,32704
7440,32512
7441,32384
7442,32256
7443,32128
7444,31936
7445,31808
7446,31744
7447,31616
7448,31616
7449,31616
7450,31616
7451,31552
7452,31552
7453,31552
7454,31552
7455,31616
7456,31680
7457,31744
7458,31808
7459,31872
7460,31936
7461,32000
7462,32000
7463,32064
7464,32128
7465,32256
7466,32384
7467,32576
7468,32704
7469,32768
7470,32768
7471,32832
7472,32768
7473,32768
7474,32768
7475,32768
7476,32768
7477,32768
7478,32768
7479,32832
7480,32896
7481,33024
7482,33152
7483,33344
7484,33472
7485,33536
7486,33536
7487,33536
7488,33472
7489,33472
7490,33536
7491,33536
7492,33472
7493,33472
7494,33536
7495,33536
7496,33408
7497,33280
7498,33216
7499,33152
7500,33024
7501,32896
7502,32832
7503,32704
7504,32512
7505,32384
7506,32256
7507,32192
7508,32320
7509,32256
7510,32192
7511,32256
7512,32256
7513,32256
7514,32320
7515,32448
7516,32512
7517,32576
7518,32640
7519,32640
7520,32640
7521,32640
7522,32768
7523,32832
7524,32832
7525,32832
7526,32896
7527,32960
7528,33024
7529,33088
7530,32832
7531,32256
7532,31616
7533,31488
7534,32000
7535,33280
7536,35264
7537,38272
7538,41600
7539,42496
7540,42752
7541,41536
7542,39488
7543,37120
7544,34816
7545,32576
7546,30720
7547,29312
7548,28544
7549,28352
7550,28800
7551,29632
7552,30656
7553,31488
7554,32064
7555,32448
7556,32768
7557,32960
7558,33152
7559,33280
7560,33344
7561,33344
7562,33344
7563,33408
7564,33536
7565,33536
7566,33472
7567,33408
7568,33472
7569,33536
7570,33600
7571,33664
7572,33664
7573,33728
7574,33792
7575,33856
7576,33984
7577,34112
7578,34176
7579,34176
7580,34240
7581,34240
7582,34304
7583,34368
7584,34496
7585,34624
7586,34688
7587,34752
7588,34752
7589,34752
7590,34688
7591,34624
7592,34560
7593,34496
7594,34432
7595,34304
7596,34240
7597,34048
7598,33792
7599,33600
7600,33408
7601,33280
7602,33088
7603,32896
7604,32704
7605,32576
7606,32448
7607,32384
7608,32320
7609,32320
7610,32384
7611,32448
7612,32448
7613,32384
7614,32320
7615,32320
7616,32384
7617,32448
7618,32512
7619,32576
7620,32704
7621,32832
7622,32960
7623,33024
7624,33088
7625,33152
7626,33216
7627,33216
7628,33152
7629,33152
7630,33152
7631,33088
7632,33152
7633,33152
7634,33280
7635,33408
7636,33536
7637,33600
7638,33664
7639,33728
7640,33856
7641,33920
7642,34048
7643,34112
7644,34176
7645,34240
7646,34304
7647,34240
7648,34112
7649,34048
7650,34112
7651,34112
7652,34112
7653,34112
7654,34048
7655,33920
7656,33856
7657,33728
7658,33600
7659,33536
7660,33472
7661,33408
7662,33344
7663,33152
7664,32960
7665,32832
7666,32832
7667,32896
7668,32832
7669,33024
7670,33088
7671,33280
7672,33216
7673,33152
7674,32960
7675,32960
7676,32960
7677,33024
7678,33088
7679,33152
7680,33280
7681,33344
7682,33344
7683,33408
7684,33408
7685,33408
7686,33408
7687,33408
7688,33600
7689,33408
7690,32960
7691,32384
7692,32192
7693,32768
7694,34112
7695,36096
7696,38912
7697,41728
7698,41856
7699,43264
7700,41792
7701,39552
7702,37184
7703,34688
7704,32448
7705,30656
7706,29440
7707,28864
7708,28928
7709,29696
7710,30720
7711,31680
7712,32576
7713,32576
7714,33280
7715,33536
7716,33664
7717,33728
7718,33792
7719,33856
7720,33920
7721,33920
7722,33920
7723,33920
7724,33920
7725,33984
7726,33984
7727,34112
7728,34112
7729,34112
7730,34112
7731,34176
7732,34240
7733,34240
7734,34304
7735,34368
7736,34496
7737,34624
7738,34688
7739,34752
7740,34816
7741,34944
7742,35008
7743,34944
7744,35200
7745,35328
7746,35392
7747,35392
7748,35456
7749,35456
7750,35392
7751,35264
7752,35136
7753,34944
7754,34816
7755,34752
7756,34496
7757,34240
7758,34176
7759,33920
7760,33728
7761,33472
7762,33216
7763,32896
7764,32704
7765,32576
7766,32512
7767,32448
7768,32320
7769,32192
7770,32192
7771,32192
7772,32320
7773,32384
7774,32512
7775,32512
7776,32640
7777,32704
7778,32768
7779,32832
7780,32960
7781,33024
7782,33088
7783,33152
7784,33216
7785,33280
7786,33344
7787,33408
7788,33472
7789,33536
7790,33536
7791,33536
7792,33600
7793,33600
7794,33600
7795,33600
7796,33664
7797,33728
7798,33792
7799,33728
7800,33728
7801,33792
7802,33920
7803,33856
7804,34048
7805,34176
7806,34240
7807,34368
7808,34368
7809,34432
7810,34496
7811,34560
7812,34496
7813,34432
7814,34368
7815,34368
7816,34368
7817,34304
7818,34304
7819,34176
7820,34112
7821,34048
7822,33984
7823,33984
7824,33984
7825,33728
7826,33536
7827,33408
7828,33408
7829,33280
7830,33088
7831,33024
7832,32960
7833,32896
7834,32832
7835,32832
7836,32832
7837,32960
7838,33024
7839,33152
7840,33280
7841,33344
7842,33408
7843,33472
7844,33600
7845,33664
7846,33728
7847,33792
7848,33856
7849,33856
7850,33920
7851,33920
7852,33792
7853,33664
7854,33536
7855,33280
7856,32832
7857,32384
7858,32448
7859,33344
7860,34944
7861,37120
7862,41216
7863,41536
7864,43712
7865,43328
7866,41472
7867,38976
7868,36224
7869,33600
7870,31296
7871,29632
7872,28672
7873,28480
7874,29120
7875,30208
7876,31360
7877,32256
7878,32832
7879,33216
7880,33472
7881,33664
7882,33792
7883,33920
7884,34048
7885,34048
7886,34112
7887,34240
7888,34176
7889,34112
7890,34112
7891,34048
7892,34112
7893,34048
7894,34176
7895,34240
7896,34304
7897,34368
7898,34368
7899,34432
7900,34496
7901,34560
7902,34624
7903,34688
7904,34752
7905,34816
7906,34880
7907,35008
7908,34944
7909,35264
7910,35392
7911,35520
7912,35520
7913,35520
7914,35648
7915,35584
7916,35456
7917,35264
7918,35136
7919,35136
7920,35008
7921,34752
7922,34432
7923,34368
7924,34048
7925,33792
7926,33536
7927,33280
7928,33024
7929,32896
7930,32704
7931,32512
7932,32320
7933,32192
7934,32128
7935,32128
7936,32192
7937,32256
7938,32320
7939,32384
7940,32448
7941,32512
7942,32576
7943,32704
7944,32832
7945,32896
7946,32896
7947,32896
7948,32960
7949,33024
7950,33152
7951,33280
7952,33280
7953,33280
7954,33344
7955,33344
7956,33472
7957,33536
7958,33600
7959,33664
7960,33664
7961,33664
7962,33600
7963,33600
7964,33664
7965,33728
7966,33856
7967,33920
7968,33856
7969,33856
7970,33792
7971,33728
7972,33664
7973,33664
7974,33664
7975,33792
7976,33856
7977,33920
7978,33728
7979,33600
7980,33600
7981,33536
7982,33600
7983,33664
7984,33728
7985,33728
7986,33664
7987,33664
7988,33664
7989,33600
7990,33600
7991,33600
7992,33664
7993,33728
7994,33792
7995,33792
7996,33728
7997,33728
7998,33664
7999,33792
8000,33728
8001,33664
8002,33728
8003,33792
8004,33728
8005,33664
8006,33600
8007,33600
8008,33600
8009,33664
8010,33728
8011,33728
8012,33792
8013,33792
8014,33856
8015,33856
8016,33856
8017,33856
8018,33856
8019,33856
8020,33856
8021,33856
8022,33856
8023,33856
8024,33856
8025,33920
8026,33920
8027,33856
8028,33792
8029,33856
8030,33856
8031,33792
8032,33728
8033,33728
8034,33728
8035,33792
8036,33792
8037,33792
8038,33856
8039,33792
8040,33856
8041,33856
8042,33920
8043,33984
8044,34048
8045,33984
8046,33920
8047,33856
8048,33792
8049,33792
8050,33856
8051,33856
8052,33856
8053,33792
8054,33792
8055,33792
8056,33856
8057,33920
8058,33856
8059,33856
8060,33856
8061,33792
8062,33792
8063,33728
8064,33728
8065,33728
8066,33792
8067,33856
8068,33856
8069,33856
8070,33856
8071,33856
8072,33792
8073,33792
8074,33792
8075,33792
8076,33792
8077,33792
8078,33792
8079,33792
8080,33856
8081,33856
8082,33792
8083,33792
8084,33792
8085,33792
8086,33728
8087,33728
8088,33792
8089,33792
8090,33792
8091,33792
8092,33792
8093,33856
8094,33792
8095,33792
8096,33792
8097,33792
8098,33856
8099,33856
8100,33856
8101,33792
8102,33728
8103,33664
8104,33664
8105,33664
8106,33728
8107,33792
8108,33856
8109,33920
8110,33920
8111,33856
8112,33856
8113,33792
8114,33792
8115,33792
8116,33792
8117,33792
8118,33792
8119,33728
8120,33728
8121,33792
8122,33728
8123,33728
8124,33728
8125,33728
8126,33728
8127,33728
8128,33728
8129,33792
8130,33856
8131,33920
8132,33856
8133,33792
8134,33792
8135,33792
8136,33728
8137,33728
8138,33728
8139,33792
8140,33728
8141,33728
8142,33792
8143,33792
8144,33792
8145,33792
8146,33728
8147,33728
8148,33728
8149,33728
8150,33664
8151,33728
8152,33728
8153,33792
8154,33856
8155,33920
8156,33856
8157,33792
8158,33920
8159,34048
8160,34240
8161,34304
8162,34368
8163,34432
8164,34560
8165,34560
8166,34496
8167,34496
8168,34496
8169,34432
8170,34368
8171,34304
8172,34240
8173,34112
8174,34048
8175,34048
8176,33984
8177,33920
8178,33728
8179,33600
8180,33472
8181,33344
8182,33216
8183,33088
8184,32960
8185,32960
8186,32960
8187,32960
8188,33024
8189,33024
8190,33088
8191,33152
8192,33152
8193,33088
8194,33088
8195,33088
8196,32896
8197,32512
8198,31936
8199,31552
8200,31872
8201,33088
8202,35008
8203,37760
8204,40896
8205,43136
8206,43904
8207,42944
8208,40256
8209,37952
8210,35136
8211,32384
8212,30208
8213,28736
8214,28032
8215,28224
8216,29056
8217,30080
8218,31104
8219,31872
8220,32384
8221,32704
8222,33024
8223,33152
8224,33280
8225,33408
8226,33472
8227,33600
8228,33664
8229,33664
8230,33664
8231,33664
8232,33728
8233,33856
8234,33920
8235,33984
8236,33984
8237,33920
8238,33920
8239,33856
8240,33920
8241,34048
8242,34176
8243,34304
8244,34368
8245,34432
8246,34496
8247,34560
8248,34624
8249,34688
8250,34688
8251,34752
8252,34688
8253,34688
8254,34752
8255,34816
8256,34816
8257,34880
8258,34944
8259,35008
8260,34944
8261,34944
8262,34880
8263,34816
8264,34752
8265,34688
8266,34560
8267,34368
8268,34240
8269,34176
8270,34048
8271,33792
8272,33600
8273,33408
8274,33216
8275,33024
8276,32832
8277,32704
8278,32576
8279,32448
8280,32448
8281,32448
8282,32448
8283,32384
8284,32384
8285,32384
8286,32448
8287,32512
8288,32640
8289,32768
8290,32896
8291,32960
8292,33024
8293,33024
8294,33024
8295,33088
8296,33152
8297,33152
8298,33216
8299,33216
8300,33280
8301,33344
8302,33408
8303,33344
8304,33344
8305,33344
8306,33408
8307,33472
8308,33600
8309,33664
8310,33728
8311,33728
8312,33664
8313,33600
8314,33600
8315,33536
8316,33536
8317,33536
8318,33536
8319,33536
8320,33472
8321,33536
8322,33536
8323,33536
8324,33536
8325,33536
8326,33536
8327,33472
8328,33408
8329,33408
8330,33408
8331,33472
8332,33536
8333,33600
8334,33600
8335,33600
8336,33600
8337,33600
8338,33664
8339,33600
8340,33472
8341,33472
8342,33472
8343,33472
8344,33472
8345,33536
8346,33600
8347,33600
8348,33536
8349,33536
8350,33536
8351,33600
8352,33536
8353,33536
8354,33600
8355,33664
8356,33600
8357,33536
8358,33536
8359,33600
8360,33600
8361,33664
8362,33664
8363,33664
8364,33600
8365,33600
8366,33600
8367,33600
8368,33600
8369,33600
8370,33664
8371,33664
8372,33664
8373,33664
8374,33664
8375,33664
8376,33664
8377,33664
8378,33600
8379,33600
8380,33600
8381,33728
8382,33856
8383,33920
8384,33920
8385,34048
8386,34176
8387,34176
8388,34176
8389,34240
8390,34240
8391,34240
8392,34240
8393,34304
8394,34432
8395,34496
8396,34496
8397,34432
8398,34304
8399,34176
8400,34112
8401,33984
8402,33920
8403,33728
8404,33600
8405,33536
8406,33408
8407,33216
8408,33088
8409,32960
8410,32960
8411,32896
8412,32960
8413,32960
8414,32960
8415,33024
8416,33088
8417,33088
8418,33088
8419,33088
8420,33088
8421,33152
8422,33280
8423,33280
8424,33152
8425,32832
8426,32256
8427,31616
8428,31616
8429,32384
8430,33856
8431,36096
8432,39168
8433,41792
8434,43136
8435,42880
8436,41152
8437,38848
8438,36416
8439,33984
8440,31744
8441,29952
8442,28800
8443,28288
8444,28608
8445,29568
8446,30656
8447,31552
8448,32192
8449,32640
8450,33024
8451,33344
8452,33536
8453,33664
8454,33728
8455,33856
8456,33920
8457,33984
8458,33984
8459,34048
8460,34048
8461,34048
8462,34048
8463,34048
8464,34048
8465,34112
8466,34176
8467,34240
8468,34304
8469,34304
8470,34368
8471,34432
8472,34496
8473,34560
8474,34624
8475,34688
8476,34752
8477,34880
8478,34944
8479,35072
8480,35136
8481,35200
8482,35200
8483,35264
8484,35264
8485,35264
8486,35264
8487,35200
8488,35200
8489,35136
8490,35072
8491,34944
8492,34752
8493,34624
8494,34368
8495,34048
8496,33856
8497,33600
8498,33344
8499,33088
8500,32896
8501,32768
8502,32640
8503,32448
8504,32320
8505,32192
8506,32064
8507,32064
8508,32064
8509,32064
8510,32064
8511,32128
8512,32192
8513,32320
8514,32512
8515,32576
8516,32576
8517,32576
8518,32640
8519,32768
8520,32896
8521,33024
8522,33152
8523,33280
8524,33280
8525,33344
8526,33344
8527,33344
8528,33280
8529,33280
8530,33344
8531,33408
8532,33408
8533,33472
8534,33536
8535,33536
8536,33600
8537,33600
8538,33664
8539,33600
8540,33664
8541,33664
8542,33728
8543,33664
8544,33536
8545,33472
8546,33472
8547,33536
8548,33600
8549,33600
8550,33664
8551,33664
8552,33728
8553,33728
8554,33664
8555,33664
8556,33664
8557,33664
8558,33728
8559,33728
8560,33792
8561,33728
8562,33728
8563,33728
8564,33792
8565,33856
8566,33920
8567,34048
8568,34176
8569,34304
8570,34304
8571,34368
8572,34368
8573,34304
8574,34240
8575,34304
8576,34304
8577,34304
8578,34240
8579,34176
8580,34048
8581,33920
8582,33856
8583,33856
8584,33728
8585,33664
8586,33600
8587,33536
8588,33472
8589,33280
8590,33152
8591,33152
8592,33088
8593,33024
8594,33024
8595,33024
8596,33024
8597,33088
8598,33088
8599,33152
8600,33216
8601,33216
8602,33216
8603,33216
8604,33280
8605,33344
8606,33408
8607,33344
8608,33088
8609,32576
8610,32000
8611,31808
8612,32320
8613,33472
8614,35456
8615,38336
8616,41024
8617,42560
8618,42624
8619,41216
8620,39232
8621,36992
8622,34816
8623,32576
8624,30912
8625,29568
8626,28864
8627,28736
8628,29632
8629,30464
8630,31360
8631,32192
8632,32768
8633,33216
8634,33472
8635,33664
8636,33728
8637,33792
8638,33792
8639,33856
8640,33920
8641,33984
8642,33984
8643,33984
8644,34048
8645,34112
8646,34176
8647,34240
8648,34304
8649,34304
8650,34304
8651,34240
8652,34240
8653,34304
8654,34368
8655,34432
8656,34432
8657,34432
8658,34560
8659,34688
8660,34816
8661,34880
8662,34944
8663,35072
8664,35136
8665,35200
8666,35264
8667,35264
8668,35264
8669,35264
8670,35328
8671,35264
8672,35136
8673,34944
8674,34752
8675,34496
8676,34304
8677,34112
8678,33856
8679,33664
8680,33408
8681,33216
8682,32960
8683,32704
8684,32512
8685,32384
8686,32256
8687,32192
8688,32192
8689,32256
8690,32256
8691,32256
8692,32320
8693,32320
8694,32320
8695,32320
8696,32448
8697,32512
8698,32576
8699,32640
8700,32704
8701,32768
8702,32832
8703,32896
8704,32896
8705,32960
8706,33024
8707,33152
8708,33216
8709,33280
8710,33344
8711,33408
8712,33472
8713,33472
8714,33472
8715,33472
8716,33600
8717,33600
8718,33600
8719,33600
8720,33536
8721,33536
8722,33600
8723,33664
8724,33664
8725,33728
8726,33792
8727,33792
8728,33728
8729,33664
8730,33664
8731,33600
8732,33600
8733,33664
8734,33664
8735,33664
8736,33600
8737,33536
8738,33536
8739,33536
8740,33600
8741,33664
8742,33664
8743,33728
8744,33728
8745,33728
8746,33728
8747,33728
8748,33728
8749,33792
8750,33920
8751,34048
8752,34176
8753,34304
8754,34304
8755,34368
8756,34304
8757,34240
8758,34112
8759,34112
8760,34240
8761,34368
8762,34368
8763,34368
8764,34240
8765,34112
8766,33984
8767,33920
8768,33792
8769,33728
8770,33600
8771,33472
8772,33408
8773,33280
8774,33152
8775,33088
8776,33024
8777,32960
8778,32960
8779,32960
8780,32960
8781,32960
8782,33024
8783,33088
8784,33152
8785,33216
8786,33216
8787,33216
8788,33280
8789,33280
8790,33216
8791,33152
8792,32960
8793,32448
8794,31808
8795,31488
8796,31872
8797,33088
8798,35072
8799,37952
8800,40832
8801,42624
8802,42880
8803,41664
8804,39680
8805,37504
8806,35200
8807,32960
8808,31168
8809,29760
8810,28864
8811,28672
8812,29120
8813,30016
8814,31040
8815,31872
8816,32512
8817,33024
8818,33344
8819,33536
8820,33664
8821,33728
8822,33792
8823,33920
8824,33984
8825,33984
8826,33984
8827,33984
8828,33984
8829,33984
8830,33920
8831,33984
8832,34048
8833,34176
8834,34240
8835,34240
8836,34304
8837,34304
8838,34304
8839,34304
8840,34368
8841,34496
8842,34560
8843,34624
8844,34752
8845,34816
8846,34880
8847,34944
8848,35008
8849,35136
8850,35200
8851,35200
8852,35200
8853,35200
8854,35200
8855,35264
8856,35200
8857,35072
8858,34880
8859,34688
8860,34560
8861,34432
8862,34048
8863,33664
8864,33344
8865,33088
8866,32832
8867,32640
8868,32448
8869,32384
8870,32256
8871,32128
8872,32064
8873,32000
8874,32000
8875,32000
8876,32000
8877,32000
8878,32064
8879,32256
8880,32384
8881,32512
8882,32640
8883,32768
8884,32768
8885,32768
8886,32704
8887,32768
8888,32896
8889,33024
8890,33152
8891,33216
8892,33216
8893,33216
8894,33216
8895,33344
8896,33408
8897,33408
8898,33344
8899,33280
8900,33280
8901,33344
8902,33472
8903,33536
8904,33536
8905,33472
8906,33472
8907,33536
8908,33536
8909,33536
8910,33536
8911,33472
8912,33536
8913,33472
8914,33472
8915,33472
8916,33536
8917,33600
8918,33664
8919,33664
8920,33600
8921,33600
8922,33600
8923,33664
8924,33728
8925,33728
8926,33664
8927,33536
8928,33536
8929,33600
8930,33600
8931,33536
8932,33600
8933,33664
8934,33856
8935,34048
8936,34112
8937,34176
8938,34240
8939,34304
8940,34304
8941,34240
8942,34176
8943,34176
8944,34176
8945,34176
8946,34176
8947,34176
8948,34176
8949,34048
8950,33856
8951,33664
8952,33536
8953,33344
8954,33344
8955,33408
8956,33344
8957,33152
8958,33024
8959,32960
8960,32896
8961,32832
8962,32832
8963,32832
8964,32832
8965,32896
8966,32896
8967,32960
8968,33024
8969,33088
8970,33216
8971,33280
8972,33344
8973,33408
8974,33408
8975,33344
8976,33024
8977,32512
8978,31936
8979,31808
8980,32384
8981,33664
8982,35712
8983,38784
8984,41344
8985,42880
8986,42880
8987,41280
8988,38976
8989,36544
8990,34048
8991,31808
8992,30080
8993,28928
8994,28416
8995,28608
8996,29440
8997,30656
8998,31744
8999,32512
9000,32960
9001,33216
9002,33472
9003,33600
9004,33664
9005,33728
9006,33728
9007,33728
9008,33792
9009,33856
9010,33920
9011,33920
9012,33920
9013,33920
9014,33984
9015,33984
9016,34048
9017,34048
9018,34112
9019,34240
9020,34304
9021,34432
9022,34496
9023,34432
9024,34432
9025,34496
9026,34560
9027,34688
9028,34816
9029,34944
9030,35008
9031,35136
9032,35200
9033,35200
9034,35264
9035,35328
9036,35328
9037,35392
9038,35392
9039,35328
9040,35136
9041,35008
9042,34944
9043,34752
9044,34560
9045,34240
9046,33920
9047,33600
9048,33344
9049,33088
9050,32768
9051,32576
9052,32448
9053,32320
9054,32192
9055,32128
9056,32064
9057,32000
9058,31936
9059,31936
9060,31936
9061,31936
9062,32000
9063,32128
9064,32256
9065,32320
9066,32320
9067,32384
9068,32512
9069,32640
9070,32768
9071,32832
9072,32896
9073,32960
9074,33024
9075,33088
9076,33152
9077,33216
9078,33280
9079,33344
9080,33344
9081,33344
9082,33280
9083,33280
9084,33280
9085,33408
9086,33472
9087,33472
9088,33408
9089,33344
9090,33344
9091,33408
9092,33408
9093,33408
9094,33472
9095,33536
9096,33536
9097,33536
9098,33600
9099,33600
9100,33600
9101,33536
9102,33408
9103,33408
9104,33472
9105,33536
9106,33536
9107,33536
9108,33472
9109,33344
9110,33344
9111,33344
9112,33344
9113,33344
9114,33344
9115,33536
9116,33600
9117,33600
9118,33600
9119,33600
9120,33600
9121,33600
9122,33600
9123,33728
9124,33856
9125,34048
9126,34240
9127,34304
9128,34304
9129,34304
9130,34240
9131,34112
9132,34112
9133,34176
9134,34176
9135,34176
9136,34112
9137,34048
9138,33920
9139,33792
9140,33792
9141,33792
9142,33600
9143,33408
9144,33344
9145,33280
9146,33216
9147,33024
9148,32832
9149,32704
9150,32704
9151,32704
9152,32704
9153,32768
9154,32896
9155,32960
9156,32960
9157,33024
9158,33024
9159,33024
9160,33024
9161,33088
9162,33152
9163,33216
9164,33280
9165,33152
9166,32768
9167,32192
9168,31680
9169,31808
9170,32704
9171,34304
9172,36608
9173,39680
9174,42112
9175,43136
9176,42432
9177,40512
9178,37952
9179,35584
9180,33152
9181,30976
9182,29376
9183,28352
9184,28032
9185,28480
9186,29504
9187,30720
9188,31680
9189,32384
9190,32896
9191,33216
9192,33408
9193,33600
9194,33600
9195,33600
9196,33600
9197,33664
9198,33728
9199,33856
9200,33920
9201,33856
9202,33856
9203,33856
9204,33856
9205,33984
9206,34048
9207,33984
9208,33920
9209,33920
9210,33984
9211,34112
9212,34240
9213,34240
9214,34304
9215,34368
9216,34496
9217,34624
9218,34752
9219,34816
9220,34944
9221,35072
9222,35136
9223,35200
9224,35264
9225,35264
9226,35264
9227,35200
9228,35136
9229,35136
9230,35072
9231,34944
9232,34816
9233,34624
9234,34432
9235,34240
9236,34048
9237,33728
9238,33344
9239,33024
9240,32768
9241,32576
9242,32384
9243,32192
9244,32000
9245,31872
9246,31872
9247,31936
9248,31936
9249,31936
9250,32000
9251,32000
9252,32128
9253,32192
9254,32256
9255,32320
9256,32320
9257,32384
9258,32448
9259,32576
9260,32640
9261,32768
9262,32832
9263,32896
9264,32960
9265,33024
9266,33088
9267,33152
9268,33152
9269,33216
9270,33216
9271,33280
9272,33344
9273,33344
9274,33408
9275,33408
9276,33408
9277,33472
9278,33408
9279,33408
9280,33472
9281,33536
9282,33472
9283,33472
9284,33408
9285,33344
9286,33280
9287,33344
9288,33344
9289,33408
9290,33408
9291,33408
9292,33472
9293,33472
9294,33408
9295,33408
9296,33472
9297,33472
9298,33472
9299,33472
9300,33472
9301,33600
9302,33600
9303,33536
9304,33344
9305,33344
9306,33280
9307,33280
9308,33280
9309,33280
9310,33344
9311,33472
9312,33536
9313,33536
9314,33600
9315,33600
9316,33600
9317,33536
9318,33536
9319,33536
9320,33472
9321,33472
9322,33536
9323,33536
9324,33536
9325,33472
9326,33472
9327,33600
9328,33600
9329,33600
9330,33600
9331,33600
9332,33600
9333,33600
9334,33664
9335,33728
9336,33728
9337,33728
9338,33664
9339,33664
9340,33728
9341,33664
9342,33600
9343,33600
9344,33536
9345,33536
9346,33600
9347,33536
9348,33536
9349,33536
9350,33536
9351,33600
9352,33600
9353,33664
9354,33664
9355,33664
9356,33600
9357,33600
9358,33600
9359,33600
9360,33664
9361,33728
9362,33856
9363,33856
9364,33728
9365,33664
9366,33728
9367,33728
9368,33664
9369,33664
9370,33728
9371,33728
9372,33728
9373,33664
9374,33664
9375,33664
9376,33600
9377,33600
9378,33600
9379,33664
9380,33728
9381,33728
9382,33728
9383,33664
9384,33664
9385,33728
9386,33728
9387,33728
9388,33728
9389,33728
9390,33792
9391,33792
9392,33856
9393,33792
9394,33728
9395,33664
9396,33728
9397,33728
9398,33728
9399,33856
9400,33984
9401,34112
9402,34240
9403,34304
9404,34432
9405,34368
9406,34368
9407,34368
9408,34432
9409,34432
9410,34368
9411,34368
9412,34304
9413,34176
9414,34112
9415,34048
9416,33984
9417,33856
9418,33664
9419,33536
9420,33472
9421,33344
9422,33152
9423,32960
9424,32896
9425,32832
9426,32832
9427,32832
9428,32896
9429,32896
9430,32960
9431,32960
9432,33024
9433,33088
9434,33152
9435,33216
9436,33280
9437,33216
9438,33152
9439,32960
9440,32512
9441,32000
9442,31744
9443,32128
9444,33280
9445,35136
9446,37824
9447,40640
9448,42496
9449,42816
9450,41728
9451,39680
9452,37312
9453,34816
9454,32448
9455,30528
9456,29120
9457,28352
9458,28352
9459,28992
9460,30016
9461,31168
9462,32064
9463,32768
9464,33152
9465,33344
9466,33472
9467,33600
9468,33664
9469,33728
9470,33792
9471,33856
9472,33856
9473,33920
9474,33920
9475,33920
9476,33920
9477,33984
9478,34048
9479,34048
9480,34048
9481,34112
9482,34176
9483,34240
9484,34304
9485,34368
9486,34368
9487,34432
9488,34496
9489,34624
9490,34688
9491,34816
9492,34816
9493,34816
9494,34816
9495,34816
9496,34880
9497,34944
9498,35008
9499,35136
9500,35200
9501,35136
9502,35072
9503,35008
9504,34944
9505,34880
9506,34816
9507,34624
9508,34432
9509,34240
9510,34048
9511,33792
9512,33600
9513,33408
9514,33280
9515,33088
9516,32896
9517,32704
9518,32512
9519,32384
9520,32320
9521,32320
9522,32256
9523,32256
9524,32256
9525,32256
9526,32256
9527,32320
9528,32384
9529,32512
9530,32576
9531,32704
9532,32768
9533,32896
9534,32960
9535,33024
9536,33024
9537,33088
9538,33216
9539,33280
9540,33408
9541,33408
9542,33408
9543,33344
9544,33408
9545,33408
9546,33408
9547,33408
9548,33408
9549,33408
9550,33472
9551,33472
9552,33536
9553,33600
9554,33664
9555,33792
9556,33792
9557,33792
9558,33728
9559,33664
9560,33600
9561,33600
9562,33536
9563,33536
9564,33600
9565,33664
9566,33728
9567,33792
9568,33728
9569,33792
9570,33664
9571,33600
9572,33536
9573,33600
9574,33600
9575,33536
9576,33536
9577,33536
9578,33600
9579,33600
9580,33536
9581,33600
9582,33600
9583,33664
9584,33664
9585,33728
9586,33856
9587,33984
9588,34112
9589,34240
9590,34368
9591,34496
9592,34560
9593,34496
9594,34304
9595,34176
9596,34112
9597,34176
9598,34112
9599,34176
9600,34176
9601,34176
9602,34048
9603,33920
9604,33792
9605,33664
9606,33536
9607,33472
9608,33472
9609,33408
9610,33344
9611,33152
9612,32960
9613,32896
9614,32832
9615,32832
9616,32832
9617,32960
9618,32960
9619,33088
9620,33088
9621,33152
9622,33216
9623,33216
9624,33216
9625,33280
9626,33344
9627,33408
9628,33216
9629,32768
9630,32128
9631,31680
9632,31872
9633,32832
9634,34496
9635,36992
9636,39872
9637,41984
9638,42688
9639,41920
9640,40192
9641,38016
9642,35712
9643,33600
9644,31680
9645,30208
9646,29184
9647,28736
9648,28928
9649,29760
9650,30848
9651,31872
9652,32576
9653,33024
9654,33344
9655,33536
9656,33664
9657,33792
9658,33920
9659,33920
9660,33984
9661,33984
9662,34048
9663,33984
9664,33984
9665,33984
9666,33984
9667,34048
9668,34112
9669,34176
9670,34176
9671,34240
9672,34304
9673,34432
9674,34432
9675,34432
9676,34496
9677,34560
9678,34624
9679,34688
9680,34752
9681,34816
9682,34816
9683,34880
9684,35008
9685,35136
9686,35136
9687,35136
9688,35200
9689,35200
9690,35136
9691,35136
9692,35136
9693,35008
9694,34880
9695,34752
9696,34560
9697,34304
9698,34112
9699,33856
9700,33664
9701,33408
9702,33216
9703,33024
9704,32768
9705,32576
9706,32384
9707,32256
9708,32192
9709,32064
9710,32128
9711,32192
9712,32256
9713,32320
9714,32384
9715,32448
9716,32384
9717,32448
9718,32512
9719,32640
9720,32704
9721,32768
9722,32896
9723,32896
9724,32960
9725,33024
9726,33088
9727,33088
9728,33152
9729,33216
9730,33344
9731,33408
9732,33408
9733,33472
9734,33408
9735,33472
9736,33536
9737,33536
9738,33536
9739,33600
9740,33664
9741,33664
9742,33600
9743,33600
9744,33664
9745,33664
9746,33728
9747,33728
9748,33728
9749,33664
9750,33600
9751,33600
9752,33600
9753,33600
9754,33664
9755,33664
9756,33664
9757,33600
9758,33600
9759,33600
9760,33664
9761,33728
9762,33728
9763,33728
9764,33728
9765,33728
9766,33728
9767,33728
9768,33792
9769,33856
9770,33856
9771,33920
9772,34048
9773,34176
9774,34304
9775,34432
9776,34432
9777,34368
9778,34176
9779,34112
9780,34048
9781,34048
9782,34176
9783,34240
9784,34304
9785,34240
9786,34112
9787,33984
9788,33920
9789,33792
9790,33664
9791,33600
9792,33600
9793,33472
9794,33280
9795,33152
9796,33088
9797,33024
9798,32960
9799,32960
9800,32960
9801,33024
9802,33088
9803,33088
9804,33152
9805,33152
9806,33216
9807,33280
9808,33344
9809,33408
9810,33472
9811,33472
9812,33216
9813,32832
9814,32192
9815,31616
9816,31616
9817,32384
9818,33920
9819,36224
9820,39168
9821,41536
9822,42752
9823,42304
9824,40768
9825,38784
9826,36608
9827,34368
9828,32320
9829,30592
9830,29440
9831,28736
9832,28736
9833,29312
9834,30400
9835,31488
9836,32384
9837,32896
9838,33216
9839,33344
9840,33472
9841,33600
9842,33664
9843,33728
9844,33792
9845,33856
9846,33920
9847,33984
9848,33984
9849,33984
9850,33984
9851,34048
9852,34176
9853,34176
9854,34176
9855,34240
9856,34304
9857,34368
9858,34368
9859,34432
9860,34432
9861,34432
9862,34496
9863,34496
9864,34560
9865,34624
9866,34752
9867,34944
9868,35072
9869,35136
9870,35200
9871,35200
9872,35264
9873,35264
9874,35264
9875,35264
9876,35136
9877,35072
9878,34944
9879,34816
9880,34688
9881,34432
9882,34240
9883,33984
9884,33792
9885,33536
9886,33280
9887,33024
9888,32832
9889,32640
9890,32512
9891,32320
9892,32192
9893,32064
9894,32064
9895,32064
9896,32128
9897,32192
9898,32320
9899,32448
9900,32448
9901,32448
9902,32448
9903,32512
9904,32576
9905,32704
9906,32832
9907,32960
9908,33024
9909,33088
9910,33152
9911,33216
9912,33280
9913,33344
9914,33344
9915,33408
9916,33408
9917,33408
9918,33408
9919,33472
9920,33472
9921,33536
9922,33600
9923,33600
9924,33536
9925,33536
9926,33536
9927,33536
9928,33536
9929,33536
9930,33600
9931,33664
9932,33728
9933,33728
9934,33728
9935,33664
9936,33664
9937,33600
9938,33600
9939,33536
9940,33600
9941,33600
9942,33664
9943,33664
9944,33664
9945,33664
9946,33600
9947,33600
9948,33600
9949,33664
9950,33600
9951,33600
9952,33600
9953,33664
9954,33728
9955,33856
9956,33984
9957,34112
9958,34240
9959,34304
9960,34368
9961,34368
9962,34240
9963,34112
9964,34112
9965,34176
9966,34176
9967,34176
9968,34112
9969,34048
9970,33984
9971,33792
9972,33664
9973,33536
9974,33472
9975,33344
9976,33344
9977,33280
9978,33152
9979,33024
9980,32896
9981,32896
9982,32896
9983,32896
9984,33024
9985,33152
9986,33088
9987,33088
9988,33024
9989,33088
9990,33216
9991,33280
9992,33280
9993,33280
9994,33280
9995,33280
9996,33216
9997,33024
9998,32640
9999,32064
10000,31808
10001,32192
10002,33408
10003,35328
10004,38144
10005,40960
10006,42624
10007,42752
10008,41408
10009,39232
10010,36928
10011,34624
10012,32384
10013,30592
10014,29248
10015,28480
10016,28480
10017,29120
10018,30208
10019,31360
10020,32192
10021,32704
10022,33088
10023,33344
10024,33536
10025,33600
10026,33728
10027,33792
10028,33856
10029,33920
10030,33984
10031,33984
10032,33984
10033,34048
10034,34048
10035,33984
10036,33984
10037,33984
10038,34048
10039,34048
10040,34112
10041,34176
10042,34240
10043,34304
10044,34432
10045,34560
10046,34688
10047,34752
10048,34816
10049,34816
10050,34816
10051,34880
10052,34944
10053,35072
10054,35136
10055,35200
10056,35264
10057,35328
10058,35392
10059,35392
10060,35328
10061,35200
10062,35008
10063,34880
10064,34816
10065,34624
10066,34368
10067,34048
10068,33728
10069,33472
10070,33216
10071,33024
10072,32832
10073,32640
10074,32576
10075,32384
10076,32192
10077,31936
10078,31872
10079,31872
10080,31936
10081,31936
10082,32064
10083,32128
10084,32192
10085,32256
10086,32320
10087,32384
10088,32448
10089,32512
10090,32640
10091,32768
10092,32832
10093,32896
10094,32896
10095,32960
10096,33024
10097,33088
10098,33152
10099,33152
10100,33216
10101,33280
10102,33408
10103,33472
10104,33536
10105,33536
10106,33536
10107,33472
10108,33472
10109,33472
10110,33536
10111,33536
10112,33600
10113,33664
10114,33664
10115,33664
10116,33664
10117,33600
10118,33536
10119,33472
10120,33472
10121,33472
10122,33472
10123,33536
10124,33472
10125,33472
10126,33472
10127,33536
10128,33472
10129,33408
10130,33408
10131,33472
10132,33536
10133,33600
10134,33664
10135,33664
10136,33664
10137,33664
10138,33664
10139,33664
10140,33728
10141,33728
10142,33728
10143,33664
10144,33664
10145,33728
10146,33792
10147,33984
10148,34112
10149,34176
10150,34240
10151,34304
10152,34368
10153,34240
10154,34112
10155,34048
10156,34112
10157,34176
10158,34240
10159,34240
10160,34304
10161,34240
10162,33984
10163,33856
10164,33792
10165,33664
10166,33536
10167,33472
10168,33472
10169,33408
10170,33280
10171,33152
10172,33088
10173,33024
10174,33024
10175,33024
10176,33024
10177,33024
10178,33024
10179,33088
10180,33088
10181,33152
10182,33216
10183,33280
10184,33344
10185,33344
10186,33344
10187,33344
10188,33216
10189,33024
10190,32640
10191,32192
10192,32064
10193,32704
10194,34048
10195,36096
10196,38976
10197,41664
10198,43008
10199,42816
10200,41088
10201,38720
10202,36288
10203,33856
10204,31680
10205,29952
10206,28800
10207,28352
10208,28736
10209,29632
10210,30720
10211,31616
10212,32384
10213,32960
10214,33280
10215,33472
10216,33536
10217,33536
10218,33664
10219,33728
10220,33728
10221,33792
10222,33792
10223,33856
10224,33856
10225,33920
10226,33856
10227,33856
10228,33920
10229,33984
10230,34048
10231,34176
10232,34304
10233,34432
10234,34368
10235,34368
10236,34368
10237,34432
10238,34496
10239,34560
10240,34688
10241,34816
10242,34880
10243,35008
10244,35072
10245,35136
10246,35264
10247,35392
10248,35456
10249,35456
10250,35520
10251,35520
10252,35456
10253,35328
10254,35072
10255,34880
10256,34688
10257,34560
10258,34304
10259,33984
10260,33664
10261,33408
10262,33152
10263,32896
10264,32704
10265,32576
10266,32448
10267,32256
10268,32128
10269,32000
10270,31872
10271,31872
10272,31936
10273,32000
10274,32128
10275,32192
10276,32256
10277,32256
10278,32256
10279,32320
10280,32448
10281,32576
10282,32640
10283,32704
10284,32768
10285,32896
10286,32960
10287,33024
10288,33088
10289,33152
10290,33152
10291,33152
10292,33216
10293,33280
10294,33344
10295,33472
10296,33536
10297,33536
10298,33536
10299,33472
10300,33472
10301,33472
10302,33536
10303,33536
10304,33600
10305,33600
10306,33600
10307,33600
10308,33664
10309,33664
10310,33664
10311,33664
10312,33664
10313,33664
10314,33664
10315,33728
10316,33728
10317,33664
10318,33536
10319,33472
10320,33472
10321,33472
10322,33408
10323,33472
10324,33472
10325,33472
10326,33472
10327,33536
10328,33536
10329,33536
10330,33600
10331,33664
10332,33664
10333,33664
10334,33728
10335,33728
10336,33728
10337,33664
10338,33664
10339,33664
10340,33600
10341,33536
10342,33536
10343,33536
10344,33536
10345,33600
10346,33664
10347,33728
10348,33728
10349,33664
10350,33600
10351,33600
10352,33664
10353,33664
10354,33664
10355,33664
10356,33664
10357,33600
10358,33600
10359,33600
10360,33600
10361,33600
10362,33664
10363,33664
10364,33664
10365,33664
10366,33664
10367,33600
10368,33600
10369,33664
10370,33664
10371,33664
10372,33664
10373,33664
10374,33664
10375,33728
10376,33728
10377,33664
10378,33600
10379,33536
10380,33536
10381,33536
10382,33600
10383,33664
10384,33664
10385,33664
10386,33728
10387,33792
10388,33728
10389,33728
10390,33728
10391,33664
10392,33664
10393,33728
10394,33664
10395,33664
10396,33600
10397,33536
10398,33536
10399,33600
10400,33664
10401,33664
10402,33664
10403,33664
10404,33600
10405,33600
10406,33664
10407,33664
10408,33728
10409,33728
10410,33728
10411,33728
10412,33792
10413,33792
10414,33792
10415,33728
10416,33728
10417,33664
10418,33600
10419,33600
10420,33664
10421,33728
10422,33792
10423,33792
10424,33792
10425,33792
10426,33728
10427,33728
10428,33728
10429,33664
10430,33664
10431,33664
10432,33600
10433,33600
10434,33664
10435,33728
10436,33792
10437,33792
10438,33728
10439,33664
10440,33728
10441,33792
10442,33728
10443,33728
10444,33792
10445,33728
10446,33664
10447,33728
10448,33728
10449,33728
10450,33728
10451,33792
10452,33792
10453,33792
10454,33728
10455,33664
10456,33664
10457,33664
10458,33664
10459,33664
10460,33664
10461,33728
10462,33792
10463,33792
10464,33728
10465,33664
10466,33728
10467,33728
10468,33728
10469,33600
10470,33664
10471,33728
10472,33728
10473,33728
10474,33728
10475,33728
10476,33728
10477,33664
10478,33728
10479,33664
10480,33728
10481,33728
10482,33664
10483,33664
10484,33664
10485,33728
10486,33728
10487,33792
10488,33792
10489,33728
10490,33728
10491,33792
10492,33792
10493,33728
10494,33728
10495,33664
10496,33600
10497,33664
10498,33664
10499,33728
10500,33792
10501,33856
10502,34048
10503,34176
10504,34304
10505,34368
10506,34432
10507,34496
10508,34560
10509,34496
10510,34368
10511,34304
10512,34304
10513,34240
10514,34240
10515,34240
10516,34176
10517,34176
10518,34176
10519,34112
10520,33920
10521,33728
10522,33600
10523,33472
10524,33408
10525,33280
10526,33088
10527,32896
10528,32832
10529,32832
10530,32896
10531,32960
10532,33024
10533,33024
10534,33024
10535,33024
10536,33088
10537,33216
10538,33280
10539,33280
10540,33216
10541,33024
10542,32640
10543,32000
10544,31552
10545,31680
10546,32704
10547,34496
10548,37056
10549,40256
10550,42752
10551,43904
10552,43456
10553,41472
10554,38784
10555,35840
10556,33024
10557,30592
10558,28864
10559,28032
10560,28096
10561,28800
10562,29824
10563,30912
10564,31744
10565,32320
10566,32704
10567,32960
10568,33152
10569,33280
10570,33408
10571,33536
10572,33600
10573,33728
10574,33728
10575,33856
10576,33856
10577,33856
10578,33856
10579,33920
10580,33920
10581,33920
10582,33920
10583,33920
10584,33920
10585,33920
10586,33984
10587,34112
10588,34176
10589,34304
10590,34368
10591,34432
10592,34496
10593,34624
10594,34752
10595,34816
10596,34752
10597,34816
10598,34880
10599,34944
10600,35008
10601,35072
10602,35136
10603,35200
10604,35264
10605,35264
10606,35200
10607,35136
10608,35008
10609,34880
10610,34752
10611,34688
10612,34560
10613,34368
10614,34112
10615,33856
10616,33664
10617,33472
10618,33344
10619,33152
10620,32960
10621,32832
10622,32704
10623,32640
10624,32512
10625,32384
10626,32320
10627,32256
10628,32320
10629,32320
10630,32320
10631,32384
10632,32384
10633,32448
10634,32512
10635,32640
10636,32768
10637,32896
10638,32960
10639,33024
10640,33088
10641,33152
10642,33216
10643,33280
10644,33280
10645,33280
10646,33280
10647,33280
10648,33344
10649,33408
10650,33472
10651,33408
10652,33408
10653,33472
10654,33536
10655,33600
10656,33536
10657,33536
10658,33472
10659,33536
10660,33600
10661,33664
10662,33728
10663,33792
10664,33728
10665,33728
10666,33664
10667,33600
10668,33536
10669,33472
10670,33472
10671,33472
10672,33472
10673,33536
10674,33536
10675,33536
10676,33600
10677,33600
10678,33536
10679,33472
10680,33472
10681,33472
10682,33600
10683,33600
10684,33600
10685,33536
10686,33472
10687,33408
10688,33408
10689,33472
10690,33536
10691,33536
10692,33536
10693,33536
10694,33536
10695,33536
10696,33536
10697,33536
10698,33536
10699,33600
10700,33664
10701,33664
10702,33600
10703,33600
10704,33600
10705,33600
10706,33600
10707,33600
10708,33664
10709,33664
10710,33600
10711,33600
10712,33600
10713,33536
10714,33536
10715,33536
10716,33536
10717,33600
10718,33600
10719,33664
10720,33664
10721,33728
10722,33728
10723,33728
10724,33728
10725,33728
10726,33728
10727,33664
10728,33664
10729,33664
10730,33728
10731,33792
10732,33856
10733,33856
10734,33792
10735,33792
10736,33792
10737,33728
10738,33728
10739,33728
10740,33792
10741,33920
10742,34048
10743,34176
10744,34240
10745,34304
10746,34368
10747,34432
10748,34432
10749,34368
10750,34304
10751,34368
10752,34496
10753,34368
10754,34304
10755,34240
10756,34176
10757,34112
10758,34112
10759,33984
10760,33792
10761,33600
10762,33472
10763,33408
10764,33216
10765,33024
10766,32960
10767,32960
10768,33024
10769,33024
10770,33088
10771,33088
10772,33088
10773,33088
10774,33088
10775,33088
10776,33152
10777,33152
10778,33088
10779,33088
10780,33152
10781,33152
10782,32960
10783,32512
10784,31936
10785,31616
10786,31936
10787,33024
10788,34816
10789,37440
10790,40512
10791,42496
10792,43072
10793,42048
10794,40000
10795,37568
10796,35072
10797,32704
10798,30720
10799,29248
10800,28416
10801,28288
10802,28928
10803,30080
10804,31040
10805,32000
10806,32640
10807,33088
10808,33344
10809,33536
10810,33600
10811,33664
10812,33664
10813,33664
10814,33728
10815,33856
10816,33984
10817,34048
10818,33984
10819,33920
10820,33856
10821,33856
10822,33920
10823,34048
10824,34112
10825,34176
10826,34240
10827,34368
10828,34432
10829,34432
10830,34560
10831,34560
10832,34624
10833,34624
10834,34688
10835,34752
10836,34880
10837,35008
10838,35136
10839,35136
10840,35200
10841,35200
10842,35264
10843,35392
10844,35456
10845,35392
10846,35264
10847,35200
10848,35072
10849,34944
10850,34816
10851,34624
10852,34496
10853,34240
10854,33984
10855,33792
10856,33472
10857,33152
10858,32832
10859,32576
10860,32320
10861,32192
10862,32064
10863,32000
10864,31936
10865,31936
10866,31936
10867,32000
10868,32064
10869,32128
10870,32256
10871,32320
10872,32448
10873,32512
10874,32576
10875,32640
10876,32704
10877,32768
10878,32832
10879,32896
10880,32960
10881,33024
10882,33088
10883,33216
10884,33280
10885,33344
10886,33344
10887,33344
10888,33344
10889,33408
10890,33472
10891,33536
10892,33536
10893,33536
10894,33600
10895,33600
10896,33664
10897,33664
10898,33728
10899,33728
10900,33728
10901,33664
10902,33664
10903,33664
10904,33664
10905,33664
10906,33664
10907,33728
10908,33728
10909,33728
10910,33728
10911,33728
10912,33728
10913,33728
10914,33664
10915,33664
10916,33600
10917,33600
10918,33664
10919,33600
10920,33600
10921,33664
10922,33728
10923,33728
10924,33728
