,ECG
0,33920
1,34048
2,33920
3,33920
4,33920
5,33984
6,34112
7,34112
8,34048
9,34048
10,34048
11,34048
12,33984
13,33984
14,33920
15,33984
16,34048
17,34112
18,34176
19,34176
20,34112
21,34048
22,34112
23,34176
24,34176
25,34240
26,34304
27,34432
28,34496
29,34560
30,34560
31,34560
32,34560
33,34560
34,34624
35,34688
36,34688
37,34688
38,34752
39,34752
40,34624
41,34432
42,34240
43,34048
44,33856
45,33664
46,33536
47,33472
48,33408
49,33408
50,33472
51,33536
52,33600
53,33664
54,33728
55,33792
56,33792
57,33792
58,33792
59,33856
60,34048
61,34560
62,35520
63,37056
64,39168
65,41792
66,43968
67,44480
68,43264
69,41152
70,38848
71,36736
72,34944
73,33536
74,32448
75,31872
76,31552
77,31360
78,31168
79,31104
80,31104
81,31232
82,31424
83,31616
84,31872
85,32128
86,32320
87,32512
88,32640
89,32768
90,32896
91,33088
92,33280
93,33408
94,33344
95,33344
96,33472
97,33536
98,33536
99,33536
100,33600
101,33728
102,33920
103,33984
104,33984
105,34048
106,34112
107,34176
108,34240
109,34368
110,34496
111,34560
112,34496
113,34432
114,34432
115,34496
116,34560
117,34624
118,34624
119,34496
120,34368
121,34368
122,34368
123,34368
124,34304
125,34240
126,34240
127,34240
128,34240
129,34240
130,34240
131,34240
132,34240
133,34240
134,34176
135,34048
136,33920
137,33856
138,33792
139,33664
140,33536
141,33472
142,33472
143,33472
144,33472
145,33408
146,33408
147,33344
148,33472
149,33536
150,33536
151,33600
152,33600
153,33600
154,33728
155,33792
156,33856
157,33792
158,33856
159,33856
160,33984
161,34048
162,34048
163,34048
164,34112
165,34112
166,34240
167,34240
168,34176
169,34112
170,34112
171,34112
172,34048
173,33984
174,33920
175,33920
176,33984
177,34048
178,34048
179,34112
180,33984
181,33984
182,33920
183,33856
184,33856
185,33920
186,33920
187,33920
188,33984
189,34048
190,34112
191,34048
192,33920
193,33792
194,33856
195,33856
196,33792
197,33856
198,33920
199,33920
200,33984
201,33984
202,33984
203,34048
204,33984
205,33984
206,33984
207,33984
208,34048
209,34112
210,34048
211,33920
212,33920
213,33984
214,33984
215,33920
216,33920
217,33920
218,33920
219,33984
220,33984
221,33984
222,33984
223,33984
224,33984
225,34048
226,34112
227,34112
228,34048
229,33984
230,34048
231,34176
232,34240
233,34368
234,34368
235,34368
236,34368
237,34368
238,34304
239,34240
240,34368
241,34496
242,34688
243,34816
244,34816
245,34752
246,34624
247,34560
248,34432
249,34176
250,33984
251,33792
252,33600
253,33536
254,33536
255,33472
256,33408
257,33408
258,33472
259,33536
260,33664
261,33792
262,33856
263,33856
264,33792
265,33728
266,33856
267,34176
268,34688
269,35648
270,37184
271,39424
272,41984
273,44160
274,44544
275,43136
276,40960
277,38720
278,36736
279,35008
280,33600
281,32512
282,31936
283,31552
284,31360
285,31232
286,31168
287,31232
288,31424
289,31680
290,31936
291,32064
292,32320
293,32512
294,32576
295,32576
296,32768
297,32960
298,33216
299,33408
300,33472
301,33536
302,33536
303,33600
304,33600
305,33664
306,33792
307,33856
308,33920
309,33984
310,33984
311,34048
312,34176
313,34304
314,34368
315,34432
316,34432
317,34432
318,34432
319,34368
320,34368
321,34432
322,34560
323,34624
324,34624
325,34624
326,34624
327,34560
328,34496
329,34496
330,34496
331,34496
332,34432
333,34432
334,34368
335,34304
336,34240
337,34240
338,34176
339,34112
340,33984
341,33856
342,33792
343,33728
344,33664
345,33600
346,33600
347,33536
348,33344
349,33280
350,33216
351,33216
352,33216
353,33216
354,33216
355,33280
356,33408
357,33600
358,33536
359,33408
360,33472
361,33600
362,33664
363,33728
364,33728
365,33664
366,33728
367,33856
368,33920
369,33984
370,33984
371,33984
372,34112
373,34112
374,34112
375,34048
376,33984
377,33920
378,33984
379,33920
380,33920
381,33856
382,33856
383,33856
384,33728
385,33728
386,33856
387,33856
388,33856
389,33920
390,33920
391,33984
392,33920
393,33792
394,33792
395,33664
396,33600
397,33600
398,33664
399,33728
400,33728
401,33792
402,33920
403,33984
404,33920
405,33920
406,33920
407,33984
408,33920
409,33984
410,33984
411,33856
412,33856
413,33856
414,33920
415,33984
416,33856
417,33792
418,33856
419,33920
420,33856
421,33920
422,33920
423,33920
424,33984
425,34048
426,34112
427,34176
428,34112
429,33984
430,33920
431,33920
432,34048
433,34048
434,34112
435,34176
436,34240
437,34304
438,34368
439,34368
440,34368
441,34304
442,34304
443,34432
444,34624
445,34688
446,34688
447,34624
448,34560
449,34432
450,34176
451,33984
452,33792
453,33600
454,33472
455,33344
456,33216
457,33152
458,33152
459,33216
460,33280
461,33408
462,33472
463,33600
464,33600
465,33600
466,33600
467,33728
468,33856
469,34112
470,34496
471,35264
472,36736
473,38848
474,41472
475,43712
476,44288
477,43072
478,40896
479,38656
480,36672
481,34816
482,33536
483,32512
484,31872
485,31488
486,31296
487,31168
488,31040
489,31040
490,31168
491,31296
492,31488
493,31680
494,31872
495,32064
496,32320
497,32512
498,32704
499,32768
500,32896
501,33024
502,33152
503,33280
504,33280
505,33408
506,33472
507,33536
508,33536
509,33664
510,33664
511,33728
512,33792
513,33920
514,33984
515,34048
516,34112
517,34112
518,34176
519,34176
520,34240
521,34240
522,34304
523,34368
524,34496
525,34624
526,34688
527,34624
528,34496
529,34432
530,34432
531,34432
532,34304
533,34176
534,34176
535,34176
536,34176
537,34112
538,34048
539,33984
540,34048
541,34048
542,33920
543,33856
544,33792
545,33728
546,33664
547,33600
548,33472
549,33344
550,33280
551,33280
552,33216
553,33152
554,33152
555,33088
556,33152
557,33216
558,33280
559,33280
560,33280
561,33344
562,33344
563,33472
564,33536
565,33600
566,33664
567,33664
568,33664
569,33728
570,33856
571,33920
572,33984
573,33984
574,33920
575,33920
576,33920
577,33920
578,33920
579,33920
580,33856
581,33920
582,33920
583,33920
584,33920
585,33856
586,33856
587,33920
588,33920
589,33792
590,33728
591,33728
592,33728
593,33792
594,33792
595,33856
596,33856
597,33920
598,33984
599,33920
600,33920
601,33856
602,33792
603,33792
604,33664
605,33664
606,33728
607,33856
608,33856
609,33856
610,33920
611,33792
612,33792
613,33920
614,33984
615,33984
616,33920
617,33856
618,33856
619,33856
620,33920
621,33920
622,34048
623,34112
624,34048
625,33984
626,33856
627,33792
628,33856
629,33920
630,33920
631,33920
632,33920
633,33856
634,33920
635,33984
636,34048
637,34112
638,34176
639,34240
640,34240
641,34240
642,34240
643,34368
644,34560
645,34624
646,34688
647,34624
648,34496
649,34304
650,34240
651,34176
652,34048
653,33920
654,33728
655,33536
656,33408
657,33280
658,33280
659,33344
660,33408
661,33472
662,33536
663,33472
664,33408
665,33472
666,33600
667,33664
668,33728
669,33792
670,33920
671,34176
672,34816
673,36096
674,37888
675,40384
676,43008
677,44288
678,43712
679,41792
680,39488
681,37312
682,35520
683,33984
684,32896
685,32064
686,31488
687,31232
688,31168
689,31232
690,31232
691,31232
692,31296
693,31424
694,31616
695,31872
696,32128
697,32384
698,32448
699,32576
700,32704
701,32896
702,33024
703,33088
704,33152
705,33280
706,33344
707,33472
708,33536
709,33536
710,33664
711,33728
712,33856
713,33920
714,34048
715,34048
716,34048
717,34112
718,34176
719,34176
720,34176
721,34240
722,34304
723,34368
724,34432
725,34432
726,34496
727,34560
728,34496
729,34496
730,34496
731,34496
732,34560
733,34496
734,34368
735,34368
736,34304
737,34240
738,34240
739,34176
740,34112
741,34048
742,33984
743,33856
744,33792
745,33856
746,33856
747,33792
748,33600
749,33536
750,33408
751,33344
752,33280
753,33216
754,33152
755,33088
756,33024
757,33024
758,33088
759,33152
760,33344
761,33408
762,33408
763,33408
764,33472
765,33472
766,33536
767,33536
768,33664
769,33792
770,33856
771,33856
772,33856
773,33856
774,33920
775,33984
776,34048
777,33984
778,33920
779,33984
780,34048
781,33984
782,33984
783,33920
784,33984
785,34048
786,33920
787,33920
788,33856
789,33792
790,33792
791,33792
792,33792
793,33856
794,33856
795,33856
796,33856
797,33920
798,33920
799,33856
800,33728
801,33664
802,33664
803,33728
804,33728
805,33664
806,33664
807,33664
808,33664
809,33792
810,33856
811,33856
812,33792
813,33792
814,33792
815,33792
816,33856
817,33856
818,33856
819,33920
820,34048
821,34048
822,33920
823,33856
824,33792
825,33792
826,33792
827,33856
828,33856
829,33856
830,33792
831,33792
832,33792
833,33856
834,33920
835,33984
836,34048
837,34112
838,34176
839,34112
840,34112
841,34176
842,34240
843,34304
844,34240
845,34240
846,34176
847,34176
848,34304
849,34496
850,34560
851,34496
852,34432
853,34304
854,34240
855,34176
856,34112
857,33920
858,33792
859,33600
860,33472
861,33408
862,33344
863,33216
864,33216
865,33216
866,33280
867,33344
868,33408
869,33536
870,33600
871,33664
872,33664
873,33728
874,33856
875,34176
876,34752
877,35840
878,37504
879,39744
880,42432
881,44096
882,43840
883,42112
884,39872
885,37760
886,35712
887,34112
888,32896
889,32064
890,31616
891,31360
892,31232
893,31168
894,31168
895,31232
896,31360
897,31424
898,31616
899,31872
900,32192
901,32384
902,32384
903,32448
904,32640
905,32832
906,32960
907,33152
908,33152
909,33152
910,33216
911,33344
912,33472
913,33536
914,33664
915,33728
916,33792
917,33856
918,33920
919,33920
920,33920
921,33920
922,33984
923,34176
924,34176
925,34176
926,34112
927,34176
928,34368
929,34496
930,34496
931,34432
932,34432
933,34496
934,34432
935,34432
936,34432
937,34368
938,34432
939,34368
940,34304
941,34240
942,34176
943,34112
944,34048
945,33984
946,33920
947,33856
948,33792
949,33792
950,33728
951,33600
952,33472
953,33472
954,33472
955,33408
956,33280
957,33152
958,33152
959,33152
960,33152
961,33152
962,33152
963,33152
964,33152
965,33152
966,33152
967,33216
968,33280
969,33344
970,33408
971,33472
972,33600
973,33728
974,33792
975,33856
976,33792
977,33792
978,33792
979,33856
980,33920
981,33920
982,33984
983,34048
984,34048
985,33920
986,33856
987,33856
988,33856
989,33856
990,33792
991,33856
992,33792
993,33792
994,33792
995,33792
996,33728
997,33664
998,33600
999,33600
1000,33600
1001,33664
1002,33728
1003,33792
1004,33856
1005,33856
1006,33792
1007,33728
1008,33664
1009,33664
1010,33728
1011,33792
1012,33728
1013,33728
1014,33792
1015,33792
1016,33856
1017,33792
1018,33792
1019,33728
1020,33728
1021,33728
1022,33728
1023,33728
1024,33792
1025,33856
1026,33920
1027,33920
1028,33920
1029,33920
1030,33856
1031,33792
1032,33792
1033,33856
1034,33856
1035,33856
1036,33856
1037,33920
1038,33920
1039,33856
1040,33792
1041,33792
1042,33856
1043,33792
1044,33856
1045,33856
1046,33920
1047,34048
1048,34112
1049,34176
1050,34240
1051,34368
1052,34368
1053,34368
1054,34240
1055,34304
1056,34368
1057,34432
1058,34432
1059,34432
1060,34432
1061,34304
1062,34240
1063,34112
1064,33984
1065,33856
1066,33600
1067,33408
1068,33280
1069,33152
1070,33088
1071,33152
1072,33216
1073,33280
1074,33344
1075,33344
1076,33408
1077,33472
1078,33536
1079,33600
1080,33664
1081,33792
1082,33984
1083,34368
1084,35136
1085,36416
1086,38272
1087,40768
1088,43136
1089,44096
1090,43136
1091,41088
1092,38976
1093,36928
1094,35072
1095,33664
1096,32576
1097,31872
1098,31552
1099,31296
1100,31104
1101,31104
1102,31168
1103,31232
1104,31360
1105,31488
1106,31680
1107,31808
1108,32000
1109,32256
1110,32384
1111,32576
1112,32768
1113,32832
1114,32896
1115,33024
1116,33088
1117,33216
1118,33344
1119,33408
1120,33536
1121,33600
1122,33664
1123,33728
1124,33792
1125,33920
1126,33920
1127,33856
1128,33920
1129,33920
1130,33984
1131,33984
1132,34048
1133,34048
1134,34112
1135,34176
1136,34304
1137,34368
1138,34368
1139,34432
1140,34496
1141,34496
1142,34432
1143,34432
1144,34496
1145,34432
1146,34432
1147,34432
1148,34368
1149,34240
1150,34112
1151,34048
1152,33984
1153,33856
1154,33856
1155,33856
1156,33792
1157,33792
1158,33664
1159,33600
1160,33536
1161,33536
1162,33472
1163,33344
1164,33216
1165,33088
1166,33152
1167,33408
1168,33344
1169,33152
1170,33088
1171,33152
1172,33216
1173,33216
1174,33216
1175,33216
1176,33280
1177,33408
1178,33408
1179,33408
1180,33472
1181,33472
1182,33664
1183,33728
1184,33792
1185,33920
1186,34048
1187,34112
1188,33984
1189,33920
1190,33920
1191,33984
1192,33984
1193,33984
1194,33920
1195,33792
1196,33728
1197,33792
1198,33792
1199,33856
1200,33920
1201,33856
1202,33792
1203,33728
1204,33856
1205,33856
1206,33792
1207,33728
1208,33728
1209,33792
1210,33856
1211,33856
1212,33728
1213,33664
1214,33664
1215,33792
1216,33792
1217,33856
1218,33792
1219,33792
1220,33792
1221,33792
1222,33920
1223,33984
1224,33856
1225,33728
1226,33664
1227,33728
1228,33792
1229,33856
1230,33920
1231,33984
1232,34048
1233,33920
1234,33920
1235,33856
1236,33920
1237,34112
1238,34112
1239,34112
1240,33984
1241,34048
1242,33984
1243,34048
1244,33984
1245,33920
1246,33920
1247,33984
1248,34048
1249,33984
1250,34048
1251,34112
1252,34176
1253,34304
1254,34368
1255,34368
1256,34368
1257,34368
1258,34432
1259,34496
1260,34432
1261,34368
1262,34368
1263,34560
1264,34624
1265,34752
1266,34880
1267,34880
1268,34816
1269,34752
1270,34560
1271,34432
1272,34368
1273,34304
1274,34176
1275,34048
1276,33792
1277,33600
1278,33536
1279,33536
1280,33536
1281,33600
1282,33664
1283,33792
1284,33856
1285,33920
1286,33984
1287,34048
1288,34112
1289,34176
1290,34304
1291,34560
1292,35136
1293,36224
1294,37952
1295,40256
1296,42816
1297,44352
1298,44096
1299,42432
1300,40256
1301,38144
1302,36288
1303,34688
1304,33472
1305,32640
1306,32128
1307,32064
1308,31808
1309,31680
1310,31744
1311,31808
1312,32000
1313,32128
1314,32320
1315,32512
1316,32640
1317,32640
1318,32704
1319,33088
1320,33280
1321,33536
1322,33472
1323,33856
1324,33920
1325,33984
1326,34048
1327,34112
1328,34240
1329,34304
1330,34368
1331,34432
1332,34368
1333,34496
1334,34624
1335,34688
1336,34752
1337,34688
1338,34816
1339,34816
1340,34880
1341,34944
1342,35072
1343,35200
1344,35264
1345,35264
1346,35264
1347,35200
1348,35264
1349,35456
1350,35520
1351,35456
1352,35392
1353,35264
1354,35264
1355,35264
1356,35200
1357,35072
1358,34944
1359,34944
1360,34944
1361,34944
1362,34944
1363,34816
1364,34688
1365,34688
1366,34688
1367,34624
1368,34560
1369,34368
1370,34240
1371,34176
1372,34176
1373,34112
1374,34048
1375,33920
1376,33920
1377,33920
1378,34048
1379,34048
1380,34048
1381,33984
1382,34048
1383,34176
1384,34304
1385,34368
1386,34432
1387,34496
1388,34560
1389,34624
1390,34624
1391,34624
1392,34624
1393,34688
1394,34752
1395,34880
1396,34880
1397,34752
1398,34752
1399,34688
1400,34688
1401,34752
1402,34816
1403,34816
1404,34880
1405,34880
1406,34880
1407,34880
1408,34816
1409,34816
1410,34816
1411,34816
1412,34752
1413,34688
1414,34752
1415,34752
1416,34816
1417,34752
1418,34624
1419,34560
1420,34688
1421,34752
1422,34688
1423,34688
1424,34688
1425,34688
1426,34624
1427,34688
1428,34752
1429,34816
1430,34816
1431,34816
1432,34816
1433,34752
1434,34752
1435,34816
1436,34880
1437,34816
1438,34880
1439,34880
1440,34880
1441,34944
1442,34880
1443,34880
1444,34880
1445,34880
1446,34816
1447,34816
1448,34816
1449,34752
1450,34752
1451,34752
1452,34688
1453,34880
1454,34880
1455,34816
1456,34816
1457,34880
1458,34944
1459,34944
1460,34944
1461,34944
1462,35072
1463,35136
1464,35136
1465,35136
1466,35072
1467,35136
1468,35136
1469,35200
1470,35328
1471,35328
1472,35200
1473,35264
1474,35328
1475,35392
1476,35328
1477,35264
1478,35200
1479,35200
1480,35136
1481,34944
1482,34880
1483,34560
1484,34368
1485,34240
1486,34176
1487,34176
1488,34240
1489,34240
1490,34176
1491,34240
1492,34304
1493,34368
1494,34432
1495,34496
1496,34496
1497,34432
1498,34496
1499,34688
1500,35136
1501,35904
1502,37184
1503,39040
1504,41600
1505,44032
1506,44864
1507,43904
1508,41856
1509,39616
1510,37632
1511,35968
1512,34560
1513,33536
1514,32896
1515,32512
1516,32256
1517,32064
1518,32000
1519,31936
1520,32000
1521,32064
1522,32256
1523,32512
1524,32704
1525,32896
1526,33024
1527,33024
1528,33344
1529,33536
1530,33728
1531,33856
1532,33856
1533,33984
1534,34112
1535,34112
1536,34176
1537,34240
1538,34304
1539,34368
1540,34432
1541,34560
1542,34496
1543,34624
1544,34688
1545,34688
1546,34752
1547,34752
1548,34816
1549,34944
1550,35072
1551,35264
1552,35264
1553,35200
1554,35200
1555,35200
1556,35264
1557,35200
1558,35264
1559,35264
1560,35200
1561,35200
1562,35136
1563,35072
1564,35008
1565,34944
1566,34944
1567,34816
1568,34752
1569,34624
1570,34624
1571,34560
1572,34496
1573,34432
1574,34432
1575,34368
1576,34240
1577,34176
1578,34048
1579,33920
1580,33856
1581,33728
1582,33600
1583,33600
1584,33536
1585,33536
1586,33600
1587,33600
1588,33600
1589,33600
1590,33728
1591,33728
1592,33728
1593,33920
1594,34048
1595,34048
1596,34048
1597,34048
1598,34048
1599,34048
1600,34112
1601,34240
1602,34240
1603,34368
1604,34368
1605,34368
1606,34368
1607,34368
1608,34432
1609,34560
1610,34560
1611,34496
1612,34496
1613,34432
1614,34304
1615,34304
1616,34240
1617,34240
1618,34176
1619,34176
1620,34240
1621,34240
1622,34240
1623,34240
1624,34176
1625,34176
1626,34240
1627,34176
1628,34240
1629,34176
1630,34112
1631,34048
1632,34112
1633,34112
1634,34048
1635,33984
1636,33984
1637,34048
1638,34112
1639,34112
1640,33984
1641,34048
1642,34048
1643,34112
1644,34112
1645,34176
1646,34240
1647,34304
1648,34240
1649,34176
1650,34048
1651,34048
1652,34048
1653,33984
1654,34048
1655,34048
1656,34048
1657,34112
1658,34176
1659,34240
1660,34240
1661,34176
1662,34240
1663,34176
1664,34112
1665,34112
1666,34048
1667,34112
1668,34112
1669,34112
1670,34048
1671,34048
1672,34112
1673,34176
1674,34240
1675,34368
1676,34496
1677,34560
1678,34496
1679,34496
1680,34496
1681,34432
1682,34432
1683,34368
1684,34432
1685,34560
1686,34624
1687,34688
1688,34624
1689,34560
1690,34496
1691,34304
1692,34240
1693,34048
1694,33920
1695,33792
1696,33600
1697,33536
1698,33472
1699,33472
1700,33600
1701,33664
1702,33536
1703,33472
1704,33536
1705,33664
1706,33792
1707,33792
1708,33856
1709,33856
1710,33920
1711,34112
1712,34560
1713,35456
1714,36992
1715,39168
1716,41728
1717,43776
1718,44096
1719,42752
1720,40576
1721,38464
1722,36544
1723,34816
1724,33472
1725,32512
1726,31936
1727,31616
1728,31424
1729,31296
1730,31232
1731,31232
1732,31296
1733,31424
1734,31616
1735,31808
1736,32064
1737,32064
1738,32320
1739,32512
1740,32768
1741,32896
1742,32960
1743,32960
1744,33088
1745,33280
1746,33408
1747,33472
1748,33536
1749,33600
1750,33664
1751,33792
1752,33728
1753,33920
1754,33984
1755,33920
1756,33856
1757,33856
1758,33920
1759,34112
1760,34240
1761,34368
1762,34368
1763,34368
1764,34368
1765,34432
1766,34496
1767,34496
1768,34496
1769,34496
1770,34560
1771,34560
1772,34624
1773,34688
1774,34688
1775,34560
1776,34432
1777,34304
1778,34240
1779,34176
1780,34048
1781,33920
1782,33856
1783,33920
1784,33920
1785,33856
1786,33728
1787,33600
1788,33536
1789,33472
1790,33344
1791,33216
1792,33152
1793,33088
1794,33088
1795,33024
1796,33024
1797,33024
1798,33024
1799,33088
1800,33152
1801,33216
1802,33216
1803,33280
1804,33280
1805,33344
1806,33472
1807,33408
1808,33344
1809,33408
1810,33472
1811,33600
1812,33600
1813,33728
1814,33792
1815,33792
1816,33856
1817,33920
1818,33920
1819,34048
1820,34176
1821,34176
1822,34176
1823,34048
1824,33984
1825,33920
1826,33856
1827,33792
1828,33728
1829,33792
1830,33792
1831,33856
1832,33920
1833,33920
1834,33920
1835,33856
1836,33856
1837,33856
1838,33856
1839,33920
1840,33920
1841,33920
1842,33856
1843,33920
1844,33920
1845,33920
1846,33920
1847,33792
1848,33728
1849,33664
1850,33600
1851,33536
1852,33600
1853,33728
1854,33792
1855,33920
1856,33984
1857,33984
1858,34048
1859,34112
1860,34048
1861,34048
1862,33984
1863,33856
1864,33792
1865,33664
1866,33920
1867,34304
1868,34176
1869,33856
1870,33600
1871,33536
1872,33664
1873,34176
1874,34816
1875,35072
1876,34944
1877,34624
1878,34112
1879,33600
1880,33408
1881,33472
1882,33792
1883,33984
1884,34112
1885,34240
1886,34304
1887,34368
1888,34432
1889,34752
1890,35392
1891,35968
1892,35648
1893,34752
1894,33984
1895,33408
1896,32960
1897,33024
1898,33216
1899,33152
1900,33024
1901,33088
1902,33152
1903,33152
1904,33152
1905,33216
1906,33344
1907,33600
1908,33920
1909,34048
1910,34048
1911,33792
1912,33664
1913,33792
1914,34176
1915,34752
1916,35264
1917,35776
1918,37248
1919,39488
1920,42112
1921,43648
1922,43520
1923,42112
1924,40320
1925,38208
1926,35968
1927,34112
1928,32832
1929,32064
1930,31680
1931,31296
1932,31104
1933,30976
1934,30976
1935,31040
1936,31232
1937,31488
1938,31744
1939,31936
1940,32128
1941,32384
1942,32512
1943,32640
1944,32832
1945,32896
1946,33216
1947,33152
1948,33408
1949,33408
1950,33472
1951,33536
1952,33728
1953,33728
1954,33536
1955,33472
1956,33472
1957,33536
1958,33472
1959,33472
1960,33536
1961,33600
1962,33664
1963,33792
1964,33984
1965,34368
1966,34752
1967,34944
1968,35008
1969,35072
1970,35008
1971,34944
1972,34880
1973,34688
1974,34560
1975,34304
1976,34240
1977,34176
1978,34304
1979,34432
1980,34496
1981,34496
1982,34688
1983,35072
1984,34880
1985,34368
1986,34112
1987,34048
1988,33856
1989,33920
1990,33920
1991,33536
1992,33088
1993,32768
1994,32640
1995,32768
1996,32960
1997,33088
1998,33280
1999,33664
2000,33920
2001,33856
2002,33664
2003,33408
2004,33216
2005,33344
2006,33408
2007,33088
2008,32896
2009,33088
2010,33408
2011,33664
2012,33856
2013,33984
2014,33728
2015,33664
2016,33920
2017,34048
2018,34176
2019,34176
2020,34432
2021,35072
2022,35200
2023,34752
2024,34240
2025,33856
2026,33600
2027,33664
2028,33728
2029,33856
2030,34112
2031,34176
2032,34304
2033,34560
2034,34624
2035,34560
2036,34432
2037,34240
2038,34304
2039,34432
2040,34368
2041,34240
2042,34240
2043,34112
2044,34048
2045,33984
2046,33920
2047,34048
2048,34240
2049,34368
2050,34368
2051,34304
2052,34304
2053,34304
2054,34304
2055,34240
2056,34176
2057,34240
2058,34304
2059,34240
2060,34304
2061,34368
2062,34304
2063,34368
2064,34368
2065,34432
2066,34368
2067,34304
2068,34432
2069,34432
2070,34560
2071,34688
2072,34752
2073,34880
2074,35008
2075,35008
2076,35136
2077,35008
2078,34752
2079,34688
2080,34816
2081,35072
2082,35264
2083,35392
2084,35008
2085,34368
2086,33920
2087,33792
2088,33856
2089,33984
2090,34048
2091,33920
2092,33920
2093,33856
2094,33856
2095,33856
2096,33920
2097,33792
2098,33600
2099,33728
2100,34304
2101,34688
2102,34304
2103,33728
2104,33472
2105,33728
2106,34240
2107,34240
2108,34304
2109,35200
2110,36800
2111,38976
2112,41536
2113,43712
2114,44096
2115,42880
2116,40704
2117,38528
2118,36608
2119,35200
2120,33856
2121,32704
2122,31872
2123,31360
2124,31168
2125,31232
2126,31424
2127,31552
2128,31360
2129,31424
2130,31552
2131,31872
2132,32256
2133,32512
2134,32576
2135,32704
2136,32960
2137,33152
2138,33600
2139,33984
2140,34112
2141,34176
2142,34304
2143,34112
2144,33984
2145,33984
2146,34112
2147,34368
2148,34560
2149,34816
2150,34944
2151,34944
2152,34880
2153,34752
2154,34816
2155,35200
2156,35584
2157,35840
2158,35776
2159,35584
2160,35520
2161,35584
2162,35776
2163,35968
2164,35904
2165,35712
2166,35520
2167,35456
2168,35584
2169,35776
2170,35904
2171,35840
2172,35968
2173,36032
2174,35968
2175,35840
2176,35904
2177,35840
2178,35520
2179,34944
2180,34432
2181,34048
2182,33920
2183,33920
2184,34048
2185,34176
2186,34304
2187,34368
2188,34304
2189,33920
2190,33792
2191,34112
2192,34304
2193,34240
2194,33984
2195,33984
2196,33984
2197,33728
2198,33536
2199,33472
2200,33536
2201,33600
2202,33664
2203,33856
2204,33984
2205,34048
2206,34176
2207,34432
2208,34560
2209,34624
2210,34752
2211,34880
2212,34816
2213,34624
2214,34560
2215,34432
2216,34304
2217,34304
2218,34432
2219,34560
2220,34688
2221,34752
2222,34752
2223,34688
2224,34624
2225,34624
2226,34624
2227,34560
2228,34560
2229,34560
2230,34688
2231,34688
2232,34624
2233,34432
2234,34368
2235,34368
2236,34368
2237,34624
2238,34624
2239,34560
2240,34496
2241,34432
2242,34368
2243,34368
2244,34432
2245,34560
2246,34752
2247,35008
2248,34816
2249,34624
2250,34496
2251,34432
2252,34560
2253,34560
2254,34560
2255,34560
2256,34688
2257,34752
2258,34816
2259,34816
2260,34880
2261,34880
2262,35008
2263,35136
2264,35264
2265,35200
2266,35136
2267,35072
2268,35136
2269,35264
2270,35456
2271,35584
2272,35584
2273,35520
2274,35456
2275,35392
2276,35264
2277,35136
2278,35008
2279,34880
2280,34752
2281,34624
2282,34496
2283,34368
2284,34368
2285,34432
2286,34560
2287,34624
2288,34688
2289,34752
2290,34880
2291,34880
2292,34880
2293,34816
2294,34880
2295,35136
2296,35520
2297,36288
2298,37376
2299,39040
2300,41408
2301,43968
2302,45440
2303,44992
2304,43136
2305,40832
2306,38592
2307,36736
2308,35200
2309,34112
2310,33344
2311,32960
2312,32832
2313,32704
2314,32704
2315,32768
2316,32832
2317,32896
2318,32896
2319,33024
2320,33280
2321,33600
2322,33856
2323,34112
2324,34240
2325,34368
2326,34496
2327,34624
2328,34688
2329,34752
2330,34752
2331,34752
2332,34752
2333,34816
2334,34816
2335,34944
2336,35136
2337,35264
2338,35264
2339,35264
2340,35328
2341,35392
2342,35520
2343,35648
2344,35712
2345,35712
2346,35712
2347,35776
2348,35712
2349,35712
2350,35712
2351,35840
2352,35968
2353,36160
2354,36224
2355,36224
2356,36224
2357,36160
2358,36032
2359,35904
2360,35904
2361,35904
2362,35840
2363,35712
2364,35584
2365,35456
2366,35392
2367,35264
2368,35200
2369,35200
2370,35200
2371,35136
2372,35008
2373,34880
2374,34752
2375,34624
2376,34496
2377,34368
2378,34304
2379,34304
2380,34240
2381,34112
2382,34176
2383,34176
2384,34240
2385,34240
2386,34304
2387,34368
2388,34432
2389,34368
2390,34368
2391,34432
2392,34496
2393,34624
2394,34624
2395,34688
2396,34816
2397,34880
2398,34880
2399,35008
2400,35072
2401,35136
2402,35200
2403,35264
2404,35392
2405,35456
2406,35456
2407,35392
2408,35328
2409,35264
2410,35200
2411,35008
2412,34944
2413,34880
2414,34944
2415,35072
2416,35136
2417,35200
2418,35200
2419,35200
2420,35136
2421,35072
2422,35008
2423,35008
2424,35072
2425,35072
2426,35008
2427,34880
2428,34880
2429,34944
2430,35008
2431,35008
2432,34944
2433,34816
2434,34752
2435,34816
2436,34944
2437,34944
2438,34944
2439,34880
2440,34880
2441,34880
2442,34880
2443,34880
2444,34816
2445,34816
2446,34816
2447,34880
2448,34944
2449,35072
2450,35072
2451,35136
2452,35136
2453,35200
2454,35264
2455,35200
2456,35136
2457,35072
2458,35008
2459,34944
2460,35136
2461,35264
2462,35200
2463,35072
2464,35072
2465,35072
2466,35008
2467,34880
2468,34752
2469,34560
2470,34304
2471,34112
2472,33920
2473,33856
2474,33856
2475,33792
2476,33728
2477,33728
2478,33856
2479,34048
2480,34304
2481,34368
2482,34304
2483,34240
2484,34496
2485,34752
2486,35008
2487,35392
2488,36160
2489,37504
2490,39488
2491,42176
2492,43776
2493,43904
2494,42496
2495,40320
2496,38208
2497,36352
2498,34752
2499,33408
2500,32512
2501,32064
2502,31936
2503,31936
2504,31808
2505,31808
2506,31744
2507,31808
2508,31936
2509,32128
2510,32448
2511,32640
2512,32640
2513,32704
2514,32704
2515,32832
2516,33088
2517,33344
2518,33600
2519,33728
2520,33728
2521,33664
2522,33664
2523,33792
2524,33856
2525,33984
2526,33920
2527,33792
2528,33792
2529,33920
2530,34048
2531,34176
2532,34240
2533,34240
2534,34176
2535,34240
2536,34304
2537,34368
2538,34432
2539,34432
2540,34496
2541,34688
2542,34816
2543,34752
2544,34688
2545,34560
2546,34496
2547,34560
2548,34688
2549,34816
2550,34816
2551,34688
2552,34560
2553,34496
2554,34304
2555,34176
2556,34112
2557,34048
2558,33984
2559,33920
2560,34048
2561,34176
2562,34112
2563,33920
2564,33536
2565,33280
2566,33216
2567,33280
2568,33216
2569,33024
2570,32768
2571,32640
2572,32704
2573,32896
2574,33024
2575,33024
2576,33024
2577,32960
2578,32960
2579,33216
2580,33408
2581,33536
2582,33472
2583,33472
2584,33536
2585,33536
2586,33472
2587,33472
2588,33408
2589,33344
2590,33344
2591,33472
2592,33664
2593,33792
2594,33856
2595,33856
2596,33792
2597,33664
2598,33600
2599,33600
2600,33664
2601,33600
2602,33472
2603,33408
2604,33408
2605,33408
2606,33344
2607,33344
2608,33344
2609,33280
2610,33344
2611,33408
2612,33408
2613,33472
2614,33472
2615,33472
2616,33472
2617,33344
2618,33280
2619,33280
2620,33216
2621,33280
2622,33408
2623,33472
2624,33344
2625,33280
2626,33344
2627,33408
2628,33408
2629,33280
2630,33152
2631,33152
2632,33216
2633,33280
2634,33408
2635,33536
2636,33600
2637,33728
2638,33856
2639,33920
2640,33792
2641,33728
2642,33728
2643,33664
2644,33664
2645,33792
2646,33792
2647,33664
2648,33472
2649,33472
2650,33472
2651,33536
2652,33536
2653,33472
2654,33344
2655,33216
2656,33152
2657,32960
2658,32832
2659,32768
2660,32704
2661,32704
2662,32768
2663,32704
2664,32640
2665,32640
2666,32704
2667,32832
2668,32896
2669,32832
2670,32768
2671,32896
2672,33216
2673,33728
2674,34624
2675,36160
2676,38208
2677,40640
2678,42624
2679,42944
2680,41600
2681,39424
2682,37056
2683,35328
2684,33728
2685,32384
2686,31488
2687,31040
2688,30976
2689,30912
2690,30912
2691,30976
2692,31040
2693,31232
2694,31296
2695,31296
2696,31360
2697,31424
2698,31488
2699,31872
2700,32192
2701,32448
2702,32576
2703,32576
2704,32576
2705,32640
2706,32768
2707,32896
2708,32896
2709,32960
2710,33152
2711,33344
2712,33472
2713,33536
2714,33536
2715,33536
2716,33536
2717,33536
2718,33600
2719,33728
2720,33792
2721,33984
2722,34176
2723,34304
2724,34240
2725,34240
2726,34176
2727,34048
2728,34048
2729,34112
2730,34368
2731,34560
2732,34752
2733,34688
2734,34496
2735,34368
2736,34368
2737,34368
2738,34304
2739,34240
2740,34176
2741,34112
2742,34048
2743,33984
2744,33920
2745,33920
2746,33920
2747,33792
2748,33536
2749,33344
2750,33344
2751,33472
2752,33536
2753,33536
2754,33472
2755,33408
2756,33280
2757,33152
2758,33152
2759,33152
2760,33216
2761,33280
2762,33216
2763,33216
2764,33280
2765,33344
2766,33408
2767,33536
2768,33792
2769,34112
2770,34176
2771,34112
2772,34048
2773,33984
2774,34048
2775,34176
2776,34240
2777,34240
2778,34240
2779,34240
2780,34112
2781,34112
2782,34112
2783,34176
2784,34176
2785,34176
2786,34176
2787,34240
2788,34240
2789,34304
2790,34240
2791,34176
2792,34112
2793,33984
2794,33920
2795,33856
2796,33920
2797,33920
2798,33984
2799,33984
2800,33984
2801,33920
2802,33856
2803,33856
2804,33920
2805,33984
2806,34048
2807,34048
2808,33984
2809,33856
2810,33856
2811,33792
2812,33728
2813,33792
2814,33856
2815,33984
2816,34048
2817,34112
2818,34176
2819,34304
2820,34368
2821,34368
2822,34368
2823,34368
2824,34368
2825,34368
2826,34432
2827,34432
2828,34432
2829,34432
2830,34368
2831,34304
2832,34240
2833,34176
2834,34048
2835,33920
2836,33728
2837,33600
2838,33408
2839,33344
2840,33344
2841,33344
2842,33408
2843,33536
2844,33664
2845,33728
2846,33856
2847,33984
2848,33920
2849,33792
2850,33856
2851,34048
2852,34240
2853,34624
2854,35392
2855,36800
2856,38848
2857,41408
2858,43456
2859,43904
2860,42624
2861,40512
2862,38272
2863,36544
2864,35008
2865,33856
2866,32960
2867,32512
2868,32192
2869,32000
2870,31872
2871,31744
2872,31680
2873,31744
2874,31872
2875,32000
2876,32128
2877,32320
2878,32576
2879,32768
2880,32960
2881,33088
2882,33280
2883,33344
2884,33472
2885,33600
2886,33664
2887,33792
2888,33920
2889,33984
2890,33984
2891,34048
2892,34112
2893,34176
2894,34176
2895,34176
2896,34240
2897,34304
2898,34368
2899,34432
2900,34432
2901,34496
2902,34560
2903,34560
2904,34624
2905,34752
2906,34816
2907,34880
2908,34816
2909,34880
2910,34944
2911,35008
2912,35008
2913,35008
2914,34944
2915,34944
2916,34816
2917,34752
2918,34624
2919,34560
2920,34496
2921,34432
2922,34432
2923,34432
2924,34368
2925,34240
2926,34176
2927,33984
2928,33856
2929,33728
2930,33600
2931,33536
2932,33408
2933,33344
2934,33280
2935,33280
2936,33280
2937,33344
2938,33280
2939,33280
2940,33344
2941,33408
2942,33408
2943,33472
2944,33472
2945,33536
2946,33600
2947,33664
2948,33728
2949,33728
2950,33792
2951,33792
2952,33856
2953,33856
2954,33920
2955,34048
2956,34048
2957,34112
2958,34112
2959,34176
2960,34112
2961,34112
2962,34112
2963,34112
2964,34112
2965,34048
2966,34048
2967,33984
2968,33984
2969,33984
2970,33920
2971,33920
2972,33920
2973,33856
2974,33792
2975,33728
2976,33728
2977,33728
2978,33728
2979,33728
2980,33728
2981,33728
2982,33728
2983,33792
2984,33792
2985,33792
2986,33792
2987,33792
2988,33856
2989,33856
2990,33792
2991,33792
2992,33856
2993,33856
2994,33856
2995,33856
2996,33920
2997,33984
2998,33984
2999,34112
3000,34176
3001,34176
3002,34240
3003,34240
3004,34240
3005,34304
3006,34368
3007,34496
3008,34496
3009,34496
3010,34496
3011,34368
3012,34304
3013,34240
3014,34176
3015,33984
3016,33856
3017,33664
3018,33536
3019,33408
3020,33408
3021,33408
3022,33408
3023,33472
3024,33472
3025,33472
3026,33472
3027,33600
3028,33600
3029,33664
3030,33664
3031,33792
3032,33920
3033,34176
3034,34496
3035,35264
3036,36480
3037,38336
3038,40832
3039,43136
3040,43968
3041,43008
3042,41024
3043,38784
3044,36736
3045,35008
3046,33664
3047,32512
3048,32000
3049,31680
3050,31488
3051,31296
3052,31232
3053,31296
3054,31424
3055,31616
3056,32000
3057,32000
3058,32320
3059,32512
3060,32640
3061,32896
3062,32832
3063,33088
3064,33152
3065,33280
3066,33344
3067,33408
3068,33536
3069,33600
3070,33664
3071,33792
3072,33728
3073,33856
3074,33920
3075,33984
3076,33984
3077,34048
3078,34048
3079,34112
3080,34176
3081,34304
3082,34368
3083,34368
3084,34432
3085,34496
3086,34560
3087,34560
3088,34624
3089,34688
3090,34752
3091,34752
3092,34752
3093,34752
3094,34688
3095,34624
3096,34560
3097,34496
3098,34496
3099,34432
3100,34432
3101,34432
3102,34368
3103,34240
3104,34112
3105,34048
3106,33984
3107,33920
3108,33792
3109,33664
3110,33600
3111,33536
3112,33472
3113,33408
3114,33408
3115,33344
3116,33280
3117,33280
3118,33216
3119,33216
3120,33216
3121,33216
3122,33216
3123,33280
3124,33344
3125,33344
3126,33408
3127,33472
3128,33600
3129,33600
3130,33664
3131,33728
3132,33728
3133,33792
3134,33856
3135,33920
3136,33984
3137,33984
3138,33984
3139,34048
3140,33984
3141,33984
3142,33984
3143,34048
3144,34048
3145,34112
3146,34048
3147,34048
3148,33920
3149,33920
3150,33920
3151,33920
3152,33920
3153,33920
3154,33920
3155,33920
3156,33920
3157,33920
3158,33920
3159,33856
3160,33856
3161,33856
3162,33856
3163,33920
3164,33856
3165,33792
3166,33728
3167,33664
3168,33664
3169,33664
3170,33728
3171,33792
3172,33792
3173,33856
3174,33856
3175,33856
3176,33856
3177,33856
3178,33920
3179,33920
3180,33984
3181,33984
3182,33984
3183,33984
3184,33984
3185,33920
3186,33920
3187,33984
3188,34048
3189,34112
3190,34240
3191,34304
3192,34304
3193,34304
3194,34304
3195,34304
3196,34304
3197,34432
3198,34496
3199,34496
3200,34432
3201,34304
3202,34176
3203,34112
3204,34048
3205,33920
3206,33792
3207,33728
3208,33536
3209,33408
3210,33344
3211,33280
3212,33280
3213,33280
3214,33344
3215,33408
3216,33472
3217,33472
3218,33536
3219,33536
3220,33600
3221,33664
3222,33664
3223,33984
3224,34304
3225,34944
3226,36096
3227,37760
3228,40000
3229,42560
3230,44032
3231,43712
3232,42048
3233,39808
3234,37632
3235,35712
3236,33856
3237,33600
3238,32064
3239,31616
3240,31360
3241,31232
3242,31168
3243,31232
3244,31360
3245,31488
3246,31680
3247,31808
3248,32064
3249,32256
3250,32384
3251,32576
3252,32704
3253,32832
3254,32960
3255,33088
3256,33152
3257,33216
3258,33344
3259,33472
3260,33536
3261,33600
3262,33600
3263,33664
3264,33728
3265,33856
3266,34048
3267,33984
3268,34240
3269,34304
3270,34304
3271,34368
3272,34368
3273,34432
3274,34432
3275,34496
3276,34560
3277,34560
3278,34624
3279,34688
3280,34752
3281,34816
3282,34752
3283,34816
3284,34816
3285,34816
3286,34752
3287,34752
3288,34752
3289,34752
3290,34624
3291,34560
3292,34496
3293,34368
3294,34304
3295,34304
3296,34240
3297,34176
3298,34112
3299,34048
3300,33920
3301,33792
3302,33728
3303,33600
3304,33472
3305,33408
3306,33344
3307,33344
3308,33280
3309,33216
3310,33216
3311,33152
3312,33152
3313,33216
3314,33152
3315,33216
3316,33280
3317,33344
3318,33472
3319,33600
3320,33664
3321,33728
3322,33856
3323,33920
3324,33920
3325,33920
3326,33920
3327,33856
3328,33920
3329,33984
3330,34048
3331,33984
3332,33920
3333,33856
3334,33856
3335,33856
3336,33920
3337,33920
3338,33984
3339,33984
3340,34048
3341,34048
3342,33984
3343,34048
3344,34048
3345,34112
3346,34048
3347,33984
3348,33920
3349,33920
3350,33856
3351,33856
3352,33856
3353,33856
3354,33856
3355,33856
3356,33856
3357,33856
3358,33856
3359,33856
3360,33856
3361,33856
3362,33856
3363,33856
3364,33920
3365,33984
3366,33920
3367,33856
3368,33856
3369,33920
3370,33984
3371,33984
3372,33984
3373,34048
3374,33984
3375,33984
3376,34048
3377,34048
3378,34048
3379,34048
3380,33984
3381,33984
3382,33984
3383,33920
3384,33984
3385,34048
3386,34112
3387,34112
3388,34240
3389,34304
3390,34368
3391,34368
3392,34368
3393,34432
3394,34432
3395,34432
3396,34496
3397,34432
3398,34368
3399,34304
3400,34240
3401,34112
3402,34048
3403,33920
3404,33728
3405,33536
3406,33408
3407,33280
3408,33216
3409,33216
3410,33216
3411,33280
3412,33344
3413,33408
3414,33408
3415,33472
3416,33536
3417,33536
3418,33600
3419,33664
3420,33792
3421,33856
3422,34112
3423,34752
3424,35968
3425,37696
3426,40000
3427,42496
3428,43840
3429,43328
3430,41536
3431,39104
3432,37056
3433,35200
3434,33728
3435,32576
3436,31872
3437,31424
3438,31168
3439,30976
3440,30912
3441,30912
3442,30976
3443,31104
3444,31296
3445,31552
3446,31872
3447,31808
3448,32192
3449,32320
3450,32512
3451,32640
3452,32768
3453,32832
3454,32960
3455,33088
3456,33216
3457,33280
3458,33344
3459,33408
3460,33408
3461,33408
3462,33408
3463,33536
3464,33600
3465,33664
3466,33728
3467,33792
3468,33856
3469,33920
3470,33984
3471,33984
3472,34048
3473,34112
3474,34240
3475,34304
3476,34368
3477,34368
3478,34496
3479,34496
3480,34432
3481,34432
3482,34432
3483,34368
3484,34240
3485,34112
3486,34048
3487,34048
3488,34112
3489,34112
3490,34048
3491,34048
3492,33984
3493,33920
3494,33856
3495,33856
3496,33792
3497,33664
3498,33536
3499,33408
3500,33280
3501,33152
3502,33088
3503,33024
3504,32960
3505,32896
3506,32896
3507,32832
3508,32832
3509,32768
3510,32832
3511,32832
3512,32896
3513,32960
3514,33024
3515,33024
3516,33088
3517,33088
3518,33152
3519,33280
3520,33344
3521,33408
3522,33408
3523,33472
3524,33472
3525,33472
3526,33536
3527,33536
3528,33536
3529,33600
3530,33600
3531,33664
3532,33664
3533,33664
3534,33600
3535,33600
3536,33600
3537,33536
3538,33536
3539,33536
3540,33536
3541,33472
3542,33408
3543,33344
3544,33344
3545,33280
3546,33280
3547,33280
3548,33280
3549,33344
3550,33344
3551,33408
3552,33344
3553,33408
3554,33408
3555,33408
3556,33408
3557,33344
3558,33344
3559,33408
3560,33408
3561,33408
3562,33408
3563,33408
3564,33408
3565,33408
3566,33344
3567,33408
3568,33408
3569,33344
3570,33344
3571,33408
3572,33472
3573,33472
3574,33536
3575,33536
3576,33536
3577,33472
3578,33472
3579,33536
3580,33600
3581,33728
3582,33664
3583,33792
3584,33856
3585,33856
3586,33856
3587,33856
3588,33792
3589,33856
3590,33984
3591,34112
3592,34112
3593,34048
3594,33984
3595,33920
3596,33856
3597,33792
3598,33664
3599,33536
3600,33344
3601,33216
3602,33088
3603,33024
3604,32960
3605,32896
3606,32960
3607,33024
3608,33088
3609,33152
3610,33216
3611,33344
3612,33408
3613,33408
3614,33472
3615,33600
3616,33792
3617,34048
3618,34688
3619,35776
3620,37376
3621,39552
3622,42048
3623,43648
3624,43456
3625,41728
3626,39296
3627,37312
3628,35392
3629,33856
3630,32640
3631,31872
3632,31424
3633,31232
3634,31104
3635,31040
3636,31104
3637,31168
3638,31296
3639,31488
3640,31680
3641,31872
3642,32064
3643,32192
3644,32384
3645,32512
3646,32704
3647,32832
3648,32960
3649,33088
3650,33216
3651,33344
3652,33408
3653,33472
3654,33536
3655,33600
3656,33728
3657,33664
3658,33792
3659,33792
3660,33856
3661,33920
3662,33920
3663,33984
3664,34048
3665,34048
3666,34112
3667,34176
3668,34304
3669,34432
3670,34560
3671,34624
3672,34688
3673,34752
3674,34816
3675,34816
3676,34816
3677,34816
3678,34752
3679,34688
3680,34688
3681,34624
3682,34560
3683,34496
3684,34432
3685,34368
3686,34368
3687,34304
3688,34304
3689,34240
3690,34176
3691,34112
3692,33984
3693,33856
3694,33792
3695,33728
3696,33664
3697,33536
3698,33472
3699,33344
3700,33344
3701,33344
3702,33280
3703,33280
3704,33344
3705,33344
3706,33344
3707,33408
3708,33536
3709,33536
3710,33600
3711,33664
3712,33664
3713,33664
3714,33728
3715,33792
3716,33856
3717,33920
3718,33984
3719,34048
3720,34112
3721,34112
3722,34112
3723,34176
3724,34176
3725,34240
3726,34240
3727,34240
3728,34240
3729,34240
3730,34240
3731,34304
3732,34240
3733,34304
3734,34240
3735,34176
3736,34176
3737,34176
3738,34112
3739,34048
3740,33984
3741,33984
3742,33984
3743,33984
3744,33984
3745,33984
3746,33984
3747,33984
3748,34048
3749,34048
3750,34048
3751,34112
3752,34048
3753,33984
3754,33920
3755,33920
3756,33984
3757,34048
3758,34048
3759,34048
3760,34048
3761,34112
3762,34048
3763,34112
3764,34112
3765,34112
3766,34112
3767,34112
3768,34112
3769,34048
3770,34112
3771,34112
3772,34176
3773,34176
3774,34176
3775,34176
3776,34112
3777,34112
3778,34112
3779,34176
3780,34304
3781,34368
3782,34432
3783,34560
3784,34624
3785,34624
3786,34560
3787,34560
3788,34560
3789,34624
3790,34688
3791,34688
3792,34624
3793,34496
3794,34432
3795,34368
3796,34240
3797,34112
3798,33984
3799,33856
3800,33728
3801,33664
3802,33600
3803,33600
3804,33600
3805,33664
3806,33728
3807,33792
3808,33792
3809,33856
3810,33920
3811,33984
3812,34048
3813,34176
3814,34240
3815,34432
3816,34752
3817,35328
3818,36416
3819,38016
3820,40256
3821,42944
3822,44288
3823,44032
3824,42240
3825,39936
3826,37824
3827,35968
3828,34432
3829,33216
3830,32448
3831,32000
3832,31744
3833,31616
3834,31552
3835,31552
3836,31680
3837,31680
3838,31872
3839,32064
3840,32256
3841,32448
3842,32512
3843,32640
3844,32832
3845,32960
3846,33088
3847,33216
3848,33344
3849,33472
3850,33600
3851,33728
3852,33664
3853,33792
3854,33920
3855,34048
3856,34176
3857,34176
3858,34176
3859,34176
3860,34112
3861,34112
3862,34048
3863,33984
3864,34048
3865,34176
3866,34560
3867,34496
3868,34880
3869,35008
3870,35072
3871,35072
3872,35072
3873,35072
3874,35072
3875,35008
3876,34944
3877,34752
3878,34624
3879,34432
3880,34432
3881,34368
3882,34240
3883,34176
3884,34112
3885,33856
3886,33728
3887,33728
3888,34048
3889,34304
3890,34560
3891,34624
3892,34560
3893,34432
3894,34240
3895,34048
3896,33728
3897,33664
3898,33344
3899,33088
3900,32896
3901,32832
3902,32896
3903,33024
3904,33088
3905,33280
3906,33408
3907,33536
3908,33728
3909,33856
3910,33856
3911,33600
3912,33536
3913,33472
3914,33536
3915,33728
3916,33664
3917,33472
3918,33344
3919,33280
3920,33536
3921,33920
3922,34240
3923,34304
3924,34240
3925,34176
3926,34112
3927,34112
3928,34176
3929,34176
3930,34112
3931,34048
3932,33984
3933,33984
3934,33920
3935,33856
3936,33728
3937,33728
3938,33792
3939,33856
3940,33792
3941,33664
3942,33600
3943,33664
3944,33856
3945,33920
3946,33984
3947,34048
3948,34048
3949,34048
3950,34112
3951,33920
3952,33664
3953,33472
3954,33344
3955,33472
3956,33792
3957,34112
3958,34176
3959,34176
3960,34176
3961,33984
3962,33984
3963,34112
3964,34112
3965,33984
3966,33792
3967,33664
3968,33600
3969,33728
3970,34048
3971,34368
3972,34368
3973,34240
3974,34048
3975,34048
3976,33984
3977,34112
3978,34240
3979,34304
3980,34304
3981,34240
3982,34112
3983,34112
3984,34240
3985,34496
3986,34560
3987,34624
3988,34624
3989,34624
3990,34560
3991,34560
3992,34560
3993,34496
3994,34432
3995,34368
3996,34112
3997,33792
3998,33600
3999,33600
4000,33600
4001,33472
4002,33344
4003,33280
4004,33408
4005,33536
4006,33600
4007,33664
4008,33664
4009,33664
4010,33792
4011,33856
4012,33920
4013,33920
4014,33984
4015,34176
4016,34432
4017,35072
4018,36160
4019,37952
4020,40448
4021,42944
4022,44096
4023,43456
4024,41408
4025,39040
4026,36992
4027,35264
4028,33792
4029,32768
4030,32000
4031,31616
4032,31488
4033,31424
4034,31488
4035,31552
4036,31680
4037,31808
4038,32000
4039,32192
4040,32320
4041,32448
4042,32640
4043,32768
4044,32896
4045,32960
4046,33088
4047,33216
4048,33344
4049,33472
4050,33600
4051,33728
4052,33728
4053,33728
4054,33856
4055,33984
4056,33984
4057,33920
4058,33920
4059,33984
4060,34048
4061,34112
4062,34240
4063,34368
4064,34496
4065,34560
4066,34688
4067,34688
4068,34752
4069,34752
4070,34752
4071,34688
4072,34752
4073,34752
4074,34752
4075,34816
4076,34752
4077,34624
4078,34624
4079,34688
4080,34688
4081,34688
4082,34624
4083,34560
4084,34496
4085,34432
4086,34368
4087,34304
4088,34304
4089,34176
4090,34048
4091,33856
4092,33728
4093,33728
4094,33664
4095,33600
4096,33600
4097,33472
4098,33344
4099,33216
4100,33088
4101,32960
4102,32896
4103,32832
4104,32896
4105,32960
4106,33024
4107,33152
4108,33216
4109,33344
4110,33408
4111,33472
4112,33536
4113,33600
4114,33664
4115,33664
4116,33728
4117,33728
4118,33792
4119,33856
4120,33920
4121,33984
4122,34048
4123,34112
4124,34112
4125,34048
4126,34048
4127,34048
4128,34048
4129,33984
4130,34048
4131,34048
4132,34112
4133,34112
4134,34048
4135,33984
4136,33984
4137,33920
4138,33792
4139,33728
4140,33728
4141,33792
4142,33856
4143,33920
4144,33920
4145,33920
4146,33984
4147,33984
4148,34048
4149,34048
4150,34048
4151,33984
4152,34048
4153,34048
4154,34048
4155,34048
4156,34112
4157,34112
4158,34176
4159,34176
4160,34176
4161,34176
4162,34240
4163,34240
4164,34176
4165,34048
4166,33984
4167,33984
4168,33984
4169,34048
4170,34112
4171,34240
4172,34304
4173,34304
4174,34304
4175,34432
4176,34816
4177,35008
4178,34688
4179,34304
4180,34112
4181,33984
4182,34176
4183,34624
4184,34624
4185,34496
4186,34368
4187,34368
4188,34240
4189,34112
4190,34048
4191,33984
4192,33856
4193,33152
4194,32320
4195,32128
4196,32896
4197,34176
4198,35200
4199,35136
4200,33664
4201,32128
4202,32128
4203,33280
4204,34240
4205,35008
4206,35456
4207,35072
4208,34752
4209,34880
4210,35264
4211,35712
4212,36992
4213,38464
4214,40320
4215,42048
4216,42816
4217,42048
4218,40256
4219,38400
4220,36800
4221,35072
4222,33280
4223,31936
4224,30656
4225,30272
4226,31104
4227,32448
4228,33600
4229,33984
4230,33664
4231,33088
4232,33152
4233,33664
4234,33856
4235,33728
4236,33088
4237,32512
4238,32192
4239,32128
4240,32320
4241,32320
4242,32192
4243,32128
4244,32384
4245,32768
4246,33024
4247,33856
4248,35072
4249,35456
4250,35136
4251,34752
4252,34432
4253,34112
4254,34048
4255,34112
4256,34176
4257,34240
4258,34112
4259,34112
4260,34432
4261,34816
4262,35136
4263,35200
4264,35136
4265,35072
4266,34752
4267,34048
4268,33408
4269,33088
4270,33408
4271,34048
4272,34752
4273,35392
4274,35520
4275,34944
4276,34304
4277,33984
4278,34112
4279,34496
4280,35072
4281,35648
4282,35392
4283,34688
4284,34368
4285,34176
4286,33856
4287,33408
4288,32960
4289,32704
4290,32256
4291,31680
4292,31168
4293,30976
4294,31424
4295,32320
4296,33280
4297,34112
4298,34880
4299,34816
4300,34496
4301,34176
4302,34304
4303,34176
4304,33600
4305,33216
4306,33152
4307,32960
4308,32448
4309,31872
4310,31808
4311,32192
4312,32832
4313,33472
4314,34048
4315,34368
4316,34624
4317,34880
4318,35008
4319,34944
4320,34304
4321,33472
4322,32768
4323,32320
4324,32512
4325,33024
4326,33152
4327,33152
4328,33024
4329,33024
4330,33344
4331,33728
4332,34112
4333,34304
4334,34112
4335,33600
4336,33408
4337,33408
4338,33280
4339,33024
4340,32960
4341,33024
4342,33216
4343,33280
4344,33280
4345,33024
4346,33088
4347,33344
4348,33856
4349,34048
4350,34304
4351,34112
4352,33408
4353,33024
4354,33024
4355,33344
4356,33792
4357,33856
4358,33664
4359,33344
4360,33408
4361,33856
4362,34368
4363,34624
4364,34304
4365,33728
4366,33472
4367,33536
4368,33792
4369,34176
4370,34560
4371,34880
4372,35008
4373,35072
4374,35008
4375,34688
4376,34432
4377,33984
4378,33536
4379,33216
4380,33024
4381,33024
4382,33088
4383,33280
4384,33728
4385,34112
4386,34176
4387,34048
4388,33920
4389,33728
4390,33664
4391,33984
4392,34432
4393,34688
4394,34752
4395,34688
4396,34752
4397,35264
4398,36480
4399,38336
4400,40896
4401,43328
4402,44224
4403,43392
4404,41280
4405,39104
4406,37184
4407,35520
4408,34304
4409,33536
4410,33088
4411,32768
4412,32512
4413,32256
4414,32128
4415,32000
4416,31872
4417,32000
4418,32320
4419,32640
4420,32960
4421,33152
4422,33344
4423,33600
4424,33728
4425,33856
4426,34176
4427,34432
4428,34560
4429,34688
4430,34624
4431,34560
4432,34496
4433,34624
4434,34816
4435,34880
4436,34752
4437,34752
4438,34816
4439,35008
4440,35328
4441,35456
4442,35456
4443,35456
4444,35584
4445,35648
4446,35712
4447,35776
4448,35776
4449,35904
4450,36096
4451,36096
4452,35968
4453,35840
4454,35712
4455,35648
4456,35776
4457,35776
4458,35648
4459,35392
4460,35328
4461,35328
4462,35584
4463,35712
4464,35584
4465,35392
4466,35264
4467,35200
4468,35200
4469,35264
4470,35328
4471,35264
4472,34816
4473,34304
4474,33984
4475,33856
4476,33792
4477,33920
4478,34048
4479,33984
4480,33984
4481,34112
4482,34240
4483,34176
4484,33984
4485,33856
4486,33792
4487,33920
4488,34112
4489,34112
4490,34176
4491,34176
4492,34176
4493,34112
4494,34112
4495,33984
4496,33792
4497,33856
4498,33920
4499,34048
4500,34240
4501,34368
4502,34432
4503,34240
4504,33984
4505,33984
4506,34048
4507,33792
4508,33536
4509,33408
4510,33472
4511,33600
4512,33856
4513,33920
4514,33792
4515,33536
4516,33344
4517,33216
4518,33152
4519,33152
4520,33280
4521,33280
4522,33280
4523,33344
4524,33344
4525,33344
4526,33408
4527,33472
4528,33536
4529,33536
4530,33472
4531,33408
4532,33280
4533,33216
4534,33216
4535,33216
4536,33152
4537,33088
4538,33088
4539,33088
4540,33088
4541,33152
4542,33152
4543,33216
4544,33280
4545,33472
4546,33536
4547,33536
4548,33536
4549,33536
4550,33472
4551,33344
4552,33344
4553,33408
4554,33408
4555,33344
4556,33216
4557,33216
4558,33216
4559,33088
4560,32896
4561,32768
4562,32576
4563,32448
4564,32384
4565,32320
4566,32256
4567,32192
4568,32256
4569,32256
4570,32256
4571,32256
4572,32384
4573,32448
4574,32448
4575,32448
4576,32512
4577,32704
4578,32768
4579,32960
4580,33536
4581,34752
4582,36480
4583,38848
4584,41408
4585,42688
4586,42112
4587,40064
4588,37824
4589,35840
4590,34240
4591,32896
4592,32000
4593,31360
4594,30976
4595,30720
4596,30592
4597,30464
4598,30464
4599,30592
4600,30720
4601,30976
4602,31232
4603,31488
4604,31680
4605,31872
4606,32064
4607,32192
4608,32320
4609,32512
4610,32640
4611,32768
4612,32896
4613,32960
4614,33088
4615,33216
4616,33280
4617,33344
4618,33408
4619,33472
4620,33600
4621,33664
4622,33792
4623,33920
4624,33984
4625,33984
4626,34048
4627,34112
4628,34112
4629,34176
4630,34240
4631,34304
4632,34304
4633,34304
4634,34368
4635,34432
4636,34496
4637,34496
4638,34496
4639,34432
4640,34432
4641,34432
4642,34368
4643,34304
4644,34240
4645,34240
4646,34176
4647,34176
4648,34112
4649,34048
4650,33984
4651,33920
4652,33856
4653,33792
4654,33792
4655,33664
4656,33536
4657,33344
4658,33216
4659,33152
4660,33088
4661,32960
4662,32896
4663,32896
4664,32896
4665,32832
4666,32832
4667,32832
4668,32896
4669,32960
4670,33024
4671,33024
4672,33088
4673,33088
4674,33152
4675,33216
4676,33344
4677,33408
4678,33408
4679,33472
4680,33472
4681,33472
4682,33472
4683,33536
4684,33600
4685,33600
4686,33600
4687,33600
4688,33664
4689,33664
4690,33664
4691,33600
4692,33600
4693,33536
4694,33536
4695,33472
4696,33472
4697,33472
4698,33472
4699,33472
4700,33408
4701,33408
4702,33408
4703,33344
4704,33344
4705,33344
4706,33344
4707,33344
4708,33408
4709,33408
4710,33408
4711,33408
4712,33408
4713,33472
4714,33472
4715,33472
4716,33472
4717,33536
4718,33536
4719,33536
4720,33536
4721,33600
4722,33664
4723,33664
4724,33792
4725,33920
4726,33984
4727,33984
4728,33984
4729,33984
4730,33984
4731,33984
4732,34048
4733,34176
4734,34240
4735,34176
4736,34048
4737,33920
4738,33856
4739,33792
4740,33728
4741,33600
4742,33408
4743,33280
4744,33088
4745,33024
4746,32960
4747,32960
4748,33024
4749,33088
4750,33152
4751,33152
4752,33216
4753,33280
4754,33344
4755,33408
4756,33408
4757,33472
4758,33536
4759,33792
4760,34048
4761,34752
4762,35968
4763,37760
4764,40384
4765,42688
4766,43776
4767,43072
4768,41024
4769,38720
4770,36672
4771,34944
4772,33472
4773,32640
4774,31936
4775,31616
4776,31360
4777,31232
4778,31104
4779,31104
4780,31168
4781,31296
4782,31488
4783,31616
4784,31808
4785,32000
4786,32192
4787,32384
4788,32512
4789,32640
4790,32768
4791,32832
4792,32960
4793,33088
4794,33216
4795,33280
4796,33344
4797,33408
4798,33408
4799,33472
4800,33536
4801,33600
4802,33664
4803,33728
4804,33792
4805,33856
4806,33920
4807,33920
4808,33984
4809,34048
4810,34112
4811,34176
4812,34240
4813,34304
4814,34368
4815,34432
4816,34432
4817,34496
4818,34496
4819,34496
4820,34496
4821,34496
4822,34496
4823,34496
4824,34432
4825,34368
4826,34368
4827,34304
4828,34240
4829,34240
4830,34176
4831,34176
4832,34112
4833,34048
4834,33984
4835,33856
4836,33792
4837,33664
4838,33600
4839,33472
4840,33344
4841,33280
4842,33280
4843,33216
4844,33152
4845,33152
4846,33152
4847,33152
4848,33216
4849,33216
4850,33280
4851,33344
4852,33408
4853,33472
4854,33536
4855,33600
4856,33664
4857,33728
4858,33792
4859,33792
4860,33856
4861,33856
4862,33856
4863,33920
4864,33920
4865,33920
4866,33920
4867,33920
4868,33920
4869,33920
4870,33920
4871,33920
4872,33920
4873,33920
4874,33920
4875,33920
4876,33920
4877,33856
4878,33856
4879,33792
4880,33792
4881,33792
4882,33792
4883,33728
4884,33792
4885,33792
4886,33792
4887,33728
4888,33792
4889,33792
4890,33792
4891,33792
4892,33792
4893,33792
4894,33792
4895,33792
4896,33856
4897,33856
4898,33856
4899,33856
4900,33856
4901,33856
4902,33792
4903,33856
4904,33856
4905,33856
4906,33920
4907,33984
4908,34048
4909,34176
4910,34304
4911,34368
4912,34432
4913,34432
4914,34432
4915,34368
4916,34368
4917,34368
4918,34496
4919,34560
4920,34560
4921,34496
4922,34368
4923,34240
4924,34176
4925,34112
4926,33984
4927,33792
4928,33664
4929,33536
4930,33408
4931,33344
4932,33280
4933,33344
4934,33344
4935,33408
4936,33408
4937,33472
4938,33536
4939,33600
4940,33664
4941,33664
4942,33728
4943,33792
4944,34048
4945,34368
4946,35072
4947,36288
4948,38016
4949,40448
4950,42944
4951,44032
4952,43264
4953,41216
4954,38912
4955,36864
4956,35136
4957,33728
4958,32704
4959,32064
4960,31680
4961,31488
4962,31360
4963,31296
4964,31296
4965,31360
4966,31488
4967,31680
4968,31872
4969,32064
4970,32256
4971,32448
4972,32576
4973,32704
4974,32832
4975,33024
4976,33088
4977,33216
4978,33280
4979,33344
4980,33408
4981,33472
4982,33536
4983,33600
4984,33664
4985,33728
4986,33792
4987,33856
4988,33920
4989,33920
4990,33984
4991,34048
4992,34112
4993,34176
4994,34240
4995,34304
4996,34368
4997,34432
4998,34496
4999,34496
5000,34560
5001,34560
5002,34560
5003,34560
5004,34560
5005,34560
5006,34624
5007,34560
5008,34560
5009,34496
5010,34496
5011,34432
5012,34368
5013,34368
5014,34304
5015,34240
5016,34240
5017,34176
5018,34112
5019,34112
5020,33984
5021,33920
5022,33792
5023,33664
5024,33600
5025,33472
5026,33408
5027,33344
5028,33280
5029,33152
5030,33152
5031,33088
5032,33088
5033,33152
5034,33152
5035,33216
5036,33280
5037,33344
5038,33408
5039,33472
5040,33536
5041,33600
5042,33664
5043,33728
5044,33728
5045,33792
5046,33792
5047,33792
5048,33792
5049,33792
5050,33792
5051,33856
5052,33856
5053,33856
5054,33856
5055,33856
5056,33856
5057,33856
5058,33856
5059,33792
5060,33792
5061,33792
5062,33728
5063,33728
5064,33728
5065,33728
5066,33664
5067,33664
5068,33600
5069,33600
5070,33600
5071,33664
5072,33664
5073,33664
5074,33600
5075,33600
5076,33600
5077,33600
5078,33664
5079,33664
5080,33664
5081,33664
5082,33728
5083,33728
5084,33728
5085,33728
5086,33728
5087,33728
5088,33728
5089,33728
5090,33792
5091,33792
5092,33856
5093,33856
5094,33920
5095,33984
5096,34048
5097,34176
5098,34240
5099,34304
5100,34368
5101,34304
5102,34240
5103,34240
5104,34304
5105,34432
5106,34560
5107,34496
5108,34432
5109,34304
5110,34240
5111,34112
5112,34048
5113,33920
5114,33792
5115,33600
5116,33472
5117,33344
5118,33280
5119,33280
5120,33280
5121,33344
5122,33472
5123,33536
5124,33600
5125,33664
5126,33664
5127,33728
5128,33728
5129,33792
5130,33920
5131,34112
5132,34496
5133,35200
5134,36416
5135,38272
5136,40704
5137,43072
5138,44096
5139,43200
5140,41088
5141,38784
5142,36736
5143,35072
5144,33728
5145,32768
5146,32128
5147,31808
5148,31552
5149,31424
5150,31360
5151,31360
5152,31424
5153,31552
5154,31744
5155,32000
5156,32256
5157,32384
5158,32576
5159,32704
5160,32896
5161,33024
5162,33152
5163,33216
5164,33280
5165,33408
5166,33472
5167,33536
5168,33600
5169,33664
5170,33728
5171,33856
5172,33920
5173,33920
5174,33984
5175,34048
5176,34112
5177,34176
5178,34240
5179,34304
5180,34368
5181,34432
5182,34496
5183,34496
5184,34560
5185,34624
5186,34624
5187,34688
5188,34688
5189,34688
5190,34688
5191,34752
5192,34688
5193,34688
5194,34688
5195,34624
5196,34624
5197,34560
5198,34560
5199,34496
5200,34432
5201,34432
5202,34368
5203,34368
5204,34304
5205,34304
5206,34240
5207,34176
5208,34048
5209,33920
5210,33792
5211,33728
5212,33664
5213,33600
5214,33536
5215,33472
5216,33408
5217,33408
5218,33408
5219,33408
5220,33408
5221,33408
5222,33472
5223,33472
5224,33536
5225,33600
5226,33664
5227,33728
5228,33792
5229,33856
5230,33856
5231,33920
5232,33984
5233,33984
5234,33984
5235,34048
5236,34112
5237,34112
5238,34112
5239,34112
5240,34112
5241,34112
5242,34112
5243,34112
5244,34112
5245,34112
5246,34112
5247,34048
5248,34048
5249,33984
5250,33984
5251,33984
5252,33984
5253,33984
5254,33984
5255,33984
5256,33984
5257,33984
5258,33984
5259,33984
5260,33984
5261,33984
5262,33984
5263,33984
5264,33920
5265,33984
5266,33984
5267,33984
5268,34048
5269,34048
5270,34048
5271,34048
5272,34048
5273,34112
5274,34112
5275,34112
5276,34112
5277,34112
5278,34112
5279,34112
5280,34112
5281,34112
5282,34112
5283,34176
5284,34176
5285,34176
5286,34176
5287,34176
5288,34176
5289,34304
5290,34368
5291,34432
5292,34560
5293,34624
5294,34688
5295,34688
5296,34624
5297,34560
5298,34560
5299,34624
5300,34816
5301,34816
5302,34752
5303,34624
5304,34560
5305,34432
5306,34368
5307,34304
5308,34112
5309,33984
5310,33792
5311,33664
5312,33536
5313,33536
5314,33536
5315,33536
5316,33600
5317,33664
5318,33792
5319,33792
5320,33856
5321,33920
5322,33920
5323,33920
5324,34048
5325,34176
5326,34496
5327,34944
5328,35776
5329,37120
5330,39104
5331,41664
5332,43776
5333,44224
5334,42880
5335,40640
5336,37888
5337,36288
5338,34816
5339,33600
5340,32704
5341,32192
5342,31872
5343,31680
5344,31552
5345,31552
5346,31616
5347,31744
5348,31872
5349,32064
5350,32256
5351,32448
5352,32576
5353,32768
5354,32896
5355,33024
5356,33152
5357,33280
5358,33344
5359,33472
5360,33536
5361,33600
5362,33664
5363,33728
5364,33792
5365,33856
5366,33984
5367,33984
5368,34048
5369,34112
5370,34176
5371,34240
5372,34304
5373,34304
5374,34368
5375,34368
5376,34432
5377,34496
5378,34496
5379,34560
5380,34624
5381,34688
5382,34688
5383,34688
5384,34688
5385,34688
5386,34688
5387,34688
5388,34688
5389,34688
5390,34624
5391,34560
5392,34560
5393,34496
5394,34496
5395,34496
5396,34432
5397,34432
5398,34432
5399,34368
5400,34304
5401,34240
5402,34176
5403,34112
5404,33984
5405,33856
5406,33728
5407,33664
5408,33600
5409,33472
5410,33472
5411,33408
5412,33408
5413,33408
5414,33344
5415,33408
5416,33408
5417,33472
5418,33536
5419,33600
5420,33664
5421,33728
5422,33792
5423,33856
5424,33856
5425,33920
5426,33920
5427,33920
5428,33984
5429,33984
5430,33984
5431,34048
5432,34048
5433,34048
5434,34048
5435,34048
5436,34048
5437,34048
5438,34112
5439,34112
5440,34048
5441,34048
5442,34048
5443,33984
5444,33984
5445,33984
5446,33984
5447,33984
5448,33920
5449,33920
5450,33920
5451,33920
5452,33920
5453,33920
5454,33920
5455,33920
5456,33920
5457,33984
5458,33984
5459,33984
5460,33984
5461,33984
5462,33984
5463,34048
5464,34048
5465,34048
5466,34048
5467,34048
5468,34048
5469,34048
5470,34048
5471,34112
5472,34112
5473,34048
5474,34048
5475,34112
5476,34112
5477,34176
5478,34176
5479,34176
5480,34176
5481,34240
5482,34240
5483,34304
5484,34304
5485,34368
5486,34496
5487,34560
5488,34624
5489,34688
5490,34688
5491,34688
5492,34688
5493,34688
5494,34816
5495,34944
5496,34944
5497,34880
5498,34752
5499,34688
5500,34624
5501,34560
5502,34432
5503,34304
5504,34112
5505,33920
5506,33856
5507,33792
5508,33792
5509,33792
5510,33856
5511,33920
5512,33984
5513,34048
5514,34112
5515,34176
5516,34240
5517,34240
5518,34304
5519,34432
5520,34688
5521,35072
5522,35648
5523,36736
5524,38400
5525,40640
5526,43136
5527,44352
5528,43712
5529,41728
5530,39424
5531,37312
5532,35840
5533,34560
5534,33664
5535,33024
5536,32640
5537,32384
5538,32256
5539,32064
5540,32000
5541,32064
5542,32192
5543,32320
5544,32512
5545,32704
5546,33024
5547,33088
5548,33216
5549,33344
5550,33536
5551,33664
5552,33728
5553,33856
5554,33984
5555,34048
5556,34112
5557,34240
5558,34304
5559,34368
5560,34432
5561,34496
5562,34560
5563,34560
5564,34688
5565,34752
5566,34816
5567,34880
5568,34944
5569,35008
5570,35136
5571,35136
5572,35200
5573,35264
5574,35264
5575,35328
5576,35328
5577,35328
5578,35328
5579,35392
5580,35392
5581,35392
5582,35392
5583,35392
5584,35328
5585,35328
5586,35264
5587,35200
5588,35200
5589,35136
5590,35136
5591,35072
5592,35008
5593,34944
5594,34880
5595,34816
5596,34752
5597,34624
5598,34560
5599,34496
5600,34368
5601,34240
5602,34112
5603,34048
5604,34048
5605,33984
5606,33920
5607,33920
5608,33920
5609,33920
5610,33984
5611,33984
5612,34048
5613,34048
5614,34112
5615,34240
5616,34304
5617,34368
5618,34432
5619,34432
5620,34432
5621,34496
5622,34496
5623,34560
5624,34624
5625,34624
5626,34688
5627,34688
5628,34752
5629,34752
5630,34752
5631,34688
5632,34688
5633,34624
5634,34624
5635,34560
5636,34560
5637,34560
5638,34560
5639,34496
5640,34496
5641,34496
5642,34432
5643,34496
5644,34496
5645,34496
5646,34496
5647,34432
5648,34432
5649,34432
5650,34432
5651,34432
5652,34432
5653,34432
5654,34432
5655,34432
5656,34432
5657,34432
5658,34432
5659,34432
5660,34432
5661,34432
5662,34432
5663,34432
5664,34432
5665,34368
5666,34368
5667,34368
5668,34368
5669,34432
5670,34496
5671,34560
5672,34624
5673,34688
5674,34752
5675,34816
5676,34752
5677,34752
5678,34688
5679,34688
5680,34752
5681,34880
5682,34880
5683,34816
5684,34752
5685,34688
5686,34624
5687,34496
5688,34432
5689,34240
5690,34112
5691,33920
5692,33792
5693,33728
5694,33664
5695,33664
5696,33664
5697,33728
5698,33728
5699,33792
5700,33856
5701,33856
5702,33920
5703,33984
5704,33984
5705,34048
5706,34240
5707,34560
5708,35008
5709,35904
5710,37312
5711,39296
5712,41792
5713,43840
5714,44160
5715,42752
5716,40448
5717,38272
5718,36288
5719,34752
5720,33472
5721,32640
5722,32128
5723,31808
5724,31616
5725,31488
5726,31424
5727,31424
5728,31552
5729,31680
5730,31872
5731,32064
5732,32192
5733,32384
5734,32576
5735,32768
5736,32896
5737,32960
5738,33088
5739,33152
5740,33280
5741,33344
5742,33408
5743,33472
5744,33536
5745,33600
5746,33728
5747,33792
5748,33856
5749,33920
5750,33984
5751,33984
5752,34048
5753,34112
5754,34112
5755,34176
5756,34304
5757,34304
5758,34368
5759,34368
5760,34432
5761,34496
5762,34560
5763,34624
5764,34624
5765,34688
5766,34688
5767,34688
5768,34688
5769,34688
5770,34624
5771,34560
5772,34496
5773,34432
5774,34432
5775,34304
5776,34304
5777,34240
5778,34240
5779,34176
5780,34112
5781,33984
5782,33920
5783,33792
5784,33664
5785,33600
5786,33472
5787,33408
5788,33280
5789,33216
5790,33152
5791,33152
5792,33088
5793,33088
5794,33088
5795,33088
5796,33152
5797,33152
5798,33216
5799,33280
5800,33280
5801,33408
5802,33408
5803,33472
5804,33536
5805,33600
5806,33664
5807,33728
5808,33728
5809,33792
5810,33792
5811,33792
5812,33856
5813,33856
5814,33856
5815,33856
5816,33856
5817,33856
5818,33856
5819,33792
5820,33792
5821,33792
5822,33792
5823,33792
5824,33792
5825,33792
5826,33792
5827,33792
5828,33792
5829,33728
5830,33728
5831,33728
5832,33664
5833,33664
5834,33728
5835,33728
5836,33728
5837,33728
5838,33728
5839,33792
5840,33728
5841,33792
5842,33728
5843,33728
5844,33728
5845,33728
5846,33792
5847,33728
5848,33792
5849,33792
5850,33792
5851,33792
5852,33792
5853,33792
5854,33792
5855,33792
5856,33792
5857,33792
5858,33792
5859,33792
5860,33792
5861,33856
5862,33856
5863,33856
5864,33984
5865,34048
5866,34176
5867,34240
5868,34304
5869,34304
5870,34240
5871,34176
5872,34176
5873,34240
5874,34368
5875,34496
5876,34432
5877,34304
5878,34176
5879,34112
5880,34048
5881,33984
5882,33856
5883,33664
5884,33536
5885,33408
5886,33280
5887,33216
5888,33152
5889,33152
5890,33216
5891,33280
5892,33280
5893,33408
5894,33472
5895,33472
5896,33536
5897,33536
5898,33600
5899,33792
5900,33984
5901,34368
5902,35072
5903,36288
5904,38016
5905,40320
5906,42944
5907,43776
5908,43008
5909,40960
5910,38656
5911,36544
5912,34880
5913,33536
5914,32512
5915,31936
5916,31616
5917,31360
5918,31232
5919,31168
5920,31232
5921,31296
5922,31424
5923,31616
5924,31744
5925,31936
5926,32128
5927,32256
5928,32448
5929,32576
5930,32704
5931,32832
5932,32960
5933,33024
5934,33088
5935,33152
5936,33280
5937,33344
5938,33408
5939,33472
5940,33536
5941,33600
5942,33664
5943,33728
5944,33792
5945,33856
5946,33920
5947,33984
5948,33984
5949,34048
5950,34112
5951,34176
5952,34240
5953,34240
5954,34304
5955,34368
5956,34432
5957,34496
5958,34496
5959,34496
5960,34496
5961,34496
5962,34432
5963,34432
5964,34432
5965,34368
5966,34304
5967,34304
5968,34240
5969,34176
5970,34176
5971,34176
5972,34112
5973,34112
5974,34048
5975,33920
5976,33856
5977,33792
5978,33664
5979,33600
5980,33472
5981,33408
5982,33344
5983,33216
5984,33152
5985,33152
5986,33088
5987,33088
5988,33088
5989,33088
5990,33088
5991,33088
5992,33152
5993,33216
5994,33280
5995,33344
5996,33344
5997,33408
5998,33472
5999,33536
6000,33600
6001,33600
6002,33664
6003,33664
6004,33728
6005,33728
6006,33792
6007,33792
6008,33792
6009,33856
6010,33856
6011,33856
6012,33856
6013,33856
6014,33856
6015,33792
6016,33792
6017,33728
6018,33728
6019,33728
6020,33664
6021,33664
6022,33664
6023,33664
6024,33664
6025,33664
6026,33664
6027,33664
6028,33664
6029,33664
6030,33664
6031,33664
6032,33664
6033,33664
6034,33664
6035,33664
6036,33664
6037,33664
6038,33664
6039,33728
6040,33728
6041,33728
6042,33728
6043,33728
6044,33728
6045,33792
6046,33792
6047,33792
6048,33792
6049,33728
6050,33728
6051,33792
6052,33792
6053,33792
6054,33792
6055,33792
6056,33792
6057,33856
6058,33856
6059,33856
6060,33856
6061,33920
6062,33920
6063,33984
6064,34048
6065,34112
6066,34176
6067,34240
6068,34240
6069,34240
6070,34176
6071,34176
6072,34176
6073,34304
6074,34368
6075,34368
6076,34240
6077,34176
6078,34048
6079,34048
6080,33984
6081,33856
6082,33728
6083,33536
6084,33344
6085,33280
6086,33216
6087,33152
6088,33216
6089,33280
6090,33344
6091,33408
6092,33472
6093,33536
6094,33600
6095,33600
6096,33664
6097,33728
6098,33856
6099,34048
6100,34368
6101,35008
6102,36160
6103,37760
6104,40000
6105,42432
6106,43776
6107,43264
6108,41280
6109,38976
6110,36928
6111,35200
6112,33792
6113,32768
6114,32128
6115,31744
6116,31552
6117,31360
6118,31296
6119,31296
6120,31360
6121,31488
6122,31680
6123,31872
6124,32000
6125,32192
6126,32384
6127,32576
6128,32704
6129,32832
6130,32960
6131,33088
6132,33152
6133,33216
6134,33344
6135,33408
6136,33472
6137,33536
6138,33536
6139,33600
6140,33664
6141,33728
6142,33792
6143,33856
6144,33920
6145,33984
6146,34048
6147,34112
6148,34176
6149,34176
6150,34304
6151,34368
6152,34368
6153,34432
6154,34432
6155,34496
6156,34496
6157,34560
6158,34560
6159,34560
6160,34560
6161,34560
6162,34496
6163,34496
6164,34432
6165,34368
6166,34368
6167,34304
6168,34304
6169,34240
6170,34240
6171,34176
6172,34176
6173,34112
6174,34048
6175,33984
6176,33856
6177,33728
6178,33664
6179,33536
6180,33472
6181,33408
6182,33344
6183,33280
6184,33216
6185,33152
6186,33088
6187,33088
6188,33088
6189,33152
6190,33152
6191,33216
6192,33280
6193,33344
6194,33408
6195,33472
6196,33536
6197,33600
6198,33664
6199,33664
6200,33728
6201,33728
6202,33792
6203,33792
6204,33856
6205,33856
6206,33920
6207,33920
6208,33920
6209,33920
6210,33920
6211,33920
6212,33920
6213,33920
6214,33920
6215,33920
6216,33856
6217,33856
6218,33856
6219,33856
6220,33856
6221,33856
6222,33856
6223,33856
6224,33856
6225,33856
6226,33856
6227,33856
6228,33920
6229,33920
6230,33920
6231,33920
6232,33920
6233,33920
6234,33920
6235,33920
6236,33920
6237,33920
6238,33920
6239,33920
6240,33984
6241,33984
6242,33984
6243,33984
6244,33984
6245,33984
6246,33984
6247,33984
6248,33984
6249,33984
6250,33984
6251,33984
6252,33984
6253,33984
6254,33984
6255,33984
6256,33984
6257,33984
6258,33984
6259,33984
6260,33920
6261,33920
6262,33920
6263,33920
6264,33920
6265,33920
6266,33984
6267,34048
6268,34112
6269,34240
6270,34304
6271,34432
6272,34432
6273,34368
6274,34368
6275,34304
6276,34304
6277,34432
6278,34496
6279,34496
6280,34432
6281,34304
6282,34240
6283,34176
6284,34112
6285,33984
6286,33792
6287,33600
6288,33472
6289,33408
6290,33344
6291,33344
6292,33344
6293,33408
6294,33408
6295,33472
6296,33536
6297,33600
6298,33664
6299,33664
6300,33728
6301,33792
6302,33920
6303,34112
6304,34432
6305,35008
6306,36032
6307,37632
6308,39808
6309,42304
6310,43776
6311,43392
6312,41408
6313,39232
6314,37184
6315,35456
6316,34048
6317,32960
6318,32320
6319,31936
6320,31680
6321,31552
6322,31424
6323,31424
6324,31488
6325,31616
6326,31744
6327,31936
6328,32064
6329,32256
6330,32448
6331,32640
6332,32768
6333,32960
6334,33088
6335,33152
6336,33280
6337,33408
6338,33472
6339,33536
6340,33600
6341,33664
6342,33792
6343,33792
6344,33856
6345,33920
6346,33984
6347,34048
6348,34048
6349,34112
6350,34176
6351,34240
6352,34304
6353,34368
6354,34432
6355,34496
6356,34560
6357,34560
6358,34624
6359,34624
6360,34688
6361,34752
6362,34752
6363,34752
6364,34752
6365,34752
6366,34688
6367,34688
6368,34624
6369,34560
6370,34496
6371,34496
6372,34432
6373,34432
6374,34432
6375,34432
6376,34368
6377,34304
6378,34240
6379,34176
6380,34112
6381,33984
6382,33920
6383,33792
6384,33664
6385,33600
6386,33536
6387,33472
6388,33408
6389,33408
6390,33344
6391,33344
6392,33344
6393,33344
6394,33344
6395,33408
6396,33472
6397,33536
6398,33600
6399,33664
6400,33728
6401,33728
6402,33792
6403,33792
6404,33856
6405,33856
6406,33920
6407,33920
6408,33920
6409,33984
6410,33984
6411,33984
6412,33984
6413,34048
6414,34048
6415,34048
6416,34048
6417,34048
6418,34048
6419,33984
6420,33984
6421,33984
6422,33920
6423,33920
6424,33920
6425,33920
6426,33920
6427,33920
6428,33920
6429,33920
6430,33920
6431,33920
6432,33856
6433,33856
6434,33856
6435,33856
6436,33856
6437,33856
6438,33856
6439,33920
6440,33920
6441,33920
6442,33920
6443,33920
6444,33856
6445,33920
6446,33920
6447,33856
6448,33920
6449,33920
6450,33920
6451,33920
6452,33920
6453,33856
6454,33920
6455,33920
6456,33920
6457,33920
6458,33920
6459,33920
6460,33984
6461,33984
6462,33984
6463,33984
6464,33920
6465,33920
6466,33920
6467,33984
6468,33984
6469,33984
6470,34048
6471,34048
6472,34112
6473,34240
6474,34304
6475,34368
6476,34368
6477,34368
6478,34368
6479,34304
6480,34368
6481,34496
6482,34560
6483,34496
6484,34432
6485,34368
6486,34240
6487,34176
6488,34112
6489,33984
6490,33792
6491,33600
6492,33472
6493,33408
6494,33344
6495,33344
6496,33408
6497,33408
6498,33472
6499,33536
6500,33600
6501,33664
6502,33728
6503,33728
6504,33792
6505,33792
6506,33920
6507,34176
6508,34496
6509,35136
6510,36224
6511,37888
6512,40128
6513,42560
6514,43776
6515,43136
6516,41152
6517,38848
6518,36800
6519,35200
6520,33920
6521,32896
6522,32256
6523,31872
6524,31616
6525,31488
6526,31360
6527,31360
6528,31424
6529,31552
6530,31744
6531,31936
6532,32128
6533,32320
6534,32512
6535,32640
6536,32768
6537,32896
6538,33024
6539,33088
6540,33216
6541,33280
6542,33344
6543,33408
6544,33472
6545,33600
6546,33664
6547,33728
6548,33792
6549,33792
6550,33920
6551,33984
6552,33984
6553,34048
6554,34112
6555,34176
6556,34240
6557,34304
6558,34304
6559,34304
6560,34368
6561,34432
6562,34496
6563,34560
6564,34624
6565,34624
6566,34624
6567,34624
6568,34624
6569,34624
6570,34560
6571,34560
6572,34496
6573,34496
6574,34432
6575,34368
6576,34304
6577,34304
6578,34240
6579,34240
6580,34176
6581,34112
6582,34048
6583,33984
6584,33856
6585,33792
6586,33664
6587,33600
6588,33472
6589,33408
6590,33344
6591,33280
6592,33216
6593,33152
6594,33152
6595,33152
6596,33152
6597,33152
6598,33152
6599,33280
6600,33344
6601,33408
6602,33408
6603,33472
6604,33536
6605,33600
6606,33600
6607,33664
6608,33728
6609,33728
6610,33792
6611,33792
6612,33856
6613,33856
6614,33920
6615,33920
6616,33920
6617,33920
6618,33920
6619,33984
6620,33984
6621,33920
6622,33920
6623,33920
6624,33920
6625,33856
6626,33856
6627,33920
6628,33856
6629,33856
6630,33856
6631,33856
6632,33856
6633,33856
6634,33792
6635,33792
6636,33792
6637,33792
6638,33792
6639,33792
6640,33792
6641,33792
6642,33792
6643,33792
6644,33856
6645,33856
6646,33856
6647,33856
6648,33856
6649,33856
6650,33856
6651,33856
6652,33920
6653,33920
6654,33920
6655,33920
6656,33920
6657,33984
6658,33984
6659,33984
6660,33984
6661,33984
6662,33984
6663,33984
6664,34048
6665,33984
6666,33984
6667,33984
6668,33984
6669,33984
6670,33984
6671,33984
6672,34048
6673,33984
6674,34048
6675,34048
6676,34048
6677,34048
6678,34112
6679,34112
6680,34176
6681,34304
6682,34368
6683,34496
6684,34496
6685,34496
6686,34496
6687,34432
6688,34432
6689,34496
6690,34624
6691,34688
6692,34624
6693,34496
6694,34368
6695,34240
6696,34176
6697,33984
6698,33856
6699,33664
6700,33536
6701,33472
6702,33408
6703,33408
6704,33408
6705,33536
6706,33536
6707,33600
6708,33664
6709,33728
6710,33728
6711,33728
6712,33792
6713,33856
6714,34048
6715,34304
6716,34688
6717,35520
6718,36800
6719,38592
6720,41088
6721,43328
6722,43392
6723,42624
6724,40384
6725,38144
6726,36224
6727,34688
6728,33472
6729,32576
6730,32064
6731,31744
6732,31680
6733,31424
6734,31360
6735,31360
6736,31488
6737,31488
6738,31808
6739,31936
6740,32128
6741,32320
6742,32448
6743,32640
6744,32768
6745,32896
6746,33024
6747,33024
6748,33216
6749,33280
6750,33344
6751,33408
6752,33472
6753,33536
6754,33600
6755,33664
6756,33728
6757,33792
6758,33856
6759,33920
6760,33920
6761,33984
6762,34048
6763,34112
6764,34176
6765,34240
6766,34304
6767,34240
6768,34368
6769,34368
6770,34432
6771,34432
6772,34432
6773,34496
6774,34496
6775,34560
6776,34560
6777,34496
6778,34560
6779,34496
6780,34432
6781,34368
6782,34304
6783,34304
6784,34304
6785,34240
6786,34176
6787,34176
6788,34112
6789,34112
6790,34048
6791,33984
6792,33920
6793,33792
6794,33664
6795,33600
6796,33472
6797,33408
6798,33216
6799,33152
6800,33088
6801,33088
6802,33088
6803,33088
6804,33088
6805,33152
6806,33216
6807,33216
6808,33344
6809,33408
6810,33472
6811,33536
6812,33600
6813,33600
6814,33664
6815,33728
6816,33792
6817,33792
6818,33856
6819,33856
6820,33856
6821,33856
6822,33856
6823,33920
6824,33920
6825,33920
6826,33984
6827,33920
6828,33920
6829,33920
6830,33920
6831,33920
6832,33856
6833,33856
6834,33856
6835,33856
6836,33856
6837,33792
6838,33792
6839,33792
6840,33728
6841,33792
6842,33728
6843,33728
6844,33728
6845,33728
6846,33728
6847,33728
6848,33728
6849,33728
6850,33728
6851,33792
6852,33792
6853,33792
6854,33728
6855,33792
6856,33728
6857,33728
6858,33792
6859,33792
6860,33856
6861,33856
6862,33856
6863,33856
6864,33856
6865,33856
6866,33856
6867,33856
6868,33856
6869,33856
6870,33856
6871,33856
6872,33920
6873,33920
6874,33920
6875,33920
6876,33920
6877,33920
6878,33984
6879,34048
6880,34112
6881,34240
6882,34304
6883,34368
6884,34368
6885,34304
6886,34304
6887,34304
6888,34432
6889,34496
6890,34496
6891,34432
6892,34304
6893,34240
6894,34176
6895,34112
6896,33984
6897,33792
6898,33600
6899,33472
6900,33344
6901,33280
6902,33280
6903,33280
6904,33280
6905,33344
6906,33408
6907,33408
6908,33536
6909,33600
6910,33600
6911,33664
6912,33664
6913,33792
6914,33984
6915,34304
6916,34880
6917,35840
6918,37376
6919,39552
6920,41984
6921,43456
6922,43072
6923,41152
6924,38848
6925,36864
6926,35264
6927,33984
6928,33024
6929,32384
6930,32000
6931,31744
6932,31616
6933,31488
6934,31424
6935,31488
6936,31552
6937,31744
6938,31936
6939,32128
6940,32256
6941,32512
6942,32640
6943,32768
6944,32896
6945,33024
6946,33152
6947,33216
6948,33280
6949,33408
6950,33472
6951,33536
6952,33600
6953,33664
6954,33728
6955,33792
6956,33856
6957,33920
6958,33984
6959,33984
6960,34048
6961,34112
6962,34176
6963,34240
6964,34240
6965,34304
6966,34368
6967,34432
6968,34496
6969,34560
6970,34624
6971,34624
6972,34624
6973,34624
6974,34624
6975,34624
6976,34624
6977,34624
6978,34560
6979,34496
6980,34496
6981,34432
6982,34368
6983,34304
6984,34240
6985,34240
6986,34176
6987,34176
6988,34048
6989,33984
6990,33984
6991,33856
6992,33728
6993,33664
6994,33536
6995,33408
6996,33280
6997,33216
6998,33216
6999,33216
7000,33216
7001,33152
7002,33152
7003,33152
7004,33152
7005,33152
7006,33216
7007,33280
7008,33344
7009,33408
7010,33472
7011,33536
7012,33600
7013,33664
7014,33728
7015,33792
7016,33856
7017,33856
7018,33920
7019,33984
7020,33984
7021,33984
7022,33984
7023,34048
7024,34048
7025,34048
7026,34048
7027,34048
7028,34048
7029,34048
7030,33984
7031,33984
7032,33984
7033,33984
7034,33984
7035,33920
7036,33920
7037,33920
7038,33856
7039,33856
7040,33856
7041,33920
7042,33920
7043,33856
7044,33856
7045,33856
7046,33920
7047,33856
7048,33856
7049,33856
7050,33920
7051,33920
7052,33920
7053,33920
7054,33920
7055,33920
7056,33984
7057,33984
7058,33984
7059,33984
7060,33984
7061,33984
7062,33984
7063,33984
7064,33984
7065,33984
7066,33984
7067,33984
7068,33984
7069,33984
7070,33984
7071,33984
7072,33984
7073,34048
7074,34048
7075,34176
7076,34240
7077,34368
7078,34432
7079,34432
7080,34432
7081,34368
7082,34368
7083,34432
7084,34560
7085,34624
7086,34688
7087,34624
7088,34496
7089,34368
7090,34240
7091,34176
7092,34112
7093,33984
7094,33856
7095,33664
7096,33536
7097,33408
7098,33408
7099,33344
7100,33344
7101,33408
7102,33472
7103,33536
7104,33536
7105,33600
7106,33664
7107,33664
7108,33728
7109,33792
7110,34048
7111,34368
7112,34816
7113,35712
7114,37120
7115,39040
7116,41472
7117,43456
7118,43712
7119,42304
7120,40000
7121,37568
7122,35904
7123,34432
7124,33280
7125,32448
7126,32000
7127,31744
7128,31552
7129,31424
7130,31424
7131,31424
7132,31552
7133,31680
7134,31872
7135,32064
7136,32256
7137,32448
7138,32576
7139,32768
7140,32896
7141,33024
7142,33088
7143,33152
7144,33280
7145,33344
7146,33408
7147,33472
7148,33536
7149,33664
7150,33728
7151,33792
7152,33856
7153,33920
7154,33984
7155,34048
7156,34112
7157,34112
7158,34176
7159,34240
7160,34304
7161,34368
7162,34432
7163,34432
7164,34496
7165,34560
7166,34624
7167,34688
7168,34752
7169,34816
7170,34816
7171,34816
7172,34816
7173,34752
7174,34752
7175,34688
7176,34624
7177,34560
7178,34560
7179,34496
7180,34432
7181,34368
7182,34304
7183,34176
7184,34112
7185,34048
7186,33920
7187,33792
7188,33728
7189,33600
7190,33536
7191,33408
7192,33344
7193,33216
7194,33152
7195,33088
7196,33088
7197,33088
7198,33088
7199,33088
7200,33152
7201,33216
7202,33280
7203,33280
7204,33344
7205,33408
7206,33408
7207,33472
7208,33536
7209,33600
7210,33664
7211,33728
7212,33792
7213,33792
7214,33856
7215,33856
7216,33920
7217,33920
7218,33920
7219,33984
7220,33984
7221,33984
7222,33984
7223,33984
7224,33984
7225,33984
7226,33984
7227,33920
7228,33920
7229,33920
7230,33920
7231,33920
7232,33856
7233,33856
7234,33856
7235,33792
7236,33792
7237,33792
7238,33792
7239,33792
7240,33792
7241,33792
7242,33792
7243,33792
7244,33792
7245,33792
7246,33792
7247,33728
7248,33728
7249,33728
7250,33728
7251,33728
7252,33728
7253,33728
7254,33728
7255,33792
7256,33792
7257,33792
7258,33792
7259,33792
7260,33792
7261,33792
7262,33792
7263,33792
7264,33728
7265,33728
7266,33728
7267,33792
7268,33792
7269,33792
7270,33792
7271,33792
7272,33792
7273,33792
7274,33792
7275,33792
7276,33792
7277,33856
7278,33920
7279,33984
7280,34112
7281,34176
7282,34240
7283,34304
7284,34304
7285,34240
7286,34240
7287,34240
7288,34304
7289,34432
7290,34496
7291,34432
7292,34368
7293,34240
7294,34176
7295,34112
7296,33984
7297,33792
7298,33664
7299,33536
7300,33408
7301,33344
7302,33280
7303,33280
7304,33344
7305,33344
7306,33408
7307,33472
7308,33536
7309,33600
7310,33600
7311,33664
7312,33728
7313,33792
7314,33984
7315,34240
7316,34880
7317,35648
7318,36864
7319,38720
7320,41152
7321,43392
7322,43840
7323,42624
7324,40384
7325,38144
7326,36224
7327,34624
7328,33408
7329,32576
7330,32064
7331,31680
7332,31552
7333,31424
7334,31360
7335,31360
7336,31488
7337,31616
7338,31808
7339,32064
7340,32192
7341,32384
7342,32576
7343,32768
7344,32896
7345,33024
7346,33088
7347,33216
7348,33280
7349,33344
7350,33472
7351,33536
7352,33600
7353,33664
7354,33728
7355,33792
7356,33856
7357,33920
7358,33984
7359,34048
7360,34112
7361,34176
7362,34176
7363,34240
7364,34304
7365,34368
7366,34368
7367,34432
7368,34496
7369,34560
7370,34624
7371,34688
7372,34752
7373,34816
7374,34816
7375,34816
7376,34816
7377,34816
7378,34752
7379,34752
7380,34688
7381,34624
7382,34560
7383,34560
7384,34496
7385,34432
7386,34432
7387,34304
7388,34304
7389,34176
7390,34112
7391,33984
7392,33856
7393,33792
7394,33664
7395,33536
7396,33472
7397,33408
7398,33280
7399,33216
7400,33216
7401,33152
7402,33152
7403,33152
7404,33152
7405,33152
7406,33216
7407,33216
7408,33280
7409,33344
7410,33408
7411,33472
7412,33536
7413,33600
7414,33664
7415,33728
7416,33728
7417,33792
7418,33792
7419,33856
7420,33920
7421,33920
7422,33920
7423,33920
7424,33920
7425,33920
7426,33984
7427,33984
7428,33984
7429,33984
7430,33984
7431,33920
7432,33920
7433,33856
7434,33856
7435,33856
7436,33792
7437,33792
7438,33792
7439,33792
7440,33792
7441,33792
7442,33792
7443,33792
7444,33728
7445,33728
7446,33728
7447,33728
7448,33728
7449,33728
7450,33728
7451,33728
7452,33728
7453,33792
7454,33792
7455,33792
7456,33792
7457,33792
7458,33792
7459,33856
7460,33792
7461,33792
7462,33792
7463,33792
7464,33856
7465,33856
7466,33856
7467,33792
7468,33856
7469,33856
7470,33792
7471,33792
7472,33792
7473,33792
7474,33792
7475,33792
7476,33792
7477,33792
7478,33856
7479,33856
7480,33856
7481,33856
7482,33856
7483,33856
7484,33920
7485,33984
7486,34048
7487,34112
7488,34240
7489,34304
7490,34368
7491,34368
7492,34368
7493,34304
7494,34368
7495,34432
7496,34560
7497,34560
7498,34496
7499,34368
7500,34304
7501,34240
7502,34112
7503,33984
7504,33792
7505,33664
7506,33536
7507,33408
7508,33344
7509,33280
7510,33280
7511,33344
7512,33408
7513,33408
7514,33472
7515,33536
7516,33600
7517,33664
7518,33664
7519,33664
7520,33792
7521,33984
7522,34240
7523,34752
7524,35648
7525,37120
7526,39936
7527,41600
7528,43456
7529,43584
7530,42048
7531,39744
7532,37568
7533,35712
7534,34240
7535,33152
7536,32384
7537,31936
7538,31680
7539,31488
7540,31360
7541,31296
7542,31360
7543,31424
7544,31616
7545,31808
7546,32000
7547,32192
7548,32384
7549,32512
7550,32704
7551,32832
7552,32960
7553,33088
7554,33152
7555,33280
7556,33344
7557,33408
7558,33472
7559,33536
7560,33600
7561,33664
7562,33728
7563,33728
7564,33792
7565,33856
7566,33920
7567,33984
7568,34048
7569,34112
7570,34176
7571,34240
7572,34240
7573,34304
7574,34304
7575,34368
7576,34496
7577,34496
7578,34560
7579,34624
7580,34624
7581,34688
7582,34688
7583,34688
7584,34688
7585,34624
7586,34624
7587,34560
7588,34496
7589,34432
7590,34368
7591,34304
7592,34304
7593,34240
7594,34176
7595,34112
7596,34048
7597,33984
7598,33920
7599,33856
7600,33728
7601,33664
7602,33536
7603,33408
7604,33344
7605,33280
7606,33216
7607,33152
7608,33152
7609,33152
7610,33152
7611,33152
7612,33152
7613,33216
7614,33280
7615,33344
7616,33408
7617,33472
7618,33472
7619,33536
7620,33600
7621,33664
7622,33728
7623,33728
7624,33792
7625,33856
7626,33856
7627,33856
7628,33920
7629,33920
7630,33920
7631,33920
7632,33920
7633,33920
7634,33920
7635,33920
7636,33920
7637,33920
7638,33920
7639,33856
7640,33856
7641,33856
7642,33856
7643,33792
7644,33792
7645,33792
7646,33792
7647,33792
7648,33792
7649,33792
7650,33792
7651,33792
7652,33792
7653,33792
7654,33728
7655,33792
7656,33792
7657,33792
7658,33792
7659,33792
7660,33792
7661,33792
7662,33856
7663,33856
7664,33856
7665,33792
7666,33856
7667,33856
7668,33856
7669,33920
7670,33856
7671,33856
7672,33920
7673,33920
7674,33920
7675,33920
7676,33920
7677,33920
7678,33920
7679,33920
7680,33920
7681,33920
7682,33920
7683,33920
7684,33920
7685,33920
7686,33984
7687,33984
7688,34048
7689,34112
7690,34176
7691,34368
7692,34368
7693,34432
7694,34432
7695,34432
7696,34368
7697,34368
7698,34432
7699,34560
7700,34624
7701,34560
7702,34432
7703,34304
7704,34240
7705,34176
7706,34048
7707,33920
7708,33792
7709,33664
7710,33536
7711,33408
7712,33408
7713,33344
7714,33408
7715,33408
7716,33472
7717,33536
7718,33600
7719,33664
7720,33728
7721,33728
7722,33728
7723,33792
7724,33920
7725,34176
7726,34560
7727,35264
7728,36480
7729,38208
7730,40512
7731,42880
7732,43776
7733,42880
7734,40768
7735,38528
7736,35840
7737,34944
7738,33728
7739,32832
7740,32256
7741,31936
7742,31680
7743,31488
7744,31424
7745,31424
7746,31488
7747,31616
7748,31808
7749,32000
7750,32192
7751,32448
7752,32512
7753,32704
7754,32832
7755,32960
7756,33024
7757,33152
7758,33280
7759,33344
7760,33408
7761,33472
7762,33536
7763,33600
7764,33664
7765,33728
7766,33792
7767,33856
7768,33920
7769,33984
7770,34048
7771,34112
7772,34112
7773,34176
7774,34176
7775,34240
7776,34304
7777,34304
7778,34368
7779,34432
7780,34496
7781,34560
7782,34624
7783,34624
7784,34624
7785,34688
7786,34688
7787,34688
7788,34688
7789,34624
7790,34624
7791,34560
7792,34496
7793,34432
7794,34368
7795,34368
7796,34368
7797,34304
7798,34240
7799,34176
7800,34048
7801,33984
7802,33856
7803,33792
7804,33664
7805,33536
7806,33472
7807,33344
7808,33280
7809,33216
7810,33152
7811,33152
7812,33152
7813,33152
7814,33152
7815,33216
7816,33216
7817,33216
7818,33280
7819,33344
7820,33472
7821,33536
7822,33600
7823,33600
7824,33664
7825,33728
7826,33792
7827,33792
7828,33856
7829,33856
7830,33856
7831,33920
7832,33984
7833,33920
7834,33920
7835,33920
7836,33920
7837,33920
7838,33920
7839,33920
7840,33920
7841,33920
7842,33920
7843,33920
7844,33856
7845,33856
7846,33856
7847,33856
7848,33856
7849,33792
7850,33792
7851,33792
7852,33792
7853,33728
7854,33728
7855,33728
7856,33792
7857,33728
7858,33728
7859,33792
7860,33792
7861,33792
7862,33792
7863,33792
7864,33856
7865,33856
7866,33792
7867,33792
7868,33792
7869,33856
7870,33856
7871,33856
7872,33856
7873,33920
7874,33920
7875,33920
7876,33920
7877,33920
7878,33920
7879,33984
7880,33984
7881,33984
7882,33984
7883,33984
7884,33984
7885,33984
7886,33984
7887,33920
7888,33920
7889,33984
7890,33984
7891,33984
7892,33984
7893,34048
7894,34112
7895,34176
7896,34240
7897,34304
7898,34368
7899,34432
7900,34432
7901,34432
7902,34368
7903,34368
7904,34432
7905,34560
7906,34560
7907,34560
7908,34432
7909,34368
7910,34240
7911,34176
7912,34112
7913,33920
7914,33728
7915,33600
7916,33472
7917,33408
7918,33344
7919,33280
7920,33280
7921,33344
7922,33408
7923,33536
7924,33536
7925,33600
7926,33664
7927,33728
7928,33728
7929,33792
7930,33920
7931,34176
7932,34560
7933,35264
7934,36480
7935,38144
7936,40512
7937,43072
7938,43648
7939,42624
7940,40512
7941,38208
7942,36288
7943,34816
7944,33664
7945,32832
7946,32256
7947,31936
7948,31744
7949,31616
7950,31552
7951,31552
7952,31552
7953,31680
7954,31808
7955,32000
7956,32192
7957,32384
7958,32512
7959,32640
7960,32768
7961,32896
7962,33024
7963,33152
7964,33216
7965,33344
7966,33408
7967,33472
7968,33536
7969,33600
7970,33664
7971,33728
7972,33792
7973,33856
7974,33920
7975,33984
7976,33984
7977,34048
7978,34112
7979,34176
7980,34240
7981,34304
7982,34304
7983,34368
7984,34432
7985,34496
7986,34560
7987,34624
7988,34624
7989,34688
7990,34688
7991,34688
7992,34624
7993,34624
7994,34560
7995,34560
7996,34496
7997,34432
7998,34432
7999,34368
8000,34304
8001,34240
8002,34240
8003,34176
8004,34112
8005,34048
8006,33984
8007,33856
8008,33792
8009,33664
8010,33600
8011,33472
8012,33408
8013,33344
8014,33216
8015,33152
8016,33152
8017,33088
8018,33088
8019,33088
8020,33088
8021,33152
8022,33152
8023,33216
8024,33280
8025,33344
8026,33408
8027,33408
8028,33536
8029,33600
8030,33664
8031,33728
8032,33728
8033,33792
8034,33792
8035,33856
8036,33856
8037,33920
8038,33920
8039,33984
8040,33984
8041,34048
8042,34048
8043,33984
8044,33984
8045,33984
8046,33984
8047,33984
8048,33984
8049,33920
8050,33920
8051,33920
8052,33856
8053,33856
8054,33856
8055,33856
8056,33856
8057,33792
8058,33792
8059,33792
8060,33792
8061,33792
8062,33792
8063,33792
8064,33792
8065,33792
8066,33792
8067,33792
8068,33792
8069,33792
8070,33792
8071,33792
8072,33792
8073,33792
8074,33792
8075,33792
8076,33792
8077,33792
8078,33792
8079,33792
8080,33792
8081,33792
8082,33856
8083,33856
8084,33856
8085,33856
8086,33856
8087,33856
8088,33856
8089,33856
8090,33856
8091,33920
8092,33920
8093,33920
8094,33920
8095,33920
8096,33856
8097,33856
8098,33856
8099,33856
8100,33920
8101,33984
8102,34048
8103,34112
8104,34240
8105,34368
8106,34368
8107,34368
8108,34304
8109,34240
8110,34304
8111,34368
8112,34496
8113,34496
8114,34432
8115,34240
8116,34176
8117,34048
8118,33984
8119,33920
8120,33728
8121,33600
8122,33472
8123,33344
8124,33280
8125,33280
8126,33280
8127,33344
8128,33344
8129,33408
8130,33472
8131,33536
8132,33600
8133,33600
8134,33664
8135,33728
8136,33792
8137,33984
8138,34240
8139,34688
8140,35520
8141,36800
8142,38592
8143,40960
8144,43136
8145,43712
8146,42560
8147,40064
8148,38080
8149,36160
8150,34688
8151,33472
8152,32576
8153,32064
8154,31744
8155,31552
8156,31424
8157,31360
8158,31424
8159,31488
8160,31616
8161,31744
8162,31936
8163,32128
8164,32320
8165,32512
8166,32640
8167,32768
8168,32896
8169,32960
8170,33088
8171,33152
8172,33280
8173,33344
8174,33408
8175,33472
8176,33536
8177,33600
8178,33664
8179,33728
8180,33792
8181,33856
8182,33920
8183,33920
8184,33984
8185,34048
8186,34112
8187,34176
8188,34240
8189,34304
8190,34368
8191,34432
8192,34496
8193,34560
8194,34560
8195,34624
8196,34688
8197,34688
8198,34688
8199,34688
8200,34688
8201,34624
8202,34624
8203,34624
8204,34560
8205,34496
8206,34496
8207,34432
8208,34368
8209,34304
8210,34240
8211,34176
8212,34112
8213,33984
8214,33920
8215,33792
8216,33664
8217,33600
8218,33472
8219,33408
8220,33280
8221,33216
8222,33152
8223,33152
8224,33088
8225,33088
8226,33088
8227,33088
8228,33152
8229,33152
8230,33216
8231,33280
8232,33280
8233,33344
8234,33408
8235,33472
8236,33536
8237,33600
8238,33664
8239,33728
8240,33728
8241,33792
8242,33856
8243,33856
8244,33920
8245,33920
8246,33920
8247,33920
8248,33920
8249,33920
8250,33920
8251,33920
8252,33920
8253,33920
8254,33920
8255,33920
8256,33920
8257,33856
8258,33856
8259,33856
8260,33792
8261,33792
8262,33792
8263,33792
8264,33728
8265,33728
8266,33792
8267,33728
8268,33728
8269,33728
8270,33728
8271,33728
8272,33728
8273,33728
8274,33728
8275,33728
8276,33728
8277,33728
8278,33792
8279,33792
8280,33792
8281,33792
8282,33728
8283,33792
8284,33792
8285,33792
8286,33856
8287,33856
8288,33856
8289,33856
8290,33856
8291,33856
8292,33856
8293,33856
8294,33856
8295,33856
8296,33856
8297,33856
8298,33920
8299,33920
8300,33856
8301,33920
8302,33920
8303,33920
8304,33920
8305,33984
8306,33984
8307,33984
8308,33984
8309,33984
8310,33984
8311,33984
8312,33984
8313,33984
8314,34048
8315,34048
8316,34048
8317,34048
8318,34112
8319,34176
8320,34176
8321,34240
8322,34368
8323,34432
8324,34496
8325,34432
8326,34432
8327,34368
8328,34368
8329,34432
8330,34560
8331,34624
8332,34560
8333,34496
8334,34368
8335,34240
8336,34176
8337,34112
8338,33984
8339,33792
8340,33664
8341,33536
8342,33472
8343,33408
8344,33344
8345,33408
8346,33408
8347,33472
8348,33536
8349,33600
8350,33664
8351,33664
8352,33728
8353,33728
8354,33792
8355,33856
8356,34112
8357,34432
8358,35008
8359,36096
8360,37632
8361,39808
8362,42176
8363,43584
8364,43072
8365,41216
8366,38912
8367,36800
8368,35200
8369,33856
8370,32896
8371,32256
8372,31872
8373,31680
8374,31488
8375,31360
8376,31360
8377,31360
8378,31488
8379,31616
8380,31808
8381,32064
8382,32256
8383,32448
8384,32576
8385,32704
8386,32832
8387,32960
8388,33088
8389,33152
8390,33216
8391,33280
8392,33344
8393,33408
8394,33472
8395,33536
8396,33536
8397,33600
8398,33664
8399,33664
8400,33728
8401,33792
8402,33856
8403,33920
8404,33984
8405,34048
8406,34112
8407,34176
8408,34240
8409,34304
8410,34304
8411,34368
8412,34432
8413,34496
8414,34496
8415,34496
8416,34560
8417,34560
8418,34560
8419,34560
8420,34496
8421,34496
8422,34432
8423,34432
8424,34368
8425,34304
8426,34304
8427,34240
8428,34176
8429,34176
8430,34112
8431,34048
8432,33984
8433,33920
8434,33792
8435,33728
8436,33600
8437,33472
8438,33408
8439,33344
8440,33216
8441,33152
8442,33152
8443,33088
8444,33088
8445,33088
8446,33088
8447,33152
8448,33152
8449,33216
8450,33280
8451,33344
8452,33408
8453,33472
8454,33472
8455,33536
8456,33600
8457,33664
8458,33728
8459,33792
8460,33792
8461,33856
8462,33856
8463,33856
8464,33856
8465,33856
8466,33920
8467,33920
8468,33920
8469,33920
8470,33920
8471,33920
8472,33920
8473,33920
8474,33920
8475,33920
8476,33920
8477,33920
8478,33856
8479,33856
8480,33856
8481,33856
8482,33792
8483,33856
8484,33792
8485,33792
8486,33728
8487,33728
8488,33728
8489,33792
8490,33792
8491,33792
8492,33792
8493,33792
8494,33792
8495,33792
8496,33792
8497,33792
8498,33856
8499,33856
8500,33856
8501,33856
8502,33856
8503,33856
8504,33856
8505,33856
8506,33920
8507,33920
8508,33920
8509,33920
8510,33920
8511,33920
8512,33984
8513,33984
8514,33984
8515,33984
8516,33984
8517,33920
8518,33984
8519,33920
8520,33920
8521,33920
8522,33920
8523,33920
8524,33920
8525,33984
8526,33984
8527,33984
8528,33984
8529,33984
8530,33920
8531,33984
8532,33984
8533,33984
8534,33984
8535,33984
8536,34048
8537,34048
8538,34112
8539,34176
8540,34240
8541,34304
8542,34368
8543,34368
8544,34368
8545,34304
8546,34304
8547,34368
8548,34432
8549,34496
8550,34496
8551,34368
8552,34240
8553,34176
8554,34112
8555,34048
8556,33856
8557,33728
8558,33600
8559,33472
8560,33408
8561,33344
8562,33280
8563,33344
8564,33344
8565,33408
8566,33536
8567,33472
8568,33664
8569,33728
8570,33728
8571,33792
8572,33792
8573,33920
8574,34112
8575,34560
8576,34496
8577,36160
8578,37696
8579,39808
8580,42176
8581,43456
8582,43392
8583,40960
8584,38656
8585,36736
8586,35136
8587,33920
8588,32960
8589,32320
8590,32000
8591,31744
8592,31680
8593,31424
8594,31424
8595,31488
8596,31616
8597,31744
8598,31936
8599,32128
8600,32320
8601,32448
8602,32640
8603,32768
8604,32896
8605,33024
8606,33088
8607,33152
8608,33280
8609,33344
8610,33472
8611,33536
8612,33600
8613,33600
8614,33664
8615,33728
8616,33792
8617,33856
8618,33984
8619,33984
8620,34048
8621,34112
8622,34112
8623,34240
8624,34240
8625,34304
8626,34368
8627,34432
8628,34432
8629,34496
8630,34560
8631,34560
8632,34624
8633,34688
8634,34688
8635,34688
8636,34624
8637,34624
8638,34560
8639,34496
8640,34432
8641,34368
8642,34368
8643,34304
8644,34240
8645,34176
8646,34176
8647,34112
8648,34048
8649,33920
8650,33856
8651,33792
8652,33664
8653,33536
8654,33408
8655,33280
8656,33216
8657,33152
8658,33088
8659,33024
8660,33024
8661,32960
8662,32960
8663,32960
8664,32960
8665,32960
8666,33024
8667,33024
8668,33088
8669,33152
8670,33216
8671,33344
8672,33408
8673,33472
8674,33536
8675,33600
8676,33600
8677,33664
8678,33728
8679,33728
8680,33792
8681,33792
8682,33856
8683,33856
8684,33920
8685,33920
8686,33920
8687,33920
8688,33920
8689,33920
8690,33920
8691,33920
8692,33856
8693,33856
8694,33920
8695,33920
8696,33856
8697,33792
8698,33792
8699,33792
8700,33792
8701,33792
8702,33792
8703,33792
8704,33792
8705,33792
8706,33728
8707,33728
8708,33728
8709,33728
8710,33792
8711,33792
8712,33792
8713,33792
8714,33792
8715,33792
8716,33792
8717,33856
8718,33856
8719,33792
8720,33792
8721,33792
8722,33856
8723,33856
8724,33856
8725,33856
8726,33856
8727,33856
8728,33856
8729,33856
8730,33856
8731,33920
8732,33856
8733,33856
8734,33920
8735,33920
8736,33920
8737,33920
8738,33920
8739,33920
8740,33920
8741,33920
8742,33920
8743,33920
8744,33920
8745,33920
8746,33920
8747,33984
8748,33984
8749,33920
8750,33920
8751,33920
8752,33984
8753,33984
8754,34048
8755,34112
8756,34176
8757,34240
8758,34304
8759,34304
8760,34304
8761,34304
8762,34304
8763,34368
8764,34432
8765,34496
8766,34496
8767,34368
8768,34240
8769,34176
8770,34112
8771,34048
8772,33920
8773,33792
8774,33600
8775,33472
8776,33408
8777,33344
8778,33344
8779,33344
8780,33408
8781,33408
8782,33472
8783,33536
8784,33600
8785,33600
8786,33664
8787,33728
8788,33792
8789,33920
8790,34112
8791,34432
8792,35072
8793,36032
8794,37568
8795,39616
8796,42048
8797,43520
8798,43136
8799,41280
8800,38976
8801,36928
8802,35264
8803,33920
8804,32960
8805,32256
8806,31872
8807,31616
8808,31424
8809,31296
8810,31296
8811,31360
8812,31424
8813,31616
8814,31808
8815,32000
8816,32192
8817,32320
8818,32512
8819,32640
8820,32832
8821,32960
8822,33024
8823,33088
8824,33216
8825,33280
8826,33344
8827,33408
8828,33472
8829,33600
8830,33664
8831,33664
8832,33728
8833,33792
8834,33856
8835,33920
8836,33920
8837,33984
8838,34048
8839,34112
8840,34176
8841,34176
8842,34240
8843,34304
8844,34368
8845,34432
8846,34496
8847,34560
8848,34624
8849,34688
8850,34688
8851,34688
8852,34688
8853,34624
8854,34624
8855,34624
8856,34560
8857,34496
8858,34432
8859,34368
8860,34304
8861,34240
8862,34176
8863,34112
8864,33984
8865,33920
8866,33856
8867,33728
8868,33600
8869,33536
8870,33408
8871,33280
8872,33152
8873,33088
8874,33088
8875,33024
8876,33024
8877,32960
8878,32960
8879,32960
8880,32960
8881,33024
8882,33024
8883,33088
8884,33088
8885,33152
8886,33216
8887,33280
8888,33344
8889,33408
8890,33472
8891,33536
8892,33600
8893,33664
8894,33664
8895,33728
8896,33792
8897,33792
8898,33792
8899,33792
8900,33856
8901,33856
8902,33856
8903,33856
8904,33920
8905,33920
8906,33920
8907,33920
8908,33920
8909,33920
8910,33920
8911,33856
8912,33856
8913,33856
8914,33792
8915,33792
8916,33792
8917,33792
8918,33792
8919,33728
8920,33728
8921,33728
8922,33728
8923,33728
8924,33728
8925,33728
8926,33728
8927,33792
8928,33792
8929,33792
8930,33792
8931,33728
8932,33728
8933,33728
8934,33728
8935,33728
8936,33728
8937,33728
8938,33792
8939,33792
8940,33792
8941,33856
8942,33856
8943,33856
8944,33856
8945,33856
8946,33856
8947,33856
8948,33856
8949,33856
8950,33856
8951,33856
8952,33856
8953,33856
8954,33856
8955,33856
8956,33920
8957,33920
8958,33920
8959,33920
8960,33920
8961,33920
8962,33920
8963,33920
8964,33920
8965,33920
8966,33984
8967,33984
8968,33984
8969,34048
8970,34048
8971,34048
8972,33984
8973,33984
8974,33984
8975,33984
8976,33984
8977,33984
8978,33984
8979,33984
8980,33984
8981,33984
8982,34048
8983,34048
8984,34112
8985,34176
8986,34240
8987,34304
8988,34368
8989,34368
8990,34368
8991,34368
8992,34304
8993,34368
8994,34496
8995,34560
8996,34560
8997,34432
8998,34304
8999,34240
9000,34112
9001,34048
9002,33920
9003,33728
9004,33600
9005,33472
9006,33408
9007,33344
9008,33344
9009,33408
9010,33408
9011,33472
9012,33536
9013,33600
9014,33600
9015,33664
9016,33728
9017,33728
9018,33728
9019,33856
9020,34112
9021,34432
9022,35072
9023,36096
9024,37632
9025,39680
9026,42112
9027,43648
9028,43328
9029,41472
9030,39168
9031,37056
9032,35392
9033,33984
9034,32960
9035,32192
9036,31808
9037,31552
9038,31360
9039,31232
9040,31168
9041,31232
9042,31360
9043,31552
9044,31744
9045,31936
9046,32128
9047,32256
9048,32384
9049,32576
9050,32704
9051,32832
9052,32960
9053,33088
9054,33152
9055,33280
9056,33344
9057,33344
9058,33408
9059,33536
9060,33600
9061,33664
9062,33728
9063,33792
9064,33856
9065,33920
9066,33984
9067,33984
9068,34048
9069,34112
9070,34112
9071,34176
9072,34240
9073,34304
9074,34368
9075,34432
9076,34496
9077,34560
9078,34624
9079,34624
9080,34688
9081,34688
9082,34688
9083,34688
9084,34688
9085,34688
9086,34624
9087,34560
9088,34496
9089,34432
9090,34368
9091,34368
9092,34304
9093,34240
9094,34176
9095,34112
9096,34048
9097,33920
9098,33792
9099,33664
9100,33536
9101,33472
9102,33344
9103,33280
9104,33216
9105,33152
9106,33152
9107,33088
9108,33088
9109,33088
9110,33088
9111,33088
9112,33152
9113,33152
9114,33152
9115,33216
9116,33344
9117,33344
9118,33408
9119,33472
9120,33536
9121,33600
9122,33600
9123,33664
9124,33664
9125,33728
9126,33792
9127,33792
9128,33856
9129,33856
9130,33856
9131,33856
9132,33856
9133,33856
9134,33856
9135,33856
9136,33856
9137,33856
9138,33856
9139,33856
9140,33856
9141,33856
9142,33856
9143,33792
9144,33792
9145,33728
9146,33728
9147,33728
9148,33728
9149,33728
9150,33728
9151,33728
9152,33664
9153,33728
9154,33728
9155,33728
9156,33728
9157,33728
9158,33728
9159,33728
9160,33728
9161,33728
9162,33728
9163,33792
9164,33728
9165,33728
9166,33792
9167,33792
9168,33792
9169,33792
9170,33792
9171,33856
9172,33856
9173,33856
9174,33856
9175,33856
9176,33856
9177,33856
9178,33856
9179,33856
9180,33920
9181,33920
9182,33856
9183,33856
9184,33856
9185,33792
9186,33856
9187,33856
9188,33856
9189,33856
9190,33856
9191,33920
9192,33920
9193,33856
9194,33856
9195,33856
9196,33856
9197,33856
9198,33856
9199,33856
9200,33856
9201,33856
9202,33856
9203,33792
9204,33856
9205,33856
9206,33856
9207,33856
9208,33856
9209,33920
9210,33920
9211,33920
9212,33920
9213,33920
9214,33920
9215,33920
9216,33984
9217,34048
9218,34112
9219,34176
9220,34304
9221,34368
9222,34368
9223,34368
9224,34368
9225,34368
9226,34368
9227,34432
9228,34560
9229,34560
9230,34432
9231,34304
9232,34176
9233,34112
9234,34048
9235,33920
9236,33728
9237,33600
9238,33472
9239,33344
9240,33344
9241,33344
9242,33344
9243,33344
9244,33408
9245,33472
9246,33536
9247,33600
9248,33664
9249,33728
9250,33728
9251,33792
9252,33856
9253,34048
9254,34304
9255,34880
9256,35840
9257,37312
9258,39360
9259,41792
9260,43520
9261,43456
9262,41856
9263,39552
9264,37440
9265,35648
9266,33984
9267,33088
9268,32384
9269,31936
9270,31616
9271,31424
9272,31296
9273,31232
9274,31296
9275,31424
9276,31552
9277,31744
9278,31936
9279,32128
9280,32320
9281,32448
9282,32640
9283,32768
9284,32896
9285,32960
9286,33088
9287,33152
9288,33216
9289,33280
9290,33344
9291,33408
9292,33472
9293,33536
9294,33600
9295,33664
9296,33792
9297,33792
9298,33792
9299,33856
9300,33920
9301,33984
9302,34048
9303,34112
9304,34176
9305,34176
9306,34240
9307,34240
9308,34304
9309,34368
9310,34432
9311,34496
9312,34496
9313,34560
9314,34560
9315,34560
9316,34560
9317,34560
9318,34560
9319,34496
9320,34432
9321,34432
9322,34368
9323,34304
9324,34304
9325,34240
9326,34176
9327,34112
9328,34048
9329,33984
9330,33920
9331,33792
9332,33728
9333,33600
9334,33536
9335,33472
9336,33344
9337,33280
9338,33216
9339,33152
9340,33152
9341,33152
9342,33152
9343,33152
9344,33152
9345,33152
9346,33216
9347,33216
9348,33280
9349,33344
9350,33344
9351,33408
9352,33472
9353,33472
9354,33536
9355,33600
9356,33664
9357,33728
9358,33728
9359,33728
9360,33792
9361,33792
9362,33792
9363,33792
9364,33856
9365,33856
9366,33856
9367,33856
9368,33856
9369,33856
9370,33856
9371,33856
9372,33856
9373,33792
9374,33792
9375,33792
9376,33792
9377,33792
9378,33792
9379,33792
9380,33728
9381,33792
9382,33728
9383,33728
9384,33728
9385,33728
9386,33728
9387,33728
9388,33664
9389,33664
9390,33664
9391,33664
9392,33664
9393,33728
9394,33728
9395,33728
9396,33728
9397,33728
9398,33728
9399,33728
9400,33728
9401,33728
9402,33728
9403,33728
9404,33728
9405,33792
9406,33792
9407,33792
9408,33792
9409,33792
9410,33792
9411,33792
9412,33856
9413,33856
9414,33856
9415,33856
9416,33856
9417,33792
9418,33792
9419,33856
9420,33856
9421,33856
9422,33856
9423,33856
9424,33856
9425,33920
9426,33920
9427,33920
9428,33920
9429,33920
9430,33920
9431,33920
9432,33920
9433,33920
9434,33920
9435,33920
9436,33920
9437,33920
9438,33920
9439,33856
9440,33920
9441,33920
9442,33920
9443,33920
9444,33984
9445,34048
9446,34112
9447,34176
9448,34240
9449,34304
9450,34368
9451,34368
9452,34368
9453,34368
9454,34368
9455,34432
9456,34560
9457,34624
9458,34560
9459,34432
9460,34240
9461,34176
9462,34112
9463,33984
9464,33856
9465,33728
9466,33600
9467,33472
9468,33344
9469,33280
9470,33280
9471,33280
9472,33344
9473,33472
9474,33536
9475,33600
9476,33664
9477,33600
9478,33664
9479,33728
9480,33792
9481,33920
9482,34176
9483,34560
9484,35200
9485,36288
9486,37952
9487,40256
9488,42560
9489,43584
9490,42752
9491,40640
9492,38400
9493,36480
9494,34944
9495,33728
9496,32832
9497,32256
9498,31872
9499,31680
9500,31488
9501,31360
9502,31360
9503,31424
9504,31552
9505,31744
9506,32000
9507,32128
9508,32320
9509,32448
9510,32640
9511,32768
9512,32896
9513,32960
9514,33088
9515,33216
9516,33280
9517,33344
9518,33408
9519,33536
9520,33600
9521,33664
9522,33728
9523,33728
9524,33792
9525,33792
9526,33856
9527,33920
9528,33984
9529,34048
9530,34112
9531,34176
9532,34176
9533,34240
9534,34304
9535,34368
9536,34432
9537,34432
9538,34496
9539,34560
9540,34560
9541,34560
9542,34624
9543,34624
9544,34624
9545,34624
9546,34624
9547,34560
9548,34560
9549,34432
9550,34432
9551,34368
9552,34240
9553,34240
9554,34176
9555,34176
9556,34048
9557,33984
9558,33920
9559,33792
9560,33728
9561,33600
9562,33472
9563,33344
9564,33280
9565,33216
9566,33152
9567,33088
9568,33088
9569,33024
9570,33024
9571,33024
9572,33024
9573,33088
9574,33088
9575,33152
9576,33152
9577,33216
9578,33280
9579,33344
9580,33408
9581,33536
9582,33536
9583,33600
9584,33664
9585,33664
9586,33728
9587,33728
9588,33792
9589,33856
9590,33856
9591,33856
9592,33856
9593,33920
9594,33920
9595,33920
9596,33856
9597,33856
9598,33856
9599,33856
9600,33856
9601,33856
9602,33856
9603,33856
9604,33856
9605,33856
9606,33792
9607,33792
9608,33792
9609,33792
9610,33792
9611,33792
9612,33792
9613,33792
9614,33792
9615,33792
9616,33792
9617,33792
9618,33792
9619,33792
9620,33792
9621,33792
9622,33792
9623,33792
9624,33792
9625,33792
9626,33856
9627,33792
9628,33792
9629,33792
9630,33856
9631,33856
9632,33856
9633,33856
9634,33856
9635,33856
9636,33856
9637,33920
9638,33920
9639,33920
9640,33920
9641,33920
9642,33920
9643,33920
9644,33920
9645,33920
9646,33856
9647,33920
9648,33920
9649,33920
9650,33920
9651,33920
9652,33920
9653,33920
9654,33920
9655,33920
9656,33984
9657,34048
9658,34112
9659,34176
9660,34304
9661,34368
9662,34368
9663,34304
9664,34304
9665,34240
9666,34304
9667,34432
9668,34496
9669,34432
9670,34304
9671,34176
9672,34112
9673,34048
9674,33984
9675,33856
9676,33664
9677,33536
9678,33408
9679,33344
9680,33280
9681,33280
9682,33280
9683,33280
9684,33344
9685,33408
9686,33472
9687,33472
9688,33600
9689,33600
9690,33664
9691,33728
9692,33920
9693,34176
9694,34688
9695,35456
9696,36736
9697,38592
9698,41024
9699,43136
9700,43584
9701,42304
9702,40128
9703,37952
9704,36096
9705,34624
9706,33472
9707,32640
9708,32128
9709,31808
9710,31616
9711,31424
9712,31360
9713,31360
9714,31424
9715,31552
9716,31808
9717,31872
9718,32064
9719,32256
9720,32448
9721,32576
9722,32768
9723,32832
9724,32960
9725,33088
9726,33152
9727,33216
9728,33344
9729,33408
9730,33472
9731,33536
9732,33600
9733,33600
9734,33664
9735,33728
9736,33792
9737,33856
9738,33856
9739,33920
9740,33984
9741,34048
9742,34112
9743,34112
9744,34176
9745,34240
9746,34304
9747,34368
9748,34432
9749,34496
9750,34560
9751,34624
9752,34624
9753,34624
9754,34624
9755,34688
9756,34624
9757,34624
9758,34560
9759,34496
9760,34496
9761,34432
9762,34432
9763,34368
9764,34304
9765,34240
9766,34112
9767,33984
9768,33856
9769,33728
9770,33600
9771,33536
9772,33408
9773,33280
9774,33216
9775,33088
9776,33024
9777,32960
9778,32960
9779,32896
9780,32896
9781,32896
9782,32896
9783,32960
9784,32960
9785,33024
9786,33088
9787,33088
9788,33152
9789,33216
9790,33216
9791,33344
9792,33408
9793,33408
9794,33472
9795,33536
9796,33600
9797,33664
9798,33664
9799,33728
9800,33664
9801,33728
9802,33728
9803,33792
9804,33792
9805,33856
9806,33856
9807,33856
9808,33856
9809,33856
9810,33856
9811,33856
9812,33856
9813,33856
9814,33856
9815,33792
9816,33792
9817,33792
9818,33728
9819,33728
9820,33728
9821,33728
9822,33728
9823,33728
9824,33728
9825,33664
9826,33728
9827,33728
9828,33728
9829,33728
9830,33728
9831,33728
9832,33728
9833,33728
9834,33728
9835,33728
9836,33728
9837,33728
9838,33728
9839,33728
9840,33728
9841,33792
9842,33792
9843,33792
9844,33792
9845,33792
9846,33792
9847,33792
9848,33728
9849,33728
9850,33792
9851,33792
9852,33792
9853,33792
9854,33792
9855,33792
9856,33792
9857,33792
9858,33792
9859,33792
9860,33792
9861,33792
9862,33792
9863,33792
9864,33792
9865,33792
9866,33792
9867,33792
9868,33856
9869,33856
9870,33920
9871,33984
9872,34048
9873,34112
9874,34240
9875,34304
9876,34304
9877,34304
9878,34304
9879,34240
9880,34240
9881,34368
9882,34496
9883,34560
9884,34496
9885,34368
9886,34240
9887,34176
9888,34112
9889,34048
9890,33856
9891,33728
9892,33536
9893,33408
9894,33280
9895,33280
9896,33280
9897,33344
9898,33408
9899,33472
9900,33472
9901,33536
9902,33536
9903,33600
9904,33664
9905,33664
9906,33728
9907,33856
9908,34048
9909,34432
9910,35136
9911,36288
9912,37952
9913,40192
9914,42560
9915,43712
9916,42944
9917,40832
9918,38656
9919,36672
9920,35008
9921,33728
9922,32704
9923,32064
9924,31744
9925,31488
9926,31296
9927,31232
9928,31232
9929,31296
9930,31424
9931,31552
9932,31744
9933,31872
9934,32064
9935,32256
9936,32448
9937,32576
9938,32704
9939,32832
9940,32960
9941,33024
9942,33152
9943,33216
9944,33280
9945,33344
9946,33408
9947,33472
9948,33536
9949,33600
9950,33664
9951,33728
9952,33792
9953,33792
9954,33856
9955,33920
9956,33984
9957,34048
9958,34048
9959,34112
9960,34176
9961,34240
9962,34304
9963,34368
9964,34432
9965,34496
9966,34496
9967,34560
9968,34624
9969,34624
9970,34624
9971,34624
9972,34624
9973,34560
9974,34496
9975,34496
9976,34432
9977,34368
9978,34304
9979,34304
9980,34240
9981,34176
9982,34112
9983,34048
9984,33920
9985,33792
9986,33664
9987,33536
9988,33472
9989,33344
9990,33216
9991,33152
9992,33088
9993,33024
9994,33024
9995,33024
9996,33024
9997,33024
9998,33024
9999,33024
10000,33024
10001,33088
10002,33152
10003,33216
10004,33280
10005,33344
10006,33408
10007,33408
10008,33472
10009,33536
10010,33536
10011,33600
10012,33664
10013,33664
10014,33728
10015,33728
10016,33792
10017,33792
10018,33792
10019,33792
10020,33792
10021,33792
10022,33792
10023,33792
10024,33792
10025,33856
10026,33856
10027,33792
10028,33792
10029,33792
10030,33792
10031,33792
10032,33728
10033,33728
10034,33728
10035,33664
10036,33664
10037,33664
10038,33664
10039,33600
10040,33600
10041,33600
10042,33600
10043,33664
10044,33664
10045,33664
10046,33664
10047,33664
10048,33664
10049,33664
10050,33664
10051,33664
10052,33664
10053,33664
10054,33664
10055,33664
10056,33664
10057,33728
10058,33728
10059,33728
10060,33728
10061,33792
10062,33792
10063,33792
10064,33728
10065,33728
10066,33792
10067,33792
10068,33792
10069,33792
10070,33792
10071,33792
10072,33792
10073,33792
10074,33792
10075,33792
10076,33792
10077,33856
10078,33920
10079,33984
10080,34048
10081,34176
10082,34240
10083,34240
10084,34240
10085,34240
10086,34176
10087,34176
10088,34240
10089,34368
10090,34432
10091,34368
10092,34240
10093,34112
10094,34048
10095,33984
10096,33856
10097,33728
10098,33600
10099,33472
10100,33344
10101,33216
10102,33216
10103,33152
10104,33216
10105,33216
10106,33280
10107,33344
10108,33408
10109,33472
10110,33472
10111,33536
10112,33600
10113,33664
10114,33792
10115,33984
10116,34368
10117,35072
10118,36160
10119,37824
10120,40064
10121,42432
10122,43584
10123,42880
10124,40896
10125,38592
10126,36672
10127,34944
10128,33664
10129,32704
10130,32128
10131,31744
10132,31552
10133,31360
10134,31296
10135,31296
10136,31360
10137,31488
10138,31616
10139,31808
10140,32000
10141,32192
10142,32384
10143,32512
10144,32640
10145,32768
10146,32896
10147,32960
10148,33088
10149,33152
10150,33280
10151,33344
10152,33408
10153,33472
10154,33536
10155,33600
10156,33664
10157,33728
10158,33728
10159,33792
10160,33856
10161,33856
10162,33920
10163,33984
10164,34112
10165,34176
10166,34240
10167,34304
10168,34368
10169,34432
10170,34496
10171,34496
10172,34560
10173,34560
10174,34624
10175,34688
10176,34688
10177,34688
10178,34688
10179,34624
10180,34624
10181,34560
10182,34560
10183,34496
10184,34432
10185,34368
10186,34304
10187,34240
10188,34112
10189,34048
10190,33984
10191,33856
10192,33792
10193,33600
10194,33472
10195,33408
10196,33280
10197,33216
10198,33152
10199,33024
10200,32960
10201,32960
10202,32960
10203,32960
10204,32960
10205,33024
10206,33024
10207,33024
10208,33088
10209,33088
10210,33152
10211,33216
10212,33280
10213,33280
10214,33344
10215,33408
10216,33472
10217,33536
10218,33600
10219,33664
10220,33728
10221,33728
10222,33728
10223,33792
10224,33792
10225,33792
10226,33792
10227,33856
10228,33856
10229,33856
10230,33856
10231,33856
10232,33856
10233,33856
10234,33792
10235,33792
10236,33792
10237,33792
10238,33792
10239,33792
10240,33792
10241,33728
10242,33728
10243,33728
10244,33728
10245,33728
10246,33728
10247,33728
10248,33664
10249,33664
10250,33664
10251,33664
10252,33664
10253,33664
10254,33664
10255,33664
10256,33664
10257,33664
10258,33664
10259,33664
10260,33664
10261,33664
10262,33728
10263,33728
10264,33728
10265,33728
10266,33728
10267,33728
10268,33728
10269,33728
10270,33728
10271,33792
10272,33792
10273,33792
10274,33792
10275,33792
10276,33792
10277,33792
10278,33856
10279,33856
10280,33920
10281,33984
10282,34048
10283,34176
10284,34240
10285,34240
10286,34240
10287,34176
10288,34176
10289,34176
10290,34304
10291,34368
10292,34368
10293,34240
10294,34176
10295,34048
10296,34048
10297,33920
10298,33792
10299,33664
10300,33472
10301,33344
10302,33216
10303,33216
10304,33216
10305,33216
10306,33280
10307,33344
10308,33408
10309,33472
10310,33472
10311,33536
10312,33600
10313,33600
10314,33664
10315,33792
10316,34048
10317,34368
10318,34880
10319,35776
10320,37120
10321,39104
10322,41536
10323,43200
10324,43072
10325,41344
10326,39104
10327,37056
10328,35392
10329,34112
10330,33152
10331,32384
10332,32000
10333,31744
10334,31424
10335,31360
10336,31360
10337,31424
10338,31616
10339,31808
10340,32000
10341,32192
10342,32320
10343,32512
10344,32640
10345,32704
10346,32896
10347,32832
10348,33088
10349,33216
10350,33280
10351,33344
10352,33408
10353,33472
10354,33536
10355,33600
10356,33664
10357,33664
10358,33728
10359,33856
10360,33920
10361,33984
10362,33984
10363,34112
10364,34112
10365,34176
10366,34240
10367,34304
10368,34304
10369,34432
10370,34432
10371,34496
10372,34560
10373,34624
10374,34624
10375,34688
10376,34688
10377,34624
10378,34688
10379,34624
10380,34624
10381,34624
10382,34560
10383,34496
10384,34432
10385,34368
10386,34304
10387,34240
10388,34112
10389,34048
10390,33984
10391,33856
10392,33792
10393,33664
10394,33536
10395,33408
10396,33344
10397,33216
10398,33152
10399,33088
10400,33024
10401,32960
10402,32960
10403,32960
10404,32960
10405,33024
10406,33088
10407,33024
10408,33088
10409,33152
10410,33152
10411,33216
10412,33280
10413,33344
10414,33408
10415,33472
10416,33536
10417,33600
10418,33664
10419,33664
10420,33728
10421,33792
10422,33728
10423,33856
10424,33856
10425,33856
10426,33856
10427,33920
10428,33920
10429,33920
10430,33920
10431,33920
10432,33920
10433,33984
10434,33984
10435,33920
10436,33920
10437,33856
10438,33856
10439,33856
10440,33856
10441,33856
10442,33792
10443,33792
10444,33792
10445,33728
10446,33728
10447,33728
10448,33728
10449,33728
10450,33728
10451,33728
10452,33728
10453,33728
10454,33664
10455,33728
10456,33728
10457,33728
10458,33728
10459,33728
10460,33728
10461,33728
10462,33728
10463,33728
10464,33792
10465,33728
10466,33728
10467,33728
10468,33728
10469,33728
10470,33728
10471,33792
10472,33792
10473,33792
10474,33792
10475,33792
10476,33792
10477,33856
10478,33856
10479,33920
10480,33984
10481,34048
10482,34112
10483,34176
10484,34176
10485,34176
10486,34176
10487,34112
10488,34112
10489,34240
10490,34304
10491,34368
10492,34240
10493,34176
10494,34048
10495,33984
10496,33920
10497,33792
10498,33664
10499,33536
10500,33408
10501,33344
10502,33280
10503,33216
10504,33280
10505,33280
10506,33344
10507,33344
10508,33408
10509,33408
10510,33472
10511,33536
10512,33536
10513,33600
10514,33728
10515,33920
10516,34176
10517,34688
10518,35584
10519,36864
10520,38656
10521,40960
10522,42944
10523,43328
10524,41984
10525,39808
10526,37504
10527,35776
10528,34368
10529,33280
10530,32512
10531,32064
10532,31744
10533,31552
10534,31424
10535,31360
10536,31296
10537,31360
10538,31552
10539,31744
10540,31936
10541,32064
10542,32256
10543,32448
10544,32576
10545,32704
10546,32832
10547,32960
10548,33024
10549,33088
10550,33216
10551,33280
10552,33408
10553,33472
10554,33536
10555,33600
10556,33664
10557,33728
10558,33728
10559,33792
10560,33856
10561,33920
10562,33920
10563,33984
10564,33984
10565,34048
10566,34112
10567,34176
10568,34304
10569,34304
10570,34368
10571,34432
10572,34496
10573,34560
10574,34624
10575,34688
10576,34752
10577,34752
10578,34688
10579,34688
10580,34688
10581,34624
10582,34560
10583,34496
10584,34496
10585,34432
10586,34304
10587,34240
10588,34176
10589,34048
10590,33920
10591,33792
10592,33664
10593,33536
10594,33408
10595,33280
10596,33152
10597,33088
10598,33024
10599,32896
10600,32896
10601,32832
10602,32832
10603,32832
10604,32832
10605,32832
10606,32896
10607,32960
10608,32960
10609,33024
10610,33024
10611,33088
10612,33152
10613,33216
10614,33216
10615,33280
10616,33344
10617,33408
10618,33472
10619,33536
10620,33536
10621,33600
10622,33664
10623,33664
10624,33728
10625,33792
10626,33856
10627,33920
10628,33920
10629,33920
10630,33856
10631,33856
10632,33856
10633,33856
10634,33856
10635,33856
10636,33856
10637,33856
10638,33856
10639,33856
10640,33856
10641,33792
10642,33792
10643,33728
10644,33728
10645,33728
10646,33664
10647,33664
10648,33664
10649,33664
10650,33664
10651,33664
10652,33664
10653,33664
10654,33664
10655,33664
10656,33664
10657,33664
10658,33664
10659,33728
10660,33728
10661,33728
10662,33728
10663,33728
10664,33728
10665,33728
10666,33728
10667,33728
10668,33728
10669,33728
10670,33728
10671,33728
10672,33728
10673,33728
10674,33728
10675,33792
10676,33792
10677,33792
10678,33728
10679,33792
10680,33792
10681,33792
10682,33792
10683,33856
10684,33856
10685,33856
10686,33856
10687,33856
10688,33856
10689,33856
10690,33856
10691,33856
10692,33856
10693,33792
10694,33792
10695,33856
10696,33920
10697,33984
10698,34048
10699,34112
10700,34176
10701,34304
10702,34304
10703,34304
10704,34240
10705,34240
10706,34240
10707,34304
10708,34432
10709,34496
10710,34432
10711,34368
10712,34240
10713,34112
10714,34048
10715,33920
10716,33856
10717,33728
10718,33536
10719,33408
10720,33344
10721,33280
10722,33280
10723,33280
10724,33344
10725,33408
10726,33472
10727,33536
10728,33536
10729,33664
10730,33664
10731,33664
10732,33728
10733,33920
10734,34112
10735,34496
10736,35200
10737,36224
10738,37824
10739,39872
10740,42240
10741,43520
10742,42944
10743,41024
10744,38720
10745,36672
10746,35072
10747,33728
10748,32768
10749,32128
10750,31744
10751,31488
10752,31360
10753,31232
10754,31232
10755,31296
10756,31424
10757,31552
10758,31744
10759,31936
10760,32128
10761,32256
10762,32448
10763,32576
10764,32704
10765,32832
10766,33024
10767,33088
10768,33152
10769,33216
10770,33280
10771,33408
10772,33408
10773,33472
10774,33536
10775,33600
10776,33664
10777,33728
10778,33792
10779,33856
10780,33920
10781,33984
10782,34048
10783,34048
10784,34112
10785,34176
10786,34240
10787,34304
10788,34368
10789,34432
10790,34496
10791,34496
10792,34560
10793,34624
10794,34624
10795,34688
10796,34688
10797,34688
10798,34688
10799,34624
10800,34624
10801,34560
10802,34496
10803,34432
10804,34368
10805,34368
10806,34304
10807,34176
10808,34112
10809,34048
10810,33920
10811,33792
10812,33664
10813,33536
10814,33408
10815,33280
10816,33152
10817,33088
10818,33024
10819,32960
10820,32960
10821,32896
10822,32896
10823,32960
10824,32960
10825,33024
10826,33088
10827,33088
10828,33088
10829,33152
10830,33216
10831,33280
10832,33280
10833,33280
10834,33344
10835,33408
10836,33472
10837,33536
10838,33600
10839,33664
10840,33728
10841,33728
10842,33792
10843,33792
10844,33856
10845,33856
10846,33856
10847,33920
10848,33920
10849,33856
10850,33920
10851,33920
10852,33920
10853,33920
10854,33920
10855,33920
10856,33856
10857,33856
10858,33856
10859,33856
10860,33856
10861,33856
10862,33792
10863,33792
10864,33792
10865,33792
10866,33728
10867,33728
10868,33728
10869,33728
10870,33728
10871,33728
10872,33728
10873,33728
10874,33728
10875,33728
10876,33728
10877,33728
10878,33728
10879,33728
10880,33728
10881,33792
10882,33792
10883,33792
10884,33792
10885,33792
10886,33792
10887,33792
10888,33792
10889,33792
10890,33856
10891,33856
10892,33856
10893,33792
10894,33792
10895,33792
10896,33792
10897,33856
10898,33856
10899,33920
10900,33920
10901,33856
10902,33856
10903,33856
10904,33856
10905,33856
10906,33856
10907,33856
10908,33856
10909,33856
10910,33856
10911,33856
10912,33856
10913,33856
10914,33856
10915,33856
10916,33856
10917,33920
10918,33920
10919,33920
10920,33920
10921,33920
10922,33920
10923,33984
10924,33984
