,ECG
0,33984
1,33920
2,33792
3,33664
4,33472
5,33280
6,33152
7,33024
8,32960
9,32896
10,32832
11,32896
12,32896
13,32960
14,32960
15,32960
16,32960
17,32960
18,33024
19,33024
20,33152
21,33216
22,33280
23,33344
24,33344
25,33408
26,33472
27,33536
28,33600
29,33664
30,33664
31,33664
32,33728
33,33728
34,33664
35,33728
36,33728
37,33728
38,33792
39,33792
40,33792
41,33792
42,33792
43,33728
44,33792
45,33856
46,33920
47,33984
48,34048
49,33984
50,33984
51,34048
52,34112
53,34176
54,34240
55,34304
56,34304
57,34304
58,34240
59,34176
60,34112
61,33984
62,33792
63,33600
64,33344
65,33152
66,33088
67,33024
68,32960
69,32896
70,32832
71,32832
72,32960
73,33088
74,33216
75,33280
76,33280
77,33344
78,33408
79,33536
80,33728
81,34176
82,34880
83,36096
84,37888
85,40192
86,42432
87,43328
88,42496
89,40448
90,38208
91,36160
92,34368
93,33088
94,32192
95,31680
96,31488
97,31360
98,31296
99,31360
100,31424
101,31552
102,31680
103,31872
104,32064
105,32256
106,32448
107,32576
108,32704
109,32896
110,32960
111,33088
112,33152
113,33280
114,33344
115,33408
116,33536
117,33664
118,33728
119,33664
120,33728
121,33728
122,33792
123,33856
124,33920
125,34048
126,34048
127,34112
128,34240
129,34304
130,34432
131,34496
132,34560
133,34624
134,34624
135,34688
136,34624
137,34560
138,34560
139,34560
140,34624
141,34624
142,34624
143,34560
144,34560
145,34496
146,34432
147,34368
148,34176
149,34048
150,33984
151,33792
152,33664
153,33472
154,33344
155,33280
156,33280
157,33216
158,33152
159,33152
160,33152
161,33088
162,33088
163,33088
164,33152
165,33088
166,33088
167,33088
168,33152
169,33152
170,33216
171,33280
172,33408
173,33472
174,33536
175,33664
176,33728
177,33792
178,33856
179,33920
180,33984
181,33984
182,34048
183,33984
184,33984
185,33984
186,33984
187,33984
188,34048
189,34048
190,34048
191,33984
192,33984
193,33984
194,33920
195,33920
196,33920
197,33920
198,33920
199,33856
200,33856
201,33920
202,33984
203,34112
204,34176
205,34240
206,34304
207,34304
208,34240
209,34240
210,34368
211,34496
212,34560
213,34560
214,34496
215,34432
216,34304
217,34240
218,34176
219,34048
220,33856
221,33600
222,33472
223,33280
224,33216
225,33216
226,33280
227,33280
228,33280
229,33280
230,33344
231,33344
232,33408
233,33408
234,33472
235,33600
236,33792
237,34112
238,34688
239,35648
240,37184
241,39296
242,41792
243,43584
244,43712
245,42112
246,39872
247,37568
248,35520
249,33856
250,32704
251,32000
252,31680
253,31552
254,31488
255,31488
256,31488
257,31616
258,31744
259,31872
260,32000
261,32192
262,32384
263,32576
264,32704
265,32896
266,33024
267,33088
268,33216
269,33280
270,33344
271,33408
272,33472
273,33536
274,33664
275,33792
276,33856
277,33856
278,33920
279,33920
280,34048
281,34176
282,34240
283,34304
284,34304
285,34368
286,34432
287,34496
288,34560
289,34688
290,34752
291,34752
292,34752
293,34816
294,34752
295,34688
296,34560
297,34432
298,34496
299,34560
300,34560
301,34560
302,34432
303,34432
304,34368
305,34304
306,34240
307,34176
308,34048
309,33920
310,33792
311,33664
312,33472
313,33344
314,33152
315,32960
316,32896
317,32832
318,32896
319,32960
320,32960
321,32960
322,32960
323,32960
324,33088
325,33280
326,33408
327,33472
328,33536
329,33536
330,33472
331,33408
332,33408
333,33472
334,33600
335,33728
336,33728
337,33792
338,33792
339,33856
340,33920
341,33920
342,33920
343,33920
344,33920
345,33920
346,33920
347,33920
348,33920
349,33856
350,33728
351,33664
352,33664
353,33664
354,33664
355,33792
356,33920
357,33984
358,33984
359,33984
360,34048
361,34112
362,34112
363,34176
364,34176
365,34176
366,34304
367,34304
368,34368
369,34240
370,34176
371,34112
372,34112
373,34048
374,33984
375,33792
376,33600
377,33408
378,33280
379,33152
380,33024
381,32960
382,32896
383,32896
384,33024
385,33088
386,33152
387,33216
388,33344
389,33408
390,33408
391,33536
392,33792
393,34240
394,35136
395,36544
396,38464
397,40896
398,42880
399,43328
400,42112
401,40000
402,37824
403,35712
404,33920
405,32640
406,31808
407,31424
408,31232
409,31232
410,31232
411,31232
412,31360
413,31488
414,31616
415,31808
416,32000
417,32192
418,32320
419,32512
420,32640
421,32768
422,32960
423,33088
424,33216
425,33280
426,33344
427,33408
428,33472
429,33536
430,33664
431,33664
432,33728
433,33728
434,33856
435,33920
436,33920
437,34048
438,34176
439,34304
440,34368
441,34432
442,34496
443,34560
444,34624
445,34624
446,34624
447,34624
448,34624
449,34688
450,34752
451,34752
452,34752
453,34688
454,34624
455,34560
456,34560
457,34432
458,34368
459,34304
460,34304
461,34240
462,34112
463,34048
464,33920
465,33728
466,33664
467,33536
468,33408
469,33280
470,33216
471,33216
472,33216
473,33280
474,33216
475,33216
476,33216
477,33216
478,33280
479,33280
480,33344
481,33344
482,33344
483,33408
484,33472
485,33536
486,33600
487,33728
488,33792
489,33856
490,33920
491,33984
492,34048
493,34048
494,34112
495,34048
496,34048
497,34048
498,34048
499,34048
500,34048
501,34048
502,34048
503,33984
504,33920
505,33856
506,33856
507,33856
508,33856
509,33792
510,33856
511,33856
512,33920
513,33920
514,33920
515,33920
516,33920
517,33984
518,34048
519,34048
520,34112
521,34112
522,34176
523,34304
524,34304
525,34304
526,34304
527,34240
528,34304
529,34432
530,34496
531,34560
532,34496
533,34432
534,34432
535,34368
536,34304
537,34048
538,33856
539,33600
540,33408
541,33152
542,33088
543,33024
544,33024
545,33152
546,33216
547,33344
548,33408
549,33536
550,33600
551,33664
552,33728
553,33856
554,33984
555,34368
556,35072
557,36160
558,37760
559,39872
560,42176
561,43328
562,42816
563,40960
564,38656
565,36544
566,34688
567,33280
568,32384
569,31936
570,31744
571,31744
572,31744
573,31744
574,31744
575,31808
576,31872
577,32064
578,32256
579,32448
580,32640
581,32768
582,32896
583,32960
584,33024
585,33152
586,33280
587,33344
588,33472
589,33472
590,33600
591,33728
592,33792
593,33792
594,33856
595,33920
596,34048
597,34048
598,34112
599,34176
600,34304
601,34368
602,34368
603,34432
604,34560
605,34688
606,34688
607,34752
608,34752
609,34752
610,34816
611,34816
612,34752
613,34752
614,34688
615,34688
616,34688
617,34688
618,34624
619,34560
620,34496
621,34496
622,34432
623,34432
624,34368
625,34240
626,34176
627,34048
628,33920
629,33728
630,33600
631,33472
632,33408
633,33344
634,33344
635,33280
636,33152
637,33152
638,33152
639,33152
640,33216
641,33344
642,33408
643,33472
644,33536
645,33600
646,33664
647,33664
648,33664
649,33792
650,33856
651,33920
652,33920
653,33920
654,33984
655,34112
656,34112
657,34176
658,34176
659,34240
660,34176
661,34048
662,34048
663,33984
664,33984
665,33984
666,33984
667,33984
668,34048
669,33984
670,33984
671,33920
672,33920
673,34048
674,34176
675,34176
676,34240
677,34240
678,34304
679,34368
680,34368
681,34368
682,34368
683,34432
684,34560
685,34624
686,34624
687,34624
688,34560
689,34496
690,34432
691,34240
692,33984
693,33728
694,33536
695,33408
696,33344
697,33216
698,33216
699,33152
700,33216
701,33344
702,33472
703,33536
704,33536
705,33600
706,33600
707,33664
708,33728
709,33984
710,34304
711,34880
712,35840
713,37376
714,39424
715,41792
716,43072
717,42688
718,40960
719,38720
720,36736
721,35008
722,33600
723,32704
724,32128
725,31872
726,31808
727,31808
728,31808
729,31872
730,31936
731,32064
732,32256
733,32384
734,32512
735,32576
736,32768
737,32896
738,33024
739,33152
740,33216
741,33408
742,33472
743,33472
744,33536
745,33600
746,33728
747,33792
748,33920
749,33984
750,34048
751,34048
752,34048
753,34176
754,34304
755,34368
756,34432
757,34496
758,34560
759,34560
760,34624
761,34624
762,34688
763,34752
764,34816
765,34816
766,34816
767,34816
768,34816
769,34752
770,34688
771,34624
772,34560
773,34560
774,34496
775,34432
776,34304
777,34240
778,34176
779,34112
780,33984
781,33856
782,33728
783,33664
784,33536
785,33472
786,33344
787,33216
788,33152
789,33152
790,33024
791,32960
792,32960
793,32960
794,32960
795,33024
796,33152
797,33280
798,33344
799,33472
800,33536
801,33600
802,33600
803,33664
804,33728
805,33728
806,33792
807,33792
808,33792
809,33792
810,33792
811,33792
812,33856
813,33920
814,33984
815,33984
816,33984
817,33984
818,33984
819,33920
820,33856
821,33856
822,33792
823,33792
824,33728
825,33728
826,33664
827,33664
828,33664
829,33664
830,33664
831,33664
832,33664
833,33728
834,33856
835,33920
836,34048
837,34112
838,34112
839,34112
840,34112
841,34176
842,34176
843,34304
844,34368
845,34304
846,34176
847,34176
848,34112
849,33984
850,33984
851,33856
852,33664
853,33472
854,33280
855,33088
856,32960
857,32896
858,32832
859,32896
860,32896
861,33024
862,33088
863,33152
864,33216
865,33216
866,33280
867,33280
868,33408
869,33600
870,34048
871,34944
872,36416
873,38336
874,40832
875,42816
876,43136
877,41792
878,39616
879,37376
880,35328
881,33664
882,32448
883,31744
884,31424
885,31232
886,31168
887,31104
888,31040
889,31168
890,31296
891,31424
892,31616
893,31808
894,31936
895,32064
896,32256
897,32384
898,32512
899,32640
900,32768
901,32832
902,32896
903,32960
904,33024
905,33024
906,33152
907,33216
908,33280
909,33408
910,33536
911,33600
912,33664
913,33728
914,33792
915,33856
916,33920
917,33984
918,34048
919,34112
920,34176
921,34176
922,34240
923,34240
924,34240
925,34240
926,34240
927,34176
928,34176
929,34176
930,34176
931,34176
932,34112
933,34112
934,34048
935,33984
936,33984
937,33920
938,33920
939,33792
940,33664
941,33536
942,33408
943,33280
944,33088
945,32960
946,32896
947,32768
948,32704
949,32640
950,32640
951,32576
952,32576
953,32576
954,32640
955,32704
956,32768
957,32832
958,32896
959,32960
960,33088
961,33216
962,33280
963,33344
964,33344
965,33344
966,33408
967,33408
968,33408
969,33408
970,33408
971,33408
972,33472
973,33472
974,33472
975,33472
976,33472
977,33408
978,33408
979,33408
980,33472
981,33472
982,33472
983,33472
984,33472
985,33536
986,33472
987,33472
988,33472
989,33472
990,33472
991,33408
992,33408
993,33408
994,33408
995,33472
996,33536
997,33664
998,33792
999,33856
1000,33920
1001,33920
1002,33856
1003,33920
1004,33984
1005,34048
1006,34048
1007,34112
1008,34112
1009,34112
1010,34048
1011,33920
1012,33792
1013,33600
1014,33344
1015,33152
1016,32960
1017,32832
1018,32768
1019,32768
1020,32704
1021,32768
1022,32832
1023,32896
1024,32960
1025,32960
1026,32960
1027,33024
1028,33088
1029,33216
1030,33344
1031,33536
1032,34048
1033,35008
1034,36416
1035,38464
1036,40960
1037,42880
1038,43136
1039,41792
1040,39680
1041,37504
1042,35456
1043,33792
1044,32512
1045,31680
1046,31232
1047,31040
1048,30976
1049,30976
1050,30976
1051,31104
1052,31232
1053,31424
1054,31744
1055,31872
1056,32000
1057,32128
1058,32320
1059,32448
1060,32576
1061,32768
1062,32832
1063,32960
1064,33024
1065,33024
1066,33152
1067,33216
1068,33280
1069,33344
1070,33408
1071,33472
1072,33600
1073,33728
1074,33792
1075,33792
1076,33856
1077,33920
1078,34048
1079,34112
1080,34176
1081,34240
1082,34240
1083,34304
1084,34368
1085,34368
1086,34368
1087,34432
1088,34368
1089,34368
1090,34368
1091,34368
1092,34304
1093,34304
1094,34240
1095,34176
1096,34112
1097,34048
1098,33984
1099,33920
1100,33920
1101,33856
1102,33792
1103,33664
1104,33536
1105,33472
1106,33344
1107,33216
1108,33152
1109,33024
1110,33024
1111,32960
1112,32896
1113,32896
1114,32960
1115,32896
1116,32896
1117,32960
1118,33024
1119,33088
1120,33152
1121,33216
1122,33280
1123,33344
1124,33472
1125,33536
1126,33536
1127,33600
1128,33600
1129,33664
1130,33664
1131,33664
1132,33728
1133,33728
1134,33792
1135,33792
1136,33792
1137,33792
1138,33792
1139,33792
1140,33728
1141,33664
1142,33664
1143,33664
1144,33664
1145,33664
1146,33664
1147,33600
1148,33600
1149,33600
1150,33600
1151,33536
1152,33536
1153,33600
1154,33536
1155,33600
1156,33600
1157,33664
1158,33728
1159,33792
1160,33856
1161,33920
1162,34048
1163,34048
1164,34048
1165,34048
1166,33984
1167,33984
1168,33984
1169,34112
1170,34240
1171,34368
1172,34368
1173,34368
1174,34304
1175,34176
1176,34048
1177,33792
1178,33600
1179,33344
1180,33216
1181,33152
1182,33024
1183,33024
1184,33024
1185,33024
1186,33024
1187,33088
1188,33152
1189,33216
1190,33280
1191,33344
1192,33344
1193,33536
1194,33728
1195,34112
1196,34752
1197,35840
1198,37376
1199,39488
1200,41856
1201,43136
1202,42624
1203,40832
1204,38464
1205,36544
1206,34688
1207,33216
1208,32128
1209,31552
1210,31296
1211,31232
1212,31296
1213,31360
1214,31424
1215,31488
1216,31616
1217,31808
1218,32064
1219,32384
1220,32448
1221,32512
1222,32640
1223,32768
1224,32896
1225,32960
1226,33088
1227,33216
1228,33344
1229,33472
1230,33472
1231,33536
1232,33600
1233,33600
1234,33664
1235,33728
1236,33728
1237,33856
1238,33984
1239,34048
1240,34176
1241,34240
1242,34304
1243,34368
1244,34368
1245,34432
1246,34432
1247,34496
1248,34496
1249,34560
1250,34496
1251,34432
1252,34368
1253,34496
1254,34496
1255,34496
1256,34496
1257,34432
1258,34368
1259,34304
1260,34240
1261,34240
1262,34240
1263,34240
1264,34240
1265,34176
1266,34112
1267,33984
1268,33856
1269,33728
1270,33600
1271,33472
1272,33408
1273,33344
1274,33216
1275,33152
1276,33088
1277,33024
1278,33024
1279,33024
1280,33088
1281,33088
1282,33152
1283,33216
1284,33280
1285,33280
1286,33280
1287,33344
1288,33472
1289,33536
1290,33600
1291,33664
1292,33664
1293,33728
1294,33792
1295,33792
1296,33728
1297,33728
1298,33728
1299,33728
1300,33728
1301,33728
1302,33728
1303,33728
1304,33728
1305,33728
1306,33728
1307,33664
1308,33664
1309,33600
1310,33536
1311,33536
1312,33536
1313,33536
1314,33600
1315,33600
1316,33600
1317,33600
1318,33664
1319,33664
1320,33728
1321,33792
1322,33856
1323,33984
1324,34048
1325,34112
1326,34112
1327,34112
1328,34112
1329,34112
1330,34240
1331,34304
1332,34304
1333,34240
1334,34240
1335,34240
1336,34176
1337,34112
1338,34048
1339,33856
1340,33664
1341,33408
1342,33280
1343,33152
1344,33088
1345,33024
1346,33024
1347,33088
1348,33152
1349,33216
1350,33280
1351,33280
1352,33344
1353,33408
1354,33472
1355,33600
1356,33728
1357,34048
1358,34688
1359,35712
1360,37248
1361,39360
1362,41664
1363,43008
1364,42560
1365,40832
1366,38656
1367,36608
1368,34816
1369,32896
1370,32320
1371,31808
1372,31552
1373,31488
1374,31488
1375,31488
1376,31552
1377,31680
1378,31872
1379,32000
1380,32128
1381,32320
1382,32512
1383,32640
1384,32832
1385,32832
1386,32960
1387,33024
1388,33088
1389,33152
1390,33280
1391,33408
1392,33536
1393,33536
1394,33600
1395,33664
1396,33792
1397,33856
1398,33856
1399,33920
1400,33984
1401,34048
1402,34112
1403,34240
1404,34304
1405,34368
1406,34368
1407,34432
1408,34496
1409,34496
1410,34560
1411,34560
1412,34560
1413,34560
1414,34496
1415,34496
1416,34432
1417,34368
1418,34368
1419,34304
1420,34240
1421,34240
1422,34176
1423,34176
1424,34112
1425,34048
1426,33984
1427,33920
1428,33856
1429,33792
1430,33792
1431,33664
1432,33536
1433,33472
1434,33408
1435,33344
1436,33216
1437,33152
1438,33152
1439,33152
1440,33152
1441,33152
1442,33152
1443,33280
1444,33216
1445,33344
1446,33472
1447,33536
1448,33600
1449,33664
1450,33728
1451,33792
1452,33792
1453,33792
1454,33792
1455,33792
1456,33728
1457,33728
1458,33728
1459,33664
1460,33728
1461,33728
1462,33792
1463,33856
1464,33856
1465,33856
1466,33856
1467,33856
1468,33856
1469,33792
1470,33792
1471,33728
1472,33792
1473,33728
1474,33664
1475,33664
1476,33600
1477,33664
1478,33728
1479,33856
1480,33920
1481,34048
1482,34048
1483,34112
1484,34112
1485,34176
1486,34176
1487,34240
1488,34304
1489,34240
1490,34496
1491,34496
1492,34496
1493,34432
1494,34368
1495,34304
1496,34176
1497,34048
1498,33792
1499,33600
1500,33344
1501,33216
1502,33152
1503,33088
1504,33088
1505,33088
1506,33088
1507,33152
1508,33280
1509,33408
1510,33472
1511,33472
1512,33472
1513,33536
1514,33600
1515,33920
1516,34432
1517,35328
1518,36736
1519,38912
1520,41280
1521,42752
1522,42496
1523,40768
1524,38528
1525,36416
1526,34688
1527,33408
1528,32512
1529,32064
1530,31808
1531,31744
1532,31808
1533,31808
1534,31872
1535,31872
1536,32000
1537,32128
1538,32256
1539,32448
1540,32640
1541,32832
1542,32960
1543,33088
1544,33216
1545,33280
1546,33344
1547,33472
1548,33472
1549,33536
1550,33536
1551,33600
1552,33728
1553,33792
1554,33920
1555,33984
1556,34048
1557,34048
1558,34112
1559,34112
1560,34240
1561,34304
1562,34368
1563,34432
1564,34496
1565,34496
1566,34560
1567,34560
1568,34624
1569,34624
1570,34688
1571,34688
1572,34688
1573,34624
1574,34560
1575,34560
1576,34560
1577,34496
1578,34432
1579,34368
1580,34304
1581,34304
1582,34240
1583,34240
1584,34176
1585,34176
1586,34048
1587,33984
1588,33856
1589,33792
1590,33664
1591,33600
1592,33536
1593,33408
1594,33344
1595,33280
1596,33280
1597,33280
1598,33280
1599,33280
1600,33344
1601,33408
1602,33408
1603,33472
1604,33536
1605,33600
1606,33600
1607,33664
1608,33728
1609,33728
1610,33792
1611,33792
1612,33792
1613,33856
1614,33856
1615,33920
1616,33920
1617,33920
1618,33920
1619,33856
1620,33856
1621,33856
1622,33856
1623,33792
1624,33856
1625,33856
1626,33856
1627,33792
1628,33792
1629,33856
1630,33856
1631,33920
1632,33984
1633,34048
1634,34112
1635,34112
1636,34176
1637,34240
1638,34304
1639,34368
1640,34432
1641,34432
1642,34432
1643,34432
1644,34432
1645,34432
1646,34368
1647,34304
1648,34112
1649,33856
1650,33600
1651,33408
1652,33216
1653,33088
1654,33024
1655,33024
1656,33024
1657,33088
1658,33216
1659,33216
1660,33280
1661,33344
1662,33344
1663,33408
1664,33408
1665,33600
1666,33920
1667,34496
1668,35456
1669,36928
1670,38912
1671,41344
1672,42944
1673,42816
1674,41152
1675,38912
1676,36800
1677,35072
1678,33600
1679,32640
1680,32000
1681,31744
1682,31616
1683,31616
1684,31680
1685,31680
1686,31744
1687,31872
1688,32000
1689,32192
1690,32384
1691,32512
1692,32704
1693,32832
1694,32960
1695,33088
1696,33152
1697,33280
1698,33344
1699,33408
1700,33408
1701,33472
1702,33536
1703,33600
1704,33664
1705,33792
1706,33856
1707,33920
1708,33984
1709,34048
1710,34176
1711,34240
1712,34304
1713,34304
1714,34368
1715,34368
1716,34432
1717,34496
1718,34496
1719,34560
1720,34560
1721,34560
1722,34496
1723,34496
1724,34496
1725,34432
1726,34432
1727,34368
1728,34304
1729,34240
1730,34240
1731,34176
1732,34176
1733,34112
1734,34048
1735,33984
1736,33920
1737,33856
1738,33792
1739,33600
1740,33472
1741,33344
1742,33216
1743,33152
1744,33024
1745,33024
1746,33024
1747,33024
1748,32960
1749,32960
1750,32960
1751,33088
1752,33152
1753,33216
1754,33280
1755,33408
1756,33472
1757,33536
1758,33600
1759,33600
1760,33600
1761,33664
1762,33664
1763,33664
1764,33664
1765,33664
1766,33728
1767,33728
1768,33728
1769,33728
1770,33728
1771,33728
1772,33664
1773,33664
1774,33664
1775,33600
1776,33600
1777,33664
1778,33664
1779,33664
1780,33664
1781,33664
1782,33664
1783,33728
1784,33792
1785,33920
1786,33984
1787,33984
1788,33984
1789,33984
1790,34048
1791,34176
1792,34240
1793,34304
1794,34304
1795,34240
1796,34240
1797,34240
1798,34176
1799,34048
1800,33856
1801,33536
1802,33280
1803,33024
1804,32896
1805,32832
1806,32768
1807,32704
1808,32704
1809,32704
1810,32768
1811,32832
1812,32896
1813,33024
1814,33088
1815,33152
1816,33216
1817,33344
1818,33664
1819,34112
1820,35008
1821,36480
1822,38528
1823,41024
1824,42688
1825,42688
1826,41152
1827,38976
1828,36672
1829,34944
1830,33408
1831,32384
1832,31744
1833,31488
1834,31296
1835,31232
1836,31168
1837,31168
1838,31296
1839,31424
1840,31616
1841,31808
1842,32000
1843,32192
1844,32320
1845,32448
1846,32576
1847,32704
1848,32832
1849,32896
1850,32960
1851,33088
1852,33152
1853,33216
1854,33280
1855,33344
1856,33408
1857,33472
1858,33600
1859,33664
1860,33728
1861,33792
1862,33856
1863,33920
1864,33984
1865,34048
1866,34048
1867,34048
1868,34112
1869,34176
1870,34176
1871,34176
1872,34240
1873,34240
1874,34240
1875,34240
1876,34304
1877,34240
1878,34240
1879,34176
1880,34112
1881,34048
1882,34048
1883,33984
1884,33920
1885,33920
1886,33856
1887,33856
1888,33792
1889,33728
1890,33664
1891,33536
1892,33472
1893,33344
1894,33216
1895,33152
1896,33024
1897,32896
1898,32896
1899,32832
1900,32832
1901,32832
1902,32896
1903,32896
1904,32896
1905,33024
1906,33088
1907,33216
1908,33344
1909,33408
1910,33408
1911,33408
1912,33472
1913,33472
1914,33536
1915,33536
1916,33536
1917,33536
1918,33600
1919,33600
1920,33600
1921,33600
1922,33600
1923,33600
1924,33536
1925,33472
1926,33408
1927,33472
1928,33472
1929,33472
1930,33472
1931,33472
1932,33472
1933,33408
1934,33408
1935,33408
1936,33408
1937,33472
1938,33536
1939,33600
1940,33600
1941,33664
1942,33792
1943,33856
1944,33920
1945,33920
1946,33920
1947,33984
1948,34048
1949,34112
1950,34112
1951,34048
1952,34048
1953,34048
1954,34048
1955,33984
1956,33792
1957,33600
1958,33408
1959,33088
1960,32960
1961,32832
1962,32768
1963,32768
1964,32768
1965,32768
1966,32832
1967,32896
1968,32960
1969,33024
1970,33024
1971,33088
1972,33152
1973,33280
1974,33536
1975,33984
1976,34752
1977,36096
1978,37952
1979,40320
1980,42304
1981,42624
1982,41344
1983,39232
1984,37056
1985,35136
1986,33600
1987,32448
1988,31808
1989,31488
1990,31360
1991,31360
1992,31360
1993,31360
1994,31424
1995,31552
1996,31616
1997,31808
1998,31936
1999,32128
2000,32320
2001,32448
2002,32640
2003,32768
2004,32832
2005,33024
2006,33088
2007,33152
2008,33152
2009,33216
2010,33344
2011,33472
2012,33536
2013,33600
2014,33664
2015,33728
2016,33728
2017,33792
2018,33856
2019,33984
2020,34048
2021,34112
2022,34112
2023,34112
2024,34112
2025,34176
2026,34240
2027,34240
2028,34240
2029,34240
2030,34304
2031,34240
2032,34240
2033,34240
2034,34176
2035,34112
2036,33984
2037,33920
2038,33856
2039,33856
2040,33856
2041,33920
2042,33920
2043,33984
2044,33920
2045,33920
2046,33792
2047,33728
2048,33600
2049,33536
2050,33408
2051,33344
2052,33216
2053,33152
2054,33024
2055,32960
2056,32960
2057,32960
2058,32960
2059,33024
2060,33024
2061,33088
2062,33152
2063,33216
2064,33280
2065,33280
2066,33344
2067,33408
2068,33408
2069,33472
2070,33536
2071,33600
2072,33600
2073,33664
2074,33664
2075,33664
2076,33664
2077,33664
2078,33664
2079,33664
2080,33664
2081,33600
2082,33600
2083,33536
2084,33536
2085,33536
2086,33536
2087,33536
2088,33536
2089,33472
2090,33408
2091,33408
2092,33344
2093,33408
2094,33472
2095,33536
2096,33664
2097,33792
2098,33856
2099,33920
2100,33920
2101,33984
2102,34048
2103,34112
2104,34176
2105,34176
2106,34240
2107,34304
2108,34304
2109,34240
2110,34176
2111,33984
2112,33856
2113,33664
2114,33472
2115,33280
2116,33088
2117,32960
2118,32896
2119,32832
2120,32832
2121,32896
2122,32896
2123,32960
2124,33088
2125,33152
2126,33216
2127,33280
2128,33280
2129,33408
2130,33536
2131,33920
2132,34624
2133,35840
2134,37632
2135,40000
2136,42176
2137,42816
2138,41728
2139,39616
2140,37376
2141,35520
2142,33984
2143,32832
2144,32064
2145,31744
2146,31552
2147,31488
2148,31488
2149,31552
2150,31616
2151,31744
2152,31872
2153,32000
2154,32192
2155,32320
2156,32448
2157,32640
2158,32832
2159,32896
2160,33024
2161,33088
2162,33152
2163,33216
2164,33216
2165,33280
2166,33408
2167,33472
2168,33600
2169,33728
2170,33792
2171,33856
2172,33920
2173,33920
2174,33984
2175,34048
2176,34112
2177,34176
2178,34240
2179,34304
2180,34304
2181,34368
2182,34368
2183,34432
2184,34432
2185,34432
2186,34368
2187,34368
2188,34304
2189,34240
2190,34176
2191,34176
2192,34112
2193,34112
2194,34048
2195,34048
2196,34048
2197,34048
2198,34048
2199,34048
2200,34048
2201,34048
2202,33984
2203,33920
2204,33792
2205,33664
2206,33472
2207,33408
2208,33344
2209,33216
2210,33152
2211,33088
2212,33088
2213,33088
2214,33152
2215,33152
2216,33216
2217,33280
2218,33344
2219,33408
2220,33536
2221,33536
2222,33600
2223,33600
2224,33664
2225,33728
2226,33728
2227,33856
2228,33920
2229,33920
2230,33920
2231,33920
2232,33856
2233,33792
2234,33792
2235,33792
2236,33856
2237,33856
2238,33856
2239,33856
2240,33856
2241,33792
2242,33728
2243,33728
2244,33664
2245,33664
2246,33664
2247,33664
2248,33728
2249,33728
2250,33728
2251,33728
2252,33728
2253,33792
2254,33856
2255,33920
2256,33984
2257,34112
2258,34176
2259,34176
2260,34240
2261,34240
2262,34240
2263,34304
2264,34304
2265,34368
2266,34432
2267,34432
2268,34432
2269,34368
2270,34304
2271,34176
2272,33984
2273,33792
2274,33536
2275,33344
2276,33216
2277,33152
2278,33088
2279,33024
2280,33024
2281,33152
2282,33216
2283,33280
2284,33344
2285,33408
2286,33472
2287,33472
2288,33536
2289,33728
2290,34048
2291,34560
2292,35456
2293,36864
2294,38848
2295,41216
2296,42880
2297,42880
2298,41408
2299,39296
2300,37184
2301,35264
2302,33792
2303,32640
2304,32000
2305,31680
2306,31552
2307,31488
2308,31488
2309,31552
2310,31680
2311,31808
2312,32000
2313,32128
2314,32256
2315,32448
2316,32640
2317,32832
2318,32960
2319,33024
2320,33088
2321,33216
2322,33280
2323,33344
2324,33472
2325,33536
2326,33600
2327,33664
2328,33728
2329,33856
2330,33920
2331,33984
2332,34048
2333,34112
2334,34176
2335,34240
2336,34240
2337,34304
2338,34304
2339,34368
2340,34432
2341,34496
2342,34496
2343,34560
2344,34560
2345,34560
2346,34560
2347,34560
2348,34496
2349,34496
2350,34432
2351,34368
2352,34304
2353,34304
2354,34240
2355,34240
2356,34240
2357,34176
2358,34176
2359,34176
2360,34112
2361,34112
2362,34112
2363,34048
2364,33920
2365,33728
2366,33664
2367,33536
2368,33472
2369,33344
2370,33280
2371,33280
2372,33216
2373,33216
2374,33216
2375,33280
2376,33280
2377,33344
2378,33472
2379,33536
2380,33600
2381,33664
2382,33664
2383,33664
2384,33664
2385,33728
2386,33728
2387,33792
2388,33792
2389,33856
2390,33856
2391,33920
2392,33920
2393,33984
2394,33984
2395,33984
2396,33984
2397,33984
2398,33984
2399,33984
2400,33984
2401,33984
2402,33920
2403,33856
2404,33792
2405,33792
2406,33728
2407,33728
2408,33664
2409,33728
2410,33728
2411,33792
2412,33920
2413,33984
2414,34048
2415,34176
2416,34240
2417,34240
2418,34240
2419,34240
2420,34240
2421,34304
2422,34368
2423,34432
2424,34432
2425,34496
2426,34496
2427,34432
2428,34368
2429,34304
2430,34112
2431,33920
2432,33664
2433,33536
2434,33408
2435,33280
2436,33216
2437,33152
2438,33216
2439,33280
2440,33344
2441,33344
2442,33408
2443,33408
2444,33472
2445,33472
2446,33536
2447,33664
2448,33984
2449,34432
2450,35264
2451,36480
2452,38336
2453,40640
2454,42432
2455,42496
2456,40960
2457,38720
2458,36544
2459,34816
2460,33536
2461,32704
2462,32192
2463,32000
2464,31936
2465,31936
2466,31872
2467,31936
2468,32064
2469,32192
2470,32320
2471,32448
2472,32512
2473,32576
2474,32704
2475,32832
2476,33024
2477,33152
2478,33280
2479,33344
2480,33408
2481,33408
2482,33472
2483,33536
2484,33664
2485,33728
2486,33856
2487,33984
2488,34048
2489,34048
2490,34176
2491,34240
2492,34240
2493,34240
2494,34304
2495,34368
2496,34432
2497,34496
2498,34496
2499,34560
2500,34560
2501,34624
2502,34624
2503,34624
2504,34560
2505,34560
2506,34560
2507,34496
2508,34432
2509,34368
2510,34368
2511,34304
2512,34240
2513,34176
2514,34112
2515,34112
2516,34112
2517,34112
2518,34112
2519,34048
2520,33984
2521,33920
2522,33856
2523,33728
2524,33600
2525,33536
2526,33472
2527,33408
2528,33408
2529,33344
2530,33344
2531,33280
2532,33344
2533,33344
2534,33344
2535,33408
2536,33472
2537,33536
2538,33600
2539,33600
2540,33664
2541,33664
2542,33792
2543,33856
2544,33920
2545,33984
2546,33984
2547,33984
2548,33984
2549,33984
2550,34048
2551,34048
2552,33984
2553,33984
2554,33984
2555,33984
2556,33984
2557,33984
2558,33920
2559,33920
2560,33856
2561,33856
2562,33856
2563,33920
2564,33920
2565,33920
2566,33920
2567,33856
2568,33792
2569,33792
2570,33792
2571,33792
2572,33728
2573,33728
2574,33792
2575,33920
2576,33984
2577,34176
2578,34304
2579,34368
2580,34368
2581,34368
2582,34368
2583,34304
2584,34368
2585,34432
2586,34496
2587,34496
2588,34496
2589,34432
2590,34368
2591,34368
2592,34240
2593,34048
2594,33792
2595,33600
2596,33408
2597,33216
2598,33152
2599,33088
2600,33088
2601,33216
2602,33280
2603,33344
2604,33472
2605,33600
2606,33600
2607,33664
2608,33664
2609,33792
2610,33984
2611,34432
2612,35200
2613,36480
2614,38336
2615,40640
2616,42752
2617,43328
2618,42304
2619,40192
2620,38016
2621,36032
2622,34304
2623,33024
2624,32128
2625,31808
2626,31680
2627,31616
2628,31552
2629,31616
2630,31680
2631,31744
2632,31872
2633,32064
2634,32256
2635,32512
2636,32640
2637,32832
2638,32960
2639,33024
2640,33152
2641,33216
2642,33280
2643,33344
2644,33472
2645,33536
2646,33600
2647,33664
2648,33728
2649,33792
2650,33920
2651,33984
2652,34048
2653,34112
2654,34176
2655,34240
2656,34304
2657,34368
2658,34368
2659,34368
2660,34432
2661,34496
2662,34496
2663,34560
2664,34624
2665,34624
2666,34624
2667,34624
2668,34560
2669,34496
2670,34496
2671,34432
2672,34368
2673,34368
2674,34304
2675,34304
2676,34304
2677,34304
2678,34304
2679,34240
2680,34240
2681,34176
2682,34112
2683,34048
2684,33984
2685,33920
2686,33792
2687,33600
2688,33536
2689,33472
2690,33344
2691,33280
2692,33280
2693,33280
2694,33280
2695,33344
2696,33344
2697,33344
2698,33408
2699,33408
2700,33472
2701,33536
2702,33664
2703,33728
2704,33792
2705,33856
2706,33856
2707,33856
2708,33920
2709,33920
2710,33984
2711,33920
2712,33920
2713,33920
2714,33920
2715,33920
2716,33920
2717,33984
2718,33984
2719,33920
2720,33856
2721,33856
2722,33856
2723,33856
2724,33856
2725,33856
2726,33856
2727,33856
2728,33856
2729,33792
2730,33792
2731,33728
2732,33728
2733,33728
2734,33728
2735,33728
2736,33664
2737,33728
2738,33728
2739,33728
2740,33728
2741,33792
2742,33792
2743,33856
2744,33856
2745,33920
2746,33984
2747,34112
2748,34176
2749,34240
2750,34304
2751,34304
2752,34304
2753,34304
2754,34368
2755,34560
2756,34624
2757,34560
2758,34496
2759,34432
2760,34368
2761,34240
2762,34176
2763,34048
2764,33856
2765,33664
2766,33472
2767,33344
2768,33280
2769,33216
2770,33152
2771,33152
2772,33216
2773,33280
2774,33408
2775,33472
2776,33536
2777,33536
2778,33600
2779,33792
2780,33856
2781,34176
2782,34880
2783,36032
2784,37760
2785,40064
2786,42304
2787,43136
2788,42112
2789,40256
2790,38016
2791,36032
2792,34432
2793,33152
2794,32256
2795,31808
2796,31680
2797,31552
2798,31552
2799,31616
2800,31680
2801,31744
2802,31872
2803,32064
2804,32256
2805,32384
2806,32512
2807,32640
2808,32832
2809,32960
2810,33088
2811,33152
2812,33280
2813,33344
2814,33408
2815,33472
2816,33536
2817,33600
2818,33664
2819,33728
2820,33792
2821,33856
2822,33920
2823,33920
2824,33984
2825,33984
2826,34048
2827,34176
2828,34240
2829,34304
2830,34304
2831,34368
2832,34496
2833,34496
2834,34496
2835,34432
2836,34432
2837,34432
2838,34432
2839,34368
2840,34304
2841,34304
2842,34304
2843,34240
2844,34240
2845,34240
2846,34240
2847,34176
2848,34112
2849,34112
2850,34048
2851,34048
2852,34048
2853,34048
2854,33920
2855,33856
2856,33792
2857,33728
2858,33600
2859,33536
2860,33408
2861,33344
2862,33216
2863,33216
2864,33216
2865,33216
2866,33216
2867,33280
2868,33408
2869,33472
2870,33536
2871,33600
2872,33600
2873,33664
2874,33728
2875,33792
2876,33856
2877,33856
2878,33920
2879,33920
2880,33984
2881,33984
2882,33920
2883,33920
2884,33984
2885,34048
2886,33984
2887,33984
2888,33920
2889,33920
2890,33856
2891,33920
2892,33920
2893,33856
2894,33856
2895,33792
2896,33792
2897,33792
2898,33792
2899,33792
2900,33728
2901,33728
2902,33728
2903,33728
2904,33792
2905,33792
2906,33792
2907,33792
2908,33664
2909,33664
2910,33664
2911,33728
2912,33728
2913,33792
2914,33856
2915,33984
2916,34048
2917,34112
2918,34240
2919,34304
2920,34368
2921,34368
2922,34432
2923,34432
2924,34432
2925,34496
2926,34496
2927,34496
2928,34496
2929,34496
2930,34432
2931,34304
2932,34176
2933,33984
2934,33664
2935,33408
2936,33280
2937,33152
2938,33088
2939,33088
2940,33088
2941,33152
2942,33216
2943,33280
2944,33408
2945,33408
2946,33472
2947,33536
2948,33664
2949,33792
2950,34048
2951,34624
2952,35584
2953,36992
2954,39296
2955,41344
2956,43072
2957,43072
2958,41536
2959,38784
2960,36928
2961,35136
2962,33472
2963,32256
2964,31680
2965,31552
2966,31616
2967,31744
2968,31808
2969,31872
2970,31936
2971,32064
2972,32192
2973,32320
2974,32448
2975,32576
2976,32640
2977,32704
2978,32768
2979,32896
2980,33024
2981,33152
2982,33216
2983,33280
2984,33344
2985,33344
2986,33408
2987,33536
2988,33664
2989,33536
2990,33536
2991,33600
2992,33664
2993,33792
2994,33856
2995,33920
2996,33920
2997,33920
2998,33984
2999,33984
3000,34048
3001,34112
3002,34176
3003,34240
3004,34304
3005,34304
3006,34304
3007,34240
3008,34176
3009,34112
3010,34112
3011,34048
3012,33984
3013,33984
3014,33920
3015,33856
3016,33728
3017,33728
3018,33664
3019,33664
3020,33664
3021,33664
3022,33600
3023,33600
3024,33536
3025,33408
3026,33344
3027,33280
3028,33216
3029,33152
3030,33152
3031,33152
3032,33088
3033,33024
3034,33088
3035,33152
3036,33280
3037,33408
3038,33472
3039,33536
3040,33600
3041,33728
3042,33728
3043,33728
3044,33792
3045,33792
3046,33856
3047,33920
3048,33984
3049,34048
3050,34048
3051,34048
3052,34112
3053,34176
3054,34176
3055,34112
3056,34112
3057,34048
3058,34112
3059,34112
3060,34112
3061,34048
3062,33984
3063,34048
3064,34368
3065,34560
3066,34560
3067,34304
3068,34112
3069,33792
3070,33472
3071,33280
3072,33408
3073,33536
3074,33728
3075,33856
3076,33920
3077,33920
3078,33920
3079,33920
3080,33920
3081,33984
3082,34048
3083,34176
3084,34240
3085,34240
3086,34240
3087,34240
3088,34304
3089,34304
3090,34432
3091,34624
3092,34816
3093,34816
3094,34816
3095,34752
3096,34688
3097,34624
3098,34496
3099,34240
3100,33984
3101,33664
3102,33408
3103,33280
3104,33216
3105,33216
3106,33344
3107,33472
3108,33536
3109,33536
3110,33600
3111,33600
3112,33664
3113,33664
3114,33728
3115,33920
3116,34240
3117,34944
3118,36096
3119,37824
3120,40128
3121,42432
3122,43456
3123,42624
3124,39872
3125,38400
3126,36416
3127,34688
3128,33280
3129,32384
3130,31936
3131,31744
3132,31680
3133,31680
3134,31680
3135,31744
3136,31808
3137,31936
3138,32064
3139,32256
3140,32448
3141,32640
3142,32768
3143,32896
3144,33024
3145,33152
3146,33280
3147,33344
3148,33472
3149,33472
3150,33600
3151,33664
3152,33728
3153,33728
3154,33792
3155,33792
3156,33856
3157,33984
3158,34048
3159,34176
3160,34176
3161,34240
3162,34304
3163,34368
3164,34432
3165,34432
3166,34432
3167,34496
3168,34560
3169,34624
3170,34624
3171,34624
3172,34624
3173,34624
3174,34624
3175,34624
3176,34560
3177,34432
3178,34368
3179,34304
3180,34304
3181,34240
3182,34240
3183,34176
3184,34112
3185,34112
3186,34176
3187,34112
3188,34048
3189,33984
3190,33856
3191,33728
3192,33664
3193,33536
3194,33408
3195,33280
3196,33216
3197,33216
3198,33280
3199,33344
3200,33344
3201,33344
3202,33408
3203,33408
3204,33472
3205,33536
3206,33664
3207,33728
3208,33792
3209,33856
3210,33920
3211,33920
3212,33920
3213,33920
3214,33984
3215,33984
3216,33984
3217,33984
3218,33984
3219,33984
3220,34048
3221,34048
3222,34048
3223,33984
3224,33920
3225,33984
3226,33920
3227,33920
3228,33920
3229,33856
3230,33920
3231,33984
3232,34112
3233,34176
3234,34240
3235,34368
3236,34368
3237,34432
3238,34432
3239,34496
3240,34432
3241,34560
3242,34624
3243,34560
3244,34432
3245,34304
3246,34240
3247,34240
3248,34112
3249,33920
3250,33664
3251,33472
3252,33344
3253,33216
3254,33088
3255,33024
3256,33088
3257,33088
3258,33216
3259,33152
3260,33408
3261,33472
3262,33536
3263,33536
3264,33600
3265,33792
3266,34176
3267,34816
3268,35840
3269,37440
3270,39552
3271,41920
3272,43072
3273,42368
3274,40384
3275,38144
3276,36096
3277,34432
3278,33152
3279,32320
3280,32000
3281,31872
3282,31808
3283,31744
3284,31744
3285,31744
3286,31808
3287,31872
3288,32064
3289,32256
3290,32384
3291,32576
3292,32704
3293,32896
3294,33024
3295,33216
3296,33408
3297,33472
3298,33408
3299,33344
3300,33408
3301,33472
3302,33536
3303,33920
3304,33856
3305,34048
3306,34368
3307,34304
3308,34304
3309,34432
3310,34752
3311,35008
3312,34816
3313,34560
3314,34752
3315,34688
3316,34304
3317,33984
3318,33792
3319,33728
3320,33984
3321,34112
3322,34304
3323,34432
3324,34496
3325,34496
3326,34496
3327,34496
3328,34624
3329,34688
3330,34688
3331,34496
3332,34432
3333,34368
3334,34304
3335,34240
3336,34368
3337,34304
3338,34240
3339,34112
3340,33984
3341,33856
3342,33728
3343,33600
3344,33472
3345,33472
3346,33408
3347,33408
3348,33344
3349,33280
3350,33216
3351,33216
3352,33280
3353,33344
3354,33472
3355,33600
3356,33728
3357,33856
3358,33920
3359,33920
3360,33984
3361,34112
3362,34176
3363,34176
3364,34112
3365,34304
3366,34304
3367,34240
3368,34240
3369,34240
3370,34240
3371,34176
3372,34112
3373,34112
3374,33984
3375,33984
3376,33984
3377,34048
3378,33984
3379,33920
3380,33920
3381,33984
3382,34048
3383,34112
3384,34112
3385,34176
3386,34304
3387,34304
3388,34240
3389,34240
3390,34304
3391,34240
3392,34304
3393,34368
3394,34432
3395,34432
3396,34496
3397,34368
3398,34176
3399,34048
3400,33856
3401,33600
3402,33408
3403,33280
3404,33088
3405,33024
3406,33024
3407,33024
3408,33216
3409,33216
3410,33344
3411,33280
3412,33280
3413,33344
3414,33408
3415,33408
3416,33408
3417,33600
3418,33984
3419,34688
3420,35840
3421,37440
3422,39616
3423,42688
3424,42688
3425,41920
3426,39744
3427,37504
3428,35520
3429,33856
3430,32640
3431,32000
3432,31808
3433,31744
3434,31744
3435,31744
3436,31744
3437,31808
3438,32000
3439,31936
3440,32128
3441,32320
3442,32512
3443,32704
3444,32896
3445,33088
3446,33216
3447,33216
3448,33280
3449,33344
3450,33408
3451,33600
3452,33664
3453,33728
3454,33664
3455,33664
3456,33664
3457,33728
3458,33920
3459,33984
3460,34048
3461,34176
3462,34304
3463,34368
3464,34368
3465,34368
3466,34432
3467,34496
3468,34496
3469,34496
3470,34496
3471,34560
3472,34624
3473,34688
3474,34688
3475,34624
3476,34560
3477,34496
3478,34496
3479,34432
3480,34368
3481,34304
3482,34240
3483,34176
3484,34176
3485,34176
3486,34176
3487,34176
3488,34176
3489,34112
3490,34048
3491,33984
3492,33856
3493,33728
3494,33664
3495,33536
3496,33408
3497,33280
3498,33280
3499,33216
3500,33216
3501,33216
3502,33280
3503,33344
3504,33408
3505,33408
3506,33408
3507,33472
3508,33536
3509,33600
3510,33664
3511,33728
3512,33792
3513,33920
3514,34048
3515,34112
3516,34048
3517,34048
3518,34048
3519,34048
3520,34048
3521,33984
3522,33920
3523,33920
3524,33984
3525,33984
3526,33920
3527,33920
3528,33920
3529,33984
3530,33984
3531,34048
3532,34112
3533,34176
3534,34240
3535,34176
3536,34112
3537,34176
3538,34240
3539,34368
3540,34368
3541,34304
3542,34240
3543,34240
3544,34240
3545,34240
3546,34176
3547,34048
3548,33856
3549,33600
3550,33408
3551,33280
3552,33088
3553,32960
3554,32896
3555,32960
3556,33024
3557,33088
3558,33152
3559,33280
3560,33344
3561,33344
3562,33408
3563,33472
3564,33600
3565,33984
3566,34624
3567,35648
3568,37312
3569,39360
3570,41664
3571,42752
3572,41984
3573,39936
3574,37696
3575,35776
3576,34176
3577,32896
3578,32128
3579,31744
3580,31616
3581,31552
3582,31616
3583,31616
3584,31680
3585,31744
3586,31872
3587,32000
3588,32128
3589,32256
3590,32384
3591,32640
3592,32768
3593,32896
3594,33024
3595,33152
3596,33280
3597,33344
3598,33408
3599,33472
3600,33600
3601,33664
3602,33664
3603,33664
3604,33728
3605,33856
3606,33920
3607,34048
3608,34048
3609,34112
3610,34240
3611,34304
3612,34368
3613,34432
3614,34432
3615,34496
3616,34496
3617,34432
3618,34432
3619,34496
3620,34496
3621,34496
3622,34496
3623,34432
3624,34368
3625,34368
3626,34368
3627,34304
3628,34240
3629,34176
3630,34112
3631,34048
3632,33984
3633,33984
3634,33984
3635,33984
3636,33920
3637,33856
3638,33792
3639,33728
3640,33600
3641,33536
3642,33472
3643,33408
3644,33344
3645,33280
3646,33280
3647,33280
3648,33344
3649,33344
3650,33408
3651,33408
3652,33472
3653,33472
3654,33536
3655,33600
3656,33664
3657,33728
3658,33728
3659,33792
3660,33856
3661,33920
3662,33856
3663,33856
3664,33792
3665,33856
3666,33920
3667,33856
3668,33856
3669,33856
3670,33856
3671,33856
3672,33920
3673,33920
3674,33920
3675,33856
3676,33792
3677,33856
3678,33856
3679,33920
3680,33984
3681,34048
3682,34112
3683,34176
3684,34240
3685,34304
3686,34304
3687,34368
3688,34368
3689,34368
3690,34368
3691,34304
3692,34240
3693,34240
3694,34176
3695,33984
3696,33792
3697,33536
3698,33344
3699,33216
3700,33088
3701,33024
3702,33024
3703,33024
3704,33024
3705,33088
3706,33088
3707,33152
3708,33280
3709,33344
3710,33408
3711,33536
3712,33600
3713,33856
3714,34304
3715,35136
3716,36544
3717,38400
3718,40704
3719,42368
3720,42368
3721,40768
3722,38400
3723,36288
3724,34496
3725,33152
3726,32320
3727,31808
3728,31616
3729,31616
3730,31680
3731,31680
3732,31680
3733,31744
3734,31872
3735,32064
3736,32256
3737,32384
3738,32512
3739,32640
3740,32768
3741,32896
3742,33024
3743,33088
3744,33152
3745,33152
3746,33280
3747,33344
3748,33408
3749,33472
3750,33600
3751,33728
3752,33792
3753,33856
3754,33856
3755,33920
3756,33984
3757,33984
3758,33984
3759,34048
3760,34112
3761,34176
3762,34112
3763,34176
3764,34240
3765,34304
3766,34368
3767,34304
3768,34368
3769,34368
3770,34304
3771,34304
3772,34304
3773,34304
3774,34240
3775,34176
3776,34112
3777,34048
3778,33984
3779,33856
3780,33856
3781,33856
3782,33856
3783,33856
3784,33920
3785,33856
3786,33792
3787,33664
3788,33600
3789,33536
3790,33472
3791,33344
3792,33280
3793,33152
3794,33088
3795,33024
3796,33024
3797,33088
3798,33216
3799,33280
3800,33280
3801,33280
3802,33280
3803,33408
3804,33472
3805,33536
3806,33536
3807,33600
3808,33600
3809,33664
3810,33728
3811,33792
3812,33856
3813,33856
3814,33856
3815,33920
3816,33984
3817,33920
3818,33856
3819,33728
3820,33664
3821,33600
3822,33664
3823,33728
3824,33664
3825,33664
3826,33600
3827,33536
3828,33472
3829,33472
3830,33472
3831,33536
3832,33536
3833,33600
3834,33600
3835,33600
3836,33472
3837,33408
3838,33408
3839,33472
3840,33600
3841,33728
3842,33792
3843,33856
3844,33984
3845,33920
3846,33984
3847,33984
3848,34048
3849,34112
3850,34240
3851,34240
3852,34304
3853,34240
3854,34176
3855,34112
3856,34048
3857,33984
3858,33856
3859,33600
3860,33344
3861,33152
3862,32960
3863,32960
3864,32896
3865,32960
3866,32896
3867,32896
3868,32896
3869,33024
3870,33088
3871,33088
3872,33088
3873,33152
3874,33280
3875,33536
3876,33792
3877,34368
3878,35392
3879,36928
3880,39040
3881,41472
3882,42944
3883,42560
3884,40768
3885,38528
3886,36352
3887,34496
3888,33024
3889,32064
3890,31552
3891,31296
3892,31232
3893,31296
3894,31360
3895,31424
3896,31552
3897,31680
3898,31872
3899,32064
3900,32192
3901,32320
3902,32448
3903,32512
3904,32704
3905,32768
3906,32832
3907,32896
3908,33024
3909,33152
3910,33216
3911,33344
3912,33472
3913,33536
3914,33600
3915,33664
3916,33664
3917,33728
3918,33792
3919,33856
3920,33856
3921,33920
3922,33984
3923,34048
3924,34112
3925,34176
3926,34240
3927,34240
3928,34176
3929,34176
3930,34176
3931,34176
3932,34176
3933,34176
3934,34176
3935,34176
3936,34112
3937,34048
3938,34048
3939,33984
3940,33920
3941,33792
3942,33728
3943,33728
3944,33728
3945,33728
3946,33792
3947,33792
3948,33728
3949,33728
3950,33664
3951,33536
3952,33472
3953,33344
3954,33216
3955,33152
3956,33088
3957,33088
3958,33088
3959,33152
3960,33088
3961,32960
3962,32960
3963,32960
3964,32960
3965,33088
3966,33152
3967,33280
3968,33344
3969,33408
3970,33472
3971,33472
3972,33536
3973,33536
3974,33664
3975,33664
3976,33664
3977,33728
3978,33728
3979,33728
3980,33728
3981,33664
3982,33664
3983,33664
3984,33600
3985,33536
3986,33472
3987,33472
3988,33472
3989,33472
3990,33472
3991,33472
3992,33472
3993,33536
3994,33536
3995,33536
3996,33472
3997,33408
3998,33408
3999,33472
4000,33472
4001,33536
4002,33472
4003,33408
4004,33408
4005,33408
4006,33408
4007,33344
4008,33408
4009,33408
4010,33536
4011,33536
4012,33536
4013,33536
4014,33536
4015,33600
4016,33728
4017,33856
4018,33984
4019,34112
4020,34112
4021,34112
4022,34048
4023,34048
4024,34048
4025,34112
4026,34176
4027,34240
4028,34176
4029,34112
4030,34048
4031,33984
4032,33792
4033,33600
4034,33344
4035,33152
4036,33088
4037,32960
4038,32896
4039,32896
4040,32896
4041,32960
4042,32960
4043,33024
4044,33152
4045,33216
4046,33216
4047,33280
4048,33472
4049,33664
4050,33984
4051,34688
4052,35776
4053,37376
4054,39616
4055,41920
4056,42944
4057,42176
4058,40128
4059,37888
4060,35776
4061,34048
4062,32704
4063,31872
4064,31424
4065,31296
4066,31296
4067,31424
4068,31424
4069,31424
4070,31552
4071,31744
4072,31872
4073,32000
4074,32128
4075,32256
4076,32256
4077,32384
4078,32512
4079,32704
4080,32832
4081,33024
4082,33152
4083,33280
4084,33344
4085,33344
4086,33344
4087,33408
4088,33408
4089,33536
4090,33600
4091,33728
4092,33792
4093,33856
4094,33856
4095,33920
4096,33984
4097,34048
4098,34176
4099,34304
4100,34368
4101,34304
4102,34304
4103,34240
4104,34176
4105,34176
4106,34176
4107,34176
4108,34112
4109,34048
4110,33984
4111,33856
4112,33792
4113,33728
4114,33664
4115,33600
4116,33536
4117,33600
4118,33664
4119,33664
4120,33728
4121,33728
4122,33664
4123,33664
4124,33664
4125,33792
4126,33856
4127,33728
4128,33536
4129,33280
4130,33024
4131,32832
4132,32768
4133,32704
4134,32768
4135,32832
4136,32832
4137,32832
4138,32832
4139,32896
4140,32960
4141,33088
4142,33088
4143,33088
4144,33152
4145,33344
4146,33472
4147,33472
4148,33536
4149,33536
4150,33600
4151,33600
4152,33600
4153,33536
4154,33472
4155,33472
4156,33408
4157,33344
4158,33408
4159,33408
4160,33344
4161,33280
4162,33280
4163,33344
4164,33344
4165,33280
4166,33216
4167,33216
4168,33216
4169,33216
4170,33216
4171,33152
4172,33152
4173,33152
4174,33152
4175,33152
4176,33216
4177,33344
4178,33216
4179,33088
4180,32960
4181,32960
4182,32960
4183,33024
4184,33216
4185,33408
4186,33472
4187,33536
4188,33536
4189,33536
4190,33472
4191,33472
4192,33472
4193,33536
4194,33664
4195,33856
4196,33856
4197,33856
4198,33792
4199,33792
4200,33664
4201,33536
4202,33344
4203,33088
4204,32832
4205,32640
4206,32448
4207,32384
4208,32384
4209,32384
4210,32384
4211,32448
4212,32512
4213,32576
4214,32640
4215,32704
4216,32768
4217,32832
4218,32896
4219,33088
4220,33472
4221,34176
4222,35328
4223,37184
4224,39552
4225,41664
4226,42240
4227,41088
4228,38976
4229,36736
4230,34816
4231,33280
4232,32128
4233,31488
4234,31104
4235,31040
4236,31040
4237,31040
4238,31104
4239,31168
4240,31232
4241,31424
4242,31616
4243,31808
4244,31936
4245,32064
4246,32192
4247,32320
4248,32512
4249,32704
4250,32832
4251,32960
4252,33088
4253,33152
4254,33216
4255,33280
4256,33344
4257,33408
4258,33536
4259,33472
4260,33536
4261,33600
4262,33728
4263,33792
4264,33792
4265,33856
4266,33920
4267,33984
4268,34112
4269,34176
4270,34176
4271,34176
4272,34112
4273,34112
4274,34112
4275,34176
4276,34176
4277,34304
4278,34368
4279,34432
4280,34432
4281,34368
4282,34240
4283,34240
4284,34176
4285,34112
4286,34112
4287,34048
4288,34048
4289,33984
4290,33920
4291,33856
4292,33856
4293,33792
4294,33792
4295,33792
4296,33664
4297,33536
4298,33472
4299,33408
4300,33344
4301,33216
4302,33152
4303,33152
4304,33152
4305,33152
4306,33280
4307,33408
4308,33536
4309,33664
4310,33856
4311,33920
4312,34048
4313,34112
4314,34176
4315,34240
4316,34240
4317,34240
4318,34240
4319,34176
4320,34240
4321,34304
4322,34432
4323,34432
4324,34368
4325,34368
4326,34432
4327,34496
4328,34560
4329,34624
4330,34624
4331,34624
4332,34560
4333,34624
4334,34624
4335,34560
4336,34560
4337,34624
4338,34560
4339,34560
4340,34432
4341,34368
4342,34304
4343,34368
4344,34560
4345,34624
4346,34560
4347,34560
4348,34496
4349,34496
4350,34560
4351,34624
4352,34816
4353,34944
4354,35136
4355,35200
4356,35264
4357,35264
4358,35328
4359,35392
4360,35392
4361,35456
4362,35520
4363,35584
4364,35584
4365,35584
4366,35520
4367,35520
4368,35456
4369,35328
4370,35200
4371,34944
4372,34688
4373,34432
4374,34240
4375,34112
4376,34112
4377,34176
4378,34112
4379,34048
4380,34112
4381,34176
4382,34304
4383,34368
4384,34368
4385,34432
4386,34560
4387,34816
4388,35136
4389,35840
4390,36992
4391,38720
4392,41088
4393,43520
4394,44352
4395,43456
4396,41408
4397,39168
4398,37120
4399,35392
4400,34112
4401,33280
4402,32768
4403,32448
4404,32256
4405,32320
4406,32512
4407,32704
4408,32832
4409,32960
4410,33216
4411,33408
4412,33664
4413,33856
4414,34048
4415,34112
4416,34112
4417,34176
4418,34240
4419,34432
4420,34496
4421,34560
4422,34624
4423,34752
4424,34880
4425,35008
4426,35008
4427,35072
4428,35200
4429,35328
4430,35456
4431,35456
4432,35520
4433,35648
4434,35776
4435,35904
4436,35968
4437,36032
4438,36096
4439,36160
4440,36160
4441,36160
4442,36160
4443,36096
4444,36096
4445,36096
4446,36096
4447,36032
4448,35968
4449,35840
4450,35712
4451,35584
4452,35584
4453,35584
4454,35520
4455,35520
4456,35456
4457,35328
4458,35264
4459,35264
4460,35264
4461,35264
4462,35264
4463,35136
4464,35008
4465,34880
4466,34752
4467,34560
4468,34496
4469,34432
4470,34432
4471,34368
4472,34368
4473,34432
4474,34432
4475,34496
4476,34560
4477,34624
4478,34688
4479,34816
4480,34880
4481,34880
4482,34944
4483,35008
4484,35008
4485,35008
4486,35072
4487,35072
4488,35136
4489,35072
4490,35072
4491,35136
4492,35264
4493,35264
4494,35136
4495,35008
4496,34944
4497,34944
4498,34944
4499,34880
4500,34880
4501,34944
4502,34944
4503,35008
4504,35072
4505,35072
4506,35008
4507,35008
4508,34944
4509,34944
4510,34880
4511,34816
4512,34752
4513,34816
4514,34816
4515,34816
4516,34816
4517,34880
4518,34880
4519,34944
4520,34944
4521,34880
4522,34816
4523,34752
4524,34752
4525,34880
4526,34944
4527,34944
4528,34944
4529,34944
4530,34944
4531,35008
4532,35008
4533,34944
4534,35072
4535,35136
4536,35328
4537,35456
4538,35520
4539,35520
4540,35456
4541,35456
4542,35456
4543,35584
4544,35712
4545,35712
4546,35712
4547,35712
4548,35712
4549,35648
4550,35584
4551,35456
4552,35328
4553,35136
4554,34944
4555,34752
4556,34624
4557,34560
4558,34496
4559,34432
4560,34432
4561,34368
4562,34368
4563,34496
4564,34560
4565,34560
4566,34560
4567,34560
4568,34624
4569,34880
4570,35264
4571,35904
4572,37056
4573,38912
4574,41216
4575,43712
4576,44992
4577,44416
4578,42496
4579,39936
4580,37952
4581,35968
4582,34432
4583,33408
4584,32832
4585,32512
4586,32448
4587,32512
4588,32512
4589,32512
4590,32576
4591,32640
4592,32768
4593,32960
4594,33216
4595,33344
4596,33472
4597,33664
4598,33920
4599,34048
4600,34176
4601,34240
4602,34368
4603,34432
4604,34496
4605,34624
4606,34752
4607,34880
4608,34944
4609,34944
4610,34944
4611,35008
4612,35072
4613,35072
4614,35072
4615,35072
4616,35072
4617,35136
4618,35264
4619,35264
4620,35328
4621,35392
4622,35456
4623,35520
4624,35584
4625,35584
4626,35584
4627,35520
4628,35456
4629,35392
4630,35264
4631,35200
4632,35136
4633,35072
4634,35072
4635,35008
4636,34944
4637,34944
4638,34944
4639,35008
4640,35136
4641,35200
4642,35136
4643,35008
4644,34944
4645,34816
4646,34688
4647,34624
4648,34624
4649,34496
4650,34368
4651,34368
4652,34432
4653,34368
4654,34240
4655,34112
4656,34048
4657,33984
4658,34240
4659,34496
4660,34624
4661,34624
4662,34496
4663,34432
4664,34368
4665,34368
4666,34432
4667,34496
4668,34624
4669,34624
4670,34688
4671,34752
4672,34752
4673,34752
4674,34752
4675,34816
4676,34816
4677,34816
4678,34752
4679,34688
4680,34688
4681,34752
4682,34752
4683,34752
4684,34688
4685,34624
4686,34560
4687,34560
4688,34560
4689,34560
4690,34560
4691,34560
4692,34624
4693,34752
4694,34880
4695,34880
4696,34752
4697,34496
4698,34304
4699,34240
4700,34176
4701,34176
4702,34240
4703,34240
4704,34240
4705,34304
4706,34368
4707,34368
4708,34432
4709,34432
4710,34432
4711,34432
4712,34496
4713,34496
4714,34560
4715,34560
4716,34624
4717,34688
4718,34624
4719,34752
4720,34880
4721,34944
4722,35008
4723,34944
4724,34880
4725,34944
4726,35008
4727,35072
4728,35136
4729,35200
4730,35136
4731,35136
4732,35136
4733,35136
4734,35072
4735,34944
4736,34816
4737,34560
4738,34368
4739,34112
4740,33984
4741,33856
4742,33792
4743,33792
4744,33792
4745,33792
4746,33792
4747,33792
4748,33920
4749,33984
4750,34048
4751,34048
4752,34048
4753,34240
4754,34560
4755,35264
4756,36352
4757,38016
4758,40256
4759,42752
4760,44096
4761,43648
4762,41728
4763,39296
4764,37120
4765,35200
4766,33728
4767,32640
4768,32128
4769,32000
4770,31936
4771,31936
4772,31936
4773,31936
4774,32064
4775,32192
4776,32448
4777,32640
4778,32896
4779,33024
4780,33152
4781,33344
4782,33472
4783,33536
4784,33600
4785,33664
4786,33728
4787,33728
4788,33856
4789,33984
4790,34048
4791,34112
4792,34176
4793,34240
4794,34304
4795,34368
4796,34368
4797,34432
4798,34560
4799,34688
4800,34752
4801,34816
4802,34816
4803,34816
4804,34880
4805,34816
4806,34816
4807,34816
4808,34944
4809,35072
4810,35072
4811,34944
4812,34816
4813,34752
4814,34752
4815,34752
4816,34688
4817,34560
4818,34496
4819,34432
4820,34304
4821,34240
4822,34176
4823,34240
4824,34240
4825,34240
4826,34176
4827,34112
4828,34048
4829,34048
4830,33920
4831,33856
4832,33728
4833,33728
4834,33728
4835,33664
4836,33600
4837,33472
4838,33472
4839,33472
4840,33472
4841,33536
4842,33664
4843,33728
4844,33792
4845,33856
4846,33920
4847,34048
4848,34176
4849,34304
4850,34304
4851,34304
4852,34304
4853,34368
4854,34432
4855,34368
4856,34304
4857,34368
4858,34432
4859,34432
4860,34304
4861,34240
4862,34176
4863,34176
4864,34176
4865,34240
4866,34240
4867,34240
4868,34240
4869,34240
4870,34176
4871,34176
4872,34112
4873,34048
4874,33920
4875,33920
4876,33856
4877,33856
4878,33856
4879,33920
4880,33920
4881,33920
4882,33856
4883,33856
4884,33856
4885,33920
4886,34048
4887,34112
4888,34240
4889,34304
4890,34432
4891,34432
4892,34368
4893,34304
4894,34304
4895,34368
4896,34432
4897,34560
4898,34688
4899,34688
4900,34688
4901,34560
4902,34368
4903,34176
4904,34048
4905,33920
4906,33728
4907,33408
4908,33216
4909,33152
4910,33152
4911,33152
4912,33152
4913,33216
4914,33216
4915,33216
4916,33216
4917,33280
4918,33408
4919,33472
4920,33536
4921,33728
4922,33984
4923,34368
4924,35200
4925,36608
4926,38720
4927,41216
4928,42880
4929,42816
4930,41152
4931,38848
4932,36672
4933,34944
4934,33472
4935,32576
4936,32000
4937,31680
4938,31616
4939,31552
4940,31552
4941,31616
4942,31680
4943,31808
4944,31936
4945,32064
4946,32192
4947,32384
4948,32576
4949,32768
4950,32896
4951,33024
4952,33152
4953,33216
4954,33280
4955,33280
4956,33280
4957,33344
4958,33472
4959,33600
4960,33792
4961,33856
4962,33856
4963,33920
4964,33984
4965,34048
4966,34112
4967,34176
4968,34240
4969,34304
4970,34368
4971,34432
4972,34560
4973,34624
4974,34624
4975,34624
4976,34624
4977,34624
4978,34688
4979,34624
4980,34496
4981,34432
4982,34368
4983,34304
4984,34176
4985,34176
4986,34176
4987,34112
4988,34112
4989,34048
4990,34048
4991,34112
4992,34112
4993,34048
4994,33984
4995,33856
4996,33792
4997,33664
4998,33600
4999,33472
5000,33408
5001,33344
5002,33280
5003,33280
5004,33216
5005,33216
5006,33216
5007,33216
5008,33280
5009,33344
5010,33408
5011,33536
5012,33664
5013,33728
5014,33792
5015,33792
5016,33792
5017,33856
5018,33920
5019,33984
5020,33984
5021,33984
5022,33984
5023,33984
5024,33984
5025,33984
5026,34048
5027,34048
5028,34048
5029,34048
5030,34048
5031,34048
5032,34048
5033,34048
5034,33984
5035,33920
5036,33856
5037,33856
5038,33856
5039,33792
5040,33792
5041,33728
5042,33792
5043,33728
5044,33664
5045,33664
5046,33856
5047,33984
5048,34048
5049,34176
5050,34240
5051,34304
5052,34304
5053,34304
5054,34304
5055,34432
5056,34560
5057,34624
5058,34496
5059,34432
5060,34368
5061,34368
5062,34240
5063,34048
5064,33856
5065,33664
5066,33472
5067,33280
5068,33088
5069,33024
5070,33024
5071,33088
5072,33152
5073,33280
5074,33280
5075,33344
5076,33408
5077,33472
5078,33472
5079,33600
5080,33728
5081,33984
5082,34496
5083,35520
5084,35712
5085,39168
5086,41600
5087,43264
5088,42752
5089,42432
5090,41344
5091,36864
5092,35008
5093,33600
5094,32576
5095,31936
5096,31680
5097,31552
5098,31616
5099,31616
5100,31680
5101,31808
5102,31872
5103,32064
5104,32064
5105,32128
5106,32576
5107,32768
5108,32896
5109,32960
5110,33024
5111,33088
5112,33216
5113,33344
5114,33280
5115,33408
5116,33536
5117,33600
5118,33728
5119,33664
5120,33728
5121,33984
5122,34112
5123,34176
5124,34176
5125,34176
5126,34240
5127,34304
5128,34368
5129,34368
5130,34496
5131,34496
5132,34496
5133,34560
5134,34624
5135,34624
5136,34688
5137,34752
5138,34752
5139,34752
5140,34624
5141,34560
5142,34496
5143,34432
5144,34368
5145,34304
5146,34304
5147,34304
5148,34240
5149,34176
5150,34176
5151,34176
5152,34304
5153,34432
5154,34368
5155,33984
5156,33728
5157,33600
5158,33472
5159,33408
5160,33280
5161,33152
5162,33088
5163,33216
5164,33216
5165,33344
5166,33344
5167,33408
5168,33856
5169,34624
5170,34752
5171,34240
5172,33792
5173,33536
5174,33344
5175,33280
5176,33280
5177,33472
5178,33600
5179,33728
5180,33920
5181,34176
5182,34240
5183,34240
5184,34048
5185,33792
5186,33728
5187,33792
5188,33920
5189,34048
5190,34112
5191,34112
5192,34112
5193,34048
5194,34048
5195,34176
5196,34176
5197,34112
5198,34048
5199,33984
5200,33856
5201,33856
5202,33920
5203,33920
5204,33984
5205,34048
5206,34112
5207,34240
5208,34432
5209,34368
5210,34624
5211,34752
5212,34752
5213,34752
5214,34752
5215,34752
5216,34816
5217,34944
5218,34944
5219,34944
5220,34944
5221,34880
5222,34880
5223,34688
5224,34624
5225,34304
5226,34048
5227,33728
5228,33536
5229,33472
5230,33472
5231,33536
5232,33536
5233,33664
5234,33728
5235,33856
5236,33984
5237,34112
5238,34176
5239,34176
5240,34304
5241,34560
5242,34944
5243,35520
5244,36608
5245,38208
5246,40448
5247,42816
5248,44096
5249,43456
5250,41600
5251,39296
5252,37056
5253,34496
5254,34240
5255,32704
5256,32128
5257,31872
5258,31808
5259,31872
5260,31872
5261,31936
5262,32064
5263,32192
5264,32256
5265,32448
5266,32704
5267,33024
5268,33088
5269,33024
5270,33088
5271,33216
5272,33344
5273,33536
5274,33664
5275,33792
5276,33856
5277,33792
5278,33792
5279,33920
5280,34048
5281,34112
5282,34176
5283,34176
5284,34176
5285,34304
5286,34432
5287,34560
5288,34624
5289,34688
5290,34816
5291,35008
5292,34944
5293,34880
5294,34816
5295,34880
5296,34880
5297,34880
5298,35008
5299,34944
5300,34880
5301,34816
5302,34752
5303,34688
5304,34624
5305,34624
5306,34560
5307,34496
5308,34432
5309,34368
5310,34304
5311,34240
5312,34240
5313,34176
5314,34112
5315,33920
5316,33664
5317,33472
5318,33472
5319,33408
5320,33216
5321,33024
5322,32960
5323,32832
5324,32832
5325,32832
5326,32896
5327,32896
5328,32896
5329,32832
5330,32960
5331,33024
5332,33152
5333,33280
5334,33408
5335,33408
5336,33408
5337,33408
5338,33344
5339,33344
5340,33408
5341,33472
5342,33536
5343,33536
5344,33536
5345,33536
5346,33600
5347,33600
5348,33600
5349,33536
5350,33600
5351,33664
5352,33664
5353,33664
5354,33664
5355,33600
5356,33472
5357,33408
5358,33472
5359,33408
5360,33536
5361,33600
5362,33600
5363,33600
5364,33472
5365,33408
5366,33280
5367,33216
5368,33280
5369,33408
5370,33536
5371,33664
5372,33728
5373,33728
5374,33792
5375,33856
5376,33984
5377,34112
5378,34176
5379,34176
5380,34112
5381,34112
5382,34112
5383,34048
5384,33984
5385,33920
5386,33792
5387,33664
5388,33408
5389,33216
5390,33024
5391,32960
5392,32896
5393,32960
5394,32960
5395,32960
5396,33024
5397,33088
5398,33152
5399,33216
5400,33344
5401,33408
5402,33536
5403,33728
5404,34048
5405,34560
5406,35520
5407,36992
5408,39104
5409,41536
5410,43072
5411,42816
5412,41152
5413,38848
5414,36800
5415,34944
5416,33472
5417,32448
5418,31744
5419,31680
5420,31680
5421,31616
5422,31616
5423,31616
5424,31680
5425,31808
5426,31936
5427,32192
5428,32448
5429,32640
5430,32832
5431,32960
5432,33024
5433,33088
5434,33088
5435,33152
5436,33280
5437,33472
5438,33536
5439,33600
5440,33664
5441,33792
5442,33856
5443,33984
5444,34048
5445,34112
5446,34112
5447,34176
5448,34304
5449,34368
5450,34432
5451,34496
5452,34560
5453,34624
5454,34624
5455,34624
5456,34688
5457,34752
5458,34752
5459,34752
5460,34688
5461,34688
5462,34624
5463,34560
5464,34560
5465,34560
5466,34432
5467,34368
5468,34368
5469,34304
5470,34240
5471,34176
5472,34112
5473,34048
5474,33920
5475,33856
5476,33792
5477,33664
5478,33472
5479,33408
5480,33408
5481,33344
5482,33280
5483,33216
5484,33152
5485,33088
5486,33088
5487,33088
5488,33152
5489,33152
5490,33152
5491,33152
5492,33216
5493,33344
5494,33408
5495,33472
5496,33536
5497,33600
5498,33664
5499,33792
5500,33856
5501,33792
5502,33856
5503,33920
5504,33920
5505,33920
5506,33856
5507,33856
5508,33856
5509,33920
5510,33984
5511,34048
5512,34048
5513,34048
5514,33984
5515,33920
5516,33856
5517,33856
5518,33792
5519,33792
5520,33792
5521,33856
5522,33856
5523,33792
5524,33792
5525,33792
5526,33792
5527,33792
5528,33728
5529,33728
5530,33728
5531,33728
5532,33728
5533,33728
5534,33728
5535,33728
5536,33792
5537,33856
5538,33920
5539,33984
5540,34048
5541,34112
5542,34176
5543,34240
5544,34304
5545,34304
5546,34368
5547,34496
5548,34432
5549,34368
5550,34304
5551,34240
5552,34112
5553,33984
5554,33856
5555,33664
5556,33536
5557,33344
5558,33152
5559,33152
5560,33088
5561,33088
5562,33088
5563,33152
5564,33152
5565,33280
5566,33280
5567,33344
5568,33408
5569,33472
5570,33536
5571,33728
5572,34112
5573,34752
5574,35904
5575,37504
5576,39680
5577,42176
5578,43648
5579,43264
5580,41536
5581,39232
5582,36928
5583,34880
5584,33216
5585,32192
5586,31616
5587,31424
5588,31360
5589,31424
5590,31424
5591,31488
5592,31616
5593,31744
5594,31936
5595,32064
5596,32256
5597,32384
5598,32576
5599,32768
5600,32960
5601,33088
5602,33152
5603,33216
5604,33344
5605,33408
5606,33536
5607,33664
5608,33728
5609,33856
5610,33920
5611,33984
5612,34048
5613,34112
5614,34176
5615,34240
5616,34240
5617,34304
5618,34368
5619,34496
5620,34560
5621,34624
5622,34688
5623,34752
5624,34752
5625,34816
5626,34880
5627,34880
5628,34816
5629,34752
5630,34752
5631,34688
5632,34560
5633,34496
5634,34432
5635,34432
5636,34368
5637,34304
5638,34368
5639,34368
5640,34304
5641,34240
5642,34176
5643,34112
5644,34048
5645,33984
5646,33856
5647,33792
5648,33664
5649,33600
5650,33536
5651,33472
5652,33408
5653,33280
5654,33280
5655,33216
5656,33280
5657,33280
5658,33344
5659,33344
5660,33344
5661,33344
5662,33408
5663,33472
5664,33536
5665,33600
5666,33664
5667,33664
5668,33728
5669,33728
5670,33728
5671,33792
5672,33856
5673,33920
5674,33856
5675,33856
5676,33856
5677,33920
5678,33984
5679,34048
5680,34112
5681,34048
5682,33920
5683,33920
5684,33856
5685,33792
5686,33792
5687,33792
5688,33792
5689,33856
5690,33856
5691,33792
5692,33792
5693,33792
5694,33856
5695,33792
5696,33728
5697,33664
5698,33600
5699,33600
5700,33664
5701,33664
5702,33728
5703,33664
5704,33728
5705,33728
5706,33728
5707,33728
5708,33792
5709,33856
5710,33920
5711,33792
5712,33792
5713,33792
5714,33856
5715,33920
5716,33984
5717,33984
5718,34112
5719,34176
5720,34240
5721,34304
5722,34368
5723,34432
5724,34432
5725,34432
5726,34368
5727,34368
5728,34432
5729,34496
5730,34496
5731,34432
5732,34432
5733,34368
5734,34304
5735,34176
5736,34048
5737,33792
5738,33600
5739,33408
5740,33344
5741,33344
5742,33280
5743,33152
5744,33152
5745,33152
5746,33216
5747,33344
5748,33472
5749,33472
5750,33472
5751,33472
5752,33600
5753,33856
5754,34368
5755,35200
5756,36608
5757,38592
5758,41088
5759,43200
5760,43712
5761,42496
5762,40384
5763,38080
5764,36032
5765,34176
5766,32832
5767,31936
5768,31552
5769,31360
5770,31296
5771,31296
5772,31296
5773,31424
5774,31616
5775,31808
5776,32000
5777,32192
5778,32448
5779,32576
5780,32704
5781,32832
5782,32960
5783,33088
5784,33152
5785,33280
5786,33344
5787,33408
5788,33472
5789,33600
5790,33664
5791,33728
5792,33728
5793,33856
5794,33920
5795,33984
5796,34048
5797,34176
5798,34304
5799,34368
5800,34432
5801,34432
5802,34432
5803,34368
5804,34368
5805,34432
5806,34432
5807,34560
5808,34624
5809,34624
5810,34624
5811,34560
5812,34560
5813,34496
5814,34496
5815,34496
5816,34368
5817,34240
5818,34176
5819,34112
5820,34048
5821,34048
5822,34048
5823,34048
5824,34048
5825,33984
5826,33920
5827,33856
5828,33792
5829,33728
5830,33600
5831,33536
5832,33408
5833,33408
5834,33408
5835,33344
5836,33216
5837,33216
5838,33152
5839,33088
5840,33088
5841,33152
5842,33216
5843,33344
5844,33472
5845,33536
5846,33536
5847,33600
5848,33664
5849,33728
5850,33856
5851,33920
5852,33856
5853,33792
5854,33792
5855,33856
5856,33856
5857,33792
5858,33856
5859,33920
5860,34048
5861,33984
5862,33920
5863,33920
5864,33856
5865,33856
5866,33792
5867,33792
5868,33792
5869,33728
5870,33664
5871,33728
5872,33728
5873,33728
5874,33728
5875,33664
5876,33728
5877,33728
5878,33792
5879,33792
5880,33728
5881,33728
5882,33600
5883,33600
5884,33664
5885,33664
5886,33728
5887,33728
5888,33728
5889,33728
5890,33728
5891,33792
5892,33792
5893,33856
5894,33856
5895,33856
5896,33856
5897,33856
5898,33920
5899,33984
5900,34048
5901,34112
5902,34176
5903,34304
5904,34304
5905,34368
5906,34368
5907,34432
5908,34496
5909,34560
5910,34560
5911,34560
5912,34496
5913,34368
5914,34240
5915,34112
5916,33984
5917,33856
5918,33600
5919,33408
5920,33152
5921,33088
5922,33024
5923,33024
5924,33024
5925,33024
5926,33088
5927,33152
5928,33216
5929,33280
5930,33344
5931,33344
5932,33472
5933,33664
5934,33984
5935,34496
5936,35520
5937,37056
5938,39232
5939,41600
5940,43072
5941,42752
5942,40896
5943,38528
5944,36224
5945,34560
5946,33152
5947,32256
5948,31680
5949,31424
5950,31360
5951,31296
5952,31296
5953,31360
5954,31424
5955,31680
5956,31872
5957,32000
5958,32192
5959,32320
5960,32448
5961,32512
5962,32640
5963,32704
5964,32768
5965,32896
5966,33024
5967,33088
5968,33216
5969,33344
5970,33408
5971,33472
5972,33472
5973,33472
5974,33536
5975,33664
5976,33728
5977,33856
5978,33920
5979,34048
5980,34112
5981,34112
5982,34176
5983,34240
5984,34304
5985,34496
5986,34624
5987,34624
5988,34432
5989,34304
5990,34112
5991,33856
5992,33728
5993,33792
5994,33920
5995,33984
5996,34048
5997,34112
5998,34048
5999,33984
6000,33856
6001,33792
6002,33728
6003,33728
6004,33728
6005,33728
6006,33728
6007,33728
6008,33600
6009,33408
6010,33280
6011,33216
6012,33088
6013,32960
6014,32832
6015,32768
6016,32704
6017,32640
6018,32576
6019,32640
6020,32704
6021,32768
6022,32768
6023,32832
6024,32896
6025,33024
6026,33088
6027,33152
6028,33152
6029,33088
6030,33152
6031,33088
6032,33152
6033,33280
6034,33472
6035,33600
6036,33600
6037,33600
6038,33600
6039,33600
6040,33536
6041,33472
6042,33472
6043,33536
6044,33600
6045,33600
6046,33472
6047,33344
6048,33280
6049,33280
6050,33280
6051,33280
6052,33280
6053,33280
6054,33344
6055,33344
6056,33344
6057,33280
6058,33280
6059,33280
6060,33280
6061,33344
6062,33344
6063,33408
6064,33408
6065,33408
6066,33344
6067,33216
6068,33152
6069,33216
6070,33216
6071,33344
6072,33536
6073,33600
6074,33664
6075,33664
6076,33728
6077,33792
6078,33792
6079,33856
6080,33920
6081,34048
6082,34112
6083,34112
6084,34048
6085,34048
6086,34048
6087,33920
6088,33792
6089,33600
6090,33344
6091,33152
6092,32896
6093,32640
6094,32512
6095,32512
6096,32576
6097,32704
6098,32768
6099,32832
6100,32896
6101,32896
6102,32960
6103,33024
6104,33088
6105,33280
6106,33536
6107,33920
6108,34752
6109,36160
6110,38080
6111,40512
6112,42368
6113,42560
6114,41152
6115,38912
6116,36672
6117,34816
6118,33280
6119,32320
6120,31680
6121,31360
6122,31232
6123,31168
6124,31040
6125,31040
6126,31104
6127,31232
6128,31360
6129,31488
6130,31744
6131,31936
6132,32064
6133,32256
6134,32384
6135,32512
6136,32576
6137,32704
6138,32704
6139,32832
6140,32960
6141,33088
6142,33152
6143,33216
6144,33216
6145,33216
6146,33344
6147,33408
6148,33408
6149,33536
6150,33536
6151,33600
6152,33664
6153,33792
6154,33920
6155,33920
6156,33984
6157,33984
6158,33984
6159,33984
6160,34048
6161,34112
6162,34176
6163,34176
6164,34112
6165,34112
6166,34048
6167,34048
6168,33984
6169,33856
6170,33792
6171,33728
6172,33664
6173,33664
6174,33600
6175,33536
6176,33472
6177,33536
6178,33536
6179,33472
6180,33344
6181,33216
6182,33088
6183,33024
6184,32896
6185,32768
6186,32768
6187,32768
6188,32704
6189,32704
6190,32704
6191,32640
6192,32640
6193,32768
6194,32896
6195,32896
6196,32960
6197,33024
6198,33152
6199,33280
6200,33344
6201,33344
6202,33344
6203,33408
6204,33408
6205,33344
6206,33344
6207,33472
6208,33536
6209,33600
6210,33664
6211,33664
6212,33664
6213,33664
6214,33600
6215,33536
6216,33472
6217,33536
6218,33600
6219,33664
6220,33664
6221,33664
6222,33664
6223,33664
6224,33600
6225,33536
6226,33472
6227,33344
6228,33280
6229,33216
6230,33280
6231,33280
6232,33344
6233,33408
6234,33600
6235,33600
6236,33600
6237,33600
6238,33664
6239,33728
6240,33856
6241,33920
6242,33984
6243,33984
6244,33920
6245,33984
6246,33984
6247,34112
6248,34240
6249,34240
6250,34240
6251,34240
6252,34176
6253,34048
6254,33920
6255,33792
6256,33664
6257,33472
6258,33280
6259,33088
6260,32960
6261,32832
6262,32704
6263,32704
6264,32768
6265,32832
6266,32896
6267,32960
6268,32960
6269,33024
6270,33088
6271,33216
6272,33344
6273,33664
6274,34240
6275,35136
6276,36608
6277,38656
6278,41152
6279,42944
6280,42944
6281,41344
6282,39040
6283,36800
6284,34880
6285,33344
6286,32384
6287,31744
6288,31488
6289,31360
6290,31296
6291,31296
6292,31360
6293,31424
6294,31552
6295,31680
6296,31808
6297,32000
6298,32128
6299,32320
6300,32448
6301,32640
6302,32768
6303,32768
6304,32832
6305,32960
6306,33088
6307,33216
6308,33280
6309,33344
6310,33344
6311,33408
6312,33472
6313,33536
6314,33600
6315,33664
6316,33792
6317,33856
6318,33920
6319,33920
6320,33984
6321,34048
6322,34112
6323,34176
6324,34240
6325,34304
6326,34304
6327,34304
6328,34368
6329,34368
6330,34368
6331,34368
6332,34304
6333,34240
6334,34176
6335,34176
6336,34048
6337,33984
6338,33920
6339,33792
6340,33728
6341,33792
6342,33792
6343,33792
6344,33792
6345,33728
6346,33600
6347,33536
6348,33408
6349,33280
6350,33152
6351,33088
6352,32960
6353,32896
6354,32960
6355,32960
6356,32960
6357,32960
6358,33024
6359,32960
6360,32960
6361,33088
6362,33152
6363,33280
6364,33280
6365,33344
6366,33344
6367,33472
6368,33600
6369,33664
6370,33792
6371,33920
6372,33920
6373,33920
6374,33920
6375,33920
6376,33920
6377,33920
6378,33920
6379,33984
6380,33984
6381,34048
6382,33984
6383,33920
6384,33856
6385,33856
6386,33856
6387,33792
6388,33728
6389,33728
6390,33728
6391,33728
6392,33728
6393,33664
6394,33664
6395,33664
6396,33664
6397,33728
6398,33728
6399,33664
6400,33664
6401,33728
6402,33728
6403,33728
6404,33728
6405,33728
6406,33728
6407,33728
6408,33792
6409,33792
6410,33856
6411,33920
6412,33984
6413,34112
6414,34240
6415,34304
6416,34368
6417,34368
6418,34368
6419,34368
6420,34368
6421,34432
6422,34496
6423,34496
6424,34496
6425,34432
6426,34432
6427,34368
6428,34176
6429,33984
6430,33728
6431,33536
6432,33344
6433,33216
6434,33152
6435,33216
6436,33152
6437,33152
6438,33216
6439,33280
6440,33344
6441,33408
6442,33408
6443,33408
6444,33472
6445,33600
6446,33856
6447,34368
6448,35072
6449,36288
6450,38016
6451,40320
6452,42624
6453,43456
6454,42432
6455,40448
6456,38208
6457,36160
6458,34496
6459,33152
6460,32256
6461,31808
6462,31552
6463,31488
6464,31488
6465,31552
6466,31616
6467,31680
6468,31744
6469,31808
6470,32064
6471,32256
6472,32448
6473,32576
6474,32704
6475,32896
6476,33088
6477,33216
6478,33216
6479,33280
6480,33280
6481,33408
6482,33536
6483,33536
6484,33600
6485,33664
6486,33792
6487,33920
6488,34048
6489,34112
6490,34176
6491,34176
6492,34240
6493,34304
6494,34368
6495,34368
6496,34432
6497,34496
6498,34560
6499,34688
6500,34752
6501,34752
6502,34816
6503,34816
6504,34752
6505,34688
6506,34624
6507,34560
6508,34560
6509,34496
6510,34368
6511,34304
6512,34304
6513,34240
6514,34240
6515,34176
6516,34112
6517,34048
6518,33984
6519,33792
6520,33664
6521,33600
6522,33472
6523,33408
6524,33280
6525,33216
6526,33152
6527,33088
6528,33024
6529,33024
6530,33024
6531,33152
6532,33152
6533,33152
6534,33152
6535,33216
6536,33280
6537,33344
6538,33472
6539,33472
6540,33472
6541,33536
6542,33536
6543,33600
6544,33664
6545,33792
6546,33856
6547,33856
6548,33856
6549,33920
6550,33984
6551,34048
6552,34048
6553,34048
6554,34048
6555,34048
6556,34048
6557,34048
6558,34048
6559,33984
6560,33920
6561,33920
6562,33856
6563,33856
6564,33856
6565,33856
6566,33792
6567,33792
6568,33792
6569,33792
6570,33792
6571,33792
6572,33792
6573,33792
6574,33856
6575,33856
6576,33856
6577,33792
6578,33792
6579,33792
6580,33856
6581,33856
6582,33856
6583,33856
6584,33856
6585,33856
6586,33984
6587,34048
6588,34176
6589,34304
6590,34368
6591,34432
6592,34432
6593,34432
6594,34432
6595,34432
6596,34496
6597,34560
6598,34688
6599,34624
6600,34560
6601,34496
6602,34432
6603,34368
6604,34304
6605,34112
6606,33920
6607,33664
6608,33408
6609,33280
6610,33216
6611,33152
6612,33216
6613,33280
6614,33344
6615,33408
6616,33472
6617,33536
6618,33536
6619,33600
6620,33664
6621,33728
6622,33984
6623,34432
6624,35264
6625,36672
6626,38656
6627,41088
6628,43200
6629,43712
6630,42496
6631,40320
6632,37952
6633,35904
6634,33920
6635,32832
6636,32000
6637,31616
6638,31488
6639,31488
6640,31488
6641,31488
6642,31552
6643,31616
6644,31808
6645,32000
6646,32192
6647,32448
6648,32640
6649,32768
6650,32896
6651,32960
6652,33088
6653,33152
6654,33280
6655,33408
6656,33472
6657,33536
6658,33600
6659,33600
6660,33728
6661,33856
6662,33984
6663,33984
6664,34048
6665,34112
6666,34112
6667,34176
6668,34304
6669,34432
6670,34496
6671,34496
6672,34560
6673,34624
6674,34752
6675,34752
6676,34816
6677,34880
6678,34880
6679,34816
6680,34752
6681,34752
6682,34688
6683,34688
6684,34560
6685,34432
6686,34368
6687,34304
6688,34240
6689,34240
6690,34240
6691,34240
6692,34112
6693,34048
6694,33920
6695,33792
6696,33792
6697,33792
6698,33728
6699,33600
6700,33472
6701,33344
6702,33280
6703,33152
6704,33088
6705,33088
6706,33152
6707,33216
6708,33280
6709,33344
6710,33344
6711,33344
6712,33344
6713,33408
6714,33472
6715,33536
6716,33600
6717,33728
6718,33792
6719,33856
6720,33856
6721,33920
6722,33984
6723,34048
6724,34112
6725,34112
6726,34176
6727,34176
6728,34240
6729,34240
6730,34176
6731,34112
6732,34048
6733,34048
6734,33984
6735,34048
6736,34048
6737,34048
6738,34112
6739,34048
6740,33984
6741,33920
6742,33856
6743,33856
6744,33856
6745,33856
6746,33856
6747,33792
6748,33792
6749,33792
6750,33856
6751,33856
6752,33920
6753,33920
6754,33920
6755,33856
6756,33920
6757,33920
6758,33920
6759,33984
6760,33984
6761,33920
6762,33920
6763,33920
6764,33920
6765,33856
6766,33856
6767,33856
6768,33920
6769,33920
6770,33920
6771,33920
6772,33920
6773,33856
6774,33856
6775,33856
6776,33920
6777,33984
6778,34112
6779,34176
6780,34240
6781,34368
6782,34496
6783,34496
6784,34496
6785,34496
6786,34496
6787,34560
6788,34624
6789,34688
6790,34624
6791,34560
6792,34432
6793,34368
6794,34368
6795,34304
6796,34176
6797,33984
6798,33728
6799,33472
6800,33408
6801,33344
6802,33280
6803,33280
6804,33280
6805,33344
6806,33344
6807,33408
6808,33408
6809,33472
6810,33536
6811,33600
6812,33728
6813,33984
6814,34368
6815,35008
6816,36224
6817,37888
6818,40128
6819,42624
6820,43712
6821,43008
6822,41024
6823,38656
6824,36416
6825,34624
6826,33280
6827,32320
6828,31808
6829,31552
6830,31424
6831,31360
6832,31360
6833,31488
6834,31616
6835,31744
6836,32000
6837,32192
6838,32384
6839,32576
6840,32704
6841,32896
6842,32960
6843,33088
6844,33216
6845,33280
6846,33344
6847,33408
6848,33536
6849,33664
6850,33728
6851,33792
6852,33792
6853,33856
6854,33920
6855,34048
6856,34176
6857,34176
6858,34240
6859,34304
6860,34368
6861,34432
6862,34560
6863,34560
6864,34560
6865,34624
6866,34688
6867,34752
6868,34752
6869,34688
6870,34688
6871,34688
6872,34624
6873,34624
6874,34560
6875,34560
6876,34560
6877,34432
6878,34368
6879,34240
6880,34176
6881,34176
6882,34176
6883,34176
6884,34176
6885,34176
6886,34048
6887,33984
6888,33792
6889,33728
6890,33664
6891,33600
6892,33472
6893,33408
6894,33280
6895,33216
6896,33152
6897,33152
6898,33152
6899,33216
6900,33280
6901,33280
6902,33344
6903,33472
6904,33536
6905,33600
6906,33664
6907,33664
6908,33728
6909,33792
6910,33856
6911,33920
6912,33984
6913,33984
6914,34048
6915,34048
6916,34048
6917,34048
6918,33984
6919,33984
6920,33984
6921,33984
6922,33984
6923,33920
6924,33984
6925,33984
6926,34048
6927,33984
6928,33984
6929,33984
6930,33984
6931,33920
6932,33856
6933,33856
6934,33856
6935,33792
6936,33792
6937,33792
6938,33856
6939,33856
6940,33920
6941,33792
6942,33728
6943,33664
6944,33664
6945,33728
6946,33728
6947,33792
6948,33856
6949,33792
6950,33920
6951,33856
6952,33856
6953,33920
6954,33984
6955,34048
6956,34112
6957,34176
6958,34304
6959,34368
6960,34368
6961,34368
6962,34304
6963,34368
6964,34368
6965,34496
6966,34496
6967,34432
6968,34432
6969,34368
6970,34304
6971,34176
6972,34048
6973,33856
6974,33600
6975,33472
6976,33344
6977,33216
6978,33088
6979,33088
6980,33088
6981,33216
6982,33280
6983,33280
6984,33344
6985,33408
6986,33408
6987,33408
6988,33472
6989,33600
6990,33856
6991,34368
6992,35328
6993,37248
6994,37440
6995,41280
6996,43328
6997,43648
6998,42240
6999,40000
7000,37696
7001,35648
7002,33920
7003,32704
7004,31872
7005,31488
7006,31360
7007,31232
7008,31296
7009,31360
7010,31488
7011,31552
7012,31744
7013,31936
7014,32128
7015,32256
7016,32448
7017,32576
7018,32704
7019,32768
7020,32896
7021,33024
7022,33216
7023,33280
7024,33408
7025,33408
7026,33472
7027,33536
7028,33600
7029,33664
7030,33728
7031,33856
7032,33920
7033,33984
7034,34112
7035,34176
7036,34304
7037,34368
7038,34496
7039,34496
7040,34560
7041,34560
7042,34496
7043,34496
7044,34560
7045,34624
7046,34688
7047,34688
7048,34752
7049,34688
7050,34560
7051,34496
7052,34496
7053,34432
7054,34368
7055,34368
7056,34304
7057,34176
7058,34112
7059,33984
7060,33984
7061,33920
7062,33856
7063,33728
7064,33600
7065,33472
7066,33408
7067,33344
7068,33344
7069,33216
7070,33152
7071,33088
7072,33024
7073,32960
7074,32960
7075,32960
7076,33024
7077,33088
7078,33152
7079,33216
7080,33280
7081,33280
7082,33280
7083,33408
7084,33344
7085,33536
7086,33664
7087,33792
7088,33856
7089,33856
7090,33856
7091,33856
7092,33856
7093,33920
7094,33920
7095,33920
7096,33920
7097,33984
7098,33984
7099,33920
7100,33920
7101,33856
7102,33856
7103,33792
7104,33792
7105,33792
7106,33792
7107,33792
7108,33792
7109,33728
7110,33792
7111,33792
7112,33728
7113,33728
7114,33664
7115,33728
7116,33664
7117,33664
7118,33728
7119,33728
7120,33728
7121,33728
7122,33728
7123,33728
7124,33728
7125,33792
7126,33792
7127,33792
7128,33792
7129,33728
7130,33792
7131,33856
7132,33920
7133,33920
7134,33856
7135,33856
7136,33856
7137,33920
7138,33920
7139,33856
7140,33856
7141,33984
7142,34048
7143,34240
7144,34176
7145,34304
7146,34240
7147,34176
7148,34176
7149,34368
7150,34496
7151,34560
7152,34496
7153,34304
7154,34176
7155,34112
7156,33984
7157,33920
7158,33664
7159,33536
7160,33408
7161,33344
7162,33280
7163,33280
7164,33216
7165,33216
7166,33280
7167,33344
7168,33408
7169,33472
7170,33536
7171,33536
7172,33536
7173,33664
7174,33792
7175,34112
7176,34688
7177,35776
7178,37312
7179,39488
7180,41920
7181,43328
7182,42944
7183,41088
7184,38784
7185,36672
7186,34880
7187,33472
7188,32192
7189,32064
7190,31680
7191,31552
7192,31552
7193,31616
7194,31616
7195,31616
7196,31744
7197,31872
7198,32000
7199,32192
7200,32384
7201,32576
7202,32768
7203,32960
7204,32896
7205,33152
7206,33216
7207,33344
7208,33408
7209,33472
7210,33472
7211,33536
7212,33600
7213,33728
7214,33792
7215,33856
7216,33920
7217,33984
7218,34048
7219,33984
7220,34112
7221,34176
7222,34304
7223,34368
7224,34368
7225,34432
7226,34432
7227,34496
7228,34624
7229,34624
7230,34560
7231,34560
7232,34560
7233,34624
7234,34560
7235,34432
7236,34368
7237,34368
7238,34304
7239,34240
7240,34176
7241,34112
7242,34048
7243,34048
7244,34048
7245,33984
7246,33856
7247,33792
7248,33728
7249,33664
7250,33600
7251,33536
7252,33408
7253,33344
7254,33280
7255,33152
7256,33024
7257,32960
7258,32960
7259,32960
7260,32960
7261,33024
7262,33088
7263,33152
7264,33152
7265,33216
7266,33280
7267,33344
7268,33408
7269,33472
7270,33536
7271,33536
7272,33536
7273,33600
7274,33664
7275,33728
7276,33856
7277,33920
7278,33984
7279,33984
7280,33984
7281,33920
7282,33920
7283,33920
7284,33856
7285,33856
7286,33856
7287,33856
7288,33856
7289,33792
7290,33728
7291,33728
7292,33728
7293,33792
7294,33728
7295,33728
7296,33664
7297,33600
7298,33536
7299,33536
7300,33600
7301,33664
7302,33728
7303,33728
7304,33728
7305,33664
7306,33664
7307,33664
7308,33728
7309,33664
7310,33792
7311,33792
7312,33984
7313,33984
7314,34048
7315,34112
7316,34176
7317,34176
7318,34240
7319,34240
7320,34368
7321,34496
7322,34432
7323,34368
7324,34304
7325,34368
7326,34368
7327,34304
7328,34240
7329,34048
7330,33856
7331,33536
7332,33344
7333,33152
7334,33088
7335,33024
7336,33024
7337,33088
7338,33152
7339,33216
7340,33280
7341,33408
7342,33472
7343,33472
7344,33472
7345,33536
7346,33664
7347,33856
7348,34432
7349,35456
7350,37120
7351,39488
7352,41984
7353,43264
7354,43136
7355,40832
7356,38528
7357,36544
7358,34816
7359,33472
7360,32512
7361,31872
7362,31616
7363,31488
7364,31488
7365,31552
7366,31616
7367,31744
7368,31936
7369,31872
7370,32128
7371,32320
7372,32448
7373,32576
7374,32768
7375,32896
7376,32960
7377,33152
7378,33280
7379,33344
7380,33408
7381,33472
7382,33472
7383,33600
7384,33664
7385,33792
7386,33792
7387,33984
7388,34048
7389,34048
7390,34112
7391,34112
7392,34240
7393,34304
7394,34368
7395,34368
7396,34432
7397,34496
7398,34496
7399,34496
7400,34560
7401,34624
7402,34688
7403,34688
7404,34752
7405,34752
7406,34688
7407,34560
7408,34496
7409,34432
7410,34432
7411,34368
7412,34304
7413,34176
7414,34048
7415,33984
7416,33920
7417,33920
7418,33856
7419,33664
7420,33536
7421,33408
7422,33344
7423,33280
7424,33216
7425,33152
7426,33088
7427,33024
7428,32960
7429,32960
7430,32896
7431,32832
7432,32896
7433,32960
7434,33024
7435,33088
7436,33216
7437,33280
7438,33408
7439,33472
7440,33536
7441,33600
7442,33600
7443,33664
7444,33664
7445,33728
7446,33792
7447,33792
7448,33856
7449,33856
7450,33920
7451,33984
7452,33920
7453,33920
7454,33856
7455,33856
7456,33856
7457,33856
7458,33920
7459,33920
7460,33920
7461,33856
7462,33856
7463,33792
7464,33792
7465,33792
7466,33792
7467,33792
7468,33792
7469,33792
7470,33792
7471,33856
7472,33792
7473,33792
7474,33792
7475,33792
7476,33856
7477,33856
7478,33856
7479,33856
7480,33920
7481,33984
7482,34048
7483,34112
7484,34240
7485,34304
7486,34368
7487,34368
7488,34304
7489,34304
7490,34432
7491,34560
7492,34560
7493,34496
7494,34432
7495,34432
7496,34432
7497,34432
7498,34304
7499,34048
7500,33792
7501,33536
7502,33408
7503,33280
7504,33216
7505,33152
7506,33152
7507,33152
7508,33216
7509,33344
7510,33344
7511,33344
7512,33408
7513,33408
7514,33536
7515,33664
7516,33984
7517,34368
7518,35200
7519,36608
7520,38592
7521,41024
7522,43008
7523,43392
7524,42112
7525,39872
7526,37632
7527,35712
7528,34112
7529,32960
7530,32128
7531,31680
7532,31552
7533,31552
7534,31552
7535,31616
7536,31616
7537,31744
7538,31808
7539,32000
7540,32192
7541,32448
7542,32576
7543,32768
7544,32832
7545,32960
7546,33024
7547,33152
7548,33216
7549,33344
7550,33408
7551,33472
7552,33536
7553,33600
7554,33792
7555,33856
7556,33856
7557,33920
7558,33984
7559,33984
7560,33984
7561,34048
7562,34112
7563,34176
7564,34304
7565,34432
7566,34496
7567,34496
7568,34560
7569,34624
7570,34688
7571,34752
7572,34752
7573,34752
7574,34688
7575,34688
7576,34688
7577,34624
7578,34560
7579,34496
7580,34432
7581,34368
7582,34240
7583,34240
7584,34176
7585,34176
7586,34048
7587,33984
7588,33920
7589,33856
7590,33664
7591,33536
7592,33472
7593,33344
7594,33152
7595,33088
7596,33088
7597,33024
7598,32960
7599,32896
7600,32896
7601,32896
7602,32960
7603,33088
7604,33152
7605,33216
7606,33280
7607,33344
7608,33408
7609,33472
7610,33536
7611,33600
7612,33664
7613,33792
7614,33792
7615,33920
7616,33984
7617,33920
7618,33920
7619,33984
7620,34048
7621,34048
7622,33984
7623,33984
7624,33920
7625,33920
7626,33856
7627,33856
7628,33856
7629,33920
7630,33920
7631,33920
7632,33984
7633,33984
7634,34048
7635,33984
7636,33856
7637,33792
7638,33792
7639,33856
7640,33856
7641,33856
7642,33856
7643,33856
7644,33856
7645,33856
7646,33856
7647,33856
7648,33856
7649,33792
7650,33792
7651,33856
7652,33920
7653,33856
7654,33856
7655,33856
7656,33856
7657,33920
7658,33856
7659,33920
7660,33984
7661,33984
7662,33984
7663,33984
7664,33984
7665,34048
7666,34176
7667,34368
7668,34560
7669,34560
7670,34496
7671,34368
7672,34240
7673,34240
7674,34432
7675,34560
7676,34688
7677,34752
7678,34688
7679,34688
7680,34496
7681,34304
7682,34176
7683,34048
7684,33856
7685,33664
7686,33536
7687,33536
7688,33472
7689,33408
7690,33344
7691,33216
7692,33216
7693,33280
7694,33408
7695,33472
7696,33472
7697,33536
7698,33664
7699,33792
7700,34112
7701,34752
7702,35840
7703,37504
7704,39744
7705,42304
7706,43904
7707,43648
7708,41728
7709,39488
7710,37184
7711,35264
7712,33664
7713,32576
7714,31872
7715,31552
7716,31424
7717,31424
7718,31424
7719,31424
7720,31552
7721,31680
7722,31808
7723,31936
7724,32128
7725,32384
7726,32576
7727,32768
7728,32896
7729,33024
7730,33088
7731,33216
7732,33152
7733,33216
7734,33280
7735,33408
7736,33536
7737,33664
7738,33792
7739,33856
7740,33856
7741,33920
7742,33920
7743,33920
7744,33984
7745,34112
7746,34176
7747,34240
7748,34304
7749,34368
7750,34432
7751,34432
7752,34496
7753,34560
7754,34624
7755,34624
7756,34624
7757,34624
7758,34624
7759,34560
7760,34496
7761,34432
7762,34368
7763,34304
7764,34304
7765,34304
7766,34240
7767,34240
7768,34240
7769,34176
7770,34048
7771,33920
7772,33792
7773,33728
7774,33728
7775,33664
7776,33600
7777,33536
7778,33408
7779,33280
7780,33216
7781,33088
7782,33024
7783,33024
7784,33024
7785,33024
7786,33088
7787,33152
7788,33152
7789,33280
7790,33344
7791,33408
7792,33408
7793,33472
7794,33536
7795,33664
7796,33728
7797,33792
7798,33856
7799,33856
7800,33856
7801,33856
7802,33920
7803,33984
7804,33984
7805,33920
7806,33856
7807,33856
7808,33920
7809,33920
7810,33984
7811,33984
7812,33984
7813,33920
7814,33984
7815,33984
7816,33984
7817,33920
7818,33920
7819,33920
7820,33920
7821,33856
7822,33728
7823,33664
7824,33664
7825,33664
7826,33664
7827,33728
7828,33728
7829,33728
7830,33728
7831,33728
7832,33792
7833,33856
7834,33920
7835,33920
7836,33920
7837,33920
7838,33920
7839,33856
7840,33856
7841,33792
7842,33792
7843,33792
7844,33792
7845,33856
7846,33920
7847,33856
7848,33792
7849,33728
7850,33728
7851,33728
7852,33792
7853,33856
7854,33920
7855,33920
7856,33984
7857,34048
7858,34112
7859,34176
7860,34240
7861,34368
7862,34432
7863,34432
7864,34432
7865,34432
7866,34432
7867,34496
7868,34624
7869,34560
7870,34432
7871,34304
7872,34240
7873,34240
7874,34176
7875,34048
7876,33856
7877,33664
7878,33536
7879,33408
7880,33344
7881,33280
7882,33280
7883,33344
7884,33408
7885,33344
7886,33280
7887,33344
7888,33408
7889,33472
7890,33536
7891,33728
7892,33920
7893,34240
7894,34880
7895,36032
7896,37760
7897,40128
7898,42560
7899,43648
7900,43072
7901,41152
7902,38784
7903,36480
7904,34816
7905,33408
7906,32384
7907,31744
7908,31488
7909,31424
7910,31424
7911,31488
7912,31488
7913,31616
7914,31680
7915,31872
7916,31936
7917,32128
7918,32192
7919,32320
7920,32448
7921,32512
7922,32576
7923,32640
7924,32832
7925,33088
7926,33280
7927,33408
7928,33536
7929,33600
7930,33600
7931,33600
7932,33664
7933,33728
7934,33856
7935,34048
7936,34176
7937,34240
7938,34048
7939,33984
7940,34048
7941,34048
7942,33920
7943,33984
7944,34304
7945,34752
7946,35072
7947,35200
7948,35200
7949,34944
7950,34752
7951,34624
7952,34688
7953,34752
7954,34496
7955,33984
7956,33344
7957,33152
7958,33472
7959,34048
7960,34560
7961,34816
7962,34880
7963,34752
7964,34624
7965,34432
7966,34240
7967,34048
7968,33856
7969,33664
7970,33536
7971,33344
7972,33216
7973,33088
7974,32960
7975,32896
7976,32832
7977,32832
7978,32896
7979,32896
7980,32896
7981,32896
7982,32896
7983,32896
7984,32896
7985,32896
7986,33024
7987,33152
7988,33280
7989,33408
7990,33536
7991,33664
7992,33728
7993,33856
7994,33856
7995,33920
7996,33984
7997,33984
7998,33920
7999,33856
8000,33792
8001,33728
8002,33664
8003,33664
8004,33664
8005,33600
8006,33600
8007,33600
8008,33600
8009,33600
8010,33536
8011,33472
8012,33408
8013,33472
8014,33472
8015,33408
8016,33344
8017,33216
8018,33152
8019,33152
8020,33152
8021,33152
8022,33216
8023,33344
8024,33344
8025,33472
8026,33600
8027,33344
8028,33152
8029,33152
8030,33344
8031,33600
8032,33792
8033,33792
8034,33728
8035,33664
8036,33600
8037,33664
8038,33664
8039,33664
8040,33600
8041,33536
8042,33600
8043,33600
8044,33856
8045,33984
8046,33984
8047,33856
8048,33856
8049,33920
8050,34048
8051,34176
8052,34112
8053,34048
8054,34112
8055,34240
8056,34304
8057,34112
8058,33920
8059,33920
8060,33856
8061,33728
8062,33664
8063,33792
8064,33856
8065,33920
8066,33792
8067,33664
8068,33472
8069,33408
8070,33280
8071,33344
8072,33472
8073,33536
8074,33536
8075,33600
8076,33600
8077,33664
8078,33792
8079,33920
8080,34240
8081,34944
8082,36160
8083,37824
8084,40192
8085,42560
8086,43968
8087,43520
8088,41536
8089,38976
8090,36736
8091,34752
8092,33152
8093,32064
8094,31488
8095,31360
8096,31360
8097,31232
8098,31104
8099,31104
8100,31168
8101,31296
8102,31552
8103,31808
8104,32128
8105,32320
8106,32448
8107,32576
8108,32768
8109,32896
8110,33024
8111,33152
8112,33216
8113,33280
8114,33408
8115,33472
8116,33472
8117,33344
8118,33344
8119,33600
8120,33792
8121,33984
8122,34048
8123,34112
8124,34176
8125,34304
8126,34368
8127,34432
8128,34560
8129,34688
8130,34688
8131,34688
8132,34624
8133,34688
8134,34816
8135,34880
8136,34944
8137,34880
8138,34880
8139,34816
8140,34816
8141,34816
8142,34688
8143,34560
8144,34368
8145,34240
8146,34240
8147,34240
8148,34240
8149,34304
8150,34304
8151,34176
8152,34112
8153,34048
8154,33920
8155,33728
8156,33536
8157,33344
8158,33216
8159,33024
8160,32960
8161,32896
8162,32960
8163,33024
8164,33088
8165,33088
8166,33024
8167,33024
8168,33088
8169,33216
8170,33280
8171,33344
8172,33408
8173,33472
8174,33536
8175,33600
8176,33600
8177,33600
8178,33664
8179,33792
8180,33792
8181,33792
8182,33792
8183,33856
8184,33920
8185,33920
8186,33920
8187,33920
8188,33984
8189,33984
8190,33984
8191,33984
8192,33984
8193,33984
8194,33984
8195,34048
8196,34048
8197,33984
8198,33792
8199,33728
8200,33664
8201,33664
8202,33728
8203,33728
8204,33792
8205,33792
8206,33728
8207,33728
8208,33728
8209,33728
8210,33664
8211,33664
8212,33664
8213,33728
8214,33792
8215,33856
8216,33920
8217,33920
8218,33856
8219,33856
8220,33920
8221,33920
8222,33920
8223,33856
8224,33856
8225,33792
8226,33856
8227,33920
8228,33984
8229,34048
8230,34112
8231,34176
8232,34304
8233,34368
8234,34368
8235,34368
8236,34304
8237,34240
8238,34240
8239,34304
8240,34368
8241,34304
8242,34304
8243,34304
8244,34240
8245,34112
8246,33920
8247,33792
8248,33600
8249,33472
8250,33280
8251,33152
8252,33088
8253,33088
8254,33152
8255,33280
8256,33344
8257,33472
8258,33536
8259,33600
8260,33600
8261,33600
8262,33664
8263,33792
8264,34112
8265,34624
8266,35584
8267,37056
8268,39104
8269,41728
8270,43328
8271,43456
8272,41920
8273,39616
8274,37312
8275,35264
8276,33600
8277,32448
8278,31744
8279,31488
8280,31424
8281,31424
8282,31488
8283,31616
8284,31808
8285,31936
8286,32000
8287,32128
8288,32256
8289,32384
8290,32576
8291,32768
8292,32960
8293,33152
8294,33280
8295,33280
8296,33216
8297,33216
8298,33280
8299,33408
8300,33600
8301,33664
8302,33792
8303,33792
8304,33792
8305,33856
8306,33920
8307,34048
8308,34176
8309,34304
8310,34432
8311,34496
8312,34560
8313,34624
8314,34688
8315,34688
8316,34752
8317,34816
8318,34816
8319,34816
8320,34752
8321,34752
8322,34688
8323,34624
8324,34624
8325,34624
8326,34624
8327,34496
8328,34432
8329,34368
8330,34432
8331,34432
8332,34368
8333,34304
8334,34240
8335,34240
8336,34112
8337,34048
8338,33920
8339,33792
8340,33728
8341,33664
8342,33600
8343,33472
8344,33216
8345,33152
8346,33152
8347,33216
8348,33152
8349,33216
8350,33280
8351,33216
8352,33280
8353,33344
8354,33408
8355,33536
8356,33600
8357,33728
8358,33792
8359,33856
8360,33856
8361,33920
8362,33984
8363,34112
8364,34176
8365,34112
8366,33984
8367,33920
8368,33856
8369,33792
8370,33792
8371,33856
8372,33920
8373,33984
8374,34048
8375,34048
8376,34112
8377,34240
8378,34240
8379,34240
8380,34304
8381,34240
8382,33984
8383,33920
8384,33856
8385,33792
8386,33728
8387,33792
8388,33856
8389,33856
8390,33856
8391,33920
8392,33856
8393,33856
8394,33792
8395,33792
8396,33984
8397,34240
8398,34432
8399,34432
8400,34304
8401,34240
8402,34240
8403,34496
8404,34688
8405,34752
8406,34560
8407,34368
8408,34240
8409,34304
8410,34304
8411,34176
8412,34048
8413,33856
8414,33536
8415,33344
8416,33152
8417,33088
8418,33088
8419,33088
8420,33152
8421,33216
8422,33088
8423,33024
8424,33152
8425,33216
8426,33344
8427,33472
8428,33600
8429,33792
8430,34048
8431,34560
8432,35520
8433,37056
8434,39232
8435,41856
8436,43520
8437,43456
8438,41792
8439,39488
8440,37312
8441,35392
8442,33792
8443,32640
8444,31872
8445,31552
8446,31296
8447,31232
8448,31296
8449,31296
8450,31360
8451,31552
8452,31744
8453,31872
8454,32000
8455,32192
8456,32320
8457,32448
8458,32640
8459,32768
8460,32960
8461,33088
8462,33152
8463,33344
8464,33472
8465,33664
8466,33792
8467,33664
8468,33600
8469,33536
8470,33600
8471,34048
8472,34496
8473,34368
8474,33920
8475,33600
8476,33472
8477,33600
8478,33728
8479,33728
8480,33728
8481,33920
8482,34112
8483,34304
8484,34432
8485,34496
8486,34560
8487,34624
8488,34688
8489,34688
8490,34624
8491,34560
8492,34432
8493,34368
8494,34368
8495,34304
8496,34240
8497,34112
8498,33984
8499,33920
8500,33856
8501,33792
8502,33792
8503,33664
8504,33472
8505,33280
8506,33088
8507,33024
8508,33088
8509,33024
8510,32768
8511,32576
8512,32512
8513,32640
8514,32832
8515,32896
8516,32896
8517,32960
8518,33088
8519,33344
8520,33408
8521,33472
8522,33408
8523,33408
8524,33472
8525,33536
8526,33536
8527,33600
8528,33600
8529,33472
8530,33408
8531,33472
8532,33600
8533,33664
8534,33728
8535,33728
8536,33600
8537,33600
8538,33600
8539,33664
8540,33728
8541,33728
8542,33728
8543,33664
8544,33600
8545,33408
8546,33280
8547,33280
8548,33472
8549,33664
8550,33792
8551,33728
8552,33664
8553,33600
8554,33536
8555,33536
8556,33664
8557,33728
8558,33728
8559,33792
8560,33792
8561,33728
8562,33728
8563,33792
8564,33856
8565,33984
8566,34048
8567,34112
8568,34176
8569,34240
8570,34368
8571,34496
8572,34560
8573,34560
8574,34624
8575,34560
8576,34368
8577,34240
8578,34176
8579,34048
8580,33856
8581,33664
8582,33472
8583,33344
8584,33152
8585,33152
8586,33216
8587,33344
8588,33408
8589,33536
8590,33600
8591,33600
8592,33664
8593,33728
8594,33792
8595,33984
8596,34304
8597,34688
8598,35328
8599,36416
8600,38016
8601,40256
8602,42624
8603,43776
8604,43072
8605,41088
8606,38720
8607,36672
8608,34944
8609,33600
8610,32640
8611,32192
8612,32000
8613,32000
8614,32000
8615,31936
8616,31936
8617,32000
8618,32192
8619,32384
8620,32640
8621,32896
8622,33088
8623,33216
8624,33216
8625,33280
8626,33344
8627,33472
8628,33600
8629,33728
8630,33920
8631,34048
8632,34240
8633,34304
8634,34368
8635,34432
8636,34496
8637,34496
8638,34496
8639,34496
8640,34496
8641,34560
8642,34560
8643,34560
8644,34624
8645,34688
8646,34688
8647,34752
8648,34816
8649,34880
8650,35008
8651,35072
8652,35008
8653,35072
8654,35200
8655,35328
8656,35328
8657,35264
8658,35136
8659,35072
8660,35008
8661,34880
8662,34752
8663,34560
8664,34432
8665,34304
8666,34176
8667,33984
8668,33664
8669,33280
8670,33152
8671,33280
8672,33664
8673,34112
8674,34304
8675,34304
8676,34048
8677,33856
8678,33728
8679,33792
8680,33792
8681,33472
8682,33280
8683,33280
8684,33216
8685,33472
8686,33600
8687,33728
8688,33856
8689,33792
8690,33856
8691,33792
8692,33664
8693,33536
8694,33536
8695,33664
8696,33792
8697,34048
8698,34240
8699,34368
8700,34368
8701,34368
8702,34432
8703,34496
8704,34432
8705,34496
8706,34560
8707,34560
8708,34432
8709,34304
8710,34176
8711,34048
8712,34048
8713,34112
8714,34048
8715,34048
8716,34176
8717,34240
8718,34304
8719,34368
8720,34432
8721,34688
8722,34944
8723,35072
8724,35072
8725,35008
8726,34944
8727,34816
8728,34560
8729,34304
8730,34048
8731,33920
8732,33728
8733,33472
8734,33216
8735,32960
8736,32704
8737,32512
8738,32448
8739,32704
8740,33088
8741,33472
8742,33664
8743,33792
8744,33792
8745,33728
8746,33600
8747,33536
8748,33536
8749,33728
8750,34112
8751,35072
8752,36544
8753,38720
8754,41216
8755,42816
8756,42752
8757,41088
8758,38784
8759,36544
8760,34752
8761,33344
8762,32320
8763,31616
8764,31424
8765,31488
8766,31616
8767,31616
8768,31616
8769,31616
8770,31552
8771,31488
8772,31616
8773,31808
8774,31936
8775,32128
8776,32320
8777,32512
8778,32832
8779,32832
8780,33216
8781,33216
8782,32960
8783,32768
8784,32768
8785,33024
8786,33472
8787,33792
8788,33920
8789,33920
8790,33984
8791,33920
8792,33856
8793,33856
8794,33792
8795,33664
8796,33536
8797,33600
8798,33984
8799,34368
8800,34560
8801,34688
8802,34816
8803,34880
8804,34944
8805,34944
8806,34880
8807,34816
8808,34752
8809,34624
8810,34496
8811,34304
8812,34176
8813,34112
8814,34048
8815,33984
8816,33920
8817,33792
8818,33792
8819,33664
8820,33472
8821,33216
8822,33152
8823,33088
8824,33024
8825,33024
8826,33024
8827,32960
8828,33024
8829,33088
8830,33152
8831,33216
8832,33216
8833,33088
8834,32896
8835,32704
8836,32768
8837,32960
8838,33344
8839,33280
8840,33664
8841,33728
8842,33728
8843,33728
8844,33728
8845,33728
8846,33792
8847,33792
8848,33728
8849,33664
8850,33792
8851,33920
8852,34048
8853,34048
8854,33984
8855,33856
8856,33792
8857,33856
8858,33984
8859,34176
8860,34304
8861,34368
8862,34432
8863,34432
8864,34496
8865,34496
8866,34560
8867,34560
8868,34688
8869,34624
8870,34560
8871,34496
8872,34496
8873,34496
8874,34496
8875,34368
8876,34112
8877,33792
8878,33536
8879,33280
8880,33152
8881,33024
8882,33024
8883,33088
8884,33024
8885,33088
8886,33088
8887,33088
8888,33152
8889,33216
8890,33216
8891,33280
8892,33344
8893,33536
8894,33664
8895,34048
8896,34752
8897,35968
8898,38336
8899,38592
8900,42432
8901,43392
8902,42688
8903,40640
8904,38336
8905,36288
8906,34624
8907,33408
8908,32512
8909,32000
8910,31744
8911,31616
8912,31552
8913,31552
8914,31552
8915,31744
8916,31936
8917,32064
8918,32256
8919,32448
8920,32640
8921,32768
8922,32896
8923,32960
8924,33024
8925,33088
8926,33152
8927,33280
8928,33472
8929,33600
8930,33728
8931,33856
8932,33856
8933,33920
8934,33984
8935,34048
8936,34112
8937,34112
8938,34048
8939,34112
8940,34240
8941,34368
8942,34496
8943,34432
8944,34368
8945,34432
8946,34496
8947,34624
8948,34752
8949,34752
8950,34752
8951,34816
8952,34752
8953,34752
8954,34752
8955,34688
8956,34624
8957,34432
8958,34304
8959,34240
8960,34176
8961,34112
8962,33984
8963,33920
8964,33856
8965,33856
8966,33792
8967,33536
8968,33280
8969,33152
8970,33152
8971,33088
8972,33088
8973,33152
8974,33088
8975,33152
8976,33024
8977,32960
8978,33024
8979,33024
8980,33024
8981,33088
8982,33088
8983,33152
8984,33152
8985,33152
8986,33280
8987,33408
8988,33472
8989,33408
8990,33536
8991,33600
8992,33600
8993,33600
8994,33664
8995,33664
8996,33600
8997,33600
8998,33600
8999,33664
9000,33792
9001,33920
9002,34048
9003,34112
9004,34048
9005,34112
9006,34176
9007,34176
9008,34240
9009,34240
9010,34304
9011,34368
9012,34496
9013,34496
9014,34496
9015,34432
9016,34368
9017,34176
9018,33984
9019,33920
9020,33728
9021,33472
9022,33216
9023,33088
9024,32896
9025,32832
9026,32704
9027,32640
9028,32768
9029,32896
9030,33024
9031,33216
9032,33280
9033,33280
9034,33344
9035,33408
9036,33536
9037,33728
9038,34112
9039,34944
9040,36288
9041,38336
9042,40960
9043,43008
9044,43456
9045,42176
9046,39936
9047,37632
9048,35008
9049,34752
9050,32768
9051,31936
9052,31552
9053,31424
9054,31424
9055,31424
9056,31488
9057,31552
9058,31680
9059,31808
9060,31936
9061,32128
9062,32320
9063,32448
9064,32640
9065,32832
9066,33024
9067,33088
9068,33152
9069,33280
9070,33408
9071,33472
9072,33472
9073,33600
9074,33664
9075,33792
9076,33856
9077,33920
9078,33984
9079,33920
9080,34112
9081,34176
9082,34240
9083,34304
9084,34432
9085,34432
9086,34496
9087,34624
9088,34688
9089,34752
9090,34752
9091,34752
9092,34752
9093,34816
9094,34752
9095,34752
9096,34688
9097,34624
9098,34560
9099,34496
9100,34432
9101,34368
9102,34368
9103,34304
9104,34304
9105,34176
9106,34048
9107,33920
9108,33792
9109,33728
9110,33600
9111,33472
9112,33408
9113,33344
9114,33280
9115,33216
9116,33024
9117,32960
9118,33024
9119,33024
9120,33024
9121,33024
9122,33024
9123,33088
9124,33216
9125,33280
9126,33408
9127,33472
9128,33536
9129,33600
9130,33664
9131,33792
9132,33856
9133,33856
9134,33856
9135,33856
9136,33856
9137,33856
9138,33792
9139,33792
9140,33856
9141,33984
9142,34048
9143,34112
9144,34112
9145,34048
9146,34048
9147,34112
9148,34176
9149,34240
9150,34304
9151,34304
9152,34304
9153,34368
9154,34368
9155,34496
9156,34560
9157,34624
9158,34560
9159,34432
9160,34368
9161,34304
9162,34240
9163,34112
9164,33920
9165,33728
9166,33472
9167,33344
9168,33152
9169,33088
9170,33024
9171,33024
9172,33088
9173,33088
9174,33216
9175,33216
9176,33280
9177,33344
9178,33408
9179,33472
9180,33600
9181,33792
9182,34112
9183,35136
9184,35264
9185,37504
9186,39744
9187,42240
9188,43520
9189,42880
9190,41024
9191,38720
9192,36608
9193,34752
9194,33280
9195,32256
9196,31680
9197,31424
9198,31360
9199,31296
9200,31296
9201,31360
9202,31424
9203,31616
9204,31808
9205,32064
9206,32256
9207,32448
9208,32640
9209,32768
9210,32832
9211,33024
9212,33152
9213,33280
9214,33280
9215,33408
9216,33536
9217,33536
9218,33536
9219,33536
9220,33664
9221,33792
9222,33792
9223,33856
9224,33984
9225,34112
9226,34240
9227,34304
9228,34368
9229,34432
9230,34432
9231,34496
9232,34560
9233,34624
9234,34624
9235,34752
9236,34816
9237,34816
9238,34816
9239,34816
9240,34816
9241,34752
9242,34688
9243,34560
9244,34496
9245,34368
9246,34368
9247,34368
9248,34368
9249,34304
9250,34176
9251,34112
9252,33984
9253,33856
9254,33728
9255,33600
9256,33472
9257,33344
9258,33152
9259,33088
9260,33024
9261,32960
9262,32960
9263,32960
9264,32960
9265,32960
9266,32960
9267,33024
9268,33088
9269,33152
9270,33152
9271,33216
9272,33344
9273,33408
9274,33408
9275,33408
9276,33536
9277,33664
9278,33728
9279,33728
9280,33792
9281,33856
9282,33856
9283,33856
9284,33792
9285,33856
9286,33856
9287,33856
9288,33856
9289,33792
9290,33856
9291,33920
9292,33920
9293,33856
9294,33856
9295,33856
9296,33856
9297,33792
9298,33856
9299,33984
9300,34048
9301,34048
9302,34112
9303,34176
9304,34112
9305,34304
9306,34368
9307,34432
9308,34496
9309,34432
9310,34368
9311,34304
9312,34240
9313,34112
9314,33984
9315,33792
9316,33600
9317,33344
9318,33088
9319,33024
9320,32960
9321,32960
9322,33024
9323,33024
9324,33024
9325,33024
9326,33088
9327,33088
9328,33152
9329,33216
9330,33280
9331,33408
9332,33600
9333,33984
9334,34496
9335,35392
9336,36736
9337,38720
9338,41216
9339,43008
9340,43200
9341,41728
9342,39488
9343,37120
9344,35136
9345,33472
9346,32320
9347,31552
9348,31232
9349,31168
9350,31232
9351,31232
9352,31296
9353,31424
9354,31552
9355,31744
9356,31936
9357,32128
9358,32320
9359,32448
9360,32576
9361,32704
9362,32896
9363,33088
9364,33216
9365,33216
9366,33280
9367,33408
9368,33472
9369,33536
9370,33600
9371,33664
9372,33728
9373,33792
9374,33920
9375,33984
9376,34048
9377,34112
9378,34176
9379,34304
9380,34368
9381,34368
9382,34368
9383,34432
9384,34432
9385,34496
9386,34560
9387,34560
9388,34560
9389,34560
9390,34560
9391,34496
9392,34496
9393,34496
9394,34432
9395,34368
9396,34368
9397,34368
9398,34176
9399,34048
9400,33984
9401,33984
9402,33984
9403,33984
9404,33856
9405,33728
9406,33536
9407,33344
9408,33152
9409,33088
9410,33088
9411,33088
9412,33088
9413,33152
9414,33088
9415,33024
9416,33024
9417,33088
9418,33088
9419,33152
9420,33152
9421,33280
9422,33344
9423,33408
9424,33472
9425,33536
9426,33600
9427,33664
9428,33664
9429,33728
9430,33728
9431,33792
9432,33856
9433,33920
9434,33984
9435,33920
9436,33984
9437,33984
9438,34048
9439,34048
9440,33984
9441,33984
9442,33984
9443,33984
9444,33984
9445,33920
9446,33856
9447,33792
9448,33792
9449,33856
9450,33920
9451,33984
9452,34048
9453,34176
9454,34240
9455,34304
9456,34368
9457,34368
9458,34496
9459,34560
9460,34560
9461,34560
9462,34496
9463,34496
9464,34432
9465,34304
9466,34176
9467,33984
9468,33728
9469,33472
9470,33344
9471,33216
9472,33152
9473,33024
9474,32960
9475,33024
9476,33088
9477,33152
9478,33216
9479,33216
9480,33280
9481,33344
9482,33472
9483,33600
9484,33856
9485,34240
9486,34880
9487,36032
9488,37824
9489,40192
9490,42432
9491,43392
9492,42496
9493,40448
9494,38144
9495,36032
9496,34304
9497,32960
9498,32128
9499,31680
9500,31488
9501,31424
9502,31424
9503,31424
9504,31424
9505,31552
9506,31680
9507,31872
9508,32128
9509,32320
9510,32512
9511,32640
9512,32832
9513,32960
9514,33024
9515,33088
9516,33152
9517,33280
9518,33344
9519,33408
9520,33536
9521,33600
9522,33664
9523,33664
9524,33664
9525,33728
9526,33728
9527,33856
9528,33984
9529,34048
9530,34176
9531,34304
9532,34368
9533,34432
9534,34496
9535,34496
9536,34496
9537,34496
9538,34560
9539,34624
9540,34624
9541,34624
9542,34560
9543,34560
9544,34496
9545,34432
9546,34368
9547,34304
9548,34240
9549,34240
9550,34240
9551,34176
9552,34112
9553,34048
9554,33984
9555,33856
9556,33792
9557,33664
9558,33600
9559,33536
9560,33408
9561,33280
9562,33280
9563,33280
9564,33280
9565,33216
9566,33152
9567,33088
9568,33088
9569,33152
9570,33152
9571,33216
9572,33280
9573,33344
9574,33408
9575,33472
9576,33600
9577,33664
9578,33664
9579,33728
9580,33728
9581,33728
9582,33792
9583,33856
9584,33920
9585,33920
9586,34048
9587,34112
9588,34176
9589,34112
9590,34048
9591,33984
9592,33920
9593,33920
9594,33920
9595,33920
9596,33920
9597,33856
9598,33856
9599,33856
9600,33920
9601,33984
9602,34048
9603,34112
9604,34176
9605,34240
9606,34240
9607,34304
9608,34368
9609,34432
9610,34432
9611,34496
9612,34496
9613,34496
9614,34368
9615,34304
9616,34240
9617,34176
9618,34048
9619,33792
9620,33472
9621,33216
9622,33088
9623,32960
9624,32960
9625,32960
9626,32960
9627,33088
9628,33088
9629,33088
9630,33152
9631,33216
9632,33280
9633,33280
9634,33408
9635,33600
9636,33856
9637,34432
9638,35456
9639,36992
9640,39168
9641,41664
9642,43264
9643,43008
9644,41408
9645,39168
9646,36928
9647,34944
9648,33408
9649,32320
9650,31680
9651,31488
9652,31360
9653,31360
9654,31360
9655,31360
9656,31424
9657,31552
9658,31744
9659,31872
9660,32064
9661,32256
9662,32384
9663,32576
9664,32704
9665,32832
9666,32960
9667,33024
9668,33088
9669,33216
9670,33408
9671,33536
9672,33600
9673,33600
9674,33664
9675,33664
9676,33728
9677,33856
9678,33984
9679,34112
9680,34176
9681,34240
9682,34304
9683,34432
9684,34496
9685,34496
9686,34496
9687,34560
9688,34560
9689,34624
9690,34624
9691,34688
9692,34688
9693,34624
9694,34624
9695,34560
9696,34560
9697,34496
9698,34432
9699,34368
9700,34304
9701,34240
9702,34176
9703,34112
9704,34048
9705,33984
9706,33920
9707,33856
9708,33792
9709,33600
9710,33536
9711,33472
9712,33472
9713,33408
9714,33280
9715,33280
9716,33216
9717,33152
9718,33152
9719,33152
9720,33216
9721,33280
9722,33280
9723,33280
9724,33280
9725,33344
9726,33408
9727,33472
9728,33600
9729,33664
9730,33728
9731,33792
9732,33792
9733,33856
9734,33856
9735,33856
9736,33920
9737,33984
9738,33984
9739,33984
9740,33984
9741,33984
9742,33984
9743,33984
9744,33984
9745,33984
9746,33920
9747,33920
9748,33856
9749,33856
9750,33856
9751,33920
9752,33920
9753,33984
9754,33984
9755,34048
9756,34112
9757,34176
9758,34176
9759,34176
9760,34176
9761,34240
9762,34368
9763,34432
9764,34496
9765,34496
9766,34432
9767,34368
9768,34368
9769,34368
9770,34304
9771,34176
9772,33984
9773,33728
9774,33472
9775,33344
9776,33216
9777,33152
9778,33088
9779,33152
9780,33152
9781,33152
9782,33152
9783,33216
9784,33280
9785,33344
9786,33408
9787,33472
9788,33600
9789,33856
9790,34240
9791,35072
9792,36416
9793,38336
9794,40832
9795,43008
9796,43648
9797,42496
9798,40384
9799,38080
9800,35968
9801,34176
9802,32832
9803,32000
9804,31616
9805,31424
9806,31424
9807,31424
9808,31488
9809,31552
9810,31616
9811,31808
9812,32000
9813,32128
9814,32320
9815,32512
9816,32640
9817,32832
9818,32896
9819,32960
9820,33088
9821,33152
9822,33216
9823,33280
9824,33408
9825,33536
9826,33664
9827,33728
9828,33792
9829,33856
9830,33920
9831,33984
9832,34048
9833,34048
9834,34176
9835,34240
9836,34304
9837,34432
9838,34496
9839,34496
9840,34496
9841,34560
9842,34560
9843,34624
9844,34624
9845,34624
9846,34624
9847,34624
9848,34560
9849,34496
9850,34432
9851,34432
9852,34368
9853,34368
9854,34304
9855,34240
9856,34176
9857,34112
9858,33984
9859,33920
9860,33856
9861,33792
9862,33728
9863,33600
9864,33472
9865,33344
9866,33216
9867,33152
9868,33152
9869,33088
9870,33024
9871,33024
9872,33024
9873,33024
9874,33088
9875,33152
9876,33216
9877,33280
9878,33344
9879,33408
9880,33536
9881,33600
9882,33664
9883,33728
9884,33728
9885,33792
9886,33856
9887,33920
9888,33920
9889,33920
9890,33856
9891,33920
9892,33856
9893,33856
9894,33920
9895,33984
9896,33984
9897,33984
9898,33984
9899,33984
9900,33984
9901,33920
9902,33856
9903,33792
9904,33792
9905,33856
9906,33792
9907,33792
9908,33728
9909,33792
9910,33856
9911,33920
9912,33984
9913,34048
9914,34176
9915,34240
9916,34176
9917,34176
9918,34304
9919,34432
9920,34496
9921,34560
9922,34496
9923,34432
9924,34368
9925,34368
9926,34304
9927,34176
9928,33984
9929,33664
9930,33344
9931,33216
9932,33152
9933,33088
9934,33152
9935,33152
9936,33088
9937,33088
9938,33088
9939,33216
9940,33344
9941,33408
9942,33344
9943,33344
9944,33600
9945,33920
9946,34432
9947,35328
9948,36736
9949,38720
9950,41152
9951,42880
9952,42944
9953,41408
9954,39296
9955,37184
9956,35264
9957,33728
9958,32640
9959,31936
9960,31616
9961,31552
9962,31552
9963,31552
9964,31616
9965,31680
9966,31744
9967,31872
9968,32000
9969,32192
9970,32384
9971,32512
9972,32640
9973,32768
9974,32896
9975,32960
9976,33024
9977,33152
9978,33344
9979,33472
9980,33600
9981,33664
9982,33728
9983,33856
9984,33984
9985,34048
9986,34048
9987,34112
9988,34176
9989,34240
9990,34368
9991,34432
9992,34432
9993,34432
9994,34496
9995,34560
9996,34560
9997,34624
9998,34624
9999,34688
10000,34688
10001,34752
10002,34688
10003,34688
10004,34560
10005,34496
10006,34368
10007,34368
10008,34368
10009,34304
10010,34304
10011,34176
10012,34112
10013,34048
10014,33984
10015,33920
10016,33920
10017,33856
10018,33728
10019,33600
10020,33536
10021,33472
10022,33408
10023,33344
10024,33344
10025,33216
10026,33152
10027,33152
10028,33152
10029,33152
10030,33152
10031,33216
10032,33216
10033,33216
10034,33216
10035,33344
10036,33472
10037,33600
10038,33728
10039,33728
10040,33664
10041,33664
10042,33664
10043,33728
10044,33856
10045,33920
10046,33984
10047,33984
10048,33984
10049,33920
10050,33984
10051,33984
10052,33984
10053,34048
10054,34048
10055,33984
10056,33984
10057,33920
10058,33792
10059,33856
10060,33920
10061,33984
10062,34048
10063,34112
10064,34112
10065,34176
10066,34240
10067,34304
10068,34304
10069,34304
10070,34368
10071,34432
10072,34496
10073,34560
10074,34560
10075,34560
10076,34560
10077,34368
10078,34112
10079,33856
10080,33536
10081,33280
10082,33152
10083,33152
10084,33152
10085,33088
10086,33088
10087,33088
10088,33088
10089,33152
10090,33280
10091,33344
10092,33344
10093,33344
10094,33472
10095,33600
10096,33856
10097,34496
10098,35648
10099,37504
10100,39744
10101,42112
10102,43200
10103,42560
10104,40576
10105,38208
10106,36160
10107,34432
10108,33216
10109,32384
10110,31872
10111,31680
10112,31616
10113,31616
10114,31616
10115,31616
10116,31744
10117,31872
10118,32064
10119,32256
10120,32384
10121,32512
10122,32640
10123,32768
10124,32960
10125,33088
10126,33216
10127,33344
10128,33408
10129,33472
10130,33536
10131,33600
10132,33664
10133,33728
10134,33792
10135,33920
10136,33984
10137,34048
10138,34112
10139,34112
10140,34240
10141,34304
10142,34304
10143,34368
10144,34432
10145,34432
10146,34432
10147,34496
10148,34560
10149,34624
10150,34624
10151,34624
10152,34624
10153,34688
10154,34624
10155,34560
10156,34560
10157,34496
10158,34432
10159,34304
10160,34240
10161,34176
10162,34112
10163,34048
10164,33984
10165,33984
10166,33984
10167,33920
10168,33792
10169,33664
10170,33536
10171,33472
10172,33344
10173,33280
10174,33152
10175,33088
10176,33088
10177,33024
10178,33088
10179,33088
10180,33152
10181,33152
10182,33152
10183,33216
10184,33280
10185,33344
10186,33408
10187,33536
10188,33664
10189,33728
10190,33728
10191,33792
10192,33856
10193,33856
10194,33920
10195,33920
10196,33920
10197,33920
10198,33984
10199,33984
10200,33920
10201,33920
10202,33920
10203,33920
10204,33920
10205,33856
10206,33792
10207,33728
10208,33664
10209,33664
10210,33600
10211,33664
10212,33728
10213,33664
10214,33664
10215,33664
10216,33664
10217,33728
10218,33792
10219,33920
10220,33984
10221,34112
10222,34176
10223,34176
10224,34240
10225,34304
10226,34304
10227,34240
10228,34240
10229,34240
10230,34304
10231,34368
10232,34368
10233,34368
10234,34304
10235,34176
10236,33984
10237,33792
10238,33600
10239,33344
10240,33280
10241,33152
10242,33088
10243,33088
10244,33088
10245,33088
10246,33152
10247,33280
10248,33344
10249,33408
10250,33472
10251,33536
10252,33600
10253,33856
10254,34368
10255,35328
10256,36800
10257,38784
10258,41344
10259,43200
10260,43264
10261,41792
10262,39552
10263,37312
10264,35200
10265,33728
10266,32576
10267,31872
10268,31552
10269,31488
10270,31488
10271,31552
10272,31552
10273,31680
10274,31744
10275,31872
10276,32064
10277,32256
10278,32384
10279,32576
10280,32768
10281,32832
10282,32960
10283,33088
10284,33152
10285,33280
10286,33280
10287,33408
10288,33472
10289,33536
10290,33600
10291,33728
10292,33792
10293,33856
10294,33920
10295,33984
10296,34048
10297,34176
10298,34240
10299,34368
10300,34368
10301,34432
10302,34432
10303,34496
10304,34560
10305,34624
10306,34688
10307,34688
10308,34688
10309,34688
10310,34688
10311,34688
10312,34624
10313,34560
10314,34496
10315,34432
10316,34368
10317,34304
10318,34240
10319,34176
10320,34176
10321,34176
10322,34112
10323,34048
10324,33984
10325,33920
10326,33792
10327,33664
10328,33536
10329,33408
10330,33344
10331,33280
10332,33216
10333,33152
10334,33088
10335,33088
10336,33024
10337,33024
10338,33024
10339,33024
10340,33088
10341,33152
10342,33216
10343,33280
10344,33344
10345,33408
10346,33536
10347,33600
10348,33664
10349,33728
10350,33728
10351,33728
10352,33728
10353,33792
10354,33856
10355,33856
10356,33856
10357,33920
10358,33920
10359,33920
10360,33920
10361,33856
10362,33792
10363,33792
10364,33856
10365,33856
10366,33856
10367,33856
10368,33792
10369,33792
10370,33792
10371,33792
10372,33792
10373,33792
10374,33792
10375,33792
10376,33792
10377,33856
10378,33920
10379,34048
10380,34112
10381,34176
10382,34176
10383,34176
10384,34176
10385,34240
10386,34368
10387,34432
10388,34496
10389,34432
10390,34368
10391,34304
10392,34240
10393,34112
10394,33984
10395,33856
10396,33664
10397,33536
10398,33408
10399,33344
10400,33280
10401,33216
10402,33152
10403,33216
10404,33216
10405,33216
10406,33280
10407,33344
10408,33344
10409,33408
10410,33472
10411,33664
10412,33856
10413,34304
10414,35200
10415,36480
10416,38400
10417,40832
10418,42816
10419,43136
10420,41792
10421,39552
10422,37312
10423,35392
10424,33792
10425,32640
10426,31936
10427,31616
10428,31552
10429,31552
10430,31552
10431,31616
10432,31680
10433,31808
10434,31936
10435,32064
10436,32256
10437,32384
10438,32576
10439,32704
10440,32768
10441,32896
10442,33024
10443,33088
10444,33216
10445,33344
10446,33408
10447,33472
10448,33536
10449,33600
10450,33728
10451,33792
10452,33856
10453,33920
10454,33920
10455,33984
10456,34048
10457,34176
10458,34240
10459,34304
10460,34368
10461,34432
10462,34496
10463,34560
10464,34624
10465,34624
10466,34624
10467,34688
10468,34624
10469,34624
10470,34624
10471,34560
10472,34496
10473,34368
10474,34304
10475,34240
10476,34176
10477,34240
10478,34240
10479,34176
10480,34112
10481,34048
10482,34048
10483,33920
10484,33792
10485,33664
10486,33536
10487,33408
10488,33408
10489,33344
10490,33216
10491,33088
10492,33088
10493,32960
10494,32960
10495,33024
10496,33088
10497,33152
10498,33152
10499,33280
10500,33472
10501,33536
10502,33536
10503,33536
10504,33472
10505,33536
10506,33664
10507,33728
10508,33728
10509,33856
10510,33856
10511,33792
10512,33792
10513,33856
10514,33984
10515,33984
10516,33984
10517,33984
10518,33920
10519,33984
10520,34048
10521,33984
10522,33920
10523,33920
10524,33920
10525,33920
10526,33920
10527,33920
10528,33856
10529,33856
10530,33920
10531,33984
10532,34048
10533,34176
10534,34240
10535,34240
10536,34176
10537,34176
10538,34176
10539,34304
10540,34432
10541,34432
10542,34432
10543,34496
10544,34432
10545,34496
10546,34432
10547,34240
10548,33984
10549,33920
10550,33536
10551,33344
10552,33152
10553,33088
10554,32960
10555,32960
10556,33024
10557,33088
10558,33152
10559,33152
10560,33280
10561,33344
10562,33408
10563,33472
10564,33472
10565,33920
10566,34304
10567,35136
10568,36480
10569,38528
10570,41024
10571,42880
10572,43072
10573,41536
10574,39360
10575,37184
10576,35328
10577,33728
10578,32512
10579,32384
10580,31616
10581,31552
10582,31488
10583,31552
10584,31552
10585,31680
10586,31808
10587,31936
10588,32128
10589,32256
10590,32448
10591,32576
10592,32704
10593,32832
10594,32960
10595,33152
10596,33216
10597,33280
10598,33344
10599,33472
10600,33536
10601,33600
10602,33664
10603,33792
10604,33856
10605,33856
10606,33920
10607,33984
10608,34048
10609,34048
10610,34176
10611,34304
10612,34368
10613,34432
10614,34560
10615,34560
10616,34560
10617,34496
10618,34496
10619,34496
10620,34560
10621,34624
10622,34624
10623,34560
10624,34496
10625,34304
10626,34304
10627,34240
10628,34240
10629,34176
10630,34112
10631,34112
10632,34112
10633,34048
10634,33984
10635,33920
10636,33792
10637,33664
10638,33536
10639,33408
10640,33344
10641,33216
10642,33152
10643,33088
10644,33088
10645,33024
10646,32960
10647,33024
10648,33088
10649,33088
10650,33088
10651,33088
10652,33152
10653,33280
10654,33216
10655,33408
10656,33472
10657,33536
10658,33600
10659,33664
10660,33728
10661,33792
10662,33792
10663,33792
10664,33856
10665,33856
10666,33920
10667,33920
10668,33984
10669,33920
10670,33984
10671,33920
10672,33920
10673,33984
10674,33984
10675,34048
10676,33984
10677,33920
10678,33856
10679,33792
10680,33728
10681,33664
10682,33664
10683,33728
10684,33664
10685,33728
10686,33728
10687,33728
10688,33792
10689,33920
10690,33920
10691,34048
10692,34112
10693,34240
10694,34240
10695,34304
10696,34304
10697,34304
10698,34368
10699,34496
10700,34560
10701,34496
10702,34496
10703,34496
10704,34432
10705,34304
10706,34176
10707,33984
10708,33792
10709,33536
10710,33344
10711,33280
10712,33216
10713,33152
10714,33088
10715,33152
10716,33216
10717,33280
10718,33344
10719,33408
10720,33408
10721,33472
10722,33472
10723,33664
10724,33984
10725,34560
10726,35520
10727,37056
10728,39552
10729,39808
10730,43328
10731,43264
10732,41664
10733,39424
10734,37184
10735,35200
10736,33664
10737,32512
10738,31808
10739,31424
10740,31360
10741,31360
10742,31296
10743,31360
10744,31488
10745,31680
10746,31872
10747,32064
10748,32192
10749,32384
10750,32576
10751,32704
10752,32832
10753,32960
10754,33088
10755,33152
10756,33216
10757,33216
10758,33280
10759,33344
10760,33408
10761,33472
10762,33536
10763,33600
10764,33728
10765,33792
10766,33856
10767,33984
10768,34048
10769,34112
10770,34176
10771,34240
10772,34304
10773,34368
10774,34304
10775,34496
10776,34560
10777,34624
10778,34624
10779,34624
10780,34624
10781,34624
10782,34624
10783,34560
10784,34496
10785,34432
10786,34368
10787,34304
10788,34304
10789,34240
10790,34176
10791,34112
10792,34048
10793,33920
10794,33856
10795,33792
10796,33792
10797,33792
10798,33664
10799,33536
10800,33408
10801,33280
10802,33216
10803,33152
10804,33088
10805,33024
10806,33024
10807,33024
10808,33024
10809,33024
10810,33088
10811,33152
10812,33216
10813,33280
10814,33344
10815,33408
10816,33472
10817,33600
10818,33728
10819,33664
10820,33856
10821,33856
10822,33856
10823,33856
10824,33856
10825,33920
10826,33856
10827,33856
10828,33856
10829,33856
10830,33856
10831,33856
10832,33856
10833,33920
10834,33856
10835,33792
10836,33664
10837,33664
10838,33792
10839,33664
10840,33600
10841,33536
10842,33536
10843,33536
10844,33600
10845,33728
10846,33856
10847,33984
10848,34112
10849,34048
10850,34048
10851,34112
10852,34176
10853,34240
10854,34304
10855,34368
10856,34496
10857,34560
10858,34560
10859,34560
10860,34496
10861,34432
10862,34304
10863,34112
10864,34048
10865,33728
10866,33472
10867,33280
10868,33152
10869,33024
10870,33024
10871,33152
10872,33216
10873,33280
10874,33344
10875,33344
10876,33344
10877,33344
10878,33472
10879,33472
10880,33792
10881,34048
10882,34496
10883,35392
10884,36864
10885,38912
10886,41408
10887,43328
10888,43456
10889,41984
10890,39744
10891,37504
10892,35456
10893,33344
10894,33152
10895,31872
10896,31552
10897,31424
10898,31360
10899,31424
10900,31488
10901,31552
10902,31744
10903,31872
10904,32064
10905,32256
10906,32448
10907,32576
10908,32640
10909,32768
10910,32832
10911,33024
10912,33152
10913,33280
10914,33344
10915,33408
10916,33536
10917,33600
10918,33664
10919,33728
10920,33856
10921,33856
10922,33920
10923,34048
10924,33984
