,ECG
0,33920
1,33728
2,33600
3,33536
4,33600
5,33728
6,33728
7,33664
8,33664
9,33536
10,33472
11,33472
12,33472
13,33472
14,33280
15,33024
16,33152
17,33600
18,34688
19,36352
20,38720
21,41088
22,44032
23,46464
24,47552
25,46592
26,43840
27,39616
28,35264
29,31680
30,28928
31,27712
32,27200
33,27328
34,27904
35,28864
36,29696
37,30720
38,31680
39,32448
40,33088
41,33472
42,33728
43,33920
44,34112
45,34240
46,34176
47,34112
48,34112
49,34048
50,33920
51,33792
52,33664
53,33408
54,33344
55,33280
56,33344
57,33344
58,33472
59,33472
60,33600
61,33600
62,33664
63,33728
64,33792
65,33920
66,33984
67,33984
68,34048
69,34112
70,34112
71,34048
72,34048
73,34112
74,34240
75,34304
76,34368
77,34432
78,34496
79,34496
80,34496
81,34496
82,34496
83,34624
84,34560
85,34496
86,34432
87,34176
88,34176
89,34240
90,33984
91,33728
92,33600
93,33664
94,33600
95,33472
96,33472
97,33472
98,33664
99,33856
100,34048
101,34176
102,34240
103,34112
104,34048
105,33984
106,33984
107,33984
108,34048
109,34176
110,34112
111,33856
112,33664
113,33664
114,33728
115,33728
116,33664
117,33600
118,33728
119,33920
120,33920
121,34048
122,34112
123,34176
124,34240
125,33920
126,33792
127,33920
128,34112
129,34304
130,34176
131,33792
132,33664
133,33600
134,33600
135,33216
136,32512
137,32064
138,32320
139,32960
140,33536
141,34112
142,34368
143,34432
144,34432
145,34368
146,34304
147,34240
148,34304
149,34368
150,34368
151,34240
152,34048
153,33408
154,32384
155,31680
156,31872
157,32704
158,33856
159,34944
160,35456
161,35584
162,35200
163,34624
164,33984
165,33152
166,32256
167,32192
168,32704
169,33152
170,33280
171,33024
172,32768
173,32512
174,32064
175,31488
176,30848
177,30208
178,29440
179,28928
180,28544
181,28096
182,27712
183,27264
184,26624
185,25792
186,24768
187,23424
188,21696
189,20352
190,20352
191,21952
192,25024
193,28672
194,32896
195,37504
196,41088
197,42496
198,41472
199,38400
200,34560
201,31168
202,28736
203,27200
204,26560
205,26752
206,27584
207,28800
208,29888
209,30848
210,31552
211,32192
212,32832
213,33344
214,33664
215,33984
216,34048
217,34176
218,34368
219,34496
220,34496
221,34368
222,34368
223,34368
224,34560
225,34688
226,34752
227,34816
228,34880
229,35136
230,35328
231,35392
232,35264
233,35328
234,35392
235,35264
236,35200
237,35392
238,35584
239,35776
240,35840
241,36096
242,36224
243,36480
244,36352
245,36224
246,36096
247,35840
248,35712
249,35648
250,35584
251,35328
252,35136
253,35072
254,35072
255,35136
256,35136
257,35072
258,35136
259,35328
260,35392
261,35456
262,35456
263,35456
264,35520
265,35584
266,35712
267,35712
268,35584
269,35392
270,35136
271,35072
272,34944
273,34880
274,34880
275,34880
276,34816
277,34624
278,34560
279,34560
280,34688
281,34816
282,34816
283,34880
284,35072
285,34944
286,34752
287,34688
288,34752
289,34880
290,35008
291,35008
292,35008
293,35072
294,35072
295,35072
296,35200
297,35200
298,35136
299,35264
300,35520
301,35776
302,35904
303,35776
304,35712
305,35584
306,35328
307,35328
308,35200
309,35200
310,35328
311,35392
312,35456
313,35392
314,35264
315,35200
316,35200
317,35200
318,35200
319,35136
320,35008
321,34944
322,35008
323,35200
324,35264
325,35200
326,35200
327,35392
328,35584
329,35648
330,35648
331,35584
332,35584
333,35712
334,35776
335,35712
336,35520
337,35136
338,34944
339,34816
340,34432
341,34176
342,33984
343,33792
344,33728
345,33792
346,33728
347,33728
348,33920
349,34048
350,34048
351,34176
352,34048
353,33728
354,33472
355,33408
356,33472
357,34112
358,35520
359,37568
360,40256
361,43328
362,46144
363,47808
364,47552
365,44992
366,40768
367,36096
368,32192
369,29312
370,27328
371,26432
372,26240
373,26880
374,27840
375,28800
376,29952
377,30848
378,31616
379,32128
380,32576
381,32960
382,32896
383,32896
384,32960
385,32704
386,32576
387,32448
388,32448
389,32384
390,32320
391,32320
392,32512
393,32640
394,32704
395,32512
396,32320
397,32384
398,32448
399,32448
400,32448
401,32320
402,32192
403,32192
404,32128
405,32128
406,32000
407,32000
408,32064
409,32320
410,32448
411,32448
412,32448
413,32448
414,32384
415,32512
416,32832
417,33216
418,33728
419,34240
420,34624
421,34816
422,35008
423,35072
424,35328
425,35328
426,35072
427,34752
428,34496
429,34176
430,33920
431,33792
432,33728
433,33664
434,33728
435,33664
436,33536
437,33472
438,33536
439,33664
440,33664
441,33664
442,33728
443,33920
444,34048
445,34048
446,33984
447,34112
448,34304
449,34432
450,34432
451,34304
452,34048
453,33792
454,33728
455,33856
456,33856
457,33792
458,33728
459,33728
460,33664
461,33664
462,33792
463,33920
464,34112
465,34240
466,34368
467,34368
468,34304
469,34240
470,34112
471,34176
472,34368
473,34560
474,34816
475,34880
476,34944
477,34944
478,34880
479,34752
480,34624
481,34432
482,34112
483,34112
484,33984
485,33856
486,33984
487,34304
488,34624
489,34816
490,35136
491,35328
492,35456
493,35456
494,35264
495,35008
496,34688
497,34112
498,33600
499,33152
500,32576
501,32256
502,32128
503,31872
504,31552
505,31360
506,31424
507,31552
508,31744
509,32064
510,32256
511,32384
512,32320
513,32192
514,32064
515,32128
516,32576
517,33600
518,35456
519,37824
520,40640
521,43776
522,46400
523,47552
524,46464
525,43328
526,39168
527,35136
528,31808
529,29504
530,28224
531,27968
532,28480
533,29440
534,30464
535,31552
536,32384
537,33280
538,33984
539,34560
540,35072
541,35328
542,35392
543,35200
544,35008
545,34816
546,34624
547,34368
548,33984
549,33792
550,33600
551,33536
552,33600
553,33536
554,33664
555,33856
556,33920
557,34048
558,34304
559,34560
560,34752
561,35008
562,35200
563,35328
564,35328
565,35264
566,35136
567,35136
568,35200
569,35200
570,35072
571,35136
572,35392
573,35456
574,35328
575,35136
576,35008
577,34880
578,34752
579,34624
580,34432
581,34176
582,33792
583,33472
584,33280
585,33088
586,33024
587,33088
588,33344
589,33664
590,33856
591,34048
592,34304
593,34688
594,35008
595,35200
596,35392
597,35712
598,35840
599,35840
600,35776
601,35712
602,35392
603,34944
604,34496
605,34048
606,33472
607,32896
608,32512
609,32256
610,32064
611,31744
612,31552
613,31424
614,31488
615,31488
616,31552
617,31808
618,32128
619,32448
620,33024
621,33728
622,34048
623,34304
624,34560
625,34688
626,34688
627,34368
628,34048
629,34112
630,33984
631,33728
632,33728
633,33664
634,33216
635,32768
636,32512
637,32448
638,32384
639,32512
640,32704
641,32832
642,32832
643,32832
644,32896
645,33024
646,33152
647,33216
648,33152
649,33216
650,33344
651,33408
652,33408
653,33408
654,33472
655,33600
656,33856
657,34176
658,34560
659,34880
660,35136
661,35264
662,35264
663,35072
664,34688
665,34176
666,33600
667,33088
668,32960
669,33408
670,34688
671,36672
672,38976
673,41728
674,44544
675,46400
676,46208
677,43712
678,39616
679,35200
680,31488
681,28800
682,27136
683,26432
684,26688
685,27456
686,28608
687,29696
688,30848
689,31808
690,32576
691,33088
692,33472
693,33792
694,33920
695,33984
696,33792
697,33600
698,33408
699,33344
700,33280
701,33152
702,32960
703,32768
704,32640
705,32512
706,32448
707,32384
708,32256
709,32128
710,31872
711,31616
712,31424
713,31424
714,31616
715,31872
716,32128
717,32704
718,33344
719,34048
720,34816
721,35584
722,36352
723,37056
724,37632
725,37888
726,37696
727,37312
728,36800
729,36224
730,35648
731,35072
732,34496
733,34112
734,33984
735,34112
736,34368
737,34688
738,35072
739,35328
740,35584
741,35776
742,35840
743,35520
744,34816
745,33792
746,32704
747,31680
748,30912
749,30592
750,30656
751,30976
752,31552
753,32448
754,33408
755,34176
756,34624
757,34752
758,34560
759,34304
760,33856
761,33344
762,33088
763,33024
764,33216
765,33472
766,33920
767,34240
768,34368
769,34048
770,33600
771,33024
772,32576
773,32320
774,32192
775,32128
776,32000
777,31808
778,31744
779,31616
780,31360
781,30976
782,30528
783,30208
784,29824
785,29376
786,28864
787,28416
788,28288
789,28288
790,28480
791,28480
792,29184
793,29376
794,29312
795,29120
796,28928
797,28608
798,28416
799,28352
800,28288
801,28224
802,28416
803,28608
804,28864
805,29120
806,29120
807,29696
808,30080
809,30336
810,30464
811,30400
812,30272
813,30464
814,30976
815,32128
816,32256
817,36352
818,39168
819,42240
820,45184
821,45312
822,46016
823,43200
824,38720
825,33728
826,33216
827,27136
828,25664
829,25280
830,25728
831,25792
832,27392
833,28352
834,29312
835,30208
836,30272
837,31552
838,32064
839,32384
840,32704
841,32640
842,32960
843,33024
844,33024
845,33024
846,32960
847,33216
848,33216
849,33344
850,33344
851,33280
852,33216
853,33216
854,33216
855,33216
856,33216
857,33280
858,33344
859,33344
860,33408
861,33344
862,33472
863,33600
864,33728
865,33920
866,33856
867,34304
868,34432
869,34496
870,34560
871,34496
872,34368
873,34112
874,33984
875,33792
876,33664
877,33536
878,33536
879,33536
880,33728
881,33856
882,33984
883,34176
884,34240
885,34304
886,34496
887,34624
888,34688
889,34560
890,34432
891,34304
892,34176
893,34048
894,33920
895,33856
896,33856
897,33856
898,33856
899,33792
900,33856
901,33792
902,33664
903,33472
904,33344
905,33216
906,33152
907,33152
908,33216
909,33280
910,33408
911,33408
912,33536
913,33600
914,33664
915,33728
916,33792
917,33792
918,33856
919,33920
920,33920
921,33856
922,33920
923,33920
924,33920
925,33856
926,33792
927,33728
928,33728
929,33728
930,33792
931,33920
932,34112
933,34368
934,34496
935,34432
936,34304
937,34176
938,34048
939,33728
940,33344
941,33024
942,32704
943,32512
944,32448
945,32448
946,32576
947,32704
948,32832
949,32896
950,33024
951,32960
952,32896
953,32704
954,32448
955,32128
956,31872
957,31936
958,32576
959,33984
960,36160
961,38784
962,41792
963,44992
964,47296
965,47872
966,46336
967,42944
968,38912
969,35264
970,32640
971,31360
972,31168
973,31744
974,32576
975,33280
976,33664
977,33664
978,33408
979,33088
980,32640
981,32128
982,31488
983,30912
984,30400
985,30016
986,29760
987,29568
988,29504
989,29696
990,30016
991,30592
992,31168
993,31808
994,32320
995,32896
996,33344
997,33600
998,33728
999,33856
1000,33792
1001,33536
1002,33152
1003,32832
1004,32640
1005,32576
1006,32576
1007,32704
1008,32768
1009,32832
1010,32896
1011,33024
1012,33216
1013,33408
1014,33664
1015,33856
1016,34048
1017,34176
1018,34176
1019,34176
1020,34176
1021,34176
1022,34112
1023,34112
1024,33984
1025,33920
1026,33792
1027,33600
1028,33472
1029,33408
1030,33344
1031,33152
1032,33024
1033,32896
1034,32896
1035,33024
1036,33024
1037,32960
1038,32896
1039,32896
1040,33088
1041,33280
1042,33344
1043,33280
1044,33216
1045,33088
1046,33024
1047,33024
1048,32960
1049,32704
1050,32384
1051,32192
1052,32192
1053,32256
1054,32384
1055,32512
1056,32768
1057,33088
1058,33408
1059,33600
1060,33536
1061,33472
1062,33408
1063,33280
1064,33152
1065,33088
1066,33024
1067,33024
1068,33152
1069,33280
1070,33408
1071,33536
1072,33536
1073,33536
1074,33728
1075,33984
1076,33984
1077,33920
1078,33792
1079,33728
1080,33728
1081,33664
1082,33536
1083,33408
1084,33280
1085,33024
1086,33024
1087,33216
1088,33216
1089,32896
1090,32640
1091,32448
1092,32256
1093,32128
1094,32128
1095,32256
1096,32576
1097,32896
1098,33152
1099,33280
1100,33344
1101,33216
1102,33344
1103,33792
1104,34944
1105,36672
1106,38912
1107,41728
1108,44864
1109,47424
1110,48256
1111,46528
1112,42560
1113,37696
1114,33408
1115,30144
1116,27968
1117,26816
1118,26432
1119,26688
1120,27456
1121,28480
1122,29632
1123,30720
1124,31616
1125,32448
1126,32896
1127,33280
1128,33664
1129,33792
1130,33536
1131,33216
1132,33088
1133,33152
1134,33280
1135,33344
1136,33344
1137,33472
1138,33536
1139,33536
1140,33472
1141,33408
1142,33472
1143,33536
1144,33600
1145,33920
1146,34048
1147,33664
1148,33280
1149,33088
1150,33152
1151,33216
1152,33280
1153,33472
1154,33856
1155,33984
1156,33920
1157,33856
1158,33984
1159,34048
1160,33792
1161,33536
1162,33408
1163,33408
1164,33472
1165,33600
1166,33728
1167,33856
1168,33984
1169,33984
1170,33984
1171,33984
1172,33920
1173,33920
1174,33728
1175,33600
1176,33600
1177,33728
1178,33472
1179,33152
1180,32960
1181,32896
1182,32832
1183,32960
1184,33024
1185,33088
1186,33088
1187,33152
1188,33216
1189,33216
1190,33152
1191,33152
1192,33088
1193,33088
1194,33088
1195,33152
1196,33280
1197,33152
1198,33024
1199,33088
1200,33216
1201,33408
1202,33536
1203,33472
1204,33280
1205,33152
1206,33216
1207,33344
1208,33408
1209,33344
1210,33344
1211,33472
1212,33408
1213,33344
1214,33216
1215,33088
1216,33216
1217,33408
1218,33472
1219,33600
1220,33664
1221,33856
1222,34240
1223,34560
1224,34816
1225,34816
1226,34304
1227,33728
1228,33536
1229,33536
1230,33664
1231,33728
1232,33728
1233,33664
1234,33600
1235,33408
1236,33216
1237,33216
1238,33536
1239,33664
1240,33280
1241,32832
1242,32768
1243,32960
1244,33472
1245,34112
1246,33856
1247,32832
1248,32064
1249,31616
1250,31296
1251,31360
1252,31872
1253,33216
1254,35456
1255,38144
1256,41280
1257,44480
1258,46912
1259,47552
1260,45632
1261,41280
1262,36672
1263,32256
1264,28864
1265,26688
1266,25920
1267,26112
1268,26688
1269,27328
1270,28096
1271,29056
1272,29952
1273,30656
1274,31232
1275,31872
1276,32320
1277,32448
1278,32640
1279,32768
1280,32896
1281,32960
1282,32896
1283,32832
1284,32768
1285,32832
1286,33152
1287,33344
1288,33152
1289,32896
1290,32768
1291,32704
1292,32896
1293,32832
1294,33152
1295,33216
1296,33280
1297,33216
1298,33088
1299,33024
1300,33024
1301,32960
1302,32832
1303,32704
1304,32768
1305,32960
1306,33216
1307,33344
1308,33600
1309,33920
1310,34112
1311,34112
1312,34112
1313,34240
1314,34112
1315,33792
1316,33664
1317,33664
1318,33728
1319,34048
1320,34176
1321,33920
1322,33664
1323,33472
1324,33216
1325,33280
1326,33600
1327,33728
1328,33408
1329,33216
1330,33088
1331,32960
1332,33024
1333,33152
1334,33344
1335,33408
1336,33280
1337,33152
1338,33088
1339,33152
1340,33216
1341,33408
1342,33536
1343,33600
1344,33664
1345,33728
1346,33920
1347,34048
1348,33984
1349,33728
1350,33408
1351,33088
1352,33024
1353,32960
1354,33024
1355,33280
1356,33280
1357,33280
1358,33408
1359,33664
1360,33792
1361,33728
1362,33536
1363,33408
1364,33344
1365,33408
1366,33472
1367,33472
1368,33536
1369,33472
1370,33536
1371,33728
1372,33728
1373,33536
1374,33472
1375,33600
1376,33728
1377,33984
1378,34240
1379,34432
1380,34496
1381,34304
1382,34176
1383,33984
1384,33792
1385,33600
1386,33408
1387,33152
1388,33088
1389,32896
1390,32768
1391,32768
1392,32832
1393,32896
1394,32896
1395,33024
1396,33152
1397,33216
1398,33152
1399,33216
1400,33408
1401,33216
1402,32576
1403,32128
1404,32192
1405,33024
1406,34752
1407,37184
1408,40128
1409,43200
1410,45824
1411,47168
1412,46464
1413,43584
1414,39232
1415,34816
1416,30400
1417,28480
1418,27136
1419,26560
1420,26880
1421,27968
1422,28608
1423,29440
1424,30208
1425,30976
1426,31680
1427,32000
1428,32256
1429,32576
1430,32896
1431,33152
1432,33280
1433,33408
1434,33472
1435,33536
1436,33600
1437,33408
1438,33216
1439,33152
1440,33088
1441,32960
1442,33024
1443,33280
1444,33280
1445,33216
1446,33152
1447,32896
1448,32640
1449,32640
1450,32768
1451,33024
1452,33088
1453,33088
1454,33088
1455,33280
1456,33536
1457,33664
1458,33664
1459,33536
1460,33408
1461,33280
1462,33216
1463,33472
1464,33792
1465,33728
1466,33536
1467,33472
1468,33472
1469,33664
1470,33856
1471,33856
1472,33792
1473,33728
1474,33728
1475,33664
1476,33728
1477,33728
1478,33472
1479,33216
1480,33024
1481,32896
1482,32960
1483,33088
1484,33088
1485,33216
1486,33472
1487,33280
1488,33152
1489,33088
1490,33088
1491,33088
1492,33152
1493,33152
1494,33216
1495,33280
1496,33408
1497,33600
1498,33600
1499,33408
1500,33408
1501,33472
1502,33472
1503,33344
1504,33344
1505,33344
1506,33408
1507,33408
1508,33408
1509,33472
1510,33536
1511,33536
1512,33536
1513,33536
1514,33472
1515,33472
1516,33536
1517,33600
1518,33728
1519,33920
1520,33728
1521,33344
1522,33152
1523,32896
1524,32896
1525,33152
1526,33344
1527,33280
1528,33344
1529,33472
1530,33664
1531,33792
1532,33792
1533,33856
1534,33920
1535,33856
1536,33856
1537,33920
1538,34176
1539,34432
1540,34432
1541,34304
1542,34304
1543,34432
1544,34304
1545,33856
1546,33408
1547,33280
1548,33152
1549,33024
1550,32896
1551,32768
1552,32640
1553,32576
1554,32640
1555,32832
1556,33024
1557,33152
1558,33280
1559,33344
1560,33152
1561,32576
1562,32384
1563,32640
1564,33600
1565,35136
1566,37312
1567,39936
1568,42944
1569,45888
1570,47744
1571,47616
1572,45056
1573,40640
1574,35840
1575,31744
1576,28928
1577,27200
1578,26560
1579,26752
1580,27328
1581,28096
1582,28928
1583,29888
1584,30784
1585,31488
1586,32192
1587,32768
1588,33344
1589,33728
1590,33728
1591,33600
1592,33600
1593,33472
1594,33280
1595,33088
1596,33024
1597,33024
1598,33088
1599,33152
1600,33216
1601,33280
1602,33280
1603,33280
1604,33216
1605,33216
1606,33280
1607,33280
1608,33344
1609,33408
1610,33408
1611,33344
1612,33280
1613,33344
1614,33408
1615,33408
1616,33472
1617,33536
1618,33600
1619,33664
1620,33664
1621,33728
1622,33856
1623,33920
1624,33920
1625,33920
1626,33984
1627,33984
1628,33984
1629,33984
1630,33984
1631,33984
1632,33920
1633,33856
1634,33792
1635,33728
1636,33664
1637,33536
1638,33472
1639,33408
1640,33344
1641,33280
1642,33344
1643,33344
1644,33344
1645,33280
1646,33280
1647,33344
1648,33408
1649,33344
1650,33344
1651,33408
1652,33472
1653,33344
1654,33280
1655,33408
1656,33600
1657,33728
1658,33664
1659,33536
1660,33472
1661,33408
1662,33408
1663,33472
1664,33536
1665,33600
1666,33600
1667,33600
1668,33664
1669,33856
1670,33920
1671,33728
1672,33536
1673,33344
1674,33280
1675,33280
1676,33408
1677,33408
1678,33408
1679,33408
1680,33472
1681,33600
1682,33728
1683,33792
1684,33728
1685,33600
1686,33472
1687,33600
1688,33664
1689,33472
1690,33408
1691,33344
1692,33280
1693,33280
1694,33280
1695,33280
1696,33408
1697,33600
1698,33664
1699,33600
1700,33600
1701,33728
1702,33728
1703,33664
1704,33600
1705,33728
1706,33856
1707,33920
1708,33920
1709,33920
1710,33984
1711,34048
1712,34112
1713,34176
1714,34368
1715,34432
1716,34432
1717,34432
1718,34368
1719,34112
1720,33792
1721,33536
1722,33152
1723,32896
1724,32768
1725,32768
1726,32896
1727,32960
1728,33024
1729,33152
1730,33216
1731,33280
1732,33216
1733,33024
1734,32832
1735,32640
1736,32768
1737,33152
1738,34112
1739,35840
1740,38208
1741,41024
1742,44288
1743,47040
1744,48128
1745,46848
1746,43392
1747,38464
1748,34112
1749,30400
1750,27968
1751,26816
1752,26816
1753,27136
1754,27712
1755,28480
1756,29312
1757,30144
1758,30976
1759,31680
1760,32320
1761,32832
1762,33216
1763,33536
1764,33728
1765,33728
1766,33600
1767,33472
1768,33408
1769,33408
1770,33472
1771,33664
1772,33536
1773,33280
1774,33088
1775,32960
1776,32896
1777,33024
1778,33152
1779,33216
1780,33152
1781,33088
1782,33024
1783,33024
1784,33152
1785,33216
1786,33408
1787,33472
1788,33536
1789,33472
1790,33472
1791,33536
1792,33664
1793,33856
1794,33984
1795,34112
1796,34176
1797,34048
1798,33856
1799,33728
1800,33792
1801,33856
1802,33920
1803,33920
1804,34048
1805,34176
1806,34048
1807,33856
1808,33664
1809,33600
1810,33600
1811,33536
1812,33408
1813,33472
1814,33472
1815,33472
1816,33344
1817,33216
1818,33280
1819,33344
1820,33280
1821,33088
1822,33152
1823,33152
1824,33088
1825,33216
1826,33408
1827,33664
1828,33600
1829,33472
1830,33536
1831,33600
1832,33600
1833,33600
1834,33600
1835,33600
1836,33600
1837,33600
1838,33600
1839,33536
1840,33536
1841,33472
1842,33344
1843,33344
1844,33472
1845,33408
1846,33408
1847,33472
1848,33536
1849,33536
1850,33536
1851,33600
1852,33664
1853,33728
1854,33664
1855,33600
1856,33536
1857,33472
1858,33472
1859,33472
1860,33536
1861,33728
1862,33856
1863,33728
1864,33472
1865,33280
1866,33216
1867,33280
1868,33472
1869,33664
1870,33600
1871,33408
1872,33408
1873,33408
1874,33344
1875,33408
1876,33536
1877,33664
1878,33728
1879,33728
1880,33664
1881,33600
1882,33536
1883,33600
1884,33728
1885,33856
1886,33856
1887,33920
1888,33984
1889,34048
1890,34048
1891,34112
1892,34176
1893,34368
1894,34432
1895,34368
1896,34304
1897,34240
1898,34048
1899,33792
1900,33600
1901,33472
1902,33280
1903,33088
1904,32960
1905,33088
1906,33152
1907,33088
1908,33024
1909,33088
1910,33216
1911,33280
1912,33152
1913,33024
1914,32960
1915,32896
1916,33088
1917,33920
1918,35520
1919,37760
1920,40448
1921,43520
1922,46464
1923,47808
1924,47232
1925,44352
1926,38656
1927,35008
1928,31232
1929,28480
1930,26944
1931,26496
1932,26816
1933,27584
1934,28544
1935,29568
1936,30400
1937,31104
1938,31744
1939,32320
1940,32704
1941,33088
1942,33344
1943,33536
1944,33600
1945,33536
1946,33536
1947,33472
1948,33472
1949,33536
1950,33408
1951,33408
1952,33408
1953,33344
1954,33216
1955,33216
1956,33216
1957,33152
1958,33088
1959,33152
1960,33088
1961,33088
1962,33088
1963,33216
1964,33344
1965,33408
1966,33408
1967,33536
1968,33728
1969,33792
1970,33728
1971,33664
1972,33664
1973,33728
1974,33792
1975,33920
1976,33984
1977,33984
1978,33984
1979,33984
1980,33920
1981,33984
1982,33984
1983,34048
1984,34112
1985,34048
1986,33984
1987,33856
1988,33664
1989,33600
1990,33536
1991,33408
1992,33280
1993,33216
1994,33216
1995,33280
1996,33280
1997,33280
1998,33280
1999,33280
2000,33280
2001,33344
2002,33408
2003,33344
2004,33280
2005,33408
2006,33536
2007,33536
2008,33408
2009,33344
2010,33408
2011,33408
2012,33472
2013,33536
2014,33664
2015,33792
2016,33664
2017,33600
2018,33536
2019,33472
2020,33408
2021,33408
2022,33472
2023,33600
2024,33600
2025,33536
2026,33472
2027,33472
2028,33472
2029,33472
2030,33472
2031,33472
2032,33472
2033,33536
2034,33536
2035,33472
2036,33536
2037,33472
2038,33536
2039,33664
2040,33664
2041,33600
2042,33472
2043,33408
2044,33472
2045,33600
2046,33536
2047,33408
2048,33344
2049,33344
2050,33344
2051,33408
2052,33472
2053,33536
2054,33536
2055,33536
2056,33536
2057,33536
2058,33536
2059,33536
2060,33664
2061,33728
2062,33792
2063,33728
2064,33600
2065,33536
2066,33408
2067,33280
2068,33344
2069,33408
2070,33536
2071,33664
2072,33792
2073,33920
2074,33920
2075,33984
2076,33984
2077,34048
2078,34176
2079,34240
2080,34368
2081,34560
2082,34560
2083,34304
2084,34112
2085,33920
2086,33728
2087,33536
2088,33408
2089,33344
2090,33280
2091,33216
2092,33408
2093,33600
2094,33408
2095,33088
2096,32896
2097,32896
2098,32960
2099,32896
2100,32832
2101,32704
2102,32896
2103,33408
2104,34432
2105,36224
2106,38656
2107,41408
2108,44288
2109,46720
2110,47616
2111,46400
2112,43008
2113,38528
2114,34176
2115,30720
2116,27904
2117,26944
2118,26560
2119,26944
2120,27840
2121,29120
2122,29824
2123,30656
2124,31296
2125,31808
2126,32320
2127,32704
2128,33088
2129,33280
2130,33472
2131,33664
2132,33728
2133,33664
2134,33600
2135,33600
2136,33536
2137,33408
2138,33280
2139,33216
2140,33216
2141,33216
2142,33344
2143,33472
2144,33408
2145,33216
2146,33152
2147,33216
2148,33344
2149,33280
2150,33088
2151,33024
2152,33024
2153,33152
2154,33280
2155,33344
2156,33472
2157,33664
2158,33728
2159,33728
2160,33792
2161,33920
2162,33984
2163,33920
2164,33920
2165,33920
2166,33920
2167,33920
2168,34048
2169,34112
2170,34112
2171,34112
2172,34112
2173,34176
2174,34048
2175,33792
2176,33472
2177,33408
2178,33344
2179,33280
2180,33216
2181,33216
2182,33280
2183,33408
2184,33472
2185,33408
2186,33408
2187,33472
2188,33536
2189,33408
2190,33216
2191,33088
2192,33152
2193,33216
2194,33280
2195,33280
2196,33408
2197,33472
2198,33600
2199,33664
2200,33728
2201,33664
2202,33664
2203,33600
2204,33600
2205,33536
2206,33536
2207,33536
2208,33536
2209,33472
2210,33536
2211,33600
2212,33600
2213,33600
2214,33664
2215,33664
2216,33600
2217,33472
2218,33408
2219,33536
2220,33600
2221,33600
2222,33600
2223,33600
2224,33600
2225,33664
2226,33728
2227,33664
2228,33600
2229,33536
2230,33408
2231,33344
2232,33472
2233,33344
2234,33280
2235,33344
2236,33472
2237,33472
2238,33408
2239,33600
2240,33664
2241,33536
2242,33472
2243,33472
2244,33536
2245,33600
2246,33600
2247,33600
2248,33664
2249,33664
2250,33536
2251,33536
2252,33664
2253,33728
2254,33728
2255,33792
2256,34048
2257,34240
2258,34304
2259,34240
2260,34048
2261,33920
2262,33920
2263,34112
2264,34368
2265,34368
2266,34048
2267,33792
2268,33664
2269,33600
2270,33536
2271,33408
2272,33280
2273,33280
2274,33280
2275,33216
2276,33152
2277,33152
2278,33280
2279,33280
2280,33344
2281,33472
2282,33472
2283,33024
2284,32640
2285,32640
2286,33024
2287,34112
2288,35968
2289,38464
2290,41472
2291,45056
2292,47424
2293,48064
2294,46784
2295,43328
2296,37440
2297,33856
2298,30528
2299,28096
2300,26752
2301,26560
2302,27072
2303,27840
2304,28672
2305,29568
2306,30464
2307,31296
2308,31936
2309,32448
2310,32960
2311,33344
2312,33472
2313,33600
2314,33792
2315,33856
2316,33920
2317,33792
2318,33536
2319,33344
2320,33216
2321,33216
2322,33280
2323,33216
2324,33088
2325,33088
2326,33216
2327,33152
2328,33088
2329,33088
2330,33152
2331,33280
2332,33408
2333,33472
2334,33472
2335,33536
2336,33536
2337,33536
2338,33536
2339,33600
2340,33728
2341,33792
2342,33856
2343,33984
2344,33984
2345,33920
2346,34112
2347,34112
2348,34048
2349,34048
2350,33984
2351,33792
2352,33792
2353,33792
2354,33856
2355,33920
2356,33984
2357,33920
2358,33792
2359,33600
2360,33536
2361,33472
2362,33472
2363,33536
2364,33536
2365,33472
2366,33280
2367,33152
2368,33088
2369,33088
2370,33152
2371,33280
2372,33472
2373,33664
2374,33728
2375,33600
2376,33408
2377,33344
2378,33408
2379,33344
2380,33344
2381,33472
2382,33472
2383,33536
2384,33536
2385,33600
2386,33600
2387,33600
2388,33536
2389,33664
2390,33664
2391,33728
2392,33664
2393,33600
2394,33536
2395,33536
2396,33600
2397,33536
2398,33536
2399,33536
2400,33536
2401,33472
2402,33408
2403,33408
2404,33408
2405,33472
2406,33536
2407,33536
2408,33472
2409,33344
2410,33408
2411,33408
2412,33472
2413,33536
2414,33728
2415,33920
2416,33792
2417,33600
2418,33408
2419,33344
2420,33408
2421,33472
2422,33536
2423,33536
2424,33536
2425,33536
2426,33600
2427,33728
2428,33792
2429,33664
2430,33600
2431,33600
2432,33472
2433,33344
2434,33280
2435,33344
2436,33472
2437,33472
2438,33536
2439,33728
2440,33856
2441,33856
2442,33792
2443,33792
2444,33920
2445,34048
2446,34112
2447,33984
2448,33856
2449,33984
2450,34176
2451,34176
2452,34240
2453,34304
2454,34304
2455,34176
2456,34112
2457,33984
2458,33728
2459,33472
2460,33408
2461,33344
2462,33280
2463,33088
2464,33088
2465,33152
2466,33216
2467,33344
2468,33344
2469,33280
2470,33088
2471,32768
2472,32576
2473,32512
2474,32832
2475,33728
2476,35264
2477,37376
2478,39808
2479,42816
2480,45760
2481,47616
2482,47488
2483,45184
2484,41088
2485,36480
2486,31616
2487,29248
2488,27392
2489,26624
2490,26944
2491,27648
2492,28288
2493,28928
2494,29760
2495,30656
2496,31488
2497,32192
2498,32704
2499,33088
2500,33280
2501,33408
2502,33600
2503,33728
2504,33728
2505,33728
2506,33728
2507,33536
2508,33408
2509,33280
2510,33280
2511,33280
2512,33280
2513,33216
2514,33280
2515,33280
2516,33216
2517,33216
2518,33280
2519,33344
2520,33344
2521,33344
2522,33408
2523,33408
2524,33408
2525,33344
2526,33344
2527,33472
2528,33600
2529,33664
2530,33728
2531,33792
2532,33920
2533,34048
2534,34048
2535,34048
2536,34176
2537,34304
2538,34240
2539,34112
2540,34112
2541,34048
2542,33920
2543,33920
2544,33920
2545,33920
2546,33920
2547,33920
2548,33792
2549,33536
2550,33280
2551,33152
2552,33152
2553,33152
2554,33152
2555,33088
2556,33152
2557,33280
2558,33472
2559,33472
2560,33408
2561,33408
2562,33408
2563,33408
2564,33408
2565,33408
2566,33472
2567,33600
2568,33600
2569,33600
2570,33536
2571,33536
2572,33536
2573,33536
2574,33472
2575,33472
2576,33536
2577,33664
2578,33792
2579,33792
2580,33600
2581,33536
2582,33472
2583,33472
2584,33472
2585,33472
2586,33472
2587,33408
2588,33472
2589,33536
2590,33600
2591,33536
2592,33600
2593,33792
2594,33792
2595,33728
2596,33600
2597,33472
2598,33408
2599,33408
2600,33408
2601,33536
2602,33536
2603,33664
2604,33536
2605,33472
2606,33472
2607,33408
2608,33408
2609,33600
2610,33536
2611,33536
2612,33472
2613,33408
2614,33408
2615,33536
2616,33600
2617,33536
2618,33472
2619,33536
2620,33600
2621,33664
2622,33664
2623,33664
2624,33792
2625,33792
2626,33792
2627,33664
2628,33536
2629,33472
2630,33472
2631,33600
2632,33728
2633,33792
2634,33856
2635,33920
2636,33856
2637,33856
2638,33792
2639,34048
2640,34048
2641,34048
2642,34112
2643,34240
2644,34496
2645,34432
2646,34368
2647,34240
2648,33984
2649,33856
2650,33664
2651,33408
2652,33280
2653,33216
2654,33152
2655,33088
2656,33152
2657,33280
2658,33408
2659,33408
2660,33408
2661,33280
2662,33088
2663,32768
2664,32576
2665,32640
2666,33152
2667,34496
2668,36608
2669,39168
2670,42176
2671,45376
2672,47744
2673,48064
2674,46208
2675,41664
2676,41152
2677,37120
2678,29760
2679,27584
2680,26624
2681,26560
2682,27136
2683,27904
2684,28928
2685,29824
2686,30656
2687,31424
2688,32000
2689,32576
2690,32960
2691,33216
2692,33408
2693,33344
2694,33728
2695,33792
2696,33728
2697,33600
2698,33536
2699,33472
2700,33408
2701,33344
2702,33344
2703,33280
2704,33280
2705,33344
2706,33408
2707,33472
2708,33408
2709,33408
2710,33152
2711,33088
2712,33088
2713,33024
2714,33344
2715,33472
2716,33408
2717,33536
2718,33600
2719,33728
2720,33856
2721,34048
2722,34176
2723,34048
2724,33920
2725,33856
2726,33856
2727,33920
2728,33856
2729,34048
2730,34112
2731,34112
2732,34240
2733,34240
2734,34240
2735,34112
2736,33856
2737,33664
2738,33536
2739,33600
2740,33664
2741,33472
2742,33408
2743,33408
2744,33344
2745,33216
2746,33152
2747,33152
2748,33280
2749,33344
2750,33280
2751,33216
2752,33408
2753,33408
2754,33408
2755,33344
2756,33408
2757,33536
2758,33536
2759,33408
2760,33408
2761,33472
2762,33600
2763,33600
2764,33664
2765,33664
2766,33600
2767,33536
2768,33472
2769,33344
2770,33280
2771,33280
2772,33344
2773,33472
2774,33536
2775,33664
2776,33664
2777,33664
2778,33600
2779,33536
2780,33472
2781,33472
2782,33664
2783,33600
2784,33472
2785,33472
2786,33600
2787,33664
2788,33536
2789,33408
2790,33472
2791,33600
2792,33472
2793,33344
2794,33408
2795,33472
2796,33472
2797,33536
2798,33664
2799,33664
2800,33600
2801,33536
2802,33536
2803,33408
2804,33408
2805,33472
2806,33536
2807,33600
2808,33600
2809,33536
2810,33664
2811,33728
2812,33600
2813,33536
2814,33536
2815,33536
2816,33472
2817,33408
2818,33408
2819,33472
2820,33600
2821,33600
2822,33792
2823,33920
2824,34112
2825,34112
2826,33984
2827,33856
2828,33856
2829,33984
2830,34048
2831,33984
2832,34048
2833,34176
2834,34240
2835,34176
2836,34112
2837,33920
2838,33728
2839,33600
2840,33536
2841,33472
2842,33344
2843,33344
2844,33408
2845,33472
2846,33472
2847,33408
2848,33408
2849,33408
2850,33280
2851,33216
2852,32960
2853,32768
2854,32768
2855,33024
2856,33024
2857,34304
2858,36096
2859,38464
2860,41344
2861,44544
2862,47040
2863,47936
2864,46784
2865,43328
2866,38528
2867,33920
2868,30336
2869,28032
2870,26816
2871,26496
2872,26944
2873,27840
2874,28992
2875,30016
2876,30592
2877,31168
2878,31808
2879,32384
2880,32768
2881,33152
2882,33472
2883,33600
2884,33728
2885,33856
2886,33792
2887,33664
2888,33536
2889,33472
2890,33536
2891,33600
2892,33536
2893,33408
2894,33280
2895,33152
2896,33088
2897,33216
2898,33280
2899,33216
2900,33152
2901,33152
2902,33216
2903,33280
2904,33408
2905,33664
2906,33664
2907,33792
2908,33600
2909,33472
2910,33536
2911,33600
2912,33728
2913,33728
2914,33856
2915,34048
2916,34112
2917,34176
2918,34176
2919,34240
2920,34304
2921,34240
2922,34048
2923,33984
2924,33856
2925,33792
2926,33792
2927,33792
2928,33728
2929,33600
2930,33472
2931,33472
2932,33408
2933,33344
2934,33344
2935,33472
2936,33536
2937,33408
2938,33344
2939,33408
2940,33600
2941,33472
2942,33216
2943,33088
2944,33152
2945,33344
2946,33408
2947,33344
2948,33536
2949,33536
2950,33408
2951,33344
2952,33536
2953,33728
2954,33792
2955,33664
2956,33600
2957,33536
2958,33408
2959,33280
2960,33472
2961,33472
2962,33600
2963,33600
2964,33536
2965,33472
2966,33408
2967,33408
2968,33600
2969,33792
2970,33792
2971,33664
2972,33664
2973,33728
2974,33728
2975,33536
2976,33408
2977,33280
2978,33344
2979,33408
2980,33472
2981,33536
2982,33536
2983,33472
2984,33536
2985,33600
2986,33664
2987,33600
2988,33472
2989,33472
2990,33664
2991,33664
2992,33600
2993,33472
2994,33472
2995,33600
2996,33600
2997,33920
2998,33728
2999,33536
3000,33792
3001,34048
3002,33728
3003,33344
3004,33152
3005,33152
3006,33344
3007,33408
3008,33472
3009,33536
3010,33664
3011,33792
3012,33920
3013,34176
3014,34368
3015,34368
3016,34496
3017,34432
3018,34240
3019,34176
3020,34112
3021,34048
3022,33920
3023,33856
3024,33728
3025,33536
3026,33472
3027,33472
3028,33408
3029,33344
3030,33408
3031,33408
3032,33280
3033,33216
3034,33280
3035,33344
3036,33280
3037,33024
3038,32704
3039,32704
3040,33216
3041,34240
3042,35968
3043,38144
3044,40704
3045,44480
3046,46720
3047,47872
3048,47104
3049,44096
3050,39552
3051,34944
3052,31232
3053,28672
3054,27072
3055,26496
3056,26688
3057,27584
3058,28544
3059,29504
3060,30656
3061,31424
3062,32128
3063,32576
3064,32896
3065,33216
3066,33472
3067,33600
3068,33728
3069,33792
3070,33920
3071,33920
3072,33728
3073,33472
3074,33280
3075,33216
3076,33280
3077,33344
3078,33408
3079,33216
3080,33088
3081,33152
3082,33280
3083,33216
3084,33088
3085,33088
3086,33216
3087,33408
3088,33536
3089,33536
3090,33536
3091,33472
3092,33472
3093,33472
3094,33600
3095,33728
3096,33856
3097,33856
3098,33920
3099,33984
3100,33984
3101,34048
3102,34176
3103,34304
3104,34240
3105,34176
3106,34112
3107,34112
3108,34048
3109,33856
3110,33728
3111,33664
3112,33664
3113,33600
3114,33536
3115,33600
3116,33664
3117,33664
3118,33472
3119,33344
3120,33280
3121,33216
3122,33152
3123,33152
3124,33152
3125,33216
3126,33408
3127,33664
3128,33664
3129,33408
3130,33152
3131,33152
3132,33280
3133,33344
3134,33344
3135,33344
3136,33536
3137,33728
3138,33728
3139,33792
3140,33984
3141,34048
3142,33856
3143,33664
3144,33600
3145,33792
3146,33792
3147,33600
3148,33280
3149,33216
3150,33216
3151,33152
3152,33280
3153,33536
3154,33536
3155,33536
3156,33664
3157,33792
3158,33792
3159,33792
3160,33856
3161,33728
3162,33536
3163,33344
3164,33280
3165,33344
3166,33408
3167,33472
3168,33536
3169,33792
3170,34048
3171,33920
3172,33856
3173,33728
3174,33536
3175,33344
3176,33344
3177,33472
3178,33600
3179,33600
3180,33472
3181,33408
3182,33472
3183,33472
3184,33536
3185,33792
3186,33920
3187,34048
3188,34112
3189,34176
3190,34368
3191,34432
3192,34304
3193,34240
3194,34304
3195,34432
3196,34496
3197,34496
3198,34432
3199,34368
3200,34176
3201,33920
3202,33664
3203,33472
3204,33216
3205,33024
3206,33024
3207,33152
3208,33344
3209,33472
3210,33472
3211,33408
3212,33472
3213,33536
3214,33472
3215,33472
3216,33152
3217,32704
3218,32640
3219,33216
3220,34816
3221,36480
3222,39040
3223,42112
3224,45120
3225,47360
3226,47680
3227,45824
3228,42112
3229,37504
3230,33216
3231,30016
3232,27968
3233,26880
3234,26688
3235,27392
3236,28288
3237,29184
3238,29888
3239,30528
3240,31296
3241,31808
3242,32320
3243,32768
3244,33152
3245,33472
3246,33664
3247,33856
3248,33920
3249,33856
3250,33664
3251,33472
3252,33408
3253,33408
3254,33408
3255,33344
3256,33408
3257,33408
3258,33408
3259,33216
3260,32960
3261,32896
3262,32960
3263,33088
3264,33216
3265,33280
3266,33408
3267,33536
3268,33536
3269,33536
3270,33536
3271,33472
3272,33600
3273,33600
3274,33728
3275,33792
3276,33792
3277,33920
3278,34048
3279,34112
3280,34304
3281,34240
3282,34048
3283,33984
3284,33984
3285,33920
3286,33856
3287,33856
3288,33920
3289,33920
3290,33984
3291,33984
3292,33728
3293,33408
3294,33280
3295,33344
3296,33344
3297,33280
3298,33152
3299,33152
3300,33280
3301,33344
3302,33344
3303,33408
3304,33280
3305,33152
3306,33088
3307,33280
3308,33472
3309,33536
3310,33472
3311,33408
3312,33408
3313,33408
3314,33408
3315,33472
3316,33472
3317,33536
3318,33536
3319,33664
3320,33728
3321,33664
3322,33600
3323,33728
3324,33856
3325,33792
3326,33792
3327,33856
3328,33856
3329,33728
3330,33600
3331,33600
3332,33536
3333,33536
3334,33472
3335,33408
3336,33344
3337,33408
3338,33344
3339,33344
3340,33408
3341,33472
3342,33600
3343,33728
3344,33920
3345,33920
3346,33728
3347,33600
3348,33408
3349,33408
3350,33536
3351,33408
3352,33152
3353,33152
3354,33280
3355,33472
3356,33536
3357,33536
3358,33600
3359,33664
3360,33728
3361,33792
3362,33792
3363,33792
3364,33856
3365,33856
3366,33920
3367,33984
3368,34112
3369,34176
3370,34112
3371,34112
3372,34176
3373,34240
3374,34176
3375,34176
3376,34304
3377,34176
3378,33792
3379,33408
3380,33152
3381,33088
3382,33152
3383,33216
3384,33152
3385,33152
3386,33152
3387,33280
3388,33344
3389,33344
3390,33216
3391,33088
3392,32832
3393,32704
3394,32832
3395,33344
3396,34304
3397,35712
3398,38016
3399,40768
3400,43840
3401,46656
3402,47872
3403,47040
3404,43904
3405,39424
3406,34880
3407,31424
3408,28800
3409,27008
3410,26304
3411,26624
3412,27456
3413,28352
3414,29312
3415,30592
3416,31296
3417,31936
3418,32512
3419,33024
3420,33408
3421,33728
3422,33920
3423,33856
3424,33664
3425,33472
3426,33344
3427,33344
3428,33472
3429,33472
3430,33344
3431,33216
3432,33216
3433,33152
3434,33216
3435,33344
3436,33408
3437,33344
3438,33280
3439,33152
3440,33152
3441,33280
3442,33472
3443,33536
3444,33536
3445,33536
3446,33600
3447,33664
3448,33664
3449,33600
3450,33664
3451,33664
3452,33728
3453,33856
3454,33984
3455,34048
3456,34176
3457,34176
3458,34176
3459,34176
3460,34176
3461,34240
3462,34176
3463,34176
3464,34240
3465,33984
3466,33856
3467,33920
3468,33728
3469,33472
3470,33344
3471,33280
3472,33088
3473,33024
3474,33088
3475,33152
3476,33152
3477,33280
3478,33280
3479,33280
3480,33280
3481,33280
3482,33408
3483,33536
3484,33536
3485,33536
3486,33536
3487,33536
3488,33600
3489,33536
3490,33536
3491,33600
3492,33728
3493,33664
3494,33664
3495,33664
3496,33536
3497,33408
3498,33280
3499,33344
3500,33472
3501,33536
3502,33664
3503,33728
3504,33728
3505,33600
3506,33600
3507,33664
3508,33664
3509,33728
3510,33792
3511,33792
3512,33728
3513,33600
3514,33472
3515,33408
3516,33408
3517,33344
3518,33280
3519,33280
3520,33408
3521,33472
3522,33600
3523,33728
3524,33664
3525,33536
3526,33536
3527,33600
3528,33664
3529,33728
3530,33664
3531,33664
3532,33664
3533,33600
3534,33600
3535,33472
3536,33472
3537,33600
3538,33728
3539,33792
3540,33856
3541,33920
3542,34048
3543,34176
3544,34368
3545,34368
3546,34304
3547,34368
3548,34496
3549,34560
3550,34304
3551,34048
3552,33664
3553,33600
3554,33600
3555,33408
3556,33152
3557,33152
3558,33216
3559,33088
3560,32960
3561,32960
3562,33088
3563,33280
3564,33280
3565,33152
3566,32960
3567,32768
3568,32704
3569,33024
3570,34112
3571,35456
3572,37504
3573,40256
3574,43456
3575,46336
3576,48000
3577,47680
3578,45056
3579,40832
3580,36160
3581,32192
3582,29184
3583,27264
3584,26496
3585,26560
3586,27264
3587,28160
3588,29184
3589,30144
3590,31104
3591,31680
3592,32384
3593,32896
3594,33152
3595,33408
3596,33664
3597,33856
3598,33792
3599,33728
3600,33728
3601,33728
3602,33664
3603,33472
3604,33344
3605,33280
3606,33216
3607,33152
3608,33088
3609,33088
3610,33088
3611,33216
3612,33344
3613,33408
3614,33408
3615,33344
3616,33344
3617,33344
3618,33408
3619,33472
3620,33600
3621,33664
3622,33600
3623,33600
3624,33792
3625,34112
3626,34176
3627,34112
3628,33984
3629,33920
3630,33984
3631,34048
3632,34240
3633,34368
3634,34304
3635,34176
3636,34048
3637,34112
3638,34048
3639,34048
3640,33984
3641,33792
3642,33600
3643,33472
3644,33472
3645,33472
3646,33280
3647,33088
3648,33152
3649,33216
3650,33216
3651,33152
3652,33216
3653,33280
3654,33344
3655,33344
3656,33408
3657,33536
3658,33728
3659,33728
3660,33536
3661,33472
3662,33472
3663,33536
3664,33408
3665,33536
3666,33728
3667,33728
3668,33664
3669,33536
3670,33536
3671,33536
3672,33536
3673,33472
3674,33536
3675,33664
3676,33664
3677,33728
3678,33664
3679,33536
3680,33536
3681,33600
3682,33664
3683,33728
3684,33792
3685,33664
3686,33472
3687,33472
3688,33536
3689,33472
3690,33472
3691,33536
3692,33664
3693,33600
3694,33536
3695,33536
3696,33600
3697,33664
3698,33792
3699,33856
3700,33792
3701,33664
3702,33536
3703,33408
3704,33408
3705,33472
3706,33536
3707,33664
3708,33664
3709,33664
3710,33664
3711,33728
3712,33728
3713,33664
3714,33536
3715,33536
3716,33600
3717,33728
3718,33664
3719,33664
3720,33856
3721,33984
3722,33856
3723,33728
3724,33728
3725,33856
3726,33984
3727,34112
3728,34240
3729,34368
3730,34432
3731,34432
3732,34432
3733,34432
3734,34304
3735,34048
3736,33920
3737,33856
3738,33792
3739,33600
3740,33344
3741,33152
3742,33088
3743,33088
3744,33152
3745,33216
3746,33280
3747,33280
3748,33280
3749,33408
3750,33344
3751,33024
3752,32768
3753,32896
3754,33536
3755,34752
3756,36800
3757,39552
3758,42368
3759,45312
3760,47680
3761,47808
3762,45888
3763,42304
3764,37632
3765,32448
3766,30016
3767,27840
3768,26624
3769,26432
3770,27072
3771,28032
3772,28928
3773,29824
3774,30720
3775,31488
3776,32128
3777,32768
3778,33216
3779,33536
3780,33792
3781,33856
3782,33792
3783,33664
3784,33472
3785,33344
3786,33344
3787,33408
3788,33408
3789,33472
3790,33472
3791,33408
3792,33344
3793,33344
3794,33408
3795,33472
3796,33408
3797,33216
3798,33088
3799,33088
3800,33280
3801,33472
3802,33600
3803,33600
3804,33536
3805,33472
3806,33408
3807,33536
3808,33728
3809,33856
3810,33920
3811,33920
3812,33984
3813,34048
3814,34112
3815,34368
3816,34432
3817,34432
3818,34304
3819,34176
3820,34112
3821,33984
3822,33920
3823,33792
3824,33792
3825,33728
3826,33728
3827,33664
3828,33600
3829,33600
3830,33536
3831,33472
3832,33344
3833,33280
3834,33280
3835,33408
3836,33408
3837,33344
3838,33408
3839,33280
3840,33216
3841,33280
3842,33280
3843,33216
3844,33216
3845,33344
3846,33408
3847,33472
3848,33600
3849,33728
3850,33792
3851,33728
3852,33664
3853,33728
3854,33664
3855,33536
3856,33472
3857,33408
3858,33472
3859,33600
3860,33664
3861,33600
3862,33664
3863,33728
3864,33792
3865,33664
3866,33472
3867,33472
3868,33408
3869,33408
3870,33472
3871,33536
3872,33600
3873,33664
3874,33664
3875,33728
3876,33728
3877,33664
3878,33472
3879,33344
3880,33344
3881,33472
3882,33664
3883,33664
3884,33600
3885,33536
3886,33472
3887,33600
3888,33664
3889,33536
3890,33408
3891,33408
3892,33536
3893,33600
3894,33600
3895,33600
3896,33664
3897,33728
3898,33728
3899,33600
3900,33600
3901,33728
3902,33920
3903,33792
3904,33664
3905,33600
3906,33472
3907,33408
3908,33536
3909,33664
3910,33792
3911,33728
3912,33536
3913,33536
3914,33600
3915,33728
3916,33920
3917,34048
3918,34112
3919,34112
3920,34176
3921,34368
3922,34368
3923,34240
3924,34176
3925,34304
3926,34368
3927,34304
3928,34240
3929,34240
3930,34240
3931,34048
3932,33664
3933,33408
3934,33280
3935,33152
3936,33088
3937,33152
3938,33152
3939,33216
3940,33344
3941,33472
3942,33536
3943,33536
3944,33344
3945,33024
3946,32768
3947,32704
3948,33024
3949,34048
3950,35968
3951,38336
3952,41088
3953,44032
3954,46656
3955,48192
3956,47488
3957,44736
3958,40320
3959,35456
3960,31360
3961,28480
3962,26880
3963,26560
3964,26944
3965,27648
3966,28480
3967,29440
3968,30208
3969,30976
3970,31936
3971,32448
3972,32896
3973,33280
3974,33536
3975,33664
3976,33792
3977,34048
3978,33984
3979,33728
3980,33408
3981,33280
3982,33280
3983,33280
3984,33344
3985,33344
3986,33344
3987,33344
3988,33344
3989,33280
3990,33344
3991,33472
3992,33536
3993,33472
3994,33472
3995,33408
3996,33344
3997,33280
3998,33344
3999,33472
4000,33600
4001,33792
4002,33856
4003,33856
4004,33920
4005,33984
4006,33984
4007,34048
4008,34112
4009,34112
4010,34112
4011,34112
4012,34112
4013,34176
4014,34176
4015,34176
4016,34176
4017,34176
4018,34048
4019,34048
4020,33984
4021,33856
4022,33664
4023,33472
4024,33344
4025,33408
4026,33472
4027,33344
4028,33280
4029,33280
4030,33280
4031,33216
4032,33088
4033,33088
4034,33216
4035,33344
4036,33536
4037,33600
4038,33600
4039,33600
4040,33536
4041,33472
4042,33408
4043,33600
4044,33728
4045,33664
4046,33536
4047,33472
4048,33408
4049,33472
4050,33664
4051,33664
4052,33664
4053,33664
4054,33664
4055,33600
4056,33536
4057,33536
4058,33600
4059,33664
4060,33600
4061,33472
4062,33472
4063,33536
4064,33472
4065,33408
4066,33408
4067,33472
4068,33472
4069,33472
4070,33600
4071,33728
4072,33856
4073,33792
4074,33600
4075,33472
4076,33472
4077,33536
4078,33664
4079,33728
4080,33600
4081,33472
4082,33408
4083,33408
4084,33472
4085,33472
4086,33472
4087,33600
4088,33728
4089,33664
4090,33536
4091,33472
4092,33536
4093,33600
4094,33664
4095,33728
4096,33728
4097,33728
4098,33792
4099,33856
4100,33792
4101,33664
4102,33536
4103,33408
4104,33408
4105,33472
4106,33472
4107,33536
4108,33600
4109,33728
4110,33728
4111,33728
4112,33792
4113,33792
4114,33728
4115,33728
4116,33664
4117,33664
4118,33664
4119,33728
4120,33792
4121,33792
4122,33792
4123,33792
4124,33856
4125,33856
4126,33920
4127,33984
4128,34112
4129,34240
4130,34304
4131,34304
4132,34368
4133,34432
4134,34496
4135,34368
4136,34240
4137,34048
4138,33856
4139,33664
4140,33536
4141,33408
4142,33344
4143,33280
4144,33280
4145,33216
4146,33152
4147,33216
4148,33280
4149,33280
4150,33344
4151,33280
4152,33088
4153,32896
4154,33024
4155,33728
4156,35136
4157,37248
4158,40000
4159,43136
4160,46208
4161,48064
4162,47872
4163,45568
4164,41472
4165,35584
4166,32192
4167,29184
4168,27328
4169,26560
4170,26624
4171,27328
4172,28160
4173,29056
4174,30080
4175,30976
4176,31680
4177,32320
4178,32768
4179,33152
4180,33472
4181,33600
4182,33792
4183,33984
4184,33984
4185,33728
4186,33536
4187,33344
4188,33216
4189,33216
4190,33216
4191,33280
4192,33280
4193,33216
4194,33152
4195,33280
4196,33408
4197,33536
4198,33408
4199,33408
4200,33408
4201,33344
4202,33344
4203,33408
4204,33408
4205,33280
4206,33216
4207,33280
4208,33408
4209,33600
4210,33728
4211,33920
4212,34112
4213,34176
4214,34240
4215,34240
4216,34304
4217,34432
4218,34496
4219,34176
4220,33792
4221,33728
4222,33792
4223,33984
4224,34112
4225,33920
4226,33664
4227,33472
4228,33408
4229,33408
4230,33408
4231,33344
4232,33344
4233,33344
4234,33344
4235,33344
4236,33344
4237,33344
4238,33408
4239,33408
4240,33408
4241,33536
4242,33408
4243,33216
4244,33088
4245,33152
4246,33344
4247,33408
4248,33344
4249,33344
4250,33600
4251,33792
4252,33664
4253,33600
4254,33472
4255,33472
4256,33408
4257,33408
4258,33408
4259,33472
4260,33664
4261,33920
4262,33920
4263,33664
4264,33408
4265,33216
4266,33216
4267,33344
4268,33472
4269,33472
4270,33728
4271,33792
4272,33728
4273,33600
4274,33536
4275,33536
4276,33536
4277,33536
4278,33536
4279,33536
4280,33600
4281,33600
4282,33536
4283,33472
4284,33472
4285,33536
4286,33600
4287,33792
4288,33792
4289,33600
4290,33536
4291,33600
4292,33600
4293,33536
4294,33728
4295,33856
4296,33792
4297,33600
4298,33472
4299,33408
4300,33408
4301,33408
4302,33472
4303,33600
4304,33792
4305,33856
4306,33728
4307,33600
4308,33600
4309,33728
4310,33856
4311,33792
4312,33664
4313,33664
4314,33664
4315,33664
4316,33600
4317,33600
4318,33664
4319,33728
4320,33792
4321,33792
4322,33856
4323,33856
4324,33984
4325,34048
4326,33984
4327,33920
4328,33856
4329,33984
4330,34112
4331,34304
4332,34560
4333,34624
4334,34752
4335,34688
4336,34496
4337,34368
4338,34368
4339,34112
4340,33600
4341,33344
4342,33216
4343,33088
4344,33088
4345,33280
4346,33216
4347,33216
4348,33152
4349,33280
4350,33408
4351,33600
4352,33600
4353,33472
4354,33280
4355,33024
4356,33024
4357,33408
4358,33984
4359,34816
4360,37184
4361,39232
4362,42112
4363,45248
4364,47744
4365,48448
4366,46848
4367,43136
4368,38336
4369,33792
4370,30144
4371,27712
4372,26688
4373,26688
4374,27200
4375,28160
4376,29120
4377,30016
4378,30848
4379,31616
4380,32448
4381,33088
4382,33664
4383,34048
4384,34240
4385,34112
4386,33920
4387,33728
4388,33728
4389,33792
4390,33728
4391,33664
4392,33536
4393,33536
4394,33408
4395,33216
4396,33216
4397,33280
4398,33280
4399,33280
4400,33344
4401,33472
4402,33600
4403,33408
4404,33280
4405,33152
4406,33216
4407,33472
4408,33408
4409,33600
4410,33536
4411,33472
4412,33664
4413,33920
4414,34048
4415,34112
4416,34240
4417,34176
4418,34048
4419,34176
4420,34368
4421,34304
4422,34240
4423,34176
4424,34304
4425,34240
4426,34112
4427,33984
4428,33920
4429,33728
4430,33664
4431,33600
4432,33344
4433,33344
4434,33216
4435,33088
4436,32960
4437,32896
4438,33088
4439,33280
4440,33408
4441,33216
4442,33024
4443,33024
4444,33408
4445,33344
4446,33408
4447,33280
4448,33280
4449,33216
4450,33280
4451,33344
4452,33536
4453,33728
4454,33792
4455,33728
4456,33600
4457,33536
4458,33472
4459,33600
4460,33536
4461,33536
4462,33216
4463,33152
4464,33344
4465,33344
4466,33408
4467,33408
4468,33344
4469,33344
4470,33536
4471,33664
4472,33920
4473,34048
4474,33920
4475,33536
4476,33472
4477,33664
4478,33664
4479,33344
4480,33152
4481,33280
4482,33344
4483,33216
4484,33216
4485,33280
4486,33408
4487,33472
4488,33600
4489,33792
4490,34048
4491,34112
4492,33856
4493,33792
4494,33600
4495,33536
4496,33664
4497,33600
4498,33408
4499,33280
4500,33216
4501,33216
4502,33280
4503,33408
4504,33600
4505,33664
4506,33792
4507,33856
4508,33856
4509,33856
4510,33856
4511,34112
4512,34048
4513,33664
4514,33408
4515,33344
4516,33600
4517,33792
4518,33984
4519,34112
4520,34112
4521,34048
4522,33984
4523,34176
4524,34304
4525,34368
4526,34496
4527,34496
4528,34048
4529,33728
4530,33664
4531,33664
4532,33408
4533,33344
4534,33472
4535,33472
4536,33408
4537,33216
4538,33088
4539,33280
4540,33472
4541,33408
4542,33408
4543,33216
4544,33088
4545,33216
4546,33472
4547,34176
4548,35648
4549,38400
4550,38720
4551,43328
4552,46272
4553,48256
4554,48448
4555,46144
4556,41728
4557,36672
4558,32320
4559,29120
4560,27136
4561,26432
4562,26560
4563,27200
4564,28352
4565,28416
4566,30144
4567,31040
4568,31808
4569,32512
4570,32576
4571,33600
4572,33856
4573,33920
4574,33856
4575,33664
4576,33344
4577,33152
4578,33024
4579,33088
4580,33152
4581,33216
4582,33280
4583,33344
4584,33472
4585,33536
4586,33600
4587,33472
4588,33280
4589,33216
4590,33216
4591,33344
4592,33472
4593,33856
4594,33920
4595,33664
4596,33472
4597,33408
4598,33344
4599,33344
4600,33344
4601,33664
4602,34048
4603,34368
4604,34432
4605,34368
4606,34176
4607,33984
4608,33984
4609,34176
4610,34432
4611,34624
4612,34624
4613,34496
4614,34368
4615,34368
4616,34304
4617,33984
4618,33600
4619,33664
4620,33664
4621,34752
4622,35072
4623,34368
4624,33216
4625,32576
4626,32320
4627,32384
4628,32512
4629,32384
4630,32192
4631,32128
4632,32192
4633,32256
4634,32192
4635,32192
4636,32384
4637,32640
4638,32960
4639,33216
4640,33344
4641,33152
4642,32896
4643,32960
4644,33216
4645,33216
4646,33088
4647,33024
4648,33344
4649,33856
4650,33920
4651,33472
4652,33088
4653,32896
4654,32960
4655,33088
4656,33280
4657,33472
4658,33664
4659,33664
4660,33600
4661,33536
4662,33408
4663,33408
4664,33408
4665,33536
4666,33536
4667,33472
4668,33280
4669,33216
4670,33152
4671,33280
4672,33344
4673,33600
4674,33664
4675,33600
4676,32896
4677,32640
4678,32704
4679,32896
4680,33088
4681,33280
4682,33344
4683,33472
4684,33600
4685,33600
4686,33536
4687,33664
4688,33728
4689,33472
4690,33472
4691,33600
4692,33792
4693,33920
4694,33728
4695,33536
4696,33472
4697,33536
4698,33728
4699,33984
4700,34176
4701,34304
4702,34432
4703,34432
4704,34304
4705,34176
4706,34048
4707,33856
4708,33728
4709,33664
4710,33984
4711,34240
4712,33856
4713,33344
4714,32960
4715,32768
4716,32768
4717,32832
4718,33024
4719,33216
4720,33472
4721,33728
4722,33792
4723,33536
4724,33024
4725,32704
4726,32960
4727,33792
4728,35456
4729,37696
4730,40512
4731,43904
4732,47360
4733,49408
4734,49088
4735,46400
4736,41920
4737,37248
4738,33216
4739,29568
4740,27136
4741,26176
4742,26496
4743,27392
4744,28480
4745,29504
4746,30656
4747,31680
4748,32448
4749,33088
4750,33600
4751,33984
4752,34240
4753,34432
4754,34496
4755,34496
4756,34560
4757,34688
4758,34944
4759,34688
4760,34368
4761,34048
4762,33984
4763,33984
4764,33856
4765,33664
4766,33792
4767,34112
4768,34112
4769,34048
4770,33984
4771,34048
4772,34176
4773,34112
4774,34112
4775,34048
4776,33984
4777,33984
4778,34240
4779,34368
4780,34368
4781,34432
4782,34432
4783,34432
4784,34560
4785,34688
4786,34816
4787,34816
4788,34880
4789,35008
4790,34816
4791,34624
4792,34560
4793,34432
4794,34240
4795,34048
4796,34112
4797,34304
4798,34368
4799,34176
4800,33792
4801,33536
4802,33408
4803,33472
4804,33600
4805,33664
4806,33664
4807,33600
4808,33536
4809,33408
4810,33344
4811,33408
4812,33280
4813,33152
4814,33088
4815,33344
4816,33472
4817,33472
4818,33344
4819,33216
4820,33216
4821,33216
4822,33280
4823,33408
4824,33408
4825,33408
4826,33536
4827,33728
4828,33728
4829,33600
4830,33408
4831,33408
4832,33536
4833,33600
4834,33664
4835,33600
4836,33344
4837,33152
4838,33088
4839,33152
4840,33216
4841,33344
4842,33600
4843,33664
4844,33664
4845,33664
4846,33472
4847,33280
4848,33216
4849,33280
4850,33344
4851,33408
4852,33472
4853,33344
4854,33280
4855,33408
4856,33472
4857,33536
4858,33728
4859,33792
4860,33664
4861,33600
4862,33664
4863,33792
4864,33856
4865,33728
4866,33664
4867,33728
4868,33728
4869,33600
4870,33536
4871,33536
4872,33664
4873,33728
4874,33664
4875,33408
4876,33216
4877,33280
4878,33536
4879,33792
4880,33792
4881,33792
4882,33792
4883,33920
4884,34112
4885,34048
4886,34048
4887,34176
4888,34304
4889,34304
4890,34240
4891,33920
4892,33664
4893,33472
4894,33472
4895,33472
4896,33216
4897,32832
4898,32704
4899,32832
4900,33024
4901,33152
4902,33280
4903,33152
4904,33024
4905,32960
4906,32896
4907,32704
4908,32448
4909,32512
4910,32960
4911,34304
4912,36416
4913,39040
4914,42048
4915,45248
4916,47744
4917,48576
4918,47104
4919,41920
4920,41600
4921,33600
4922,29824
4923,27520
4924,26816
4925,27008
4926,27072
4927,27456
4928,28800
4929,30016
4930,30720
4931,31232
4932,31424
4933,31552
4934,31936
4935,32192
4936,32448
4937,32704
4938,33088
4939,33472
4940,33664
4941,33728
4942,33728
4943,33600
4944,33600
4945,33664
4946,33408
4947,33088
4948,32960
4949,32960
4950,33088
4951,33280
4952,33280
4953,33280
4954,33344
4955,33536
4956,33920
4957,34048
4958,33792
4959,33408
4960,33344
4961,33408
4962,33536
4963,33664
4964,33792
4965,33664
4966,33600
4967,33792
4968,33856
4969,33856
4970,33984
4971,34240
4972,34176
4973,34240
4974,34688
4975,35072
4976,35072
4977,34688
4978,34368
4979,34304
4980,33984
4981,33344
4982,32768
4983,32448
4984,32960
4985,33216
4986,32960
4987,32640
4988,32704
4989,33024
4990,33536
4991,33728
4992,33344
4993,33152
4994,32960
4995,32896
4996,33024
4997,33216
4998,33088
4999,32896
5000,32896
5001,32960
5002,33216
5003,33344
5004,33536
5005,33536
5006,33536
5007,33600
5008,33600
5009,33536
5010,33472
5011,33408
5012,33408
5013,33536
5014,33600
5015,33472
5016,33536
5017,33792
5018,33984
5019,33728
5020,33408
5021,33344
5022,33472
5023,33408
5024,33344
5025,33344
5026,33472
5027,33664
5028,33856
5029,33792
5030,33472
5031,33344
5032,33664
5033,34048
5034,33792
5035,33600
5036,33152
5037,32768
5038,32832
5039,33216
5040,33280
5041,33216
5042,33280
5043,33408
5044,33472
5045,33600
5046,33792
5047,33856
5048,33856
5049,33792
5050,33664
5051,33472
5052,33472
5053,33856
5054,34432
5055,34240
5056,33664
5057,33088
5058,33216
5059,33600
5060,33728
5061,33536
5062,33600
5063,33984
5064,34176
5065,33984
5066,33792
5067,33984
5068,34752
5069,35200
5070,34624
5071,33920
5072,33728
5073,33792
5074,33792
5075,33536
5076,33216
5077,33152
5078,33344
5079,33472
5080,33280
5081,32960
5082,32768
5083,32768
5084,32896
5085,33088
5086,33280
5087,33344
5088,33536
5089,33152
5090,32512
5091,32320
5092,32960
5093,34176
5094,36736
5095,38976
5096,41984
5097,45312
5098,48064
5099,48960
5100,47744
5101,44160
5102,39040
5103,33856
5104,29888
5105,27584
5106,26432
5107,26176
5108,26688
5109,27776
5110,28736
5111,29632
5112,30208
5113,31040
5114,31872
5115,32448
5116,32704
5117,33088
5118,33536
5119,33856
5120,33984
5121,33920
5122,33728
5123,33536
5124,33536
5125,33408
5126,33408
5127,33600
5128,33600
5129,33280
5130,33088
5131,33024
5132,32896
5133,33024
5134,33280
5135,33408
5136,33344
5137,33344
5138,33344
5139,33600
5140,33856
5141,33920
5142,33984
5143,33920
5144,33600
5145,33408
5146,33152
5147,33152
5148,33536
5149,33984
5150,34176
5151,33984
5152,33792
5153,33920
5154,34048
5155,34176
5156,34240
5157,34368
5158,34496
5159,34688
5160,34624
5161,34496
5162,34432
5163,34368
5164,34368
5165,33920
5166,33408
5167,33088
5168,33216
5169,33408
5170,33344
5171,32896
5172,32512
5173,32448
5174,32640
5175,32960
5176,33280
5177,33536
5178,33536
5179,33600
5180,33600
5181,33472
5182,33472
5183,33536
5184,33536
5185,33280
5186,33088
5187,33152
5188,33408
5189,33536
5190,33664
5191,33728
5192,33728
5193,33664
5194,33728
5195,33728
5196,33536
5197,33536
5198,33344
5199,33216
5200,33472
5201,33728
5202,33536
5203,33152
5204,33152
5205,33344
5206,33472
5207,33472
5208,33408
5209,33408
5210,33472
5211,33600
5212,33728
5213,33856
5214,34048
5215,33920
5216,33664
5217,33472
5218,33280
5219,33344
5220,33408
5221,33728
5222,33984
5223,33728
5224,33280
5225,33216
5226,33344
5227,33344
5228,33216
5229,33216
5230,33472
5231,33792
5232,33856
5233,33600
5234,33472
5235,33536
5236,33536
5237,33600
5238,33792
5239,33856
5240,33728
5241,33472
5242,33216
5243,33216
5244,33536
5245,33792
5246,33856
5247,33984
5248,33984
5249,34368
5250,34624
5251,34304
5252,33984
5253,33856
5254,33856
5255,34176
5256,34368
5257,34240
5258,34048
5259,33984
5260,34112
5261,33984
5262,33728
5263,33792
5264,33472
5265,33024
5266,32704
5267,32640
5268,32704
5269,32896
5270,33152
5271,33280
5272,33344
5273,33408
5274,33216
5275,32896
5276,32896
5277,33152
5278,33856
5279,35264
5280,37376
5281,40064
5282,43200
5283,46272
5284,48320
5285,48320
5286,45696
5287,41088
5288,36288
5289,32128
5290,28992
5291,27008
5292,26240
5293,26432
5294,27136
5295,28096
5296,28992
5297,30016
5298,30976
5299,31744
5300,32320
5301,32768
5302,33152
5303,33536
5304,33792
5305,33856
5306,33856
5307,33728
5308,33728
5309,33792
5310,33600
5311,33408
5312,33408
5313,33408
5314,33408
5315,33536
5316,33536
5317,33408
5318,33280
5319,33152
5320,33216
5321,33344
5322,33408
5323,33536
5324,33408
5325,33152
5326,33216
5327,33344
5328,33408
5329,33408
5330,33472
5331,33472
5332,33536
5333,33792
5334,34176
5335,34560
5336,34496
5337,34176
5338,33984
5339,33920
5340,34112
5341,34176
5342,34176
5343,34176
5344,34240
5345,34368
5346,34496
5347,34304
5348,34048
5349,33728
5350,33408
5351,33408
5352,33472
5353,33344
5354,33280
5355,33344
5356,33536
5357,33600
5358,33472
5359,33280
5360,33216
5361,33216
5362,33152
5363,33280
5364,33536
5365,33600
5366,33408
5367,33216
5368,33088
5369,33216
5370,33344
5371,33536
5372,33728
5373,33728
5374,33536
5375,33344
5376,33344
5377,33536
5378,33600
5379,33600
5380,33600
5381,33664
5382,33664
5383,33792
5384,33920
5385,33728
5386,33664
5387,33600
5388,33536
5389,33600
5390,33600
5391,33472
5392,33472
5393,33664
5394,33920
5395,34112
5396,34112
5397,33856
5398,33600
5399,33216
5400,32960
5401,32960
5402,33088
5403,33152
5404,33280
5405,33408
5406,33600
5407,33728
5408,34048
5409,34304
5410,34240
5411,33984
5412,33472
5413,33152
5414,33152
5415,33344
5416,33408
5417,33408
5418,33408
5419,33472
5420,33536
5421,33664
5422,33792
5423,33856
5424,33920
5425,33792
5426,33728
5427,33856
5428,34048
5429,34176
5430,34240
5431,34368
5432,34624
5433,34816
5434,34880
5435,34752
5436,34304
5437,33856
5438,33664
5439,33664
5440,33536
5441,33472
5442,33344
5443,32960
5444,32704
5445,32640
5446,32896
5447,33408
5448,33472
5449,33280
5450,33152
5451,33472
5452,33600
5453,33472
5454,33472
5455,33152
5456,32960
5457,33472
5458,35328
5459,37440
5460,39936
5461,42880
5462,46144
5463,48512
5464,48512
5465,45696
5466,41280
5467,36288
5468,32000
5469,29120
5470,27200
5471,25984
5472,25856
5473,26624
5474,27840
5475,29248
5476,30272
5477,30976
5478,31680
5479,32320
5480,32960
5481,33280
5482,33792
5483,34240
5484,34368
5485,33920
5486,33216
5487,32832
5488,32832
5489,33280
5490,33728
5491,33600
5492,33472
5493,33536
5494,33408
5495,33408
5496,33600
5497,33728
5498,33536
5499,33216
5500,33280
5501,33408
5502,33472
5503,33408
5504,33280
5505,33344
5506,33344
5507,33344
5508,33408
5509,33472
5510,33536
5511,33728
5512,33984
5513,34176
5514,34560
5515,34816
5516,34624
5517,34560
5518,34688
5519,34624
5520,34560
5521,34752
5522,34560
5523,34048
5524,33792
5525,33600
5526,33728
5527,33856
5528,33600
5529,33280
5530,33408
5531,33728
5532,33600
5533,33280
5534,33216
5535,33728
5536,33728
5537,33216
5538,32960
5539,32896
5540,33024
5541,33216
5542,33408
5543,33664
5544,33856
5545,33984
5546,34112
5547,33920
5548,33792
5549,34432
5550,34432
5551,33664
5552,32704
5553,32192
5554,32128
5555,32448
5556,32832
5557,33152
5558,33664
5559,34176
5560,34240
5561,33984
5562,34048
5563,34560
5564,34240
5565,33600
5566,33216
5567,33344
5568,34112
5569,34368
5570,33984
5571,33408
5572,32832
5573,32576
5574,32704
5575,33152
5576,33536
5577,33920
5578,34304
5579,34368
5580,34688
5581,34368
5582,33728
5583,33792
5584,33920
5585,33024
5586,32256
5587,32256
5588,32512
5589,32768
5590,33216
5591,33984
5592,34304
5593,34048
5594,33664
5595,33664
5596,34240
5597,34048
5598,33472
5599,33792
5600,34368
5601,34112
5602,33408
5603,32768
5604,32512
5605,32704
5606,32960
5607,33088
5608,33408
5609,34688
5610,35328
5611,34560
5612,33600
5613,33024
5614,33280
5615,33536
5616,33472
5617,33728
5618,33728
5619,33472
5620,33408
5621,33920
5622,34432
5623,34432
5624,34240
5625,34240
5626,34432
5627,34496
5628,34432
5629,34240
5630,33856
5631,33472
5632,33664
5633,33792
5634,33536
5635,33152
5636,32768
5637,32896
5638,33024
5639,32896
5640,32768
5641,32768
5642,32960
5643,33152
5644,33344
5645,33280
5646,32832
5647,33152
5648,34688
5649,37376
5650,40384
5651,43840
5652,47040
5653,48960
5654,48640
5655,45952
5656,41024
5657,35520
5658,32192
5659,28736
5660,26688
5661,26176
5662,26560
5663,27072
5664,27840
5665,28928
5666,30144
5667,30976
5668,31744
5669,32256
5670,32768
5671,33728
5672,34112
5673,33984
5674,33920
5675,33856
5676,33600
5677,33280
5678,33216
5679,33344
5680,33664
5681,33216
5682,33024
5683,33344
5684,33792
5685,33728
5686,33408
5687,33472
5688,33472
5689,33152
5690,33024
5691,33344
5692,33408
5693,33280
5694,33216
5695,33408
5696,33920
5697,33600
5698,33024
5699,33088
5700,33728
5701,34560
5702,34496
5703,33984
5704,33664
5705,33536
5706,33664
5707,34304
5708,34880
5709,34432
5710,34048
5711,34304
5712,34560
5713,34560
5714,34304
5715,34112
5716,34048
5717,33600
5718,33408
5719,33792
5720,33792
5721,33408
5722,33344
5723,33280
5724,33408
5725,33344
5726,33152
5727,32960
5728,32832
5729,33344
5730,33856
5731,33792
5732,33280
5733,33088
5734,33024
5735,33088
5736,33280
5737,33344
5738,33344
5739,33408
5740,33664
5741,33664
5742,33408
5743,33280
5744,33280
5745,33536
5746,33536
5747,33600
5748,33728
5749,33728
5750,33600
5751,33920
5752,34176
5753,33536
5754,33088
5755,33344
5756,33472
5757,33280
5758,33280
5759,33216
5760,33216
5761,33472
5762,33728
5763,33792
5764,33728
5765,33792
5766,33856
5767,33792
5768,33920
5769,33920
5770,33728
5771,33472
5772,33472
5773,33600
5774,33536
5775,33664
5776,33792
5777,33536
5778,32960
5779,32832
5780,32832
5781,33408
5782,34624
5783,34560
5784,33536
5785,32960
5786,32896
5787,33088
5788,33280
5789,33728
5790,33984
5791,33920
5792,33600
5793,33600
5794,33920
5795,33984
5796,33856
5797,33600
5798,33728
5799,33984
5800,34240
5801,33728
5802,33024
5803,32704
5804,32960
5805,33216
5806,33088
5807,33344
5808,33600
5809,33600
5810,33728
5811,34048
5812,34304
5813,34432
5814,34240
5815,34176
5816,34560
5817,34368
5818,34048
5819,33920
5820,34048
5821,34048
5822,33856
5823,34048
5824,34880
5825,34688
5826,33600
5827,33600
5828,33920
5829,33984
5830,33792
5831,33792
5832,34176
5833,34048
5834,33920
5835,33920
5836,33344
5837,32896
5838,32896
5839,33152
5840,33152
5841,33088
5842,33024
5843,33152
5844,33344
5845,33216
5846,33088
5847,33088
5848,32448
5849,32256
5850,33600
5851,36480
5852,38784
5853,41280
5854,44608
5855,47424
5856,48896
5857,47936
5858,44672
5859,40128
5860,35328
5861,31104
5862,28224
5863,26880
5864,26432
5865,26816
5866,27776
5867,28672
5868,29376
5869,29952
5870,30720
5871,31936
5872,32832
5873,32832
5874,33280
5875,33920
5876,34432
5877,34304
5878,33920
5879,33152
5880,32768
5881,33152
5882,33664
5883,33856
5884,33664
5885,33344
5886,33152
5887,33216
5888,33728
5889,34048
5890,33792
5891,33408
5892,33344
5893,33600
5894,33152
5895,32960
5896,33344
5897,33472
5898,33344
5899,33344
5900,33664
5901,33792
5902,33920
5903,34304
5904,34624
5905,34112
5906,33664
5907,33664
5908,33792
5909,33920
5910,33984
5911,34432
5912,34752
5913,34560
5914,34176
5915,34048
5916,33920
5917,33856
5918,33984
5919,34048
5920,34048
5921,33984
5922,34112
5923,33984
5924,33792
5925,33792
5926,33792
5927,34112
5928,33728
5929,32768
5930,32384
5931,32640
5932,33024
5933,33088
5934,33152
5935,33344
5936,33536
5937,33536
5938,33280
5939,33216
5940,33536
5941,33984
5942,34304
5943,33920
5944,33600
5945,33792
5946,33664
5947,33408
5948,33216
5949,33024
5950,33280
5951,33600
5952,33728
5953,34048
5954,34368
5955,34368
5956,33792
5957,33600
5958,33280
5959,32896
5960,32832
5961,33024
5962,33472
5963,33920
5964,33856
5965,33600
5966,33664
5967,33664
5968,33664
5969,33792
5970,34176
5971,34432
5972,33984
5973,33664
5974,33472
5975,33408
5976,33216
5977,33152
5978,33280
5979,33408
5980,33408
5981,33472
5982,33600
5983,33664
5984,33536
5985,33728
5986,33728
5987,33856
5988,33856
5989,33856
5990,34112
5991,33856
5992,33216
5993,32896
5994,32960
5995,33280
5996,33792
5997,33984
5998,34112
5999,34432
6000,34368
6001,34112
6002,33600
6003,33024
6004,33024
6005,33408
6006,33856
6007,33600
6008,33344
6009,33408
6010,33600
6011,33664
6012,33856
6013,34240
6014,34688
6015,34368
6016,33728
6017,33408
6018,33216
6019,33152
6020,33408
6021,33984
6022,34624
6023,35136
6024,34368
6025,33344
6026,32896
6027,33088
6028,33600
6029,33728
6030,33856
6031,33984
6032,34368
6033,34624
6034,34304
6035,34112
6036,34176
6037,34176
6038,34176
6039,34112
6040,34240
6041,34560
6042,34368
6043,34368
6044,34560
6045,34304
6046,33856
6047,33216
6048,33216
6049,33728
6050,33792
6051,33088
6052,32704
6053,32640
6054,32896
6055,33408
6056,33792
6057,33920
6058,33664
6059,33216
6060,33024
6061,33216
6062,33920
6063,35520
6064,37760
6065,40320
6066,43392
6067,46720
6068,48576
6069,48512
6070,45760
6071,39744
6072,36096
6073,32128
6074,28928
6075,27200
6076,26560
6077,26816
6078,27456
6079,28032
6080,28992
6081,30016
6082,31040
6083,31936
6084,32512
6085,32960
6086,33472
6087,33536
6088,33536
6089,33600
6090,33664
6091,33664
6092,33664
6093,33664
6094,33856
6095,34112
6096,34432
6097,34112
6098,33472
6099,32960
6100,32640
6101,32896
6102,33152
6103,33152
6104,33216
6105,33344
6106,33600
6107,33728
6108,33600
6109,33408
6110,33408
6111,33600
6112,33536
6113,33792
6114,34432
6115,34432
6116,33920
6117,33664
6118,33856
6119,34304
6120,34240
6121,34176
6122,34048
6123,33920
6124,34432
6125,34880
6126,34496
6127,34112
6128,33728
6129,33664
6130,33728
6131,33792
6132,33984
6133,34240
6134,34176
6135,34048
6136,33984
6137,33728
6138,33536
6139,33408
6140,33408
6141,33728
6142,33600
6143,33472
6144,33408
6145,33344
6146,33536
6147,33856
6148,33920
6149,33408
6150,33280
6151,33088
6152,32704
6153,32640
6154,32832
6155,33152
6156,33344
6157,33536
6158,33664
6159,33728
6160,33856
6161,33920
6162,33856
6163,34176
6164,34368
6165,34048
6166,33728
6167,33792
6168,33856
6169,34112
6170,34112
6171,33344
6172,32768
6173,32896
6174,33344
6175,33344
6176,33216
6177,33408
6178,33536
6179,33472
6180,33536
6181,33536
6182,33600
6183,33856
6184,33984
6185,33856
6186,33856
6187,33920
6188,33792
6189,33664
6190,33984
6191,34176
6192,33536
6193,33024
6194,32768
6195,32896
6196,33408
6197,33664
6198,33792
6199,33664
6200,33664
6201,33792
6202,33856
6203,33792
6204,33664
6205,33600
6206,33600
6207,33664
6208,33728
6209,33728
6210,33920
6211,34176
6212,34176
6213,34048
6214,33792
6215,33472
6216,33088
6217,32896
6218,32960
6219,33152
6220,33408
6221,33728
6222,33792
6223,34112
6224,34624
6225,34624
6226,34304
6227,33792
6228,33152
6229,32960
6230,33152
6231,33152
6232,33216
6233,33792
6234,33856
6235,33856
6236,33856
6237,33792
6238,33792
6239,33664
6240,33600
6241,33600
6242,33600
6243,33792
6244,33984
6245,34112
6246,34112
6247,34496
6248,34624
6249,34624
6250,34176
6251,34112
6252,33984
6253,34048
6254,34496
6255,35072
6256,35008
6257,34688
6258,34496
6259,34048
6260,33536
6261,33600
6262,33600
6263,33344
6264,33152
6265,32768
6266,32704
6267,32768
6268,33024
6269,33280
6270,33536
6271,33856
6272,34432
6273,34496
6274,33856
6275,33152
6276,32768
6277,33024
6278,34240
6279,36160
6280,38336
6281,38784
6282,43840
6283,46656
6284,48320
6285,47680
6286,47104
6287,41152
6288,36160
6289,31808
6290,28544
6291,26560
6292,25920
6293,26368
6294,27136
6295,28288
6296,29696
6297,30720
6298,31360
6299,32000
6300,32576
6301,32576
6302,33280
6303,33920
6304,34432
6305,34880
6306,34496
6307,33728
6308,33280
6309,33024
6310,33088
6311,33344
6312,33472
6313,33536
6314,33408
6315,33280
6316,33280
6317,33408
6318,33408
6319,33344
6320,33408
6321,33600
6322,33856
6323,33728
6324,33600
6325,33920
6326,33984
6327,33856
6328,33664
6329,33664
6330,33984
6331,34176
6332,33920
6333,33792
6334,33856
6335,33984
6336,33984
6337,34304
6338,34304
6339,34496
6340,34816
6341,34688
6342,34304
6343,34112
6344,34240
6345,34432
6346,34688
6347,34688
6348,34560
6349,34432
6350,34368
6351,34176
6352,33152
6353,32960
6354,33024
6355,33664
6356,33664
6357,33600
6358,33344
6359,33152
6360,33216
6361,33472
6362,33792
6363,33856
6364,33728
6365,33472
6366,33280
6367,33344
6368,33408
6369,33536
6370,33728
6371,33728
6372,34496
6373,34240
6374,33664
6375,33216
6376,32960
6377,33152
6378,33280
6379,33280
6380,33472
6381,33920
6382,34368
6383,34048
6384,33728
6385,33600
6386,33536
6387,33600
6388,33920
6389,33984
6390,33792
6391,33792
6392,33984
6393,33792
6394,33728
6395,33536
6396,33280
6397,33280
6398,33216
6399,33344
6400,33792
6401,34048
6402,33856
6403,33664
6404,33536
6405,33344
6406,33280
6407,33344
6408,33600
6409,33792
6410,33728
6411,33600
6412,33600
6413,33728
6414,33920
6415,33856
6416,33728
6417,33920
6418,34048
6419,33920
6420,33664
6421,33600
6422,33408
6423,33472
6424,33856
6425,33856
6426,33408
6427,33344
6428,33344
6429,33280
6430,33216
6431,33280
6432,33472
6433,33856
6434,34112
6435,34112
6436,34176
6437,34048
6438,33792
6439,33856
6440,33792
6441,33728
6442,33344
6443,33280
6444,33536
6445,33920
6446,33920
6447,33600
6448,33536
6449,33600
6450,33792
6451,34048
6452,33984
6453,33856
6454,33856
6455,34240
6456,34176
6457,34432
6458,34048
6459,33792
6460,33728
6461,33920
6462,34112
6463,34240
6464,34496
6465,34816
6466,35008
6467,35072
6468,34560
6469,33792
6470,33216
6471,32896
6472,32896
6473,32960
6474,33216
6475,33792
6476,33984
6477,33664
6478,33344
6479,33472
6480,33728
6481,33664
6482,33280
6483,32960
6484,33024
6485,33408
6486,34112
6487,35456
6488,37312
6489,39872
6490,43200
6491,46656
6492,48192
6493,47744
6494,45184
6495,40064
6496,39488
6497,32384
6498,29376
6499,27456
6500,26624
6501,26688
6502,27456
6503,28672
6504,29696
6505,30272
6506,30976
6507,31872
6508,32384
6509,32640
6510,33088
6511,33088
6512,33344
6513,33600
6514,33920
6515,34048
6516,34240
6517,34368
6518,33920
6519,33344
6520,33088
6521,33088
6522,33344
6523,33792
6524,33792
6525,33216
6526,33088
6527,33024
6528,33088
6529,33152
6530,33408
6531,33408
6532,33984
6533,33792
6534,33728
6535,33664
6536,33664
6537,33728
6538,33728
6539,34048
6540,34624
6541,34496
6542,33920
6543,33472
6544,33408
6545,33664
6546,33664
6547,34368
6548,34432
6549,34240
6550,34112
6551,34176
6552,34304
6553,34304
6554,34432
6555,34496
6556,34496
6557,34432
6558,34368
6559,34240
6560,33792
6561,33728
6562,33472
6563,33344
6564,33472
6565,33728
6566,33728
6567,33792
6568,33536
6569,33088
6570,32832
6571,32832
6572,33344
6573,33728
6574,33600
6575,33280
6576,33088
6577,33216
6578,33600
6579,33856
6580,33984
6581,33920
6582,33792
6583,33664
6584,33536
6585,33472
6586,33472
6587,33792
6588,33792
6589,33472
6590,33344
6591,33472
6592,33728
6593,34112
6594,34432
6595,33856
6596,33728
6597,33408
6598,33216
6599,33152
6600,33344
6601,33344
6602,33664
6603,33664
6604,33792
6605,33984
6606,33920
6607,33920
6608,33920
6609,33600
6610,33408
6611,33472
6612,33664
6613,33728
6614,33536
6615,33408
6616,33536
6617,33920
6618,34048
6619,33856
6620,33472
6621,33344
6622,33536
6623,34048
6624,34112
6625,33600
6626,33216
6627,33152
6628,33408
6629,33664
6630,33664
6631,33728
6632,33664
6633,33536
6634,33472
6635,33600
6636,33664
6637,33664
6638,33728
6639,33920
6640,34304
6641,34304
6642,34048
6643,33792
6644,33664
6645,33664
6646,33856
6647,34240
6648,34624
6649,34688
6650,34240
6651,34176
6652,33856
6653,34048
6654,34496
6655,34560
6656,34432
6657,34304
6658,33920
6659,33536
6660,33216
6661,33024
6662,32960
6663,33024
6664,33152
6665,33408
6666,33792
6667,34112
6668,34240
6669,33984
6670,33600
6671,33216
6672,32832
6673,32640
6674,32576
6675,32704
6676,33152
6677,34112
6678,35712
6679,37952
6680,40832
6681,44160
6682,46848
6683,48256
6684,47680
6685,43712
6686,42688
6687,35648
6688,31872
6689,29184
6690,27392
6691,26432
6692,26368
6693,27072
6694,28096
6695,29312
6696,30528
6697,31488
6698,32256
6699,32704
6700,33152
6701,33280
6702,34240
6703,34304
6704,33728
6705,33216
6706,33152
6707,33216
6708,33152
6709,33216
6710,33344
6711,33536
6712,33792
6713,33664
6714,33408
6715,33280
6716,33280
6717,33664
6718,33984
6719,33792
6720,33536
6721,33472
6722,33152
6723,33024
6724,33152
6725,33408
6726,33664
6727,33920
6728,34240
6729,34240
6730,33856
6731,33664
6732,33728
6733,33728
6734,33856
6735,34112
6736,34112
6737,34304
6738,34240
6739,34176
6740,34368
6741,34368
6742,34624
6743,34816
6744,34688
6745,34304
6746,33920
6747,33600
6748,33600
6749,33728
6750,33664
6751,33472
6752,33472
6753,33472
6754,33472
6755,33536
6756,33408
6757,33088
6758,32896
6759,32960
6760,33152
6761,33344
6762,33472
6763,33536
6764,33536
6765,33536
6766,33536
6767,33408
6768,33472
6769,33728
6770,33664
6771,33408
6772,33408
6773,33600
6774,33536
6775,33600
6776,33920
6777,34048
6778,33728
6779,33344
6780,33344
6781,33536
6782,33792
6783,33600
6784,33216
6785,33216
6786,33344
6787,33280
6788,33344
6789,33536
6790,33920
6791,34048
6792,33984
6793,33984
6794,33792
6795,33664
6796,33536
6797,33728
6798,33856
6799,33600
6800,33280
6801,33152
6802,33152
6803,33280
6804,33536
6805,33664
6806,33536
6807,33536
6808,33728
6809,33856
6810,33600
6811,33472
6812,33664
6813,33856
6814,33728
6815,33664
6816,33600
6817,33600
6818,33600
6819,33664
6820,33728
6821,33536
6822,33536
6823,33792
6824,33792
6825,33536
6826,33344
6827,33344
6828,33472
6829,33600
6830,33856
6831,33856
6832,33856
6833,33920
6834,33984
6835,34048
6836,34112
6837,34240
6838,34304
6839,34304
6840,34432
6841,34496
6842,34624
6843,34816
6844,34688
6845,34304
6846,33728
6847,33344
6848,33280
6849,33280
6850,33408
6851,33408
6852,33280
6853,33088
6854,32960
6855,33088
6856,33408
6857,33472
6858,33408
6859,33280
6860,33088
6861,32896
6862,32768
6863,33088
6864,33792
6865,35136
6866,37248
6867,39808
6868,42752
6869,46016
6870,48320
6871,48640
6872,46656
6873,42688
6874,37696
6875,31872
6876,29504
6877,27328
6878,26368
6879,26048
6880,26752
6881,27712
6882,28864
6883,30016
6884,30784
6885,31360
6886,31936
6887,32512
6888,33152
6889,33536
6890,33792
6891,33792
6892,33728
6893,33664
6894,33728
6895,33728
6896,33600
6897,33536
6898,33472
6899,33472
6900,33664
6901,33536
6902,33216
6903,33216
6904,33344
6905,33280
6906,33152
6907,33152
6908,33280
6909,33280
6910,33280
6911,33408
6912,33408
6913,33472
6914,33536
6915,33600
6916,33728
6917,33984
6918,34112
6919,34112
6920,34112
6921,34368
6922,34368
6923,34240
6924,34112
6925,33920
6926,33728
6927,33664
6928,33792
6929,33984
6930,34368
6931,34496
6932,34496
6933,34432
6934,34048
6935,33728
6936,33728
6937,33792
6938,33792
6939,33600
6940,33216
6941,33280
6942,33536
6943,33408
6944,33024
6945,32768
6946,32832
6947,32896
6948,32896
6949,32896
6950,33088
6951,33344
6952,33600
6953,33728
6954,33728
6955,33728
6956,33664
6957,33472
6958,33280
6959,33344
6960,33536
6961,33728
6962,33856
6963,33856
6964,33664
6965,33280
6966,33152
6967,33280
6968,33408
6969,33344
6970,33280
6971,33344
6972,33472
6973,33600
6974,33600
6975,33536
6976,33728
6977,33792
6978,33728
6979,33664
6980,33728
6981,33920
6982,34048
6983,33792
6984,33472
6985,33088
6986,33088
6987,33152
6988,33408
6989,33664
6990,33600
6991,33280
6992,33152
6993,33280
6994,33536
6995,33920
6996,33984
6997,33728
6998,33600
6999,33664
7000,33664
7001,33536
7002,33408
7003,33472
7004,33536
7005,33536
7006,33728
7007,33856
7008,33984
7009,34048
7010,33728
7011,33408
7012,33344
7013,33600
7014,33856
7015,33728
7016,33664
7017,33728
7018,33920
7019,34304
7020,34496
7021,34304
7022,34304
7023,34432
7024,34688
7025,34752
7026,34304
7027,33856
7028,33472
7029,33280
7030,33216
7031,33472
7032,33664
7033,33344
7034,33088
7035,33088
7036,33344
7037,33344
7038,33152
7039,33152
7040,33280
7041,33280
7042,33024
7043,32704
7044,32576
7045,32768
7046,33536
7047,35008
7048,37248
7049,39744
7050,42624
7051,45760
7052,48064
7053,48640
7054,46976
7055,42048
7056,37376
7057,33088
7058,29184
7059,26816
7060,25728
7061,25856
7062,26752
7063,27840
7064,28736
7065,29760
7066,30784
7067,31488
7068,32128
7069,32640
7070,33280
7071,33536
7072,33664
7073,33792
7074,33856
7075,33920
7076,33856
7077,33600
7078,33536
7079,33472
7080,33472
7081,33600
7082,33664
7083,33280
7084,33024
7085,33024
7086,32960
7087,32960
7088,33024
7089,33152
7090,33280
7091,33472
7092,33664
7093,33728
7094,33856
7095,33856
7096,33792
7097,33664
7098,33472
7099,33600
7100,33920
7101,34176
7102,34240
7103,34112
7104,33920
7105,33856
7106,33920
7107,34112
7108,34304
7109,34304
7110,34176
7111,34176
7112,34240
7113,34176
7114,34112
7115,34176
7116,34304
7117,34112
7118,33984
7119,33792
7120,33472
7121,33280
7122,33152
7123,33152
7124,33216
7125,33408
7126,33472
7127,33408
7128,33408
7129,33344
7130,33408
7131,33472
7132,33344
7133,33088
7134,33152
7135,33344
7136,33344
7137,33152
7138,33088
7139,33152
7140,33344
7141,33536
7142,33984
7143,33984
7144,33664
7145,33344
7146,33280
7147,33344
7148,33344
7149,33408
7150,33600
7151,33728
7152,33728
7153,33664
7154,33664
7155,33792
7156,33664
7157,33600
7158,33472
7159,33344
7160,33344
7161,33600
7162,33856
7163,33856
7164,33536
7165,33344
7166,33216
7167,33216
7168,33344
7169,33472
7170,33600
7171,33728
7172,33536
7173,33344
7174,33280
7175,33344
7176,33600
7177,33728
7178,33600
7179,33472
7180,33408
7181,33600
7182,33536
7183,33344
7184,33216
7185,33344
7186,33536
7187,33856
7188,33984
7189,33856
7190,33856
7191,33792
7192,33536
7193,33472
7194,33536
7195,33600
7196,33600
7197,33664
7198,33920
7199,34368
7200,34560
7201,34368
7202,34240
7203,34304
7204,34432
7205,34432
7206,34240
7207,33984
7208,33792
7209,33472
7210,33408
7211,33408
7212,33472
7213,33472
7214,33408
7215,33472
7216,33472
7217,33408
7218,33216
7219,33152
7220,33152
7221,33408
7222,33408
7223,33088
7224,32768
7225,32640
7226,32576
7227,32832
7228,33920
7229,35520
7230,37760
7231,40512
7232,43776
7233,46848
7234,48448
7235,47872
7236,44992
7237,40512
7238,35712
7239,31744
7240,28928
7241,27456
7242,26688
7243,26496
7244,27136
7245,28032
7246,28992
7247,29760
7248,30720
7249,31552
7250,32192
7251,32832
7252,33152
7253,33280
7254,33472
7255,33664
7256,33792
7257,33920
7258,33984
7259,33984
7260,33920
7261,33600
7262,33344
7263,33344
7264,33600
7265,33664
7266,33280
7267,33024
7268,32960
7269,32896
7270,32832
7271,32832
7272,32960
7273,33216
7274,33472
7275,33600
7276,33664
7277,33792
7278,33920
7279,34176
7280,34048
7281,33664
7282,33664
7283,33920
7284,33728
7285,33536
7286,33728
7287,33984
7288,34176
7289,34432
7290,34560
7291,34432
7292,34304
7293,34112
7294,33984
7295,33920
7296,33920
7297,34112
7298,34240
7299,34240
7300,34112
7301,33984
7302,33728
7303,33472
7304,33344
7305,33280
7306,33344
7307,33600
7308,33408
7309,33088
7310,33216
7311,33280
7312,33088
7313,33088
7314,33216
7315,33344
7316,33408
7317,33408
7318,33344
7319,33408
7320,33536
7321,33664
7322,33792
7323,33792
7324,33728
7325,33664
7326,33472
7327,33408
7328,33472
7329,33536
7330,33600
7331,33472
7332,33408
7333,33536
7334,33792
7335,33856
7336,33792
7337,33856
7338,33984
7339,33664
7340,33344
7341,33216
7342,33344
7343,33408
7344,33472
7345,33600
7346,33792
7347,33792
7348,33600
7349,33472
7350,33344
7351,33344
7352,33408
7353,33536
7354,33536
7355,33472
7356,33536
7357,33600
7358,33856
7359,33792
7360,33728
7361,33600
7362,33536
7363,33408
7364,33344
7365,33344
7366,33408
7367,33472
7368,33664
7369,33728
7370,33792
7371,33856
7372,33856
7373,33920
7374,34048
7375,33984
7376,33792
7377,33856
7378,34112
7379,34240
7380,34176
7381,33984
7382,33792
7383,33792
7384,33920
7385,34048
7386,34112
7387,34112
7388,34112
7389,34048
7390,33920
7391,33920
7392,33856
7393,33536
7394,33216
7395,33024
7396,33088
7397,33152
7398,33152
7399,33216
7400,33344
7401,33344
7402,33408
7403,33472
7404,33344
7405,32832
7406,32512
7407,32832
7408,34176
7409,36416
7410,39168
7411,42240
7412,45440
7413,48000
7414,48832
7415,47232
7416,43520
7417,38528
7418,33728
7419,30016
7420,27648
7421,26368
7422,26176
7423,26752
7424,27584
7425,28608
7426,29696
7427,30720
7428,31680
7429,32448
7430,33088
7431,33216
7432,33344
7433,33600
7434,33728
7435,33600
7436,33536
7437,33472
7438,33536
7439,33472
7440,33536
7441,33600
7442,33472
7443,33280
7444,33152
7445,33152
7446,33216
7447,33280
7448,33344
7449,33408
7450,33536
7451,33600
7452,33664
7453,33600
7454,33408
7455,33472
7456,33728
7457,34048
7458,34048
7459,33792
7460,33536
7461,33344
7462,33472
7463,33664
7464,33856
7465,33984
7466,34048
7467,34176
7468,34176
7469,34176
7470,34112
7471,34112
7472,34240
7473,34432
7474,34560
7475,34688
7476,34432
7477,34048
7478,33792
7479,33664
7480,33664
7481,33600
7482,33472
7483,33344
7484,33280
7485,33280
7486,33472
7487,33472
7488,33344
7489,33216
7490,33152
7491,33152
7492,33152
7493,33280
7494,33536
7495,33792
7496,33728
7497,33472
7498,33280
7499,33280
7500,33472
7501,33664
7502,33728
7503,33856
7504,33600
7505,33408
7506,33280
7507,33344
7508,33536
7509,33664
7510,33600
7511,33728
7512,33856
7513,33728
7514,33792
7515,33920
7516,33728
7517,33408
7518,33472
7519,33536
7520,33600
7521,33728
7522,33536
7523,33344
7524,33344
7525,33536
7526,33600
7527,33664
7528,33728
7529,33792
7530,33792
7531,33728
7532,33792
7533,33728
7534,33600
7535,33472
7536,33536
7537,33664
7538,33600
7539,33600
7540,33600
7541,33472
7542,33472
7543,33600
7544,33856
7545,33920
7546,33856
7547,33856
7548,33792
7549,33664
7550,33472
7551,33408
7552,33536
7553,33472
7554,33408
7555,33472
7556,33536
7557,33664
7558,33728
7559,33792
7560,33856
7561,33984
7562,33984
7563,33984
7564,34176
7565,34368
7566,34368
7567,34112
7568,33856
7569,33728
7570,33792
7571,33984
7572,34240
7573,34496
7574,34432
7575,34368
7576,34304
7577,34368
7578,34240
7579,33920
7580,33728
7581,33664
7582,33472
7583,33408
7584,33152
7585,33024
7586,33152
7587,33344
7588,33344
7589,33280
7590,33280
7591,33408
7592,33472
7593,33344
7594,33088
7595,32832
7596,33088
7597,33984
7598,35392
7599,37248
7600,39808
7601,43008
7602,46336
7603,48576
7604,48640
7605,46400
7606,42368
7607,37120
7608,32640
7609,29056
7610,26560
7611,26112
7612,26304
7613,27072
7614,27968
7615,28928
7616,29888
7617,30848
7618,31616
7619,32320
7620,32896
7621,33344
7622,33728
7623,34048
7624,34176
7625,34368
7626,34048
7627,33600
7628,33344
7629,33152
7630,33216
7631,33280
7632,33408
7633,33536
7634,33664
7635,33408
7636,33152
7637,33152
7638,33152
7639,33088
7640,33088
7641,33216
7642,33472
7643,33472
7644,33472
7645,33600
7646,33664
7647,33728
7648,33728
7649,33664
7650,33728
7651,33792
7652,33920
7653,34176
7654,34496
7655,34752
7656,34560
7657,34240
7658,34176
7659,34112
7660,33984
7661,34176
7662,34368
7663,34176
7664,34048
7665,34176
7666,34240
7667,34240
7668,34176
7669,33856
7670,33536
7671,33344
7672,33216
7673,33280
7674,33344
7675,33280
7676,33280
7677,33344
7678,33472
7679,33664
7680,33664
7681,33408
7682,33152
7683,33152
7684,33344
7685,33472
7686,33472
7687,33408
7688,33408
7689,33536
7690,33728
7691,33600
7692,33408
7693,33216
7694,33152
7695,33408
7696,33600
7697,33600
7698,33792
7699,33792
7700,33472
7701,33280
7702,33280
7703,33280
7704,33536
7705,33728
7706,33728
7707,33664
7708,33664
7709,33600
7710,33600
7711,33728
7712,33856
7713,33728
7714,33600
7715,33600
7716,33600
7717,33664
7718,33920
7719,33856
7720,33600
7721,33472
7722,33344
7723,33152
7724,33152
7725,33152
7726,33216
7727,33408
7728,33664
7729,33664
7730,33600
7731,33600
7732,33600
7733,33664
7734,33728
7735,33664
7736,33600
7737,33664
7738,33920
7739,33984
7740,33728
7741,33664
7742,33472
7743,33344
7744,33344
7745,33344
7746,33280
7747,33280
7748,33536
7749,33920
7750,33984
7751,33792
7752,33792
7753,33728
7754,33664
7755,33728
7756,33856
7757,34112
7758,34304
7759,34176
7760,34240
7761,34240
7762,34048
7763,33984
7764,33984
7765,34112
7766,34304
7767,34560
7768,34624
7769,34432
7770,33920
7771,33600
7772,33408
7773,33408
7774,33536
7775,33536
7776,33472
7777,33408
7778,33280
7779,33344
7780,33344
7781,33280
7782,33216
7783,33216
7784,33216
7785,32960
7786,32768
7787,32704
7788,33024
7789,33984
7790,35840
7791,38336
7792,41216
7793,44352
7794,47296
7795,48960
7796,48512
7797,45440
7798,40640
7799,35776
7800,31552
7801,28480
7802,26624
7803,26112
7804,26432
7805,27136
7806,27968
7807,28928
7808,30016
7809,31104
7810,31936
7811,32576
7812,33088
7813,33472
7814,33664
7815,33856
7816,33920
7817,33920
7818,33792
7819,33600
7820,33600
7821,33600
7822,33664
7823,33728
7824,33792
7825,33472
7826,33344
7827,33152
7828,33024
7829,32960
7830,32960
7831,33088
7832,33280
7833,33472
7834,33472
7835,33472
7836,33472
7837,33664
7838,33792
7839,33920
7840,33984
7841,33920
7842,33920
7843,33984
7844,34240
7845,34240
7846,34048
7847,33920
7848,33856
7849,33856
7850,33984
7851,34112
7852,34240
7853,34432
7854,34432
7855,34368
7856,34304
7857,34368
7858,34496
7859,34432
7860,34176
7861,33920
7862,33600
7863,33344
7864,33216
7865,33344
7866,33280
7867,33088
7868,33024
7869,33024
7870,33088
7871,33344
7872,33600
7873,33536
7874,33472
7875,33472
7876,33408
7877,33344
7878,33344
7879,33344
7880,33472
7881,33536
7882,33536
7883,33472
7884,33536
7885,33472
7886,33408
7887,33536
7888,33664
7889,33920
7890,33920
7891,33664
7892,33408
7893,33280
7894,33216
7895,33408
7896,33472
7897,33600
7898,33600
7899,33664
7900,33856
7901,33920
7902,33920
7903,33728
7904,33408
7905,33280
7906,33408
7907,33600
7908,33728
7909,33792
7910,33792
7911,33856
7912,33664
7913,33344
7914,33152
7915,33152
7916,33280
7917,33408
7918,33536
7919,33664
7920,33728
7921,33728
7922,33728
7923,33792
7924,33984
7925,33920
7926,33792
7927,33728
7928,33728
7929,33472
7930,33280
7931,33344
7932,33408
7933,33472
7934,33472
7935,33344
7936,33344
7937,33472
7938,33728
7939,34048
7940,34304
7941,34240
7942,34112
7943,34112
7944,34112
7945,34048
7946,34112
7947,34112
7948,34112
7949,34304
7950,34240
7951,34176
7952,34240
7953,34368
7954,34240
7955,33984
7956,33728
7957,33664
7958,33664
7959,33728
7960,33728
7961,33536
7962,33472
7963,33344
7964,33344
7965,33472
7966,33408
7967,33344
7968,33408
7969,33472
7970,33408
7971,33216
7972,33088
7973,32960
7974,32832
7975,33088
7976,34240
7977,36096
7978,38656
7979,41856
7980,45760
7981,47936
7982,49152
7983,48128
7984,44416
7985,39296
7986,34496
7987,30784
7988,28096
7989,26432
7990,25920
7991,26304
7992,27200
7993,28288
7994,29376
7995,30400
7996,31360
7997,32128
7998,32576
7999,32960
8000,33472
8001,33664
8002,33792
8003,33984
8004,34176
8005,34112
8006,33984
8007,33664
8008,33344
8009,33216
8010,33216
8011,33216
8012,33280
8013,33344
8014,33344
8015,33408
8016,33664
8017,33856
8018,33856
8019,33664
8020,33344
8021,33088
8022,33024
8023,33088
8024,33216
8025,33408
8026,33600
8027,33600
8028,33664
8029,33728
8030,33920
8031,33984
8032,34176
8033,34368
8034,34496
8035,34304
8036,34048
8037,34048
8038,34240
8039,34432
8040,34496
8041,34432
8042,34176
8043,33856
8044,33664
8045,33536
8046,33536
8047,33536
8048,33856
8049,33920
8050,33920
8051,33920
8052,33664
8053,33088
8054,33152
8055,33280
8056,33280
8057,33152
8058,33152
8059,33280
8060,33344
8061,33408
8062,33408
8063,33280
8064,33344
8065,33344
8066,33536
8067,33664
8068,33728
8069,33920
8070,33856
8071,33856
8072,33664
8073,33600
8074,33728
8075,33856
8076,33792
8077,33664
8078,33408
8079,33344
8080,33472
8081,33536
8082,33472
8083,33472
8084,33408
8085,33344
8086,33408
8087,33600
8088,33792
8089,33856
8090,33792
8091,33792
8092,33792
8093,33600
8094,33472
8095,33472
8096,33600
8097,33536
8098,33856
8099,34048
8100,34048
8101,33600
8102,33280
8103,33216
8104,33280
8105,33280
8106,33344
8107,33600
8108,33600
8109,33472
8110,33664
8111,33728
8112,33728
8113,33664
8114,33600
8115,33344
8116,33280
8117,33408
8118,33600
8119,33792
8120,33728
8121,33792
8122,33856
8123,33728
8124,33472
8125,33216
8126,33152
8127,33152
8128,33408
8129,33792
8130,33856
8131,33664
8132,33472
8133,33472
8134,33536
8135,33536
8136,33664
8137,33728
8138,33536
8139,33600
8140,33536
8141,33984
8142,34304
8143,34304
8144,34048
8145,33984
8146,33984
8147,33920
8148,34112
8149,34432
8150,34432
8151,34304
8152,34112
8153,34112
8154,34112
8155,34048
8156,33792
8157,33664
8158,33536
8159,33472
8160,33344
8161,33216
8162,33280
8163,33536
8164,33856
8165,33792
8166,33472
8167,33344
8168,33216
8169,33088
8170,33024
8171,32768
8172,32512
8173,32448
8174,33024
8175,33088
8176,35328
8177,37632
8178,40512
8179,43776
8180,46784
8181,48512
8182,48384
8183,46080
8184,41728
8185,36608
8186,31872
8187,28800
8188,26880
8189,26112
8190,26112
8191,27136
8192,28160
8193,29184
8194,30144
8195,31040
8196,31808
8197,32512
8198,33024
8199,33216
8200,33408
8201,33472
8202,33536
8203,33664
8204,33600
8205,33536
8206,33344
8207,33344
8208,33472
8209,33856
8210,33856
8211,33792
8212,33216
8213,32896
8214,32832
8215,32960
8216,33024
8217,33024
8218,33152
8219,33216
8220,33216
8221,33280
8222,33408
8223,33536
8224,33728
8225,33728
8226,33856
8227,33664
8228,33600
8229,33664
8230,33728
8231,33920
8232,34112
8233,34304
8234,34368
8235,34240
8236,34176
8237,34176
8238,34176
8239,34112
8240,34112
8241,34176
8242,34176
8243,34112
8244,34176
8245,34112
8246,34112
8247,33920
8248,33728
8249,33600
8250,33472
8251,33472
8252,33472
8253,33472
8254,33344
8255,33152
8256,33024
8257,33024
8258,33088
8259,33152
8260,33088
8261,33280
8262,33408
8263,33536
8264,33536
8265,33472
8266,33472
8267,33472
8268,33472
8269,33472
8270,33472
8271,33536
8272,33600
8273,33664
8274,33792
8275,33728
8276,33792
8277,33600
8278,33536
8279,33664
8280,33600
8281,33536
8282,33472
8283,33472
8284,33472
8285,33536
8286,33472
8287,33472
8288,33472
8289,33472
8290,33472
8291,33408
8292,33408
8293,33472
8294,33600
8295,33792
8296,33984
8297,33984
8298,33856
8299,33664
8300,33600
8301,33408
8302,33280
8303,33216
8304,33216
8305,33216
8306,33280
8307,33408
8308,33536
8309,33600
8310,33600
8311,33600
8312,33664
8313,33792
8314,33920
8315,33856
8316,33856
8317,33920
8318,33856
8319,33600
8320,33408
8321,33280
8322,33344
8323,33280
8324,33216
8325,33344
8326,33408
8327,33408
8328,33472
8329,33600
8330,33536
8331,33600
8332,33664
8333,33728
8334,33728
8335,33856
8336,33984
8337,34048
8338,33920
8339,33792
8340,33664
8341,33664
8342,33664
8343,33536
8344,33536
8345,33472
8346,33664
8347,33728
8348,33664
8349,33536
8350,33536
8351,33600
8352,33728
8353,33984
8354,34240
8355,34368
8356,34368
8357,34432
8358,34688
8359,35008
8360,35008
8361,34432
8362,33856
8363,33280
8364,32896
8365,32832
8366,32832
8367,32832
8368,32896
8369,33024
8370,33216
8371,33408
8372,33472
8373,33600
8374,33600
8375,33536
8376,33280
8377,33024
8378,32832
8379,33088
8380,33088
8381,35328
8382,37440
8383,40192
8384,44352
8385,44736
8386,48576
8387,48576
8388,46144
8389,41856
8390,36864
8391,32448
8392,29120
8393,27072
8394,26240
8395,26432
8396,27200
8397,28096
8398,29056
8399,30208
8400,30208
8401,31744
8402,32384
8403,32896
8404,33344
8405,33536
8406,33536
8407,33600
8408,33664
8409,33728
8410,33728
8411,33792
8412,33856
8413,33664
8414,33472
8415,33408
8416,33280
8417,33216
8418,33280
8419,33152
8420,33088
8421,32960
8422,32960
8423,33024
8424,33152
8425,33280
8426,33472
8427,33536
8428,33536
8429,33536
8430,33536
8431,33664
8432,33664
8433,33728
8434,33856
8435,33792
8436,34048
8437,34112
8438,34112
8439,34112
8440,34112
8441,34240
8442,34304
8443,34304
8444,34368
8445,34368
8446,34368
8447,34304
8448,34368
8449,34432
8450,34368
8451,33920
8452,33600
8453,33472
8454,33408
8455,33344
8456,33280
8457,33216
8458,33216
8459,33216
8460,33152
8461,33152
8462,33216
8463,33280
8464,33280
8465,33408
8466,33408
8467,33408
8468,33408
8469,33408
8470,33408
8471,33536
8472,33536
8473,33664
8474,33856
8475,33984
8476,33600
8477,33280
8478,33088
8479,33216
8480,33216
8481,33344
8482,33408
8483,33472
8484,33600
8485,33600
8486,33664
8487,33728
8488,33728
8489,33728
8490,33728
8491,33792
8492,33856
8493,33856
8494,33792
8495,33792
8496,33600
8497,33472
8498,33408
8499,33408
8500,33408
8501,33536
8502,33728
8503,33792
8504,33728
8505,33536
8506,33280
8507,33216
8508,33280
8509,33344
8510,33408
8511,33472
8512,33600
8513,33664
8514,33664
8515,33728
8516,33792
8517,33728
8518,33728
8519,33728
8520,33728
8521,33920
8522,33920
8523,33728
8524,33536
8525,33472
8526,33408
8527,33344
8528,33408
8529,33536
8530,33728
8531,33856
8532,33920
8533,33728
8534,33600
8535,33536
8536,33664
8537,33728
8538,33664
8539,33536
8540,33536
8541,33536
8542,33664
8543,33728
8544,33792
8545,33792
8546,33856
8547,33856
8548,33856
8549,33856
8550,33728
8551,33600
8552,33536
8553,33600
8554,33856
8555,33856
8556,33984
8557,34048
8558,34048
8559,34048
8560,34176
8561,34240
8562,34240
8563,34176
8564,34176
8565,34240
8566,34304
8567,34368
8568,34368
8569,34240
8570,34048
8571,33856
8572,33664
8573,33664
8574,33600
8575,33472
8576,33344
8577,33280
8578,33344
8579,33344
8580,33280
8581,33152
8582,33152
8583,33280
8584,33344
8585,33152
8586,32832
8587,32896
8588,33216
8589,34624
8590,36096
8591,38528
8592,41344
8593,44544
8594,47936
8595,48704
8596,47872
8597,44736
8598,40064
8599,35200
8600,31168
8601,28352
8602,26752
8603,26240
8604,26560
8605,27392
8606,28352
8607,29376
8608,30400
8609,31360
8610,31872
8611,32384
8612,32832
8613,33216
8614,33472
8615,33664
8616,33856
8617,33920
8618,33856
8619,33728
8620,33664
8621,33600
8622,33472
8623,33472
8624,33408
8625,33472
8626,33472
8627,33408
8628,33344
8629,33344
8630,33344
8631,33344
8632,33344
8633,33408
8634,33472
8635,33408
8636,33472
8637,33536
8638,33664
8639,33600
8640,33600
8641,33664
8642,33728
8643,33792
8644,33856
8645,33920
8646,34048
8647,34112
8648,34240
8649,34304
8650,34304
8651,34304
8652,34304
8653,34304
8654,34240
8655,34240
8656,34176
8657,34112
8658,34112
8659,33984
8660,33856
8661,33792
8662,33728
8663,33600
8664,33472
8665,33408
8666,33344
8667,33280
8668,33280
8669,33216
8670,33216
8671,33216
8672,33216
8673,33152
8674,33216
8675,33280
8676,33344
8677,33344
8678,33408
8679,33472
8680,33408
8681,33408
8682,33408
8683,33472
8684,33472
8685,33472
8686,33472
8687,33536
8688,33536
8689,33536
8690,33536
8691,33600
8692,33600
8693,33536
8694,33536
8695,33536
8696,33536
8697,33536
8698,33472
8699,33536
8700,33536
8701,33536
8702,33472
8703,33536
8704,33536
8705,33536
8706,33536
8707,33536
8708,33536
8709,33536
8710,33536
8711,33536
8712,33536
8713,33536
8714,33472
8715,33472
8716,33472
8717,33472
8718,33472
8719,33536
8720,33536
8721,33600
8722,33536
8723,33600
8724,33600
8725,33600
8726,33664
8727,33600
8728,33600
8729,33536
8730,33536
8731,33536
8732,33472
8733,33472
8734,33472
8735,33472
8736,33472
8737,33536
8738,33600
8739,33600
8740,33600
8741,33600
8742,33600
8743,33600
8744,33664
8745,33664
8746,33664
8747,33664
8748,33600
8749,33600
8750,33664
8751,33664
8752,33728
8753,33792
8754,33920
8755,33920
8756,33920
8757,33920
8758,33984
8759,34048
8760,34112
8761,34176
8762,34240
8763,34368
8764,34432
8765,34432
8766,34368
8767,34304
8768,34112
8769,33792
8770,33600
8771,33408
8772,33280
8773,33152
8774,33088
8775,33152
8776,33216
8777,33280
8778,33344
8779,33344
8780,33344
8781,33216
8782,33152
8783,33024
8784,32768
8785,32704
8786,32896
8787,33600
8788,35072
8789,37312
8790,40000
8791,43008
8792,45952
8793,47936
8794,47936
8795,45568
8796,41152
8797,36224
8798,32384
8799,28608
8800,27264
8801,26368
8802,26368
8803,26944
8804,27968
8805,28736
8806,29568
8807,30464
8808,31296
8809,31872
8810,32448
8811,32896
8812,33216
8813,33408
8814,33472
8815,33472
8816,33472
8817,33408
8818,33408
8819,33344
8820,33280
8821,33216
8822,33088
8823,33024
8824,33088
8825,33024
8826,33024
8827,32960
8828,32960
8829,33024
8830,33088
8831,33152
8832,33216
8833,33216
8834,33280
8835,33280
8836,33344
8837,33408
8838,33472
8839,33600
8840,33600
8841,33664
8842,33728
8843,33728
8844,33792
8845,33856
8846,33984
8847,33984
8848,34048
8849,34048
8850,34048
8851,33984
8852,33984
8853,33984
8854,33920
8855,33856
8856,33856
8857,33728
8858,33664
8859,33600
8860,33536
8861,33472
8862,33472
8863,33408
8864,33344
8865,33280
8866,33280
8867,33216
8868,33216
8869,33216
8870,33216
8871,33280
8872,33280
8873,33344
8874,33408
8875,33472
8876,33536
8877,33536
8878,33536
8879,33536
8880,33536
8881,33536
8882,33536
8883,33536
8884,33536
8885,33536
8886,33536
8887,33536
8888,33536
8889,33536
8890,33536
8891,33600
8892,33664
8893,33664
8894,33600
8895,33600
8896,33600
8897,33600
8898,33600
8899,33664
8900,33664
8901,33664
8902,33728
8903,33728
8904,33728
8905,33728
8906,33664
8907,33664
8908,33600
8909,33664
8910,33600
8911,33600
8912,33536
8913,33536
8914,33600
8915,33600
8916,33664
8917,33728
8918,33664
8919,33664
8920,33664
8921,33664
8922,33664
8923,33600
8924,33664
8925,33600
8926,33600
8927,33536
8928,33600
8929,33728
8930,33856
8931,33920
8932,33920
8933,33920
8934,33920
8935,33984
8936,34048
8937,34176
8938,34240
8939,34368
8940,34368
8941,34432
8942,34496
8943,34432
8944,34240
8945,34112
8946,33984
8947,33728
8948,33536
8949,33344
8950,33280
8951,33216
8952,33216
8953,33280
8954,33344
8955,33472
8956,33472
8957,33536
8958,33536
8959,33600
8960,33536
8961,33408
8962,33280
8963,33280
8964,33728
8965,34688
8966,36288
8967,38528
8968,41152
8969,43904
8970,46208
8971,46976
8972,45504
8973,42176
8974,37056
8975,33728
8976,30912
8977,28928
8978,27840
8979,27456
8980,27712
8981,28352
8982,29248
8983,30144
8984,30848
8985,31552
8986,32192
8987,32704
8988,33152
8989,33472
8990,33664
8991,33792
8992,33792
8993,33792
8994,33728
8995,33664
8996,33600
8997,33536
8998,33536
8999,33536
9000,33600
9001,33664
9002,33728
9003,33664
9004,33600
9005,33600
9006,33472
9007,33472
9008,33472
9009,33472
9010,33472
9011,33536
9012,33536
9013,33536
9014,33600
9015,33600
9016,33664
9017,33664
9018,33728
9019,33856
9020,33984
9021,34048
9022,34112
9023,34176
9024,34240
9025,34304
9026,34432
9027,34496
9028,34432
9029,34496
9030,34496
9031,34496
9032,34368
9033,34304
9034,34240
9035,34176
9036,34112
9037,33984
9038,33920
9039,33792
9040,33728
9041,33600
9042,33536
9043,33472
9044,33472
9045,33536
9046,33600
9047,33600
9048,33664
9049,33792
9050,33920
9051,33920
9052,33920
9053,33792
9054,33728
9055,33728
9056,33664
9057,33664
9058,33600
9059,33536
9060,33472
9061,33408
9062,33408
9063,33408
9064,33408
9065,33344
9066,33344
9067,33408
9068,33408
9069,33408
9070,33408
9071,33344
9072,33280
9073,33088
9074,33024
9075,33088
9076,33088
9077,32960
9078,32896
9079,32832
9080,32832
9081,32768
9082,32640
9083,32512
9084,32320
9085,32064
9086,31680
9087,31168
9088,30400
9089,29376
9090,28032
9091,26944
9092,26432
9093,25984
9094,25536
9095,25152
9096,25216
9097,25856
9098,26752
9099,27648
9100,27840
9101,27968
9102,27904
9103,27712
9104,27328
9105,27392
9106,28160
9107,29248
9108,30464
9109,31616
9110,32576
9111,33344
9112,33920
9113,34304
9114,34560
9115,34560
9116,34432
9117,34304
9118,34176
9119,34048
9120,33920
9121,33728
9122,33472
9123,33152
9124,33024
9125,33408
9126,34240
9127,35712
9128,37824
9129,40512
9130,43584
9131,46656
9132,48896
9133,49280
9134,47104
9135,43200
9136,38400
9137,34240
9138,31296
9139,29440
9140,28608
9141,28544
9142,29184
9143,30080
9144,31040
9145,32000
9146,32896
9147,33792
9148,34432
9149,34944
9150,35264
9151,35648
9152,35904
9153,36032
9154,36160
9155,36160
9156,36224
9157,36160
9158,35968
9159,35840
9160,35776
9161,35776
9162,35840
9163,36032
9164,36288
9165,36544
9166,36864
9167,37376
9168,37888
9169,38272
9170,38208
9171,37888
9172,37376
9173,36736
9174,36224
9175,35840
9176,35520
9177,35264
9178,35008
9179,34880
9180,34752
9181,34560
9182,34368
9183,34112
9184,34048
9185,33984
9186,33920
9187,33856
9188,33856
9189,33856
9190,33984
9191,34048
9192,33984
9193,33728
9194,33280
9195,32896
9196,32640
9197,32704
9198,32960
9199,33280
9200,33536
9201,33728
9202,33920
9203,34112
9204,34240
9205,34496
9206,34624
9207,34688
9208,34944
9209,35200
9210,35200
9211,34752
9212,33920
9213,32960
9214,31872
9215,30848
9216,29952
9217,29376
9218,29056
9219,28928
9220,28992
9221,29376
9222,30016
9223,30720
9224,31424
9225,32128
9226,32896
9227,33600
9228,34304
9229,35136
9230,36032
9231,36928
9232,37824
9233,38848
9234,39808
9235,40704
9236,41408
9237,41984
9238,42368
9239,42560
9240,42496
9241,42304
9242,41984
9243,41536
9244,41024
9245,40576
9246,40064
9247,39680
9248,39296
9249,38976
9250,38720
9251,38592
9252,38400
9253,38336
9254,38208
9255,38016
9256,37888
9257,37824
9258,37824
9259,38080
9260,38208
9261,38272
9262,38272
9263,38272
9264,38336
9265,38336
9266,38272
9267,38144
9268,38080
9269,38016
9270,37952
9271,37888
9272,37824
9273,37696
9274,37376
9275,37120
9276,36928
9277,36736
9278,36416
9279,36096
9280,35776
9281,35392
9282,35072
9283,34816
9284,34752
9285,34752
9286,34752
9287,34816
9288,34752
9289,34752
9290,34688
9291,34496
9292,34304
9293,34048
9294,34048
9295,34432
9296,35456
9297,37312
9298,39744
9299,42496
9300,45376
9301,47936
9302,49024
9303,47808
9304,44480
9305,39936
9306,35392
9307,31552
9308,28928
9309,27584
9310,27328
9311,27712
9312,28544
9313,29504
9314,30592
9315,31616
9316,32640
9317,33536
9318,34368
9319,34944
9320,35264
9321,35456
9322,35584
9323,35520
9324,35456
9325,35520
9326,35648
9327,35776
9328,35648
9329,35456
9330,35136
9331,34624
9332,34048
9333,33472
9334,32832
9335,32128
9336,31360
9337,30592
9338,29824
9339,29248
9340,28864
9341,28864
9342,29120
9343,29376
9344,29632
9345,29696
9346,29952
9347,30336
9348,30656
9349,30784
9350,30784
9351,30784
9352,30784
9353,30720
9354,30656
9355,30720
9356,30720
9357,30592
9358,30656
9359,30848
9360,30976
9361,31168
9362,31296
9363,31424
9364,31552
9365,31552
9366,31552
9367,31552
9368,31360
9369,31104
9370,30912
9371,30784
9372,30720
9373,30656
9374,30592
9375,30592
9376,30656
9377,30720
9378,30720
9379,30784
9380,30912
9381,31040
9382,31168
9383,31296
9384,31360
9385,31424
9386,31552
9387,31680
9388,31872
9389,32000
9390,32192
9391,32320
9392,32384
9393,32448
9394,32448
9395,32448
9396,32448
9397,32448
9398,32448
9399,32256
9400,32128
9401,32000
9402,31808
9403,31616
9404,31424
9405,31360
9406,31616
9407,31936
9408,32256
9409,32576
9410,32832
9411,33152
9412,33408
9413,33536
9414,33472
9415,33408
9416,33344
9417,33216
9418,32960
9419,32704
9420,32640
9421,32640
9422,32576
9423,32512
9424,32576
9425,32640
9426,32704
9427,32768
9428,32832
9429,32896
9430,32960
9431,33024
9432,33024
9433,33088
9434,33152
9435,33152
9436,33152
9437,33216
9438,33344
9439,33472
9440,33600
9441,33664
9442,33664
9443,33472
9444,33088
9445,32576
9446,32192
9447,31872
9448,31680
9449,31552
9450,31488
9451,31552
9452,31680
9453,31872
9454,32128
9455,32320
9456,32448
9457,32448
9458,32448
9459,32256
9460,31936
9461,31488
9462,31168
9463,31104
9464,31808
9465,32832
9466,34752
9467,37312
9468,40256
9469,43456
9470,46016
9471,47040
9472,45696
9473,42112
9474,37312
9475,32512
9476,28736
9477,26176
9478,24960
9479,24896
9480,25536
9481,26432
9482,27456
9483,28544
9484,29632
9485,30656
9486,31488
9487,32128
9488,32704
9489,33152
9490,33472
9491,33664
9492,33792
9493,33856
9494,33856
9495,33792
9496,33792
9497,33792
9498,33792
9499,33728
9500,33728
9501,33728
9502,33728
9503,33792
9504,33792
9505,33728
9506,33728
9507,33728
9508,33728
9509,33792
9510,33792
9511,33792
9512,33792
9513,33728
9514,33728
9515,33728
9516,33728
9517,33856
9518,33856
9519,33984
9520,34048
9521,34240
9522,34304
9523,34368
9524,34432
9525,34496
9526,34496
9527,34432
9528,34368
9529,34368
9530,34304
9531,34176
9532,34048
9533,33920
9534,33856
9535,33792
9536,33664
9537,33664
9538,33664
9539,33664
9540,33600
9541,33408
9542,33216
9543,33024
9544,32896
9545,32832
9546,32768
9547,32640
9548,32512
9549,32448
9550,32448
9551,32576
9552,32640
9553,32768
9554,32960
9555,33024
9556,33088
9557,33088
9558,33152
9559,33152
9560,33152
9561,33088
9562,33024
9563,32960
9564,32960
9565,33024
9566,33024
9567,33088
9568,33088
9569,33152
9570,33216
9571,33280
9572,33344
9573,33344
9574,33344
9575,33408
9576,33344
9577,33344
9578,33344
9579,33344
9580,33344
9581,33344
9582,33280
9583,33344
9584,33408
9585,33472
9586,33536
9587,33600
9588,33664
9589,33728
9590,33728
9591,33792
9592,33856
9593,33920
9594,33920
9595,33920
9596,33856
9597,33856
9598,33856
9599,33792
9600,33856
9601,33920
9602,34048
9603,34112
9604,34240
9605,34304
9606,34368
9607,34432
9608,34560
9609,34688
9610,34816
9611,34880
9612,34944
9613,35008
9614,35008
9615,35072
9616,35136
9617,35264
9618,35328
9619,35328
9620,35328
9621,35264
9622,35136
9623,34880
9624,34688
9625,34496
9626,34304
9627,34176
9628,34048
9629,33920
9630,33920
9631,33856
9632,33856
9633,33920
9634,33984
9635,34048
9636,34048
9637,34048
9638,33920
9639,33664
9640,33472
9641,33472
9642,33984
9643,34944
9644,37376
9645,39296
9646,42176
9647,45440
9648,48320
9649,49792
9650,49024
9651,45952
9652,41344
9653,36480
9654,32384
9655,29504
9656,27968
9657,27584
9658,27904
9659,28864
9660,29568
9661,30464
9662,31360
9663,32256
9664,32960
9665,33536
9666,33984
9667,34368
9668,34624
9669,34752
9670,34816
9671,34816
9672,34816
9673,34752
9674,34752
9675,34688
9676,34688
9677,34688
9678,34688
9679,34688
9680,34688
9681,34688
9682,34624
9683,34560
9684,34560
9685,34560
9686,34496
9687,34496
9688,34496
9689,34432
9690,34432
9691,34432
9692,34496
9693,34496
9694,34560
9695,34560
9696,34624
9697,34688
9698,34752
9699,34752
9700,34816
9701,34880
9702,34944
9703,34944
9704,35008
9705,35008
9706,34944
9707,34944
9708,34944
9709,34944
9710,34880
9711,34816
9712,34688
9713,34624
9714,34496
9715,34368
9716,34240
9717,34176
9718,34048
9719,33984
9720,33920
9721,33856
9722,33856
9723,33728
9724,33664
9725,33664
9726,33728
9727,33728
9728,33792
9729,33920
9730,33920
9731,33984
9732,33984
9733,34048
9734,34112
9735,34112
9736,34112
9737,34176
9738,34240
9739,34240
9740,34176
9741,34176
9742,34240
9743,34176
9744,34176
9745,34112
9746,34112
9747,34112
9748,34048
9749,34048
9750,33984
9751,34048
9752,33984
9753,33984
9754,33984
9755,33920
9756,33856
9757,33856
9758,33856
9759,33856
9760,33792
9761,33856
9762,33856
9763,33856
9764,33792
9765,33792
9766,33792
9767,33856
9768,33856
9769,33792
9770,33792
9771,33856
9772,33920
9773,33920
9774,33920
9775,33920
9776,33920
9777,33856
9778,33792
9779,33728
9780,33664
9781,33664
9782,33664
9783,33728
9784,33792
9785,33792
9786,33792
9787,33792
9788,33856
9789,33856
9790,33856
9791,33856
9792,33856
9793,33984
9794,34048
9795,34112
9796,34176
9797,34176
9798,34112
9799,34176
9800,34240
9801,34304
9802,34304
9803,34368
9804,34432
9805,34560
9806,34560
9807,34432
9808,34240
9809,34112
9810,33920
9811,33728
9812,33600
9813,33472
9814,33408
9815,33344
9816,33344
9817,33344
9818,33408
9819,33472
9820,33472
9821,33536
9822,33600
9823,33472
9824,33280
9825,33088
9826,32896
9827,32960
9828,33600
9829,35008
9830,37120
9831,39680
9832,42688
9833,45824
9834,48128
9835,48576
9836,46656
9837,42752
9838,37888
9839,33344
9840,29824
9841,27648
9842,26688
9843,26688
9844,27200
9845,28032
9846,28992
9847,29952
9848,30848
9849,31872
9850,32384
9851,32896
9852,33344
9853,33536
9854,33792
9855,33920
9856,33920
9857,33920
9858,33856
9859,33792
9860,33728
9861,33600
9862,33536
9863,33472
9864,33472
9865,33408
9866,33472
9867,33472
9868,33536
9869,33472
9870,33472
9871,33600
9872,33600
9873,33600
9874,33664
9875,33728
9876,33792
9877,33856
9878,33920
9879,33920
9880,33984
9881,34048
9882,33984
9883,34240
9884,34176
9885,34240
9886,34304
9887,34304
9888,34432
9889,34368
9890,34432
9891,34496
9892,34496
9893,34560
9894,34496
9895,34496
9896,34496
9897,34432
9898,34304
9899,34240
9900,34176
9901,34048
9902,33984
9903,33856
9904,33792
9905,33792
9906,33664
9907,33664
9908,33664
9909,33600
9910,33600
9911,33536
9912,33600
9913,33664
9914,33664
9915,33728
9916,33792
9917,33728
9918,33856
9919,33792
9920,33856
9921,33984
9922,33984
9923,33984
9924,33920
9925,33920
9926,33984
9927,33984
9928,33984
9929,34048
9930,34048
9931,33984
9932,34048
9933,34112
9934,33984
9935,33856
9936,33792
9937,33856
9938,33856
9939,33792
9940,33856
9941,33920
9942,33920
9943,33920
9944,33920
9945,33920
9946,33984
9947,33920
9948,33920
9949,33984
9950,33984
9951,33920
9952,33920
9953,33920
9954,33920
9955,33920
9956,33920
9957,33920
9958,33984
9959,33920
9960,33920
9961,33920
9962,33920
9963,33984
9964,33984
9965,33920
9966,33984
9967,34048
9968,34048
9969,34112
9970,34176
9971,34240
9972,34240
9973,34304
9974,34304
9975,34496
9976,34496
9977,34560
9978,34624
9979,34752
9980,34816
9981,34816
9982,34688
9983,34560
9984,34304
9985,34112
9986,33984
9987,33856
9988,33664
9989,33600
9990,33472
9991,33472
9992,33536
9993,33600
9994,33600
9995,33664
9996,33728
9997,33728
9998,33664
9999,33536
10000,33280
10001,33024
10002,33088
10003,33600
10004,34752
10005,36672
10006,39232
10007,42112
10008,45248
10009,47808
10010,48704
10011,47296
10012,43776
10013,39040
10014,34432
10015,30784
10016,28288
10017,27008
10018,26752
10019,27200
10020,28032
10021,29120
10022,29120
10023,30784
10024,31616
10025,32320
10026,32896
10027,33344
10028,33664
10029,33920
10030,33984
10031,33984
10032,33984
10033,34048
10034,33984
10035,33856
10036,33792
10037,33728
10038,33664
10039,33600
10040,33600
10041,33600
10042,33600
10043,33600
10044,33536
10045,33600
10046,33600
10047,33664
10048,33728
10049,33664
10050,33728
10051,33728
10052,33792
10053,33856
10054,33920
10055,33920
10056,33920
10057,33984
10058,34048
10059,34112
10060,34176
10061,34240
10062,34368
10063,34432
10064,34432
10065,34496
10066,34496
10067,34560
10068,34560
10069,34496
10070,34560
10071,34496
10072,34432
10073,34368
10074,34304
10075,34240
10076,34112
10077,33984
10078,33920
10079,33856
10080,33728
10081,33664
10082,33664
10083,33664
10084,33600
10085,33600
10086,33600
10087,33664
10088,33728
10089,33664
10090,33728
10091,33792
10092,33856
10093,33856
10094,33856
10095,33920
10096,33984
10097,33984
10098,33984
10099,33984
10100,33984
10101,33920
10102,33920
10103,33920
10104,33984
10105,33984
10106,33984
10107,33920
10108,33984
10109,33920
10110,33920
10111,33920
10112,33984
10113,33984
10114,33984
10115,33984
10116,33984
10117,33984
10118,33984
10119,33984
10120,33984
10121,33984
10122,33920
10123,33920
10124,33920
10125,33920
10126,33984
10127,33984
10128,33984
10129,33984
10130,33984
10131,33984
10132,33984
10133,34048
10134,34048
10135,34048
10136,34048
10137,33984
10138,34048
10139,33984
10140,33984
10141,33984
10142,34048
10143,33984
10144,33984
10145,33984
10146,34048
10147,34048
10148,34176
10149,34240
10150,34368
10151,34368
10152,34432
10153,34496
10154,34496
10155,34560
10156,34560
10157,34624
10158,34688
10159,34752
10160,34816
10161,34752
10162,34624
10163,34496
10164,34240
10165,34112
10166,33920
10167,33792
10168,33664
10169,33536
10170,33536
10171,33536
10172,33600
10173,33600
10174,33664
10175,33792
10176,33792
10177,33728
10178,33664
10179,33472
10180,33216
10181,33088
10182,33408
10183,34368
10184,35968
10185,38208
10186,40960
10187,44096
10188,46976
10189,48576
10190,48128
10191,45376
10192,41024
10193,36224
10194,32192
10195,29248
10196,27520
10197,26880
10198,27072
10199,27776
10200,28672
10201,29632
10202,30528
10203,31424
10204,32192
10205,32768
10206,33280
10207,33600
10208,33920
10209,34048
10210,34048
10211,34112
10212,34112
10213,34048
10214,33984
10215,33920
10216,33856
10217,33792
10218,33728
10219,33664
10220,33664
10221,33664
10222,33664
10223,33664
10224,33664
10225,33728
10226,33728
10227,33728
10228,33728
10229,33792
10230,33856
10231,33856
10232,33856
10233,33984
10234,34048
10235,34048
10236,34112
10237,34176
10238,34240
10239,34240
10240,34304
10241,34368
10242,34432
10243,34432
10244,34496
10245,34496
10246,34560
10247,34560
10248,34560
10249,34560
10250,34560
10251,34560
10252,34432
10253,34368
10254,34368
10255,34368
10256,34240
10257,34112
10258,34048
10259,33920
10260,33792
10261,33728
10262,33664
10263,33664
10264,33664
10265,33600
10266,33664
10267,33664
10268,33728
10269,33728
10270,33792
10271,33856
10272,33856
10273,33856
10274,33920
10275,33984
10276,33984
10277,33984
10278,33984
10279,33984
10280,33984
10281,33984
10282,33984
10283,33984
10284,33984
10285,33984
10286,33984
10287,33984
10288,33984
10289,33984
10290,33984
10291,33984
10292,33920
10293,33856
10294,33792
10295,33856
10296,33856
10297,33856
10298,33856
10299,33856
10300,33856
10301,33856
10302,33856
10303,33856
10304,33920
10305,33920
10306,33920
10307,33920
10308,33984
10309,33984
10310,33920
10311,33920
10312,33920
10313,33920
10314,33920
10315,33856
10316,33920
10317,33920
10318,33920
10319,33920
10320,33920
10321,33920
10322,33920
10323,33920
10324,33920
10325,34048
10326,34176
10327,34176
10328,34240
10329,34368
10330,34368
10331,34432
10332,34496
10333,34560
10334,34624
10335,34624
10336,34752
10337,34752
10338,34752
10339,34560
10340,34368
10341,34176
10342,34048
10343,33856
10344,33728
10345,33600
10346,33600
10347,33472
10348,33472
10349,33536
10350,33600
10351,33664
10352,33664
10353,33728
10354,33728
10355,33600
10356,33408
10357,33152
10358,33088
10359,33600
10360,33536
10361,35776
10362,37952
10363,40640
10364,43648
10365,46656
10366,48192
10367,47808
10368,45120
10369,40832
10370,36224
10371,32384
10372,29568
10373,27776
10374,27072
10375,27136
10376,27776
10377,28672
10378,29568
10379,30464
10380,31296
10381,32064
10382,32640
10383,33152
10384,33536
10385,33856
10386,33984
10387,34048
10388,34112
10389,34048
10390,33984
10391,33920
10392,33856
10393,33792
10394,33664
10395,33664
10396,33664
10397,33600
10398,33600
10399,33600
10400,33600
10401,33600
10402,33600
10403,33600
10404,33664
10405,33728
10406,33728
10407,33728
10408,33792
10409,33856
10410,33856
10411,33920
10412,33920
10413,33984
10414,34048
10415,34112
10416,34240
10417,34240
10418,34240
10419,34240
10420,34368
10421,34432
10422,34496
10423,34432
10424,34496
10425,34496
10426,34496
10427,34496
10428,34496
10429,34432
10430,34432
10431,34304
10432,34240
10433,34112
10434,34048
10435,33920
10436,33856
10437,33792
10438,33728
10439,33728
10440,33664
10441,33600
10442,33600
10443,33664
10444,33664
10445,33664
10446,33728
10447,33728
10448,33728
10449,33792
10450,33856
10451,33856
10452,33856
10453,33856
10454,33856
10455,33920
10456,33856
10457,33856
10458,33920
10459,33856
10460,33856
10461,33856
10462,33856
10463,33920
10464,33920
10465,33920
10466,33920
10467,33920
10468,33920
10469,33856
10470,33856
10471,33920
10472,33920
10473,33856
10474,33856
10475,33920
10476,33920
10477,33856
10478,33856
10479,33856
10480,33920
10481,33856
10482,33856
10483,33920
10484,33920
10485,33920
10486,33920
10487,33856
10488,33856
10489,33792
10490,33792
10491,33792
10492,33856
10493,33856
10494,33856
10495,33856
10496,33920
10497,33984
10498,34048
10499,34112
10500,34176
10501,34240
10502,34240
10503,34304
10504,34368
10505,34496
10506,34496
10507,34496
10508,34560
10509,34688
10510,34688
10511,34560
10512,34496
10513,34368
10514,34176
10515,33920
10516,33792
10517,33664
10518,33536
10519,33472
10520,33408
10521,33472
10522,33536
10523,33536
10524,33600
10525,33728
10526,33728
10527,33728
10528,33600
10529,33472
10530,33280
10531,33280
10532,33664
10533,34624
10534,36352
10535,38656
10536,41408
10537,44416
10538,47424
10539,48128
10540,47104
10541,43904
10542,39424
10543,34944
10544,31488
10545,29120
10546,27712
10547,27136
10548,27264
10549,27968
10550,28864
10551,29760
10552,30656
10553,31424
10554,32128
10555,32704
10556,33152
10557,33472
10558,33728
10559,33920
10560,33984
10561,33920
10562,33920
10563,33920
10564,33856
10565,33792
10566,33728
10567,33664
10568,33664
10569,33536
10570,33536
10571,33536
10572,33536
10573,33536
10574,33536
10575,33536
10576,33600
10577,33600
10578,33664
10579,33664
10580,33728
10581,33664
10582,33728
10583,33792
10584,33792
10585,33792
10586,33856
10587,33920
10588,33984
10589,34048
10590,34112
10591,34112
10592,34176
10593,34240
10594,34240
10595,34304
10596,34368
10597,34368
10598,34368
10599,34368
10600,34432
10601,34368
10602,34304
10603,34304
10604,34240
10605,34176
10606,34112
10607,33984
10608,33920
10609,33856
10610,33792
10611,33728
10612,33728
10613,33728
10614,33664
10615,33600
10616,33664
10617,33664
10618,33664
10619,33664
10620,33664
10621,33792
10622,33792
10623,33792
10624,33792
10625,33856
10626,33856
10627,33856
10628,33792
10629,33856
10630,33856
10631,33856
10632,33856
10633,33856
10634,33856
10635,33856
10636,33856
10637,33856
10638,33920
10639,33856
10640,33792
10641,33856
10642,33856
10643,33856
10644,33856
10645,33856
10646,33856
10647,33856
10648,33856
10649,33856
10650,33856
10651,33856
10652,33792
10653,33792
10654,33792
10655,33792
10656,33792
10657,33792
10658,33856
10659,33856
10660,33856
10661,33856
10662,33856
10663,33856
10664,33856
10665,33856
10666,33856
10667,33920
10668,33920
10669,33920
10670,33984
10671,34112
10672,34112
10673,34176
10674,34176
10675,34240
10676,34368
10677,34304
10678,34304
10679,34432
10680,34496
10681,34560
10682,34624
10683,34688
10684,34624
10685,34496
10686,34304
10687,34048
10688,33920
10689,33792
10690,33600
10691,33472
10692,33472
10693,33408
10694,33408
10695,33472
10696,33536
10697,33600
10698,33600
10699,33664
10700,33600
10701,33472
10702,33216
10703,32896
10704,32960
10705,33472
10706,34560
10707,36544
10708,38848
10709,41728
10710,44864
10711,47488
10712,48576
10713,47488
10714,44096
10715,39424
10716,34816
10717,31104
10718,28416
10719,27136
10720,26752
10721,27136
10722,28224
10723,28800
10724,29696
10725,30592
10726,31424
10727,32128
10728,32704
10729,33152
10730,33472
10731,33664
10732,33792
10733,33920
10734,33920
10735,33920
10736,33856
10737,33856
10738,33792
10739,33664
10740,33536
10741,33536
10742,33536
10743,33472
10744,33472
10745,33472
10746,33472
10747,33536
10748,33536
10749,33536
10750,33600
10751,33664
10752,33600
10753,33600
10754,33600
10755,33728
10756,33728
10757,33792
10758,33856
10759,33920
10760,33920
10761,33984
10762,34112
10763,34112
10764,34176
10765,34176
10766,34176
10767,34304
10768,34304
10769,34368
10770,34368
10771,34368
10772,34432
10773,34304
10774,34240
10775,34240
10776,34176
10777,34112
10778,34048
10779,33984
10780,33920
10781,33792
10782,33728
10783,33664
10784,33600
10785,33536
10786,33472
10787,33536
10788,33536
10789,33536
10790,33536
10791,33600
10792,33664
10793,33728
10794,33728
10795,33728
10796,33728
10797,33792
10798,33792
10799,33792
10800,33856
10801,33920
10802,33920
10803,33856
10804,33920
10805,33920
10806,33856
10807,33856
10808,33792
10809,33792
10810,33792
10811,33728
10812,33728
10813,33792
10814,33792
10815,33728
10816,33792
10817,33856
10818,33856
10819,33856
10820,33856
10821,33856
10822,33856
10823,33856
10824,33792
10825,33792
10826,33792
10827,33728
10828,33728
10829,33792
10830,33856
10831,33856
10832,33792
10833,33792
10834,33792
10835,33792
10836,33792
10837,33792
10838,33856
10839,33856
10840,33856
10841,33920
10842,34048
10843,34112
10844,34176
10845,34176
10846,34304
10847,34368
10848,34368
10849,34368
10850,34432
10851,34496
10852,34560
10853,34624
10854,34688
10855,34624
10856,34496
10857,34240
10858,34112
10859,33920
10860,33728
10861,33536
10862,33472
10863,33408
10864,33408
10865,33344
10866,33408
10867,33472
10868,33536
10869,33536
10870,33536
10871,33600
10872,33536
10873,33280
10874,33024
10875,32896
10876,33216
10877,33984
10878,35584
10879,37824
10880,40576
10881,43712
10882,46656
10883,48448
10884,48192
10885,45504
10886,41152
10887,36352
10888,32256
10889,29184
10890,27392
10891,26752
10892,26944
10893,27648
10894,28480
10895,29376
10896,30272
10897,31168
10898,31872
10899,32448
10900,33024
10901,33408
10902,33664
10903,33792
10904,33920
10905,33984
10906,33920
10907,33856
10908,33792
10909,33728
10910,33664
10911,33600
10912,33536
10913,33536
10914,33536
10915,33472
10916,33472
10917,33472
10918,33472
10919,33472
10920,33472
10921,33536
10922,33600
10923,33600
10924,33664
