,ECG
0,35456
1,35648
2,35584
3,35520
4,35648
5,35968
6,36096
7,35648
8,35200
9,34880
10,34688
11,34560
12,34752
13,34944
14,35200
15,35584
16,35712
17,35904
18,36032
19,36160
20,36544
21,37120
22,38016
23,39424
24,41216
25,42752
26,42816
27,41152
28,38208
29,34944
30,32320
31,30528
32,29696
33,29760
34,30464
35,31424
36,32576
37,33600
38,34496
39,35136
40,35456
41,35584
42,35712
43,35840
44,35776
45,35584
46,35520
47,35456
48,35264
49,35136
50,35072
51,34880
52,34688
53,34432
54,34496
55,34688
56,35008
57,35328
58,35264
59,35136
60,35136
61,35136
62,35008
63,35072
64,35136
65,35072
66,35200
67,35264
68,35200
69,34944
70,34944
71,35072
72,35264
73,35392
74,35520
75,35456
76,35456
77,35904
78,35648
79,35072
80,34688
81,34688
82,34816
83,34880
84,34944
85,35008
86,34816
87,34496
88,34304
89,34368
90,34368
91,34304
92,34240
93,34176
94,34048
95,33920
96,33792
97,33664
98,33536
99,33600
100,33792
101,33920
102,33792
103,33600
104,33664
105,33856
106,33664
107,33536
108,33536
109,33472
110,33408
111,33664
112,33984
113,34176
114,34112
115,33792
116,33536
117,33536
118,33600
119,33792
120,33792
121,34176
122,34240
123,34240
124,34304
125,34240
126,34176
127,34048
128,34048
129,33984
130,33728
131,33664
132,33792
133,33792
134,33664
135,33600
136,33600
137,33728
138,33792
139,33728
140,33792
141,33792
142,33920
143,33984
144,34176
145,34368
146,34304
147,33920
148,33600
149,33600
150,33536
151,33792
152,34048
153,33920
154,33344
155,33216
156,32896
157,33024
158,33280
159,33536
160,33728
161,33856
162,34048
163,34176
164,34368
165,34304
166,34624
167,34624
168,34240
169,33792
170,33536
171,33536
172,33664
173,33664
174,33600
175,33536
176,33536
177,33472
178,33472
179,33920
180,33920
181,34624
182,34624
183,34112
184,33472
185,33152
186,33152
187,33408
188,33536
189,33600
190,33664
191,33792
192,33920
193,33856
194,33600
195,33344
196,33280
197,33408
198,33472
199,33536
200,33792
201,33920
202,33856
203,33856
204,33856
205,33984
206,34176
207,33920
208,33600
209,34304
210,34368
211,35520
212,36864
213,38720
214,40768
215,42048
216,41600
217,39040
218,35200
219,31680
220,29248
221,28096
222,28096
223,28864
224,30016
225,30016
226,31552
227,32192
228,32576
229,32896
230,33152
231,33472
232,33792
233,33984
234,33920
235,33856
236,33728
237,33664
238,33600
239,33600
240,33728
241,33856
242,33984
243,33920
244,33536
245,33344
246,33280
247,33152
248,33152
249,33344
250,33472
251,33600
252,33536
253,33600
254,33920
255,33920
256,34240
257,34304
258,34368
259,34368
260,34304
261,34048
262,33984
263,33984
264,34048
265,34176
266,34368
267,34560
268,34624
269,34560
270,34496
271,34496
272,34432
273,34432
274,34560
275,34688
276,34624
277,34432
278,34240
279,33856
280,33536
281,33344
282,33280
283,33344
284,33088
285,33024
286,32576
287,32512
288,32576
289,32512
290,32448
291,32512
292,32576
293,32704
294,32768
295,32704
296,32768
297,32960
298,33152
299,33088
300,32896
301,32768
302,32768
303,32896
304,33216
305,33600
306,33920
307,33728
308,33536
309,33408
310,33216
311,32960
312,32960
313,33152
314,33344
315,33408
316,33536
317,33664
318,33728
319,33600
320,33472
321,33408
322,33408
323,33728
324,33600
325,33216
326,33024
327,33024
328,33152
329,33472
330,33600
331,33600
332,33536
333,33600
334,33536
335,33536
336,33472
337,33408
338,33280
339,33152
340,33216
341,33408
342,33600
343,33600
344,33472
345,33344
346,33280
347,33280
348,33408
349,33536
350,33600
351,33600
352,33472
353,33280
354,33152
355,33152
356,33152
357,33216
358,33344
359,33472
360,33536
361,33472
362,33408
363,33408
364,33344
365,33344
366,33536
367,33728
368,33856
369,33856
370,33792
371,33792
372,33792
373,33856
374,33856
375,33728
376,33408
377,33216
378,33216
379,33280
380,33472
381,33664
382,33792
383,33728
384,33664
385,33536
386,33600
387,33600
388,33600
389,33664
390,33856
391,34048
392,33984
393,33792
394,33536
395,33280
396,33216
397,33408
398,33856
399,34368
400,35136
401,36288
402,37696
403,39488
404,41216
405,41920
406,40896
407,38272
408,34944
409,31488
410,29312
411,28032
412,27776
413,28480
414,29504
415,30656
416,31808
417,32704
418,33280
419,33664
420,33984
421,34176
422,34240
423,34112
424,34112
425,34112
426,34048
427,33728
428,33472
429,33344
430,33408
431,33600
432,33728
433,33856
434,33920
435,33984
436,34112
437,34176
438,33984
439,33536
440,33280
441,33344
442,33664
443,33920
444,33920
445,33984
446,33984
447,33984
448,34048
449,34432
450,34688
451,34688
452,34560
453,34432
454,34496
455,34816
456,35200
457,35584
458,35456
459,34944
460,34624
461,34368
462,34176
463,33984
464,33920
465,34048
466,34240
467,34304
468,34048
469,33664
470,33472
471,33408
472,33472
473,33536
474,33408
475,33280
476,33216
477,33152
478,32960
479,32896
480,32896
481,33024
482,33152
483,33024
484,32960
485,33088
486,33152
487,32768
488,32512
489,32448
490,32640
491,32832
492,33024
493,33280
494,33536
495,33536
496,33408
497,33216
498,33152
499,33216
500,33472
501,34112
502,34816
503,34624
504,33664
505,32832
506,32512
507,32576
508,32896
509,33152
510,33152
511,33088
512,33024
513,33088
514,33088
515,33152
516,33216
517,33344
518,33472
519,33536
520,33536
521,33600
522,33792
523,34048
524,34048
525,33792
526,33472
527,33344
528,33344
529,33536
530,33600
531,33664
532,33664
533,33600
534,33600
535,33664
536,33728
537,33792
538,33856
539,33664
540,33472
541,33408
542,33600
543,33856
544,34048
545,34176
546,34432
547,34496
548,34432
549,34240
550,34112
551,34112
552,34176
553,34432
554,34560
555,34624
556,34624
557,34688
558,34752
559,34816
560,34880
561,34752
562,34624
563,34560
564,34560
565,34496
566,34560
567,34752
568,35008
569,35136
570,34944
571,34816
572,34816
573,34688
574,34624
575,34752
576,35008
577,35200
578,35200
579,35200
580,35264
581,35264
582,35264
583,35392
584,35520
585,35712
586,35840
587,35904
588,36160
589,36736
590,37504
591,38592
592,40064
593,41920
594,43584
595,43840
596,41856
597,38592
598,35456
599,32896
600,31296
601,30656
602,30912
603,31744
604,32768
605,33856
606,34688
607,35392
608,35968
609,36544
610,36864
611,36992
612,37056
613,37120
614,37120
615,37120
616,37056
617,36992
618,36928
619,36928
620,36992
621,36928
622,36992
623,37120
624,37056
625,36992
626,37056
627,37120
628,37184
629,37312
630,37504
631,37440
632,37312
633,37312
634,37312
635,37376
636,37440
637,37632
638,37952
639,38208
640,38208
641,38016
642,38016
643,38080
644,38016
645,37952
646,38016
647,38144
648,38336
649,38464
650,38528
651,38528
652,38400
653,38336
654,38336
655,38336
656,38272
657,38080
658,37952
659,37952
660,37888
661,37696
662,37184
663,36864
664,36608
665,36416
666,36416
667,36544
668,36736
669,36672
670,36544
671,36480
672,36544
673,36608
674,36544
675,36608
676,36800
677,36928
678,36864
679,36736
680,36736
681,36672
682,36864
683,37056
684,37184
685,37312
686,37312
687,37120
688,36800
689,36480
690,36160
691,35968
692,36096
693,36160
694,36096
695,36096
696,36096
697,36160
698,36224
699,36288
700,36416
701,36352
702,36480
703,36544
704,36672
705,36736
706,36800
707,36928
708,36864
709,36352
710,35968
711,35904
712,36160
713,36224
714,36032
715,35776
716,35712
717,35776
718,35840
719,35904
720,35968
721,35968
722,35968
723,35904
724,35840
725,35840
726,35840
727,35712
728,35584
729,35520
730,35712
731,35712
732,36032
733,36032
734,35776
735,35712
736,35712
737,35776
738,35840
739,35712
740,35328
741,34944
742,34560
743,34432
744,34560
745,34944
746,35328
747,35584
748,35456
749,35072
750,34688
751,34432
752,34048
753,33984
754,34176
755,34368
756,34432
757,34496
758,34688
759,34880
760,34880
761,34752
762,34624
763,34688
764,34880
765,35200
766,35712
767,36608
768,37568
769,38592
770,40256
771,41600
772,42048
773,40512
774,37440
775,33728
776,31296
777,29632
778,28864
779,28864
780,29248
781,29888
782,30848
783,31872
784,32704
785,33344
786,33344
787,33472
788,33280
789,33088
790,33152
791,33344
792,33472
793,33536
794,33664
795,33664
796,33600
797,33472
798,33728
799,34112
800,34112
801,33728
802,33152
803,32832
804,32704
805,32512
806,32448
807,32384
808,32384
809,32448
810,32576
811,32640
812,32768
813,32896
814,33088
815,33280
816,33536
817,33728
818,33792
819,33792
820,33920
821,33984
822,34240
823,34560
824,34560
825,33664
826,32896
827,32384
828,32128
829,32128
830,32256
831,32448
832,32576
833,32640
834,32704
835,32704
836,32640
837,32640
838,32576
839,32256
840,31872
841,31808
842,31744
843,31552
844,31232
845,31104
846,30784
847,30464
848,30336
849,30400
850,30592
851,30784
852,31104
853,31296
854,31360
855,31360
856,31296
857,31232
858,31296
859,31488
860,31744
861,31872
862,31808
863,31936
864,32064
865,31872
866,31680
867,31424
868,31168
869,30912
870,30784
871,30784
872,30848
873,31040
874,31232
875,31232
876,31232
877,31360
878,31424
879,31552
880,31552
881,31552
882,31680
883,31744
884,31680
885,31360
886,31168
887,31104
888,31296
889,31424
890,31168
891,31104
892,31040
893,31168
894,31360
895,31296
896,31232
897,31232
898,31360
899,31552
900,31808
901,31936
902,31936
903,31936
904,32000
905,32128
906,32192
907,32256
908,32192
909,32192
910,32064
911,32000
912,31680
913,31232
914,30912
915,30784
916,30848
917,31104
918,31296
919,31424
920,31360
921,31232
922,31040
923,30784
924,30720
925,30848
926,30848
927,31040
928,31232
929,31424
930,31616
931,31744
932,31808
933,31808
934,32000
935,32576
936,33344
937,34304
938,35392
939,36736
940,39104
941,39232
942,39168
943,37120
944,33792
945,28928
946,28480
947,26560
948,26240
949,26432
950,27136
951,28032
952,29120
953,30080
954,30720
955,31296
956,31616
957,31808
958,31808
959,31936
960,32128
961,32256
962,32384
963,32384
964,32128
965,31872
966,31744
967,31872
968,32000
969,32000
970,32000
971,32192
972,32576
973,32640
974,32448
975,32192
976,32064
977,32128
978,32064
979,31744
980,31616
981,31616
982,31872
983,32256
984,32640
985,33024
986,33280
987,33408
988,33600
989,34048
990,34048
991,33728
992,33408
993,33344
994,33600
995,33728
996,33600
997,33344
998,32960
999,32704
1000,32640
1001,32768
1002,32640
1003,32384
1004,32256
1005,32384
1006,32448
1007,32256
1008,32064
1009,32000
1010,32064
1011,32000
1012,32128
1013,32256
1014,32256
1015,31808
1016,31744
1017,31808
1018,32128
1019,32256
1020,31808
1021,31424
1022,31040
1023,30912
1024,30976
1025,31168
1026,31424
1027,31744
1028,31936
1029,32192
1030,32384
1031,32512
1032,32576
1033,32704
1034,32960
1035,32832
1036,32576
1037,32512
1038,32576
1039,32704
1040,32704
1041,32832
1042,32896
1043,32704
1044,32384
1045,32256
1046,32192
1047,32064
1048,32000
1049,32128
1050,32512
1051,32704
1052,32960
1053,33088
1054,32896
1055,32512
1056,32192
1057,32128
1058,32384
1059,32832
1060,33152
1061,33088
1062,32896
1063,32832
1064,32768
1065,32448
1066,32384
1067,32640
1068,32896
1069,33088
1070,33280
1071,33408
1072,33152
1073,32704
1074,32832
1075,33408
1076,34176
1077,34496
1078,34112
1079,33088
1080,31872
1081,31680
1082,31680
1083,32192
1084,32960
1085,32960
1086,32704
1087,32384
1088,32064
1089,31872
1090,32000
1091,32128
1092,32192
1093,32128
1094,32128
1095,32320
1096,32896
1097,33600
1098,33792
1099,33792
1100,33344
1101,32960
1102,32192
1103,31552
1104,31232
1105,31488
1106,32256
1107,33472
1108,34816
1109,36416
1110,38656
1111,40576
1112,41728
1113,41152
1114,38592
1115,34624
1116,32000
1117,29440
1118,28096
1119,27840
1120,28480
1121,29504
1122,30848
1123,32064
1124,32896
1125,33280
1126,33216
1127,33280
1128,33280
1129,33344
1130,33344
1131,33216
1132,33088
1133,33152
1134,33344
1135,33728
1136,33792
1137,33792
1138,33728
1139,33600
1140,33408
1141,33344
1142,33408
1143,33472
1144,33792
1145,34176
1146,34432
1147,34624
1148,34816
1149,34688
1150,34304
1151,34176
1152,33984
1153,33984
1154,34112
1155,34688
1156,34816
1157,34944
1158,34816
1159,34880
1160,35136
1161,35456
1162,35520
1163,35200
1164,35072
1165,35072
1166,35328
1167,35328
1168,35200
1169,35200
1170,35392
1171,35392
1172,35392
1173,35328
1174,35200
1175,35136
1176,35136
1177,35008
1178,34688
1179,34368
1180,34304
1181,34112
1182,33664
1183,33408
1184,33472
1185,33152
1186,32960
1187,32896
1188,33088
1189,33216
1190,33152
1191,33152
1192,33280
1193,33408
1194,33600
1195,33792
1196,33984
1197,34176
1198,34304
1199,34432
1200,34624
1201,34624
1202,34688
1203,34688
1204,34688
1205,34624
1206,34688
1207,34496
1208,34176
1209,33984
1210,33920
1211,33920
1212,34048
1213,34176
1214,34368
1215,34304
1216,34176
1217,34048
1218,33984
1219,34048
1220,34176
1221,34368
1222,34496
1223,34368
1224,34240
1225,34048
1226,33984
1227,33984
1228,34240
1229,34432
1230,34240
1231,33920
1232,33856
1233,33920
1234,33856
1235,34112
1236,34496
1237,34880
1238,34816
1239,34432
1240,33856
1241,33792
1242,33920
1243,34176
1244,34240
1245,34112
1246,34048
1247,33984
1248,34176
1249,34368
1250,34432
1251,34368
1252,34304
1253,34496
1254,34560
1255,33856
1256,33152
1257,32832
1258,32832
1259,33088
1260,32960
1261,32832
1262,32832
1263,32896
1264,32960
1265,33088
1266,33152
1267,33280
1268,33344
1269,33472
1270,33664
1271,33728
1272,33664
1273,33536
1274,33728
1275,34368
1276,34688
1277,35456
1278,36288
1279,37312
1280,39040
1281,40576
1282,41280
1283,40128
1284,37376
1285,33600
1286,30720
1287,28544
1288,27520
1289,27776
1290,29248
1291,29952
1292,30976
1293,31936
1294,32512
1295,33152
1296,33344
1297,33536
1298,33408
1299,33088
1300,32960
1301,33024
1302,32960
1303,32960
1304,32960
1305,33152
1306,33344
1307,33472
1308,33408
1309,33216
1310,33152
1311,33216
1312,33600
1313,33792
1314,33408
1315,32896
1316,32768
1317,32960
1318,33216
1319,33664
1320,33728
1321,33408
1322,33216
1323,33280
1324,33344
1325,33408
1326,33472
1327,33536
1328,33536
1329,33664
1330,34240
1331,34496
1332,35008
1333,35008
1334,34816
1335,34624
1336,34176
1337,33920
1338,33792
1339,33728
1340,33664
1341,33792
1342,33984
1343,34112
1344,34112
1345,33920
1346,33792
1347,33728
1348,33472
1349,33408
1350,33408
1351,33280
1352,33088
1353,33024
1354,33216
1355,33344
1356,33024
1357,32256
1358,31616
1359,31424
1360,31744
1361,31936
1362,32128
1363,32256
1364,32448
1365,32640
1366,32704
1367,32832
1368,32896
1369,32832
1370,32704
1371,32704
1372,32896
1373,33152
1374,33408
1375,33664
1376,33408
1377,32960
1378,32576
1379,32448
1380,32384
1381,32384
1382,32384
1383,32384
1384,32640
1385,33088
1386,33280
1387,33344
1388,33088
1389,32896
1390,32768
1391,32832
1392,32832
1393,32768
1394,32704
1395,32640
1396,32768
1397,32896
1398,33024
1399,32896
1400,32704
1401,32640
1402,32768
1403,32832
1404,32896
1405,32960
1406,32960
1407,33088
1408,33344
1409,33792
1410,33856
1411,33536
1412,33216
1413,32896
1414,32576
1415,32576
1416,32896
1417,32896
1418,32896
1419,33088
1420,33280
1421,33344
1422,33344
1423,33088
1424,32704
1425,32320
1426,32128
1427,32064
1428,32064
1429,32192
1430,32512
1431,33024
1432,33344
1433,33280
1434,32960
1435,32832
1436,32704
1437,32512
1438,32384
1439,32576
1440,32832
1441,32896
1442,32768
1443,32576
1444,32512
1445,32640
1446,32896
1447,33536
1448,34368
1449,35520
1450,36992
1451,38848
1452,40320
1453,40448
1454,38592
1455,35904
1456,32768
1457,30144
1458,28544
1459,27968
1460,28224
1461,28864
1462,29824
1463,30784
1464,31552
1465,32256
1466,32768
1467,33024
1468,33024
1469,32896
1470,32896
1471,32896
1472,32960
1473,33088
1474,33152
1475,33216
1476,33344
1477,33472
1478,33600
1479,33664
1480,33664
1481,33792
1482,34176
1483,34624
1484,34368
1485,33472
1486,33024
1487,32960
1488,32576
1489,32128
1490,31936
1491,32064
1492,32448
1493,32576
1494,32576
1495,32448
1496,32640
1497,33280
1498,34048
1499,34688
1500,34560
1501,34112
1502,33856
1503,34048
1504,34496
1505,34880
1506,34688
1507,34560
1508,34880
1509,34624
1510,33728
1511,32960
1512,32704
1513,32896
1514,33280
1515,33472
1516,33664
1517,33920
1518,33984
1519,33984
1520,34112
1521,33920
1522,32832
1523,31872
1524,31296
1525,31232
1526,31616
1527,32320
1528,32512
1529,32000
1530,31616
1531,31744
1532,32000
1533,32128
1534,32320
1535,32768
1536,33344
1537,33216
1538,32448
1539,31744
1540,31552
1541,31872
1542,32320
1543,32576
1544,32896
1545,33408
1546,33536
1547,33344
1548,33152
1549,32960
1550,32960
1551,33152
1552,33344
1553,33344
1554,33280
1555,33344
1556,33472
1557,33344
1558,33088
1559,33024
1560,33088
1561,33088
1562,33344
1563,33920
1564,34240
1565,33728
1566,32832
1567,32192
1568,32064
1569,32256
1570,32704
1571,33216
1572,33280
1573,33152
1574,33216
1575,33344
1576,33344
1577,33472
1578,33600
1579,33856
1580,34240
1581,34496
1582,34368
1583,34240
1584,34240
1585,33920
1586,33024
1587,32384
1588,32512
1589,33408
1590,34048
1591,33664
1592,32768
1593,32128
1594,31488
1595,31168
1596,31232
1597,31616
1598,32064
1599,32448
1600,32640
1601,32832
1602,33280
1603,33856
1604,33920
1605,33536
1606,33344
1607,33152
1608,32960
1609,33024
1610,33536
1611,33664
1612,33088
1613,33024
1614,33920
1615,34752
1616,35008
1617,35712
1618,37184
1619,39168
1620,40704
1621,40704
1622,38592
1623,35264
1624,31936
1625,29376
1626,28160
1627,28160
1628,28928
1629,29568
1630,30272
1631,31168
1632,31616
1633,31744
1634,32064
1635,32448
1636,33024
1637,33536
1638,33664
1639,33408
1640,33024
1641,32704
1642,32576
1643,32768
1644,33024
1645,33344
1646,33792
1647,34368
1648,34752
1649,34496
1650,33920
1651,33536
1652,33088
1653,32832
1654,32896
1655,33280
1656,33472
1657,33600
1658,33600
1659,33792
1660,33984
1661,34048
1662,34112
1663,34304
1664,34560
1665,34688
1666,34944
1667,35456
1668,35776
1669,35584
1670,35328
1671,35008
1672,34816
1673,34752
1674,34944
1675,34816
1676,34368
1677,34112
1678,33984
1679,33920
1680,34176
1681,34624
1682,35136
1683,35136
1684,34688
1685,34432
1686,34432
1687,34176
1688,33664
1689,33728
1690,34176
1691,33920
1692,33024
1693,32448
1694,32128
1695,32000
1696,32064
1697,32256
1698,32448
1699,32640
1700,32768
1701,32768
1702,32896
1703,33152
1704,33344
1705,33728
1706,34176
1707,34432
1708,34240
1709,34048
1710,33792
1711,33664
1712,33088
1713,32512
1714,32512
1715,32768
1716,33088
1717,33344
1718,33600
1719,33920
1720,34240
1721,34304
1722,34368
1723,34304
1724,34176
1725,34112
1726,34112
1727,34240
1728,34368
1729,34304
1730,34112
1731,33856
1732,33600
1733,33408
1734,33344
1735,33408
1736,33728
1737,34048
1738,34432
1739,34688
1740,34880
1741,34816
1742,34368
1743,33600
1744,32832
1745,32256
1746,32128
1747,32384
1748,32896
1749,33664
1750,34496
1751,35008
1752,35392
1753,35328
1754,35136
1755,35328
1756,35904
1757,35968
1758,35520
1759,35008
1760,34432
1761,33984
1762,33856
1763,33792
1764,34048
1765,33728
1766,33216
1767,32960
1768,32896
1769,33088
1770,33216
1771,33408
1772,33728
1773,34048
1774,34304
1775,34432
1776,34560
1777,34368
1778,33920
1779,33472
1780,33216
1781,33088
1782,33280
1783,33280
1784,32768
1785,32384
1786,32512
1787,33152
1788,34304
1789,35776
1790,37312
1791,38592
1792,39936
1793,41408
1794,42112
1795,41152
1796,38592
1797,35392
1798,32384
1799,30208
1800,29056
1801,28992
1802,29888
1803,31040
1804,31744
1805,32384
1806,32832
1807,33088
1808,33280
1809,33472
1810,33856
1811,34112
1812,34304
1813,34560
1814,34944
1815,35520
1816,35776
1817,35584
1818,35584
1819,35968
1820,35776
1821,34944
1822,34176
1823,33792
1824,33664
1825,33536
1826,33280
1827,33344
1828,33792
1829,34560
1830,35072
1831,35200
1832,35136
1833,35328
1834,35648
1835,35776
1836,35584
1837,35200
1838,35392
1839,35840
1840,35840
1841,35328
1842,34752
1843,34624
1844,34944
1845,35328
1846,35904
1847,36480
1848,36544
1849,36352
1850,36096
1851,36032
1852,36160
1853,36544
1854,36864
1855,36736
1856,36416
1857,35968
1858,35456
1859,35008
1860,34880
1861,34688
1862,34240
1863,33920
1864,33728
1865,33664
1866,33792
1867,33792
1868,33792
1869,33728
1870,34176
1871,35008
1872,35968
1873,36096
1874,34816
1875,33152
1876,32128
1877,31680
1878,31680
1879,32192
1880,32768
1881,33472
1882,34176
1883,34688
1884,35072
1885,35328
1886,35392
1887,35328
1888,35392
1889,35648
1890,35584
1891,35328
1892,35200
1893,35072
1894,34688
1895,34496
1896,34496
1897,34816
1898,35264
1899,35520
1900,35456
1901,35328
1902,34816
1903,34688
1904,34688
1905,34624
1906,35200
1907,35520
1908,35008
1909,34240
1910,34176
1911,34496
1912,34752
1913,34688
1914,33984
1915,33856
1916,33472
1917,33984
1918,35008
1919,35840
1920,35648
1921,34944
1922,34368
1923,34304
1924,34560
1925,35008
1926,35200
1927,35072
1928,35136
1929,35264
1930,35584
1931,35840
1932,36096
1933,36160
1934,36032
1935,35776
1936,35648
1937,35584
1938,35584
1939,35712
1940,35520
1941,35264
1942,35200
1943,35200
1944,35200
1945,35008
1946,34752
1947,34624
1948,35072
1949,35584
1950,35456
1951,34816
1952,34496
1953,34112
1954,34048
1955,34176
1956,34240
1957,34176
1958,34496
1959,35072
1960,35072
1961,35392
1962,36736
1963,37696
1964,38848
1965,40448
1966,42496
1967,43904
1968,43712
1969,41152
1970,37504
1971,33984
1972,31552
1973,30528
1974,30848
1975,31424
1976,31872
1977,32384
1978,32832
1979,33280
1980,33984
1981,34816
1982,35712
1983,36480
1984,37184
1985,38016
1986,37504
1987,36352
1988,36160
1989,35904
1990,34048
1991,32320
1992,32256
1993,33024
1994,33536
1995,33920
1996,34368
1997,35008
1998,36032
1999,37056
2000,37568
2001,37696
2002,37056
2003,36160
2004,35776
2005,35648
2006,35584
2007,35456
2008,35456
2009,35392
2010,35456
2011,35776
2012,35968
2013,36160
2014,36224
2015,36224
2016,36160
2017,36160
2018,36352
2019,36608
2020,36864
2021,36992
2022,36864
2023,36736
2024,36800
2025,36928
2026,37056
2027,37184
2028,37184
2029,37120
2030,36928
2031,36864
2032,36672
2033,35968
2034,35072
2035,34560
2036,34624
2037,35136
2038,35712
2039,36352
2040,36992
2041,37056
2042,36032
2043,34368
2044,33152
2045,32832
2046,33344
2047,34368
2048,35264
2049,35840
2050,35968
2051,35776
2052,35328
2053,35072
2054,35072
2055,35264
2056,35776
2057,36480
2058,36992
2059,37440
2060,37248
2061,36608
2062,35968
2063,35584
2064,35520
2065,35456
2066,35712
2067,35776
2068,35840
2069,35904
2070,36032
2071,35904
2072,35840
2073,35712
2074,35456
2075,35456
2076,35584
2077,35712
2078,35776
2079,35904
2080,36288
2081,36608
2082,36608
2083,36480
2084,36096
2085,35712
2086,34944
2087,33920
2088,33408
2089,33664
2090,34304
2091,34880
2092,35200
2093,35456
2094,35776
2095,36224
2096,36800
2097,37440
2098,37568
2099,37056
2100,36288
2101,35968
2102,35776
2103,35584
2104,35520
2105,35712
2106,35968
2107,36160
2108,36288
2109,36096
2110,35968
2111,35968
2112,35968
2113,35776
2114,35648
2115,35520
2116,35520
2117,35776
2118,35712
2119,35200
2120,35136
2121,35392
2122,35456
2123,34880
2124,34368
2125,34304
2126,34240
2127,34368
2128,34816
2129,35328
2130,35328
2131,35008
2132,34816
2133,34880
2134,35520
2135,36864
2136,38144
2137,38336
2138,37824
2139,38208
2140,38272
2141,41344
2142,42560
2143,41536
2144,38528
2145,35072
2146,32256
2147,30464
2148,29632
2149,29760
2150,30592
2151,31872
2152,33088
2153,34112
2154,34688
2155,35008
2156,35392
2157,35904
2158,36224
2159,35840
2160,35136
2161,34880
2162,35328
2163,35840
2164,35968
2165,35648
2166,35008
2167,34816
2168,35072
2169,35456
2170,35456
2171,35136
2172,34752
2173,34752
2174,34944
2175,35136
2176,35456
2177,35840
2178,35840
2179,35776
2180,35456
2181,35328
2182,35520
2183,35904
2184,36096
2185,35968
2186,35776
2187,35712
2188,35712
2189,35776
2190,35904
2191,36288
2192,36800
2193,37184
2194,37248
2195,36928
2196,36864
2197,36800
2198,36608
2199,36416
2200,36160
2201,35712
2202,35328
2203,35264
2204,35392
2205,35520
2206,35776
2207,35840
2208,35392
2209,34944
2210,34624
2211,34496
2212,34560
2213,34944
2214,35584
2215,35328
2216,34560
2217,33920
2218,33600
2219,33408
2220,33536
2221,33984
2222,34368
2223,34688
2224,35008
2225,35136
2226,35072
2227,34880
2228,34304
2229,33728
2230,33728
2231,34112
2232,34496
2233,34560
2234,34688
2235,35200
2236,35520
2237,35712
2238,35776
2239,35264
2240,34880
2241,35008
2242,35328
2243,35072
2244,34688
2245,34688
2246,34752
2247,34624
2248,34368
2249,34368
2250,34432
2251,34624
2252,35136
2253,35264
2254,35008
2255,34688
2256,34752
2257,34944
2258,35008
2259,34560
2260,34368
2261,34304
2262,34432
2263,34880
2264,35008
2265,34944
2266,34816
2267,34752
2268,35072
2269,35712
2270,35968
2271,36032
2272,36096
2273,35648
2274,35264
2275,35200
2276,35008
2277,34944
2278,35072
2279,35328
2280,35584
2281,35904
2282,35968
2283,35840
2284,35584
2285,35456
2286,35328
2287,35072
2288,34752
2289,34560
2290,34560
2291,34624
2292,34688
2293,34624
2294,34624
2295,34560
2296,34880
2297,35520
2298,35968
2299,35968
2300,34880
2301,33472
2302,32704
2303,32640
2304,33024
2305,33536
2306,34112
2307,34560
2308,35008
2309,35712
2310,36608
2311,37696
2312,38720
2313,40000
2314,41600
2315,42368
2316,41600
2317,39232
2318,36096
2319,32640
2320,30400
2321,29184
2322,29056
2323,30016
2324,31552
2325,32832
2326,33536
2327,33984
2328,34240
2329,34496
2330,35008
2331,35392
2332,35328
2333,35136
2334,34624
2335,34240
2336,34304
2337,34560
2338,34880
2339,34944
2340,34688
2341,34496
2342,34560
2343,34816
2344,35008
2345,35136
2346,35328
2347,35520
2348,35648
2349,35648
2350,35648
2351,35648
2352,35968
2353,36288
2354,35840
2355,35008
2356,34880
2357,35264
2358,35456
2359,35456
2360,35520
2361,35648
2362,35648
2363,35712
2364,36224
2365,36224
2366,36864
2367,36736
2368,36352
2369,36352
2370,36736
2371,36480
2372,35904
2373,35392
2374,35008
2375,34944
2376,35392
2377,35904
2378,35968
2379,35200
2380,35072
2381,34688
2382,34624
2383,34624
2384,34816
2385,35072
2386,34880
2387,34432
2388,33728
2389,33088
2390,33024
2391,33216
2392,33472
2393,33600
2394,33600
2395,33728
2396,34048
2397,34432
2398,34816
2399,34880
2400,34752
2401,34688
2402,34880
2403,34944
2404,34624
2405,34432
2406,34560
2407,34944
2408,35264
2409,35392
2410,35136
2411,34496
2412,34112
2413,34112
2414,33984
2415,33920
2416,33920
2417,34048
2418,34304
2419,34624
2420,35008
2421,35008
2422,35008
2423,34752
2424,34432
2425,34560
2426,35008
2427,35456
2428,35392
2429,34624
2430,33984
2431,33600
2432,33664
2433,34304
2434,34816
2435,34816
2436,34688
2437,34368
2438,33792
2439,33472
2440,33664
2441,33984
2442,34432
2443,34624
2444,34496
2445,34688
2446,35328
2447,35648
2448,35520
2449,35136
2450,34880
2451,34816
2452,34944
2453,35200
2454,35072
2455,34688
2456,34496
2457,34624
2458,35200
2459,35584
2460,34880
2461,34304
2462,34176
2463,34368
2464,34176
2465,33664
2466,33344
2467,33216
2468,33472
2469,33856
2470,34112
2471,34112
2472,34432
2473,34560
2474,34048
2475,33600
2476,33536
2477,33856
2478,34624
2479,35264
2480,35200
2481,34432
2482,33856
2483,34368
2484,35584
2485,36608
2486,37376
2487,38400
2488,39744
2489,40960
2490,40512
2491,38720
2492,35840
2493,32640
2494,30272
2495,29056
2496,29056
2497,29632
2498,30656
2499,31744
2500,32960
2501,34240
2502,35008
2503,35136
2504,35008
2505,35200
2506,35392
2507,35136
2508,34560
2509,34176
2510,34304
2511,34432
2512,34304
2513,33920
2514,33536
2515,33472
2516,33664
2517,34112
2518,34752
2519,35392
2520,35904
2521,36160
2522,35648
2523,34752
2524,34240
2525,34816
2526,35264
2527,35008
2528,34688
2529,34432
2530,34432
2531,34624
2532,34880
2533,35072
2534,35456
2535,35904
2536,36096
2537,36032
2538,35776
2539,35712
2540,35776
2541,36160
2542,36608
2543,36608
2544,36160
2545,35904
2546,35840
2547,35904
2548,36160
2549,36032
2550,35776
2551,35392
2552,35072
2553,34880
2554,34688
2555,34496
2556,34432
2557,34560
2558,34496
2559,34240
2560,33984
2561,33856
2562,33920
2563,34112
2564,34240
2565,34368
2566,34048
2567,33536
2568,33536
2569,33600
2570,33408
2571,33408
2572,33792
2573,34112
2574,34240
2575,34240
2576,34240
2577,34304
2578,34304
2579,34432
2580,34880
2581,34816
2582,35072
2583,35200
2584,35264
2585,35136
2586,34624
2587,34432
2588,34368
2589,34496
2590,34624
2591,34560
2592,34304
2593,34048
2594,34176
2595,34304
2596,34240
2597,34304
2598,34240
2599,34112
2600,34048
2601,33984
2602,33856
2603,33664
2604,33664
2605,34112
2606,34688
2607,35136
2608,35648
2609,35712
2610,35264
2611,34688
2612,34368
2613,34432
2614,34688
2615,34944
2616,34624
2617,34240
2618,34048
2619,34240
2620,34624
2621,34880
2622,35264
2623,35840
2624,36288
2625,35776
2626,35136
2627,34688
2628,34368
2629,34048
2630,33728
2631,33664
2632,33920
2633,34112
2634,33728
2635,33536
2636,33408
2637,33344
2638,33408
2639,33792
2640,33984
2641,33664
2642,33600
2643,33856
2644,33536
2645,33088
2646,33344
2647,33600
2648,33664
2649,33536
2650,33600
2651,33728
2652,33984
2653,34304
2654,34944
2655,35840
2656,36928
2657,38144
2658,39552
2659,41152
2660,41920
2661,41024
2662,38336
2663,35008
2664,32000
2665,30208
2666,29824
2667,29696
2668,29824
2669,30144
2670,30400
2671,30848
2672,31744
2673,32640
2674,33472
2675,34304
2676,34880
2677,34944
2678,34752
2679,34624
2680,34560
2681,34560
2682,34560
2683,34304
2684,34368
2685,34752
2686,35008
2687,34816
2688,34368
2689,34112
2690,34304
2691,34624
2692,34880
2693,34560
2694,34048
2695,34176
2696,34368
2697,34112
2698,33984
2699,34368
2700,34944
2701,34752
2702,34560
2703,34560
2704,34560
2705,34688
2706,35008
2707,35456
2708,35648
2709,35712
2710,35776
2711,35968
2712,36096
2713,35904
2714,35776
2715,36032
2716,35712
2717,34880
2718,34816
2719,35072
2720,35072
2721,34880
2722,34560
2723,34112
2724,33792
2725,33600
2726,33728
2727,33856
2728,33984
2729,34048
2730,34176
2731,34176
2732,33728
2733,33152
2734,32832
2735,33280
2736,33664
2737,34240
2738,34432
2739,33856
2740,33408
2741,33280
2742,33024
2743,33152
2744,33152
2745,33152
2746,33344
2747,33728
2748,33984
2749,34304
2750,34752
2751,34944
2752,34624
2753,34368
2754,33728
2755,33088
2756,32896
2757,32960
2758,33344
2759,33792
2760,34176
2761,34368
2762,34368
2763,34496
2764,35008
2765,35328
2766,35008
2767,34560
2768,34048
2769,33472
2770,33344
2771,33600
2772,34112
2773,34304
2774,34432
2775,34880
2776,34816
2777,34624
2778,34176
2779,33472
2780,32896
2781,32832
2782,33152
2783,33664
2784,34496
2785,35456
2786,35712
2787,35200
2788,34624
2789,34368
2790,34496
2791,34752
2792,35264
2793,35776
2794,35648
2795,35072
2796,34432
2797,34048
2798,33984
2799,33856
2800,33728
2801,33728
2802,33792
2803,34112
2804,34880
2805,34688
2806,33920
2807,33280
2808,33152
2809,33216
2810,33344
2811,33472
2812,32960
2813,32640
2814,33152
2815,33920
2816,33728
2817,33024
2818,32832
2819,32960
2820,33280
2821,33600
2822,33920
2823,34944
2824,36032
2825,37440
2826,38080
2827,39360
2828,40960
2829,41984
2830,41408
2831,39232
2832,35904
2833,32064
2834,28928
2835,27264
2836,27008
2837,27840
2838,29184
2839,30656
2840,32576
2841,33280
2842,34048
2843,34496
2844,34816
2845,35200
2846,35136
2847,34880
2848,34496
2849,34176
2850,34304
2851,34816
2852,34944
2853,34688
2854,34240
2855,33728
2856,33344
2857,33408
2858,33600
2859,33856
2860,34176
2861,34176
2862,33984
2863,33792
2864,33664
2865,33856
2866,34304
2867,34752
2868,35136
2869,35456
2870,35584
2871,35584
2872,35584
2873,35648
2874,35712
2875,35776
2876,35776
2877,35648
2878,35136
2879,34688
2880,34880
2881,35200
2882,35136
2883,34752
2884,34432
2885,34368
2886,34432
2887,34624
2888,34816
2889,34944
2890,34880
2891,34688
2892,34560
2893,34624
2894,34752
2895,34688
2896,34560
2897,34432
2898,34240
2899,33792
2900,33344
2901,32896
2902,32832
2903,32896
2904,33024
2905,33216
2906,33408
2907,33408
2908,33216
2909,33024
2910,33088
2911,33472
2912,33792
2913,34176
2914,34496
2915,34880
2916,34816
2917,34624
2918,34496
2919,34560
2920,34688
2921,35200
2922,35264
2923,34176
2924,33344
2925,32832
2926,32448
2927,32384
2928,32576
2929,32768
2930,33152
2931,33600
2932,33856
2933,33792
2934,34112
2935,34560
2936,34432
2937,33984
2938,33728
2939,33664
2940,33792
2941,33984
2942,34368
2943,34816
2944,34880
2945,34304
2946,34048
2947,33920
2948,33856
2949,33792
2950,33984
2951,34048
2952,34176
2953,34432
2954,34624
2955,34816
2956,34944
2957,35072
2958,35008
2959,35008
2960,35008
2961,34944
2962,34944
2963,34880
2964,34816
2965,34752
2966,34816
2967,34816
2968,34560
2969,34240
2970,33664
2971,33088
2972,32832
2973,32960
2974,33536
2975,34432
2976,34752
2977,34496
2978,33920
2979,33472
2980,33344
2981,33216
2982,33024
2983,32896
2984,32960
2985,33152
2986,33344
2987,33408
2988,33600
2989,33984
2990,34560
2991,35264
2992,36096
2993,37184
2994,38720
2995,40640
2996,41856
2997,41664
2998,40064
2999,37120
3000,34688
3001,31552
3002,29632
3003,28608
3004,28224
3005,28928
3006,30016
3007,30528
3008,31104
3009,31744
3010,32448
3011,33088
3012,33536
3013,33856
3014,34240
3015,34752
3016,34880
3017,35072
3018,35264
3019,34752
3020,34048
3021,33664
3022,33344
3023,33344
3024,33600
3025,34048
3026,34240
3027,34560
3028,34880
3029,35008
3030,35200
3031,35264
3032,35200
3033,34880
3034,34496
3035,34112
3036,34112
3037,34112
3038,34112
3039,34368
3040,34944
3041,35008
3042,35456
3043,35776
3044,35392
3045,35264
3046,34944
3047,34496
3048,34432
3049,34752
3050,35200
3051,35712
3052,35968
3053,36096
3054,36096
3055,35904
3056,35648
3057,35456
3058,35456
3059,35456
3060,35328
3061,35072
3062,35136
3063,35648
3064,35392
3065,34432
3066,33728
3067,33152
3068,32768
3069,32640
3070,32576
3071,32704
3072,33024
3073,33408
3074,33408
3075,33216
3076,33280
3077,33536
3078,33920
3079,33920
3080,34048
3081,34432
3082,34560
3083,34240
3084,33984
3085,34176
3086,34624
3087,34688
3088,34368
3089,33728
3090,33536
3091,33600
3092,33728
3093,33920
3094,34112
3095,33856
3096,33600
3097,33408
3098,33408
3099,33600
3100,33792
3101,33856
3102,33792
3103,33920
3104,34240
3105,34368
3106,34176
3107,34112
3108,33920
3109,33600
3110,33536
3111,33664
3112,33856
3113,33920
3114,34048
3115,34240
3116,34240
3117,33984
3118,33792
3119,33920
3120,34176
3121,34624
3122,34752
3123,34624
3124,34432
3125,34368
3126,34496
3127,34752
3128,34880
3129,34752
3130,34368
3131,33920
3132,33664
3133,33600
3134,33664
3135,33664
3136,33600
3137,33536
3138,33536
3139,33664
3140,33920
3141,34176
3142,34496
3143,34496
3144,34304
3145,33984
3146,33920
3147,33728
3148,33600
3149,33280
3150,32512
3151,32192
3152,32192
3153,32320
3154,32704
3155,33216
3156,33856
3157,34752
3158,35776
3159,36864
3160,38336
3161,40320
3162,41856
3163,42304
3164,40768
3165,37888
3166,34624
3167,31936
3168,30464
3169,29952
3170,29440
3171,29248
3172,29888
3173,30720
3174,31552
3175,32448
3176,33344
3177,34112
3178,34496
3179,34176
3180,33728
3181,33536
3182,33600
3183,33728
3184,33920
3185,34176
3186,34368
3187,34432
3188,34432
3189,34432
3190,34496
3191,34560
3192,34624
3193,34624
3194,34816
3195,35072
3196,35328
3197,35392
3198,34880
3199,34368
3200,33920
3201,33728
3202,33728
3203,33920
3204,34176
3205,34496
3206,34880
3207,35136
3208,35200
3209,35264
3210,35520
3211,35840
3212,36096
3213,36288
3214,36352
3215,36160
3216,35712
3217,35008
3218,35136
3219,35328
3220,34496
3221,33600
3222,33216
3223,33280
3224,33472
3225,33664
3226,33920
3227,34112
3228,34304
3229,34368
3230,34432
3231,34752
3232,35392
3233,35712
3234,34816
3235,33472
3236,32448
3237,32128
3238,32512
3239,33408
3240,33792
3241,33856
3242,33728
3243,33216
3244,33088
3245,33280
3246,33600
3247,33664
3248,33664
3249,33856
3250,33728
3251,33600
3252,33408
3253,33344
3254,33664
3255,33984
3256,34112
3257,34304
3258,34752
3259,35136
3260,35200
3261,35136
3262,35072
3263,34816
3264,34560
3265,34368
3266,34240
3267,34368
3268,34688
3269,35072
3270,35264
3271,35136
3272,34944
3273,35072
3274,35584
3275,36032
3276,36096
3277,35328
3278,34048
3279,33280
3280,33152
3281,33600
3282,33984
3283,34496
3284,34944
3285,35328
3286,35584
3287,35648
3288,35648
3289,35712
3290,35904
3291,36032
3292,36096
3293,36096
3294,35968
3295,35776
3296,35648
3297,35584
3298,35648
3299,35456
3300,35264
3301,35072
3302,34944
3303,34752
3304,34688
3305,34816
3306,35008
3307,35008
3308,34880
3309,35072
3310,35264
3311,35200
3312,35136
3313,34816
3314,34368
3315,34368
3316,34560
3317,34624
3318,34880
3319,35264
3320,35328
3321,35520
3322,36224
3323,37056
3324,38016
3325,39232
3326,41216
3327,43392
3328,45056
3329,44928
3330,42496
3331,39040
3332,35072
3333,31936
3334,30400
3335,30144
3336,30528
3337,31488
3338,32768
3339,33920
3340,34880
3341,35712
3342,36160
3343,36608
3344,36928
3345,36992
3346,36544
3347,36288
3348,36608
3349,36992
3350,36736
3351,36096
3352,35648
3353,35648
3354,35904
3355,36224
3356,36544
3357,36736
3358,36928
3359,37184
3360,37376
3361,37376
3362,37248
3363,37120
3364,37184
3365,37376
3366,37504
3367,37376
3368,37376
3369,37376
3370,37376
3371,37184
3372,37312
3373,37824
3374,38336
3375,38400
3376,38208
3377,38080
3378,38208
3379,38144
3380,38016
3381,37952
3382,38016
3383,38144
3384,38144
3385,38144
3386,38144
3387,38016
3388,37760
3389,37568
3390,37440
3391,37376
3392,37056
3393,36480
3394,35904
3395,35648
3396,35456
3397,35328
3398,35456
3399,35840
3400,36096
3401,35776
3402,35648
3403,35456
3404,35200
3405,34944
3406,34880
3407,35136
3408,35456
3409,35392
3410,35264
3411,35648
3412,35968
3413,35584
3414,34944
3415,34560
3416,34432
3417,34368
3418,34624
3419,35072
3420,35520
3421,35648
3422,35904
3423,36160
3424,36032
3425,35520
3426,35008
3427,34880
3428,35200
3429,35456
3430,35776
3431,36096
3432,36032
3433,35712
3434,35328
3435,35008
3436,34560
3437,34240
3438,34176
3439,34240
3440,34240
3441,34368
3442,34560
3443,34752
3444,34944
3445,35136
3446,35072
3447,35136
3448,35392
3449,35520
3450,35392
3451,35392
3452,35520
3453,35520
3454,35456
3455,35392
3456,35456
3457,35584
3458,35648
3459,35648
3460,35648
3461,35648
3462,35584
3463,35392
3464,35264
3465,35136
3466,35072
3467,35072
3468,35072
3469,35008
3470,34688
3471,34240
3472,34048
3473,33792
3474,33536
3475,33536
3476,33600
3477,33408
3478,33152
3479,32960
3480,32960
3481,33024
3482,33152
3483,33472
3484,33728
3485,33984
3486,34176
3487,34240
3488,34368
3489,34688
3490,35200
3491,35840
3492,36288
3493,36928
3494,38016
3495,39808
3496,40960
3497,41024
3498,39552
3499,36480
3500,33088
3501,30336
3502,28672
3503,28032
3504,28352
3505,29248
3506,30592
3507,31424
3508,32192
3509,32832
3510,33344
3511,33664
3512,33728
3513,33600
3514,33472
3515,33280
3516,33216
3517,33088
3518,33088
3519,33088
3520,33024
3521,33152
3522,33280
3523,33344
3524,33088
3525,33088
3526,33152
3527,32832
3528,32576
3529,32448
3530,32448
3531,32640
3532,33024
3533,33408
3534,33792
3535,33984
3536,34048
3537,33920
3538,33792
3539,33920
3540,34176
3541,34624
3542,34944
3543,35200
3544,35328
3545,35136
3546,34688
3547,34432
3548,34368
3549,34496
3550,34624
3551,34944
3552,35328
3553,35520
3554,35136
3555,34368
3556,33600
3557,33152
3558,33152
3559,33280
3560,33216
3561,33088
3562,33152
3563,33408
3564,33600
3565,33728
3566,33280
3567,32256
3568,31552
3569,31168
3570,31104
3571,31296
3572,31616
3573,32000
3574,32192
3575,32384
3576,32448
3577,32512
3578,32576
3579,32576
3580,32640
3581,32768
3582,32832
3583,32832
3584,32832
3585,32960
3586,33216
3587,33408
3588,33408
3589,33344
3590,33472
3591,33664
3592,33856
3593,33728
3594,33536
3595,33152
3596,32064
3597,31744
3598,31808
3599,32256
3600,32768
3601,33024
3602,33152
3603,33216
3604,33344
3605,33536
3606,33600
3607,33536
3608,33408
3609,33536
3610,33664
3611,33408
3612,33024
3613,32832
3614,32896
3615,32576
3616,31936
3617,31616
3618,32000
3619,32704
3620,33408
3621,33792
3622,34112
3623,34432
3624,34624
3625,34688
3626,34688
3627,34688
3628,34688
3629,34688
3630,34752
3631,34816
3632,34496
3633,33920
3634,33280
3635,32960
3636,33024
3637,33088
3638,33088
3639,33024
3640,33024
3641,33280
3642,33408
3643,33152
3644,32896
3645,32960
3646,32896
3647,32704
3648,32640
3649,32640
3650,32512
3651,32512
3652,32832
3653,33344
3654,33664
3655,33856
3656,34048
3657,34240
3658,34560
3659,35072
3660,35712
3661,36672
3662,38016
3663,39808
3664,41344
3665,41600
3666,39616
3667,36288
3668,33024
3669,30656
3670,29184
3671,28544
3672,28672
3673,29376
3674,29952
3675,30144
3676,30528
3677,31232
3678,32000
3679,32768
3680,33280
3681,33536
3682,33792
3683,33920
3684,34048
3685,34112
3686,34176
3687,34048
3688,33856
3689,33664
3690,33664
3691,33600
3692,33536
3693,33472
3694,33472
3695,33536
3696,33664
3697,33792
3698,34048
3699,34304
3700,34368
3701,34176
3702,34048
3703,33920
3704,33856
3705,33920
3706,34048
3707,34368
3708,34560
3709,34816
3710,34752
3711,34816
3712,35264
3713,35776
3714,35328
3715,34112
3716,33920
3717,33536
3718,33152
3719,33344
3720,33600
3721,33920
3722,34176
3723,34496
3724,34624
3725,34560
3726,34432
3727,34240
3728,33984
3729,33856
3730,33600
3731,33344
3732,33088
3733,32832
3734,32768
3735,32768
3736,32576
3737,32384
3738,32320
3739,32448
3740,32576
3741,32704
3742,32832
3743,32960
3744,33024
3745,32704
3746,32640
3747,32448
3748,32640
3749,32960
3750,32960
3751,33152
3752,33280
3753,33408
3754,33408
3755,33600
3756,33728
3757,33472
3758,33216
3759,33280
3760,33536
3761,33472
3762,33600
3763,33728
3764,33792
3765,33856
3766,33792
3767,33472
3768,33152
3769,32960
3770,33024
3771,33152
3772,33280
3773,33408
3774,33536
3775,33600
3776,33600
3777,33664
3778,33600
3779,33536
3780,33472
3781,33472
3782,33600
3783,33664
3784,33984
3785,34240
3786,34368
3787,34304
3788,34112
3789,33920
3790,33856
3791,33792
3792,33984
3793,34304
3794,34368
3795,34112
3796,33728
3797,33536
3798,33536
3799,33600
3800,33600
3801,33408
3802,33216
3803,33152
3804,33472
3805,33408
3806,33344
3807,32704
3808,32384
3809,32320
3810,32256
3811,32256
3812,32256
3813,32384
3814,32576
3815,32832
3816,32960
3817,33152
3818,33280
3819,33344
3820,33344
3821,33280
3822,33472
3823,33920
3824,34496
3825,35264
3826,36224
3827,37504
3828,39488
3829,41344
3830,41408
3831,38912
3832,35328
3833,31808
3834,29120
3835,27648
3836,27136
3837,27392
3838,28288
3839,29504
3840,30720
3841,31808
3842,32704
3843,33408
3844,33856
3845,34112
3846,34240
3847,34240
3848,34240
3849,33984
3850,33728
3851,33536
3852,33536
3853,33472
3854,33536
3855,33664
3856,33792
3857,33792
3858,33792
3859,34048
3860,34112
3861,34176
3862,34176
3863,33984
3864,33984
3865,34048
3866,33984
3867,33792
3868,33664
3869,33664
3870,33664
3871,33856
3872,34112
3873,34304
3874,34496
3875,34560
3876,34688
3877,34880
3878,34944
3879,35008
3880,35136
3881,35264
3882,35264
3883,35328
3884,35008
3885,34752
3886,34560
3887,34368
3888,34304
3889,34432
3890,34432
3891,34240
3892,34048
3893,33920
3894,33728
3895,33280
3896,33216
3897,33152
3898,33216
3899,33280
3900,33216
3901,33088
3902,33088
3903,33088
3904,33088
3905,33152
3906,33216
3907,33280
3908,33280
3909,33216
3910,33088
3911,33088
3912,33216
3913,33152
3914,33216
3915,33408
3916,33728
3917,33728
3918,33600
3919,33408
3920,33408
3921,33472
3922,33536
3923,33536
3924,33408
3925,33216
3926,33152
3927,33152
3928,33152
3929,33216
3930,33344
3931,33536
3932,33728
3933,33728
3934,33664
3935,33792
3936,34240
3937,34496
3938,33920
3939,33152
3940,32704
3941,32512
3942,32448
3943,32704
3944,33024
3945,33344
3946,33600
3947,33664
3948,33792
3949,33920
3950,34112
3951,34304
3952,34496
3953,34624
3954,34688
3955,34944
3956,34944
3957,35072
3958,34752
3959,34432
3960,34240
3961,33984
3962,33600
3963,33344
3964,33344
3965,33472
3966,33408
3967,33280
3968,33088
3969,32896
3970,32960
3971,32896
3972,33152
3973,33216
3974,33344
3975,33600
3976,33792
3977,33856
3978,33856
3979,33728
3980,33728
3981,33792
3982,33792
3983,33600
3984,33280
3985,33152
3986,33280
3987,34048
3988,34944
3989,35840
3990,37056
3991,38656
3992,40320
3993,41280
3994,40448
3995,37888
3996,34624
3997,31616
3998,29632
3999,28672
4000,29056
4001,29184
4002,30656
4003,31552
4004,32192
4005,32576
4006,32896
4007,33280
4008,33536
4009,33856
4010,34048
4011,33856
4012,33664
4013,33600
4014,33536
4015,33664
4016,33664
4017,33984
4018,34048
4019,34048
4020,34112
4021,34048
4022,34048
4023,34112
4024,34112
4025,34048
4026,33984
4027,34112
4028,34176
4029,34240
4030,34624
4031,34624
4032,34496
4033,34304
4034,34240
4035,34368
4036,34624
4037,34816
4038,34880
4039,34752
4040,34752
4041,34752
4042,34816
4043,35008
4044,35072
4045,35072
4046,35008
4047,34880
4048,34816
4049,34880
4050,34880
4051,34880
4052,34880
4053,34880
4054,34688
4055,34368
4056,33984
4057,33664
4058,33536
4059,33408
4060,33216
4061,33152
4062,33216
4063,33216
4064,33088
4065,32960
4066,32896
4067,32960
4068,33024
4069,33152
4070,33088
4071,32960
4072,32896
4073,33024
4074,33216
4075,33344
4076,33280
4077,33280
4078,33280
4079,33472
4080,33600
4081,33664
4082,33792
4083,33792
4084,33856
4085,33664
4086,33536
4087,33408
4088,33280
4089,33216
4090,33280
4091,33472
4092,33600
4093,33792
4094,33920
4095,34112
4096,34368
4097,34368
4098,34176
4099,34048
4100,34112
4101,33984
4102,33472
4103,32960
4104,32704
4105,32832
4106,32896
4107,32960
4108,33024
4109,33216
4110,33344
4111,33600
4112,33856
4113,33984
4114,34112
4115,34432
4116,34752
4117,34880
4118,34944
4119,34752
4120,34496
4121,34496
4122,34688
4123,34688
4124,34368
4125,33920
4126,33600
4127,33472
4128,33536
4129,33728
4130,33728
4131,33600
4132,33472
4133,33280
4134,33280
4135,33280
4136,33280
4137,33344
4138,33344
4139,33344
4140,33344
4141,33408
4142,33472
4143,33664
4144,33792
4145,33984
4146,34048
4147,33792
4148,33472
4149,33216
4150,33088
4151,33152
4152,33536
4153,34176
4154,35136
4155,36288
4156,37760
4157,39424
4158,41152
4159,41856
4160,40896
4161,38208
4162,34688
4163,31360
4164,29120
4165,28224
4166,28288
4167,29056
4168,30144
4169,31360
4170,32384
4171,33024
4172,33472
4173,33664
4174,33920
4175,34176
4176,34368
4177,34240
4178,34048
4179,33792
4180,33536
4181,33600
4182,33792
4183,33920
4184,34048
4185,34112
4186,34112
4187,34112
4188,34240
4189,34368
4190,34304
4191,34112
4192,34368
4193,34560
4194,34240
4195,33792
4196,33536
4197,33536
4198,33728
4199,34048
4200,34304
4201,34496
4202,34560
4203,34688
4204,34752
4205,34880
4206,34944
4207,35072
4208,35328
4209,35392
4210,35328
4211,35328
4212,35328
4213,35136
4214,35072
4215,35072
4216,35008
4217,35008
4218,34944
4219,34880
4220,34688
4221,34368
4222,33984
4223,33792
4224,33728
4225,33600
4226,33408
4227,33408
4228,33472
4229,33536
4230,33600
4231,33280
4232,32832
4233,32640
4234,32768
4235,32768
4236,32832
4237,32832
4238,32768
4239,32960
4240,33152
4241,33216
4242,33216
4243,33216
4244,33344
4245,33408
4246,33536
4247,33664
4248,33920
4249,34112
4250,34496
4251,34560
4252,34496
4253,34368
4254,34176
4255,33984
4256,34048
4257,34304
4258,34624
4259,34304
4260,33856
4261,33536
4262,33344
4263,33280
4264,33536
4265,33728
4266,33920
4267,33920
4268,33984
4269,34048
4270,34176
4271,34048
4272,33856
4273,33856
4274,34048
4275,34176
4276,34176
4277,34176
4278,34432
4279,34880
4280,35328
4281,35392
4282,35008
4283,34816
4284,34752
4285,34496
4286,34176
4287,33920
4288,33792
4289,33728
4290,33856
4291,34048
4292,34176
4293,34240
4294,34176
4295,33984
4296,33792
4297,33664
4298,33600
4299,33664
4300,33664
4301,33536
4302,33536
4303,33728
4304,33856
4305,33920
4306,33856
4307,33664
4308,33536
4309,33664
4310,33728
4311,33664
4312,33408
4313,33088
4314,33024
4315,33152
4316,33600
4317,34176
4318,34944
4319,35968
4320,37184
4321,38720
4322,40512
4323,41984
4324,41920
4325,39936
4326,36736
4327,33280
4328,30528
4329,28992
4330,28672
4331,29120
4332,29888
4333,30912
4334,31808
4335,32384
4336,33024
4337,33472
4338,33664
4339,33728
4340,33792
4341,33920
4342,34112
4343,34368
4344,34560
4345,34624
4346,34752
4347,34816
4348,34880
4349,34880
4350,34880
4351,34944
4352,35008
4353,34880
4354,34752
4355,34496
4356,34240
4357,34112
4358,34112
4359,34112
4360,34240
4361,34368
4362,34368
4363,34304
4364,34432
4365,34560
4366,34816
4367,35072
4368,35264
4369,35328
4370,35456
4371,35584
4372,35648
4373,35712
4374,35776
4375,35840
4376,35840
4377,35776
4378,35776
4379,35776
4380,35648
4381,35456
4382,35136
4383,34880
4384,34752
4385,34560
4386,34368
4387,34176
4388,33984
4389,33920
4390,33856
4391,33664
4392,33536
4393,33408
4394,33408
4395,33536
4396,33536
4397,33472
4398,33408
4399,33344
4400,33216
4401,33152
4402,33216
4403,33280
4404,33344
4405,33408
4406,33536
4407,33792
4408,33920
4409,33792
4410,33408
4411,33152
4412,33088
4413,33216
4414,33600
4415,33856
4416,34048
4417,34048
4418,33920
4419,33920
4420,33984
4421,33984
4422,34048
4423,34112
4424,34112
4425,34048
4426,34048
4427,34112
4428,34240
4429,34368
4430,34304
4431,34304
4432,34304
4433,33984
4434,33536
4435,33408
4436,33472
4437,33600
4438,33664
4439,33728
4440,33920
4441,34304
4442,34560
4443,34752
4444,34880
4445,34816
4446,34624
4447,34560
4448,34752
4449,34944
4450,34944
4451,34752
4452,34624
4453,34496
4454,34496
4455,34496
4456,34432
4457,34240
4458,33984
4459,33728
4460,33536
4461,33472
4462,33344
4463,33152
4464,33024
4465,32960
4466,33024
4467,33152
4468,33280
4469,33408
4470,33536
4471,33600
4472,33728
4473,33856
4474,33984
4475,34048
4476,34176
4477,34304
4478,34304
4479,34432
4480,34880
4481,35712
4482,36736
4483,37760
4484,39168
4485,40768
4486,41600
4487,40832
4488,38208
4489,34688
4490,31424
4491,29248
4492,28224
4493,28352
4494,29248
4495,30272
4496,31360
4497,32192
4498,33088
4499,33728
4500,34048
4501,34176
4502,34304
4503,34368
4504,34496
4505,34496
4506,34432
4507,34368
4508,34432
4509,34432
4510,34560
4511,34688
4512,34496
4513,34304
4514,34048
4515,33728
4516,33536
4517,33472
4518,33408
4519,33600
4520,33920
4521,34176
4522,34368
4523,34624
4524,34816
4525,34944
4526,35008
4527,35136
4528,35200
4529,34944
4530,34752
4531,34752
4532,34944
4533,35200
4534,35328
4535,35456
4536,35776
4537,35776
4538,35392
4539,35072
4540,34880
4541,34880
4542,34816
4543,34752
4544,34944
4545,35008
4546,34944
4547,34816
4548,34752
4549,34560
4550,34240
4551,34048
4552,33984
4553,33984
4554,33856
4555,33728
4556,33664
4557,33536
4558,33536
4559,33472
4560,33408
4561,33216
4562,33152
4563,33152
4564,33344
4565,33408
4566,33280
4567,33280
4568,33280
4569,33344
4570,33472
4571,33408
4572,33408
4573,33472
4574,33536
4575,33664
4576,33792
4577,34112
4578,34432
4579,34624
4580,34560
4581,34496
4582,34368
4583,34048
4584,33856
4585,33664
4586,33664
4587,33856
4588,34048
4589,34176
4590,34176
4591,34240
4592,34368
4593,34240
4594,34048
4595,33984
4596,33856
4597,33792
4598,33920
4599,34048
4600,34112
4601,34176
4602,34304
4603,34368
4604,34432
4605,34560
4606,34816
4607,34944
4608,35008
4609,35008
4610,34880
4611,34624
4612,34560
4613,34304
4614,34176
4615,34176
4616,34304
4617,34368
4618,34496
4619,34496
4620,34368
4621,34176
4622,33920
4623,33792
4624,33728
4625,33600
4626,33472
4627,33344
4628,33344
4629,33408
4630,33472
4631,33536
4632,33664
4633,33728
4634,33856
4635,33920
4636,33920
4637,33920
4638,33984
4639,33664
4640,33280
4641,33088
4642,33088
4643,33472
4644,34304
4645,35392
4646,36672
4647,38080
4648,39808
4649,41536
4650,42176
4651,41088
4652,38272
4653,34752
4654,31552
4655,29504
4656,28672
4657,28608
4658,29056
4659,29952
4660,31040
4661,32192
4662,32896
4663,33472
4664,33856
4665,34112
4666,34240
4667,34304
4668,34304
4669,34304
4670,34368
4671,34368
4672,34176
4673,33984
4674,33920
4675,33792
4676,33856
4677,34112
4678,34304
4679,34432
4680,34432
4681,34304
4682,34176
4683,34112
4684,33984
4685,33920
4686,34048
4687,34240
4688,34368
4689,34496
4690,34688
4691,34816
4692,35008
4693,35072
4694,35136
4695,35200
4696,35328
4697,35520
4698,35392
4699,35136
4700,34944
4701,34944
4702,35136
4703,35520
4704,35840
4705,35840
4706,35648
4707,35392
4708,35008
4709,34624
4710,34432
4711,34432
4712,34496
4713,34496
4714,34368
4715,34240
4716,34112
4717,33920
4718,33792
4719,33664
4720,33536
4721,33344
4722,33152
4723,33216
4724,33088
4725,32960
4726,32896
4727,32960
4728,33088
4729,33408
4730,33664
4731,33728
4732,33536
4733,33472
4734,33472
4735,33600
4736,33600
4737,33728
4738,33920
4739,34240
4740,34368
4741,34368
4742,33984
4743,33664
4744,33664
4745,33856
4746,33984
4747,33856
4748,33792
4749,33792
4750,33856
4751,33792
4752,33856
4753,33984
4754,34048
4755,34240
4756,34432
4757,34560
4758,34368
4759,34176
4760,33920
4761,33792
4762,33728
4763,33792
4764,33920
4765,33920
4766,33856
4767,33792
4768,33792
4769,33984
4770,34048
4771,33984
4772,33984
4773,34240
4774,34496
4775,34688
4776,34560
4777,34496
4778,34624
4779,34880
4780,35200
4781,35456
4782,35328
4783,35008
4784,34880
4785,34752
4786,34560
4787,34304
4788,34048
4789,33984
4790,33856
4791,33792
4792,33536
4793,33216
4794,33216
4795,33408
4796,33536
4797,33664
4798,33600
4799,33600
4800,33728
4801,33664
4802,33728
4803,33920
4804,34048
4805,34048
4806,33984
4807,34048
4808,34112
4809,33920
4810,33536
4811,33472
4812,34048
4813,35072
4814,36160
4815,37440
4816,39168
4817,40896
4818,41984
4819,41472
4820,39040
4821,35584
4822,32128
4823,29696
4824,28480
4825,28288
4826,29056
4827,30272
4828,31552
4829,32640
4830,33408
4831,34176
4832,34432
4833,34240
4834,34176
4835,34432
4836,34432
4837,34240
4838,34112
4839,33984
4840,33920
4841,33920
4842,33984
4843,34176
4844,34240
4845,34304
4846,34240
4847,34176
4848,34176
4849,34240
4850,34304
4851,34432
4852,34560
4853,34688
4854,34816
4855,34688
4856,34496
4857,34432
4858,34496
4859,34688
4860,34752
4861,34752
4862,34816
4863,34880
4864,35008
4865,35136
4866,35200
4867,35328
4868,35392
4869,35392
4870,35392
4871,35392
4872,35264
4873,35264
4874,35328
4875,35328
4876,35328
4877,35328
4878,35264
4879,35200
4880,35072
4881,35072
4882,34944
4883,34496
4884,33920
4885,33536
4886,33472
4887,33600
4888,33664
4889,33472
4890,33280
4891,33152
4892,32960
4893,32896
4894,33024
4895,33280
4896,33408
4897,33408
4898,33408
4899,33408
4900,33408
4901,33408
4902,33600
4903,33728
4904,33728
4905,33792
4906,33792
4907,33792
4908,33920
4909,33984
4910,34048
4911,34048
4912,34048
4913,33984
4914,33984
4915,34048
4916,34112
4917,34112
4918,34240
4919,34432
4920,34368
4921,34176
4922,34048
4923,33984
4924,33792
4925,33728
4926,33792
4927,33856
4928,33792
4929,33728
4930,33728
4931,33728
4932,33792
4933,33920
4934,34048
4935,34112
4936,34112
4937,34240
4938,34240
4939,34304
4940,34496
4941,34624
4942,34496
4943,34496
4944,34240
4945,33984
4946,33920
4947,33984
4948,34112
4949,34432
4950,34624
4951,34880
4952,34944
4953,34880
4954,34752
4955,34688
4956,34624
4957,34560
4958,34432
4959,34368
4960,34368
4961,34432
4962,34240
4963,33920
4964,33664
4965,33664
4966,33792
4967,34048
4968,34112
4969,33792
4970,33536
4971,33472
4972,33536
4973,33536
4974,33536
4975,33600
4976,33600
4977,33600
4978,33664
4979,33664
4980,33664
4981,33728
4982,33984
4983,34496
4984,35136
4985,35840
4986,36864
4987,38336
4988,40128
4989,41408
4990,41152
4991,38912
4992,35776
4993,32832
4994,30592
4995,29184
4996,28736
4997,28992
4998,29824
4999,30912
5000,32000
5001,32960
5002,33664
5003,34048
5004,34304
5005,34368
5006,34368
5007,34368
5008,34368
5009,34368
5010,34496
5011,34496
5012,34496
5013,34624
5014,34560
5015,34368
5016,34240
5017,34240
5018,34304
5019,34304
5020,34240
5021,34240
5022,34240
5023,34240
5024,34176
5025,34048
5026,33984
5027,33984
5028,34176
5029,34368
5030,34624
5031,34880
5032,35136
5033,35456
5034,35328
5035,34944
5036,34816
5037,34688
5038,34688
5039,34880
5040,35008
5041,35136
5042,35200
5043,35136
5044,35136
5045,35200
5046,35456
5047,35648
5048,35328
5049,34944
5050,34624
5051,34496
5052,34496
5053,34560
5054,34560
5055,34176
5056,33792
5057,33600
5058,33472
5059,33408
5060,33472
5061,33792
5062,33856
5063,33472
5064,33152
5065,33024
5066,33024
5067,33088
5068,33152
5069,33280
5070,33472
5071,33728
5072,33792
5073,33792
5074,33920
5075,33984
5076,34112
5077,34176
5078,34240
5079,34112
5080,33920
5081,33856
5082,33792
5083,33920
5084,34176
5085,34432
5086,34496
5087,34176
5088,33728
5089,33408
5090,33344
5091,33472
5092,33600
5093,33664
5094,33792
5095,33984
5096,34176
5097,34176
5098,34048
5099,34048
5100,34112
5101,34112
5102,34048
5103,34176
5104,34304
5105,34240
5106,34176
5107,34048
5108,33984
5109,33984
5110,33920
5111,33920
5112,33856
5113,33920
5114,33792
5115,33792
5116,33792
5117,33728
5118,33664
5119,33792
5120,34240
5121,34496
5122,34560
5123,34560
5124,34624
5125,34624
5126,34752
5127,34944
5128,34944
5129,35008
5130,35008
5131,35008
5132,35072
5133,35136
5134,34816
5135,34432
5136,34240
5137,34304
5138,34304
5139,33984
5140,33536
5141,33280
5142,33024
5143,33024
5144,33152
5145,33216
5146,33280
5147,33280
5148,33344
5149,33600
5150,33984
5151,34048
5152,34048
5153,34112
5154,33984
5155,33664
5156,33408
5157,33344
5158,33408
5159,33728
5160,34432
5161,35392
5162,36224
5163,37120
5164,38528
5165,40384
5166,41600
5167,41280
5168,38912
5169,35392
5170,31744
5171,29824
5172,28608
5173,28224
5174,28608
5175,29376
5176,30208
5177,31232
5178,32320
5179,33216
5180,33664
5181,33984
5182,34176
5183,34176
5184,33984
5185,33856
5186,33920
5187,33856
5188,33920
5189,33984
5190,33856
5191,33664
5192,33536
5193,33408
5194,33408
5195,33472
5196,33664
5197,33856
5198,34112
5199,34176
5200,34176
5201,34048
5202,33984
5203,33856
5204,33792
5205,33792
5206,33792
5207,33792
5208,33856
5209,33856
5210,33856
5211,33984
5212,34304
5213,34432
5214,34560
5215,34688
5216,34816
5217,34752
5218,34624
5219,34560
5220,34624
5221,34560
5222,34432
5223,34304
5224,34304
5225,34304
5226,34304
5227,34368
5228,34496
5229,34560
5230,34176
5231,33920
5232,33728
5233,33600
5234,33280
5235,32896
5236,32896
5237,33152
5238,33152
5239,32896
5240,32704
5241,32576
5242,32512
5243,32512
5244,32640
5245,32832
5246,33024
5247,33216
5248,33408
5249,33536
5250,33536
5251,33472
5252,33472
5253,33600
5254,33792
5255,33856
5256,33856
5257,33920
5258,33984
5259,34048
5260,34112
5261,34176
5262,33984
5263,33728
5264,33600
5265,33664
5266,33856
5267,33792
5268,33600
5269,33536
5270,33728
5271,33856
5272,33856
5273,33856
5274,33984
5275,34048
5276,34112
5277,34304
5278,34624
5279,34688
5280,34432
5281,34176
5282,34176
5283,34304
5284,34304
5285,34048
5286,33920
5287,33920
5288,34176
5289,34304
5290,34304
5291,34176
5292,33920
5293,33856
5294,33984
5295,34240
5296,34432
5297,34560
5298,34688
5299,34816
5300,34880
5301,34944
5302,35008
5303,35136
5304,35200
5305,35136
5306,34816
5307,34688
5308,34816
5309,35136
5310,35264
5311,35520
5312,35840
5313,35712
5314,35392
5315,35264
5316,35392
5317,35456
5318,35520
5319,35648
5320,35904
5321,35968
5322,35840
5323,35776
5324,35776
5325,35776
5326,35712
5327,35648
5328,35584
5329,35584
5330,35520
5331,35328
5332,35200
5333,35200
5334,35264
5335,35264
5336,35136
5337,35072
5338,35136
5339,35264
5340,35392
5341,35392
5342,35392
5343,35520
5344,35520
5345,35392
5346,35456
5347,35456
5348,35456
5349,35712
5350,36352
5351,37312
5352,38528
5353,39872
5354,41472
5355,43328
5356,44672
5357,44480
5358,42176
5359,38528
5360,34816
5361,32064
5362,30656
5363,30336
5364,30848
5365,31872
5366,33024
5367,34176
5368,35200
5369,35904
5370,36352
5371,36544
5372,36736
5373,36800
5374,36672
5375,36672
5376,36672
5377,36672
5378,36736
5379,36864
5380,36992
5381,36864
5382,36736
5383,36672
5384,36800
5385,36864
5386,36864
5387,36672
5388,36416
5389,36480
5390,36608
5391,36928
5392,37440
5393,37568
5394,37184
5395,36800
5396,36736
5397,36800
5398,37184
5399,37504
5400,37568
5401,37632
5402,37696
5403,37888
5404,38016
5405,38016
5406,38144
5407,38400
5408,38528
5409,38400
5410,38208
5411,38208
5412,38464
5413,38528
5414,38144
5415,37632
5416,37376
5417,37120
5418,36992
5419,36992
5420,36928
5421,36864
5422,36736
5423,36608
5424,36480
5425,36480
5426,36416
5427,36288
5428,36224
5429,36288
5430,36160
5431,35968
5432,35904
5433,36032
5434,36160
5435,36224
5436,36352
5437,36288
5438,36096
5439,35776
5440,35520
5441,35392
5442,35328
5443,35520
5444,35712
5445,35904
5446,36032
5447,36096
5448,36160
5449,36288
5450,36480
5451,36544
5452,36608
5453,36672
5454,36672
5455,36672
5456,36480
5457,36416
5458,36480
5459,36480
5460,36288
5461,36096
5462,35968
5463,36096
5464,36352
5465,36672
5466,36672
5467,36096
5468,35520
5469,35200
5470,35072
5471,35136
5472,35200
5473,35456
5474,35776
5475,35968
5476,35904
5477,35776
5478,35712
5479,35712
5480,35712
5481,35712
5482,35840
5483,35840
5484,35712
5485,35648
5486,35584
5487,35712
5488,35904
5489,35904
5490,35712
5491,35520
5492,35328
5493,35072
5494,34944
5495,35008
5496,35264
5497,35328
5498,35200
5499,35136
5500,35072
5501,35072
5502,35072
5503,35200
5504,35264
5505,35328
5506,35328
5507,35392
5508,35456
5509,35648
5510,35712
5511,35776
5512,35840
5513,35840
5514,35840
5515,35840
5516,35904
5517,36032
5518,36096
5519,36032
5520,35968
5521,35648
5522,35392
5523,35264
5524,35136
5525,34944
5526,34688
5527,34496
5528,33984
5529,33856
5530,33792
5531,33856
5532,34048
5533,34304
5534,34304
5535,34176
5536,34176
5537,34304
5538,34240
5539,34176
5540,34176
5541,34176
5542,34240
5543,34304
5544,34368
5545,34624
5546,35008
5547,35584
5548,36480
5549,37632
5550,39168
5551,41024
5552,42496
5553,42496
5554,40576
5555,37184
5556,33408
5557,30336
5558,28480
5559,27840
5560,27840
5561,29248
5562,30336
5563,31424
5564,32256
5565,32896
5566,33408
5567,33728
5568,33984
5569,34176
5570,34304
5571,34304
5572,34368
5573,34496
5574,34432
5575,34112
5576,33984
5577,33600
5578,33472
5579,33472
5580,33600
5581,33728
5582,33792
5583,33920
5584,34048
5585,34048
5586,33984
5587,33856
5588,33792
5589,33792
5590,33792
5591,34112
5592,34304
5593,34304
5594,34368
5595,34304
5596,34368
5597,34432
5598,34496
5599,34432
5600,34432
5601,34560
5602,34880
5603,34816
5604,34496
5605,34112
5606,34112
5607,34240
5608,34240
5609,34432
5610,34368
5611,34688
5612,34880
5613,34816
5614,34560
5615,34240
5616,33920
5617,33728
5618,33664
5619,33536
5620,33408
5621,33152
5622,32832
5623,32768
5624,32832
5625,32704
5626,32576
5627,32448
5628,32320
5629,32192
5630,32128
5631,32192
5632,32320
5633,32512
5634,32768
5635,32896
5636,32832
5637,32704
5638,32640
5639,32640
5640,32640
5641,32768
5642,32832
5643,32896
5644,32896
5645,32896
5646,32960
5647,33088
5648,33216
5649,33280
5650,33152
5651,32960
5652,33024
5653,33280
5654,33344
5655,33216
5656,33216
5657,33152
5658,33088
5659,33024
5660,33088
5661,33152
5662,33152
5663,33152
5664,33088
5665,32896
5666,32768
5667,32704
5668,32704
5669,32832
5670,32960
5671,33024
5672,33088
5673,33280
5674,33536
5675,33472
5676,33408
5677,33152
5678,33152
5679,33088
5680,32960
5681,32768
5682,32704
5683,32768
5684,32896
5685,32896
5686,33024
5687,33088
5688,33216
5689,33216
5690,33216
5691,33152
5692,32960
5693,32832
5694,32960
5695,33088
5696,33216
5697,33344
5698,33408
5699,33216
5700,32832
5701,32576
5702,32640
5703,32704
5704,32832
5705,33152
5706,33472
5707,33728
5708,33728
5709,33728
5710,33664
5711,33664
5712,33664
5713,33728
5714,33920
5715,34176
5716,34368
5717,34368
5718,34176
5719,33984
5720,33856
5721,33664
5722,33472
5723,33536
5724,33344
5725,33024
5726,32768
5727,32704
5728,32704
5729,32640
5730,32576
5731,32576
5732,32512
5733,32448
5734,32512
5735,32832
5736,33280
5737,33344
5738,33024
5739,32768
5740,32768
5741,32768
5742,32768
5743,32960
5744,33088
5745,33024
5746,33344
5747,33536
5748,34048
5749,34752
5750,35840
5751,37312
5752,39104
5753,40768
5754,41344
5755,40192
5756,37184
5757,33536
5758,30208
5759,28096
5760,27264
5761,27328
5762,28096
5763,29312
5764,30592
5765,31616
5766,32256
5767,32768
5768,33088
5769,33152
5770,33088
5771,33088
5772,33216
5773,33216
5774,33152
5775,33088
5776,33024
5777,33152
5778,33344
5779,33408
5780,33408
5781,33280
5782,33280
5783,33280
5784,33280
5785,33280
5786,33216
5787,33152
5788,33088
5789,33280
5790,33280
5791,33728
5792,33728
5793,33600
5794,33472
5795,33472
5796,33536
5797,33664
5798,33856
5799,34048
5800,34304
5801,34304
5802,34176
5803,34112
5804,34112
5805,34176
5806,34368
5807,34368
5808,34496
5809,34688
5810,34816
5811,34560
5812,34240
5813,33984
5814,33536
5815,33472
5816,33600
5817,33408
5818,33152
5819,32896
5820,32832
5821,32896
5822,32576
5823,32384
5824,32320
5825,32384
5826,32640
5827,32960
5828,32960
5829,32704
5830,32512
5831,32576
5832,32832
5833,32640
5834,32320
5835,32256
5836,32448
5837,32768
5838,32896
5839,33024
5840,33088
5841,33024
5842,32896
5843,32896
5844,33152
5845,33344
5846,33216
5847,33024
5848,32960
5849,33152
5850,33216
5851,33088
5852,33024
5853,33216
5854,33408
5855,33536
5856,33600
5857,33408
5858,33344
5859,33152
5860,33216
5861,33216
5862,33024
5863,33024
5864,33216
5865,33344
5866,33344
5867,33280
5868,33088
5869,33088
5870,33344
5871,33344
5872,33280
5873,33344
5874,33216
5875,32960
5876,32896
5877,32960
5878,33152
5879,33344
5880,33280
5881,33344
5882,33408
5883,33536
5884,33536
5885,33408
5886,33472
5887,33536
5888,33344
5889,33216
5890,33216
5891,33280
5892,33024
5893,32896
5894,33088
5895,33088
5896,33408
5897,33344
5898,33280
5899,33216
5900,33216
5901,33216
5902,33280
5903,33280
5904,33472
5905,33792
5906,33920
5907,33984
5908,33856
5909,33664
5910,33984
5911,34432
5912,34048
5913,32960
5914,31936
5915,31680
5916,32000
5917,32384
5918,32960
5919,33408
5920,33856
5921,34304
5922,34624
5923,34816
5924,35008
5925,35072
5926,35008
5927,34688
5928,34304
5929,33984
5930,33856
5931,33856
5932,33792
5933,33664
5934,33536
5935,33472
5936,33472
5937,33344
5938,33152
5939,32896
5940,32832
5941,32768
5942,33024
5943,33216
5944,33152
5945,33152
5946,33216
5947,33408
5948,33472
5949,33536
5950,33600
5951,33472
5952,33408
5953,33536
5954,33920
5955,34624
5956,35456
5957,36480
5958,37760
5959,39552
5960,41216
5961,41792
5962,40256
5963,36928
5964,33024
5965,29952
5966,28224
5967,27776
5968,28288
5969,29312
5970,30336
5971,31296
5972,32256
5973,32832
5974,33344
5975,33600
5976,33664
5977,33600
5978,33536
5979,33600
5980,33728
5981,33792
5982,33920
5983,34112
5984,34112
5985,34048
5986,34048
5987,34048
5988,33920
5989,33792
5990,33472
5991,33344
5992,33536
5993,33664
5994,33728
5995,33728
5996,33664
5997,33600
5998,33600
5999,33792
6000,33920
6001,33920
6002,33920
6003,34048
6004,34176
6005,34368
6006,34560
6007,34752
6008,34880
6009,35008
6010,35072
6011,35072
6012,35008
6013,35008
6014,35136
6015,35136
6016,34944
6017,34688
6018,34496
6019,34496
6020,34496
6021,34368
6022,34368
6023,34368
6024,34176
6025,33856
6026,33664
6027,33536
6028,33344
6029,33280
6030,33280
6031,33280
6032,33280
6033,33344
6034,33280
6035,33152
6036,33024
6037,32896
6038,32896
6039,32896
6040,33024
6041,33408
6042,33536
6043,33280
6044,33152
6045,33152
6046,33088
6047,33024
6048,32768
6049,32768
6050,32896
6051,33088
6052,33408
6053,33728
6054,33792
6055,33600
6056,33536
6057,33600
6058,33664
6059,33664
6060,33600
6061,33728
6062,33856
6063,33920
6064,33984
6065,33856
6066,33664
6067,33728
6068,33728
6069,33728
6070,33664
6071,33664
6072,33664
6073,33728
6074,33536
6075,33408
6076,33472
6077,33280
6078,33216
6079,33280
6080,33408
6081,33600
6082,33920
6083,34176
6084,34048
6085,33728
6086,33408
6087,33216
6088,33088
6089,33152
6090,33408
6091,33472
6092,33472
6093,33600
6094,33792
6095,33920
6096,33792
6097,33536
6098,33472
6099,33472
6100,33536
6101,33600
6102,33728
6103,33920
6104,33984
6105,33984
6106,34176
6107,34176
6108,33984
6109,33792
6110,33792
6111,33920
6112,34112
6113,34240
6114,34304
6115,34496
6116,34688
6117,34752
6118,34560
6119,34112
6120,33856
6121,33728
6122,33600
6123,33472
6124,33408
6125,33344
6126,33408
6127,33600
6128,33664
6129,33472
6130,33344
6131,33280
6132,33280
6133,33472
6134,33728
6135,33792
6136,33856
6137,34048
6138,33920
6139,33664
6140,33536
6141,33472
6142,33408
6143,33408
6144,33920
6145,34816
6146,35584
6147,36352
6148,37632
6149,39424
6150,40960
6151,41216
6152,39616
6153,36608
6154,33408
6155,30912
6156,29504
6157,29184
6158,29376
6159,29696
6160,30336
6161,31232
6162,32320
6163,33088
6164,33600
6165,33920
6166,34112
6167,34304
6168,34496
6169,34432
6170,34176
6171,33984
6172,33920
6173,33856
6174,33920
6175,33984
6176,33984
6177,33984
6178,34176
6179,34240
6180,34112
6181,33728
6182,33536
6183,33664
6184,33728
6185,33856
6186,34048
6187,33920
6188,33664
6189,33600
6190,33728
6191,33920
6192,34112
6193,34368
6194,34496
6195,34432
6196,34304
6197,34176
6198,34240
6199,34432
6200,34688
6201,34816
6202,34752
6203,34816
6204,34944
6205,35072
6206,35072
6207,35008
6208,34816
6209,34624
6210,34368
6211,34176
6212,34112
6213,33984
6214,33920
6215,33984
6216,33920
6217,33664
6218,33408
6219,33280
6220,33344
6221,33344
6222,33216
6223,33024
6224,33024
6225,32960
6226,32896
6227,32960
6228,33024
6229,33088
6230,33088
6231,33152
6232,33216
6233,33216
6234,33280
6235,33344
6236,33536
6237,33600
6238,33536
6239,33408
6240,33408
6241,33472
6242,33600
6243,33664
6244,33664
6245,33664
6246,33728
6247,33792
6248,33920
6249,34112
6250,34048
6251,33920
6252,33984
6253,34048
6254,33920
6255,33600
6256,33344
6257,33216
6258,33408
6259,33792
6260,33984
6261,33984
6262,34048
6263,34048
6264,34048
6265,34048
6266,34048
6267,34048
6268,34112
6269,34176
6270,34368
6271,34240
6272,33856
6273,33600
6274,33472
6275,33536
6276,33664
6277,33600
6278,33472
6279,33472
6280,33536
6281,33664
6282,33856
6283,33984
6284,33984
6285,33984
6286,34048
6287,34176
6288,33984
6289,33920
6290,33984
6291,34112
6292,34176
6293,33856
6294,33664
6295,33600
6296,33472
6297,33536
6298,33792
6299,33984
6300,34176
6301,34304
6302,34496
6303,34688
6304,34752
6305,34624
6306,34560
6307,34496
6308,34496
6309,34624
6310,34688
6311,34688
6312,34688
6313,34560
6314,34432
6315,34368
6316,34368
6317,34304
6318,34304
6319,34304
6320,34240
6321,33984
6322,33664
6323,33344
6324,33152
6325,33088
6326,33088
6327,33088
6328,33088
6329,33216
6330,33408
6331,33472
6332,33600
6333,33664
6334,33728
6335,33728
6336,33856
6337,33920
6338,33920
6339,33984
6340,34176
6341,34624
6342,35072
6343,35776
6344,36672
6345,37888
6346,39424
6347,41280
6348,42688
6349,42496
6350,40064
6351,36736
6352,33088
6353,30144
6354,28416
6355,27904
6356,28480
6357,29696
6358,30784
6359,31808
6360,32768
6361,33408
6362,33792
6363,34048
6364,34368
6365,34496
6366,34368
6367,34240
6368,34112
6369,34112
6370,34240
6371,34432
6372,34432
6373,34496
6374,34496
6375,34304
6376,34176
6377,34240
6378,34496
6379,34624
6380,34624
6381,34688
6382,34688
6383,34432
6384,34112
6385,33856
6386,33856
6387,33984
6388,34176
6389,34304
6390,34496
6391,34560
6392,34688
6393,34880
6394,35072
6395,35136
6396,35136
6397,35200
6398,35200
6399,35264
6400,35392
6401,35456
6402,35328
6403,35264
6404,35328
6405,35456
6406,35648
6407,35648
6408,35392
6409,35136
6410,34752
6411,34368
6412,34112
6413,34048
6414,33984
6415,33984
6416,33856
6417,33664
6418,33408
6419,33280
6420,33152
6421,33024
6422,33088
6423,33216
6424,33344
6425,33408
6426,33408
6427,33280
6428,33088
6429,33024
6430,33088
6431,33280
6432,33472
6433,33664
6434,33792
6435,33600
6436,33408
6437,33344
6438,33408
6439,33472
6440,33600
6441,33792
6442,33792
6443,33856
6444,33984
6445,34048
6446,33984
6447,33984
6448,34240
6449,34496
6450,34496
6451,34304
6452,34048
6453,33984
6454,33920
6455,33856
6456,33984
6457,34112
6458,34368
6459,34432
6460,34240
6461,33920
6462,33600
6463,33408
6464,33280
6465,33408
6466,33728
6467,33920
6468,33984
6469,33984
6470,34048
6471,34048
6472,34112
6473,34112
6474,34048
6475,34048
6476,33984
6477,33984
6478,34112
6479,34304
6480,34240
6481,34112
6482,34048
6483,33984
6484,33984
6485,34176
6486,34240
6487,34112
6488,34112
6489,34304
6490,34304
6491,34240
6492,33984
6493,33600
6494,33408
6495,33280
6496,33344
6497,33472
6498,33664
6499,34048
6500,34368
6501,34624
6502,34816
6503,35136
6504,35264
6505,35328
6506,35328
6507,35392
6508,35392
6509,35264
6510,35008
6511,34752
6512,34560
6513,34432
6514,34368
6515,34368
6516,34304
6517,34240
6518,34176
6519,33984
6520,33728
6521,33792
6522,33856
6523,33664
6524,33344
6525,33152
6526,33216
6527,33408
6528,33472
6529,33472
6530,33600
6531,33856
6532,34112
6533,34176
6534,34112
6535,33856
6536,33664
6537,33664
6538,33856
6539,34496
6540,35392
6541,36288
6542,37376
6543,38656
6544,40512
6545,41792
6546,41984
6547,40320
6548,37120
6549,33408
6550,30656
6551,28928
6552,28352
6553,28800
6554,29888
6555,31040
6556,32256
6557,33088
6558,33536
6559,33600
6560,33728
6561,33920
6562,34176
6563,34240
6564,34240
6565,34304
6566,34368
6567,34368
6568,34304
6569,34240
6570,34112
6571,33984
6572,34112
6573,34240
6574,34112
6575,34112
6576,34112
6577,34368
6578,34560
6579,34624
6580,34560
6581,34432
6582,34304
6583,34304
6584,34368
6585,34560
6586,34688
6587,34560
6588,34496
6589,34560
6590,34688
6591,34880
6592,34944
6593,35008
6594,35008
6595,35136
6596,35200
6597,35136
6598,35264
6599,35392
6600,35456
6601,35456
6602,35392
6603,35392
6604,35328
6605,35264
6606,35008
6607,34688
6608,34496
6609,34368
6610,34368
6611,34240
6612,33920
6613,33792
6614,33664
6615,33344
6616,33024
6617,32960
6618,32896
6619,32832
6620,32832
6621,32960
6622,33152
6623,33280
6624,33152
6625,33024
6626,32896
6627,32768
6628,32768
6629,32960
6630,33088
6631,33152
6632,33408
6633,33664
6634,33600
6635,33472
6636,33408
6637,33408
6638,33536
6639,33664
6640,33792
6641,33984
6642,33984
6643,33920
6644,33792
6645,33664
6646,33472
6647,33408
6648,33344
6649,33344
6650,33280
6651,33216
6652,33280
6653,33408
6654,33536
6655,33664
6656,33792
6657,33856
6658,33856
6659,33856
6660,33856
6661,33984
6662,34112
6663,34112
6664,33920
6665,33792
6666,33664
6667,33408
6668,33280
6669,33344
6670,33408
6671,33472
6672,33600
6673,33728
6674,33856
6675,33984
6676,34112
6677,34112
6678,34048
6679,33920
6680,33920
6681,33856
6682,33920
6683,33984
6684,33920
6685,33792
6686,33792
6687,33984
6688,34112
6689,33920
6690,33664
6691,33600
6692,33600
6693,33664
6694,33792
6695,34112
6696,34432
6697,34624
6698,34688
6699,35008
6700,35136
6701,35072
6702,34944
6703,35008
6704,35200
6705,35200
6706,35264
6707,35520
6708,35520
6709,35328
6710,35264
6711,35200
6712,35072
6713,34880
6714,34560
6715,34112
6716,33792
6717,33728
6718,33728
6719,33792
6720,33856
6721,33984
6722,34048
6723,34048
6724,34176
6725,34368
6726,34368
6727,34304
6728,34368
6729,34560
6730,34688
6731,34688
6732,34752
6733,34816
6734,34816
6735,35008
6736,35392
6737,36032
6738,36864
6739,38016
6740,39744
6741,41600
6742,43136
6743,43264
6744,41472
6745,38208
6746,34560
6747,31616
6748,29952
6749,29696
6750,30400
6751,31360
6752,32192
6753,33088
6754,33984
6755,34752
6756,35136
6757,35520
6758,35776
6759,35840
6760,35904
6761,36032
6762,36160
6763,36096
6764,35840
6765,35648
6766,35712
6767,35904
6768,36032
6769,36224
6770,36416
6771,36416
6772,36416
6773,36480
6774,36480
6775,36416
6776,36352
6777,36160
6778,36224
6779,36416
6780,36544
6781,36608
6782,36736
6783,36928
6784,37184
6785,37376
6786,37504
6787,37632
6788,37632
6789,37632
6790,37952
6791,38208
6792,38272
6793,38336
6794,38336
6795,38336
6796,38080
6797,37888
6798,37824
6799,37888
6800,37952
6801,38080
6802,38144
6803,38144
6804,38080
6805,38016
6806,37952
6807,37824
6808,37696
6809,37440
6810,37312
6811,37120
6812,36992
6813,36864
6814,36736
6815,36736
6816,36800
6817,36864
6818,36672
6819,36480
6820,36480
6821,36608
6822,36608
6823,36736
6824,36928
6825,36992
6826,36992
6827,36992
6828,37056
6829,37120
6830,37184
6831,37248
6832,37312
6833,37312
6834,37440
6835,37568
6836,37824
6837,38016
6838,37952
6839,37760
6840,37696
6841,37824
6842,37760
6843,37568
6844,37440
6845,37440
6846,37504
6847,37632
6848,37696
6849,37760
6850,37888
6851,38016
6852,38016
6853,37888
6854,37760
6855,37760
6856,37760
6857,37696
6858,37632
6859,37632
6860,37696
6861,37632
6862,37632
6863,37632
6864,37696
6865,37888
6866,37952
6867,37952
6868,37824
6869,37632
6870,37632
6871,37696
6872,37760
6873,37696
6874,37696
6875,37632
6876,37760
6877,37760
6878,37696
6879,37760
6880,37760
6881,37760
6882,37760
6883,37824
6884,37888
6885,37952
6886,37824
6887,37696
6888,37632
6889,37696
6890,37760
6891,38080
6892,38336
6893,38400
6894,38464
6895,38400
6896,38400
6897,38400
6898,38400
6899,38464
6900,38528
6901,38592
6902,38656
6903,38720
6904,38720
6905,38592
6906,38464
6907,38336
6908,38144
6909,37888
6910,37568
6911,37312
6912,37248
6913,37120
6914,36864
6915,36800
6916,36928
6917,36992
6918,36928
6919,36928
6920,36928
6921,36928
6922,36992
6923,37056
6924,37184
6925,37184
6926,37120
6927,37056
6928,37120
6929,37120
6930,36928
6931,36992
6932,37376
6933,38016
6934,38848
6935,40064
6936,41536
6937,43328
6938,44736
6939,44608
6940,42752
6941,39680
6942,36224
6943,33088
6944,31232
6945,30720
6946,31232
6947,32256
6948,33408
6949,34432
6950,35200
6951,35776
6952,36160
6953,36416
6954,36672
6955,36864
6956,36864
6957,36672
6958,36480
6959,36480
6960,36480
6961,36416
6962,36160
6963,35904
6964,35776
6965,35712
6966,35648
6967,35648
6968,35776
6969,35904
6970,36224
6971,36608
6972,36736
6973,36416
6974,36096
6975,35904
6976,35776
6977,35776
6978,35904
6979,36224
6980,36352
6981,36288
6982,36224
6983,36224
6984,36352
6985,36416
6986,36416
6987,36352
6988,36608
6989,36800
6990,36800
6991,36608
6992,36288
6993,36096
6994,36096
6995,36160
6996,36288
6997,36352
6998,36416
6999,36416
7000,36224
7001,36032
7002,35904
7003,35840
7004,35712
7005,35264
7006,34816
7007,34624
7008,34624
7009,34496
7010,34240
7011,34048
7012,34048
7013,33920
7014,33792
7015,33728
7016,33728
7017,33792
7018,33856
7019,33856
7020,33856
7021,33920
7022,34048
7023,34240
7024,34304
7025,34176
7026,34048
7027,33920
7028,33920
7029,33984
7030,34048
7031,34176
7032,34240
7033,34240
7034,34176
7035,34240
7036,34432
7037,34496
7038,34368
7039,34432
7040,34432
7041,34304
7042,34240
7043,34112
7044,34048
7045,33920
7046,33664
7047,33472
7048,33408
7049,33408
7050,33344
7051,33344
7052,33472
7053,33600
7054,33600
7055,33600
7056,33664
7057,33600
7058,33536
7059,33472
7060,33408
7061,33408
7062,33472
7063,33600
7064,33728
7065,33984
7066,34112
7067,33984
7068,33664
7069,33536
7070,33408
7071,33536
7072,33536
7073,33472
7074,33536
7075,33408
7076,33024
7077,32576
7078,32512
7079,32576
7080,32704
7081,32832
7082,32960
7083,33088
7084,33216
7085,33344
7086,33536
7087,33728
7088,33920
7089,34112
7090,34304
7091,34368
7092,34368
7093,34240
7094,34176
7095,34240
7096,34304
7097,34368
7098,34112
7099,33728
7100,33280
7101,32960
7102,32960
7103,33152
7104,33216
7105,33088
7106,32832
7107,32640
7108,32576
7109,32576
7110,32576
7111,32704
7112,32768
7113,32768
7114,32832
7115,32768
7116,32704
7117,32832
7118,32832
7119,32768
7120,32704
7121,32832
7122,32960
7123,33088
7124,33024
7125,33024
7126,33280
7127,33856
7128,34688
7129,35776
7130,37376
7131,39104
7132,40512
7133,40512
7134,38592
7135,35328
7136,31936
7137,29440
7138,27968
7139,27520
7140,27840
7141,28672
7142,29760
7143,30784
7144,31680
7145,32384
7146,32704
7147,32832
7148,32896
7149,33024
7150,33280
7151,33408
7152,33216
7153,32768
7154,32640
7155,32640
7156,32640
7157,32768
7158,32960
7159,33088
7160,33088
7161,33024
7162,33088
7163,33088
7164,33088
7165,33088
7166,33152
7167,33216
7168,33088
7169,32960
7170,32896
7171,32960
7172,33024
7173,33152
7174,33408
7175,33536
7176,33664
7177,33792
7178,33792
7179,33920
7180,33920
7181,33984
7182,33984
7183,34048
7184,34112
7185,34176
7186,34368
7187,34432
7188,34304
7189,34048
7190,33856
7191,33920
7192,33920
7193,33728
7194,33536
7195,33664
7196,33664
7197,33472
7198,33280
7199,33152
7200,33088
7201,32896
7202,32576
7203,32448
7204,32576
7205,32512
7206,32192
7207,31872
7208,31744
7209,31808
7210,31808
7211,31744
7212,31936
7213,32256
7214,32448
7215,32320
7216,32192
7217,32256
7218,32320
7219,32320
7220,32384
7221,32512
7222,32576
7223,32704
7224,32832
7225,32896
7226,32768
7227,32640
7228,32640
7229,32704
7230,32832
7231,32832
7232,32896
7233,33024
7234,33024
7235,32896
7236,32960
7237,33088
7238,33216
7239,33152
7240,33088
7241,33088
7242,33088
7243,33152
7244,33152
7245,32832
7246,32576
7247,32384
7248,32448
7249,32576
7250,32704
7251,32768
7252,32832
7253,32896
7254,33024
7255,33088
7256,33152
7257,33216
7258,33280
7259,33280
7260,33280
7261,33216
7262,33152
7263,33152
7264,33152
7265,33280
7266,33408
7267,33472
7268,33344
7269,33088
7270,32960
7271,33024
7272,33152
7273,33408
7274,33728
7275,33984
7276,33920
7277,33792
7278,33792
7279,33792
7280,33920
7281,34048
7282,33920
7283,33728
7284,33408
7285,32960
7286,32576
7287,32320
7288,32192
7289,32256
7290,32192
7291,32256
7292,32256
7293,32320
7294,32512
7295,32768
7296,32896
7297,33024
7298,32960
7299,32960
7300,33088
7301,33152
7302,32832
7303,32448
7304,32256
7305,32256
7306,32256
7307,32576
7308,33408
7309,34496
7310,35840
7311,37568
7312,39488
7313,40704
7314,40128
7315,37696
7316,34560
7317,31744
7318,29760
7319,28736
7320,28416
7321,28800
7322,29440
7323,30208
7324,31104
7325,32064
7326,32640
7327,32832
7328,32896
7329,33024
7330,33024
7331,33088
7332,33152
7333,33216
7334,33280
7335,33344
7336,33344
7337,33408
7338,33408
7339,33472
7340,33536
7341,33600
7342,33664
7343,33664
7344,33600
7345,33536
7346,33600
7347,33664
7348,33920
7349,34048
7350,33984
7351,33664
7352,33344
7353,33344
7354,33408
7355,33344
7356,33600
7357,33728
7358,33792
7359,33856
7360,33920
7361,34112
7362,34176
7363,34176
7364,34176
7365,34304
7366,34432
7367,34560
7368,34752
7369,34944
7370,35008
7371,34688
7372,34240
7373,33728
7374,33280
7375,33216
7376,33216
7377,33152
7378,32896
7379,32704
7380,32512
7381,32384
7382,32384
7383,32448
7384,32512
7385,32576
7386,32896
7387,33088
7388,32960
7389,32640
7390,32576
7391,32192
7392,32192
7393,32192
7394,32192
7395,32320
7396,32512
7397,32576
7398,32576
7399,32768
7400,32768
7401,33536
7402,33792
7403,33216
7404,32704
7405,32448
7406,32320
7407,32320
7408,32576
7409,32896
7410,33088
7411,33152
7412,33216
7413,33664
7414,34368
7415,34432
7416,33920
7417,33152
7418,32640
7419,32384
7420,32320
7421,32384
7422,32448
7423,32640
7424,32960
7425,33408
7426,33536
7427,33408
7428,33344
7429,33408
7430,33408
7431,33280
7432,33280
7433,33280
7434,33408
7435,33344
7436,33536
7437,33536
7438,33600
7439,33728
7440,33792
7441,33920
7442,33920
7443,33792
7444,33344
7445,33280
7446,32704
7447,32512
7448,32512
7449,32640
7450,32768
7451,32896
7452,33024
7453,33216
7454,33344
7455,33664
7456,33920
7457,33984
7458,33984
7459,34240
7460,34240
7461,34624
7462,34496
7463,34560
7464,34944
7465,35456
7466,34944
7467,33536
7468,32448
7469,31936
7470,31936
7471,32320
7472,32704
7473,32768
7474,32832
7475,32896
7476,33024
7477,33216
7478,33344
7479,33344
7480,33088
7481,32960
7482,33024
7483,33088
7484,33152
7485,33216
7486,33408
7487,33536
7488,33600
7489,33600
7490,33536
7491,33280
7492,32896
7493,32896
7494,33216
7495,34112
7496,35328
7497,36544
7498,38080
7499,40000
7500,41728
7501,42176
7502,40512
7503,36928
7504,32064
7505,31616
7506,27904
7507,27392
7508,27840
7509,28672
7510,29632
7511,30656
7512,31744
7513,32576
7514,33152
7515,33600
7516,33792
7517,33984
7518,34048
7519,34112
7520,33984
7521,33600
7522,33280
7523,33088
7524,32832
7525,32960
7526,33344
7527,33408
7528,33344
7529,33344
7530,33152
7531,32960
7532,33024
7533,33280
7534,33664
7535,33600
7536,33984
7537,34176
7538,34176
7539,34176
7540,34304
7541,34368
7542,34368
7543,34240
7544,34240
7545,34176
7546,34176
7547,34176
7548,34432
7549,35136
7550,35136
7551,34944
7552,34432
7553,34240
7554,34368
7555,34432
7556,34432
7557,34560
7558,34752
7559,34880
7560,35136
7561,35200
7562,34944
7563,34688
7564,34560
7565,34496
7566,34176
7567,33984
7568,33728
7569,33472
7570,33472
7571,33472
7572,33728
7573,33664
7574,33216
7575,32512
7576,31936
7577,31616
7578,31680
7579,31808
7580,31936
7581,32256
7582,32512
7583,32640
7584,32704
7585,32768
7586,32896
7587,32960
7588,33088
7589,33280
7590,33536
7591,33728
7592,34048
7593,34048
7594,33728
7595,33600
7596,33216
7597,33216
7598,33664
7599,34176
7600,33984
7601,33536
7602,33344
7603,33792
7604,34112
7605,33600
7606,32960
7607,32704
7608,32832
7609,33216
7610,33216
7611,33728
7612,33984
7613,33984
7614,33792
7615,33664
7616,33536
7617,33536
7618,33664
7619,33664
7620,33600
7621,33536
7622,33536
7623,33600
7624,33792
7625,33984
7626,34112
7627,34112
7628,33792
7629,33536
7630,33408
7631,33536
7632,33920
7633,34240
7634,34368
7635,34496
7636,34368
7637,34304
7638,34176
7639,34368
7640,34368
7641,34624
7642,34432
7643,34304
7644,34240
7645,34176
7646,34112
7647,34048
7648,33984
7649,33920
7650,33856
7651,33664
7652,33536
7653,33536
7654,33472
7655,33408
7656,33280
7657,33280
7658,33344
7659,33536
7660,33728
7661,33792
7662,33728
7663,33600
7664,33472
7665,33408
7666,33344
7667,33216
7668,33216
7669,33280
7670,33216
7671,33472
7672,33792
7673,34368
7674,35008
7675,35776
7676,36800
7677,38080
7678,39616
7679,40832
7680,40640
7681,38784
7682,35776
7683,32832
7684,30720
7685,29440
7686,28928
7687,29184
7688,29952
7689,30848
7690,31168
7691,31488
7692,32000
7693,32640
7694,33088
7695,33472
7696,33664
7697,33920
7698,34240
7699,34496
7700,34432
7701,33792
7702,33472
7703,33472
7704,33536
7705,33664
7706,33792
7707,34048
7708,34048
7709,34048
7710,34112
7711,34176
7712,34368
7713,34624
7714,35072
7715,35136
7716,34880
7717,34112
7718,33408
7719,33152
7720,33408
7721,33728
7722,33792
7723,33856
7724,34112
7725,34368
7726,34688
7727,34944
7728,35136
7729,35328
7730,35456
7731,35584
7732,35648
7733,35520
7734,35264
7735,35072
7736,35072
7737,35136
7738,35136
7739,35072
7740,34944
7741,34944
7742,35392
7743,35584
7744,34368
7745,34176
7746,33024
7747,32896
7748,32640
7749,32448
7750,32320
7751,32320
7752,32448
7753,32640
7754,32896
7755,33088
7756,33152
7757,33216
7758,33216
7759,33088
7760,33024
7761,33088
7762,33152
7763,33344
7764,33472
7765,33472
7766,33536
7767,33600
7768,33536
7769,33408
7770,33216
7771,33024
7772,33088
7773,33280
7774,33600
7775,33600
7776,33856
7777,34240
7778,34368
7779,34176
7780,33664
7781,33152
7782,32832
7783,33024
7784,33408
7785,33472
7786,33280
7787,33152
7788,33152
7789,33152
7790,33280
7791,33408
7792,33728
7793,33984
7794,34112
7795,34112
7796,34048
7797,34048
7798,33984
7799,33920
7800,34112
7801,34560
7802,34752
7803,34176
7804,33216
7805,32384
7806,32064
7807,32128
7808,32512
7809,32896
7810,33280
7811,33664
7812,34048
7813,34304
7814,34560
7815,34688
7816,34816
7817,34944
7818,34944
7819,34752
7820,34688
7821,34496
7822,34432
7823,34368
7824,34240
7825,34048
7826,33792
7827,33600
7828,33728
7829,33728
7830,33216
7831,32576
7832,32384
7833,32384
7834,32448
7835,32512
7836,32640
7837,32832
7838,33088
7839,33280
7840,33472
7841,33600
7842,33600
7843,33600
7844,33600
7845,33600
7846,33728
7847,34176
7848,34816
7849,36096
7850,36160
7851,38272
7852,40064
7853,41280
7854,40704
7855,38144
7856,34752
7857,31680
7858,29632
7859,28608
7860,28288
7861,28608
7862,29376
7863,30400
7864,31360
7865,32256
7866,33024
7867,33536
7868,33920
7869,34240
7870,34496
7871,34624
7872,34560
7873,34496
7874,34496
7875,34496
7876,34240
7877,33984
7878,33600
7879,33280
7880,33088
7881,33024
7882,33152
7883,33344
7884,33536
7885,33792
7886,34048
7887,34304
7888,34432
7889,34368
7890,34304
7891,34560
7892,34752
7893,34624
7894,34496
7895,34496
7896,34368
7897,34112
7898,34176
7899,34240
7900,34240
7901,34176
7902,34240
7903,34368
7904,34624
7905,34816
7906,34944
7907,35008
7908,35072
7909,35136
7910,35072
7911,34944
7912,35008
7913,35072
7914,35136
7915,35072
7916,34944
7917,34752
7918,34624
7919,34496
7920,34304
7921,33984
7922,33856
7923,33536
7924,33152
7925,32896
7926,32576
7927,32448
7928,32512
7929,32640
7930,32832
7931,33024
7932,33216
7933,33344
7934,33472
7935,33472
7936,33600
7937,33600
7938,33664
7939,33664
7940,33792
7941,33856
7942,33856
7943,33856
7944,33984
7945,33984
7946,33984
7947,33920
7948,33728
7949,33536
7950,33344
7951,33152
7952,33088
7953,33216
7954,33600
7955,33536
7956,33728
7957,33792
7958,33984
7959,34112
7960,34048
7961,34048
7962,34176
7963,34240
7964,34112
7965,33856
7966,33664
7967,33664
7968,33664
7969,33600
7970,33600
7971,33536
7972,33664
7973,33856
7974,34048
7975,34176
7976,34240
7977,34240
7978,34304
7979,34432
7980,34624
7981,34752
7982,34816
7983,34752
7984,34688
7985,34624
7986,34624
7987,34752
7988,34752
7989,34688
7990,34432
7991,33920
7992,33024
7993,32320
7994,32192
7995,32256
7996,32384
7997,32512
7998,32640
7999,32768
8000,32960
8001,33088
8002,33216
8003,33472
8004,33664
8005,33728
8006,33728
8007,33728
8008,33856
8009,34112
8010,34176
8011,34048
8012,33984
8013,34176
8014,34880
8015,34944
8016,36096
8017,37376
8018,38848
8019,39488
8020,38528
8021,36160
8022,33536
8023,31296
8024,29888
8025,29248
8026,29248
8027,29760
8028,30720
8029,32256
8030,32960
8031,33536
8032,33728
8033,33728
8034,33600
8035,33472
8036,33408
8037,33344
8038,33344
8039,33408
8040,33536
8041,33728
8042,33856
8043,33920
8044,33984
8045,34176
8046,34368
8047,34496
8048,34560
8049,34560
8050,34496
8051,34368
8052,34176
8053,34048
8054,33984
8055,33920
8056,33984
8057,34304
8058,34432
8059,34368
8060,34240
8061,34176
8062,34304
8063,34432
8064,34496
8065,34688
8066,34880
8067,35136
8068,35328
8069,35392
8070,35264
8071,35136
8072,35200
8073,35392
8074,35328
8075,34944
8076,34496
8077,34304
8078,34240
8079,34240
8080,34240
8081,34240
8082,34304
8083,34304
8084,34176
8085,33920
8086,33728
8087,33600
8088,33472
8089,33472
8090,33600
8091,33728
8092,33600
8093,33472
8094,33536
8095,33792
8096,33920
8097,33728
8098,33536
8099,33408
8100,33152
8101,32960
8102,33088
8103,33280
8104,33472
8105,33600
8106,33472
8107,33344
8108,33280
8109,33280
8110,33408
8111,33472
8112,33664
8113,33984
8114,34048
8115,33984
8116,34112
8117,34624
8118,34880
8119,34304
8120,33472
8121,32896
8122,32704
8123,32832
8124,33088
8125,33344
8126,33664
8127,33856
8128,33920
8129,33920
8130,33856
8131,33856
8132,33856
8133,33920
8134,33920
8135,33920
8136,33856
8137,33856
8138,33920
8139,34176
8140,34368
8141,34304
8142,34048
8143,33728
8144,33600
8145,33664
8146,33664
8147,33792
8148,33856
8149,33856
8150,33856
8151,33920
8152,34112
8153,34496
8154,34816
8155,34752
8156,34496
8157,34304
8158,34304
8159,34432
8160,34368
8161,34176
8162,33856
8163,33536
8164,33216
8165,32896
8166,32768
8167,32832
8168,32832
8169,32640
8170,32576
8171,32576
8172,32640
8173,32704
8174,32768
8175,32896
8176,33088
8177,33280
8178,33792
8179,34496
8180,34560
8181,33920
8182,33088
8183,32448
8184,32192
8185,32768
8186,33664
8187,35008
8188,36480
8189,38144
8190,40000
8191,41088
8192,40512
8193,38080
8194,34880
8195,31808
8196,29696
8197,28416
8198,28032
8199,28416
8200,29376
8201,30464
8202,31424
8203,32128
8204,32640
8205,32960
8206,33152
8207,33344
8208,33472
8209,33536
8210,33600
8211,33536
8212,33536
8213,33536
8214,33536
8215,33536
8216,33600
8217,33664
8218,33728
8219,33728
8220,33728
8221,33664
8222,33600
8223,33664
8224,33792
8225,33856
8226,33728
8227,33472
8228,33344
8229,33344
8230,33344
8231,33344
8232,33216
8233,33152
8234,33216
8235,33472
8236,33728
8237,33856
8238,33984
8239,34048
8240,34176
8241,34432
8242,34624
8243,34688
8244,34624
8245,34624
8246,34560
8247,34496
8248,34496
8249,34432
8250,34432
8251,34496
8252,34560
8253,34432
8254,34240
8255,34112
8256,33984
8257,33856
8258,33536
8259,33088
8260,32768
8261,32512
8262,32384
8263,32320
8264,32384
8265,32448
8266,32576
8267,32576
8268,32640
8269,32704
8270,32832
8271,32960
8272,33088
8273,33344
8274,33216
8275,32832
8276,32448
8277,32256
8278,32384
8279,32704
8280,32960
8281,33088
8282,33024
8283,33024
8284,33152
8285,33216
8286,33216
8287,33408
8288,33472
8289,33536
8290,33536
8291,33536
8292,33536
8293,33472
8294,33280
8295,33280
8296,33408
8297,33408
8298,33280
8299,33280
8300,33344
8301,33280
8302,33280
8303,33216
8304,33344
8305,33472
8306,33600
8307,33664
8308,33664
8309,33600
8310,33664
8311,33920
8312,34240
8313,34560
8314,34176
8315,33472
8316,32960
8317,32768
8318,32640
8319,32640
8320,32768
8321,32960
8322,33088
8323,33088
8324,33216
8325,33344
8326,33408
8327,33472
8328,33472
8329,33536
8330,33600
8331,33664
8332,33792
8333,33856
8334,33792
8335,33600
8336,33536
8337,33536
8338,33472
8339,33408
8340,33472
8341,33536
8342,33408
8343,33280
8344,33216
8345,33280
8346,33472
8347,33600
8348,33728
8349,33856
8350,33984
8351,34048
8352,34112
8353,34176
8354,34176
8355,34112
8356,34112
8357,34240
8358,34432
8359,34496
8360,34432
8361,34368
8362,34304
8363,34304
8364,34176
8365,34048
8366,33984
8367,34048
8368,34048
8369,33920
8370,33600
8371,33344
8372,33216
8373,33216
8374,33344
8375,33344
8376,33216
8377,33152
8378,33344
8379,33472
8380,33536
8381,33472
8382,33344
8383,33280
8384,33280
8385,33216
8386,33088
8387,33024
8388,33088
8389,33216
8390,33600
8391,34240
8392,35136
8393,36224
8394,37632
8395,38976
8396,40960
8397,42688
8398,43008
8399,40704
8400,37440
8401,33280
8402,29824
8403,27712
8404,27008
8405,27520
8406,28544
8407,29696
8408,30912
8409,32064
8410,32960
8411,33472
8412,33920
8413,34240
8414,34304
8415,34240
8416,34176
8417,34112
8418,34048
8419,34048
8420,34048
8421,34048
8422,34112
8423,33984
8424,33856
8425,33792
8426,33856
8427,33856
8428,33984
8429,34432
8430,34688
8431,34624
8432,34304
8433,34048
8434,33984
8435,34048
8436,34240
8437,34368
8438,34496
8439,34496
8440,34432
8441,34496
8442,34560
8443,34688
8444,34880
8445,35072
8446,35264
8447,35392
8448,35520
8449,35584
8450,35712
8451,35712
8452,35776
8453,35840
8454,35840
8455,35904
8456,35904
8457,35840
8458,35776
8459,35776
8460,35584
8461,35136
8462,34816
8463,34624
8464,34496
8465,34304
8466,34112
8467,33984
8468,34048
8469,34048
8470,33920
8471,33792
8472,33728
8473,33792
8474,33856
8475,33984
8476,34048
8477,34176
8478,34240
8479,34304
8480,34368
8481,34368
8482,34496
8483,34688
8484,34752
8485,34816
8486,34816
8487,34816
8488,34688
8489,34560
8490,34560
8491,34624
8492,34688
8493,34688
8494,34752
8495,34944
8496,35072
8497,35200
8498,35328
8499,35392
8500,35456
8501,35520
8502,35648
8503,35776
8504,35840
8505,35840
8506,35776
8507,35648
8508,35648
8509,35712
8510,35520
8511,35200
8512,35008
8513,34880
8514,34816
8515,35008
8516,35264
8517,35456
8518,35584
8519,35584
8520,35456
8521,35392
8522,35520
8523,35584
8524,35648
8525,35648
8526,35712
8527,35776
8528,35712
8529,35712
8530,35776
8531,35712
8532,35648
8533,35648
8534,35776
8535,35904
8536,35840
8537,35776
8538,35712
8539,35712
8540,35840
8541,35968
8542,36288
8543,36608
8544,36544
8545,36288
8546,36032
8547,35840
8548,35712
8549,35520
8550,35456
8551,35520
8552,35712
8553,35904
8554,36032
8555,36288
8556,36480
8557,36480
8558,36416
8559,36352
8560,36224
8561,36096
8562,36096
8563,36224
8564,36416
8565,36608
8566,36672
8567,36864
8568,37120
8569,37312
8570,37184
8571,37120
8572,37120
8573,37120
8574,37056
8575,36992
8576,36992
8577,36928
8578,36864
8579,36800
8580,36736
8581,36608
8582,36480
8583,36352
8584,36352
8585,36288
8586,36288
8587,36416
8588,36608
8589,36608
8590,36288
8591,36032
8592,35840
8593,35776
8594,35776
8595,35840
8596,35904
8597,35904
8598,35968
8599,36032
8600,36160
8601,36288
8602,36416
8603,36480
8604,36672
8605,36992
8606,37696
8607,38592
8608,39616
8609,40896
8610,42368
8611,43968
8612,45056
8613,44544
8614,42112
8615,38400
8616,34624
8617,31936
8618,30528
8619,30272
8620,30912
8621,32000
8622,33408
8623,34176
8624,35008
8625,35648
8626,36096
8627,36288
8628,36352
8629,36416
8630,36416
8631,36352
8632,36288
8633,36352
8634,36352
8635,36352
8636,36288
8637,36288
8638,36288
8639,36288
8640,36288
8641,36160
8642,36032
8643,35840
8644,35776
8645,35904
8646,36096
8647,36224
8648,36160
8649,36096
8650,36096
8651,36288
8652,36352
8653,36288
8654,36224
8655,36224
8656,36224
8657,36288
8658,36352
8659,36544
8660,36608
8661,36608
8662,36544
8663,36544
8664,36608
8665,36672
8666,36736
8667,36736
8668,36672
8669,36672
8670,36672
8671,36672
8672,36672
8673,36608
8674,36480
8675,36416
8676,36416
8677,36288
8678,35968
8679,35520
8680,35008
8681,34496
8682,34176
8683,33920
8684,33920
8685,33984
8686,33984
8687,33920
8688,33856
8689,33856
8690,33920
8691,34048
8692,34112
8693,34112
8694,34048
8695,34048
8696,34112
8697,34240
8698,34368
8699,34240
8700,33984
8701,33920
8702,33920
8703,34048
8704,34240
8705,34304
8706,34304
8707,34176
8708,34176
8709,34176
8710,34304
8711,34368
8712,34432
8713,34432
8714,34432
8715,34560
8716,34624
8717,34496
8718,34240
8719,34112
8720,33984
8721,34048
8722,34048
8723,34112
8724,34176
8725,34304
8726,34432
8727,34368
8728,34240
8729,34112
8730,33984
8731,33920
8732,33920
8733,33920
8734,34048
8735,34112
8736,34112
8737,34112
8738,34112
8739,34048
8740,33856
8741,33728
8742,33664
8743,33728
8744,33728
8745,33792
8746,33792
8747,33792
8748,33664
8749,33664
8750,33728
8751,33664
8752,33472
8753,33344
8754,33408
8755,33472
8756,33472
8757,33472
8758,33536
8759,33600
8760,33664
8761,33728
8762,33856
8763,33984
8764,33920
8765,33728
8766,33728
8767,33728
8768,33664
8769,33600
8770,33664
8771,33792
8772,34048
8773,34112
8774,34048
8775,33792
8776,33472
8777,33344
8778,33344
8779,33472
8780,33536
8781,33536
8782,33472
8783,33536
8784,33664
8785,33792
8786,33920
8787,34112
8788,34368
8789,34496
8790,34496
8791,34496
8792,34560
8793,34816
8794,34880
8795,34688
8796,34496
8797,34368
8798,34304
8799,34368
8800,34368
8801,34240
8802,34048
8803,33792
8804,33600
8805,33408
8806,33216
8807,33216
8808,33344
8809,33472
8810,33408
8811,33408
8812,33408
8813,33472
8814,33472
8815,33344
8816,33216
8817,33152
8818,33088
8819,33024
8820,33024
8821,33152
8822,33280
8823,33280
8824,33408
8825,33728
8826,34304
8827,35072
8828,36032
8829,37312
8830,39232
8831,40960
8832,42240
8833,41984
8834,39744
8835,35840
8836,32064
8837,29184
8838,27776
8839,27584
8840,28096
8841,29120
8842,30272
8843,31296
8844,32128
8845,32704
8846,33152
8847,33472
8848,33728
8849,33920
8850,34112
8851,34176
8852,34112
8853,33856
8854,33536
8855,33344
8856,33280
8857,33344
8858,33408
8859,33472
8860,33472
8861,33408
8862,33472
8863,33664
8864,33920
8865,34048
8866,34048
8867,34048
8868,34048
8869,33920
8870,33856
8871,33856
8872,33920
8873,34112
8874,34240
8875,34304
8876,34496
8877,34688
8878,34624
8879,34560
8880,34624
8881,34752
8882,34816
8883,34944
8884,35072
8885,35136
8886,35136
8887,35200
8888,35264
8889,35264
8890,35200
8891,35200
8892,35264
8893,35328
8894,35328
8895,35136
8896,34624
8897,34304
8898,33984
8899,33664
8900,33472
8901,33344
8902,33280
8903,33088
8904,33024
8905,33088
8906,33152
8907,33088
8908,33024
8909,32960
8910,32960
8911,32960
8912,33024
8913,33088
8914,33216
8915,33152
8916,33152
8917,33088
8918,33088
8919,33088
8920,33152
8921,33408
8922,33600
8923,33600
8924,33600
8925,33536
8926,33600
8927,33536
8928,33536
8929,33536
8930,33600
8931,33728
8932,33856
8933,33920
8934,33856
8935,33792
8936,33792
8937,33856
8938,33920
8939,33920
8940,33856
8941,33792
8942,33728
8943,33728
8944,33792
8945,33856
8946,33728
8947,33728
8948,33728
8949,33664
8950,33664
8951,33728
8952,33728
8953,33728
8954,33792
8955,33792
8956,33792
8957,33792
8958,33856
8959,33984
8960,33984
8961,33920
8962,33856
8963,33792
8964,33792
8965,33856
8966,33920
8967,33920
8968,33728
8969,33600
8970,33536
8971,33728
8972,33728
8973,33792
8974,33792
8975,33856
8976,33984
8977,34048
8978,34112
8979,34112
8980,34048
8981,33728
8982,33536
8983,33536
8984,33664
8985,33792
8986,33856
8987,33856
8988,33920
8989,33984
8990,34048
8991,34176
8992,34176
8993,34048
8994,33920
8995,33920
8996,33920
8997,33920
8998,33856
8999,33856
9000,33984
9001,34112
9002,34112
9003,34176
9004,34304
9005,34496
9006,34304
9007,34112
9008,34048
9009,34048
9010,34048
9011,34112
9012,34240
9013,34432
9014,34624
9015,34880
9016,35008
9017,34880
9018,34752
9019,34624
9020,34560
9021,34368
9022,34240
9023,34048
9024,33984
9025,34048
9026,33984
9027,33728
9028,33408
9029,33088
9030,33024
9031,33152
9032,33216
9033,33280
9034,33408
9035,33472
9036,33536
9037,33664
9038,33792
9039,33792
9040,33728
9041,33664
9042,33728
9043,33728
9044,33728
9045,33920
9046,34624
9047,35136
9048,35968
9049,37056
9050,38464
9051,40256
9052,41728
9053,41984
9054,40256
9055,37056
9056,33408
9057,30400
9058,28672
9059,28096
9060,28416
9061,29504
9062,30464
9063,31488
9064,32384
9065,32960
9066,33472
9067,33856
9068,34048
9069,34048
9070,33856
9071,33536
9072,33408
9073,33472
9074,33536
9075,33664
9076,33792
9077,33856
9078,33792
9079,33728
9080,33856
9081,33920
9082,33920
9083,33856
9084,33728
9085,33728
9086,33984
9087,34240
9088,34176
9089,33984
9090,33728
9091,33536
9092,33536
9093,33792
9094,33984
9095,34048
9096,34112
9097,34240
9098,34368
9099,34560
9100,34688
9101,34816
9102,34944
9103,35072
9104,35136
9105,35200
9106,35200
9107,35136
9108,35072
9109,35072
9110,35008
9111,35008
9112,34944
9113,34880
9114,34816
9115,34752
9116,34688
9117,34624
9118,34560
9119,34368
9120,34048
9121,33664
9122,33408
9123,33216
9124,33088
9125,33024
9126,33024
9127,33024
9128,32960
9129,32896
9130,32896
9131,32896
9132,32896
9133,32960
9134,33152
9135,33280
9136,33152
9137,33024
9138,32960
9139,33152
9140,33280
9141,33344
9142,33344
9143,33344
9144,33344
9145,33344
9146,33472
9147,33600
9148,33600
9149,33536
9150,33408
9151,33408
9152,33472
9153,33536
9154,33600
9155,33664
9156,33664
9157,33664
9158,33664
9159,33792
9160,33792
9161,33792
9162,33792
9163,33792
9164,33728
9165,33664
9166,33536
9167,33472
9168,33536
9169,33472
9170,33408
9171,33472
9172,33536
9173,33472
9174,33472
9175,33536
9176,33472
9177,33536
9178,33600
9179,33792
9180,33792
9181,33664
9182,33600
9183,33536
9184,33472
9185,33664
9186,33728
9187,33728
9188,33728
9189,33664
9190,33536
9191,33472
9192,33408
9193,33344
9194,33280
9195,33280
9196,33408
9197,33600
9198,33728
9199,33664
9200,33664
9201,33600
9202,33472
9203,33344
9204,33280
9205,33408
9206,33536
9207,33728
9208,33728
9209,33600
9210,33536
9211,33536
9212,33472
9213,33472
9214,33408
9215,33728
9216,33792
9217,33856
9218,33728
9219,33664
9220,33664
9221,33664
9222,33600
9223,33600
9224,33600
9225,33600
9226,33728
9227,33920
9228,34112
9229,34368
9230,34496
9231,34560
9232,34560
9233,34624
9234,34496
9235,34304
9236,34240
9237,34304
9238,34432
9239,34496
9240,34304
9241,34048
9242,33984
9243,33792
9244,33600
9245,33536
9246,33472
9247,33472
9248,33344
9249,33280
9250,33280
9251,33216
9252,33216
9253,33152
9254,33216
9255,33280
9256,33344
9257,33280
9258,33344
9259,33472
9260,33536
9261,33600
9262,33600
9263,33664
9264,33728
9265,33792
9266,34304
9267,35072
9268,35904
9269,36992
9270,38528
9271,40448
9272,41920
9273,41856
9274,40000
9275,36736
9276,33024
9277,30016
9278,28416
9279,27968
9280,28416
9281,29312
9282,30464
9283,31616
9284,32512
9285,32960
9286,33280
9287,33600
9288,33856
9289,33984
9290,34048
9291,34112
9292,34176
9293,34176
9294,34176
9295,34112
9296,34048
9297,34048
9298,34048
9299,34048
9300,34048
9301,34112
9302,34240
9303,34368
9304,34368
9305,34304
9306,34176
9307,34176
9308,34304
9309,34304
9310,34240
9311,34304
9312,34496
9313,34624
9314,34624
9315,34624
9316,34624
9317,34688
9318,34816
9319,34944
9320,35136
9321,35264
9322,35392
9323,35520
9324,35648
9325,35712
9326,35584
9327,35456
9328,35392
9329,35456
9330,35520
9331,35648
9332,35648
9333,35712
9334,35648
9335,35456
9336,35200
9337,35008
9338,34880
9339,34752
9340,34688
9341,34624
9342,34368
9343,34048
9344,33664
9345,33472
9346,33408
9347,33408
9348,33344
9349,33344
9350,33408
9351,33472
9352,33472
9353,33664
9354,33664
9355,33728
9356,33728
9357,33856
9358,33984
9359,33984
9360,33920
9361,33792
9362,33856
9363,33856
9364,33984
9365,34048
9366,34176
9367,34240
9368,34304
9369,34368
9370,34496
9371,34560
9372,34688
9373,34624
9374,34496
9375,34432
9376,34496
9377,34496
9378,34496
9379,34560
9380,34496
9381,34368
9382,34240
9383,34176
9384,34176
9385,34240
9386,34304
9387,34368
9388,34368
9389,34304
9390,34240
9391,34176
9392,34240
9393,34304
9394,34368
9395,34496
9396,34496
9397,34368
9398,34304
9399,34368
9400,34496
9401,34496
9402,34496
9403,34496
9404,34496
9405,34432
9406,34304
9407,34368
9408,34560
9409,34560
9410,34560
9411,34432
9412,34368
9413,34432
9414,34432
9415,34432
9416,34496
9417,34432
9418,34432
9419,34432
9420,34560
9421,34752
9422,34752
9423,34752
9424,34752
9425,34752
9426,34752
9427,34816
9428,34816
9429,34816
9430,34752
9431,34752
9432,34752
9433,34688
9434,34688
9435,34752
9436,34752
9437,34688
9438,34816
9439,35008
9440,35200
9441,35392
9442,35520
9443,35456
9444,35328
9445,35392
9446,35520
9447,35712
9448,35776
9449,35520
9450,35328
9451,35200
9452,35136
9453,35072
9454,35008
9455,35008
9456,34944
9457,34816
9458,34560
9459,34368
9460,34304
9461,34240
9462,34240
9463,34240
9464,34240
9465,34176
9466,34176
9467,34304
9468,34432
9469,34496
9470,34496
9471,34496
9472,34496
9473,34560
9474,34752
9475,34816
9476,34688
9477,34688
9478,35136
9479,35904
9480,36864
9481,38144
9482,39808
9483,41792
9484,43008
9485,42496
9486,40000
9487,36608
9488,33216
9489,30720
9490,29504
9491,29184
9492,29632
9493,30528
9494,31616
9495,32640
9496,33472
9497,33984
9498,34240
9499,34432
9500,34624
9501,34688
9502,34688
9503,34752
9504,34816
9505,34944
9506,34944
9507,34880
9508,34752
9509,34624
9510,34560
9511,34496
9512,34496
9513,34560
9514,34624
9515,34624
9516,34688
9517,34752
9518,34752
9519,34688
9520,34752
9521,34880
9522,34944
9523,35008
9524,35072
9525,35072
9526,35008
9527,35072
9528,35072
9529,35072
9530,35200
9531,35264
9532,35456
9533,35712
9534,35840
9535,35712
9536,35584
9537,35584
9538,35648
9539,35712
9540,35776
9541,35840
9542,35904
9543,35904
9544,35904
9545,35904
9546,35840
9547,35520
9548,35136
9549,34944
9550,34752
9551,34624
9552,34496
9553,34240
9554,34112
9555,34048
9556,33856
9557,33600
9558,33536
9559,33600
9560,33600
9561,33664
9562,33664
9563,33728
9564,33728
9565,33728
9566,33728
9567,33728
9568,33728
9569,33792
9570,33856
9571,33792
9572,33664
9573,33600
9574,33664
9575,33792
9576,33856
9577,33920
9578,33920
9579,33984
9580,34112
9581,34176
9582,34240
9583,34304
9584,34432
9585,34496
9586,34560
9587,34496
9588,34432
9589,34304
9590,34176
9591,34048
9592,34048
9593,34112
9594,34112
9595,34112
9596,34048
9597,34112
9598,34048
9599,33856
9600,33792
9601,33792
9602,33728
9603,33728
9604,33920
9605,34048
9606,34112
9607,34048
9608,33920
9609,33856
9610,33920
9611,33920
9612,33920
9613,34048
9614,34176
9615,34112
9616,34112
9617,34112
9618,34048
9619,33984
9620,34048
9621,34048
9622,34048
9623,33984
9624,33920
9625,33920
9626,33920
9627,33856
9628,33856
9629,33920
9630,33920
9631,34048
9632,34112
9633,34176
9634,34112
9635,34112
9636,34112
9637,34176
9638,34240
9639,34304
9640,34304
9641,34368
9642,34496
9643,34752
9644,35008
9645,35200
9646,35392
9647,35456
9648,35392
9649,35328
9650,35136
9651,34880
9652,34752
9653,34560
9654,34432
9655,34368
9656,34368
9657,34304
9658,34368
9659,34368
9660,34304
9661,34176
9662,34112
9663,34176
9664,34176
9665,34176
9666,34176
9667,34176
9668,34240
9669,34240
9670,34304
9671,34368
9672,34368
9673,34304
9674,34304
9675,34304
9676,34304
9677,34304
9678,34368
9679,34368
9680,34624
9681,35136
9682,35776
9683,36416
9684,37376
9685,38784
9686,40576
9687,42304
9688,42816
9689,41536
9690,38720
9691,35328
9692,32320
9693,30464
9694,29760
9695,29888
9696,30784
9697,32000
9698,33024
9699,33728
9700,34304
9701,34752
9702,35008
9703,35200
9704,35392
9705,35520
9706,35584
9707,35584
9708,35712
9709,35712
9710,35712
9711,35776
9712,35840
9713,35968
9714,36032
9715,36160
9716,36288
9717,36416
9718,36544
9719,36672
9720,36800
9721,36864
9722,36736
9723,36608
9724,36480
9725,36288
9726,36160
9727,36224
9728,36416
9729,36672
9730,36928
9731,37120
9732,37248
9733,37440
9734,37632
9735,37760
9736,37888
9737,37952
9738,38144
9739,38272
9740,38400
9741,38464
9742,38464
9743,38528
9744,38720
9745,38720
9746,38592
9747,38464
9748,38400
9749,38336
9750,38336
9751,38336
9752,38272
9753,38016
9754,37632
9755,37440
9756,37312
9757,37248
9758,37184
9759,37120
9760,37056
9761,36992
9762,36928
9763,37056
9764,37056
9765,36992
9766,36928
9767,36992
9768,37120
9769,37312
9770,37440
9771,37568
9772,37568
9773,37440
9774,37312
9775,37312
9776,37440
9777,37504
9778,37568
9779,37696
9780,37760
9781,37888
9782,38016
9783,38144
9784,38272
9785,38208
9786,38144
9787,38144
9788,38080
9789,37888
9790,37824
9791,37888
9792,38144
9793,38336
9794,38336
9795,38272
9796,38144
9797,38016
9798,38016
9799,38016
9800,38144
9801,38144
9802,38016
9803,37952
9804,38016
9805,38208
9806,38336
9807,38400
9808,38400
9809,38400
9810,38272
9811,38144
9812,38144
9813,38144
9814,38208
9815,38336
9816,38336
9817,38208
9818,38144
9819,38016
9820,38016
9821,38080
9822,38208
9823,38272
9824,38272
9825,38272
9826,38336
9827,38336
9828,38400
9829,38528
9830,38592
9831,38656
9832,38720
9833,38848
9834,38976
9835,39104
9836,39040
9837,38848
9838,38720
9839,38656
9840,38528
9841,38464
9842,38400
9843,38272
9844,38208
9845,38016
9846,37888
9847,37696
9848,37440
9849,37248
9850,37248
9851,37312
9852,37248
9853,37120
9854,36992
9855,36992
9856,37056
9857,37056
9858,37056
9859,37120
9860,37184
9861,37120
9862,37184
9863,37248
9864,37184
9865,37120
9866,37120
9867,37376
9868,37696
9869,38144
9870,38976
9871,40384
9872,42112
9873,43776
9874,44160
9875,42880
9876,40128
9877,37056
9878,34432
9879,32704
9880,31872
9881,31808
9882,32256
9883,33024
9884,33856
9885,34752
9886,35392
9887,35840
9888,36096
9889,36352
9890,36480
9891,36544
9892,36480
9893,36416
9894,36352
9895,36288
9896,36224
9897,36160
9898,36096
9899,36096
9900,35968
9901,35776
9902,35584
9903,35456
9904,35456
9905,35520
9906,35584
9907,35712
9908,35776
9909,35840
9910,35840
9911,35776
9912,35648
9913,35520
9914,35456
9915,35520
9916,35584
9917,35712
9918,35904
9919,35968
9920,35904
9921,35840
9922,35840
9923,35840
9924,35840
9925,35776
9926,35840
9927,35904
9928,35840
9929,35776
9930,35840
9931,35776
9932,35648
9933,35520
9934,35456
9935,35328
9936,35136
9937,34944
9938,34752
9939,34560
9940,34368
9941,34176
9942,34112
9943,34176
9944,34048
9945,33792
9946,33408
9947,33152
9948,32960
9949,32832
9950,32768
9951,32768
9952,32896
9953,33024
9954,33024
9955,32960
9956,32896
9957,32832
9958,32896
9959,32960
9960,33024
9961,33088
9962,33216
9963,33280
9964,33280
9965,33216
9966,33216
9967,33280
9968,33344
9969,33408
9970,33344
9971,33216
9972,33024
9973,32896
9974,32896
9975,32960
9976,32896
9977,32896
9978,32960
9979,32896
9980,32896
9981,32832
9982,32640
9983,32640
9984,32704
9985,32768
9986,32768
9987,32832
9988,32896
9989,32960
9990,32960
9991,32960
9992,32896
9993,32832
9994,32896
9995,32832
9996,32768
9997,32832
9998,32896
9999,32832
10000,32704
10001,32640
10002,32640
10003,32640
10004,32704
10005,32832
10006,32704
10007,32448
10008,32384
10009,32448
10010,32512
10011,32512
10012,32640
10013,32768
10014,32960
10015,33024
10016,33088
10017,33152
10018,33280
10019,33408
10020,33472
10021,33600
10022,33664
10023,33600
10024,33536
10025,33600
10026,33664
10027,33536
10028,33280
10029,33024
10030,32768
10031,32576
10032,32512
10033,32512
10034,32384
10035,32192
10036,31872
10037,31744
10038,31744
10039,31808
10040,31808
10041,31936
10042,32000
10043,32064
10044,32064
10045,32192
10046,32320
10047,32320
10048,32320
10049,32256
10050,32192
10051,32192
10052,32320
10053,32704
10054,33344
10055,34176
10056,35200
10057,36544
10058,38208
10059,40064
10060,41024
10061,40128
10062,37376
10063,33792
10064,30336
10065,27968
10066,26752
10067,26560
10068,27200
10069,28352
10070,29504
10071,30592
10072,31424
10073,32064
10074,32448
10075,32640
10076,32704
10077,32704
10078,32576
10079,32448
10080,32512
10081,32640
10082,32640
10083,32576
10084,32512
10085,32448
10086,32384
10087,32384
10088,32448
10089,32640
10090,32832
10091,32832
10092,32768
10093,32768
10094,32704
10095,32768
10096,32832
10097,32832
10098,32960
10099,33088
10100,33216
10101,33280
10102,33280
10103,33280
10104,33344
10105,33472
10106,33728
10107,33856
10108,33728
10109,33664
10110,33728
10111,33856
10112,33984
10113,34048
10114,34112
10115,34176
10116,34240
10117,34240
10118,34112
10119,33984
10120,34048
10121,34048
10122,33920
10123,33728
10124,33600
10125,33408
10126,33152
10127,32896
10128,32768
10129,32576
10130,32384
10131,32256
10132,32128
10133,32000
10134,31936
10135,31936
10136,31936
10137,31936
10138,32064
10139,32064
10140,32000
10141,32000
10142,32128
10143,32192
10144,32192
10145,32256
10146,32256
10147,32320
10148,32320
10149,32384
10150,32448
10151,32448
10152,32448
10153,32448
10154,32576
10155,32768
10156,32896
10157,32896
10158,32896
10159,32896
10160,32768
10161,32640
10162,32576
10163,32704
10164,32768
10165,32832
10166,32832
10167,32896
10168,33024
10169,33152
10170,33088
10171,33152
10172,33216
10173,33216
10174,32960
10175,32640
10176,32576
10177,32576
10178,32576
10179,32704
10180,32768
10181,32896
10182,33024
10183,33088
10184,33152
10185,33152
10186,33088
10187,33088
10188,33152
10189,33280
10190,33280
10191,33216
10192,33280
10193,33344
10194,33408
10195,33536
10196,33664
10197,33920
10198,34176
10199,34304
10200,34304
10201,34240
10202,34240
10203,34240
10204,34240
10205,34240
10206,34176
10207,33984
10208,33792
10209,33792
10210,33856
10211,33856
10212,33728
10213,33600
10214,33344
10215,33088
10216,32960
10217,32896
10218,32896
10219,32960
10220,33088
10221,33216
10222,33344
10223,33408
10224,33408
10225,33536
10226,33664
10227,33728
10228,33856
10229,33856
10230,33792
10231,33728
10232,33664
10233,33728
10234,33984
10235,34752
10236,35456
10237,36544
10238,37952
10239,39744
10240,41344
10241,41664
10242,40192
10243,37184
10244,33856
10245,31040
10246,29248
10247,28800
10248,29120
10249,29888
10250,30912
10251,31744
10252,32512
10253,33216
10254,33792
10255,34176
10256,34496
10257,34688
10258,34560
10259,34432
10260,34368
10261,34304
10262,34368
10263,34432
10264,34496
10265,34432
10266,34304
10267,34304
10268,34368
10269,34496
10270,34688
10271,34880
10272,34944
10273,34816
10274,34688
10275,34688
10276,34816
10277,34880
10278,34944
10279,34944
10280,34944
10281,35008
10282,35072
10283,35008
10284,35008
10285,35008
10286,35072
10287,35200
10288,35328
10289,35520
10290,35648
10291,35840
10292,35904
10293,36032
10294,35968
10295,35904
10296,35840
10297,35840
10298,35968
10299,35904
10300,35712
10301,35648
10302,35584
10303,35456
10304,35264
10305,35136
10306,34944
10307,34816
10308,34560
10309,34368
10310,34240
10311,34112
10312,33984
10313,33856
10314,33856
10315,33856
10316,33920
10317,33920
10318,33792
10319,33664
10320,33600
10321,33536
10322,33536
10323,33600
10324,33728
10325,33792
10326,33792
10327,33792
10328,33728
10329,33728
10330,33856
10331,33920
10332,34048
10333,34240
10334,34432
10335,34496
10336,34304
10337,34176
10338,34112
10339,34176
10340,34176
10341,34112
10342,34112
10343,34176
10344,34240
10345,34240
10346,34304
10347,34368
10348,34432
10349,34432
10350,34368
10351,34176
10352,34048
10353,33920
10354,33920
10355,33984
10356,34048
10357,33984
10358,33856
10359,33856
10360,33856
10361,33856
10362,33856
10363,33856
10364,33856
10365,33920
10366,33984
10367,33984
10368,34112
10369,34176
10370,34176
10371,34304
10372,34240
10373,34112
10374,33984
10375,33856
10376,33920
10377,34048
10378,34240
10379,34432
10380,34624
10381,34752
10382,34816
10383,34816
10384,34880
10385,34944
10386,35072
10387,35072
10388,35136
10389,35008
10390,34816
10391,34624
10392,34368
10393,34240
10394,34176
10395,34112
10396,34176
10397,33984
10398,33728
10399,33536
10400,33472
10401,33472
10402,33536
10403,33536
10404,33600
10405,33536
10406,33536
10407,33472
10408,33408
10409,33344
10410,33344
10411,33408
10412,33472
10413,33600
10414,33664
10415,33728
10416,33792
10417,34112
10418,34752
10419,35520
10420,36352
10421,37312
10422,38656
10423,40384
10424,41728
10425,41600
10426,39488
10427,36160
10428,32640
10429,29952
10430,28416
10431,28032
10432,28480
10433,29376
10434,30336
10435,31360
10436,32128
10437,32832
10438,33344
10439,33792
10440,33984
10441,34112
10442,34112
10443,34048
10444,33920
10445,33856
10446,33728
10447,33728
10448,33664
10449,33664
10450,33664
10451,33664
10452,33728
10453,33792
10454,33856
10455,33856
10456,33984
10457,33984
10458,34112
10459,34112
10460,34048
10461,33920
10462,33856
10463,33920
10464,33920
10465,33920
10466,33920
10467,33984
10468,34112
10469,34304
10470,34432
10471,34624
10472,34624
10473,34624
10474,34624
10475,34816
10476,35072
10477,35200
10478,35072
10479,34880
10480,34752
10481,34816
10482,34880
10483,34944
10484,34816
10485,34688
10486,34560
10487,34432
10488,34368
10489,34176
10490,34048
10491,33792
10492,33664
10493,33536
10494,33408
10495,33152
10496,32896
10497,32704
10498,32576
10499,32512
10500,32448
10501,32448
10502,32448
10503,32448
10504,32512
10505,32576
10506,32704
10507,32768
10508,32896
10509,33024
10510,33088
10511,33152
10512,33024
10513,32832
10514,32768
10515,32704
10516,32768
10517,32832
10518,33088
10519,33216
10520,33152
10521,33216
10522,33280
10523,33344
10524,33280
10525,33216
10526,33216
10527,33152
10528,33152
10529,33216
10530,33280
10531,33408
10532,33344
10533,33344
10534,33408
10535,33408
10536,33408
10537,33472
10538,33600
10539,33472
10540,33280
10541,33088
10542,32896
10543,32896
10544,32896
10545,32896
10546,32896
10547,32960
10548,33152
10549,33280
10550,33280
10551,33280
10552,33216
10553,33216
10554,33216
10555,33280
10556,33408
10557,33408
10558,33536
10559,33728
10560,33856
10561,33920
10562,33920
10563,33984
10564,34176
10565,34368
10566,34432
10567,34368
10568,34240
10569,34112
10570,33856
10571,33728
10572,33664
10573,33536
10574,33344
10575,33216
10576,33024
10577,32896
10578,32704
10579,32576
10580,32576
10581,32640
10582,32704
10583,32768
10584,32704
10585,32832
10586,32960
10587,33024
10588,33088
10589,33152
10590,33280
10591,33152
10592,33152
10593,33152
10594,33280
10595,33344
10596,33408
10597,33600
10598,34176
10599,35008
10600,36096
10601,37632
10602,39616
10603,41280
10604,41536
10605,39808
10606,36608
10607,32960
10608,29888
10609,28032
10610,27392
10611,27776
10612,28672
10613,29696
10614,30784
10615,31680
10616,32448
10617,33024
10618,33344
10619,33408
10620,33408
10621,33408
10622,33408
10623,33344
10624,33344
10625,33280
10626,33280
10627,33344
10628,33344
10629,33280
10630,33344
10631,33408
10632,33472
10633,33600
10634,33728
10635,33920
10636,33920
10637,33856
10638,33856
10639,33920
10640,33920
10641,33920
10642,33920
10643,33856
10644,33728
10645,33728
10646,33792
10647,33920
10648,34112
10649,34176
10650,34304
10651,34496
10652,34624
10653,34688
10654,34752
10655,34816
10656,34944
10657,35008
10658,35008
10659,35008
10660,35008
10661,35008
10662,34944
10663,34880
10664,34816
10665,34752
10666,34560
10667,34304
10668,34048
10669,33856
10670,33664
10671,33536
10672,33472
10673,33344
10674,33216
10675,32960
10676,32576
10677,32256
10678,32064
10679,32000
10680,32128
10681,32256
10682,32320
10683,32448
10684,32512
10685,32704
10686,32832
10687,32896
10688,32896
10689,32896
10690,32960
10691,33024
10692,32960
10693,33024
10694,33088
10695,33152
10696,33216
10697,33344
10698,33536
10699,33664
10700,33600
10701,33600
10702,33728
10703,33536
10704,33216
10705,33088
10706,33152
10707,33216
10708,33280
10709,33344
10710,33600
10711,33728
10712,33664
10713,33472
10714,33408
10715,33408
10716,33344
10717,33408
10718,33472
10719,33472
10720,33472
10721,33536
10722,33664
10723,33664
10724,33600
10725,33600
10726,33472
10727,33408
10728,33216
10729,33088
10730,33152
10731,33280
10732,33280
10733,33216
10734,33216
10735,33280
10736,33344
10737,33472
10738,33536
10739,33664
10740,33664
10741,33664
10742,33664
10743,33728
10744,33856
10745,33856
10746,33984
10747,34176
10748,34240
10749,34240
10750,34240
10751,34304
10752,34368
10753,34560
10754,34688
10755,34624
10756,34368
10757,34240
10758,34048
10759,33984
10760,33856
10761,33664
10762,33472
10763,33344
10764,33216
10765,33152
10766,33152
10767,33152
10768,33216
10769,33152
10770,33088
10771,33024
10772,33088
10773,33152
10774,33088
10775,33088
10776,33216
10777,33280
10778,33280
10779,33280
10780,33344
10781,33408
10782,33408
10783,33600
10784,34048
10785,34944
10786,36288
10787,37120
10788,38528
10789,40320
10790,41536
10791,41280
10792,39104
10793,35776
10794,32256
10795,29504
10796,28032
10797,27712
10798,28288
10799,29248
10800,30336
10801,31360
10802,32192
10803,32896
10804,33344
10805,33600
10806,33792
10807,33856
10808,33792
10809,33792
10810,33856
10811,33792
10812,33792
10813,33728
10814,33792
10815,33856
10816,33856
10817,33792
10818,33856
10819,33920
10820,33856
10821,33920
10822,34048
10823,33984
10824,33856
10825,33792
10826,33728
10827,33792
10828,33728
10829,33728
10830,33856
10831,34048
10832,34112
10833,34176
10834,34240
10835,34432
10836,34560
10837,34688
10838,34816
10839,34880
10840,35008
10841,35072
10842,35072
10843,35136
10844,35136
10845,35008
10846,35008
10847,35072
10848,34944
10849,34816
10850,34688
10851,34752
10852,34880
10853,34816
10854,34624
10855,34560
10856,34368
10857,33984
10858,33600
10859,33344
10860,33216
10861,33024
10862,32960
10863,32896
10864,32896
10865,32896
10866,32960
10867,33024
10868,33088
10869,33024
10870,32960
10871,32960
10872,32960
10873,32960
10874,32960
10875,32960
10876,33024
10877,33152
10878,33344
10879,33408
10880,33408
10881,33472
10882,33536
10883,33536
10884,33536
10885,33536
10886,33600
10887,33600
10888,33600
10889,33728
10890,33728
10891,33792
10892,33728
10893,33792
10894,33856
10895,33664
10896,33600
10897,33664
10898,33728
10899,33664
10900,33536
10901,33408
10902,33408
10903,33472
10904,33536
10905,33664
10906,33792
10907,33856
10908,33856
10909,33728
10910,33600
10911,33664
10912,33600
10913,33536
10914,33408
10915,33344
10916,33472
10917,33536
10918,33664
10919,33664
10920,33664
10921,33728
10922,33664
10923,33664
10924,33600
