,ECG
0,34112
1,34048
2,34048
3,34048
4,34112
5,34112
6,34112
7,34112
8,34048
9,34048
10,34048
11,34048
12,34048
13,34112
14,34112
15,34112
16,34112
17,34176
18,34112
19,34112
20,34112
21,34112
22,34048
23,33984
24,33984
25,33984
26,33984
27,33984
28,33920
29,33984
30,34048
31,34112
32,34048
33,33984
34,33920
35,33984
36,34112
37,34176
38,34176
39,34176
40,34112
41,34112
42,34048
43,33984
44,34048
45,34048
46,34112
47,34176
48,34112
49,34048
50,33920
51,33920
52,34048
53,34176
54,34240
55,34304
56,34432
57,34496
58,34432
59,34304
60,34240
61,34112
62,33984
63,33920
64,33792
65,33728
66,33792
67,33792
68,33792
69,33792
70,33792
71,33856
72,33920
73,34048
74,34176
75,34240
76,34240
77,34176
78,34048
79,33856
80,33728
81,33856
82,34112
83,34560
84,35136
85,35968
86,37184
87,38528
88,39424
89,39552
90,38592
91,36672
92,34624
93,32832
94,31488
95,30656
96,30400
97,30592
98,31040
99,31552
100,32192
101,32960
102,33792
103,34240
104,34624
105,34944
106,35008
107,34944
108,34880
109,34688
110,34496
111,34368
112,34304
113,34176
114,34112
115,34048
116,34048
117,34048
118,34048
119,33984
120,34048
121,34112
122,34112
123,34240
124,34304
125,34304
126,34304
127,34240
128,34304
129,34304
130,34304
131,34432
132,34496
133,34496
134,34368
135,34304
136,34240
137,34176
138,34112
139,34112
140,34112
141,34176
142,34240
143,34304
144,34368
145,34432
146,34560
147,34624
148,34688
149,34688
150,34624
151,34624
152,34624
153,34624
154,34624
155,34688
156,34752
157,34752
158,34624
159,34496
160,34496
161,34560
162,34560
163,34560
164,34496
165,34432
166,34432
167,34496
168,34496
169,34432
170,34368
171,34240
172,34176
173,34112
174,34048
175,33984
176,33984
177,33920
178,33856
179,33920
180,33984
181,34048
182,34048
183,34048
184,34048
185,33984
186,33920
187,33984
188,33984
189,33984
190,33984
191,33920
192,33984
193,33984
194,34240
195,34240
196,34176
197,34112
198,34112
199,34176
200,34112
201,34112
202,34176
203,34176
204,34176
205,34176
206,34048
207,33984
208,33920
209,33920
210,33856
211,33856
212,33920
213,34048
214,34048
215,34112
216,34112
217,34112
218,34048
219,33984
220,33920
221,33856
222,33920
223,33984
224,33920
225,33984
226,34048
227,34112
228,34048
229,33984
230,33984
231,34112
232,34176
233,34176
234,34112
235,34112
236,34048
237,33984
238,33984
239,34112
240,34112
241,34112
242,34048
243,33984
244,33984
245,33984
246,33984
247,34048
248,34048
249,34048
250,34048
251,33984
252,33984
253,34112
254,34176
255,34176
256,34240
257,34240
258,34240
259,34176
260,34176
261,34368
262,34560
263,34688
264,34688
265,34560
266,34496
267,34432
268,34368
269,34176
270,34048
271,33920
272,33792
273,33728
274,33792
275,33856
276,33856
277,33920
278,33984
279,33984
280,33984
281,33984
282,34048
283,34112
284,34176
285,34048
286,33728
287,33600
288,33856
289,34304
290,34816
291,35392
292,36480
293,37824
294,38976
295,39488
296,38976
297,37312
298,35776
299,33920
300,32384
301,31296
302,30656
303,30464
304,30720
305,31232
306,31872
307,32512
308,33280
309,33856
310,34304
311,34624
312,34816
313,34880
314,34880
315,34944
316,34816
317,34752
318,34624
319,34432
320,34368
321,34240
322,34240
323,34112
324,34048
325,34112
326,34176
327,34112
328,34048
329,34048
330,34112
331,34176
332,34176
333,34176
334,34176
335,34176
336,34240
337,34240
338,34240
339,34240
340,34240
341,34240
342,34240
343,34240
344,34304
345,34304
346,34240
347,34176
348,34240
349,34304
350,34368
351,34368
352,34432
353,34560
354,34496
355,34496
356,34432
357,34496
358,34496
359,34560
360,34560
361,34560
362,34560
363,34560
364,34560
365,34560
366,34560
367,34432
368,34432
369,34496
370,34560
371,34496
372,34432
373,34368
374,34432
375,34496
376,34432
377,34304
378,34176
379,34112
380,34048
381,33920
382,33920
383,33856
384,33856
385,33920
386,33920
387,33920
388,33920
389,33920
390,33920
391,33856
392,33920
393,33984
394,34048
395,34048
396,34048
397,34112
398,34176
399,34240
400,34240
401,34176
402,34240
403,34176
404,34304
405,34304
406,34240
407,34176
408,34112
409,34112
410,34112
411,34176
412,34176
413,34176
414,34240
415,34240
416,34240
417,34112
418,34112
419,34112
420,34112
421,34112
422,34048
423,34048
424,34048
425,34112
426,34176
427,34112
428,34112
429,34112
430,34048
431,33984
432,34048
433,33984
434,33984
435,33920
436,33920
437,33920
438,33920
439,33920
440,33984
441,33984
442,33984
443,33984
444,33920
445,33984
446,33984
447,33920
448,33920
449,33984
450,33984
451,34048
452,34048
453,34048
454,34048
455,33984
456,33984
457,33920
458,33920
459,33984
460,33984
461,34048
462,33984
463,33984
464,33984
465,34048
466,34048
467,34112
468,34240
469,34432
470,34560
471,34624
472,34560
473,34432
474,34304
475,34112
476,33984
477,33856
478,33792
479,33792
480,33856
481,33792
482,33792
483,33728
484,33792
485,33856
486,33856
487,33920
488,33920
489,34048
490,34112
491,34176
492,34176
493,34048
494,33920
495,33792
496,33728
497,33920
498,34304
499,34944
500,35904
501,37312
502,38720
503,39552
504,39424
505,38208
506,36288
507,33728
508,32448
509,31232
510,30528
511,30272
512,30528
513,31104
514,31744
515,32448
516,33152
517,33792
518,34368
519,34752
520,34944
521,34944
522,34880
523,34688
524,34560
525,34432
526,34368
527,34240
528,34176
529,34112
530,33984
531,33920
532,33920
533,33856
534,33920
535,33984
536,34048
537,34112
538,34240
539,34304
540,34304
541,34368
542,34368
543,34368
544,34304
545,34176
546,34112
547,34112
548,34176
549,34240
550,34304
551,34304
552,34240
553,34176
554,34048
555,34048
556,34112
557,34304
558,34496
559,34560
560,34624
561,34624
562,34688
563,34624
564,34560
565,34496
566,34560
567,34688
568,34688
569,34752
570,34688
571,34688
572,34624
573,34560
574,34560
575,34560
576,34560
577,34560
578,34496
579,34496
580,34496
581,34432
582,34432
583,34432
584,34368
585,34240
586,34176
587,34112
588,34048
589,33984
590,33920
591,33920
592,33920
593,33920
594,33856
595,33856
596,33792
597,33856
598,33856
599,33920
600,33920
601,33920
602,33920
603,33984
604,34048
605,34048
606,34048
607,33984
608,33984
609,34048
610,34112
611,34176
612,34112
613,34112
614,34176
615,34240
616,34240
617,34240
618,34240
619,34240
620,34240
621,34240
622,34176
623,34112
624,34048
625,33984
626,33984
627,34048
628,33984
629,34048
630,34112
631,34048
632,34048
633,34112
634,34176
635,34240
636,34240
637,34176
638,34048
639,33984
640,33920
641,33856
642,33984
643,34048
644,33984
645,33984
646,33984
647,33984
648,33920
649,33856
650,33856
651,33856
652,33856
653,33920
654,34048
655,34048
656,34048
657,33984
658,33920
659,33920
660,33984
661,33984
662,33984
663,34048
664,34112
665,34112
666,34112
667,34112
668,34112
669,34048
670,34048
671,34112
672,34112
673,34048
674,34048
675,33984
676,33984
677,33984
678,33984
679,33984
680,34048
681,34176
682,34304
683,34304
684,34432
685,34624
686,34624
687,34624
688,34560
689,34496
690,34368
691,34240
692,34176
693,34112
694,33984
695,33856
696,33792
697,33792
698,33792
699,33920
700,33984
701,34112
702,34112
703,34112
704,34112
705,34112
706,34112
707,34112
708,33984
709,33792
710,33728
711,33792
712,34176
713,34688
714,35328
715,36416
716,37824
717,39616
718,39808
719,39488
720,38016
721,35968
722,33920
723,32256
724,31040
725,30336
726,30208
727,30528
728,31168
729,31808
730,32448
731,33152
732,34048
733,34368
734,34688
735,34880
736,34880
737,34816
738,34688
739,34688
740,34624
741,34496
742,34432
743,34304
744,34176
745,34048
746,34048
747,33984
748,33984
749,33920
750,33920
751,34048
752,34112
753,34112
754,34176
755,34176
756,34240
757,34368
758,34368
759,34304
760,34304
761,34240
762,34176
763,34112
764,34048
765,34112
766,34176
767,34176
768,34240
769,34240
770,34304
771,34304
772,34240
773,34240
774,34304
775,34432
776,34560
777,34688
778,34624
779,34624
780,34624
781,34560
782,34560
783,34624
784,34688
785,34688
786,34624
787,34496
788,34432
789,34432
790,34432
791,34368
792,34304
793,34368
794,34368
795,34368
796,34304
797,34368
798,34368
799,34304
800,34176
801,33984
802,33920
803,33856
804,33792
805,33792
806,33856
807,33920
808,33920
809,33984
810,33984
811,33856
812,33728
813,33728
814,33792
815,33792
816,33856
817,33920
818,33984
819,34048
820,34048
821,34048
822,34048
823,34112
824,34112
825,34176
826,34176
827,34176
828,34112
829,34112
830,34176
831,34176
832,34176
833,34240
834,34176
835,34176
836,34112
837,34048
838,33984
839,33984
840,34048
841,34112
842,34112
843,34176
844,34112
845,34048
846,34048
847,34048
848,34176
849,34240
850,34304
851,34176
852,34112
853,34048
854,34048
855,34048
856,33984
857,33984
858,33984
859,33984
860,33984
861,33984
862,33920
863,33984
864,33920
865,33984
866,33920
867,33984
868,33984
869,33984
870,34112
871,34112
872,34048
873,34048
874,34048
875,34048
876,34048
877,33984
878,34048
879,34048
880,34112
881,34112
882,34112
883,34048
884,34112
885,34048
886,34048
887,33984
888,34048
889,34048
890,34048
891,34048
892,34048
893,34112
894,34112
895,34112
896,34112
897,34112
898,34176
899,34240
900,34432
901,34560
902,34688
903,34688
904,34560
905,34496
906,34432
907,34368
908,34368
909,34176
910,33984
911,33792
912,33728
913,33792
914,33920
915,33984
916,34112
917,34112
918,34176
919,34176
920,34240
921,34176
922,34176
923,34176
924,34112
925,33984
926,33792
927,33792
928,33984
929,34368
930,34880
931,35648
932,36736
933,38272
934,39488
935,39872
936,39168
937,37376
938,35264
939,33344
940,31872
941,30848
942,30400
943,30336
944,30656
945,31296
946,31936
947,32640
948,33344
949,34048
950,34624
951,34944
952,35008
953,35008
954,35008
955,34944
956,34816
957,34624
958,34432
959,34304
960,34176
961,34112
962,33984
963,33984
964,33920
965,33920
966,33984
967,34048
968,34176
969,34240
970,34240
971,34240
972,34304
973,34304
974,34304
975,34304
976,34240
977,34240
978,34240
979,34240
980,34240
981,34176
982,34048
983,34048
984,34112
985,34176
986,34240
987,34368
988,34432
989,34496
990,34560
991,34560
992,34560
993,34624
994,34624
995,34624
996,34624
997,34688
998,34688
999,34688
1000,34688
1001,34624
1002,34560
1003,34496
1004,34496
1005,34560
1006,34624
1007,34560
1008,34496
1009,34496
1010,34560
1011,34560
1012,34560
1013,34496
1014,34432
1015,34304
1016,34304
1017,34176
1018,34048
1019,33920
1020,33920
1021,33920
1022,33920
1023,33856
1024,33856
1025,33792
1026,33792
1027,33856
1028,33920
1029,33920
1030,33984
1031,33984
1032,33984
1033,33984
1034,33984
1035,33984
1036,33984
1037,33984
1038,33984
1039,33984
1040,34048
1041,34048
1042,34048
1043,34048
1044,34048
1045,34112
1046,34112
1047,34112
1048,34176
1049,34240
1050,34240
1051,34240
1052,34304
1053,34240
1054,34176
1055,34112
1056,33984
1057,33920
1058,33984
1059,34048
1060,34048
1061,33984
1062,34112
1063,34112
1064,34112
1065,34112
1066,34176
1067,34176
1068,34176
1069,34176
1070,34112
1071,34112
1072,34112
1073,34176
1074,34240
1075,34240
1076,34240
1077,34240
1078,34176
1079,34048
1080,33984
1081,33920
1082,33920
1083,33920
1084,33984
1085,34048
1086,34048
1087,34048
1088,34048
1089,34048
1090,34112
1091,34112
1092,34112
1093,34112
1094,34112
1095,34112
1096,34112
1097,34048
1098,33984
1099,33984
1100,33984
1101,34048
1102,34112
1103,34112
1104,34112
1105,34112
1106,34176
1107,34176
1108,34176
1109,34112
1110,34048
1111,33984
1112,34048
1113,34048
1114,34176
1115,34240
1116,34304
1117,34432
1118,34624
1119,34688
1120,34752
1121,34752
1122,34624
1123,34560
1124,34560
1125,34368
1126,34112
1127,34048
1128,33920
1129,33856
1130,33792
1131,33792
1132,33792
1133,33792
1134,33856
1135,34048
1136,34176
1137,34240
1138,34240
1139,34176
1140,34176
1141,34240
1142,34176
1143,33920
1144,33792
1145,33792
1146,34048
1147,34496
1148,35008
1149,35840
1150,37056
1151,38400
1152,39360
1153,39360
1154,38336
1155,36544
1156,34624
1157,32960
1158,31744
1159,30976
1160,30656
1161,30784
1162,31168
1163,31680
1164,32320
1165,32960
1166,33664
1167,34176
1168,34624
1169,34944
1170,35072
1171,35008
1172,34880
1173,34816
1174,34752
1175,34624
1176,34496
1177,34368
1178,34304
1179,34368
1180,34368
1181,34368
1182,34368
1183,34304
1184,34304
1185,34240
1186,34304
1187,34304
1188,34304
1189,34240
1190,34240
1191,34240
1192,34304
1193,34368
1194,34368
1195,34368
1196,34304
1197,34112
1198,33984
1199,33984
1200,34112
1201,34240
1202,34368
1203,34432
1204,34432
1205,34432
1206,34496
1207,34432
1208,34432
1209,34560
1210,34624
1211,34560
1212,34496
1213,34496
1214,34624
1215,34752
1216,34880
1217,34880
1218,34880
1219,34880
1220,34816
1221,34688
1222,34624
1223,34624
1224,34688
1225,34624
1226,34560
1227,34496
1228,34432
1229,34432
1230,34368
1231,34304
1232,34240
1233,34176
1234,34176
1235,34176
1236,34048
1237,33920
1238,33856
1239,33856
1240,33856
1241,33920
1242,33984
1243,34048
1244,33984
1245,33920
1246,33984
1247,34048
1248,34112
1249,34112
1250,34048
1251,33984
1252,33920
1253,33856
1254,33856
1255,33920
1256,33984
1257,33920
1258,33920
1259,33984
1260,33984
1261,34048
1262,34048
1263,34112
1264,34176
1265,34176
1266,34176
1267,34112
1268,34112
1269,34112
1270,34176
1271,34176
1272,34112
1273,34048
1274,33984
1275,34048
1276,34048
1277,34112
1278,34048
1279,34048
1280,33984
1281,34048
1282,34048
1283,33984
1284,33920
1285,33984
1286,34048
1287,34112
1288,34176
1289,34240
1290,34176
1291,34048
1292,34176
1293,34240
1294,34304
1295,34368
1296,34496
1297,34560
1298,34496
1299,34432
1300,34368
1301,34368
1302,34304
1303,34304
1304,34176
1305,34048
1306,33984
1307,33984
1308,33920
1309,33856
1310,33792
1311,33728
1312,33600
1313,33536
1314,33472
1315,33408
1316,33472
1317,33536
1318,33536
1319,33536
1320,33536
1321,33536
1322,33664
1323,33728
1324,33792
1325,33856
1326,33856
1327,33920
1328,33984
1329,34112
1330,34304
1331,34432
1332,34368
1333,34368
1334,34368
1335,34432
1336,34560
1337,34688
1338,34688
1339,34688
1340,34624
1341,34496
1342,34304
1343,34112
1344,33984
1345,33984
1346,33920
1347,33792
1348,33856
1349,33792
1350,33792
1351,33728
1352,33792
1353,33856
1354,33920
1355,33984
1356,34048
1357,34112
1358,34176
1359,34176
1360,34112
1361,34048
1362,33920
1363,33920
1364,33984
1365,34368
1366,34880
1367,35584
1368,36672
1369,38080
1370,39296
1371,39872
1372,39296
1373,37632
1374,35456
1375,33408
1376,31808
1377,30784
1378,30336
1379,30464
1380,30848
1381,31424
1382,32064
1383,32704
1384,33344
1385,33984
1386,34496
1387,34816
1388,35072
1389,35072
1390,35008
1391,34880
1392,34688
1393,34560
1394,34496
1395,34496
1396,34304
1397,34176
1398,33984
1399,33856
1400,33792
1401,33856
1402,33984
1403,34112
1404,34176
1405,34176
1406,34240
1407,34240
1408,34240
1409,34304
1410,34304
1411,34304
1412,34304
1413,34304
1414,34240
1415,34240
1416,34304
1417,34304
1418,34304
1419,34304
1420,34240
1421,34240
1422,34304
1423,34304
1424,34240
1425,34240
1426,34240
1427,34240
1428,34304
1429,34432
1430,34496
1431,34560
1432,34688
1433,34752
1434,34752
1435,34688
1436,34624
1437,34624
1438,34624
1439,34560
1440,34496
1441,34496
1442,34496
1443,34496
1444,34432
1445,34432
1446,34368
1447,34432
1448,34432
1449,34432
1450,34368
1451,34240
1452,34176
1453,34112
1454,34048
1455,33984
1456,33984
1457,33920
1458,33856
1459,33856
1460,33856
1461,33920
1462,33920
1463,33856
1464,33792
1465,33792
1466,33728
1467,33728
1468,33728
1469,33728
1470,33792
1471,33792
1472,33856
1473,33856
1474,33856
1475,33856
1476,33856
1477,33920
1478,34048
1479,34048
1480,34048
1481,34048
1482,34176
1483,34240
1484,34240
1485,34304
1486,34240
1487,34240
1488,34240
1489,34240
1490,34176
1491,34112
1492,34048
1493,33920
1494,33856
1495,33856
1496,33856
1497,33920
1498,33920
1499,33856
1500,33856
1501,33920
1502,34048
1503,34112
1504,34048
1505,33984
1506,33984
1507,34048
1508,34112
1509,34112
1510,34112
1511,34048
1512,34048
1513,34048
1514,34048
1515,33984
1516,33920
1517,33856
1518,33856
1519,33920
1520,33920
1521,33984
1522,33920
1523,33920
1524,33984
1525,33984
1526,33984
1527,34048
1528,34112
1529,34112
1530,34112
1531,34048
1532,33984
1533,34048
1534,34048
1535,34048
1536,34112
1537,34048
1538,34048
1539,33984
1540,33984
1541,33920
1542,33920
1543,33920
1544,34048
1545,34048
1546,33984
1547,34048
1548,34176
1549,34304
1550,34432
1551,34624
1552,34688
1553,34624
1554,34496
1555,34368
1556,34304
1557,34176
1558,34048
1559,33984
1560,33920
1561,33920
1562,33856
1563,33792
1564,33792
1565,33728
1566,33792
1567,33920
1568,34048
1569,34112
1570,34112
1571,34112
1572,34112
1573,34112
1574,34048
1575,33856
1576,33728
1577,33792
1578,34112
1579,34624
1580,35328
1581,36352
1582,37760
1583,38976
1584,39616
1585,39360
1586,37952
1587,35968
1588,33920
1589,32192
1590,30976
1591,30400
1592,30272
1593,30528
1594,31168
1595,31808
1596,32512
1597,33216
1598,33920
1599,34752
1600,34944
1601,35072
1602,35008
1603,35008
1604,34880
1605,34560
1606,34432
1607,34368
1608,34304
1609,34176
1610,34048
1611,33984
1612,34048
1613,34112
1614,34048
1615,34176
1616,34176
1617,34176
1618,34176
1619,34176
1620,34240
1621,34240
1622,34304
1623,34304
1624,34240
1625,34240
1626,34304
1627,34304
1628,34304
1629,34304
1630,34240
1631,34240
1632,34176
1633,34176
1634,34176
1635,34240
1636,34304
1637,34304
1638,34304
1639,34368
1640,34432
1641,34432
1642,34496
1643,34496
1644,34496
1645,34432
1646,34496
1647,34560
1648,34624
1649,34624
1650,34624
1651,34624
1652,34752
1653,34752
1654,34688
1655,34560
1656,34496
1657,34496
1658,34496
1659,34496
1660,34496
1661,34432
1662,34368
1663,34368
1664,34304
1665,34176
1666,34112
1667,34048
1668,34048
1669,34048
1670,34048
1671,34048
1672,34048
1673,34048
1674,34048
1675,34048
1676,33984
1677,33984
1678,33920
1679,33856
1680,33856
1681,33920
1682,33984
1683,33984
1684,34048
1685,34048
1686,34112
1687,34112
1688,34112
1689,34112
1690,34112
1691,34176
1692,34240
1693,34304
1694,34304
1695,34304
1696,34304
1697,34304
1698,34304
1699,34240
1700,34112
1701,34048
1702,34048
1703,34048
1704,33984
1705,34048
1706,34048
1707,33984
1708,33984
1709,34048
1710,34112
1711,34240
1712,34240
1713,34240
1714,34176
1715,34176
1716,34112
1717,34112
1718,34048
1719,34048
1720,34048
1721,34048
1722,34112
1723,34112
1724,34048
1725,33984
1726,33984
1727,33984
1728,33984
1729,33920
1730,33920
1731,33920
1732,33920
1733,33984
1734,34048
1735,34048
1736,34048
1737,34048
1738,34048
1739,34048
1740,33984
1741,33920
1742,33984
1743,34048
1744,34112
1745,34048
1746,34048
1747,34048
1748,33984
1749,33920
1750,33920
1751,33984
1752,34048
1753,33984
1754,34176
1755,34304
1756,34368
1757,34496
1758,34624
1759,34752
1760,34688
1761,34496
1762,34368
1763,34176
1764,34112
1765,33984
1766,33920
1767,33728
1768,33600
1769,33600
1770,33600
1771,33728
1772,33792
1773,33792
1774,33856
1775,33984
1776,34048
1777,34048
1778,33984
1779,33984
1780,34048
1781,33984
1782,33984
1783,34048
1784,34112
1785,34368
1786,34816
1787,35584
1788,36800
1789,38144
1790,39040
1791,39104
1792,38272
1793,36608
1794,34688
1795,32960
1796,31680
1797,30912
1798,30528
1799,30592
1800,30976
1801,31616
1802,32256
1803,32896
1804,33472
1805,33984
1806,34432
1807,34688
1808,34816
1809,34880
1810,34816
1811,34688
1812,34560
1813,34432
1814,34432
1815,34432
1816,34368
1817,34304
1818,34112
1819,33984
1820,33984
1821,33920
1822,33920
1823,33920
1824,33920
1825,34048
1826,34176
1827,34240
1828,34176
1829,34304
1830,34304
1831,34240
1832,34304
1833,34304
1834,34304
1835,34240
1836,34176
1837,34176
1838,34112
1839,34112
1840,34240
1841,34368
1842,34496
1843,34432
1844,34304
1845,34240
1846,34304
1847,34432
1848,34368
1849,34368
1850,34368
1851,34432
1852,34432
1853,34432
1854,34432
1855,34560
1856,34560
1857,34560
1858,34496
1859,34496
1860,34496
1861,34496
1862,34560
1863,34560
1864,34624
1865,34560
1866,34496
1867,34432
1868,34368
1869,34304
1870,34240
1871,34240
1872,34240
1873,34176
1874,34048
1875,33920
1876,33856
1877,33856
1878,33856
1879,33856
1880,33920
1881,33984
1882,33984
1883,33920
1884,33856
1885,33856
1886,33920
1887,33984
1888,34048
1889,34048
1890,34048
1891,34112
1892,34176
1893,34176
1894,34240
1895,34240
1896,34176
1897,34112
1898,34112
1899,34176
1900,34240
1901,34240
1902,34176
1903,34112
1904,34304
1905,34304
1906,34304
1907,34304
1908,34304
1909,34240
1910,34112
1911,34048
1912,33984
1913,33920
1914,33856
1915,33792
1916,33856
1917,33856
1918,33984
1919,34112
1920,34112
1921,34112
1922,34112
1923,34112
1924,34176
1925,34176
1926,34112
1927,34112
1928,34112
1929,34176
1930,34304
1931,34432
1932,34368
1933,34304
1934,34240
1935,34112
1936,33984
1937,33984
1938,34048
1939,34048
1940,34112
1941,34112
1942,34176
1943,34176
1944,34112
1945,33984
1946,33920
1947,33728
1948,33664
1949,33664
1950,33664
1951,33664
1952,33664
1953,33664
1954,33728
1955,33856
1956,33920
1957,33920
1958,33856
1959,33856
1960,33856
1961,33984
1962,33984
1963,34048
1964,34112
1965,34176
1966,34240
1967,34368
1968,34432
1969,34432
1970,34368
1971,34240
1972,34112
1973,34048
1974,34048
1975,33984
1976,33920
1977,33856
1978,33792
1979,33856
1980,33920
1981,34048
1982,34048
1983,34048
1984,34048
1985,34048
1986,34112
1987,34048
1988,33920
1989,33920
1990,33920
1991,33792
1992,33664
1993,33728
1994,34048
1995,34496
1996,35008
1997,35904
1998,37184
1999,38592
2000,39616
2001,39744
2002,38720
2003,36736
2004,34560
2005,32576
2006,31232
2007,30464
2008,30208
2009,30464
2010,30912
2011,31552
2012,32256
2013,32896
2014,33600
2015,34176
2016,34688
2017,34944
2018,35072
2019,35072
2020,35008
2021,34880
2022,34752
2023,34624
2024,34432
2025,34304
2026,34240
2027,34176
2028,34048
2029,33920
2030,33920
2031,34048
2032,34112
2033,34176
2034,34176
2035,34176
2036,34240
2037,34304
2038,34304
2039,34240
2040,34240
2041,34368
2042,34368
2043,34432
2044,34432
2045,34368
2046,34304
2047,34176
2048,34048
2049,34112
2050,34240
2051,34368
2052,34368
2053,34368
2054,34304
2055,34368
2056,34496
2057,34560
2058,34560
2059,34560
2060,34560
2061,34560
2062,34624
2063,34624
2064,34752
2065,34944
2066,34944
2067,34880
2068,34816
2069,34816
2070,34752
2071,34624
2072,34560
2073,34496
2074,34432
2075,34432
2076,34368
2077,34368
2078,34368
2079,34304
2080,34304
2081,34240
2082,34176
2083,34048
2084,33984
2085,33856
2086,33920
2087,33856
2088,33856
2089,33920
2090,33920
2091,33920
2092,33920
2093,33984
2094,33984
2095,34048
2096,34112
2097,34112
2098,34048
2099,33984
2100,33920
2101,33856
2102,33856
2103,33920
2104,33984
2105,34048
2106,34048
2107,33984
2108,33984
2109,34048
2110,34048
2111,34048
2112,34112
2113,34176
2114,34176
2115,34240
2116,34240
2117,34240
2118,34304
2119,34368
2120,34304
2121,34176
2122,34048
2123,34048
2124,33984
2125,33920
2126,33920
2127,33856
2128,33792
2129,33792
2130,33920
2131,33984
2132,34112
2133,34176
2134,34176
2135,34176
2136,34176
2137,34176
2138,34112
2139,34112
2140,34176
2141,34176
2142,34112
2143,34112
2144,34112
2145,34048
2146,34048
2147,34048
2148,34048
2149,34112
2150,34048
2151,33984
2152,33984
2153,33984
2154,33984
2155,33984
2156,33984
2157,34048
2158,34048
2159,33920
2160,33856
2161,33792
2162,33728
2163,33664
2164,33728
2165,33792
2166,33920
2167,34048
2168,34112
2169,34176
2170,34176
2171,34176
2172,34304
2173,34368
2174,34432
2175,34368
2176,34304
2177,34240
2178,34240
2179,34240
2180,34176
2181,34112
2182,33984
2183,33920
2184,33792
2185,33728
2186,33728
2187,33728
2188,33792
2189,33792
2190,33856
2191,33856
2192,33920
2193,33984
2194,33984
2195,33920
2196,33792
2197,33664
2198,33664
2199,33920
2200,34368
2201,35008
2202,36160
2203,37248
2204,38720
2205,39680
2206,39744
2207,38592
2208,36608
2209,34432
2210,32512
2211,31168
2212,30336
2213,30016
2214,30272
2215,30848
2216,31488
2217,32192
2218,32896
2219,33536
2220,34048
2221,34432
2222,34624
2223,34688
2224,34688
2225,34624
2226,34496
2227,34368
2228,34240
2229,34176
2230,34176
2231,34176
2232,34112
2233,34112
2234,34112
2235,34048
2236,34048
2237,34048
2238,34112
2239,34112
2240,34048
2241,34048
2242,34112
2243,34176
2244,34240
2245,34240
2246,34240
2247,34240
2248,34240
2249,34304
2250,34304
2251,34304
2252,34240
2253,34176
2254,34112
2255,34112
2256,34176
2257,34176
2258,34176
2259,34176
2260,34176
2261,34176
2262,34240
2263,34368
2264,34432
2265,34496
2266,34496
2267,34560
2268,34624
2269,34624
2270,34624
2271,34624
2272,34624
2273,34624
2274,34624
2275,34560
2276,34560
2277,34560
2278,34496
2279,34496
2280,34368
2281,34304
2282,34240
2283,34304
2284,34304
2285,34240
2286,34240
2287,34112
2288,33984
2289,33920
2290,33984
2291,33984
2292,33984
2293,33984
2294,33984
2295,33920
2296,33920
2297,33856
2298,33856
2299,33792
2300,33792
2301,33792
2302,33856
2303,33984
2304,34048
2305,34048
2306,33984
2307,34048
2308,34048
2309,34112
2310,34112
2311,34112
2312,34112
2313,34112
2314,34048
2315,34048
2316,34112
2317,34112
2318,34176
2319,34240
2320,34304
2321,34304
2322,34304
2323,34240
2324,34112
2325,34112
2326,34112
2327,34048
2328,33984
2329,33920
2330,34048
2331,34112
2332,34240
2333,34176
2334,34112
2335,34112
2336,34112
2337,34176
2338,34176
2339,34240
2340,34176
2341,34240
2342,34240
2343,34176
2344,34112
2345,34048
2346,33984
2347,34048
2348,34048
2349,34048
2350,34048
2351,34112
2352,34112
2353,34048
2354,34112
2355,34112
2356,34048
2357,34048
2358,34112
2359,34048
2360,34112
2361,34176
2362,34240
2363,34304
2364,34368
2365,34304
2366,34240
2367,34304
2368,34432
2369,34496
2370,34496
2371,34496
2372,34368
2373,34304
2374,34240
2375,34176
2376,34176
2377,34112
2378,33920
2379,33792
2380,33728
2381,33792
2382,33856
2383,33920
2384,33984
2385,33984
2386,33984
2387,33984
2388,33984
2389,34048
2390,34112
2391,34176
2392,33984
2393,33792
2394,33728
2395,33984
2396,34496
2397,35264
2398,35840
2399,36992
2400,38272
2401,38976
2402,38912
2403,37952
2404,36288
2405,34560
2406,32960
2407,31808
2408,31104
2409,30784
2410,30848
2411,31232
2412,31744
2413,32320
2414,32896
2415,33536
2416,34112
2417,34432
2418,34624
2419,34816
2420,34880
2421,34944
2422,34880
2423,34688
2424,34560
2425,34432
2426,34304
2427,34240
2428,34176
2429,34176
2430,34176
2431,34112
2432,34048
2433,34048
2434,34112
2435,34240
2436,34368
2437,34432
2438,34432
2439,34432
2440,34368
2441,34304
2442,34368
2443,34368
2444,34368
2445,34368
2446,34368
2447,34368
2448,34240
2449,34240
2450,34240
2451,34240
2452,34176
2453,34304
2454,34432
2455,34560
2456,34688
2457,34688
2458,34624
2459,34624
2460,34560
2461,34560
2462,34496
2463,34496
2464,34496
2465,34560
2466,34688
2467,34752
2468,34752
2469,34816
2470,34880
2471,34880
2472,34880
2473,34816
2474,34752
2475,34688
2476,34688
2477,34688
2478,34752
2479,34752
2480,34688
2481,34624
2482,34560
2483,34432
2484,34240
2485,34112
2486,34048
2487,33984
2488,33984
2489,33920
2490,33856
2491,33792
2492,33728
2493,33728
2494,33664
2495,33664
2496,33728
2497,33920
2498,33984
2499,33920
2500,33856
2501,33856
2502,33920
2503,33856
2504,33792
2505,33792
2506,33728
2507,33728
2508,33792
2509,33984
2510,34112
2511,34176
2512,34240
2513,34240
2514,34176
2515,34240
2516,34240
2517,34240
2518,34240
2519,34240
2520,34240
2521,34240
2522,34240
2523,34304
2524,34432
2525,34432
2526,34368
2527,34240
2528,34240
2529,34176
2530,34112
2531,33984
2532,33984
2533,33920
2534,33920
2535,33856
2536,33920
2537,33920
2538,33920
2539,33920
2540,33920
2541,33920
2542,33920
2543,33856
2544,33856
2545,33920
2546,33984
2547,34048
2548,34048
2549,34112
2550,34176
2551,34176
2552,34176
2553,34048
2554,33984
2555,33920
2556,33984
2557,34112
2558,34368
2559,34432
2560,34496
2561,34496
2562,34496
2563,34432
2564,34496
2565,34560
2566,34624
2567,34560
2568,34496
2569,34368
2570,34240
2571,34112
2572,34112
2573,34048
2574,33920
2575,33792
2576,33792
2577,33792
2578,33792
2579,33792
2580,33792
2581,33792
2582,33920
2583,34048
2584,34176
2585,34176
2586,34176
2587,34240
2588,34240
2589,34048
2590,33920
2591,33984
2592,34624
2593,34880
2594,35520
2595,36416
2596,37760
2597,39040
2598,39744
2599,39424
2600,38208
2601,36288
2602,34304
2603,32512
2604,31296
2605,30592
2606,30400
2607,30912
2608,31296
2609,31872
2610,32512
2611,33216
2612,33856
2613,34304
2614,34688
2615,34880
2616,34944
2617,34880
2618,34880
2619,34816
2620,34752
2621,34560
2622,34304
2623,34176
2624,34176
2625,34176
2626,34240
2627,34304
2628,34240
2629,34176
2630,34176
2631,34176
2632,34176
2633,34240
2634,34240
2635,34240
2636,34368
2637,34368
2638,34368
2639,34304
2640,34304
2641,34368
2642,34368
2643,34368
2644,34240
2645,34112
2646,34112
2647,34176
2648,34176
2649,34176
2650,34176
2651,34176
2652,34112
2653,34048
2654,34112
2655,34240
2656,34496
2657,34624
2658,34752
2659,34752
2660,34752
2661,34816
2662,34816
2663,34880
2664,34880
2665,34816
2666,34688
2667,34688
2668,34688
2669,34560
2670,34560
2671,34624
2672,34624
2673,34496
2674,34368
2675,34240
2676,34240
2677,34176
2678,34112
2679,34112
2680,34112
2681,34176
2682,34112
2683,34048
2684,33920
2685,33984
2686,34112
2687,34176
2688,34176
2689,34176
2690,34176
2691,34112
2692,34048
2693,33984
2694,33984
2695,34048
2696,34048
2697,33920
2698,33856
2699,33792
2700,33856
2701,33920
2702,33984
2703,34048
2704,34112
2705,34176
2706,34240
2707,34240
2708,34176
2709,34176
2710,34176
2711,34240
2712,34304
2713,34240
2714,34176
2715,34176
2716,34176
2717,34112
2718,34048
2719,33920
2720,33920
2721,33984
2722,33984
2723,33984
2724,33984
2725,34048
2726,34112
2727,34176
2728,34112
2729,34112
2730,34112
2731,34112
2732,34112
2733,34176
2734,34176
2735,34176
2736,34112
2737,34048
2738,34048
2739,33984
2740,33920
2741,33920
2742,33920
2743,33920
2744,33984
2745,33984
2746,33984
2747,34048
2748,34048
2749,34112
2750,34176
2751,34240
2752,34240
2753,34240
2754,34240
2755,34176
2756,34240
2757,34240
2758,34304
2759,34304
2760,34304
2761,34304
2762,34368
2763,34432
2764,34496
2765,34432
2766,34368
2767,34240
2768,34048
2769,33984
2770,33792
2771,33664
2772,33600
2773,33600
2774,33664
2775,33664
2776,33664
2777,33600
2778,33728
2779,33856
2780,33984
2781,34048
2782,34048
2783,34048
2784,33920
2785,33856
2786,33728
2787,33600
2788,33664
2789,33920
2790,34368
2791,35008
2792,36032
2793,37504
2794,39040
2795,39936
2796,39872
2797,38464
2798,36288
2799,34048
2800,32128
2801,30848
2802,30080
2803,29888
2804,30208
2805,30848
2806,31552
2807,32192
2808,32896
2809,33600
2810,34112
2811,34496
2812,34624
2813,34752
2814,34752
2815,34752
2816,34688
2817,34560
2818,34432
2819,34240
2820,34112
2821,34048
2822,33984
2823,33920
2824,33856
2825,33792
2826,33856
2827,33920
2828,33984
2829,33984
2830,34048
2831,34112
2832,34176
2833,34176
2834,34176
2835,34112
2836,34048
2837,34112
2838,34176
2839,34176
2840,34112
2841,34112
2842,34048
2843,33920
2844,33856
2845,33792
2846,33856
2847,33984
2848,34048
2849,34112
2850,34240
2851,34432
2852,34560
2853,34560
2854,34560
2855,34624
2856,34624
2857,34560
2858,34560
2859,34624
2860,34688
2861,34688
2862,34688
2863,34560
2864,34496
2865,34432
2866,34432
2867,34368
2868,34304
2869,34304
2870,34368
2871,34368
2872,34368
2873,34304
2874,34240
2875,34240
2876,34240
2877,34176
2878,34112
2879,33984
2880,33856
2881,33792
2882,33792
2883,33792
2884,33728
2885,33728
2886,33728
2887,33792
2888,33856
2889,33856
2890,33920
2891,33920
2892,33856
2893,33856
2894,33792
2895,33856
2896,33920
2897,33984
2898,34048
2899,34048
2900,33984
2901,33984
2902,34048
2903,34112
2904,34176
2905,34176
2906,34112
2907,34112
2908,34112
2909,34112
2910,34112
2911,34176
2912,34176
2913,34048
2914,33984
2915,33984
2916,33984
2917,34048
2918,34112
2919,34176
2920,34176
2921,34112
2922,34112
2923,34112
2924,34176
2925,34112
2926,34048
2927,34048
2928,34048
2929,34048
2930,34048
2931,33984
2932,33920
2933,33920
2934,33984
2935,34048
2936,34176
2937,34176
2938,34176
2939,34112
2940,34048
2941,33984
2942,33984
2943,34048
2944,34112
2945,34112
2946,34112
2947,34112
2948,34176
2949,34240
2950,34304
2951,34432
2952,34432
2953,34432
2954,34368
2955,34432
2956,34432
2957,34560
2958,34624
2959,34560
2960,34432
2961,34368
2962,34304
2963,34240
2964,34048
2965,33920
2966,33792
2967,33664
2968,33600
2969,33536
2970,33600
2971,33728
2972,33792
2973,33856
2974,33920
2975,33984
2976,34048
2977,34048
2978,34176
2979,34176
2980,34112
2981,33984
2982,33792
2983,33792
2984,33984
2985,34432
2986,34944
2987,35776
2988,36992
2989,38464
2990,39360
2991,39488
2992,38464
2993,36608
2994,34560
2995,32640
2996,31296
2997,30400
2998,30144
2999,30400
3000,30976
3001,31616
3002,32384
3003,32960
3004,33600
3005,34112
3006,34560
3007,34752
3008,34816
3009,34816
3010,34816
3011,34624
3012,34496
3013,34368
3014,34240
3015,34240
3016,34176
3017,34112
3018,34048
3019,34048
3020,34048
3021,34112
3022,34112
3023,34112
3024,34112
3025,34048
3026,33984
3027,34048
3028,34112
3029,34112
3030,34176
3031,34240
3032,34304
3033,34240
3034,34176
3035,34112
3036,34112
3037,34112
3038,34112
3039,34112
3040,34112
3041,34048
3042,34112
3043,34240
3044,34368
3045,34496
3046,34496
3047,34432
3048,34496
3049,34560
3050,34624
3051,34688
3052,34688
3053,34688
3054,34688
3055,34624
3056,34624
3057,34624
3058,34560
3059,34496
3060,34432
3061,34304
3062,34304
3063,34304
3064,34368
3065,34368
3066,34368
3067,34304
3068,34304
3069,34240
3070,34176
3071,34176
3072,34176
3073,34112
3074,34048
3075,34048
3076,33984
3077,33984
3078,33920
3079,33728
3080,33664
3081,33792
3082,33920
3083,33920
3084,33920
3085,33856
3086,33792
3087,33728
3088,33792
3089,33856
3090,33920
3091,33984
3092,34048
3093,34048
3094,33984
3095,33984
3096,34048
3097,34176
3098,34304
3099,34368
3100,34304
3101,34304
3102,34240
3103,34240
3104,34240
3105,34176
3106,34112
3107,34112
3108,34112
3109,34176
3110,34176
3111,34240
3112,34240
3113,34112
3114,33984
3115,34048
3116,34112
3117,34176
3118,34176
3119,34112
3120,34048
3121,34048
3122,34048
3123,34048
3124,33984
3125,34048
3126,34048
3127,34048
3128,33984
3129,33984
3130,34048
3131,34048
3132,34112
3133,34240
3134,34368
3135,34432
3136,34496
3137,34432
3138,34432
3139,34496
3140,34624
3141,34688
3142,34752
3143,34752
3144,34688
3145,34624
3146,34496
3147,34368
3148,34176
3149,33984
3150,33856
3151,33728
3152,33664
3153,33600
3154,33600
3155,33536
3156,33600
3157,33728
3158,33792
3159,33856
3160,33920
3161,33856
3162,33856
3163,33792
3164,33856
3165,33856
3166,33728
3167,33600
3168,33728
3169,34048
3170,34432
3171,35008
3172,36032
3173,37312
3174,38336
3175,38720
3176,38336
3177,37120
3178,35456
3179,33792
3180,32448
3181,31552
3182,30976
3183,30784
3184,30912
3185,31296
3186,31808
3187,32448
3188,33088
3189,33664
3190,34176
3191,34496
3192,34624
3193,34624
3194,34688
3195,34688
3196,34624
3197,34496
3198,34368
3199,34240
3200,34176
3201,34112
3202,33984
3203,33920
3204,33920
3205,33984
3206,34048
3207,34112
3208,34048
3209,34112
3210,34112
3211,34176
3212,34240
3213,34176
3214,34112
3215,34112
3216,34112
3217,34176
3218,34240
3219,34240
3220,34240
3221,34240
3222,34176
3223,34176
3224,34176
3225,34240
3226,34176
3227,34112
3228,34176
3229,34240
3230,34368
3231,34496
3232,34496
3233,34432
3234,34368
3235,34368
3236,34432
3237,34496
3238,34496
3239,34560
3240,34560
3241,34560
3242,34496
3243,34496
3244,34560
3245,34560
3246,34496
3247,34496
3248,34368
3249,34304
3250,34176
3251,34112
3252,34176
3253,34240
3254,34304
3255,34304
3256,34240
3257,34176
3258,34048
3259,33984
3260,33984
3261,33984
3262,33920
3263,33984
3264,33984
3265,33984
3266,33984
3267,34048
3268,33984
3269,33920
3270,33920
3271,33920
3272,33920
3273,33920
3274,34048
3275,34176
3276,34176
3277,34240
3278,34176
3279,34176
3280,34176
3281,34112
3282,34112
3283,34176
3284,34176
3285,34240
3286,34304
3287,34368
3288,34304
3289,34240
3290,34240
3291,34240
3292,34176
3293,34112
3294,34048
3295,34048
3296,34112
3297,34176
3298,34176
3299,34048
3300,33984
3301,33984
3302,34048
3303,34048
3304,34048
3305,33984
3306,34048
3307,34112
3308,34112
3309,34112
3310,34112
3311,34176
3312,34240
3313,34176
3314,34112
3315,34048
3316,34048
3317,34112
3318,34176
3319,34240
3320,34304
3321,34368
3322,34432
3323,34560
3324,34624
3325,34560
3326,34560
3327,34624
3328,34624
3329,34688
3330,34752
3331,34816
3332,34752
3333,34688
3334,34560
3335,34496
3336,34304
3337,34048
3338,33856
3339,33664
3340,33536
3341,33472
3342,33408
3343,33536
3344,33600
3345,33664
3346,33728
3347,33856
3348,33856
3349,33920
3350,33984
3351,33984
3352,33984
3353,33920
3354,33792
3355,33792
3356,33920
3357,34304
3358,34880
3359,35712
3360,36992
3361,38528
3362,39616
3363,39808
3364,38784
3365,36864
3366,34688
3367,32768
3368,31296
3369,30400
3370,30080
3371,30272
3372,30784
3373,31488
3374,32256
3375,32960
3376,33664
3377,34176
3378,34560
3379,34816
3380,34880
3381,34944
3382,34880
3383,34688
3384,34432
3385,34304
3386,34176
3387,34176
3388,34112
3389,34048
3390,34048
3391,33984
3392,33984
3393,33984
3394,33920
3395,33920
3396,34048
3397,34176
3398,34240
3399,34240
3400,34176
3401,34176
3402,34176
3403,34240
3404,34176
3405,34240
3406,34176
3407,34176
3408,34048
3409,34112
3410,34176
3411,34176
3412,34176
3413,34176
3414,34176
3415,34176
3416,34176
3417,34432
3418,34432
3419,34432
3420,34432
3421,34496
3422,34560
3423,34688
3424,34752
3425,34816
3426,34816
3427,34752
3428,34688
3429,34560
3430,34560
3431,34624
3432,34624
3433,34560
3434,34560
3435,34496
3436,34496
3437,34432
3438,34368
3439,34304
3440,34304
3441,34304
3442,34240
3443,34176
3444,34112
3445,33984
3446,33920
3447,33792
3448,33920
3449,33984
3450,33920
3451,33856
3452,33856
3453,33856
3454,33920
3455,33920
3456,33856
3457,33984
3458,33920
3459,33984
3460,33920
3461,33920
3462,34048
3463,33984
3464,34112
3465,34112
3466,34112
3467,34176
3468,34240
3469,34304
3470,34304
3471,34304
3472,34304
3473,34304
3474,34304
3475,34304
3476,34368
3477,34304
3478,34304
3479,34240
3480,34112
3481,33984
3482,33920
3483,33984
3484,34048
3485,34176
3486,34240
3487,34176
3488,34048
3489,33984
3490,34112
3491,34176
3492,34304
3493,34240
3494,34240
3495,34240
3496,34240
3497,34240
3498,34240
3499,34176
3500,34176
3501,34176
3502,34048
3503,33920
3504,33920
3505,33984
3506,33984
3507,34048
3508,34048
3509,34112
3510,34112
3511,34112
3512,34048
3513,34112
3514,34240
3515,34368
3516,34432
3517,34560
3518,34560
3519,34624
3520,34688
3521,34752
3522,34752
3523,34752
3524,34752
3525,34688
3526,34688
3527,34624
3528,34560
3529,34304
3530,33984
3531,33792
3532,33664
3533,33536
3534,33408
3535,33344
3536,33408
3537,33472
3538,33472
3539,33792
3540,33920
3541,33984
3542,34048
3543,34048
3544,34048
3545,34048
3546,33984
3547,33792
3548,33792
3549,33728
3550,34304
3551,34944
3552,35840
3553,37184
3554,38784
3555,39936
3556,40256
3557,39360
3558,37376
3559,35136
3560,32960
3561,31360
3562,30272
3563,29888
3564,30016
3565,30528
3566,31232
3567,32000
3568,32832
3569,33472
3570,34112
3571,34560
3572,34880
3573,35008
3574,34944
3575,34816
3576,34752
3577,34624
3578,34560
3579,34432
3580,34304
3581,34176
3582,34112
3583,34112
3584,34112
3585,34112
3586,34112
3587,34112
3588,34112
3589,34112
3590,34112
3591,34112
3592,34112
3593,34176
3594,34240
3595,34240
3596,34304
3597,34304
3598,34240
3599,34304
3600,34240
3601,34240
3602,34240
3603,34176
3604,34112
3605,34112
3606,34112
3607,34112
3608,34048
3609,34112
3610,34240
3611,34368
3612,34432
3613,34560
3614,34624
3615,34752
3616,34752
3617,34688
3618,34624
3619,34624
3620,34624
3621,34624
3622,34624
3623,34624
3624,34560
3625,34496
3626,34432
3627,34496
3628,34560
3629,34496
3630,34496
3631,34496
3632,34496
3633,34496
3634,34432
3635,34368
3636,34240
3637,34176
3638,34176
3639,34176
3640,34112
3641,34048
3642,34112
3643,34048
3644,33920
3645,33856
3646,33792
3647,33856
3648,33856
3649,33920
3650,33856
3651,33792
3652,33792
3653,33856
3654,33856
3655,33920
3656,33920
3657,34112
3658,34240
3659,34240
3660,34176
3661,34112
3662,33984
3663,34048
3664,34112
3665,34240
3666,34304
3667,34240
3668,34176
3669,34112
3670,34048
3671,34048
3672,33984
3673,33984
3674,33920
3675,33920
3676,33984
3677,33984
3678,33984
3679,33984
3680,33984
3681,33984
3682,33984
3683,33920
3684,33984
3685,33920
3686,33984
3687,33984
3688,34048
3689,34176
3690,34240
3691,34240
3692,34112
3693,33984
3694,34048
3695,34112
3696,34112
3697,34176
3698,34112
3699,34048
3700,34048
3701,33984
3702,33984
3703,34048
3704,34112
3705,34112
3706,34176
3707,34240
3708,34240
3709,34304
3710,34368
3711,34368
3712,34432
3713,34432
3714,34432
3715,34496
3716,34624
3717,34752
3718,34752
3719,34816
3720,34880
3721,34816
3722,34752
3723,34688
3724,34496
3725,34304
3726,34048
3727,33792
3728,33536
3729,33472
3730,33472
3731,33472
3732,33536
3733,33664
3734,33728
3735,33856
3736,33920
3737,33984
3738,34048
3739,34112
3740,34112
3741,34112
3742,33984
3743,33856
3744,33856
3745,33984
3746,34304
3747,34752
3748,35456
3749,36608
3750,38016
3751,38976
3752,39232
3753,38464
3754,36928
3755,35008
3756,33216
3757,31872
3758,31040
3759,30656
3760,30592
3761,30848
3762,31424
3763,32000
3764,32576
3765,33280
3766,33920
3767,34368
3768,34688
3769,34816
3770,34752
3771,34688
3772,34688
3773,34688
3774,34560
3775,34432
3776,34368
3777,34304
3778,34304
3779,34176
3780,34048
3781,33984
3782,33920
3783,33984
3784,33984
3785,34048
3786,34112
3787,34112
3788,34112
3789,34112
3790,34048
3791,34048
3792,34112
3793,34112
3794,34176
3795,34240
3796,34240
3797,34176
3798,34176
3799,34176
3800,34176
3801,34176
3802,34176
3803,34240
3804,34240
3805,34240
3806,34368
3807,34368
3808,34496
3809,34496
3810,34496
3811,34560
3812,34560
3813,34560
3814,34496
3815,34560
3816,34624
3817,34624
3818,34560
3819,34496
3820,34496
3821,34496
3822,34560
3823,34560
3824,34496
3825,34432
3826,34496
3827,34496
3828,34560
3829,34496
3830,34496
3831,34432
3832,34368
3833,34176
3834,34112
3835,34048
3836,33984
3837,33984
3838,33920
3839,33920
3840,33856
3841,33856
3842,33920
3843,33984
3844,33984
3845,33984
3846,34048
3847,33984
3848,33984
3849,33984
3850,33984
3851,34048
3852,34112
3853,34176
3854,34176
3855,34240
3856,34240
3857,34176
3858,34048
3859,34048
3860,34112
3861,34112
3862,34112
3863,34048
3864,33984
3865,34048
3866,34048
3867,34112
3868,34048
3869,33984
3870,33984
3871,33984
3872,34048
3873,34176
3874,34240
3875,34240
3876,34176
3877,34176
3878,34240
3879,34240
3880,34176
3881,34112
3882,34112
3883,34176
3884,34176
3885,34112
3886,34240
3887,34368
3888,34496
3889,34560
3890,34496
3891,34432
3892,34496
3893,34560
3894,34624
3895,34688
3896,34880
3897,34944
3898,34944
3899,34816
3900,34560
3901,34368
3902,34176
3903,33856
3904,33600
3905,33408
3906,33344
3907,33408
3908,33536
3909,33600
3910,33728
3911,33792
3912,33856
3913,33856
3914,33792
3915,33792
3916,33856
3917,33920
3918,33920
3919,33856
3920,33728
3921,33792
3922,34048
3923,34496
3924,35008
3925,35968
3926,37184
3927,38400
3928,38848
3929,38464
3930,37312
3931,35584
3932,33728
3933,32320
3934,31424
3935,30912
3936,30720
3937,30912
3938,31360
3939,31872
3940,32384
3941,32960
3942,33472
3943,33984
3944,34368
3945,34624
3946,34816
3947,34880
3948,34880
3949,34752
3950,34560
3951,34432
3952,34304
3953,34176
3954,34048
3955,33984
3956,33920
3957,33856
3958,33920
3959,34048
3960,34112
3961,34176
3962,34176
3963,34176
3964,34176
3965,34112
3966,34112
3967,34112
3968,34176
3969,34176
3970,34176
3971,34240
3972,34240
3973,34304
3974,34368
3975,34368
3976,34240
3977,34112
3978,34048
3979,33984
3980,34048
3981,34176
3982,34304
3983,34368
3984,34432
3985,34496
3986,34560
3987,34624
3988,34624
3989,34560
3990,34624
3991,34624
3992,34688
3993,34624
3994,34624
3995,34624
3996,34624
3997,34624
3998,34624
3999,34624
4000,34496
4001,34432
4002,34432
4003,34368
4004,34304
4005,34240
4006,34240
4007,34240
4008,34240
4009,34176
4010,34176
4011,34240
4012,34176
4013,34112
4014,34048
4015,33984
4016,33984
4017,33984
4018,33856
4019,33856
4020,33792
4021,33856
4022,33920
4023,33920
4024,33920
4025,33920
4026,33920
4027,33920
4028,33984
4029,33984
4030,33984
4031,33984
4032,34048
4033,34112
4034,34176
4035,34240
4036,34304
4037,34304
4038,34304
4039,34240
4040,34240
4041,34176
4042,34112
4043,34048
4044,34112
4045,34112
4046,34176
4047,34176
4048,34176
4049,34112
4050,34112
4051,34112
4052,33984
4053,33984
4054,33984
4055,33984
4056,33984
4057,34048
4058,34048
4059,34112
4060,34112
4061,34112
4062,34176
4063,34176
4064,34176
4065,34112
4066,33984
4067,33984
4068,33984
4069,33984
4070,33984
4071,33984
4072,34048
4073,34048
4074,34112
4075,34112
4076,34048
4077,33984
4078,33984
4079,34048
4080,34048
4081,34048
4082,34048
4083,34048
4084,34112
4085,34176
4086,34304
4087,34432
4088,34560
4089,34624
4090,34624
4091,34688
4092,34688
4093,34624
4094,34624
4095,34624
4096,34624
4097,34688
4098,34624
4099,34560
4100,34432
4101,34240
4102,34048
4103,33856
4104,33664
4105,33472
4106,33408
4107,33408
4108,33472
4109,33600
4110,33728
4111,33792
4112,33792
4113,33856
4114,33920
4115,33920
4116,33920
4117,33920
4118,33856
4119,33728
4120,33728
4121,33856
4122,34240
4123,34688
4124,35392
4125,36480
4126,38016
4127,39424
4128,40128
4129,39680
4130,37952
4131,35520
4132,33472
4133,31680
4134,30464
4135,29888
4136,29760
4137,30272
4138,30848
4139,31616
4140,32384
4141,33152
4142,33856
4143,34368
4144,34624
4145,34752
4146,34688
4147,34688
4148,34624
4149,34496
4150,34368
4151,34176
4152,34048
4153,33984
4154,33984
4155,33984
4156,33920
4157,33856
4158,33792
4159,33856
4160,33920
4161,33984
4162,33984
4163,33984
4164,34048
4165,34048
4166,34112
4167,34112
4168,34112
4169,34112
4170,34048
4171,34048
4172,34048
4173,34048
4174,34112
4175,34176
4176,34112
4177,34112
4178,34048
4179,34048
4180,34048
4181,34112
4182,34240
4183,34304
4184,34368
4185,34368
4186,34368
4187,34432
4188,34368
4189,34368
4190,34560
4191,34688
4192,34816
4193,34752
4194,34752
4195,34752
4196,34688
4197,34688
4198,34624
4199,34560
4200,34432
4201,34240
4202,34176
4203,34304
4204,34368
4205,34368
4206,34368
4207,34432
4208,34368
4209,34240
4210,34176
4211,34176
4212,34240
4213,34176
4214,34112
4215,34048
4216,33984
4217,33856
4218,33728
4219,33664
4220,33728
4221,33856
4222,33984
4223,34048
4224,33984
4225,34048
4226,34048
4227,34112
4228,34112
4229,34112
4230,34112
4231,34112
4232,34176
4233,34176
4234,34240
4235,34240
4236,34176
4237,34176
4238,34240
4239,34176
4240,34176
4241,34176
4242,34176
4243,34176
4244,34112
4245,34112
4246,34176
4247,34176
4248,34112
4249,34048
4250,34048
4251,34048
4252,34112
4253,34112
4254,34112
4255,34176
4256,34176
4257,34240
4258,34304
4259,34368
4260,34304
4261,34304
4262,34240
4263,34176
4264,34176
4265,34176
4266,34176
4267,34176
4268,34112
4269,34048
4270,33984
4271,33984
4272,33984
4273,33984
4274,33984
4275,33920
4276,33856
4277,33920
4278,34048
4279,34048
4280,34048
4281,34176
4282,34304
4283,34304
4284,34368
4285,34432
4286,34496
4287,34560
4288,34560
4289,34624
4290,34688
4291,34752
4292,34752
4293,34752
4294,34560
4295,34432
4296,34368
4297,34176
4298,33920
4299,33664
4300,33536
4301,33408
4302,33408
4303,33344
4304,33408
4305,33536
4306,33600
4307,33664
4308,33728
4309,33728
4310,33792
4311,33920
4312,33984
4313,33920
4314,33856
4315,33664
4316,33728
4317,33920
4318,34432
4319,35008
4320,35840
4321,37056
4322,38592
4323,39680
4324,39936
4325,38976
4326,36992
4327,34688
4328,32576
4329,31040
4330,30016
4331,29632
4332,29952
4333,30400
4334,31168
4335,31936
4336,32704
4337,33472
4338,34048
4339,34496
4340,34752
4341,34880
4342,34880
4343,34752
4344,34624
4345,34496
4346,34304
4347,34176
4348,34112
4349,34048
4350,33920
4351,33856
4352,33792
4353,33728
4354,33728
4355,33856
4356,33920
4357,33920
4358,33920
4359,33920
4360,34048
4361,34048
4362,34112
4363,34112
4364,34176
4365,34176
4366,34176
4367,34176
4368,34112
4369,34048
4370,34048
4371,34048
4372,34112
4373,34112
4374,34176
4375,34176
4376,34112
4377,34240
4378,34304
4379,34496
4380,34560
4381,34624
4382,34688
4383,34752
4384,34752
4385,34624
4386,34560
4387,34624
4388,34752
4389,34752
4390,34752
4391,34624
4392,34560
4393,34432
4394,34368
4395,34304
4396,34240
4397,34304
4398,34304
4399,34240
4400,34176
4401,34240
4402,34240
4403,34304
4404,34240
4405,34240
4406,34176
4407,34176
4408,34112
4409,34048
4410,34048
4411,34048
4412,34112
4413,34112
4414,33984
4415,33856
4416,33792
4417,33856
4418,33920
4419,33984
4420,33984
4421,33920
4422,33984
4423,33984
4424,33920
4425,33984
4426,33984
4427,33984
4428,34112
4429,34176
4430,34304
4431,34304
4432,34304
4433,34304
4434,34240
4435,34240
4436,34176
4437,34112
4438,34048
4439,33984
4440,34048
4441,34048
4442,34112
4443,34112
4444,34112
4445,34112
4446,34112
4447,34048
4448,33984
4449,33984
4450,34048
4451,34112
4452,34240
4453,34176
4454,34176
4455,34176
4456,34176
4457,34176
4458,34240
4459,34240
4460,34304
4461,34368
4462,34368
4463,34368
4464,34368
4465,34432
4466,34560
4467,34752
4468,34816
4469,34880
4470,34944
4471,34944
4472,34816
4473,34560
4474,34496
4475,34432
4476,34304
4477,34112
4478,33920
4479,33728
4480,33536
4481,33472
4482,33536
4483,33536
4484,33536
4485,33600
4486,33728
4487,33920
4488,33984
4489,34112
4490,34176
4491,34240
4492,34176
4493,34048
4494,33856
4495,33792
4496,33920
4497,34304
4498,34752
4499,35584
4500,36928
4501,38272
4502,38976
4503,38848
4504,37696
4505,35968
4506,34048
4507,32704
4508,31616
4509,30976
4510,30720
4511,30784
4512,31424
4513,31744
4514,32256
4515,32896
4516,33536
4517,34048
4518,34496
4519,34752
4520,34944
4521,34944
4522,34880
4523,34688
4524,34496
4525,34432
4526,34368
4527,34304
4528,34240
4529,34176
4530,34112
4531,34048
4532,34048
4533,34112
4534,34112
4535,34176
4536,34176
4537,34112
4538,34112
4539,34112
4540,34176
4541,34240
4542,34304
4543,34240
4544,34304
4545,34304
4546,34304
4547,34240
4548,34304
4549,34240
4550,34240
4551,34176
4552,34176
4553,34176
4554,34240
4555,34240
4556,34304
4557,34432
4558,34496
4559,34560
4560,34624
4561,34624
4562,34560
4563,34560
4564,34624
4565,34688
4566,34752
4567,34752
4568,34688
4569,34624
4570,34624
4571,34560
4572,34432
4573,34432
4574,34432
4575,34432
4576,34432
4577,34432
4578,34432
4579,34432
4580,34432
4581,34368
4582,34304
4583,34304
4584,34304
4585,34304
4586,34240
4587,34112
4588,34048
4589,34048
4590,33984
4591,33984
4592,33984
4593,33920
4594,33856
4595,33792
4596,33856
4597,33984
4598,34176
4599,34240
4600,34176
4601,34176
4602,34112
4603,34112
4604,34112
4605,34112
4606,34176
4607,34176
4608,34176
4609,34176
4610,34304
4611,34368
4612,34368
4613,34304
4614,34304
4615,34304
4616,34368
4617,34304
4618,34240
4619,34176
4620,34176
4621,34176
4622,34112
4623,34112
4624,34112
4625,34112
4626,34048
4627,34048
4628,34048
4629,34048
4630,34048
4631,34112
4632,34176
4633,34048
4634,34048
4635,34176
4636,34368
4637,34432
4638,34496
4639,34496
4640,34496
4641,34496
4642,34496
4643,34560
4644,34688
4645,34688
4646,34688
4647,34688
4648,34752
4649,34752
4650,34752
4651,34688
4652,34496
4653,34240
4654,33920
4655,33664
4656,33536
4657,33408
4658,33408
4659,33536
4660,33600
4661,33664
4662,33792
4663,33792
4664,33792
4665,33856
4666,33920
4667,33920
4668,33984
4669,33920
4670,33792
4671,33728
4672,33856
4673,34112
4674,34496
4675,35136
4676,36160
4677,37632
4678,38528
4679,38848
4680,38336
4681,36928
4682,35136
4683,33408
4684,32064
4685,31232
4686,30720
4687,30720
4688,31040
4689,31488
4690,32064
4691,32576
4692,33536
4693,33728
4694,34176
4695,34432
4696,34560
4697,34624
4698,34624
4699,34624
4700,34560
4701,34432
4702,34368
4703,34240
4704,34176
4705,33984
4706,33920
4707,33920
4708,33920
4709,33920
4710,33984
4711,34048
4712,34112
4713,34176
4714,34176
4715,34176
4716,34240
4717,34240
4718,34240
4719,34240
4720,34240
4721,34240
4722,34176
4723,34176
4724,34176
4725,34112
4726,34112
4727,34112
4728,34112
4729,34112
4730,34112
4731,34112
4732,34112
4733,34112
4734,34176
4735,34368
4736,34624
4737,34816
4738,34816
4739,34752
4740,34688
4741,34624
4742,34560
4743,34560
4744,34560
4745,34624
4746,34624
4747,34624
4748,34624
4749,34624
4750,34496
4751,34432
4752,34432
4753,34432
4754,34368
4755,34432
4756,34368
4757,34368
4758,34560
4759,34752
4760,34496
4761,34304
4762,34240
4763,34304
4764,34368
4765,34496
4766,34560
4767,34560
4768,34560
4769,34624
4770,34624
4771,34560
4772,34496
4773,34496
4774,34560
4775,34560
4776,34624
4777,34560
4778,34496
4779,34432
4780,34368
4781,34240
4782,34176
4783,34048
4784,33920
4785,33856
4786,33920
4787,33920
4788,33920
4789,33920
4790,33856
4791,33792
4792,33792
4793,33792
4794,33728
4795,33664
4796,33536
4797,33472
4798,33536
4799,33600
4800,33600
4801,33600
4802,33728
4803,33792
4804,33856
4805,33856
4806,33856
4807,33920
4808,33984
4809,33920
4810,33856
4811,33792
4812,33856
4813,33920
4814,33984
4815,33984
4816,34048
4817,34048
4818,33984
4819,33984
4820,33984
4821,34048
4822,34112
4823,34240
4824,34368
4825,34560
4826,34560
4827,34560
4828,34368
4829,34240
4830,34240
4831,34240
4832,34304
4833,34368
4834,34432
4835,34432
4836,34368
4837,34304
4838,34112
4839,33920
4840,33728
4841,33536
4842,33408
4843,33344
4844,33408
4845,33536
4846,33600
4847,33600
4848,33536
4849,33536
4850,33536
4851,33664
4852,33856
4853,33920
4854,33920
4855,33920
4856,33792
4857,33600
4858,33664
4859,33920
4860,34368
4861,34944
4862,35840
4863,37248
4864,38720
4865,39680
4866,39744
4867,38656
4868,36672
4869,34432
4870,32384
4871,30912
4872,30016
4873,29824
4874,30080
4875,30656
4876,31424
4877,32128
4878,32896
4879,33600
4880,34176
4881,34560
4882,34816
4883,34944
4884,34944
4885,34880
4886,34752
4887,34688
4888,34624
4889,34496
4890,34304
4891,34176
4892,34112
4893,34048
4894,34048
4895,33984
4896,33920
4897,33984
4898,34048
4899,34112
4900,34112
4901,34176
4902,34240
4903,34304
4904,34304
4905,34304
4906,34304
4907,34432
4908,34496
4909,34432
4910,34368
4911,34304
4912,34240
4913,34176
4914,34176
4915,34176
4916,34240
4917,34240
4918,34304
4919,34240
4920,34304
4921,34368
4922,34432
4923,34496
4924,34560
4925,34624
4926,34688
4927,34688
4928,34688
4929,34688
4930,34752
4931,34688
4932,34624
4933,34560
4934,34496
4935,34496
4936,34560
4937,34624
4938,34496
4939,34432
4940,34368
4941,34240
4942,34240
4943,34304
4944,34304
4945,34304
4946,34176
4947,34112
4948,34112
4949,34112
4950,34240
4951,34240
4952,34176
4953,34112
4954,34048
4955,33984
4956,33920
4957,33920
4958,33920
4959,33984
4960,33984
4961,34048
4962,34112
4963,34112
4964,34176
4965,34176
4966,34176
4967,34112
4968,34112
4969,34176
4970,34304
4971,34368
4972,34368
4973,34304
4974,34240
4975,34240
4976,34240
4977,34176
4978,34240
4979,34240
4980,34240
4981,34176
4982,34176
4983,34176
4984,34112
4985,34112
4986,34048
4987,34112
4988,34176
4989,34240
4990,34176
4991,34176
4992,34240
4993,34240
4994,34240
4995,34240
4996,34304
4997,34368
4998,34304
4999,34176
5000,34048
5001,33984
5002,33984
5003,34048
5004,34048
5005,34112
5006,34112
5007,34112
5008,34176
5009,34240
5010,34368
5011,34368
5012,34368
5013,34432
5014,34368
5015,34432
5016,34432
5017,34560
5018,34624
5019,34688
5020,34688
5021,34624
5022,34560
5023,34496
5024,34368
5025,34240
5026,33920
5027,33728
5028,33600
5029,33536
5030,33536
5031,33600
5032,33664
5033,33728
5034,33792
5035,33856
5036,33856
5037,33856
5038,33920
5039,34048
5040,34112
5041,34048
5042,33792
5043,33536
5044,33536
5045,33792
5046,34304
5047,34944
5048,35776
5049,36992
5050,38464
5051,39488
5052,39616
5053,38656
5054,36736
5055,34624
5056,32640
5057,31232
5058,30272
5059,29952
5060,30080
5061,30592
5062,31296
5063,32064
5064,32896
5065,33600
5066,34240
5067,34624
5068,34880
5069,34944
5070,34944
5071,34816
5072,34688
5073,34624
5074,34560
5075,34432
5076,34304
5077,34240
5078,34176
5079,34112
5080,34048
5081,34048
5082,34048
5083,34048
5084,34048
5085,34112
5086,34176
5087,34112
5088,34112
5089,34112
5090,34176
5091,34240
5092,34240
5093,34304
5094,34304
5095,34240
5096,34240
5097,34240
5098,34176
5099,34176
5100,34112
5101,34048
5102,34048
5103,34048
5104,34112
5105,34240
5106,34304
5107,34432
5108,34496
5109,34560
5110,34624
5111,34688
5112,34688
5113,34752
5114,34752
5115,34688
5116,34688
5117,34688
5118,34624
5119,34560
5120,34496
5121,34496
5122,34432
5123,34368
5124,34304
5125,34304
5126,34368
5127,34368
5128,34368
5129,34368
5130,34368
5131,34304
5132,34112
5133,34048
5134,33984
5135,33920
5136,33856
5137,33856
5138,33920
5139,33984
5140,33920
5141,33984
5142,33984
5143,33984
5144,34048
5145,33984
5146,34048
5147,34048
5148,34112
5149,34112
5150,34048
5151,33984
5152,34048
5153,34048
5154,34112
5155,34112
5156,34048
5157,34048
5158,34112
5159,34176
5160,34240
5161,34304
5162,34304
5163,34240
5164,34240
5165,34112
5166,34112
5167,34048
5168,34112
5169,34112
5170,34112
5171,34112
5172,34112
5173,34112
5174,34048
5175,33984
5176,33920
5177,33984
5178,34112
5179,34176
5180,34304
5181,34304
5182,34176
5183,34112
5184,34112
5185,34112
5186,34112
5187,34176
5188,34304
5189,34432
5190,34496
5191,34432
5192,34432
5193,34496
5194,34496
5195,34496
5196,34624
5197,34752
5198,34752
5199,34688
5200,34560
5201,34368
5202,34176
5203,33920
5204,33792
5205,33728
5206,33728
5207,33664
5208,33600
5209,33664
5210,33728
5211,33728
5212,33856
5213,33856
5214,33920
5215,33984
5216,34048
5217,34112
5218,33984
5219,33792
5220,33664
5221,33728
5222,33856
5223,34240
5224,34752
5225,35520
5226,36608
5227,37888
5228,38720
5229,38720
5230,37952
5231,36480
5232,34752
5233,33152
5234,31936
5235,31232
5236,30848
5237,30784
5238,31552
5239,32128
5240,32704
5241,33280
5242,33792
5243,33792
5244,34560
5245,34752
5246,34880
5247,34880
5248,34816
5249,34752
5250,34304
5251,34112
5252,34048
5253,34112
5254,34176
5255,34240
5256,34176
5257,34112
5258,34048
5259,34048
5260,34048
5261,34112
5262,34112
5263,34112
5264,34176
5265,34240
5266,34240
5267,34240
5268,34240
5269,34304
5270,34304
5271,34304
5272,34304
5273,34304
5274,34240
5275,34176
5276,34176
5277,34176
5278,34176
5279,34176
5280,34176
5281,34240
5282,34368
5283,34496
5284,34496
5285,34560
5286,34560
5287,34496
5288,34496
5289,34432
5290,34496
5291,34624
5292,34624
5293,34560
5294,34496
5295,34432
5296,34368
5297,34496
5298,34560
5299,34560
5300,34496
5301,34496
5302,34560
5303,34496
5304,34496
5305,34432
5306,34304
5307,34304
5308,34240
5309,34176
5310,34048
5311,33984
5312,33920
5313,33984
5314,33920
5315,33984
5316,33984
5317,33984
5318,33920
5319,33984
5320,34048
5321,34048
5322,34112
5323,34048
5324,34048
5325,33920
5326,33920
5327,33920
5328,33920
5329,34048
5330,34112
5331,34240
5332,34304
5333,34368
5334,34368
5335,34304
5336,34304
5337,34240
5338,34304
5339,34304
5340,34240
5341,34176
5342,34112
5343,34048
5344,33984
5345,33984
5346,34048
5347,34048
5348,34048
5349,34112
5350,34112
5351,34112
5352,34112
5353,34112
5354,34048
5355,33920
5356,33920
5357,33984
5358,34048
5359,34112
5360,34176
5361,34112
5362,34112
5363,34048
5364,34048
5365,34112
5366,34112
5367,34112
5368,34112
5369,34176
5370,34240
5371,34368
5372,34432
5373,34496
5374,34432
5375,34368
5376,34304
5377,34432
5378,34496
5379,34560
5380,34560
5381,34624
5382,34624
5383,34560
5384,34432
5385,34240
5386,34112
5387,33920
5388,33792
5389,33600
5390,33408
5391,33344
5392,33472
5393,33664
5394,33792
5395,33856
5396,33856
5397,33920
5398,33984
5399,34048
5400,33984
5401,33920
5402,33728
5403,33536
5404,33536
5405,33792
5406,34240
5407,34816
5408,35584
5409,36800
5410,38208
5411,39232
5412,39360
5413,38592
5414,36864
5415,34816
5416,32896
5417,31488
5418,30592
5419,30208
5420,30400
5421,30912
5422,31488
5423,32128
5424,32832
5425,33408
5426,33920
5427,34368
5428,34624
5429,34752
5430,34880
5431,34816
5432,34752
5433,34688
5434,34560
5435,34368
5436,34176
5437,34048
5438,33984
5439,33920
5440,33920
5441,33920
5442,33856
5443,33856
5444,33920
5445,34048
5446,34176
5447,34176
5448,34176
5449,34176
5450,34240
5451,34304
5452,34304
5453,34240
5454,34240
5455,34176
5456,34112
5457,34112
5458,34112
5459,34048
5460,34048
5461,34048
5462,34112
5463,34112
5464,34176
5465,34176
5466,34304
5467,34368
5468,34496
5469,34560
5470,34560
5471,34560
5472,34624
5473,34560
5474,34560
5475,34624
5476,34624
5477,34624
5478,34560
5479,34496
5480,34560
5481,34560
5482,34496
5483,34368
5484,34304
5485,34304
5486,34368
5487,34432
5488,34368
5489,34304
5490,34240
5491,34176
5492,34240
5493,34240
5494,34240
5495,34240
5496,34112
5497,34048
5498,33984
5499,33920
5500,33984
5501,33984
5502,33984
5503,33984
5504,33984
5505,34048
5506,33984
5507,33984
5508,33920
5509,33856
5510,33792
5511,33792
5512,33856
5513,34048
5514,34176
5515,34240
5516,34240
5517,34304
5518,34304
5519,34304
5520,34240
5521,34304
5522,34368
5523,34432
5524,34368
5525,34304
5526,34176
5527,34048
5528,33984
5529,33984
5530,33984
5531,33984
5532,34048
5533,34112
5534,34112
5535,34112
5536,34048
5537,34048
5538,34048
5539,34048
5540,34112
5541,34176
5542,34240
5543,34176
5544,34112
5545,34112
5546,34112
5547,34112
5548,34048
5549,33984
5550,33920
5551,33984
5552,34048
5553,34048
5554,33984
5555,33984
5556,34048
5557,34112
5558,34176
5559,34368
5560,34432
5561,34432
5562,34432
5563,34496
5564,34560
5565,34624
5566,34688
5567,34688
5568,34624
5569,34560
5570,34560
5571,34560
5572,34496
5573,34304
5574,34112
5575,33920
5576,33792
5577,33664
5578,33536
5579,33472
5580,33472
5581,33600
5582,33664
5583,33728
5584,33728
5585,33792
5586,33856
5587,33920
5588,33920
5589,33856
5590,33792
5591,33728
5592,33664
5593,33728
5594,34048
5595,34560
5596,35200
5597,36224
5598,37696
5599,39104
5600,39936
5601,39744
5602,38336
5603,36096
5604,33920
5605,32000
5606,30720
5607,29952
5608,29824
5609,30208
5610,30848
5611,31552
5612,32384
5613,33088
5614,33856
5615,34432
5616,34752
5617,34944
5618,35008
5619,34944
5620,34816
5621,34752
5622,34560
5623,34304
5624,34112
5625,34048
5626,34048
5627,34048
5628,33920
5629,33856
5630,33920
5631,33920
5632,33984
5633,34048
5634,34048
5635,34112
5636,34240
5637,34240
5638,34176
5639,34240
5640,34240
5641,34240
5642,34240
5643,34176
5644,34176
5645,34112
5646,34112
5647,34112
5648,34048
5649,33920
5650,33984
5651,33984
5652,34048
5653,34176
5654,34240
5655,34304
5656,34432
5657,34560
5658,34624
5659,34560
5660,34560
5661,34496
5662,34496
5663,34624
5664,34624
5665,34624
5666,34624
5667,34624
5668,34624
5669,34624
5670,34624
5671,34496
5672,34368
5673,34368
5674,34304
5675,34304
5676,34304
5677,34240
5678,34112
5679,34048
5680,34048
5681,34048
5682,34112
5683,34112
5684,34112
5685,33984
5686,33920
5687,33920
5688,33984
5689,34048
5690,34048
5691,33984
5692,33920
5693,33984
5694,34048
5695,34176
5696,34176
5697,34176
5698,34176
5699,34176
5700,34112
5701,34048
5702,33984
5703,33984
5704,33984
5705,34048
5706,34048
5707,34112
5708,34112
5709,34112
5710,34176
5711,34176
5712,34112
5713,34048
5714,34048
5715,34048
5716,34112
5717,34176
5718,34176
5719,34112
5720,34112
5721,34112
5722,34112
5723,34112
5724,34048
5725,34048
5726,34048
5727,34048
5728,34112
5729,34240
5730,34304
5731,34304
5732,34304
5733,34304
5734,34304
5735,34240
5736,34240
5737,34304
5738,34304
5739,34304
5740,34368
5741,34368
5742,34368
5743,34368
5744,34368
5745,34432
5746,34560
5747,34624
5748,34688
5749,34688
5750,34624
5751,34560
5752,34432
5753,34240
5754,34112
5755,33920
5756,33728
5757,33600
5758,33472
5759,33472
5760,33600
5761,33728
5762,33792
5763,33856
5764,33984
5765,34048
5766,34112
5767,34048
5768,33984
5769,33920
5770,33856
5771,33728
5772,33728
5773,33920
5774,34368
5775,34944
5776,35968
5777,37312
5778,38464
5779,38976
5780,38592
5781,37248
5782,35456
5783,33664
5784,32320
5785,31296
5786,30720
5787,30592
5788,30912
5789,31360
5790,32000
5791,32640
5792,33216
5793,33728
5794,34240
5795,34560
5796,34752
5797,34880
5798,34816
5799,34752
5800,34560
5801,34496
5802,34432
5803,34240
5804,34112
5805,33984
5806,33920
5807,33984
5808,33984
5809,34048
5810,34112
5811,34176
5812,34240
5813,34240
5814,34240
5815,34176
5816,34176
5817,34112
5818,34112
5819,34112
5820,34176
5821,34176
5822,34176
5823,34112
5824,34112
5825,34112
5826,34112
5827,34176
5828,34176
5829,34240
5830,34240
5831,34240
5832,34304
5833,34368
5834,34432
5835,34496
5836,34496
5837,34496
5838,34496
5839,34432
5840,34432
5841,34432
5842,34432
5843,34432
5844,34368
5845,34368
5846,34304
5847,34432
5848,34496
5849,34560
5850,34560
5851,34560
5852,34496
5853,34432
5854,34368
5855,34432
5856,34432
5857,34368
5858,34304
5859,34240
5860,34176
5861,34112
5862,34112
5863,34112
5864,33984
5865,33920
5866,33856
5867,33792
5868,33856
5869,33856
5870,33856
5871,33920
5872,33920
5873,33856
5874,33792
5875,33920
5876,33984
5877,34048
5878,34112
5879,34176
5880,34176
5881,34176
5882,34176
5883,34176
5884,34176
5885,34112
5886,34176
5887,34304
5888,34368
5889,34432
5890,34496
5891,34432
5892,34304
5893,34176
5894,34112
5895,34112
5896,34112
5897,34048
5898,34048
5899,34048
5900,34048
5901,34112
5902,34048
5903,34176
5904,34112
5905,34112
5906,34048
5907,34048
5908,33984
5909,34048
5910,34112
5911,34176
5912,34240
5913,34432
5914,34560
5915,34560
5916,34560
5917,34560
5918,34496
5919,34496
5920,34560
5921,34688
5922,34688
5923,34624
5924,34560
5925,34496
5926,34432
5927,34432
5928,34368
5929,34176
5930,33920
5931,33728
5932,33600
5933,33536
5934,33472
5935,33536
5936,33600
5937,33664
5938,33728
5939,33792
5940,33920
5941,33984
5942,34048
5943,34048
5944,33984
5945,33856
5946,33664
5947,33600
5948,33792
5949,34112
5950,34624
5951,35264
5952,36480
5953,37568
5954,38592
5955,38848
5956,38336
5957,36864
5958,35072
5959,33408
5960,32128
5961,31296
5962,30848
5963,30784
5964,31040
5965,31488
5966,32000
5967,32576
5968,33088
5969,33728
5970,34112
5971,34432
5972,34560
5973,34624
5974,34688
5975,34752
5976,34752
5977,34688
5978,34560
5979,34368
5980,34176
5981,34176
5982,34176
5983,34176
5984,34176
5985,34112
5986,34112
5987,34112
5988,34112
5989,34176
5990,34176
5991,34240
5992,34240
5993,34368
5994,34368
5995,34368
5996,34368
5997,34304
5998,34240
5999,34240
6000,34176
6001,34176
6002,34176
6003,34176
6004,34176
6005,34112
6006,34112
6007,34176
6008,34240
6009,34240
6010,34368
6011,34496
6012,34688
6013,34688
6014,34624
6015,34560
6016,34560
6017,34560
6018,34624
6019,34624
6020,34624
6021,34624
6022,34624
6023,34560
6024,34496
6025,34368
6026,34368
6027,34368
6028,34304
6029,34304
6030,34304
6031,34304
6032,34304
6033,34304
6034,34240
6035,34176
6036,34112
6037,34048
6038,33984
6039,33920
6040,33984
6041,34048
6042,33984
6043,33984
6044,33920
6045,33920
6046,33920
6047,33920
6048,33856
6049,33792
6050,33728
6051,33792
6052,33792
6053,33856
6054,33856
6055,33920
6056,33984
6057,34048
6058,34048
6059,34112
6060,34304
6061,34368
6062,34496
6063,34496
6064,34432
6065,34432
6066,34368
6067,34368
6068,34304
6069,34304
6070,34240
6071,34176
6072,34048
6073,33984
6074,33984
6075,33984
6076,33856
6077,33856
6078,33920
6079,33984
6080,34048
6081,34112
6082,34176
6083,34240
6084,34240
6085,34176
6086,34112
6087,34176
6088,34176
6089,34112
6090,34112
6091,34176
6092,34176
6093,34304
6094,34304
6095,34304
6096,34368
6097,34368
6098,34432
6099,34432
6100,34432
6101,34368
6102,34432
6103,34432
6104,34560
6105,34560
6106,34624
6107,34688
6108,34688
6109,34688
6110,34688
6111,34624
6112,34432
6113,34176
6114,33920
6115,33728
6116,33600
6117,33536
6118,33600
6119,33664
6120,33728
6121,33792
6122,33920
6123,33984
6124,34048
6125,34048
6126,34048
6127,34048
6128,34048
6129,33856
6130,33728
6131,33728
6132,33984
6133,34560
6134,35328
6135,36416
6136,37824
6137,39296
6138,39936
6139,39744
6140,38336
6141,36224
6142,33920
6143,32128
6144,30848
6145,30208
6146,30016
6147,30464
6148,30976
6149,31616
6150,32384
6151,33152
6152,33856
6153,34432
6154,34816
6155,34944
6156,34880
6157,34880
6158,34816
6159,34752
6160,34560
6161,34368
6162,34240
6163,34048
6164,33920
6165,33920
6166,33984
6167,34048
6168,33984
6169,33856
6170,33920
6171,33984
6172,34112
6173,34240
6174,34240
6175,34240
6176,34304
6177,34304
6178,34304
6179,34240
6180,34240
6181,34240
6182,34240
6183,34176
6184,34048
6185,33984
6186,33920
6187,33920
6188,34048
6189,34048
6190,34112
6191,34112
6192,34112
6193,34176
6194,34240
6195,34304
6196,34368
6197,34432
6198,34496
6199,34560
6200,34688
6201,34688
6202,34624
6203,34624
6204,34624
6205,34624
6206,34624
6207,34624
6208,34496
6209,34304
6210,34304
6211,34304
6212,34304
6213,34368
6214,34496
6215,34496
6216,34496
6217,34496
6218,34432
6219,34304
6220,34240
6221,34176
6222,34112
6223,34048
6224,33920
6225,33856
6226,33792
6227,33792
6228,33856
6229,33920
6230,33984
6231,33984
6232,33984
6233,34048
6234,33984
6235,33920
6236,33984
6237,34048
6238,34048
6239,34048
6240,34048
6241,34112
6242,34176
6243,34240
6244,34176
6245,34048
6246,34048
6247,34048
6248,33984
6249,33984
6250,34112
6251,34112
6252,34112
6253,34112
6254,34112
6255,34048
6256,34048
6257,34048
6258,34176
6259,34176
6260,34176
6261,34112
6262,34048
6263,34048
6264,34048
6265,34112
6266,33984
6267,33920
6268,33920
6269,33920
6270,33984
6271,34048
6272,33984
6273,33920
6274,33984
6275,34048
6276,34048
6277,34112
6278,34176
6279,34304
6280,34368
6281,34368
6282,34432
6283,34432
6284,34496
6285,34560
6286,34624
6287,34688
6288,34688
6289,34688
6290,34560
6291,34432
6292,34304
6293,34240
6294,34048
6295,33856
6296,33664
6297,33472
6298,33472
6299,33408
6300,33472
6301,33472
6302,33536
6303,33600
6304,33600
6305,33664
6306,33728
6307,33792
6308,33856
6309,33856
6310,33856
6311,33792
6312,33600
6313,33664
6314,33984
6315,34432
6316,35072
6317,36032
6318,37440
6319,38784
6320,39552
6321,39360
6322,38208
6323,36224
6324,34112
6325,32256
6326,30912
6327,30016
6328,29952
6329,30208
6330,30784
6331,31488
6332,32192
6333,32960
6334,33600
6335,34240
6336,34624
6337,34816
6338,34880
6339,34880
6340,34816
6341,34752
6342,34560
6343,34432
6344,34176
6345,34048
6346,33984
6347,33920
6348,33856
6349,33792
6350,33728
6351,33792
6352,33920
6353,34048
6354,34112
6355,34176
6356,34304
6357,34368
6358,34304
6359,34240
6360,34240
6361,34176
6362,34176
6363,34112
6364,34048
6365,34048
6366,34048
6367,34048
6368,33984
6369,33920
6370,33920
6371,34048
6372,34240
6373,34304
6374,34304
6375,34304
6376,34368
6377,34560
6378,34688
6379,34752
6380,34816
6381,34816
6382,34816
6383,34880
6384,34880
6385,34816
6386,34688
6387,34496
6388,34368
6389,34304
6390,34240
6391,34240
6392,34240
6393,34304
6394,34304
6395,34368
6396,34432
6397,34432
6398,34432
6399,34432
6400,34368
6401,34304
6402,34240
6403,34176
6404,34048
6405,33920
6406,33856
6407,33856
6408,33920
6409,33920
6410,33856
6411,33856
6412,33984
6413,34048
6414,34048
6415,34176
6416,34240
6417,34240
6418,34240
6419,34112
6420,34112
6421,34112
6422,34176
6423,34240
6424,34304
6425,34304
6426,34304
6427,34304
6428,34240
6429,34112
6430,34112
6431,34112
6432,34112
6433,34112
6434,34048
6435,34112
6436,34048
6437,34048
6438,33984
6439,33984
6440,33984
6441,33984
6442,33984
6443,33920
6444,33920
6445,33856
6446,33920
6447,34048
6448,34112
6449,34176
6450,34304
6451,34432
6452,34432
6453,34368
6454,34304
6455,34240
6456,34176
6457,34176
6458,34304
6459,34560
6460,34688
6461,34752
6462,34752
6463,34688
6464,34560
6465,34432
6466,34240
6467,34048
6468,33984
6469,33856
6470,33792
6471,33728
6472,33728
6473,33792
6474,33856
6475,33920
6476,33984
6477,33984
6478,33920
6479,33920
6480,33984
6481,34048
6482,34048
6483,33984
6484,33792
6485,33664
6486,33856
6487,34304
6488,34816
6489,35264
6490,36096
6491,37376
6492,38720
6493,38912
6494,38400
6495,36992
6496,35264
6497,33600
6498,32384
6499,31552
6500,31040
6501,30912
6502,31104
6503,31616
6504,32064
6505,32704
6506,33344
6507,33920
6508,34432
6509,34880
6510,35072
6511,35200
6512,35264
6513,35200
6514,35136
6515,35008
6516,34944
6517,34880
6518,34688
6519,34560
6520,34432
6521,34368
6522,34304
6523,34240
6524,34112
6525,33984
6526,33920
6527,33792
6528,33664
6529,33600
6530,33536
6531,33472
6532,33472
6533,33536
6534,33536
6535,33600
6536,33600
6537,33792
6538,33792
6539,33792
6540,33792
6541,33856
6542,33984
6543,34112
6544,34304
6545,34432
6546,34560
6547,34688
6548,34816
6549,34752
6550,34688
6551,34560
6552,34496
6553,34496
6554,34496
6555,34560
6556,34624
6557,34624
6558,34624
6559,34624
6560,34496
6561,34368
6562,34304
6563,34368
6564,34432
6565,34432
6566,34432
6567,34432
6568,34368
6569,34368
6570,34368
6571,34304
6572,34176
6573,34112
6574,34048
6575,34048
6576,34112
6577,34048
6578,33984
6579,33984
6580,33920
6581,33856
6582,33856
6583,33856
6584,33856
6585,33856
6586,33856
6587,33856
6588,33856
6589,33920
6590,33920
6591,33920
6592,33920
6593,33920
6594,33920
6595,33984
6596,34048
6597,34048
6598,34048
6599,34112
6600,34176
6601,34176
6602,34176
6603,34240
6604,34304
6605,34304
6606,34368
6607,34304
6608,34240
6609,34176
6610,34176
6611,34048
6612,33984
6613,33920
6614,33920
6615,33984
6616,34048
6617,34112
6618,34176
6619,34176
6620,34176
6621,34112
6622,34048
6623,34112
6624,34112
6625,34112
6626,34112
6627,34112
6628,34176
6629,34240
6630,34304
6631,34368
6632,34304
6633,34304
6634,34240
6635,34240
6636,34368
6637,34496
6638,34560
6639,34496
6640,34496
6641,34496
6642,34368
6643,34240
6644,34112
6645,33984
6646,33856
6647,33792
6648,33664
6649,33600
6650,33664
6651,33792
6652,33856
6653,33920
6654,33984
6655,34048
6656,34112
6657,34176
6658,34176
6659,34048
6660,33856
6661,33728
6662,33600
6663,33600
6664,33856
6665,34304
6666,34880
6667,35776
6668,37056
6669,38464
6670,39360
6671,39168
6672,37184
6673,36160
6674,34176
6675,32512
6676,31296
6677,30592
6678,30336
6679,30528
6680,31040
6681,31616
6682,32256
6683,32896
6684,33408
6685,33984
6686,34496
6687,34816
6688,34944
6689,34944
6690,34880
6691,34752
6692,34688
6693,34560
6694,34432
6695,34304
6696,34176
6697,34112
6698,34048
6699,33920
6700,33920
6701,33920
6702,33920
6703,33984
6704,34048
6705,34048
6706,34048
6707,33984
6708,34048
6709,34048
6710,34112
6711,34176
6712,34176
6713,34176
6714,34176
6715,34112
6716,34048
6717,33984
6718,34048
6719,33984
6720,33984
6721,34048
6722,34112
6723,34176
6724,34176
6725,34240
6726,34240
6727,34304
6728,34432
6729,34560
6730,34560
6731,34560
6732,34560
6733,34624
6734,34624
6735,34688
6736,34688
6737,34624
6738,34560
6739,34496
6740,34432
6741,34304
6742,34240
6743,34240
6744,34240
6745,34240
6746,34368
6747,34368
6748,34368
6749,34304
6750,34240
6751,34240
6752,34240
6753,34176
6754,34048
6755,34048
6756,33984
6757,33920
6758,33920
6759,33984
6760,33920
6761,33856
6762,33856
6763,33792
6764,33792
6765,33728
6766,33792
6767,33920
6768,33984
6769,33984
6770,34048
6771,34112
6772,34176
6773,34240
6774,34112
6775,34048
6776,34112
6777,34240
6778,34304
6779,34304
6780,34240
6781,34240
6782,34240
6783,34176
6784,34176
6785,34112
6786,34112
6787,34048
6788,33984
6789,33856
6790,33856
6791,33920
6792,33984
6793,34048
6794,34048
6795,33984
6796,33984
6797,34048
6798,34112
6799,34176
6800,34240
6801,34176
6802,34112
6803,34048
6804,34048
6805,34048
6806,34048
6807,34048
6808,34048
6809,34048
6810,34048
6811,34176
6812,34368
6813,34432
6814,34496
6815,34496
6816,34368
6817,34304
6818,34304
6819,34368
6820,34432
6821,34496
6822,34560
6823,34624
6824,34560
6825,34496
6826,34432
6827,34304
6828,34112
6829,33856
6830,33728
6831,33536
6832,33408
6833,33408
6834,33472
6835,33536
6836,33600
6837,33664
6838,33728
6839,33856
6840,33920
6841,33984
6842,33920
6843,33856
6844,33792
6845,33728
6846,33792
6847,34048
6848,34496
6849,35264
6850,36288
6851,37824
6852,39296
6853,40000
6854,39616
6855,37952
6856,35776
6857,33600
6858,31808
6859,30656
6860,29952
6861,29888
6862,30336
6863,31040
6864,31744
6865,32512
6866,33152
6867,33856
6868,34432
6869,34816
6870,35008
6871,35072
6872,35136
6873,35008
6874,34816
6875,34560
6876,34368
6877,34304
6878,34176
6879,34048
6880,33920
6881,33920
6882,33984
6883,34048
6884,34112
6885,34112
6886,34112
6887,34048
6888,34048
6889,34048
6890,34112
6891,34176
6892,34176
6893,34176
6894,34176
6895,34176
6896,34176
6897,34176
6898,34112
6899,34112
6900,34112
6901,34048
6902,34048
6903,34048
6904,34112
6905,34176
6906,34240
6907,34240
6908,34176
6909,34304
6910,34432
6911,34560
6912,34560
6913,34560
6914,34560
6915,34496
6916,34560
6917,34560
6918,34560
6919,34560
6920,34496
6921,34432
6922,34368
6923,34368
6924,34368
6925,34368
6926,34368
6927,34368
6928,34368
6929,34304
6930,34304
6931,34240
6932,34176
6933,34176
6934,34112
6935,34112
6936,34048
6937,34048
6938,34048
6939,33984
6940,33984
6941,33984
6942,33984
6943,33984
6944,33984
6945,33920
6946,33856
6947,33856
6948,33920
6949,33984
6950,34048
6951,34112
6952,34048
6953,34048
6954,34048
6955,34048
6956,34048
6957,34048
6958,34112
6959,34176
6960,34112
6961,34112
6962,34176
6963,34304
6964,34304
6965,34240
6966,34112
6967,34048
6968,33984
6969,33984
6970,33984
6971,34048
6972,34048
6973,34048
6974,34048
6975,34112
6976,34112
6977,34112
6978,34176
6979,34176
6980,34176
6981,34176
6982,34176
6983,34176
6984,34176
6985,34112
6986,33984
6987,33856
6988,33856
6989,33856
6990,33984
6991,34048
6992,34112
6993,34176
6994,34304
6995,34432
6996,34496
6997,34560
6998,34496
6999,34432
7000,34432
7001,34496
7002,34688
7003,34688
7004,34688
7005,34688
7006,34688
7007,34688
7008,34560
7009,34368
7010,34048
7011,33856
7012,33600
7013,33344
7014,33280
7015,33408
7016,33600
7017,33728
7018,33792
7019,33792
7020,33856
7021,33984
7022,33920
7023,33920
7024,33920
7025,33856
7026,33728
7027,33728
7028,33920
7029,34176
7030,34688
7031,35200
7032,36032
7033,37312
7034,38656
7035,39360
7036,39168
7037,37888
7038,36160
7039,34432
7040,32896
7041,31808
7042,31104
7043,30848
7044,31040
7045,31616
7046,32192
7047,32704
7048,33280
7049,33984
7050,34496
7051,34944
7052,35200
7053,35392
7054,35456
7055,35392
7056,35200
7057,35072
7058,35008
7059,34816
7060,34432
7061,34240
7062,34112
7063,34048
7064,33920
7065,33920
7066,33856
7067,33792
7068,33664
7069,33600
7070,33536
7071,33600
7072,33664
7073,33664
7074,33664
7075,33792
7076,33792
7077,33792
7078,33728
7079,33728
7080,33728
7081,33792
7082,33792
7083,33920
7084,33984
7085,34048
7086,34112
7087,34240
7088,34368
7089,34368
7090,34432
7091,34560
7092,34624
7093,34624
7094,34688
7095,34816
7096,34816
7097,34752
7098,34624
7099,34560
7100,34432
7101,34432
7102,34432
7103,34432
7104,34368
7105,34368
7106,34368
7107,34304
7108,34304
7109,34304
7110,34304
7111,34368
7112,34368
7113,34368
7114,34304
7115,34240
7116,34048
7117,33920
7118,33856
7119,33792
7120,33856
7121,33792
7122,33664
7123,33600
7124,33600
7125,33856
7126,33920
7127,33984
7128,34112
7129,34176
7130,34176
7131,34240
7132,34304
7133,34368
7134,34432
7135,34368
7136,34304
7137,34304
7138,34304
7139,34304
7140,34304
7141,34240
7142,34304
7143,34304
7144,34304
7145,34240
7146,34240
7147,34112
7148,33984
7149,33920
7150,33984
7151,34112
7152,34112
7153,34176
7154,34112
7155,34048
7156,34048
7157,34176
7158,34304
7159,34368
7160,34368
7161,34368
7162,34368
7163,34304
7164,34240
7165,34304
7166,34304
7167,34432
7168,34496
7169,34560
7170,34560
7171,34432
7172,34368
7173,34368
7174,34496
7175,34624
7176,34688
7177,34752
7178,34688
7179,34624
7180,34496
7181,34432
7182,34304
7183,34112
7184,33856
7185,33664
7186,33536
7187,33472
7188,33536
7189,33600
7190,33664
7191,33792
7192,33920
7193,34048
7194,34048
7195,34176
7196,34176
7197,34112
7198,33984
7199,33792
7200,33728
7201,33728
7202,33984
7203,34368
7204,34944
7205,35776
7206,37056
7207,38272
7208,38848
7209,38464
7210,37248
7211,35584
7212,33984
7213,32640
7214,31744
7215,31232
7216,30976
7217,31040
7218,31360
7219,31808
7220,32384
7221,32896
7222,33536
7223,34112
7224,34112
7225,34816
7226,34880
7227,34944
7228,34880
7229,34816
7230,34688
7231,34496
7232,34368
7233,34176
7234,34176
7235,34112
7236,34112
7237,34112
7238,34112
7239,34048
7240,34176
7241,34176
7242,34176
7243,34176
7244,34176
7245,34176
7246,34240
7247,34304
7248,34240
7249,34240
7250,34240
7251,34240
7252,34240
7253,34240
7254,34176
7255,34176
7256,34176
7257,34176
7258,34240
7259,34240
7260,34304
7261,34304
7262,34368
7263,34368
7264,34496
7265,34496
7266,34496
7267,34560
7268,34624
7269,34624
7270,34688
7271,34688
7272,34624
7273,34496
7274,34496
7275,34432
7276,34432
7277,34432
7278,34432
7279,34432
7280,34368
7281,34240
7282,34240
7283,34368
7284,34432
7285,34368
7286,34368
7287,34368
7288,34368
7289,34240
7290,34112
7291,34048
7292,34048
7293,34048
7294,33984
7295,33920
7296,33856
7297,33856
7298,33856
7299,33856
7300,33920
7301,34048
7302,34048
7303,33984
7304,33920
7305,33920
7306,33984
7307,34112
7308,34112
7309,34048
7310,33984
7311,34048
7312,34112
7313,34176
7314,34240
7315,34304
7316,34368
7317,34368
7318,34304
7319,34240
7320,34176
7321,34176
7322,34112
7323,34176
7324,34176
7325,34176
7326,34240
7327,34176
7328,34048
7329,34048
7330,34112
7331,34048
7332,33984
7333,33984
7334,34048
7335,34176
7336,34240
7337,34240
7338,34112
7339,34048
7340,34048
7341,34176
7342,34240
7343,34176
7344,34176
7345,34112
7346,34048
7347,34048
7348,34112
7349,34240
7350,34432
7351,34496
7352,34496
7353,34560
7354,34560
7355,34496
7356,34432
7357,34560
7358,34560
7359,34624
7360,34624
7361,34624
7362,34624
7363,34560
7364,34496
7365,34368
7366,34176
7367,33984
7368,33792
7369,33600
7370,33536
7371,33536
7372,33600
7373,33664
7374,33728
7375,33792
7376,33920
7377,33984
7378,33984
7379,33984
7380,33984
7381,33920
7382,33856
7383,33792
7384,33792
7385,34112
7386,34624
7387,35264
7388,36288
7389,37696
7390,39040
7391,39744
7392,39424
7393,38016
7394,36032
7395,33920
7396,32192
7397,30976
7398,30208
7399,30080
7400,30400
7401,31040
7402,31808
7403,32576
7404,33280
7405,33920
7406,34368
7407,34752
7408,34944
7409,34944
7410,34880
7411,34816
7412,34688
7413,34560
7414,34432
7415,34304
7416,34240
7417,34176
7418,34048
7419,33984
7420,33984
7421,33984
7422,34048
7423,34048
7424,34048
7425,33984
7426,34048
7427,34112
7428,34176
7429,34176
7430,34240
7431,34240
7432,34304
7433,34304
7434,34176
7435,34176
7436,34112
7437,34112
7438,34048
7439,33984
7440,34048
7441,34112
7442,34176
7443,34240
7444,34240
7445,34304
7446,34368
7447,34432
7448,34496
7449,34560
7450,34624
7451,34688
7452,34688
7453,34624
7454,34624
7455,34624
7456,34560
7457,34496
7458,34496
7459,34496
7460,34496
7461,34496
7462,34496
7463,34496
7464,34432
7465,34368
7466,34240
7467,34304
7468,34368
7469,34432
7470,34368
7471,34304
7472,34240
7473,34176
7474,34048
7475,33920
7476,33920
7477,33920
7478,33984
7479,33920
7480,33920
7481,33920
7482,33856
7483,33856
7484,33856
7485,33856
7486,33984
7487,33984
7488,33984
7489,33984
7490,34048
7491,34048
7492,34112
7493,34112
7494,34176
7495,34240
7496,34304
7497,34368
7498,34368
7499,34304
7500,34240
7501,34240
7502,34240
7503,34240
7504,34240
7505,34240
7506,34176
7507,34176
7508,34112
7509,34048
7510,34048
7511,33920
7512,33856
7513,33984
7514,34048
7515,34176
7516,34240
7517,34240
7518,34112
7519,33984
7520,33920
7521,33920
7522,33920
7523,34048
7524,34048
7525,34048
7526,33984
7527,33920
7528,33856
7529,33920
7530,34048
7531,34112
7532,34240
7533,34304
7534,34304
7535,34368
7536,34432
7537,34432
7538,34432
7539,34368
7540,34432
7541,34560
7542,34560
7543,34496
7544,34432
7545,34432
7546,34432
7547,34368
7548,34304
7549,34176
7550,34048
7551,33984
7552,33920
7553,33664
7554,33472
7555,33408
7556,33472
7557,33600
7558,33728
7559,33792
7560,33856
7561,33920
7562,34048
7563,33984
7564,33920
7565,33856
7566,33792
7567,33664
7568,33728
7569,33920
7570,34432
7571,35072
7572,35904
7573,37184
7574,38656
7575,39680
7576,39808
7577,38784
7578,36864
7579,34624
7580,32640
7581,31232
7582,30400
7583,30080
7584,30272
7585,30784
7586,31488
7587,32384
7588,33152
7589,33920
7590,34624
7591,35072
7592,35264
7593,35392
7594,35392
7595,35392
7596,35328
7597,35200
7598,35008
7599,34816
7600,34688
7601,34624
7602,34496
7603,34496
7604,34432
7605,34432
7606,34432
7607,34432
7608,34432
7609,34304
7610,34240
7611,34240
7612,34304
7613,34368
7614,34368
7615,34368
7616,34304
7617,34240
7618,34112
7619,33984
7620,33920
7621,33920
7622,33856
7623,33792
7624,33728
7625,33664
7626,33664
7627,33664
7628,33728
7629,33728
7630,33792
7631,33856
7632,33920
7633,34048
7634,34176
7635,34304
7636,34432
7637,34432
7638,34368
7639,34432
7640,34432
7641,34496
7642,34432
7643,34304
7644,34176
7645,34112
7646,34048
7647,34048
7648,34048
7649,34176
7650,34240
7651,34240
7652,34176
7653,34176
7654,34112
7655,34112
7656,34112
7657,33984
7658,33920
7659,33856
7660,33856
7661,33856
7662,33920
7663,33920
7664,33856
7665,33792
7666,33728
7667,33728
7668,33728
7669,33728
7670,33728
7671,33792
7672,33856
7673,33920
7674,33984
7675,33984
7676,33984
7677,34048
7678,34048
7679,34048
7680,33920
7681,33920
7682,33920
7683,33984
7684,34048
7685,34112
7686,34112
7687,34112
7688,33984
7689,33920
7690,33920
7691,33984
7692,34048
7693,34112
7694,34112
7695,34112
7696,34176
7697,34240
7698,34176
7699,34176
7700,34176
7701,34176
7702,34176
7703,34048
7704,34048
7705,33984
7706,33984
7707,34048
7708,34048
7709,34112
7710,34112
7711,33984
7712,33984
7713,33984
7714,34048
7715,34176
7716,34368
7717,34432
7718,34432
7719,34432
7720,34368
7721,34304
7722,34304
7723,34368
7724,34560
7725,34624
7726,34688
7727,34688
7728,34688
7729,34560
7730,34368
7731,34112
7732,33984
7733,33856
7734,33664
7735,33600
7736,33536
7737,33536
7738,33600
7739,33600
7740,33664
7741,33856
7742,33984
7743,34048
7744,34112
7745,34048
7746,33984
7747,33920
7748,33792
7749,33728
7750,33856
7751,34176
7752,34624
7753,35264
7754,36352
7755,37632
7756,38784
7757,39232
7758,38784
7759,37312
7760,35456
7761,33600
7762,32192
7763,31232
7764,30720
7765,30592
7766,30784
7767,31360
7768,32000
7769,32640
7770,33344
7771,33920
7772,34368
7773,34688
7774,34880
7775,34944
7776,34944
7777,34880
7778,34816
7779,34624
7780,34496
7781,34368
7782,34240
7783,34112
7784,34048
7785,33984
7786,33984
7787,34048
7788,34176
7789,34240
7790,34304
7791,34304
7792,34304
7793,34304
7794,34304
7795,34368
7796,34368
7797,34368
7798,34368
7799,34304
7800,34304
7801,34240
7802,34240
7803,34176
7804,34112
7805,34048
7806,34112
7807,34176
7808,34304
7809,34368
7810,34432
7811,34432
7812,34432
7813,34368
7814,34304
7815,34304
7816,34432
7817,34496
7818,34496
7819,34560
7820,34560
7821,34624
7822,34560
7823,34496
7824,34496
7825,34496
7826,34496
7827,34496
7828,34432
7829,34432
7830,34432
7831,34432
7832,34368
7833,34304
7834,34240
7835,34176
7836,34176
7837,34048
7838,34048
7839,34048
7840,34048
7841,34112
7842,34048
7843,34048
7844,34048
7845,33984
7846,33984
7847,33984
7848,33984
7849,34048
7850,34048
7851,34112
7852,34112
7853,34112
7854,34048
7855,33920
7856,33920
7857,33984
7858,33984
7859,34048
7860,34112
7861,34240
7862,34240
7863,34240
7864,34240
7865,34240
7866,34176
7867,34176
7868,34176
7869,34112
7870,34048
7871,33984
7872,34048
7873,33984
7874,33984
7875,33920
7876,33984
7877,33984
7878,34048
7879,34112
7880,34176
7881,34176
7882,34112
7883,34112
7884,34176
7885,34368
7886,34368
7887,34368
7888,34368
7889,34368
7890,34496
7891,34560
7892,34560
7893,34624
7894,34688
7895,34688
7896,34688
7897,34560
7898,34496
7899,34304
7900,34176
7901,33984
7902,33728
7903,33600
7904,33600
7905,33600
7906,33600
7907,33728
7908,33792
7909,33856
7910,33984
7911,34048
7912,34112
7913,34112
7914,34048
7915,33984
7916,33792
7917,33600
7918,33600
7919,33856
7920,34304
7921,34816
7922,35648
7923,36800
7924,38016
7925,38720
7926,38528
7927,37504
7928,35968
7929,34304
7930,32832
7931,31808
7932,31104
7933,30848
7934,30912
7935,31296
7936,31872
7937,32448
7938,33024
7939,33664
7940,34176
7941,34560
7942,34816
7943,34944
7944,34880
7945,34752
7946,34624
7947,34432
7948,34368
7949,34304
7950,34176
7951,34176
7952,34176
7953,34176
7954,34112
7955,34048
7956,34048
7957,33984
7958,34048
7959,34112
7960,34176
7961,34112
7962,34112
7963,34112
7964,34176
7965,34176
7966,34240
7967,34176
7968,34176
7969,34176
7970,34176
7971,34240
7972,34304
7973,34368
7974,34304
7975,34240
7976,34240
7977,34176
7978,34304
7979,34368
7980,34432
7981,34496
7982,34496
7983,34432
7984,34432
7985,34432
7986,34432
7987,34368
7988,34368
7989,34368
7990,34304
7991,34304
7992,34304
7993,34432
7994,34496
7995,34432
7996,34368
7997,34304
7998,34304
7999,34304
8000,34368
8001,34368
8002,34304
8003,34304
8004,34304
8005,34304
8006,34240
8007,34112
8008,34048
8009,34048
8010,33984
8011,33984
8012,33856
8013,33856
8014,33856
8015,33856
8016,33856
8017,33856
8018,33856
8019,33792
8020,33792
8021,33792
8022,33792
8023,33856
8024,33920
8025,34048
8026,34112
8027,34176
8028,34176
8029,34176
8030,34176
8031,34112
8032,34176
8033,34176
8034,34240
8035,34240
8036,34240
8037,34240
8038,34112
8039,34048
8040,33984
8041,33984
8042,34048
8043,34048
8044,34048
8045,33984
8046,33984
8047,33984
8048,33984
8049,33984
8050,33920
8051,33920
8052,33984
8053,34048
8054,34112
8055,34176
8056,34176
8057,34176
8058,34176
8059,34304
8060,34432
8061,34560
8062,34496
8063,34432
8064,34368
8065,34496
8066,34624
8067,34688
8068,34752
8069,34688
8070,34688
8071,34624
8072,34432
8073,34240
8074,34048
8075,33920
8076,33728
8077,33664
8078,33472
8079,33344
8080,33408
8081,33664
8082,33792
8083,33728
8084,33792
8085,33984
8086,34112
8087,34112
8088,34112
8089,33984
8090,33856
8091,33728
8092,33728
8093,33856
8094,34176
8095,34752
8096,35648
8097,36928
8098,38336
8099,39232
8100,39296
8101,38336
8102,36608
8103,34496
8104,32512
8105,31168
8106,30272
8107,29952
8108,30208
8109,30784
8110,31488
8111,32192
8112,33088
8113,33600
8114,34112
8115,34560
8116,34816
8117,34944
8118,35008
8119,34944
8120,34880
8121,34752
8122,34624
8123,34560
8124,34432
8125,34240
8126,34048
8127,34048
8128,33984
8129,33984
8130,33984
8131,33920
8132,33920
8133,33984
8134,34048
8135,34112
8136,34176
8137,34176
8138,34240
8139,34240
8140,34304
8141,34304
8142,34304
8143,34304
8144,34368
8145,34304
8146,34048
8147,33920
8148,33920
8149,33920
8150,34048
8151,34176
8152,34368
8153,34560
8154,34624
8155,34624
8156,34688
8157,34816
8158,34880
8159,34944
8160,34944
8161,34880
8162,34880
8163,34752
8164,34688
8165,34560
8166,34368
8167,34112
8168,33984
8169,33984
8170,34048
8171,34112
8172,33984
8173,33920
8174,33856
8175,33856
8176,33920
8177,34048
8178,34112
8179,34176
8180,34176
8181,34176
8182,34112
8183,34048
8184,33984
8185,33984
8186,33984
8187,33920
8188,33856
8189,33984
8190,34112
8191,34240
8192,34304
8193,34240
8194,34240
8195,34176
8196,34048
8197,33920
8198,33984
8199,34176
8200,34304
8201,34496
8202,34560
8203,34560
8204,34624
8205,34560
8206,34496
8207,34496
8208,34432
8209,34368
8210,34304
8211,34240
8212,34112
8213,34048
8214,33984
8215,33984
8216,33984
8217,33920
8218,33856
8219,33792
8220,33856
8221,33856
8222,33856
8223,33920
8224,34048
8225,34048
8226,34048
8227,34048
8228,34048
8229,34048
8230,34048
8231,33984
8232,33984
8233,34048
8234,34176
8235,34304
8236,34368
8237,34432
8238,34432
8239,34496
8240,34624
8241,34752
8242,34816
8243,34816
8244,34816
8245,34816
8246,34752
8247,34752
8248,34624
8249,34432
8250,34112
8251,33792
8252,33600
8253,33472
8254,33408
8255,33472
8256,33536
8257,33536
8258,33536
8259,33664
8260,33792
8261,33920
8262,33984
8263,33984
8264,33984
8265,33920
8266,33792
8267,33728
8268,33792
8269,34112
8270,34560
8271,35200
8272,36416
8273,37952
8274,39360
8275,40064
8276,39680
8277,38080
8278,35904
8279,33664
8280,31872
8281,30656
8282,30016
8283,29952
8284,30400
8285,31040
8286,31744
8287,32576
8288,33344
8289,33984
8290,34432
8291,34752
8292,34880
8293,34944
8294,34880
8295,34688
8296,34496
8297,34368
8298,34304
8299,34240
8300,34176
8301,34048
8302,34048
8303,33984
8304,33920
8305,33920
8306,33920
8307,33984
8308,34048
8309,34112
8310,34176
8311,34240
8312,34240
8313,34176
8314,34176
8315,34240
8316,34240
8317,34240
8318,34176
8319,34176
8320,34112
8321,33984
8322,33920
8323,33920
8324,33984
8325,34048
8326,34048
8327,34048
8328,34112
8329,34240
8330,34432
8331,34560
8332,34624
8333,34624
8334,34624
8335,34688
8336,34688
8337,34624
8338,34560
8339,34432
8340,34432
8341,34368
8342,34368
8343,34368
8344,34368
8345,34304
8346,34304
8347,34240
8348,34176
8349,34176
8350,34240
8351,34240
8352,34240
8353,34240
8354,34176
8355,34176
8356,34112
8357,34112
8358,34112
8359,34048
8360,33984
8361,33984
8362,33984
8363,33984
8364,33920
8365,33856
8366,33856
8367,33856
8368,33856
8369,33792
8370,33792
8371,33920
8372,33984
8373,34048
8374,33984
8375,33920
8376,33984
8377,33984
8378,34048
8379,34112
8380,34112
8381,34112
8382,34240
8383,34240
8384,34176
8385,34112
8386,34112
8387,34112
8388,34112
8389,34112
8390,34048
8391,34048
8392,34048
8393,34112
8394,34112
8395,34048
8396,33920
8397,33920
8398,33984
8399,34048
8400,34112
8401,34240
8402,34304
8403,34368
8404,34432
8405,34496
8406,34496
8407,34496
8408,34368
8409,34368
8410,34432
8411,34560
8412,34624
8413,34624
8414,34624
8415,34688
8416,34688
8417,34624
8418,34496
8419,34240
8420,33984
8421,33856
8422,33728
8423,33664
8424,33536
8425,33472
8426,33472
8427,33664
8428,33728
8429,33856
8430,33920
8431,33984
8432,34048
8433,33984
8434,33920
8435,33856
8436,33792
8437,33728
8438,33856
8439,34048
8440,34432
8441,34944
8442,35968
8443,37184
8444,38400
8445,38912
8446,38656
8447,37440
8448,35648
8449,33856
8450,32384
8451,31424
8452,30784
8453,30656
8454,30912
8455,31424
8456,32000
8457,32832
8458,33152
8459,33728
8460,34304
8461,34624
8462,34752
8463,34816
8464,34880
8465,34880
8466,34816
8467,34624
8468,34432
8469,34304
8470,34240
8471,34240
8472,34112
8473,33984
8474,33920
8475,33920
8476,33984
8477,34112
8478,34240
8479,34304
8480,34304
8481,34304
8482,34304
8483,34368
8484,34304
8485,34240
8486,34240
8487,34304
8488,34240
8489,34240
8490,34176
8491,34176
8492,34176
8493,34112
8494,34112
8495,34112
8496,34240
8497,34368
8498,34496
8499,34560
8500,34560
8501,34560
8502,34496
8503,34496
8504,34496
8505,34496
8506,34496
8507,34560
8508,34432
8509,34368
8510,34368
8511,34368
8512,34368
8513,34368
8514,34304
8515,34304
8516,34368
8517,34432
8518,34368
8519,34368
8520,34368
8521,34368
8522,34368
8523,34368
8524,34368
8525,34304
8526,34176
8527,34048
8528,33984
8529,33984
8530,33984
8531,34048
8532,34048
8533,33984
8534,33920
8535,33792
8536,33792
8537,33792
8538,33792
8539,33856
8540,33920
8541,33920
8542,33984
8543,34112
8544,34176
8545,34176
8546,34240
8547,34240
8548,34240
8549,34304
8550,34240
8551,34240
8552,34240
8553,34240
8554,34176
8555,34176
8556,34240
8557,34240
8558,34304
8559,34304
8560,34240
8561,34240
8562,34176
8563,34176
8564,34112
8565,34048
8566,34112
8567,34240
8568,34240
8569,34176
8570,34304
8571,34432
8572,34496
8573,34560
8574,34496
8575,34368
8576,34304
8577,34496
8578,34688
8579,34688
8580,34688
8581,34752
8582,34752
8583,34624
8584,34496
8585,34240
8586,34112
8587,33856
8588,33664
8589,33536
8590,33536
8591,33664
8592,33728
8593,33728
8594,33792
8595,33792
8596,33920
8597,33984
8598,33984
8599,34048
8600,34048
8601,34048
8602,33920
8603,33792
8604,33792
8605,33984
8606,34368
8607,34752
8608,35584
8609,36800
8610,38016
8611,38656
8612,38464
8613,37376
8614,35840
8615,34176
8616,32832
8617,31808
8618,31104
8619,30848
8620,30976
8621,31296
8622,32128
8623,32384
8624,33024
8625,33600
8626,34112
8627,34368
8628,34560
8629,34752
8630,34816
8631,34816
8632,34752
8633,34560
8634,34304
8635,34176
8636,34048
8637,33984
8638,33920
8639,33920
8640,33920
8641,33920
8642,33920
8643,33984
8644,34048
8645,34176
8646,34304
8647,34304
8648,34240
8649,34240
8650,34240
8651,34240
8652,34240
8653,34240
8654,34176
8655,34176
8656,34112
8657,34176
8658,34112
8659,34112
8660,34048
8661,34048
8662,34112
8663,34240
8664,34368
8665,34496
8666,34496
8667,34496
8668,34496
8669,34560
8670,34496
8671,34432
8672,34432
8673,34496
8674,34560
8675,34560
8676,34432
8677,34368
8678,34304
8679,34240
8680,34176
8681,34176
8682,34240
8683,34368
8684,34368
8685,34368
8686,34432
8687,34432
8688,34432
8689,34304
8690,34304
8691,34368
8692,34368
8693,34304
8694,34176
8695,34176
8696,34240
8697,34240
8698,34176
8699,34112
8700,34112
8701,34176
8702,34240
8703,34304
8704,34304
8705,34368
8706,34496
8707,34560
8708,34560
8709,34560
8710,34560
8711,34560
8712,34560
8713,34560
8714,34624
8715,34560
8716,34560
8717,34624
8718,34624
8719,34688
8720,34688
8721,34688
8722,34688
8723,34624
8724,34496
8725,34240
8726,34112
8727,34048
8728,33984
8729,33920
8730,33856
8731,33792
8732,33792
8733,33792
8734,33856
8735,33856
8736,33856
8737,33856
8738,33792
8739,33728
8740,33792
8741,33856
8742,33856
8743,33856
8744,33856
8745,33920
8746,34048
8747,34176
8748,34368
8749,34496
8750,34496
8751,34432
8752,34368
8753,34432
8754,34432
8755,34432
8756,34432
8757,34432
8758,34496
8759,34496
8760,34432
8761,34304
8762,34176
8763,33984
8764,33728
8765,33536
8766,33344
8767,33344
8768,33472
8769,33536
8770,33600
8771,33664
8772,33664
8773,33664
8774,33664
8775,33664
8776,33664
8777,33664
8778,33664
8779,33600
8780,33600
8781,33792
8782,34112
8783,34688
8784,35584
8785,36864
8786,38400
8787,39360
8788,39424
8789,38336
8790,36544
8791,34560
8792,32704
8793,31360
8794,30592
8795,30272
8796,30464
8797,30912
8798,31552
8799,32256
8800,32896
8801,33472
8802,33984
8803,34368
8804,34688
8805,34880
8806,34944
8807,34944
8808,34880
8809,34752
8810,34560
8811,34432
8812,34304
8813,34176
8814,34112
8815,34048
8816,33984
8817,33920
8818,33984
8819,34048
8820,34048
8821,34176
8822,34304
8823,34432
8824,34368
8825,34368
8826,34304
8827,34368
8828,34368
8829,34368
8830,34304
8831,34368
8832,34368
8833,34304
8834,34176
8835,34048
8836,33984
8837,33920
8838,33920
8839,34048
8840,34176
8841,34304
8842,34368
8843,34432
8844,34432
8845,34496
8846,34496
8847,34496
8848,34496
8849,34560
8850,34624
8851,34624
8852,34560
8853,34560
8854,34496
8855,34432
8856,34432
8857,34432
8858,34432
8859,34432
8860,34432
8861,34432
8862,34432
8863,34432
8864,34432
8865,34368
8866,34304
8867,34240
8868,34176
8869,34176
8870,34176
8871,34176
8872,34112
8873,34112
8874,33984
8875,33792
8876,33792
8877,33856
8878,33856
8879,33920
8880,33920
8881,33856
8882,33856
8883,33920
8884,33920
8885,33920
8886,33920
8887,33984
8888,33984
8889,33984
8890,34176
8891,34176
8892,34240
8893,34304
8894,34432
8895,34432
8896,34368
8897,34240
8898,34176
8899,34176
8900,34368
8901,34304
8902,34240
8903,34176
8904,34176
8905,34048
8906,33920
8907,33856
8908,33856
8909,33984
8910,34048
8911,34048
8912,34048
8913,34048
8914,34048
8915,34112
8916,34176
8917,34176
8918,34176
8919,34112
8920,34176
8921,34112
8922,34048
8923,34112
8924,34176
8925,34304
8926,34368
8927,34368
8928,34304
8929,34304
8930,34240
8931,34304
8932,34368
8933,34432
8934,34560
8935,34496
8936,34432
8937,34368
8938,34368
8939,34368
8940,34240
8941,34112
8942,33984
8943,33792
8944,33664
8945,33600
8946,33600
8947,33664
8948,33728
8949,33856
8950,33920
8951,33856
8952,33856
8953,33984
8954,34048
8955,34048
8956,33984
8957,33856
8958,33664
8959,33728
8960,33984
8961,34432
8962,35136
8963,36288
8964,37824
8965,39296
8966,39936
8967,39552
8968,37952
8969,35712
8970,33536
8971,31744
8972,30592
8973,30016
8974,30016
8975,30400
8976,31040
8977,31744
8978,32512
8979,33216
8980,33856
8981,34304
8982,34624
8983,34816
8984,34944
8985,34944
8986,34880
8987,34688
8988,34432
8989,34240
8990,34112
8991,34048
8992,33984
8993,33984
8994,33920
8995,33856
8996,33856
8997,33856
8998,33920
8999,33984
9000,34048
9001,34048
9002,34112
9003,34176
9004,34176
9005,34176
9006,34176
9007,34240
9008,34240
9009,34240
9010,34176
9011,34048
9012,33920
9013,33920
9014,33984
9015,34048
9016,34048
9017,34048
9018,34048
9019,34112
9020,34176
9021,34240
9022,34368
9023,34432
9024,34560
9025,34624
9026,34688
9027,34752
9028,34688
9029,34624
9030,34560
9031,34432
9032,34304
9033,34176
9034,34176
9035,34176
9036,34240
9037,34240
9038,34176
9039,34240
9040,34240
9041,34304
9042,34304
9043,34304
9044,34304
9045,34368
9046,34368
9047,34304
9048,34176
9049,34112
9050,34112
9051,34048
9052,33984
9053,33920
9054,33856
9055,33792
9056,33728
9057,33728
9058,33792
9059,33920
9060,33984
9061,34048
9062,34048
9063,34048
9064,34112
9065,34112
9066,34176
9067,34176
9068,34112
9069,34048
9070,34112
9071,34112
9072,34240
9073,34240
9074,34240
9075,34240
9076,34304
9077,34240
9078,34176
9079,34112
9080,34176
9081,34176
9082,34112
9083,34112
9084,34048
9085,33984
9086,33920
9087,33920
9088,33984
9089,34048
9090,34112
9091,34112
9092,34112
9093,34112
9094,34112
9095,34112
9096,34176
9097,34112
9098,34112
9099,34112
9100,34112
9101,34112
9102,34112
9103,34112
9104,34112
9105,34112
9106,34112
9107,34048
9108,33984
9109,34048
9110,34176
9111,34304
9112,34432
9113,34432
9114,34432
9115,34368
9116,34368
9117,34432
9118,34496
9119,34560
9120,34560
9121,34496
9122,34432
9123,34432
9124,34496
9125,34496
9126,34368
9127,34176
9128,33920
9129,33728
9130,33600
9131,33536
9132,33472
9133,33472
9134,33536
9135,33600
9136,33728
9137,33856
9138,33920
9139,33920
9140,34048
9141,34048
9142,33984
9143,33728
9144,33664
9145,33728
9146,34112
9147,34688
9148,35392
9149,36544
9150,37888
9151,38976
9152,39296
9153,38656
9154,37056
9155,35072
9156,33216
9157,31808
9158,30848
9159,30336
9160,30272
9161,30592
9162,31168
9163,31936
9164,32576
9165,33216
9166,33792
9167,34304
9168,34752
9169,34944
9170,35008
9171,34944
9172,34880
9173,34688
9174,34560
9175,34304
9176,34176
9177,34048
9178,33920
9179,33920
9180,33856
9181,33856
9182,33856
9183,33920
9184,33984
9185,34112
9186,34112
9187,34112
9188,33984
9189,33920
9190,33856
9191,33856
9192,34048
9193,34176
9194,34112
9195,34048
9196,34048
9197,34112
9198,34176
9199,34112
9200,34048
9201,33984
9202,33984
9203,34048
9204,34176
9205,34112
9206,34112
9207,34112
9208,34176
9209,34240
9210,34304
9211,34368
9212,34368
9213,34432
9214,34496
9215,34432
9216,34368
9217,34304
9218,34240
9219,34240
9220,34240
9221,34176
9222,34112
9223,34112
9224,34176
9225,34240
9226,34368
9227,34368
9228,34432
9229,34496
9230,34496
9231,34432
9232,34368
9233,34240
9234,34112
9235,34112
9236,34176
9237,34112
9238,34048
9239,33984
9240,33984
9241,33920
9242,33856
9243,33856
9244,33856
9245,33792
9246,33856
9247,34112
9248,34240
9249,34176
9250,34112
9251,34112
9252,34176
9253,34240
9254,34304
9255,34368
9256,34368
9257,34304
9258,34176
9259,34176
9260,34240
9261,34368
9262,34496
9263,34560
9264,34624
9265,34688
9266,34560
9267,34368
9268,34304
9269,34304
9270,34304
9271,34304
9272,34240
9273,34240
9274,34176
9275,34112
9276,34048
9277,33984
9278,33920
9279,33920
9280,33920
9281,33920
9282,33920
9283,33920
9284,34048
9285,34304
9286,34624
9287,34688
9288,34624
9289,34560
9290,34496
9291,34496
9292,34752
9293,34880
9294,35008
9295,35008
9296,35008
9297,34944
9298,34880
9299,34752
9300,34624
9301,34496
9302,34240
9303,33984
9304,33792
9305,33664
9306,33664
9307,33728
9308,33792
9309,33792
9310,33856
9311,33920
9312,33920
9313,33984
9314,33920
9315,33920
9316,33792
9317,33728
9318,33664
9319,33728
9320,34048
9321,34496
9322,35008
9323,35904
9324,36992
9325,38144
9326,38848
9327,38656
9328,37568
9329,35904
9330,34240
9331,32832
9332,31872
9333,31232
9334,30976
9335,31040
9336,31424
9337,31936
9338,32512
9339,32960
9340,33472
9341,33984
9342,34432
9343,34688
9344,34880
9345,34880
9346,34816
9347,34752
9348,34624
9349,34560
9350,34496
9351,34432
9352,34368
9353,34176
9354,34112
9355,34048
9356,34048
9357,34048
9358,34048
9359,34048
9360,34112
9361,34176
9362,34176
9363,34176
9364,34176
9365,34176
9366,34176
9367,34176
9368,34176
9369,34112
9370,34048
9371,34048
9372,34112
9373,34176
9374,34176
9375,34176
9376,34240
9377,34240
9378,34240
9379,34304
9380,34368
9381,34432
9382,34432
9383,34496
9384,34496
9385,34496
9386,34496
9387,34560
9388,34560
9389,34496
9390,34368
9391,34368
9392,34368
9393,34368
9394,34368
9395,34432
9396,34432
9397,34368
9398,34304
9399,34240
9400,34240
9401,34176
9402,34176
9403,34240
9404,34304
9405,34240
9406,34176
9407,34112
9408,34048
9409,33984
9410,33984
9411,33984
9412,33984
9413,33984
9414,33920
9415,33856
9416,33856
9417,33920
9418,33920
9419,33856
9420,33792
9421,33728
9422,33792
9423,33920
9424,34048
9425,34112
9426,34112
9427,34048
9428,33984
9429,34048
9430,34176
9431,34240
9432,34304
9433,34304
9434,34304
9435,34240
9436,34176
9437,34176
9438,34240
9439,34240
9440,34240
9441,34112
9442,34112
9443,34112
9444,34176
9445,34176
9446,34112
9447,34176
9448,34176
9449,34240
9450,34240
9451,34176
9452,34176
9453,34176
9454,34176
9455,34240
9456,34176
9457,34112
9458,34176
9459,34176
9460,34112
9461,34048
9462,34048
9463,34112
9464,34112
9465,34112
9466,34176
9467,34240
9468,34368
9469,34496
9470,34624
9471,34624
9472,34560
9473,34432
9474,34432
9475,34496
9476,34624
9477,34816
9478,34880
9479,34880
9480,34880
9481,34752
9482,34560
9483,34368
9484,34176
9485,34048
9486,33920
9487,33792
9488,33664
9489,33664
9490,33664
9491,33728
9492,33728
9493,33728
9494,33792
9495,33856
9496,33984
9497,34048
9498,34048
9499,34048
9500,33920
9501,33792
9502,33728
9503,33920
9504,34304
9505,34816
9506,35712
9507,37120
9508,38656
9509,39616
9510,39744
9511,38784
9512,36928
9513,34752
9514,32832
9515,31424
9516,30528
9517,30144
9518,30272
9519,30784
9520,31424
9521,32192
9522,33024
9523,33664
9524,34240
9525,34560
9526,34816
9527,34944
9528,34944
9529,34816
9530,34688
9531,34560
9532,34368
9533,34176
9534,33984
9535,33920
9536,34048
9537,34112
9538,34112
9539,34176
9540,34240
9541,34240
9542,34176
9543,34176
9544,34112
9545,34112
9546,34176
9547,34176
9548,34176
9549,34176
9550,34176
9551,34176
9552,34176
9553,34176
9554,34048
9555,33984
9556,33920
9557,33920
9558,33920
9559,33920
9560,33984
9561,34112
9562,34176
9563,34304
9564,34304
9565,34368
9566,34432
9567,34496
9568,34496
9569,34496
9570,34496
9571,34560
9572,34560
9573,34560
9574,34560
9575,34496
9576,34432
9577,34304
9578,34240
9579,34240
9580,34240
9581,34176
9582,34240
9583,34304
9584,34368
9585,34432
9586,34432
9587,34432
9588,34368
9589,34304
9590,34240
9591,34176
9592,34112
9593,34112
9594,34112
9595,34176
9596,34176
9597,34112
9598,33984
9599,33920
9600,33920
9601,33920
9602,33920
9603,33984
9604,33984
9605,34048
9606,34112
9607,34112
9608,34176
9609,34176
9610,34176
9611,34176
9612,34176
9613,34240
9614,34304
9615,34304
9616,34368
9617,34304
9618,34304
9619,34240
9620,34240
9621,34176
9622,34176
9623,34240
9624,34176
9625,34112
9626,34112
9627,34112
9628,34176
9629,34176
9630,34112
9631,34112
9632,34112
9633,34112
9634,34176
9635,34240
9636,34176
9637,34176
9638,34176
9639,34176
9640,34176
9641,34112
9642,34112
9643,34112
9644,34176
9645,34176
9646,34176
9647,34112
9648,34176
9649,34112
9650,34048
9651,33984
9652,34048
9653,34112
9654,34112
9655,34176
9656,34240
9657,34368
9658,34368
9659,34432
9660,34432
9661,34496
9662,34560
9663,34560
9664,34496
9665,34560
9666,34624
9667,34688
9668,34752
9669,34688
9670,34624
9671,34496
9672,34368
9673,34240
9674,34112
9675,33984
9676,33856
9677,33728
9678,33664
9679,33600
9680,33600
9681,33664
9682,33792
9683,33856
9684,33920
9685,33984
9686,33984
9687,34048
9688,34112
9689,34112
9690,33920
9691,33728
9692,33664
9693,33792
9694,34240
9695,34752
9696,35584
9697,36864
9698,38336
9699,39168
9700,39296
9701,38400
9702,36672
9703,34688
9704,32768
9705,31424
9706,30656
9707,30336
9708,30464
9709,30912
9710,31552
9711,32192
9712,32896
9713,33536
9714,34112
9715,34496
9716,34688
9717,34816
9718,34816
9719,34752
9720,34624
9721,34560
9722,34432
9723,34432
9724,34304
9725,34112
9726,34048
9727,33984
9728,33920
9729,33856
9730,33856
9731,33920
9732,33920
9733,33984
9734,34048
9735,34048
9736,34112
9737,34240
9738,34240
9739,34240
9740,34176
9741,34176
9742,34112
9743,34112
9744,34048
9745,34048
9746,34048
9747,34048
9748,34112
9749,34176
9750,34240
9751,34240
9752,34240
9753,34304
9754,34368
9755,34368
9756,34432
9757,34432
9758,34432
9759,34432
9760,34496
9761,34560
9762,34496
9763,34432
9764,34432
9765,34304
9766,34240
9767,34304
9768,34304
9769,34176
9770,34176
9771,34176
9772,34176
9773,34240
9774,34304
9775,34432
9776,34496
9777,34432
9778,34368
9779,34304
9780,34304
9781,34368
9782,34368
9783,34240
9784,34112
9785,33984
9786,33920
9787,33920
9788,33920
9789,33920
9790,33920
9791,33920
9792,33856
9793,33920
9794,33984
9795,34048
9796,34112
9797,34048
9798,33984
9799,34048
9800,34112
9801,34240
9802,34304
9803,34304
9804,34304
9805,34304
9806,34304
9807,34304
9808,34368
9809,34368
9810,34304
9811,34240
9812,34240
9813,34240
9814,34304
9815,34304
9816,34304
9817,34240
9818,34240
9819,34112
9820,34048
9821,33984
9822,33984
9823,34048
9824,34112
9825,34048
9826,34048
9827,34048
9828,34176
9829,34176
9830,34176
9831,34176
9832,34112
9833,34176
9834,34240
9835,34304
9836,34304
9837,34304
9838,34304
9839,34304
9840,34368
9841,34368
9842,34432
9843,34496
9844,34688
9845,34816
9846,34816
9847,34752
9848,34752
9849,34688
9850,34624
9851,34496
9852,34240
9853,34048
9854,33984
9855,33920
9856,33856
9857,33856
9858,33920
9859,33984
9860,33984
9861,34112
9862,34112
9863,34240
9864,34240
9865,34176
9866,34048
9867,33920
9868,33856
9869,33792
9870,33856
9871,34240
9872,34752
9873,35328
9874,36288
9875,37504
9876,38464
9877,38720
9878,38080
9879,36736
9880,35072
9881,33408
9882,32000
9883,31168
9884,30720
9885,30656
9886,30912
9887,31296
9888,31872
9889,32512
9890,33088
9891,33728
9892,34304
9893,34752
9894,34944
9895,35072
9896,35072
9897,35008
9898,34880
9899,34752
9900,34560
9901,34368
9902,34240
9903,34112
9904,34048
9905,33920
9906,33856
9907,33856
9908,33920
9909,33984
9910,33984
9911,34048
9912,34112
9913,34176
9914,34176
9915,34176
9916,34176
9917,34176
9918,34176
9919,34176
9920,34240
9921,34240
9922,34240
9923,34176
9924,34112
9925,34112
9926,34176
9927,34240
9928,34368
9929,34432
9930,34432
9931,34368
9932,34432
9933,34496
9934,34560
9935,34624
9936,34624
9937,34688
9938,34688
9939,34688
9940,34688
9941,34624
9942,34496
9943,34496
9944,34432
9945,34368
9946,34304
9947,34304
9948,34304
9949,34304
9950,34304
9951,34240
9952,34240
9953,34304
9954,34304
9955,34368
9956,34304
9957,34304
9958,34304
9959,34240
9960,34176
9961,34176
9962,34240
9963,34240
9964,34176
9965,34112
9966,34048
9967,33984
9968,33920
9969,33920
9970,33984
9971,33920
9972,33920
9973,33920
9974,33920
9975,33984
9976,34112
9977,34176
9978,34240
9979,34240
9980,34240
9981,34240
9982,34240
9983,34240
9984,34176
9985,34176
9986,34240
9987,34304
9988,34304
9989,34176
9990,34048
9991,34048
9992,34112
9993,34176
9994,34176
9995,34048
9996,33920
9997,33920
9998,33920
9999,34048
10000,34112
10001,34112
10002,34112
10003,34112
10004,34112
10005,34176
10006,34240
10007,34304
10008,34304
10009,34240
10010,34176
10011,34112
10012,34112
10013,34112
10014,34112
10015,34176
10016,34112
10017,34048
10018,34048
10019,34048
10020,34176
10021,34304
10022,34432
10023,34432
10024,34432
10025,34304
10026,34304
10027,34240
10028,34304
10029,34304
10030,34368
10031,34560
10032,34624
10033,34624
10034,34560
10035,34432
10036,34176
10037,33856
10038,33664
10039,33600
10040,33600
10041,33600
10042,33664
10043,33728
10044,33792
10045,33792
10046,33856
10047,33984
10048,34048
10049,34112
10050,34176
10051,34112
10052,33920
10053,33792
10054,33792
10055,34048
10056,34560
10057,35136
10058,36160
10059,37504
10060,38912
10061,39616
10062,39296
10063,37952
10064,36032
10065,34048
10066,32256
10067,31104
10068,30400
10069,30272
10070,30528
10071,31104
10072,31744
10073,32576
10074,33152
10075,33792
10076,34304
10077,34688
10078,34880
10079,35008
10080,35008
10081,34944
10082,34816
10083,34624
10084,34432
10085,34240
10086,34176
10087,34176
10088,34112
10089,34048
10090,33984
10091,33984
10092,34048
10093,34112
10094,34176
10095,34176
10096,34176
10097,34176
10098,34240
10099,34240
10100,34240
10101,34240
10102,34240
10103,34176
10104,34112
10105,34112
10106,34112
10107,34112
10108,34112
10109,34176
10110,34176
10111,34112
10112,34176
10113,34176
10114,34240
10115,34368
10116,34496
10117,34560
10118,34624
10119,34624
10120,34624
10121,34688
10122,34688
10123,34624
10124,34560
10125,34496
10126,34432
10127,34368
10128,34368
10129,34368
10130,34368
10131,34432
10132,34432
10133,34304
10134,34240
10135,34176
10136,34176
10137,34176
10138,34304
10139,34432
10140,34432
10141,34368
10142,34368
10143,34304
10144,34240
10145,34176
10146,34112
10147,34048
10148,33984
10149,33920
10150,33856
10151,33856
10152,33856
10153,33792
10154,33856
10155,33920
10156,33984
10157,34048
10158,34048
10159,34048
10160,33984
10161,34048
10162,34112
10163,34240
10164,34304
10165,34304
10166,34240
10167,34240
10168,34240
10169,34304
10170,34368
10171,34368
10172,34304
10173,34240
10174,34240
10175,34304
10176,34368
10177,34304
10178,34112
10179,33984
10180,33984
10181,34048
10182,34176
10183,34176
10184,34240
10185,34304
10186,34240
10187,34176
10188,34112
10189,34048
10190,33984
10191,33984
10192,34048
10193,34112
10194,34112
10195,34112
10196,34112
10197,34112
10198,33984
10199,33984
10200,34112
10201,34176
10202,34240
10203,34304
10204,34368
10205,34432
10206,34496
10207,34496
10208,34496
10209,34368
10210,34368
10211,34432
10212,34496
10213,34560
10214,34688
10215,34688
10216,34688
10217,34624
10218,34496
10219,34304
10220,34048
10221,33856
10222,33664
10223,33600
10224,33600
10225,33536
10226,33536
10227,33536
10228,33536
10229,33600
10230,33792
10231,33920
10232,33984
10233,34112
10234,34112
10235,34048
10236,33856
10237,33856
10238,33920
10239,34240
10240,34688
10241,35328
10242,36480
10243,37952
10244,39232
10245,39808
10246,39296
10247,37696
10248,35584
10249,33472
10250,31744
10251,30656
10252,30144
10253,30208
10254,30656
10255,31232
10256,31936
10257,32896
10258,33280
10259,33920
10260,34368
10261,34688
10262,34880
10263,34944
10264,34880
10265,34816
10266,34688
10267,34496
10268,34368
10269,34240
10270,34112
10271,34048
10272,34048
10273,33984
10274,33920
10275,33920
10276,33984
10277,34048
10278,34048
10279,34048
10280,34048
10281,34112
10282,34112
10283,34176
10284,34176
10285,34112
10286,34112
10287,34176
10288,34176
10289,34176
10290,34112
10291,34112
10292,34112
10293,34176
10294,34176
10295,34176
10296,34176
10297,34176
10298,34240
10299,34304
10300,34432
10301,34496
10302,34560
10303,34624
10304,34624
10305,34624
10306,34560
10307,34432
10308,34368
10309,34304
10310,34304
10311,34304
10312,34304
10313,34304
10314,34240
10315,34240
10316,34240
10317,34304
10318,34368
10319,34368
10320,34368
10321,34432
10322,34496
10323,34432
10324,34368
10325,34304
10326,34304
10327,34304
10328,34176
10329,34048
10330,33984
10331,33856
10332,33792
10333,33728
10334,33600
10335,33600
10336,33664
10337,33728
10338,33792
10339,33856
10340,33984
10341,34048
10342,34048
10343,33984
10344,33920
10345,33920
10346,33984
10347,34112
10348,34112
10349,34112
10350,34112
10351,34112
10352,34176
10353,34304
10354,34368
10355,34304
10356,34304
10357,34240
10358,34304
10359,34304
10360,34304
10361,34368
10362,34496
10363,34496
10364,34368
10365,34368
10366,34368
10367,34368
10368,34368
10369,34432
10370,34496
10371,34624
10372,34752
10373,34816
10374,34752
10375,34688
10376,34560
10377,34304
10378,34176
10379,34112
10380,34048
10381,34112
10382,34048
10383,33984
10384,33984
10385,33984
10386,33984
10387,33984
10388,33920
10389,33792
10390,33728
10391,33728
10392,33792
10393,33792
10394,33856
10395,33920
10396,33920
10397,33920
10398,33920
10399,33856
10400,33664
10401,33536
10402,33472
10403,33472
10404,33536
10405,33664
10406,33792
10407,33984
10408,34112
10409,34240
10410,34304
10411,34304
10412,34368
10413,34368
10414,34368
10415,34304
10416,34112
10417,33984
10418,34048
10419,34304
10420,34624
10421,35136
10422,36544
10423,37376
10424,38528
10425,38976
10426,38464
10427,36992
10428,35072
10429,33216
10430,31808
10431,30784
10432,30144
10433,30016
10434,30272
10435,30784
10436,31424
10437,32064
10438,32768
10439,33472
10440,33984
10441,34368
10442,34624
10443,34752
10444,34688
10445,34624
10446,34496
10447,34432
10448,34432
10449,34368
10450,34368
10451,34304
10452,34112
10453,34048
10454,33984
10455,34048
10456,34112
10457,34112
10458,34112
10459,34048
10460,34048
10461,34048
10462,33984
10463,34048
10464,34048
10465,34048
10466,34048
10467,34112
10468,34112
10469,34048
10470,34048
10471,34048
10472,34112
10473,34112
10474,34112
10475,34176
10476,34240
10477,34304
10478,34432
10479,34496
10480,34560
10481,34560
10482,34560
10483,34496
10484,34496
10485,34496
10486,34496
10487,34496
10488,34496
10489,34432
10490,34368
10491,34368
10492,34432
10493,34496
10494,34496
10495,34496
10496,34496
10497,34496
10498,34496
10499,34496
10500,34432
10501,34368
10502,34368
10503,34496
10504,34560
10505,34496
10506,34432
10507,34304
10508,34176
10509,34048
10510,34048
10511,34112
10512,34176
10513,34112
10514,34048
10515,33984
10516,33984
10517,33984
10518,33984
10519,33920
10520,33984
10521,34048
10522,34048
10523,34048
10524,34048
10525,34112
10526,34112
10527,34112
10528,34112
10529,34176
10530,34240
10531,34304
10532,34368
10533,34368
10534,34432
10535,34432
10536,34304
10537,34176
10538,34112
10539,34112
10540,34240
10541,34304
10542,34304
10543,34240
10544,34176
10545,34176
10546,34176
10547,34176
10548,34176
10549,34240
10550,34240
10551,34304
10552,34368
10553,34432
10554,34496
10555,34496
10556,34496
10557,34496
10558,34496
10559,34560
10560,34688
10561,34816
10562,34880
10563,34816
10564,34752
10565,34624
10566,34496
10567,34368
10568,34240
10569,34048
10570,33856
10571,33728
10572,33664
10573,33600
10574,33664
10575,33728
10576,33792
10577,33856
10578,33920
10579,33920
10580,33920
10581,34048
10582,34112
10583,34176
10584,34048
10585,33920
10586,33856
10587,33984
10588,34304
10589,34624
10590,35200
10591,36160
10592,37440
10593,38400
10594,38656
10595,38080
10596,36736
10597,35072
10598,33472
10599,32256
10600,31424
10601,30912
10602,30976
10603,31168
10604,31680
10605,32256
10606,32832
10607,33344
10608,33792
10609,34176
10610,34496
10611,34752
10612,34752
10613,34752
10614,34688
10615,34624
10616,34560
10617,34432
10618,34304
10619,34240
10620,34176
10621,34112
10622,34112
10623,34112
10624,34176
10625,34176
10626,34176
10627,34176
10628,34176
10629,34304
10630,34304
10631,34240
10632,34304
10633,34304
10634,34240
10635,34112
10636,34112
10637,34112
10638,34112
10639,34112
10640,34176
10641,34240
10642,34240
10643,34240
10644,34240
10645,34304
10646,34304
10647,34304
10648,34304
10649,34368
10650,34432
10651,34432
10652,34432
10653,34368
10654,34304
10655,34304
10656,34176
10657,34176
10658,34240
10659,34304
10660,34368
10661,34304
10662,34304
10663,34240
10664,34304
10665,34304
10666,34304
10667,34304
10668,34432
10669,34496
10670,34496
10671,34496
10672,34432
10673,34304
10674,34176
10675,34112
10676,34048
10677,33920
10678,33856
10679,33856
10680,33920
10681,33984
10682,34048
10683,34048
10684,33920
10685,33856
10686,33792
10687,33728
10688,33792
10689,33920
10690,33984
10691,34048
10692,34112
10693,34176
10694,34176
10695,34240
10696,34176
10697,34176
10698,34240
10699,34304
10700,34368
10701,34368
10702,34304
10703,34304
10704,34240
10705,34304
10706,34240
10707,34176
10708,34112
10709,34048
10710,33984
10711,33984
10712,33920
10713,33920
10714,33856
10715,33792
10716,33920
10717,34048
10718,34048
10719,33984
10720,34048
10721,34112
10722,34176
10723,34112
10724,34176
10725,34240
10726,34368
10727,34496
10728,34496
10729,34432
10730,34368
10731,34368
10732,34432
10733,34496
10734,34496
10735,34560
10736,34496
10737,34496
10738,34496
10739,34432
10740,34304
10741,34176
10742,33984
10743,33792
10744,33600
10745,33408
10746,33472
10747,33600
10748,33664
10749,33728
10750,33728
10751,33856
10752,33792
10753,33856
10754,33856
10755,34048
10756,34048
10757,33984
10758,33792
10759,33728
10760,33792
10761,34112
10762,34624
10763,35328
10764,36352
10765,37696
10766,38656
10767,38976
10768,38336
10769,36800
10770,34944
10771,33280
10772,31936
10773,31104
10774,30592
10775,30528
10776,30848
10777,31360
10778,31936
10779,32576
10780,33280
10781,33856
10782,34304
10783,34624
10784,34816
10785,34752
10786,34752
10787,34816
10788,34752
10789,34624
10790,34368
10791,34240
10792,34176
10793,34176
10794,34176
10795,34048
10796,33984
10797,33984
10798,34048
10799,34048
10800,33984
10801,33920
10802,33984
10803,34048
10804,33984
10805,34048
10806,34048
10807,34176
10808,34240
10809,34176
10810,34240
10811,34112
10812,34048
10813,34048
10814,34048
10815,34048
10816,34048
10817,34048
10818,34048
10819,34176
10820,34304
10821,34368
10822,34432
10823,34368
10824,34496
10825,34432
10826,34432
10827,34432
10828,34496
10829,34496
10830,34432
10831,34496
10832,34432
10833,34432
10834,34432
10835,34304
10836,34240
10837,34176
10838,34240
10839,34368
10840,34432
10841,34432
10842,34496
10843,34496
10844,34432
10845,34368
10846,34240
10847,34176
10848,34240
10849,34176
10850,34048
10851,33920
10852,33856
10853,33792
10854,33792
10855,33728
10856,33664
10857,33664
10858,33728
10859,33792
10860,33792
10861,33792
10862,33856
10863,33920
10864,33984
10865,33984
10866,34112
10867,34176
10868,34176
10869,34240
10870,34304
10871,34304
10872,34304
10873,34304
10874,34304
10875,34304
10876,34368
10877,34304
10878,34304
10879,34240
10880,34304
10881,34240
10882,34240
10883,34176
10884,34112
10885,34048
10886,34048
10887,34048
10888,34048
10889,34112
10890,34112
10891,34112
10892,34176
10893,34240
10894,34176
10895,34112
10896,34048
10897,34112
10898,34176
10899,34304
10900,34432
10901,34496
10902,34496
10903,34560
10904,34624
10905,34816
10906,34880
10907,34880
10908,34880
10909,34816
10910,34816
10911,34816
10912,34816
10913,34816
10914,34816
10915,34816
10916,34752
10917,34624
10918,34432
10919,34240
10920,34112
10921,33984
10922,33920
10923,33920
10924,33856
