,ECG
0,32832
1,32896
2,32896
3,32960
4,33024
5,33088
6,33152
7,33280
8,33344
9,33408
10,33472
11,33536
12,33600
13,33728
14,33728
15,33664
16,33664
17,33792
18,33856
19,33856
20,33920
21,33984
22,33920
23,33856
24,33792
25,33856
26,33984
27,33984
28,34112
29,34304
30,34368
31,34432
32,34496
33,34624
34,34688
35,34624
36,34624
37,34560
38,34496
39,34368
40,34240
41,34176
42,34112
43,34048
44,34048
45,34048
46,34112
47,34240
48,34368
49,34432
50,34560
51,34624
52,34688
53,34688
54,34752
55,34944
56,34944
57,34880
58,34816
59,34816
60,34880
61,34880
62,34880
63,34816
64,34688
65,34560
66,34560
67,34560
68,34560
69,34496
70,34496
71,34496
72,34432
73,34304
74,34240
75,34176
76,34304
77,34304
78,34432
79,34624
80,34816
81,35072
82,35328
83,35328
84,35328
85,35200
86,35200
87,35328
88,35456
89,35520
90,35584
91,35648
92,35712
93,35648
94,35456
95,35200
96,34880
97,34304
98,33984
99,33600
100,33344
101,33216
102,33152
103,33216
104,33280
105,33408
106,33408
107,33536
108,33728
109,33856
110,34048
111,34112
112,34048
113,33856
114,33728
115,33728
116,34112
117,34944
118,36352
119,38528
120,41344
121,44416
122,47168
123,48448
124,47552
125,44416
126,40256
127,34624
128,32384
129,30016
130,28864
131,28672
132,29120
133,29888
134,30592
135,31168
136,31552
137,32000
138,32384
139,32576
140,32768
141,33024
142,33472
143,33536
144,33728
145,33856
146,34048
147,34176
148,34240
149,34304
150,34432
151,34496
152,34560
153,34688
154,34816
155,34816
156,34816
157,34880
158,34880
159,34880
160,34880
161,34880
162,34944
163,34944
164,34944
165,34880
166,34816
167,34880
168,34880
169,34944
170,34944
171,35008
172,35008
173,34944
174,34944
175,35008
176,35072
177,35200
178,35264
179,35392
180,35520
181,35584
182,35712
183,35840
184,35968
185,35968
186,35904
187,35840
188,35776
189,35712
190,35584
191,35520
192,35520
193,35392
194,35328
195,35328
196,35392
197,35392
198,35328
199,35328
200,35392
201,35392
202,35456
203,35520
204,35584
205,35648
206,35712
207,35648
208,35712
209,35776
210,35712
211,35584
212,35584
213,35648
214,35584
215,35584
216,35520
217,35456
218,35392
219,35328
220,35264
221,35264
222,35328
223,35328
224,35264
225,35200
226,35200
227,35136
228,35136
229,35264
230,35456
231,35648
232,35968
233,35968
234,35968
235,35904
236,35968
237,36096
238,36224
239,36288
240,36288
241,36288
242,36352
243,36288
244,36096
245,35904
246,35584
247,34944
248,34560
249,34176
250,33856
251,33728
252,33600
253,33536
254,33600
255,33728
256,33728
257,33856
258,33984
259,34112
260,34176
261,34240
262,34176
263,34176
264,33984
265,33984
266,34368
267,35072
268,36288
269,38272
270,41024
271,44288
272,47616
273,49856
274,49792
275,46848
276,41856
277,36416
278,32192
279,29696
280,28608
281,28544
282,28992
283,29632
284,30272
285,30784
286,31232
287,31680
288,32064
289,32384
290,32576
291,32832
292,33024
293,33152
294,33280
295,33408
296,33536
297,33664
298,33792
299,33920
300,34112
301,34240
302,34240
303,34176
304,34240
305,34304
306,34368
307,34368
308,34432
309,34432
310,34496
311,34624
312,34752
313,34880
314,34880
315,34816
316,34816
317,34816
318,34880
319,34880
320,34880
321,34944
322,34944
323,34880
324,34944
325,35008
326,35072
327,35136
328,35072
329,35136
330,35200
331,35264
332,35328
333,35392
334,35456
335,35456
336,35456
337,35456
338,35520
339,35392
340,35200
341,35072
342,35008
343,35008
344,34944
345,34880
346,34816
347,34752
348,34752
349,34752
350,34816
351,34880
352,34944
353,35008
354,35072
355,35136
356,35136
357,35136
358,35136
359,35072
360,35008
361,34944
362,34944
363,35008
364,35008
365,34944
366,34880
367,34880
368,34880
369,34880
370,34880
371,34816
372,34688
373,34560
374,34560
375,34560
376,34560
377,34496
378,34432
379,34432
380,34496
381,34624
382,34880
383,35136
384,35200
385,35200
386,35200
387,35264
388,35264
389,35264
390,35264
391,35328
392,35456
393,35520
394,35392
395,35264
396,35136
397,34880
398,34496
399,34048
400,33600
401,33344
402,33088
403,32832
404,32768
405,32704
406,32704
407,32768
408,32896
409,33024
410,33088
411,33152
412,33216
413,33344
414,33344
415,33216
416,33152
417,33344
418,33856
419,34816
420,36416
421,38848
422,41920
423,45184
424,48000
425,49152
426,47616
427,43456
428,38208
429,33472
430,29760
431,28160
432,27648
433,27968
434,28608
435,29312
436,29952
437,30528
438,31040
439,31424
440,31680
441,31872
442,32128
443,32384
444,32576
445,32704
446,32896
447,33024
448,33152
449,33216
450,33344
451,33408
452,33408
453,33536
454,33728
455,33792
456,33856
457,33920
458,33984
459,34048
460,34048
461,34048
462,34112
463,34176
464,34112
465,34112
466,34176
467,34304
468,34432
469,34432
470,34432
471,34432
472,34432
473,34432
474,34432
475,34496
476,34496
477,34432
478,34368
479,34496
480,34624
481,34688
482,34752
483,34816
484,34944
485,34880
486,34880
487,34944
488,35008
489,34944
490,34816
491,34688
492,34624
493,34560
494,34432
495,34368
496,34240
497,34176
498,34112
499,34176
500,34304
501,34368
502,34368
503,34368
504,34432
505,34560
506,34560
507,34560
508,34560
509,34624
510,34624
511,34624
512,34624
513,34624
514,34624
515,34496
516,34496
517,34560
518,34496
519,34432
520,34432
521,34432
522,34304
523,34304
524,34304
525,34304
526,34304
527,34368
528,34432
529,34624
530,34880
531,35008
532,35008
533,35008
534,35008
535,35008
536,35072
537,35200
538,35328
539,35328
540,35328
541,35328
542,35264
543,35136
544,34816
545,34368
546,33920
547,33472
548,33152
549,32896
550,32832
551,32768
552,32768
553,32768
554,32832
555,32960
556,33024
557,33152
558,33280
559,33472
560,33536
561,33536
562,33408
563,33216
564,33216
565,33472
566,34240
567,35584
568,37568
569,40320
570,43456
571,46464
572,48384
573,48064
574,45312
575,40896
576,36032
577,32192
578,29504
579,28352
580,28160
581,28544
582,29184
583,29952
584,30592
585,31104
586,31552
587,31936
588,32192
589,32384
590,32640
591,32896
592,33088
593,33216
594,33280
595,33408
596,33664
597,33728
598,33728
599,33728
600,33792
601,33920
602,33920
603,33920
604,34048
605,34176
606,34240
607,34240
608,34240
609,34304
610,34240
611,34240
612,34240
613,34240
614,34304
615,34240
616,34240
617,34304
618,34368
619,34432
620,34560
621,34624
622,34560
623,34560
624,34624
625,34624
626,34624
627,34560
628,34432
629,34432
630,34560
631,34688
632,34880
633,35008
634,35136
635,35136
636,35072
637,35008
638,34880
639,34752
640,34688
641,34688
642,34688
643,34624
644,34560
645,34560
646,34560
647,34624
648,34624
649,34688
650,34816
651,34816
652,34816
653,34816
654,34880
655,34944
656,34944
657,34944
658,34944
659,34944
660,34880
661,34880
662,34816
663,34816
664,34752
665,34688
666,34624
667,34688
668,34688
669,34624
670,34560
671,34496
672,34432
673,34496
674,34752
675,35072
676,35328
677,35456
678,35392
679,35392
680,35520
681,35584
682,35648
683,35776
684,35712
685,35584
686,35520
687,35392
688,35136
689,34816
690,34496
691,34048
692,33600
693,33152
694,32832
695,32704
696,32640
697,32704
698,32832
699,32960
700,33024
701,32960
702,33024
703,33088
704,33280
705,33344
706,33344
707,33216
708,33088
709,33088
710,33088
711,34240
712,35776
713,38080
714,41088
715,44544
716,47872
717,49984
718,49600
719,46016
720,40576
721,35200
722,30976
723,28544
724,27712
725,27712
726,28288
727,28928
728,29568
729,29632
730,30592
731,30976
732,31360
733,31616
734,31808
735,32064
736,32320
737,32448
738,32640
739,32768
740,32960
741,33088
742,33152
743,33216
744,33280
745,33408
746,33600
747,33664
748,33728
749,33856
750,33920
751,33856
752,33920
753,33920
754,33984
755,33984
756,33984
757,34112
758,34112
759,34176
760,34176
761,34176
762,34176
763,34176
764,34112
765,34112
766,34176
767,34240
768,34304
769,34304
770,34432
771,34496
772,34496
773,34560
774,34688
775,34880
776,35008
777,35072
778,35200
779,35200
780,35136
781,35136
782,35072
783,35072
784,34944
785,34880
786,34688
787,34624
788,34560
789,34560
790,34560
791,34624
792,34624
793,34496
794,34560
795,34752
796,34816
797,34880
798,34944
799,34944
800,35008
801,34944
802,34944
803,35008
804,35008
805,35008
806,34944
807,35008
808,34944
809,34816
810,34688
811,34688
812,34624
813,34560
814,34496
815,34496
816,34560
817,34560
818,34560
819,34624
820,34816
821,35136
822,35328
823,35456
824,35456
825,35456
826,35392
827,35328
828,35392
829,35520
830,35648
831,35584
832,35648
833,35584
834,35392
835,35136
836,34816
837,34368
838,33920
839,33472
840,33216
841,33024
842,32832
843,32832
844,32832
845,32896
846,32960
847,32960
848,33024
849,33152
850,33280
851,33344
852,33408
853,33472
854,33344
855,33216
856,33408
857,33920
858,35136
859,37248
860,40000
861,43456
862,46976
863,49600
864,50112
865,47552
866,42688
867,37184
868,32512
869,29440
870,28032
871,27776
872,28096
873,28800
874,29504
875,30080
876,30528
877,30976
878,31360
879,31680
880,31936
881,32256
882,32512
883,32768
884,32960
885,33024
886,33088
887,33216
888,33344
889,33472
890,33600
891,33664
892,33728
893,33664
894,33728
895,33856
896,33920
897,33984
898,34048
899,34112
900,34176
901,34112
902,33984
903,33984
904,34048
905,34112
906,34240
907,34368
908,34368
909,34240
910,34176
911,34176
912,34176
913,34176
914,34240
915,34304
916,34368
917,34368
918,34368
919,34368
920,34496
921,34496
922,34752
923,34880
924,35008
925,35072
926,35136
927,35072
928,35072
929,35072
930,34944
931,34752
932,34624
933,34496
934,34432
935,34432
936,34368
937,34368
938,34432
939,34368
940,34368
941,34496
942,34496
943,34496
944,34560
945,34624
946,34688
947,34688
948,34688
949,34688
950,34624
951,34560
952,34496
953,34368
954,34240
955,33984
956,33920
957,33984
958,34112
959,34112
960,34048
961,33920
962,33920
963,33920
964,33856
965,33856
966,33984
967,34048
968,34176
969,34368
970,34624
971,34752
972,34752
973,34688
974,34688
975,34752
976,34816
977,34880
978,35008
979,35072
980,35008
981,34944
982,34880
983,34688
984,34304
985,33792
986,33408
987,33088
988,32768
989,32512
990,32448
991,32448
992,32512
993,32512
994,32640
995,32832
996,32960
997,33024
998,33088
999,33152
1000,33216
1001,33152
1002,32960
1003,32896
1004,33088
1005,33536
1006,34624
1007,36480
1008,39168
1009,42688
1010,45632
1011,48256
1012,48832
1013,46592
1014,42240
1015,37248
1016,32832
1017,29696
1018,27968
1019,27520
1020,27968
1021,28608
1022,29312
1023,30016
1024,30592
1025,31040
1026,31360
1027,31616
1028,31872
1029,32192
1030,32448
1031,32640
1032,32832
1033,32960
1034,32960
1035,33088
1036,33344
1037,33600
1038,33664
1039,33664
1040,33664
1041,33728
1042,33792
1043,33856
1044,33920
1045,33984
1046,34048
1047,34048
1048,33984
1049,33984
1050,34048
1051,34048
1052,34112
1053,34112
1054,34176
1055,34176
1056,34112
1057,34112
1058,34048
1059,33984
1060,34048
1061,34112
1062,34240
1063,34176
1064,34176
1065,34176
1066,34368
1067,34432
1068,34496
1069,34688
1070,34944
1071,35072
1072,35072
1073,35008
1074,35136
1075,35200
1076,35136
1077,35008
1078,34944
1079,34880
1080,34816
1081,34624
1082,34560
1083,34560
1084,34624
1085,34624
1086,34688
1087,34688
1088,34688
1089,34752
1090,34816
1091,34944
1092,35072
1093,35072
1094,34944
1095,34880
1096,34880
1097,34752
1098,34688
1099,34752
1100,34688
1101,34560
1102,34496
1103,34560
1104,34560
1105,34432
1106,34240
1107,34240
1108,34368
1109,34368
1110,34368
1111,34304
1112,34368
1113,34496
1114,34688
1115,35008
1116,35200
1117,35264
1118,35200
1119,35200
1120,35264
1121,35328
1122,35392
1123,35456
1124,35456
1125,35456
1126,35328
1127,35200
1128,35072
1129,34816
1130,34368
1131,33856
1132,33472
1133,33152
1134,32832
1135,32704
1136,32640
1137,32768
1138,32832
1139,32896
1140,32896
1141,32960
1142,33088
1143,33088
1144,33152
1145,33280
1146,33280
1147,33088
1148,32896
1149,32896
1150,33280
1151,34048
1152,35520
1153,37888
1154,40896
1155,44288
1156,47616
1157,49728
1158,49216
1159,45632
1160,40256
1161,34944
1162,30912
1163,28608
1164,27776
1165,27776
1166,28416
1167,29056
1168,29696
1169,30208
1170,30592
1171,30912
1172,31168
1173,31552
1174,31872
1175,32192
1176,32320
1177,32448
1178,32640
1179,32832
1180,33024
1181,33152
1182,33280
1183,33344
1184,33408
1185,33472
1186,33536
1187,33664
1188,33664
1189,33664
1190,33728
1191,33856
1192,33920
1193,33856
1194,33920
1195,33984
1196,34048
1197,34048
1198,34048
1199,34112
1200,34112
1201,34112
1202,34048
1203,34112
1204,34176
1205,34112
1206,34048
1207,34048
1208,34112
1209,34048
1210,34048
1211,34048
1212,34176
1213,34304
1214,34432
1215,34624
1216,34880
1217,34944
1218,35008
1219,35136
1220,35200
1221,35264
1222,35264
1223,35136
1224,35072
1225,35008
1226,34880
1227,34816
1228,34752
1229,34816
1230,34752
1231,34752
1232,34880
1233,34944
1234,34944
1235,34880
1236,34880
1237,34880
1238,34880
1239,34816
1240,34816
1241,34880
1242,34880
1243,34816
1244,34752
1245,34752
1246,34624
1247,34496
1248,34432
1249,34432
1250,34496
1251,34496
1252,34432
1253,34368
1254,34304
1255,34240
1256,34240
1257,34240
1258,34304
1259,34432
1260,34624
1261,34944
1262,35136
1263,35200
1264,35136
1265,35136
1266,35136
1267,35200
1268,35264
1269,35328
1270,35392
1271,35392
1272,35328
1273,35264
1274,35072
1275,34688
1276,34176
1277,33600
1278,33280
1279,33024
1280,32704
1281,32512
1282,32512
1283,32576
1284,32704
1285,32832
1286,32960
1287,33088
1288,33088
1289,33088
1290,33216
1291,33280
1292,33216
1293,33088
1294,32960
1295,33152
1296,33536
1297,34432
1298,36032
1299,38464
1300,41600
1301,45056
1302,48192
1303,49728
1304,48384
1305,44224
1306,38720
1307,33728
1308,30080
1309,28160
1310,27584
1311,27776
1312,28416
1313,29120
1314,29696
1315,30208
1316,30656
1317,31040
1318,31296
1319,31552
1320,31808
1321,32128
1322,32320
1323,32448
1324,32640
1325,32704
1326,32832
1327,32960
1328,33088
1329,33152
1330,33280
1331,33408
1332,33536
1333,33600
1334,33536
1335,33600
1336,33664
1337,33728
1338,33728
1339,33792
1340,33792
1341,33856
1342,33792
1343,33664
1344,33600
1345,33728
1346,33792
1347,33856
1348,33856
1349,33856
1350,33792
1351,33728
1352,33664
1353,33664
1354,33728
1355,33728
1356,33728
1357,33792
1358,33856
1359,33984
1360,34048
1361,34176
1362,34368
1363,34496
1364,34560
1365,34624
1366,34624
1367,34560
1368,34496
1369,34368
1370,34368
1371,34432
1372,34304
1373,34240
1374,34240
1375,34304
1376,34304
1377,34304
1378,34304
1379,34304
1380,34240
1381,34304
1382,34368
1383,34368
1384,34304
1385,34240
1386,34176
1387,34112
1388,34112
1389,34112
1390,34112
1391,34112
1392,33984
1393,33920
1394,33920
1395,33920
1396,33920
1397,33792
1398,33728
1399,33664
1400,33664
1401,33600
1402,33600
1403,33600
1404,33600
1405,33728
1406,33920
1407,34176
1408,34368
1409,34432
1410,34432
1411,34496
1412,34560
1413,34624
1414,34688
1415,34752
1416,34816
1417,34880
1418,34752
1419,34560
1420,34368
1421,33984
1422,33472
1423,33088
1424,32704
1425,32320
1426,32064
1427,31936
1428,31936
1429,32000
1430,32000
1431,32000
1432,32192
1433,32384
1434,32448
1435,32576
1436,32640
1437,32704
1438,32576
1439,32384
1440,32256
1441,32384
1442,32768
1443,33664
1444,35456
1445,38080
1446,41088
1447,44288
1448,46976
1449,48064
1450,46592
1451,42688
1452,37824
1453,33280
1454,29824
1455,27712
1456,27008
1457,27072
1458,27648
1459,28352
1460,29120
1461,29696
1462,30272
1463,30592
1464,30784
1465,31040
1466,31360
1467,31552
1468,31744
1469,31936
1470,32128
1471,32192
1472,32256
1473,32320
1474,32512
1475,32640
1476,32640
1477,32704
1478,32832
1479,32960
1480,33088
1481,33024
1482,33088
1483,33152
1484,33152
1485,33088
1486,33152
1487,33152
1488,33152
1489,33216
1490,33216
1491,33216
1492,33216
1493,33216
1494,33216
1495,33216
1496,33152
1497,33152
1498,33152
1499,33216
1500,33280
1501,33216
1502,33280
1503,33344
1504,33536
1505,33664
1506,33728
1507,33856
1508,34048
1509,34176
1510,34304
1511,34304
1512,34304
1513,34304
1514,34304
1515,34304
1516,34304
1517,34176
1518,34112
1519,34048
1520,34048
1521,33984
1522,33984
1523,34048
1524,34112
1525,34176
1526,34176
1527,34176
1528,34176
1529,34304
1530,34304
1531,34240
1532,34176
1533,34176
1534,34240
1535,34304
1536,34368
1537,34304
1538,34176
1539,33984
1540,33920
1541,33984
1542,34048
1543,34176
1544,34368
1545,34560
1546,34688
1547,34688
1548,34688
1549,34688
1550,34688
1551,34752
1552,34880
1553,34944
1554,35008
1555,35136
1556,35200
1557,35136
1558,35008
1559,34752
1560,34368
1561,33920
1562,33472
1563,33024
1564,32768
1565,32512
1566,32384
1567,32384
1568,32384
1569,32512
1570,32576
1571,32640
1572,32704
1573,32768
1574,32896
1575,32960
1576,33024
1577,33024
1578,32896
1579,32704
1580,32640
1581,32704
1582,33280
1583,34496
1584,36480
1585,39232
1586,42496
1587,45696
1588,47744
1589,47808
1590,45440
1591,41280
1592,36672
1593,32512
1594,29568
1595,27968
1596,27584
1597,27904
1598,28480
1599,29312
1600,30016
1601,30528
1602,30976
1603,31296
1604,31616
1605,31744
1606,31936
1607,32128
1608,32256
1609,32320
1610,32512
1611,32704
1612,32896
1613,33024
1614,33088
1615,33152
1616,33280
1617,33344
1618,33408
1619,33408
1620,33472
1621,33536
1622,33536
1623,33600
1624,33664
1625,33664
1626,33600
1627,33600
1628,33600
1629,33600
1630,33536
1631,33472
1632,33472
1633,33472
1634,33472
1635,33536
1636,33536
1637,33536
1638,33536
1639,33472
1640,33472
1641,33472
1642,33600
1643,33728
1644,33856
1645,34112
1646,34240
1647,34368
1648,34496
1649,34624
1650,34688
1651,34752
1652,34752
1653,34688
1654,34624
1655,34560
1656,34496
1657,34496
1658,34496
1659,34496
1660,34496
1661,34496
1662,34624
1663,34624
1664,34624
1665,34560
1666,34624
1667,34688
1668,34688
1669,34624
1670,34624
1671,34624
1672,34560
1673,34496
1674,34560
1675,34560
1676,34496
1677,34560
1678,34560
1679,34560
1680,34432
1681,34368
1682,34368
1683,34496
1684,34624
1685,34752
1686,34880
1687,35072
1688,35136
1689,35136
1690,35136
1691,35200
1692,35328
1693,35456
1694,35520
1695,35584
1696,35584
1697,35520
1698,35456
1699,35264
1700,34880
1701,34304
1702,33728
1703,33408
1704,33152
1705,32832
1706,32640
1707,32640
1708,32640
1709,32704
1710,32704
1711,32896
1712,33088
1713,33152
1714,33152
1715,33216
1716,33344
1717,33344
1718,33152
1719,32896
1720,32896
1721,33216
1722,33920
1723,35200
1724,37248
1725,40064
1726,43328
1727,46528
1728,48896
1729,49216
1730,46592
1731,42112
1732,36160
1733,32704
1734,29696
1735,28160
1736,27840
1737,28224
1738,28864
1739,29504
1740,30144
1741,30656
1742,31104
1743,31424
1744,31744
1745,32064
1746,32320
1747,32512
1748,32640
1749,32832
1750,33024
1751,33088
1752,33152
1753,33280
1754,33408
1755,33536
1756,33600
1757,33728
1758,33920
1759,33984
1760,33984
1761,33984
1762,33984
1763,33984
1764,33984
1765,33984
1766,34048
1767,34048
1768,34048
1769,34112
1770,34240
1771,34240
1772,34176
1773,34112
1774,34112
1775,34112
1776,34112
1777,34112
1778,34112
1779,34176
1780,34176
1781,34112
1782,34240
1783,34432
1784,34560
1785,34624
1786,34816
1787,35008
1788,35136
1789,35264
1790,35328
1791,35392
1792,35392
1793,35264
1794,35200
1795,35200
1796,35136
1797,35008
1798,34944
1799,34944
1800,35008
1801,35008
1802,35008
1803,35072
1804,35136
1805,35072
1806,34944
1807,34944
1808,35008
1809,35072
1810,35136
1811,35136
1812,35136
1813,35072
1814,34944
1815,34816
1816,34816
1817,34752
1818,34688
1819,34688
1820,34752
1821,34816
1822,34688
1823,34624
1824,34688
1825,34816
1826,35072
1827,35328
1828,35392
1829,35392
1830,35456
1831,35392
1832,35392
1833,35456
1834,35520
1835,35520
1836,35520
1837,35520
1838,35456
1839,35264
1840,35072
1841,34816
1842,34368
1843,33856
1844,33472
1845,33152
1846,32832
1847,32704
1848,32704
1849,32768
1850,32832
1851,32832
1852,32896
1853,32960
1854,33152
1855,33280
1856,33408
1857,33536
1858,33536
1859,33344
1860,33152
1861,33216
1862,33664
1863,34624
1864,36352
1865,39040
1866,42496
1867,47360
1868,49280
1869,50560
1870,48896
1871,44352
1872,38592
1873,33472
1874,29952
1875,28160
1876,27648
1877,27904
1878,28544
1879,29184
1880,29696
1881,30144
1882,30848
1883,31232
1884,31552
1885,31808
1886,32000
1887,32256
1888,32448
1889,32640
1890,32704
1891,32896
1892,33024
1893,33088
1894,33152
1895,33344
1896,33536
1897,33600
1898,33664
1899,33728
1900,33792
1901,33856
1902,33984
1903,34048
1904,34048
1905,34048
1906,34112
1907,34112
1908,34112
1909,34112
1910,34048
1911,34048
1912,34112
1913,34112
1914,34112
1915,34112
1916,34176
1917,34176
1918,34112
1919,34112
1920,34176
1921,34304
1922,34304
1923,34304
1924,34368
1925,34432
1926,34496
1927,34688
1928,34688
1929,34880
1930,34944
1931,34944
1932,35008
1933,35072
1934,35072
1935,34880
1936,34752
1937,34688
1938,34560
1939,34496
1940,34432
1941,34432
1942,34432
1943,34432
1944,34368
1945,34432
1946,34560
1947,34560
1948,34624
1949,34688
1950,34752
1951,34752
1952,34752
1953,34752
1954,34816
1955,34688
1956,34624
1957,34560
1958,34560
1959,34496
1960,34368
1961,34304
1962,34240
1963,34176
1964,34112
1965,34048
1966,34112
1967,34112
1968,34048
1969,34112
1970,34304
1971,34560
1972,34816
1973,34816
1974,34880
1975,34880
1976,34816
1977,34816
1978,34880
1979,35008
1980,35136
1981,35136
1982,35008
1983,34880
1984,34752
1985,34560
1986,34240
1987,33920
1988,33408
1989,33024
1990,32704
1991,32576
1992,32448
1993,32384
1994,32384
1995,32448
1996,32512
1997,32576
1998,32640
1999,32832
2000,33024
2001,33024
2002,33088
2003,33024
2004,32896
2005,32704
2006,32960
2007,33600
2008,34880
2009,36800
2010,39424
2011,42752
2012,46144
2013,48768
2014,49216
2015,46592
2016,41984
2017,34688
2018,32128
2019,29056
2020,27584
2021,27328
2022,27712
2023,28352
2024,29056
2025,29696
2026,30272
2027,30720
2028,31104
2029,31424
2030,31744
2031,31936
2032,32320
2033,32448
2034,32576
2035,32640
2036,32832
2037,32896
2038,32896
2039,32896
2040,33024
2041,33216
2042,33280
2043,33280
2044,33280
2045,33408
2046,33536
2047,33536
2048,33536
2049,33600
2050,33728
2051,33856
2052,33856
2053,33856
2054,33856
2055,33920
2056,33984
2057,34048
2058,34048
2059,33920
2060,33792
2061,33792
2062,33792
2063,33792
2064,33856
2065,33920
2066,33984
2067,33984
2068,33984
2069,34048
2070,34176
2071,34368
2072,34496
2073,34560
2074,34688
2075,34752
2076,34816
2077,34752
2078,34688
2079,34688
2080,34560
2081,34432
2082,34368
2083,34368
2084,34304
2085,34240
2086,34240
2087,34240
2088,34304
2089,34368
2090,34496
2091,34560
2092,34560
2093,34560
2094,34560
2095,34688
2096,34752
2097,34752
2098,34688
2099,34624
2100,34624
2101,34560
2102,34560
2103,34560
2104,34496
2105,34432
2106,34304
2107,34368
2108,34368
2109,34304
2110,34240
2111,34304
2112,34432
2113,34560
2114,34688
2115,34816
2116,34816
2117,34816
2118,34816
2119,34880
2120,35008
2121,35072
2122,35136
2123,35136
2124,35264
2125,35264
2126,35136
2127,34880
2128,34560
2129,34112
2130,33600
2131,33152
2132,32960
2133,32768
2134,32576
2135,32512
2136,32512
2137,32576
2138,32704
2139,32768
2140,32896
2141,33024
2142,33152
2143,33152
2144,33216
2145,33216
2146,33024
2147,32832
2148,32832
2149,33216
2150,34112
2151,35712
2152,39616
2153,41088
2154,44160
2155,46976
2156,48192
2157,47232
2158,43968
2159,39360
2160,34816
2161,31168
2162,28864
2163,27840
2164,27904
2165,28480
2166,29184
2167,29952
2168,30464
2169,30848
2170,31296
2171,31680
2172,32000
2173,32192
2174,32384
2175,32512
2176,32640
2177,32768
2178,33024
2179,33216
2180,33344
2181,33408
2182,33536
2183,33600
2184,33600
2185,33664
2186,33728
2187,33856
2188,33856
2189,33856
2190,33920
2191,34048
2192,34048
2193,33920
2194,33856
2195,33920
2196,34048
2197,34112
2198,34112
2199,34112
2200,34112
2201,33984
2202,33856
2203,33920
2204,34112
2205,34112
2206,34048
2207,33984
2208,34048
2209,34112
2210,34112
2211,34176
2212,34432
2213,34560
2214,34752
2215,34880
2216,35008
2217,35136
2218,35072
2219,35072
2220,35136
2221,35072
2222,35008
2223,34880
2224,34880
2225,34752
2226,34624
2227,34560
2228,34688
2229,34752
2230,34688
2231,34688
2232,34752
2233,34816
2234,34880
2235,34816
2236,34880
2237,34944
2238,35008
2239,34944
2240,34944
2241,34944
2242,35008
2243,34944
2244,34816
2245,34816
2246,34752
2247,34624
2248,34496
2249,34560
2250,34496
2251,34432
2252,34368
2253,34432
2254,34496
2255,34496
2256,34496
2257,34752
2258,35136
2259,35264
2260,35200
2261,35200
2262,35264
2263,35200
2264,35072
2265,35136
2266,35328
2267,35456
2268,35392
2269,35328
2270,35200
2271,35008
2272,34624
2273,34176
2274,33792
2275,33408
2276,33024
2277,32768
2278,32640
2279,32576
2280,32448
2281,32448
2282,32640
2283,32896
2284,32960
2285,32960
2286,33024
2287,33152
2288,33280
2289,33280
2290,33152
2291,33024
2292,33152
2293,33600
2294,34624
2295,36416
2296,39104
2297,42304
2298,45696
2299,48768
2300,50112
2301,48448
2302,44096
2303,38144
2304,33472
2305,29824
2306,27968
2307,27392
2308,27712
2309,28352
2310,28992
2311,29568
2312,30080
2313,30592
2314,30976
2315,31360
2316,31680
2317,31872
2318,32000
2319,32128
2320,32384
2321,32640
2322,32768
2323,32896
2324,33024
2325,33088
2326,33216
2327,33280
2328,33408
2329,33600
2330,33664
2331,33600
2332,33664
2333,33728
2334,33792
2335,33792
2336,33920
2337,33984
2338,33984
2339,33984
2340,33920
2341,33984
2342,33984
2343,33984
2344,33984
2345,34048
2346,34048
2347,34112
2348,34048
2349,34048
2350,34112
2351,34112
2352,34048
2353,34112
2354,34176
2355,34304
2356,34368
2357,34432
2358,34624
2359,34752
2360,34816
2361,34816
2362,34944
2363,35008
2364,35008
2365,34944
2366,35008
2367,34944
2368,34752
2369,34560
2370,34496
2371,34496
2372,34432
2373,34432
2374,34560
2375,34624
2376,34560
2377,34624
2378,34688
2379,34752
2380,34752
2381,34752
2382,34752
2383,34944
2384,34944
2385,34944
2386,34944
2387,34880
2388,34880
2389,34816
2390,34816
2391,34816
2392,34752
2393,34624
2394,34496
2395,34496
2396,34496
2397,34368
2398,34304
2399,34304
2400,34240
2401,34176
2402,34112
2403,34240
2404,34432
2405,34496
2406,34752
2407,35072
2408,35264
2409,35264
2410,35264
2411,35264
2412,35392
2413,35392
2414,35328
2415,35392
2416,35456
2417,35392
2418,35264
2419,35072
2420,34944
2421,34688
2422,34240
2423,33792
2424,33408
2425,33088
2426,32832
2427,32576
2428,32512
2429,32640
2430,32704
2431,32832
2432,32896
2433,33088
2434,33088
2435,33216
2436,33280
2437,33408
2438,33408
2439,33152
2440,33024
2441,33280
2442,33920
2443,35072
2444,36992
2445,39744
2446,43136
2447,46592
2448,49344
2449,49856
2450,47104
2451,41920
2452,36544
2453,31872
2454,28992
2455,27712
2456,27584
2457,28096
2458,28736
2459,29312
2460,29824
2461,30336
2462,30848
2463,31168
2464,31360
2465,31616
2466,31872
2467,32128
2468,32256
2469,32448
2470,32640
2471,32896
2472,33024
2473,33088
2474,33152
2475,33216
2476,33280
2477,33344
2478,33472
2479,33600
2480,33600
2481,33600
2482,33664
2483,33856
2484,33856
2485,33856
2486,33856
2487,33920
2488,33920
2489,33920
2490,33920
2491,33984
2492,34048
2493,33984
2494,33984
2495,34048
2496,34048
2497,34048
2498,33984
2499,33984
2500,33984
2501,33920
2502,33984
2503,33984
2504,34240
2505,34368
2506,34496
2507,34688
2508,34816
2509,34752
2510,34688
2511,34752
2512,34752
2513,34688
2514,34624
2515,34560
2516,34432
2517,34240
2518,34176
2519,34176
2520,34176
2521,34176
2522,34176
2523,34240
2524,34304
2525,34368
2526,34368
2527,34368
2528,34496
2529,34560
2530,34624
2531,34624
2532,34688
2533,34624
2534,34560
2535,34560
2536,34560
2537,34496
2538,34368
2539,34240
2540,34176
2541,34112
2542,34048
2543,34048
2544,34048
2545,34048
2546,33984
2547,33920
2548,33856
2549,33792
2550,33728
2551,33728
2552,33728
2553,33728
2554,33664
2555,33600
2556,33664
2557,33856
2558,34048
2559,34368
2560,34624
2561,34816
2562,34816
2563,34816
2564,34816
2565,34880
2566,34880
2567,34880
2568,34944
2569,34944
2570,34944
2571,34816
2572,34688
2573,34496
2574,34240
2575,33664
2576,33536
2577,32896
2578,32704
2579,32512
2580,32384
2581,32448
2582,32512
2583,32576
2584,32576
2585,32704
2586,32768
2587,32704
2588,32896
2589,33024
2590,33152
2591,33088
2592,32896
2593,32896
2594,33216
2595,33920
2596,35200
2597,37312
2598,40192
2599,43584
2600,46912
2601,47104
2602,47808
2603,44544
2604,39680
2605,34752
2606,30784
2607,28352
2608,27392
2609,27392
2610,28032
2611,28800
2612,29504
2613,30016
2614,30464
2615,30976
2616,31296
2617,31616
2618,31872
2619,32064
2620,32320
2621,32384
2622,32448
2623,32576
2624,32640
2625,32768
2626,32960
2627,33088
2628,33216
2629,33216
2630,33280
2631,33408
2632,33472
2633,33472
2634,33472
2635,33600
2636,33664
2637,33664
2638,33664
2639,33664
2640,33728
2641,33792
2642,33792
2643,33792
2644,33856
2645,33856
2646,33792
2647,33728
2648,33792
2649,33920
2650,33920
2651,33984
2652,34048
2653,34048
2654,33984
2655,33984
2656,34048
2657,34176
2658,34304
2659,34432
2660,34432
2661,34816
2662,34816
2663,34816
2664,34752
2665,34752
2666,34688
2667,34624
2668,34496
2669,34368
2670,34304
2671,34240
2672,34240
2673,34432
2674,34560
2675,34560
2676,34560
2677,34560
2678,34624
2679,34624
2680,34560
2681,34624
2682,34688
2683,34688
2684,34624
2685,34688
2686,34816
2687,34880
2688,34880
2689,34816
2690,34816
2691,34880
2692,34880
2693,34816
2694,34880
2695,34880
2696,34816
2697,34688
2698,34624
2699,34560
2700,34368
2701,34240
2702,34176
2703,34176
2704,34112
2705,34112
2706,34240
2707,34368
2708,34432
2709,34624
2710,34880
2711,35008
2712,35008
2713,35008
2714,35008
2715,35136
2716,35456
2717,35520
2718,35584
2719,35520
2720,35392
2721,35392
2722,35392
2723,35200
2724,34688
2725,33984
2726,33408
2727,33088
2728,32896
2729,32704
2730,32640
2731,32704
2732,32832
2733,32832
2734,32896
2735,33088
2736,33216
2737,33344
2738,33408
2739,33536
2740,33600
2741,33472
2742,33152
2743,33024
2744,33344
2745,34112
2746,35392
2747,37504
2748,40320
2749,43648
2750,46848
2751,48704
2752,48576
2753,45568
2754,40832
2755,35840
2756,31744
2757,29056
2758,27840
2759,27648
2760,28160
2761,28928
2762,29632
2763,30208
2764,30720
2765,31168
2766,31424
2767,31680
2768,31872
2769,32064
2770,32256
2771,32448
2772,32576
2773,32768
2774,32960
2775,33152
2776,33216
2777,33344
2778,33472
2779,33536
2780,33664
2781,33792
2782,33984
2783,33984
2784,33984
2785,33984
2786,34048
2787,33984
2788,33920
2789,33984
2790,34048
2791,33984
2792,33984
2793,33984
2794,34112
2795,34176
2796,34176
2797,34176
2798,34112
2799,34048
2800,33984
2801,33920
2802,33984
2803,34048
2804,34112
2805,34112
2806,34240
2807,34432
2808,34560
2809,34624
2810,34752
2811,34880
2812,34880
2813,34880
2814,34944
2815,34944
2816,34880
2817,34688
2818,34560
2819,34560
2820,34560
2821,34432
2822,34368
2823,34432
2824,34496
2825,34496
2826,34496
2827,34496
2828,34624
2829,34688
2830,34752
2831,34816
2832,35008
2833,34944
2834,34880
2835,34816
2836,34752
2837,34688
2838,34752
2839,34752
2840,34752
2841,34624
2842,34496
2843,34496
2844,34560
2845,34624
2846,34560
2847,34496
2848,34432
2849,34368
2850,34240
2851,34112
2852,34048
2853,33984
2854,33920
2855,33920
2856,33920
2857,33984
2858,33920
2859,33856
2860,33856
2861,34048
2862,34304
2863,34688
2864,35008
2865,35136
2866,35200
2867,35200
2868,35200
2869,35328
2870,35392
2871,35328
2872,35328
2873,35456
2874,35456
2875,35392
2876,35200
2877,35072
2878,34816
2879,34368
2880,33792
2881,33280
2882,32960
2883,32704
2884,32576
2885,32576
2886,32640
2887,32704
2888,32832
2889,32960
2890,33152
2891,33280
2892,33344
2893,33344
2894,33408
2895,33344
2896,33216
2897,33152
2898,33472
2899,34048
2900,35072
2901,36928
2902,39552
2903,42880
2904,46272
2905,49024
2906,49600
2907,47168
2908,42304
2909,36736
2910,32000
2911,28992
2912,27648
2913,27520
2914,28032
2915,28800
2916,29504
2917,30144
2918,30656
2919,31104
2920,31552
2921,31808
2922,32000
2923,32192
2924,32448
2925,32576
2926,32768
2927,32896
2928,33024
2929,33088
2930,33152
2931,33280
2932,33472
2933,33536
2934,33600
2935,33728
2936,33856
2937,33920
2938,33984
2939,33984
2940,34048
2941,34048
2942,34112
2943,34112
2944,34176
2945,34176
2946,34176
2947,34240
2948,34240
2949,34304
2950,34240
2951,34240
2952,34240
2953,34240
2954,34304
2955,34240
2956,34240
2957,34176
2958,34176
2959,34176
2960,34176
2961,34240
2962,34304
2963,34368
2964,34496
2965,34624
2966,34752
2967,34752
2968,34688
2969,34688
2970,34688
2971,34560
2972,34432
2973,34368
2974,34240
2975,34112
2976,34048
2977,33984
2978,33984
2979,33984
2980,33984
2981,33984
2982,34112
2983,34112
2984,34176
2985,34240
2986,34304
2987,34368
2988,34368
2989,34304
2990,34368
2991,34304
2992,34240
2993,34240
2994,34176
2995,34112
2996,33984
2997,33920
2998,33856
2999,33792
3000,33664
3001,33600
3002,33536
3003,33536
3004,33472
3005,33344
3006,33280
3007,33280
3008,33280
3009,33216
3010,33216
3011,33216
3012,33280
3013,33344
3014,33536
3015,33856
3016,34112
3017,34176
3018,34112
3019,34112
3020,34048
3021,33984
3022,33984
3023,34176
3024,34176
3025,34176
3026,34048
3027,33920
3028,33792
3029,33600
3030,33216
3031,32832
3032,32448
3033,32064
3034,31808
3035,31488
3036,31360
3037,31296
3038,31296
3039,31360
3040,31424
3041,31616
3042,31680
3043,31744
3044,31808
3045,31872
3046,31872
3047,31744
3048,31552
3049,31488
3050,31744
3051,32320
3052,33472
3053,35520
3054,38208
3055,41344
3056,44608
3057,46976
3058,47168
3059,44480
3060,39744
3061,34624
3062,30208
3063,27328
3064,26048
3065,25856
3066,26240
3067,26880
3068,27520
3069,28160
3070,28672
3071,29056
3072,29312
3073,29632
3074,29952
3075,30144
3076,30336
3077,30464
3078,30592
3079,30720
3080,30784
3081,30912
3082,31040
3083,31168
3084,31232
3085,31296
3086,31424
3087,31488
3088,31552
3089,31616
3090,31680
3091,31744
3092,31744
3093,31744
3094,31872
3095,31872
3096,31936
3097,31936
3098,31936
3099,32000
3100,31936
3101,31936
3102,32000
3103,32064
3104,32064
3105,31936
3106,31936
3107,31936
3108,31936
3109,31936
3110,31936
3111,32000
3112,32000
3113,32064
3114,32192
3115,32320
3116,32384
3117,32384
3118,32448
3119,32512
3120,32512
3121,32448
3122,32384
3123,32320
3124,32320
3125,32192
3126,32128
3127,32064
3128,32000
3129,32000
3130,31936
3131,31936
3132,32000
3133,32064
3134,32064
3135,32192
3136,32256
3137,32384
3138,32384
3139,32384
3140,32384
3141,32384
3142,32384
3143,32384
3144,32320
3145,32256
3146,32192
3147,32064
3148,32000
3149,32000
3150,31936
3151,31872
3152,31872
3153,31872
3154,31872
3155,31808
3156,31808
3157,31872
3158,31808
3159,31680
3160,31680
3161,31744
3162,31872
3163,32128
3164,32512
3165,32704
3166,32640
3167,32512
3168,32512
3169,32576
3170,32832
3171,33024
3172,33088
3173,33088
3174,33024
3175,32896
3176,32704
3177,32576
3178,32320
3179,31936
3180,31488
3181,31104
3182,30912
3183,30720
3184,30528
3185,30464
3186,30528
3187,30528
3188,30592
3189,30720
3190,30848
3191,30976
3192,31040
3193,31168
3194,31296
3195,31296
3196,31104
3197,30976
3198,30976
3199,31232
3200,32064
3201,33344
3202,35776
3203,38592
3204,41728
3205,44544
3206,46016
3207,45376
3208,42304
3209,38016
3210,33600
3211,29888
3212,27456
3213,26176
3214,25920
3215,26368
3216,27072
3217,27776
3218,28416
3219,28928
3220,29312
3221,29696
3222,29952
3223,30208
3224,30400
3225,30592
3226,30784
3227,30912
3228,31104
3229,31296
3230,31360
3231,31488
3232,31616
3233,31680
3234,31744
3235,31872
3236,31936
3237,32064
3238,32128
3239,32256
3240,32384
3241,32384
3242,32448
3243,32512
3244,32576
3245,32576
3246,32576
3247,32704
3248,32640
3249,32512
3250,32384
3251,32320
3252,32512
3253,32640
3254,32576
3255,32512
3256,32512
3257,32576
3258,32512
3259,32384
3260,32448
3261,32576
3262,32832
3263,32960
3264,33152
3265,33344
3266,33472
3267,33536
3268,33408
3269,33408
3270,33536
3271,33600
3272,33536
3273,33600
3274,33600
3275,33664
3276,33728
3277,33920
3278,33920
3279,33792
3280,33728
3281,33600
3282,33472
3283,33408
3284,33472
3285,33600
3286,33728
3287,33728
3288,33664
3289,33728
3290,33792
3291,33984
3292,33984
3293,33920
3294,33856
3295,33856
3296,33856
3297,33984
3298,34048
3299,34112
3300,34048
3301,33984
3302,33984
3303,34112
3304,34240
3305,34112
3306,33920
3307,33920
3308,34048
3309,34176
3310,34304
3311,34368
3312,34496
3313,34688
3314,35008
3315,35328
3316,35520
3317,35456
3318,35264
3319,35072
3320,34816
3321,34624
3322,34368
3323,34048
3324,33664
3325,33152
3326,32704
3327,32320
3328,32000
3329,31744
3330,31680
3331,31808
3332,32064
3333,32256
3334,32384
3335,32448
3336,32576
3337,32704
3338,32832
3339,32960
3340,32960
3341,32768
3342,32512
3343,32576
3344,33152
3345,34176
3346,35968
3347,38656
3348,41984
3349,45504
3350,48832
3351,50176
3352,48512
3353,44480
3354,38720
3355,33472
3356,29760
3357,27904
3358,27328
3359,27648
3360,28224
3361,28928
3362,29568
3363,30080
3364,30528
3365,30912
3366,31296
3367,31488
3368,31744
3369,32000
3370,32256
3371,32512
3372,32704
3373,32896
3374,33024
3375,33152
3376,33216
3377,33344
3378,33536
3379,33600
3380,33600
3381,33728
3382,33856
3383,33920
3384,33984
3385,33984
3386,34048
3387,34112
3388,34176
3389,34304
3390,34432
3391,34496
3392,34560
3393,34560
3394,34560
3395,34560
3396,34496
3397,34432
3398,34496
3399,34496
3400,34432
3401,34368
3402,34304
3403,34368
3404,34432
3405,34496
3406,34624
3407,34752
3408,34880
3409,35008
3410,35200
3411,35328
3412,35520
3413,35520
3414,35520
3415,35456
3416,35392
3417,35328
3418,35328
3419,35264
3420,35200
3421,35136
3422,35072
3423,35136
3424,35136
3425,35136
3426,35200
3427,35264
3428,35328
3429,35328
3430,35328
3431,35328
3432,35392
3433,35392
3434,35456
3435,35520
3436,35648
3437,35648
3438,35584
3439,35456
3440,35456
3441,35392
3442,35392
3443,35392
3444,35392
3445,35392
3446,35264
3447,35136
3448,35008
3449,35008
3450,34944
3451,35008
3452,35328
3453,35776
3454,35968
3455,36032
3456,36032
3457,35968
3458,36032
3459,36224
3460,36480
3461,36608
3462,36544
3463,36288
3464,36032
3465,35776
3466,35456
3467,35136
3468,34752
3469,34368
3470,34112
3471,33792
3472,33536
3473,33280
3474,33152
3475,33088
3476,33216
3477,33344
3478,33472
3479,33600
3480,33728
3481,33792
3482,33856
3483,33920
3484,33856
3485,33728
3486,33600
3487,33600
3488,33856
3489,34624
3490,36160
3491,38528
3492,41600
3493,45184
3494,48768
3495,51136
3496,50880
3497,47552
3498,42240
3499,36736
3500,32064
3501,29568
3502,28416
3503,28416
3504,28928
3505,29632
3506,30336
3507,30976
3508,31424
3509,31744
3510,32128
3511,32384
3512,32512
3513,32512
3514,32576
3515,32704
3516,32832
3517,32960
3518,33088
3519,33152
3520,33216
3521,33216
3522,33280
3523,33344
3524,33536
3525,33536
3526,33536
3527,33472
3528,33472
3529,33472
3530,33408
3531,33408
3532,33472
3533,33472
3534,33472
3535,33536
3536,33664
3537,33728
3538,33664
3539,33664
3540,33664
3541,33664
3542,33600
3543,33600
3544,33600
3545,33664
3546,33664
3547,33664
3548,33792
3549,33984
3550,34048
3551,34112
3552,34176
3553,34240
3554,34304
3555,34368
3556,34432
3557,34496
3558,34496
3559,34496
3560,34496
3561,34432
3562,34368
3563,34240
3564,34176
3565,34176
3566,34112
3567,33984
3568,34048
3569,34112
3570,34112
3571,33984
3572,33920
3573,33984
3574,34112
3575,34176
3576,34112
3577,34048
3578,33920
3579,33792
3580,33728
3581,33792
3582,33984
3583,34048
3584,34112
3585,34048
3586,34048
3587,33856
3588,33536
3589,33280
3590,33216
3591,33152
3592,33280
3593,33408
3594,33664
3595,33920
3596,33984
3597,34048
3598,34112
3599,34048
3600,33920
3601,33792
3602,33792
3603,33856
3604,33920
3605,33856
3606,33728
3607,33664
3608,33600
3609,33344
3610,33088
3611,32704
3612,32320
3613,31872
3614,31488
3615,31296
3616,31104
3617,30912
3618,30784
3619,30784
3620,30720
3621,30656
3622,30656
3623,30784
3624,30912
3625,30976
3626,30976
3627,30976
3628,30976
3629,30720
3630,30592
3631,30848
3632,31360
3633,32448
3634,34304
3635,37056
3636,40384
3637,44352
3638,46208
3639,46528
3640,44096
3641,39616
3642,34496
3643,29888
3644,26752
3645,25216
3646,24832
3647,25088
3648,25792
3649,26560
3650,27200
3651,27648
3652,28224
3653,28480
3654,28800
3655,28928
3656,29120
3657,29312
3658,29504
3659,29568
3660,29696
3661,29888
3662,30080
3663,30208
3664,30272
3665,30400
3666,30464
3667,30592
3668,30656
3669,30848
3670,30912
3671,30848
3672,30848
3673,30976
3674,30976
3675,30976
3676,30976
3677,31040
3678,31232
3679,31168
3680,31104
3681,31040
3682,31040
3683,30976
3684,30912
3685,30912
3686,30976
3687,30976
3688,30976
3689,30976
3690,31168
3691,31232
3692,31296
3693,31424
3694,31616
3695,31744
3696,31808
3697,31936
3698,32128
3699,32320
3700,32320
3701,32320
3702,32320
3703,32320
3704,32256
3705,32128
3706,32128
3707,32192
3708,32256
3709,32192
3710,32192
3711,32320
3712,32384
3713,32384
3714,32384
3715,32512
3716,32640
3717,32640
3718,32640
3719,32704
3720,32768
3721,32768
3722,32704
3723,32768
3724,32896
3725,32896
3726,32960
3727,33088
3728,33088
3729,33024
3730,33024
3731,33088
3732,33216
3733,33280
3734,33408
3735,33664
3736,33856
3737,34048
3738,34048
3739,34048
3740,34048
3741,34176
3742,34304
3743,34496
3744,34688
3745,34816
3746,34816
3747,34688
3748,34624
3749,34496
3750,34176
3751,33792
3752,33344
3753,33024
3754,32704
3755,32512
3756,32448
3757,32512
3758,32512
3759,32640
3760,32832
3761,33024
3762,33152
3763,33152
3764,33216
3765,33408
3766,33536
3767,33600
3768,33600
3769,33536
3770,33472
3771,33600
3772,34368
3773,35136
3774,36864
3775,39360
3776,42432
3777,45632
3778,48320
3779,49216
3780,47808
3781,44480
3782,40192
3783,35968
3784,32448
3785,30144
3786,29184
3787,29120
3788,29568
3789,30272
3790,31040
3791,31744
3792,32320
3793,32768
3794,33152
3795,33472
3796,33664
3797,33792
3798,34048
3799,34368
3800,34560
3801,34688
3802,34816
3803,34880
3804,35008
3805,35008
3806,35072
3807,35136
3808,35200
3809,35200
3810,35264
3811,35392
3812,35584
3813,35584
3814,35520
3815,35584
3816,35584
3817,35584
3818,35520
3819,35648
3820,35712
3821,35648
3822,35648
3823,35648
3824,35648
3825,35584
3826,35520
3827,35520
3828,35584
3829,35584
3830,35584
3831,35648
3832,35776
3833,35776
3834,35840
3835,35904
3836,36096
3837,36224
3838,36288
3839,36352
3840,36416
3841,36480
3842,36416
3843,36416
3844,36352
3845,36224
3846,36096
3847,36032
3848,35968
3849,35968
3850,35904
3851,35840
3852,35904
3853,35904
3854,35904
3855,35904
3856,35968
3857,36032
3858,36032
3859,35904
3860,35904
3861,35840
3862,35840
3863,35776
3864,35712
3865,35712
3866,35648
3867,35584
3868,35520
3869,35520
3870,35520
3871,35456
3872,35520
3873,35712
3874,35904
3875,35968
3876,35904
3877,35904
3878,35904
3879,35840
3880,35776
3881,35840
3882,35904
3883,35904
3884,35776
3885,35776
3886,35712
3887,35584
3888,35200
3889,34816
3890,34368
3891,33856
3892,33408
3893,33024
3894,32832
3895,32768
3896,32704
3897,32768
3898,32768
3899,32832
3900,32832
3901,32960
3902,33024
3903,33152
3904,33152
3905,33216
3906,33280
3907,33024
3908,32832
3909,32768
3910,33088
3911,33856
3912,35328
3913,37632
3914,40704
3915,44160
3916,47424
3917,49408
3918,49088
3919,46016
3920,40896
3921,35328
3922,30144
3923,28800
3924,27520
3925,27328
3926,27712
3927,28416
3928,29056
3929,29632
3930,30080
3931,30528
3932,30848
3933,31104
3934,31360
3935,31680
3936,31936
3937,32192
3938,32256
3939,32384
3940,32512
3941,32704
3942,32832
3943,32896
3944,32960
3945,33024
3946,33088
3947,33152
3948,33280
3949,33344
3950,33344
3951,33344
3952,33344
3953,33408
3954,33408
3955,33408
3956,33408
3957,33408
3958,33408
3959,33344
3960,33280
3961,33344
3962,33280
3963,33216
3964,33152
3965,33216
3966,33216
3967,33216
3968,33152
3969,33216
3970,33216
3971,33216
3972,33280
3973,33408
3974,33600
3975,33728
3976,33856
3977,33920
3978,33984
3979,34048
3980,34048
3981,34048
3982,33984
3983,33984
3984,33920
3985,33856
3986,33856
3987,33792
3988,33664
3989,33600
3990,33600
3991,33600
3992,33536
3993,33536
3994,33600
3995,33664
3996,33664
3997,33792
3998,33856
3999,33920
4000,33920
4001,33856
4002,33856
4003,33792
4004,33664
4005,33600
4006,33600
4007,33600
4008,33600
4009,33600
4010,33536
4011,33600
4012,33792
4013,33856
4014,34048
4015,34176
4016,34240
4017,34304
4018,34304
4019,34368
4020,34432
4021,34432
4022,34496
4023,34496
4024,34432
4025,34368
4026,34240
4027,33984
4028,33792
4029,33344
4030,32896
4031,32448
4032,32192
4033,31936
4034,31808
4035,31744
4036,31808
4037,31936
4038,32000
4039,32064
4040,32256
4041,32384
4042,32576
4043,32640
4044,32704
4045,32768
4046,32576
4047,32320
4048,32320
4049,32704
4050,33408
4051,34688
4052,36928
4053,39872
4054,43328
4055,46784
4056,49216
4057,49280
4058,46272
4059,41152
4060,35648
4061,31104
4062,28160
4063,26752
4064,26624
4065,27136
4066,27840
4067,28480
4068,29184
4069,29760
4070,30080
4071,30400
4072,30848
4073,30976
4074,31232
4075,31360
4076,31552
4077,31744
4078,31936
4079,32064
4080,32192
4081,32384
4082,32512
4083,32576
4084,32576
4085,32704
4086,32768
4087,32960
4088,32960
4089,33024
4090,33024
4091,33024
4092,33024
4093,33024
4094,33088
4095,33216
4096,33216
4097,33216
4098,33280
4099,33344
4100,33280
4101,33280
4102,33344
4103,33344
4104,33344
4105,33344
4106,33344
4107,33344
4108,33344
4109,33344
4110,33472
4111,33600
4112,33728
4113,33792
4114,33984
4115,34112
4116,34176
4117,34112
4118,34112
4119,34176
4120,34176
4121,34112
4122,33984
4123,33920
4124,33856
4125,33792
4126,33728
4127,33728
4128,33728
4129,33664
4130,33664
4131,33728
4132,33856
4133,33792
4134,33728
4135,33792
4136,33920
4137,33920
4138,33856
4139,33920
4140,33984
4141,33984
4142,33920
4143,33920
4144,33856
4145,33856
4146,33792
4147,33792
4148,33792
4149,33792
4150,33856
4151,33920
4152,34176
4153,34368
4154,34432
4155,34368
4156,34368
4157,34432
4158,34432
4159,34496
4160,34560
4161,34560
4162,34368
4163,34240
4164,34176
4165,34112
4166,33920
4167,33664
4168,33280
4169,32896
4170,32512
4171,32192
4172,31936
4173,31808
4174,31808
4175,31808
4176,31808
4177,32000
4178,32064
4179,32192
4180,32320
4181,32384
4182,32512
4183,32576
4184,32576
4185,32576
4186,32448
4187,32384
4188,32512
4189,33024
4190,34112
4191,35776
4192,38336
4193,41600
4194,45120
4195,48064
4196,49152
4197,47552
4198,43392
4199,38144
4200,33152
4201,29504
4202,27520
4203,26880
4204,27136
4205,27776
4206,28544
4207,29248
4208,29760
4209,30208
4210,30656
4211,30976
4212,31232
4213,31424
4214,31616
4215,31872
4216,32000
4217,32128
4218,32256
4219,32384
4220,32576
4221,32704
4222,32768
4223,32896
4224,33024
4225,33024
4226,33152
4227,33280
4228,33280
4229,33216
4230,33216
4231,33280
4232,33408
4233,33536
4234,33536
4235,33536
4236,33536
4237,33536
4238,33536
4239,33536
4240,33664
4241,33664
4242,33664
4243,33664
4244,33664
4245,33664
4246,33664
4247,33664
4248,33728
4249,33792
4250,33920
4251,33920
4252,34048
4253,34112
4254,34176
4255,34304
4256,34368
4257,34432
4258,34432
4259,34368
4260,34432
4261,34432
4262,34368
4263,34240
4264,34176
4265,34112
4266,34048
4267,33984
4268,33920
4269,33984
4270,34048
4271,34048
4272,34112
4273,34240
4274,34304
4275,34304
4276,34304
4277,34368
4278,34368
4279,34368
4280,34240
4281,34240
4282,34240
4283,34240
4284,34176
4285,34176
4286,34176
4287,34176
4288,34176
4289,34240
4290,34496
4291,34624
4292,34688
4293,34688
4294,34752
4295,34752
4296,34688
4297,34752
4298,34816
4299,34880
4300,34880
4301,34816
4302,34752
4303,34688
4304,34496
4305,34240
4306,33856
4307,33472
4308,32960
4309,32576
4310,32256
4311,32128
4312,32000
4313,32000
4314,32000
4315,32064
4316,32128
4317,32192
4318,32320
4319,32512
4320,32768
4321,32896
4322,32960
4323,32832
4324,32640
4325,32576
4326,32768
4327,33472
4328,33600
4329,36736
4330,39488
4331,42752
4332,45952
4333,48256
4334,48512
4335,46400
4336,42304
4337,37568
4338,33280
4339,30080
4340,29824
4341,27712
4342,27968
4343,28608
4344,29312
4345,29888
4346,30400
4347,30848
4348,31168
4349,31424
4350,31616
4351,31808
4352,31936
4353,32064
4354,32192
4355,32192
4356,32576
4357,32640
4358,32768
4359,32960
4360,33088
4361,33216
4362,33280
4363,33344
4364,33408
4365,33472
4366,33536
4367,33600
4368,33600
4369,33792
4370,33728
4371,33856
4372,33920
4373,33984
4374,34048
4375,34048
4376,34112
4377,34176
4378,34176
4379,34240
4380,34240
4381,34240
4382,34304
4383,34368
4384,34368
4385,34368
4386,34560
4387,34624
4388,34624
4389,34880
4390,34944
4391,35200
4392,35328
4393,35520
4394,35648
4395,35648
4396,35712
4397,35648
4398,35584
4399,35648
4400,35584
4401,35072
4402,35072
4403,35072
4404,35072
4405,35072
4406,35072
4407,34944
4408,34880
4409,34880
4410,35008
4411,35072
4412,35136
4413,35200
4414,35328
4415,35264
4416,35264
4417,35328
4418,35392
4419,35520
4420,35456
4421,35328
4422,35264
4423,35200
4424,35072
4425,35072
4426,35136
4427,35264
4428,35520
4429,35712
4430,35776
4431,35776
4432,35776
4433,35712
4434,35712
4435,35712
4436,35776
4437,35712
4438,35648
4439,35648
4440,35520
4441,35392
4442,35136
4443,34688
4444,34176
4445,33664
4446,33280
4447,32960
4448,32704
4449,32512
4450,32448
4451,32512
4452,32576
4453,32704
4454,32768
4455,32832
4456,32960
4457,32960
4458,33024
4459,33088
4460,33152
4461,33024
4462,32576
4463,32320
4464,32512
4465,33216
4466,34560
4467,36736
4468,39808
4469,43392
4470,46912
4471,49792
4472,50432
4473,48064
4474,42624
4475,42240
4476,32512
4477,29312
4478,27776
4479,27456
4480,27840
4481,28480
4482,29056
4483,29568
4484,30080
4485,30528
4486,30912
4487,31232
4488,31552
4489,31872
4490,32128
4491,32320
4492,32512
4493,32704
4494,32832
4495,32960
4496,33088
4497,33216
4498,33280
4499,33344
4500,33344
4501,33408
4502,33536
4503,33600
4504,33664
4505,33792
4506,33920
4507,33920
4508,33920
4509,33920
4510,33920
4511,33920
4512,33920
4513,33920
4514,33984
4515,33984
4516,33920
4517,33920
4518,34048
4519,34112
4520,34048
4521,34048
4522,34112
4523,34176
4524,34176
4525,34176
4526,34240
4527,34368
4528,34496
4529,34624
4530,34752
4531,35008
4532,35008
4533,35008
4534,34944
4535,35008
4536,35008
4537,34880
4538,34752
4539,34688
4540,34688
4541,34688
4542,34688
4543,34624
4544,34624
4545,34560
4546,34560
4547,34624
4548,34688
4549,34624
4550,34688
4551,34752
4552,34816
4553,34816
4554,34816
4555,34816
4556,34816
4557,34752
4558,34688
4559,34688
4560,34624
4561,34560
4562,34560
4563,34560
4564,34624
4565,34880
4566,35072
4567,35328
4568,35456
4569,35520
4570,35456
4571,35456
4572,35456
4573,35520
4574,35520
4575,35584
4576,35584
4577,35520
4578,35392
4579,35200
4580,35072
4581,34688
4582,34240
4583,33664
4584,33216
4585,32896
4586,32704
4587,32576
4588,32576
4589,32640
4590,32640
4591,32576
4592,32576
4593,32704
4594,32832
4595,32960
4596,33088
4597,33216
4598,33280
4599,33088
4600,32896
4601,32704
4602,32832
4603,33216
4604,34368
4605,36480
4606,39552
4607,43072
4608,46720
4609,49728
4610,50496
4611,48192
4612,43200
4613,37376
4614,32384
4615,29184
4616,27648
4617,27264
4618,27712
4619,28352
4620,28992
4621,29568
4622,30144
4623,30592
4624,30848
4625,31168
4626,31424
4627,31680
4628,31808
4629,31936
4630,32128
4631,32256
4632,32512
4633,32704
4634,32896
4635,33088
4636,33152
4637,33280
4638,33408
4639,33472
4640,33536
4641,33472
4642,33536
4643,33664
4644,33664
4645,33664
4646,33728
4647,33792
4648,33792
4649,33728
4650,33664
4651,33728
4652,33728
4653,33792
4654,33792
4655,33920
4656,33984
4657,33984
4658,33984
4659,34048
4660,34048
4661,34048
4662,33984
4663,33984
4664,34112
4665,34176
4666,34304
4667,34432
4668,34624
4669,34752
4670,34816
4671,34880
4672,34944
4673,34944
4674,34944
4675,34816
4676,34688
4677,34624
4678,34496
4679,34368
4680,34304
4681,34240
4682,34176
4683,34240
4684,34432
4685,34560
4686,34624
4687,34624
4688,34624
4689,34624
4690,34624
4691,34496
4692,34560
4693,34624
4694,34624
4695,34624
4696,34624
4697,34560
4698,34496
4699,34368
4700,34304
4701,34240
4702,34240
4703,34176
4704,34240
4705,34432
4706,34688
4707,34944
4708,35008
4709,35072
4710,35072
4711,35008
4712,35072
4713,35136
4714,35264
4715,35264
4716,35136
4717,35008
4718,34880
4719,34688
4720,34496
4721,34304
4722,33920
4723,33408
4724,32768
4725,32256
4726,32064
4727,32000
4728,31936
4729,31936
4730,31872
4731,31936
4732,32000
4733,32000
4734,32064
4735,32192
4736,32192
4737,32192
4738,32256
4739,32192
4740,31872
4741,31552
4742,31680
4743,32320
4744,33536
4745,35776
4746,38784
4747,42496
4748,46016
4749,48640
4750,49152
4751,46528
4752,41408
4753,35648
4754,30912
4755,27904
4756,26560
4757,26368
4758,26752
4759,27456
4760,28224
4761,28800
4762,29248
4763,29696
4764,30080
4765,30336
4766,30528
4767,30784
4768,31040
4769,31168
4770,31296
4771,31424
4772,31616
4773,31744
4774,31872
4775,31936
4776,32128
4777,32320
4778,32384
4779,32384
4780,32448
4781,32576
4782,32640
4783,32640
4784,32704
4785,32768
4786,32704
4787,32704
4788,32768
4789,32832
4790,32768
4791,32704
4792,32704
4793,32704
4794,32704
4795,32704
4796,32640
4797,32704
4798,32768
4799,32768
4800,32832
4801,32832
4802,32832
4803,32832
4804,32960
4805,33088
4806,33216
4807,33344
4808,33536
4809,33664
4810,33792
4811,33792
4812,33728
4813,33728
4814,33664
4815,33600
4816,33472
4817,33344
4818,33280
4819,33216
4820,33152
4821,33216
4822,33280
4823,33344
4824,33280
4825,33280
4826,33344
4827,33408
4828,33408
4829,33408
4830,33408
4831,33408
4832,33344
4833,33280
4834,33280
4835,33280
4836,33152
4837,33088
4838,33024
4839,32960
4840,32960
4841,32832
4842,32768
4843,32832
4844,32832
4845,32960
4846,33152
4847,33408
4848,33536
4849,33536
4850,33536
4851,33600
4852,33664
4853,33600
4854,33664
4855,33792
4856,33920
4857,33856
4858,33792
4859,33728
4860,33664
4861,33344
4862,32960
4863,32512
4864,32064
4865,31680
4866,31360
4867,31232
4868,31232
4869,31232
4870,31232
4871,31232
4872,31360
4873,31488
4874,31552
4875,31616
4876,31744
4877,31936
4878,32000
4879,31936
4880,31680
4881,31488
4882,31424
4883,31744
4884,32576
4885,34368
4886,37056
4887,40384
4888,43968
4889,46976
4890,48192
4891,46592
4892,42432
4893,37248
4894,32384
4895,28800
4896,26880
4897,26368
4898,26688
4899,27264
4900,27968
4901,28608
4902,29184
4903,29632
4904,30016
4905,30336
4906,30656
4907,30912
4908,31104
4909,31296
4910,31488
4911,31616
4912,31744
4913,31872
4914,32000
4915,32064
4916,32192
4917,32256
4918,32320
4919,32448
4920,32448
4921,32512
4922,32576
4923,32576
4924,32640
4925,32640
4926,32704
4927,32768
4928,32832
4929,32896
4930,32896
4931,32896
4932,32896
4933,32832
4934,32832
4935,32832
4936,32768
4937,32704
4938,32768
4939,32832
4940,32896
4941,32896
4942,32960
4943,33088
4944,33088
4945,33152
4946,33344
4947,33600
4948,33792
4949,33920
4950,33984
4951,34112
4952,34176
4953,34176
4954,34112
4955,33984
4956,33920
4957,33792
4958,33792
4959,33856
4960,33920
4961,33984
4962,33984
4963,34048
4964,34112
4965,34112
4966,34112
4967,34112
4968,34112
4969,34048
4970,33920
4971,33984
4972,33984
4973,33920
4974,33856
4975,33792
4976,33792
4977,33792
4978,33728
4979,33728
4980,33728
4981,33664
4982,33600
4983,33536
4984,33472
4985,33472
4986,33472
4987,33536
4988,33664
4989,33984
4990,34176
4991,34240
4992,34304
4993,34368
4994,34368
4995,34368
4996,34432
4997,34624
4998,34752
4999,34816
5000,34752
5001,34752
5002,34624
5003,34368
5004,33984
5005,33536
5006,33088
5007,32640
5008,32256
5009,32128
5010,32064
5011,32000
5012,32000
5013,32064
5014,32192
5015,32256
5016,32384
5017,32576
5018,32704
5019,32832
5020,32832
5021,32832
5022,32704
5023,32512
5024,32384
5025,32576
5026,33408
5027,34944
5028,37312
5029,40320
5030,43712
5031,46784
5032,48384
5033,47616
5034,44416
5035,39808
5036,35072
5037,31232
5038,28736
5039,27776
5040,27648
5041,28160
5042,28864
5043,29568
5044,30208
5045,30720
5046,31168
5047,31488
5048,31808
5049,32000
5050,32256
5051,32512
5052,32640
5053,32704
5054,32832
5055,33024
5056,33216
5057,33344
5058,33408
5059,33472
5060,33536
5061,33664
5062,33728
5063,33792
5064,33856
5065,33920
5066,33984
5067,34112
5068,34176
5069,34240
5070,34240
5071,34240
5072,34176
5073,34176
5074,34176
5075,34240
5076,34304
5077,34240
5078,34112
5079,34112
5080,34176
5081,34176
5082,34176
5083,34240
5084,34304
5085,34368
5086,34432
5087,34624
5088,34816
5089,35072
5090,35200
5091,35328
5092,35392
5093,35520
5094,35520
5095,35456
5096,35392
5097,35328
5098,35264
5099,35136
5100,35072
5101,35136
5102,35136
5103,35136
5104,35072
5105,35136
5106,35136
5107,35072
5108,35072
5109,35136
5110,35200
5111,35136
5112,35072
5113,35008
5114,35008
5115,35008
5116,35008
5117,35008
5118,35008
5119,34944
5120,34880
5121,34816
5122,34752
5123,34752
5124,34688
5125,34752
5126,34880
5127,35136
5128,35328
5129,35520
5130,35520
5131,35520
5132,35456
5133,35456
5134,35520
5135,35648
5136,35712
5137,35712
5138,35648
5139,35648
5140,35584
5141,35392
5142,35072
5143,34624
5144,34112
5145,33600
5146,33216
5147,32960
5148,32832
5149,32768
5150,32768
5151,32832
5152,32896
5153,32960
5154,33024
5155,33152
5156,33344
5157,33408
5158,33536
5159,33600
5160,33536
5161,33216
5162,32960
5163,32960
5164,33344
5165,34368
5166,36288
5167,39104
5168,42624
5169,46272
5170,49280
5171,50368
5172,48448
5173,44032
5174,38464
5175,33536
5176,30144
5177,28480
5178,28032
5179,28288
5180,28928
5181,29632
5182,30208
5183,30656
5184,31104
5185,31424
5186,31744
5187,32000
5188,32320
5189,32576
5190,32768
5191,32896
5192,33088
5193,33216
5194,33408
5195,33472
5196,33600
5197,33664
5198,33792
5199,33792
5200,33920
5201,34048
5202,34176
5203,34240
5204,34240
5205,34304
5206,34368
5207,34368
5208,34304
5209,34304
5210,34368
5211,34368
5212,34368
5213,34368
5214,34368
5215,34368
5216,34368
5217,34368
5218,34368
5219,34368
5220,34368
5221,34368
5222,34432
5223,34432
5224,34496
5225,34560
5226,34752
5227,34944
5228,35072
5229,35264
5230,35456
5231,35584
5232,35648
5233,35584
5234,35584
5235,35584
5236,35456
5237,35328
5238,35328
5239,35328
5240,35200
5241,35200
5242,35200
5243,35264
5244,35328
5245,35328
5246,35328
5247,35392
5248,35456
5249,35456
5250,35456
5251,35456
5252,35456
5253,35328
5254,35328
5255,35328
5256,35264
5257,35264
5258,35200
5259,35200
5260,35136
5261,35008
5262,34944
5263,34944
5264,34944
5265,35008
5266,35264
5267,35520
5268,35712
5269,35648
5270,35584
5271,35648
5272,35712
5273,35776
5274,35840
5275,35904
5276,35968
5277,35968
5278,35840
5279,35712
5280,35584
5281,35264
5282,34816
5283,34304
5284,33856
5285,33472
5286,33216
5287,33024
5288,32960
5289,33024
5290,33088
5291,33088
5292,33152
5293,33280
5294,33408
5295,33472
5296,33664
5297,33792
5298,33728
5299,33536
5300,33216
5301,33088
5302,33344
5303,33920
5304,35328
5305,37632
5306,40768
5307,44352
5308,47808
5309,50112
5310,50112
5311,46976
5312,41792
5313,36480
5314,32064
5315,29440
5316,28224
5317,28160
5318,28672
5319,29248
5320,29888
5321,30400
5322,30912
5323,31232
5324,31488
5325,31744
5326,32064
5327,32320
5328,32512
5329,32704
5330,32896
5331,33088
5332,33280
5333,33408
5334,33600
5335,33728
5336,33792
5337,33792
5338,33856
5339,33920
5340,33984
5341,33984
5342,34048
5343,34048
5344,34048
5345,34048
5346,34176
5347,34240
5348,34240
5349,34304
5350,34368
5351,34432
5352,34432
5353,34432
5354,34368
5355,34368
5356,34432
5357,34432
5358,34432
5359,34496
5360,34496
5361,34496
5362,34496
5363,34624
5364,34752
5365,34816
5366,34944
5367,35136
5368,35264
5369,35328
5370,35328
5371,35328
5372,35328
5373,35328
5374,35328
5375,35264
5376,35136
5377,35008
5378,35008
5379,35072
5380,35072
5381,35136
5382,35136
5383,35136
5384,35200
5385,35136
5386,35072
5387,35072
5388,35136
5389,35200
5390,35136
5391,35072
5392,35008
5393,34944
5394,34880
5395,34752
5396,34752
5397,34752
5398,34752
5399,34624
5400,34624
5401,34624
5402,34688
5403,34752
5404,35008
5405,35264
5406,35328
5407,35200
5408,35200
5409,35328
5410,35456
5411,35456
5412,35456
5413,35456
5414,35520
5415,35584
5416,35520
5417,35392
5418,35200
5419,34816
5420,34304
5421,33728
5422,33280
5423,32960
5424,32768
5425,32768
5426,32768
5427,32768
5428,32768
5429,32832
5430,32896
5431,33024
5432,33024
5433,33152
5434,33216
5435,33280
5436,33344
5437,33152
5438,32832
5439,32640
5440,32832
5441,33536
5442,35008
5443,37376
5444,40512
5445,44160
5446,47680
5447,49920
5448,49536
5449,46208
5450,40896
5451,35648
5452,31232
5453,28800
5454,27840
5455,27840
5456,28416
5457,29056
5458,29696
5459,30208
5460,30720
5461,31232
5462,31552
5463,31872
5464,32128
5465,32256
5466,32448
5467,32640
5468,32896
5469,33088
5470,33152
5471,33216
5472,33280
5473,33344
5474,33408
5475,33536
5476,33664
5477,33728
5478,33728
5479,33792
5480,33984
5481,34112
5482,34176
5483,34176
5484,34176
5485,34240
5486,34240
5487,34240
5488,34176
5489,34112
5490,34048
5491,33984
5492,33984
5493,34048
5494,34048
5495,33984
5496,33920
5497,33984
5498,33984
5499,34048
5500,34112
5501,34240
5502,34432
5503,34560
5504,34688
5505,34816
5506,34944
5507,35008
5508,35008
5509,35136
5510,35136
5511,35072
5512,34944
5513,34880
5514,34816
5515,34688
5516,34624
5517,34560
5518,34560
5519,34560
5520,34560
5521,34624
5522,34752
5523,34752
5524,34688
5525,34688
5526,34688
5527,34688
5528,34688
5529,34624
5530,34560
5531,34560
5532,34496
5533,34432
5534,34432
5535,34368
5536,34368
5537,34304
5538,34304
5539,34368
5540,34496
5541,34688
5542,34880
5543,34944
5544,34880
5545,34816
5546,34880
5547,34944
5548,35008
5549,35072
5550,35136
5551,35264
5552,35328
5553,35200
5554,35008
5555,34752
5556,34304
5557,33664
5558,33280
5559,32896
5560,32640
5561,32448
5562,32256
5563,32192
5564,32320
5565,32448
5566,32576
5567,32640
5568,32704
5569,32832
5570,32896
5571,33024
5572,33088
5573,32960
5574,32640
5575,32384
5576,32448
5577,32832
5578,33920
5579,35840
5580,38656
5581,41920
5582,45248
5583,47808
5584,48448
5585,46464
5586,42304
5587,36288
5588,32960
5589,29760
5590,28096
5591,27584
5592,27904
5593,28608
5594,29312
5595,29888
5596,30400
5597,30848
5598,31232
5599,31488
5600,31808
5601,32000
5602,32256
5603,32384
5604,32576
5605,32768
5606,32896
5607,32960
5608,33024
5609,33216
5610,33280
5611,33344
5612,33344
5613,33408
5614,33472
5615,33536
5616,33664
5617,33728
5618,33792
5619,33792
5620,33792
5621,33792
5622,33856
5623,33792
5624,33792
5625,33856
5626,33920
5627,33856
5628,33792
5629,33728
5630,33856
5631,33920
5632,33920
5633,33920
5634,33856
5635,33856
5636,33792
5637,33920
5638,34176
5639,34432
5640,34688
5641,34816
5642,34944
5643,35136
5644,35136
5645,35136
5646,35136
5647,35136
5648,35072
5649,34944
5650,34816
5651,34816
5652,34816
5653,34816
5654,34880
5655,34880
5656,34880
5657,34816
5658,34880
5659,34880
5660,34944
5661,34944
5662,34944
5663,34944
5664,35008
5665,35008
5666,35008
5667,35008
5668,34944
5669,34944
5670,34880
5671,34880
5672,35008
5673,35072
5674,35200
5675,35392
5676,35584
5677,35584
5678,35456
5679,35456
5680,35520
5681,35584
5682,35648
5683,35712
5684,35776
5685,35776
5686,35648
5687,35520
5688,35392
5689,35072
5690,34624
5691,34112
5692,33600
5693,33344
5694,33024
5695,32768
5696,32704
5697,32704
5698,32768
5699,32768
5700,32832
5701,32960
5702,33088
5703,33216
5704,33344
5705,33472
5706,33472
5707,33152
5708,32832
5709,32576
5710,32640
5711,33152
5712,34496
5713,36736
5714,39744
5715,43200
5716,46528
5717,48768
5718,48768
5719,46016
5720,41344
5721,36288
5722,31104
5723,29376
5724,28160
5725,28032
5726,28480
5727,29120
5728,29696
5729,30272
5730,30784
5731,31168
5732,31552
5733,31808
5734,32128
5735,32320
5736,32448
5737,32640
5738,32832
5739,33024
5740,33152
5741,33280
5742,33408
5743,33536
5744,33664
5745,33728
5746,33792
5747,33920
5748,33920
5749,33920
5750,33984
5751,34112
5752,34112
5753,33984
5754,33984
5755,34048
5756,34048
5757,34048
5758,33984
5759,33984
5760,33984
5761,33920
5762,33920
5763,33920
5764,33920
5765,33920
5766,33920
5767,33984
5768,34048
5769,34112
5770,34176
5771,34304
5772,34432
5773,34560
5774,34688
5775,34880
5776,35008
5777,35136
5778,35136
5779,35136
5780,35072
5781,35072
5782,34944
5783,34880
5784,34816
5785,34752
5786,34688
5787,34688
5788,34752
5789,34816
5790,34816
5791,34816
5792,34816
5793,34880
5794,34880
5795,34880
5796,34944
5797,34944
5798,34880
5799,34816
5800,34752
5801,34752
5802,34752
5803,34688
5804,34688
5805,34752
5806,34880
5807,35136
5808,35328
5809,35520
5810,35520
5811,35456
5812,35456
5813,35456
5814,35520
5815,35520
5816,35520
5817,35584
5818,35584
5819,35520
5820,35328
5821,35200
5822,34944
5823,34560
5824,33984
5825,33472
5826,33152
5827,32896
5828,32704
5829,32640
5830,32640
5831,32640
5832,32640
5833,32704
5834,32896
5835,33024
5836,33088
5837,33216
5838,33344
5839,33280
5840,33024
5841,32640
5842,32512
5843,32768
5844,33600
5845,35264
5846,38016
5847,41600
5848,45312
5849,48704
5850,50368
5851,49088
5852,44864
5853,39040
5854,34048
5855,30080
5856,28416
5857,27840
5858,28096
5859,28672
5860,29376
5861,29952
5862,30464
5863,30976
5864,31360
5865,31680
5866,31872
5867,32128
5868,32384
5869,32576
5870,32704
5871,32896
5872,33152
5873,33152
5874,33280
5875,33408
5876,33472
5877,33536
5878,33600
5879,33664
5880,33792
5881,33920
5882,33920
5883,33920
5884,33984
5885,34048
5886,34112
5887,34176
5888,34176
5889,34240
5890,34240
5891,34240
5892,34240
5893,34240
5894,34112
5895,34112
5896,34112
5897,34176
5898,34112
5899,34048
5900,34048
5901,34176
5902,34240
5903,34304
5904,34496
5905,34688
5906,34816
5907,34944
5908,35072
5909,35200
5910,35264
5911,35264
5912,35328
5913,35328
5914,35264
5915,35136
5916,35008
5917,34880
5918,34816
5919,34688
5920,34624
5921,34688
5922,34752
5923,34816
5924,34880
5925,34880
5926,34944
5927,34944
5928,34944
5929,34944
5930,34944
5931,34944
5932,34944
5933,34880
5934,34880
5935,34816
5936,34816
5937,34752
5938,34752
5939,34816
5940,34880
5941,35008
5942,35200
5943,35328
5944,35328
5945,35328
5946,35264
5947,35200
5948,35200
5949,35264
5950,35328
5951,35392
5952,35328
5953,35200
5954,35072
5955,34944
5956,34752
5957,34368
5958,33856
5959,33472
5960,33088
5961,32832
5962,32704
5963,32640
5964,32640
5965,32640
5966,32640
5967,32704
5968,32832
5969,32960
5970,33088
5971,33216
5972,33280
5973,33152
5974,32832
5975,32576
5976,32640
5977,33152
5978,33792
5979,35520
5980,38272
5981,41728
5982,45376
5983,48384
5984,49472
5985,47744
5986,43456
5987,38080
5988,33280
5989,29888
5990,28160
5991,27648
5992,28096
5993,28608
5994,29248
5995,29824
5996,30272
5997,30720
5998,31104
5999,31424
6000,31616
6001,31872
6002,32128
6003,32384
6004,32512
6005,32704
6006,32832
6007,33024
6008,33088
6009,33280
6010,33408
6011,33408
6012,33344
6013,33408
6014,33472
6015,33472
6016,33472
6017,33536
6018,33664
6019,33728
6020,33664
6021,33600
6022,33664
6023,33728
6024,33728
6025,33792
6026,33792
6027,33792
6028,33728
6029,33728
6030,33792
6031,33728
6032,33664
6033,33664
6034,33664
6035,33664
6036,33728
6037,33792
6038,33920
6039,34112
6040,34176
6041,34240
6042,34432
6043,34560
6044,34624
6045,34624
6046,34624
6047,34688
6048,34688
6049,34624
6050,34560
6051,34560
6052,34432
6053,34368
6054,34304
6055,34304
6056,34304
6057,34304
6058,34304
6059,34432
6060,34496
6061,34560
6062,34560
6063,34560
6064,34624
6065,34624
6066,34624
6067,34624
6068,34560
6069,34496
6070,34496
6071,34432
6072,34432
6073,34368
6074,34304
6075,34304
6076,34368
6077,34368
6078,34496
6079,34688
6080,34944
6081,34880
6082,34752
6083,34752
6084,34752
6085,34752
6086,34880
6087,35072
6088,35264
6089,35264
6090,35072
6091,34880
6092,34816
6093,34496
6094,34048
6095,33472
6096,32960
6097,32576
6098,32320
6099,32128
6100,32128
6101,32192
6102,32256
6103,32256
6104,32320
6105,32448
6106,32640
6107,32704
6108,32704
6109,32768
6110,32704
6111,32448
6112,32320
6113,32448
6114,32896
6115,33984
6116,35904
6117,38656
6118,41984
6119,45312
6120,47744
6121,48064
6122,45760
6123,41344
6124,36352
6125,31808
6126,29056
6127,27520
6128,27264
6129,27648
6130,28288
6131,28992
6132,29568
6133,30080
6134,30528
6135,30912
6136,31104
6137,31232
6138,31360
6139,31744
6140,31680
6141,32000
6142,31936
6143,32128
6144,32128
6145,32384
6146,32576
6147,32768
6148,32768
6149,32768
6150,32768
6151,32768
6152,32832
6153,32896
6154,32896
6155,32832
6156,32768
6157,32704
6158,32704
6159,32768
6160,32704
6161,32640
6162,32576
6163,32640
6164,32640
6165,32640
6166,32640
6167,32640
6168,32576
6169,32576
6170,32640
6171,32640
6172,32768
6173,32768
6174,32832
6175,32960
6176,32960
6177,33024
6178,33152
6179,33344
6180,33472
6181,33536
6182,33536
6183,33472
6184,33408
6185,33280
6186,33216
6187,33088
6188,32960
6189,32832
6190,32832
6191,32896
6192,32896
6193,32896
6194,32832
6195,32896
6196,32896
6197,32896
6198,32896
6199,32896
6200,32896
6201,32896
6202,32768
6203,32768
6204,32768
6205,32768
6206,32704
6207,32640
6208,32640
6209,32640
6210,32512
6211,32448
6212,32448
6213,32320
6214,32320
6215,32384
6216,32320
6217,32896
6218,32896
6219,32896
6220,32896
6221,33024
6222,33024
6223,33024
6224,33024
6225,33216
6226,33216
6227,33152
6228,33024
6229,32896
6230,32640
6231,32192
6232,31744
6233,31616
6234,31040
6235,30656
6236,30400
6237,30272
6238,30144
6239,30016
6240,30016
6241,30080
6242,30208
6243,30400
6244,30464
6245,30592
6246,30656
6247,30592
6248,30400
6249,30144
6250,30080
6251,30336
6252,31040
6253,32576
6254,35072
6255,38208
6256,41792
6257,45312
6258,47616
6259,47168
6260,43584
6261,38080
6262,32576
6263,28416
6264,25984
6265,24960
6266,24960
6267,25472
6268,26112
6269,26752
6270,27328
6271,27840
6272,28288
6273,28672
6274,29056
6275,29440
6276,29440
6277,29824
6278,29952
6279,30016
6280,30144
6281,30272
6282,30400
6283,30592
6284,30720
6285,30784
6286,30848
6287,31040
6288,31168
6289,31168
6290,31296
6291,31232
6292,31488
6293,31488
6294,31488
6295,31552
6296,31680
6297,31744
6298,31744
6299,31808
6300,31872
6301,32000
6302,32000
6303,32000
6304,32064
6305,32128
6306,32128
6307,32128
6308,32192
6309,32192
6310,32192
6311,32192
6312,32256
6313,32320
6314,32448
6315,32640
6316,32832
6317,33024
6318,33152
6319,33216
6320,33344
6321,33408
6322,33280
6323,33152
6324,33024
6325,32960
6326,32896
6327,32832
6328,32832
6329,32832
6330,32768
6331,32768
6332,32832
6333,33024
6334,33088
6335,33088
6336,33088
6337,33216
6338,33280
6339,33280
6340,33344
6341,33408
6342,33472
6343,33472
6344,33472
6345,33536
6346,33536
6347,33472
6348,33344
6349,33280
6350,33280
6351,33216
6352,33152
6353,33088
6354,33088
6355,33152
6356,33280
6357,33408
6358,33728
6359,34048
6360,34176
6361,34176
6362,34176
6363,34240
6364,34112
6365,34112
6366,34240
6367,34368
6368,34432
6369,34432
6370,34496
6371,34432
6372,34240
6373,33920
6374,33536
6375,33088
6376,32768
6377,32448
6378,32256
6379,32192
6380,32128
6381,32064
6382,32192
6383,32320
6384,32448
6385,32576
6386,32704
6387,32832
6388,32960
6389,32896
6390,32704
6391,32576
6392,32832
6393,33344
6394,34368
6395,36352
6396,36544
6397,41728
6398,45248
6399,48320
6400,49600
6401,48000
6402,43648
6403,38272
6404,33344
6405,29760
6406,27840
6407,27264
6408,27584
6409,28224
6410,28928
6411,29504
6412,30080
6413,30656
6414,31040
6415,31360
6416,31680
6417,31936
6418,32192
6419,32320
6420,32512
6421,32640
6422,32832
6423,32960
6424,33088
6425,33216
6426,33344
6427,33344
6428,33408
6429,33536
6430,33536
6431,33536
6432,33600
6433,33728
6434,33856
6435,33920
6436,33984
6437,34112
6438,34112
6439,34112
6440,34112
6441,34112
6442,34112
6443,34112
6444,34048
6445,34048
6446,34112
6447,34112
6448,34112
6449,34112
6450,34112
6451,34048
6452,34048
6453,34176
6454,34304
6455,34432
6456,34560
6457,34688
6458,34752
6459,34816
6460,34816
6461,34880
6462,34944
6463,34944
6464,34816
6465,34752
6466,34688
6467,34624
6468,34496
6469,34368
6470,34368
6471,34368
6472,34368
6473,34432
6474,34560
6475,34624
6476,34688
6477,34752
6478,34816
6479,34880
6480,34944
6481,34944
6482,34880
6483,34880
6484,34944
6485,34880
6486,34880
6487,34816
6488,34816
6489,34752
6490,34752
6491,34752
6492,34688
6493,34560
6494,34432
6495,34368
6496,34368
6497,34368
6498,34368
6499,34432
6500,34688
6501,34880
6502,34944
6503,35008
6504,35008
6505,35008
6506,34944
6507,35072
6508,35200
6509,35328
6510,35328
6511,35328
6512,35264
6513,35136
6514,34944
6515,34688
6516,34304
6517,33856
6518,33472
6519,33088
6520,32896
6521,32768
6522,32704
6523,32640
6524,32640
6525,32832
6526,32896
6527,32960
6528,33088
6529,33216
6530,33344
6531,33344
6532,33280
6533,33216
6534,33088
6535,33152
6536,33536
6537,34496
6538,36160
6539,38528
6540,41536
6541,44672
6542,47232
6543,48064
6544,46528
6545,43008
6546,38720
6547,34496
6548,31104
6549,28928
6550,28032
6551,28096
6552,28544
6553,29312
6554,30016
6555,30656
6556,31232
6557,31616
6558,32000
6559,32192
6560,32448
6561,32704
6562,32960
6563,33152
6564,33216
6565,33344
6566,33472
6567,33600
6568,33728
6569,33792
6570,33984
6571,34112
6572,34176
6573,34176
6574,34240
6575,34304
6576,34304
6577,34304
6578,34304
6579,34368
6580,34432
6581,34432
6582,34432
6583,34432
6584,34432
6585,34432
6586,34496
6587,34496
6588,34496
6589,34432
6590,34368
6591,34368
6592,34432
6593,34496
6594,34496
6595,34496
6596,34560
6597,34624
6598,34752
6599,34944
6600,35136
6601,35200
6602,35264
6603,35264
6604,35328
6605,35264
6606,35136
6607,35072
6608,35072
6609,35008
6610,34944
6611,34880
6612,34880
6613,34944
6614,34880
6615,34880
6616,34944
6617,35072
6618,35136
6619,35136
6620,35136
6621,35200
6622,35200
6623,35136
6624,35264
6625,35392
6626,35264
6627,35072
6628,34944
6629,34944
6630,34816
6631,34688
6632,34752
6633,34752
6634,34752
6635,34560
6636,34496
6637,34496
6638,34560
6639,34688
6640,34880
6641,35136
6642,35328
6643,35328
6644,35264
6645,35392
6646,35584
6647,35648
6648,35712
6649,35776
6650,35776
6651,35712
6652,35584
6653,35456
6654,35392
6655,35072
6656,34688
6657,34240
6658,33856
6659,33472
6660,33088
6661,32832
6662,32832
6663,32832
6664,32832
6665,32832
6666,32960
6667,33088
6668,33152
6669,33280
6670,33408
6671,33472
6672,33408
6673,33216
6674,33024
6675,33088
6676,33472
6677,34432
6678,36160
6679,38784
6680,41984
6681,45376
6682,48576
6683,50240
6684,49152
6685,45248
6686,39808
6687,34688
6688,30784
6689,28544
6690,27712
6691,27776
6692,28352
6693,28992
6694,29696
6695,30272
6696,30784
6697,31232
6698,31552
6699,31808
6700,32128
6701,32320
6702,32448
6703,32576
6704,32768
6705,32896
6706,32960
6707,33088
6708,33216
6709,33344
6710,33408
6711,33472
6712,33600
6713,33664
6714,33728
6715,33728
6716,33792
6717,33856
6718,33856
6719,33856
6720,33984
6721,34048
6722,34048
6723,34048
6724,34112
6725,34112
6726,34112
6727,34048
6728,34112
6729,34176
6730,34112
6731,33984
6732,33984
6733,34112
6734,34112
6735,34112
6736,34176
6737,34368
6738,34560
6739,34688
6740,34752
6741,34816
6742,34944
6743,35072
6744,35264
6745,35392
6746,35264
6747,35008
6748,34816
6749,34752
6750,34688
6751,34624
6752,34560
6753,34624
6754,34752
6755,34688
6756,34624
6757,34560
6758,34560
6759,34688
6760,34752
6761,34816
6762,34944
6763,35072
6764,35072
6765,35072
6766,35136
6767,35136
6768,35072
6769,34944
6770,34880
6771,34816
6772,34688
6773,34624
6774,34624
6775,34688
6776,34624
6777,34496
6778,34432
6779,34432
6780,34560
6781,34816
6782,35200
6783,35520
6784,35584
6785,35584
6786,35584
6787,35520
6788,35520
6789,35520
6790,35520
6791,35584
6792,35584
6793,35456
6794,35328
6795,35136
6796,34944
6797,34560
6798,34048
6799,33536
6800,33216
6801,32896
6802,32640
6803,32512
6804,32576
6805,32576
6806,32576
6807,32640
6808,32768
6809,32896
6810,32960
6811,33088
6812,33280
6813,33408
6814,33280
6815,32960
6816,32832
6817,33152
6818,33984
6819,35456
6820,37824
6821,40960
6822,44352
6823,47744
6824,49984
6825,49664
6826,46208
6827,40832
6828,35264
6829,30848
6830,28288
6831,27328
6832,27328
6833,27904
6834,28672
6835,29312
6836,29888
6837,30400
6838,30848
6839,31168
6840,31424
6841,31680
6842,31936
6843,32064
6844,32256
6845,32448
6846,32640
6847,32704
6848,32704
6849,32832
6850,33024
6851,33152
6852,33216
6853,33344
6854,33408
6855,33408
6856,33408
6857,33408
6858,33536
6859,33600
6860,33600
6861,33664
6862,33728
6863,33792
6864,33792
6865,33792
6866,33856
6867,33920
6868,33920
6869,33920
6870,33984
6871,34048
6872,33984
6873,33984
6874,33984
6875,33984
6876,34048
6877,34048
6878,34176
6879,34304
6880,34496
6881,34560
6882,34688
6883,34816
6884,34880
6885,34816
6886,34816
6887,34816
6888,34752
6889,34624
6890,34496
6891,34432
6892,34432
6893,34432
6894,34432
6895,34432
6896,34496
6897,34496
6898,34432
6899,34496
6900,34560
6901,34560
6902,34624
6903,34688
6904,34752
6905,34816
6906,34752
6907,34816
6908,34816
6909,34816
6910,34816
6911,34816
6912,34880
6913,34816
6914,34688
6915,34624
6916,34624
6917,34624
6918,34688
6919,34688
6920,34752
6921,34752
6922,34688
6923,34560
6924,34496
6925,34496
6926,34496
6927,34560
6928,34816
6929,35136
6930,35328
6931,35328
6932,35328
6933,35392
6934,35456
6935,35392
6936,35520
6937,35584
6938,35648
6939,35584
6940,35456
6941,35328
6942,35136
6943,34816
6944,34368
6945,33920
6946,33536
6947,33152
6948,32832
6949,32704
6950,32640
6951,32640
6952,32640
6953,32704
6954,32832
6955,32960
6956,33024
6957,33152
6958,33280
6959,33344
6960,33280
6961,33088
6962,33024
6963,33152
6964,33600
6965,34560
6966,36352
6967,39040
6968,42560
6969,45760
6970,48832
6971,50048
6972,48192
6973,43648
6974,38208
6975,33280
6976,29760
6977,27968
6978,27456
6979,27776
6980,28480
6981,29120
6982,29760
6983,30336
6984,30848
6985,31168
6986,31488
6987,31744
6988,32000
6989,32128
6990,32320
6991,32576
6992,32768
6993,32896
6994,32960
6995,33088
6996,33280
6997,33344
6998,33408
6999,33472
7000,33536
7001,33600
7002,33600
7003,33664
7004,33728
7005,33792
7006,33792
7007,33856
7008,33920
7009,33920
7010,33920
7011,33984
7012,34048
7013,34048
7014,33984
7015,34048
7016,34048
7017,34112
7018,34112
7019,34048
7020,34112
7021,34112
7022,34176
7023,34176
7024,34304
7025,34432
7026,34496
7027,34624
7028,34688
7029,34816
7030,34880
7031,34880
7032,34880
7033,34880
7034,34880
7035,34816
7036,34752
7037,34752
7038,34688
7039,34560
7040,34432
7041,34432
7042,34432
7043,34432
7044,34432
7045,34432
7046,34496
7047,34560
7048,34560
7049,34624
7050,34688
7051,34688
7052,34688
7053,34688
7054,34688
7055,34688
7056,34688
7057,34624
7058,34624
7059,34624
7060,34496
7061,34432
7062,34432
7063,34368
7064,34304
7065,34240
7066,34240
7067,34240
7068,34112
7069,34112
7070,34048
7071,34048
7072,33984
7073,33920
7074,33920
7075,33920
7076,33920
7077,33920
7078,33920
7079,33920
7080,33920
7081,33984
7082,34176
7083,34496
7084,34752
7085,34880
7086,34944
7087,34944
7088,35008
7089,34944
7090,34944
7091,35072
7092,35136
7093,35136
7094,35072
7095,35008
7096,34880
7097,34688
7098,34368
7099,33984
7100,33600
7101,33216
7102,32896
7103,32704
7104,32640
7105,32576
7106,32512
7107,32576
7108,32704
7109,32768
7110,32832
7111,32896
7112,33024
7113,33088
7114,33088
7115,33088
7116,33024
7117,32960
7118,33088
7119,33600
7120,34624
7121,36352
7122,38912
7123,41984
7124,45184
7125,47872
7126,48512
7127,46400
7128,42048
7129,36992
7130,32448
7131,29312
7132,27776
7133,27456
7134,27776
7135,28352
7136,29056
7137,29696
7138,30272
7139,30720
7140,31040
7141,31360
7142,31616
7143,31808
7144,32000
7145,32192
7146,32384
7147,32512
7148,32640
7149,32768
7150,32832
7151,32896
7152,32960
7153,33024
7154,33152
7155,33280
7156,33280
7157,33344
7158,33408
7159,33536
7160,33536
7161,33600
7162,33728
7163,33792
7164,33728
7165,33792
7166,33856
7167,33920
7168,33856
7169,33728
7170,33728
7171,33792
7172,33792
7173,33792
7174,33856
7175,33920
7176,33856
7177,33792
7178,33792
7179,33856
7180,33920
7181,33984
7182,34048
7183,34240
7184,34304
7185,34368
7186,34432
7187,34496
7188,34560
7189,34560
7190,34560
7191,34496
7192,34432
7193,34368
7194,34240
7195,34240
7196,34304
7197,34240
7198,34176
7199,34176
7200,34240
7201,34240
7202,34176
7203,34240
7204,34368
7205,34432
7206,34368
7207,34432
7208,34496
7209,34496
7210,34432
7211,34432
7212,34432
7213,34432
7214,34368
7215,34304
7216,34304
7217,34304
7218,34176
7219,34112
7220,34048
7221,34048
7222,33920
7223,33856
7224,33856
7225,33792
7226,33728
7227,33600
7228,33600
7229,33664
7230,33664
7231,33600
7232,33664
7233,33856
7234,34112
7235,34368
7236,34560
7237,34688
7238,34688
7239,34688
7240,34688
7241,34688
7242,34816
7243,34880
7244,34944
7245,34944
7246,34944
7247,34816
7248,34688
7249,34432
7250,34112
7251,33600
7252,33088
7253,32704
7254,32512
7255,32320
7256,32256
7257,32256
7258,32320
7259,32384
7260,32384
7261,32512
7262,32640
7263,32768
7264,32832
7265,32832
7266,32960
7267,32896
7268,32768
7269,32640
7270,32832
7271,33408
7272,34368
7273,36160
7274,38656
7275,41664
7276,44672
7277,46976
7278,47488
7279,45632
7280,41536
7281,37248
7282,32704
7283,30016
7284,28160
7285,27520
7286,27712
7287,28352
7288,29120
7289,29760
7290,30336
7291,30848
7292,31296
7293,31552
7294,31872
7295,32192
7296,32384
7297,32512
7298,32640
7299,32768
7300,32960
7301,33088
7302,33152
7303,33280
7304,33408
7305,33472
7306,33536
7307,33600
7308,33728
7309,33856
7310,33856
7311,33920
7312,33984
7313,34048
7314,34048
7315,34048
7316,34112
7317,34112
7318,34112
7319,34112
7320,34112
7321,34176
7322,34112
7323,34112
7324,34112
7325,34176
7326,34176
7327,34176
7328,34240
7329,34304
7330,34368
7331,34368
7332,34432
7333,34560
7334,34624
7335,34688
7336,34752
7337,34880
7338,35008
7339,35008
7340,35072
7341,35072
7342,35072
7343,34944
7344,34816
7345,34752
7346,34752
7347,34624
7348,34560
7349,34560
7350,34624
7351,34624
7352,34624
7353,34688
7354,34816
7355,34816
7356,34816
7357,34816
7358,34880
7359,34880
7360,34880
7361,34880
7362,34944
7363,34944
7364,34880
7365,34752
7366,34752
7367,34752
7368,34688
7369,34624
7370,34624
7371,34624
7372,34560
7373,34496
7374,34496
7375,34496
7376,34432
7377,34368
7378,34368
7379,34496
7380,34560
7381,34816
7382,35072
7383,35328
7384,35392
7385,35328
7386,35328
7387,35328
7388,35392
7389,35456
7390,35456
7391,35520
7392,35584
7393,35520
7394,35392
7395,35264
7396,35072
7397,34624
7398,34112
7399,33664
7400,33344
7401,33024
7402,32768
7403,32704
7404,32704
7405,32768
7406,32768
7407,32896
7408,33024
7409,33152
7410,33216
7411,33344
7412,33472
7413,33536
7414,33408
7415,33216
7416,33216
7417,33472
7418,34048
7419,35200
7420,37120
7421,39872
7422,43072
7423,46336
7424,48896
7425,49408
7426,46976
7427,42304
7428,36992
7429,32512
7430,29504
7431,28160
7432,28032
7433,28480
7434,29120
7435,29760
7436,30272
7437,30784
7438,31232
7439,31488
7440,31808
7441,32064
7442,32320
7443,32512
7444,32704
7445,32896
7446,33088
7447,33216
7448,33280
7449,33344
7450,33536
7451,33536
7452,33600
7453,33664
7454,33792
7455,33856
7456,33856
7457,33984
7458,34048
7459,34048
7460,34048
7461,34048
7462,34112
7463,34176
7464,34112
7465,34112
7466,34176
7467,34240
7468,34240
7469,34240
7470,34304
7471,34368
7472,34304
7473,34304
7474,34368
7475,34432
7476,34432
7477,34368
7478,34368
7479,34496
7480,34624
7481,34688
7482,34816
7483,34944
7484,35008
7485,35008
7486,35008
7487,35072
7488,35072
7489,35008
7490,34880
7491,34816
7492,34752
7493,34624
7494,34560
7495,34624
7496,34624
7497,34560
7498,34432
7499,34496
7500,34560
7501,34624
7502,34624
7503,34688
7504,34752
7505,34752
7506,34688
7507,34688
7508,34752
7509,34752
7510,34688
7511,34688
7512,34688
7513,34688
7514,34624
7515,34560
7516,34496
7517,34496
7518,34368
7519,34240
7520,34240
7521,34240
7522,34240
7523,34176
7524,34176
7525,34240
7526,34176
7527,34240
7528,34368
7529,34624
7530,34880
7531,35008
7532,35072
7533,35136
7534,35136
7535,35072
7536,35072
7537,35200
7538,35264
7539,35264
7540,35200
7541,35200
7542,35200
7543,35072
7544,34816
7545,34432
7546,34048
7547,33536
7548,33152
7549,32896
7550,32768
7551,32640
7552,32576
7553,32576
7554,32704
7555,32768
7556,32896
7557,32960
7558,33152
7559,33216
7560,33216
7561,33280
7562,33344
7563,33216
7564,33088
7565,33280
7566,33856
7567,34816
7568,36480
7569,38912
7570,42048
7571,45440
7572,48256
7573,49280
7574,47424
7575,43136
7576,37760
7577,32960
7578,29632
7579,28032
7580,27648
7581,27968
7582,28800
7583,29312
7584,29952
7585,30400
7586,30784
7587,31232
7588,31488
7589,31680
7590,31936
7591,32128
7592,32384
7593,32448
7594,32576
7595,32704
7596,32896
7597,33024
7598,33088
7599,33280
7600,33408
7601,33408
7602,33408
7603,33472
7604,33600
7605,33600
7606,33664
7607,33664
7608,33728
7609,33792
7610,33792
7611,33856
7612,33920
7613,33984
7614,33984
7615,33984
7616,33984
7617,34048
7618,33984
7619,33920
7620,33984
7621,34048
7622,33984
7623,33984
7624,33984
7625,33984
7626,33984
7627,33984
7628,33984
7629,34176
7630,34240
7631,34304
7632,34368
7633,34496
7634,34496
7635,34432
7636,34432
7637,34368
7638,34304
7639,34240
7640,34112
7641,34112
7642,34048
7643,33984
7644,33984
7645,34048
7646,34112
7647,34048
7648,34112
7649,34176
7650,34304
7651,34304
7652,34240
7653,34240
7654,34304
7655,34240
7656,34176
7657,34240
7658,34304
7659,34304
7660,34240
7661,34240
7662,34240
7663,34240
7664,34112
7665,34048
7666,34048
7667,34048
7668,33920
7669,33856
7670,33856
7671,33856
7672,33792
7673,33664
7674,33664
7675,33728
7676,33664
7677,33664
7678,33792
7679,34112
7680,34368
7681,34560
7682,34688
7683,34752
7684,34752
7685,34752
7686,34752
7687,34816
7688,35008
7689,35008
7690,35008
7691,35072
7692,35072
7693,34944
7694,34688
7695,34432
7696,34048
7697,33536
7698,33024
7699,32704
7700,32512
7701,32384
7702,32320
7703,32320
7704,32448
7705,32512
7706,32576
7707,32704
7708,32832
7709,32960
7710,32960
7711,33088
7712,33152
7713,33088
7714,32896
7715,32896
7716,33280
7717,34240
7718,35072
7719,37056
7720,39808
7721,42944
7722,45952
7723,47936
7724,47808
7725,45056
7726,40512
7727,35712
7728,31616
7729,28928
7730,27648
7731,27392
7732,27904
7733,28672
7734,29440
7735,30016
7736,30528
7737,30976
7738,31360
7739,31616
7740,31808
7741,32000
7742,32192
7743,32320
7744,32512
7745,32704
7746,32832
7747,32896
7748,32960
7749,33088
7750,33216
7751,33280
7752,33344
7753,33408
7754,33536
7755,33536
7756,33600
7757,33600
7758,33664
7759,33664
7760,33664
7761,33792
7762,33856
7763,33920
7764,33920
7765,33920
7766,33984
7767,33984
7768,33984
7769,33920
7770,33984
7771,34048
7772,34048
7773,34048
7774,34048
7775,34112
7776,34048
7777,34112
7778,34176
7779,34304
7780,34432
7781,34432
7782,34496
7783,34688
7784,34752
7785,34752
7786,34752
7787,34688
7788,34688
7789,34560
7790,34496
7791,34496
7792,34368
7793,34304
7794,34304
7795,34304
7796,34368
7797,34368
7798,34368
7799,34432
7800,34496
7801,34496
7802,34560
7803,34624
7804,34688
7805,34688
7806,34624
7807,34688
7808,34688
7809,34624
7810,34560
7811,34560
7812,34560
7813,34560
7814,34496
7815,34496
7816,34496
7817,34432
7818,34368
7819,34304
7820,34368
7821,34496
7822,34560
7823,34752
7824,34944
7825,35072
7826,35072
7827,35008
7828,35072
7829,35072
7830,35136
7831,35200
7832,35328
7833,35392
7834,35392
7835,35328
7836,35200
7837,35008
7838,34624
7839,34112
7840,33536
7841,33216
7842,32896
7843,32704
7844,32640
7845,32640
7846,32640
7847,32640
7848,32768
7849,32832
7850,32960
7851,33024
7852,33152
7853,33216
7854,33408
7855,33408
7856,33280
7857,33152
7858,33024
7859,33088
7860,33536
7861,34560
7862,36416
7863,38976
7864,41984
7865,45056
7866,47552
7867,47808
7868,46400
7869,42560
7870,38016
7871,33728
7872,30464
7873,28608
7874,27968
7875,28160
7876,28736
7877,29440
7878,30144
7879,30720
7880,31168
7881,31488
7882,31808
7883,32128
7884,32320
7885,32512
7886,32640
7887,32832
7888,32960
7889,33024
7890,33152
7891,33344
7892,33408
7893,33472
7894,33536
7895,33600
7896,33664
7897,33728
7898,33792
7899,33856
7900,33920
7901,33920
7902,33920
7903,33984
7904,34048
7905,34048
7906,34048
7907,34048
7908,34048
7909,34048
7910,34048
7911,34048
7912,34048
7913,34112
7914,34112
7915,34112
7916,34176
7917,34176
7918,34112
7919,34176
7920,34240
7921,34368
7922,34496
7923,34560
7924,34752
7925,34880
7926,34944
7927,35008
7928,35072
7929,35072
7930,35008
7931,34944
7932,34880
7933,34880
7934,34752
7935,34688
7936,34624
7937,34624
7938,34624
7939,34624
7940,34624
7941,34688
7942,34752
7943,34752
7944,34752
7945,34816
7946,34880
7947,34816
7948,34816
7949,34816
7950,34816
7951,34816
7952,34752
7953,34752
7954,34752
7955,34688
7956,34624
7957,34560
7958,34560
7959,34496
7960,34432
7961,34432
7962,34432
7963,34368
7964,34432
7965,34624
7966,34880
7967,35008
7968,35136
7969,35200
7970,35200
7971,35200
7972,35264
7973,35328
7974,35456
7975,35456
7976,35520
7977,35520
7978,35456
7979,35328
7980,35136
7981,34816
7982,34432
7983,33984
7984,33472
7985,33088
7986,32832
7987,32704
7988,32576
7989,32640
7990,32768
7991,32768
7992,32896
7993,32960
7994,33088
7995,33216
7996,33280
7997,33408
7998,33472
7999,33472
8000,33280
8001,33216
8002,33088
8003,33664
8004,34624
8005,36224
8006,38592
8007,41664
8008,44864
8009,47744
8010,49088
8011,47936
8012,44160
8013,39104
8014,34304
8015,30656
8016,28160
8017,28032
8018,28032
8019,28608
8020,29312
8021,29952
8022,30528
8023,31040
8024,31424
8025,31680
8026,31936
8027,32192
8028,32448
8029,32576
8030,32768
8031,32704
8032,32960
8033,33152
8034,33280
8035,33344
8036,33472
8037,33536
8038,33600
8039,33664
8040,33728
8041,33792
8042,33792
8043,33856
8044,33920
8045,33984
8046,33984
8047,33984
8048,34048
8049,33984
8050,33984
8051,33984
8052,34048
8053,34176
8054,34176
8055,34112
8056,34176
8057,34176
8058,34176
8059,34112
8060,34112
8061,34048
8062,34112
8063,34048
8064,34304
8065,34560
8066,34688
8067,34688
8068,34752
8069,34816
8070,34880
8071,34752
8072,34752
8073,34816
8074,34816
8075,34752
8076,34624
8077,34560
8078,34560
8079,34496
8080,34560
8081,34560
8082,34624
8083,34560
8084,34496
8085,34432
8086,34496
8087,34432
8088,34432
8089,34432
8090,34496
8091,34496
8092,34432
8093,34496
8094,34432
8095,34432
8096,34432
8097,34432
8098,34496
8099,34496
8100,34368
8101,34240
8102,34176
8103,34176
8104,34048
8105,33984
8106,33856
8107,33792
8108,33856
8109,33856
8110,33792
8111,33792
8112,33920
8113,34048
8114,34368
8115,34688
8116,34816
8117,34880
8118,34880
8119,34944
8120,35008
8121,34944
8122,35008
8123,35072
8124,35072
8125,35008
8126,34880
8127,34752
8128,34560
8129,34176
8130,33664
8131,33152
8132,32768
8133,32448
8134,32192
8135,32064
8136,32064
8137,32064
8138,32064
8139,32128
8140,32192
8141,32320
8142,32448
8143,32576
8144,32704
8145,32768
8146,32832
8147,32768
8148,32576
8149,32512
8150,32640
8151,33216
8152,34368
8153,36352
8154,39040
8155,42240
8156,45632
8157,48384
8158,49024
8159,46720
8160,41984
8161,36544
8162,31808
8163,28672
8164,27264
8165,27008
8166,27456
8167,28032
8168,28672
8169,29312
8170,29824
8171,30208
8172,30592
8173,30912
8174,31168
8175,31360
8176,31488
8177,31616
8178,31808
8179,32000
8180,32192
8181,32256
8182,32384
8183,32512
8184,32512
8185,32576
8186,32704
8187,32832
8188,32832
8189,32832
8190,32896
8191,32960
8192,33024
8193,33024
8194,33024
8195,33088
8196,33088
8197,33152
8198,33216
8199,33344
8200,33344
8201,33280
8202,33280
8203,33344
8204,33408
8205,33408
8206,33408
8207,33472
8208,33472
8209,33472
8210,33408
8211,33472
8212,33472
8213,33472
8214,33536
8215,33728
8216,33856
8217,33984
8218,33984
8219,33984
8220,33920
8221,33856
8222,33792
8223,33792
8224,33856
8225,33792
8226,33728
8227,33728
8228,33664
8229,33600
8230,33536
8231,33536
8232,33600
8233,33664
8234,33728
8235,33728
8236,33856
8237,33856
8238,33792
8239,33792
8240,33792
8241,33856
8242,33856
8243,33792
8244,33856
8245,33856
8246,33728
8247,33664
8248,33600
8249,33472
8250,33408
8251,33408
8252,33408
8253,33408
8254,33408
8255,33408
8256,33408
8257,33408
8258,33408
8259,33408
8260,33600
8261,33920
8262,34112
8263,34240
8264,34240
8265,34304
8266,34304
8267,34240
8268,34304
8269,34496
8270,34624
8271,34688
8272,34688
8273,34624
8274,34560
8275,34368
8276,33984
8277,33600
8278,33152
8279,32704
8280,32320
8281,32064
8282,32000
8283,32000
8284,32000
8285,32128
8286,32192
8287,32320
8288,32384
8289,32448
8290,32512
8291,32704
8292,32832
8293,32960
8294,32960
8295,32768
8296,32576
8297,32704
8298,33152
8299,34240
8300,35968
8301,38464
8302,41472
8303,44672
8304,47232
8305,48000
8306,46464
8307,42624
8308,37888
8309,33536
8310,30144
8311,28224
8312,27456
8313,27584
8314,28160
8315,28992
8316,29696
8317,30400
8318,30912
8319,31360
8320,31680
8321,31808
8322,32000
8323,32320
8324,32512
8325,32640
8326,32768
8327,32896
8328,33024
8329,33024
8330,33088
8331,33216
8332,33408
8333,33472
8334,33600
8335,33664
8336,33728
8337,33728
8338,33728
8339,33792
8340,33856
8341,33856
8342,33792
8343,33728
8344,33728
8345,33792
8346,33792
8347,33728
8348,33728
8349,33792
8350,33856
8351,33856
8352,33920
8353,33920
8354,33920
8355,33856
8356,33984
8357,34112
8358,34112
8359,34176
8360,34240
8361,34368
8362,34432
8363,34624
8364,34752
8365,34944
8366,35008
8367,35008
8368,35008
8369,34944
8370,34880
8371,34688
8372,34560
8373,34496
8374,34496
8375,34432
8376,34432
8377,34432
8378,34432
8379,34432
8380,34432
8381,34496
8382,34496
8383,34496
8384,34496
8385,34496
8386,34496
8387,34560
8388,34560
8389,34688
8390,34752
8391,34752
8392,34688
8393,34624
8394,34560
8395,34432
8396,34240
8397,34112
8398,34112
8399,34112
8400,34112
8401,34048
8402,34112
8403,34240
8404,34304
8405,34304
8406,34368
8407,34368
8408,34368
8409,34432
8410,34560
8411,34944
8412,35200
8413,35264
8414,35200
8415,35264
8416,35136
8417,35008
8418,35008
8419,35200
8420,35392
8421,35456
8422,35456
8423,35456
8424,35328
8425,35008
8426,34432
8427,33856
8428,33408
8429,33024
8430,32704
8431,32576
8432,32512
8433,32448
8434,32448
8435,32448
8436,32512
8437,32576
8438,32640
8439,32832
8440,33088
8441,33280
8442,33344
8443,33344
8444,33216
8445,33088
8446,33152
8447,33536
8448,34432
8449,36096
8450,38528
8451,41600
8452,44992
8453,48192
8454,49856
8455,48704
8456,44736
8457,39360
8458,34176
8459,30336
8460,28352
8461,27712
8462,27904
8463,28352
8464,28992
8465,29696
8466,30400
8467,30912
8468,31360
8469,31744
8470,31936
8471,32064
8472,32192
8473,32256
8474,32192
8475,32128
8476,32320
8477,32768
8478,33216
8479,33472
8480,33536
8481,33600
8482,33728
8483,33728
8484,33728
8485,33856
8486,34048
8487,33984
8488,33920
8489,33920
8490,34048
8491,33920
8492,33728
8493,33728
8494,33920
8495,34048
8496,34176
8497,34240
8498,34368
8499,34368
8500,34368
8501,34432
8502,34368
8503,34304
8504,34112
8505,34048
8506,34112
8507,34304
8508,34432
8509,34496
8510,34624
8511,34816
8512,34944
8513,35072
8514,35200
8515,35392
8516,35520
8517,35456
8518,35328
8519,35264
8520,35072
8521,34880
8522,34624
8523,34560
8524,34688
8525,34880
8526,34880
8527,34880
8528,34816
8529,34752
8530,34752
8531,34752
8532,34880
8533,35008
8534,35072
8535,35200
8536,35200
8537,35136
8538,35072
8539,34880
8540,34688
8541,34624
8542,34560
8543,34560
8544,34560
8545,34624
8546,34752
8547,34688
8548,34688
8549,34560
8550,34368
8551,34240
8552,34240
8553,34432
8554,34560
8555,34496
8556,34304
8557,34112
8558,34048
8559,34112
8560,34368
8561,34688
8562,35072
8563,35328
8564,35520
8565,35584
8566,35648
8567,35648
8568,35648
8569,35776
8570,35840
8571,35776
8572,35648
8573,35520
8574,35264
8575,34944
8576,34496
8577,34048
8578,33536
8579,33152
8580,32896
8581,32768
8582,32832
8583,32832
8584,32832
8585,32896
8586,33024
8587,32960
8588,33024
8589,33216
8590,33472
8591,33536
8592,33536
8593,33536
8594,33472
8595,33408
8596,33536
8597,33984
8598,35008
8599,36736
8600,39616
8601,42496
8602,46016
8603,49152
8604,50496
8605,48832
8606,44416
8607,38848
8608,33792
8609,30016
8610,28096
8611,27584
8612,27968
8613,28608
8614,29312
8615,29952
8616,30400
8617,30720
8618,31168
8619,31744
8620,32128
8621,32320
8622,32448
8623,32576
8624,32640
8625,32704
8626,32832
8627,33024
8628,33280
8629,33408
8630,33600
8631,33728
8632,33728
8633,33728
8634,33728
8635,33856
8636,33920
8637,33984
8638,34048
8639,34048
8640,34112
8641,34176
8642,34176
8643,34240
8644,34368
8645,34304
8646,34176
8647,34176
8648,34240
8649,34240
8650,34048
8651,33920
8652,33984
8653,34048
8654,34176
8655,34304
8656,34368
8657,34368
8658,34432
8659,34496
8660,34624
8661,34816
8662,34944
8663,35072
8664,35200
8665,35264
8666,35200
8667,35200
8668,35136
8669,35200
8670,35136
8671,35008
8672,34944
8673,34752
8674,34624
8675,34624
8676,34688
8677,34816
8678,34816
8679,34816
8680,34816
8681,34944
8682,35008
8683,34944
8684,34816
8685,34816
8686,34880
8687,35008
8688,35008
8689,35008
8690,35008
8691,34944
8692,34688
8693,34496
8694,34432
8695,34432
8696,34432
8697,34496
8698,34496
8699,34432
8700,34368
8701,34368
8702,34368
8703,34304
8704,34176
8705,34240
8706,34432
8707,34560
8708,34752
8709,35008
8710,35200
8711,35328
8712,35328
8713,35264
8714,35200
8715,35264
8716,35456
8717,35584
8718,35648
8719,35584
8720,35456
8721,35264
8722,34944
8723,34496
8724,33984
8725,33536
8726,33152
8727,32832
8728,32704
8729,32576
8730,32512
8731,32576
8732,32704
8733,32704
8734,32832
8735,33024
8736,33152
8737,33216
8738,33280
8739,33408
8740,33408
8741,33216
8742,32960
8743,33088
8744,33600
8745,34496
8746,36288
8747,38912
8748,42304
8749,45888
8750,49088
8751,50432
8752,48640
8753,44160
8754,38976
8755,33792
8756,30016
8757,28032
8758,27456
8759,27648
8760,28288
8761,29056
8762,29696
8763,30208
8764,30656
8765,31040
8766,31360
8767,31616
8768,31936
8769,32256
8770,32448
8771,32576
8772,32576
8773,32704
8774,32896
8775,33024
8776,33216
8777,33344
8778,33408
8779,33472
8780,33472
8781,33664
8782,33792
8783,33856
8784,33792
8785,33728
8786,33728
8787,33856
8788,33920
8789,33984
8790,34048
8791,34112
8792,34176
8793,34176
8794,34176
8795,34048
8796,33920
8797,33856
8798,33984
8799,33984
8800,33920
8801,33920
8802,33984
8803,34048
8804,34112
8805,34240
8806,34368
8807,34496
8808,34560
8809,34688
8810,34880
8811,35008
8812,35072
8813,35008
8814,34944
8815,35008
8816,34944
8817,34816
8818,34752
8819,34816
8820,34752
8821,34688
8822,34688
8823,34688
8824,34688
8825,34624
8826,34560
8827,34688
8828,34688
8829,34752
8830,34752
8831,34816
8832,34880
8833,34816
8834,34752
8835,34688
8836,34688
8837,34560
8838,34432
8839,34432
8840,34496
8841,34432
8842,34240
8843,34112
8844,34176
8845,34240
8846,34176
8847,34048
8848,34048
8849,33984
8850,33984
8851,33920
8852,33984
8853,34176
8854,34240
8855,34496
8856,34752
8857,34880
8858,34880
8859,35008
8860,35072
8861,35072
8862,35072
8863,35072
8864,35200
8865,35328
8866,35328
8867,35200
8868,35008
8869,34816
8870,34496
8871,34048
8872,33600
8873,33152
8874,32768
8875,32448
8876,32256
8877,32256
8878,32256
8879,32256
8880,32320
8881,32384
8882,32512
8883,32640
8884,32704
8885,32704
8886,32768
8887,32768
8888,32576
8889,32320
8890,32320
8891,32640
8892,33408
8893,35008
8894,37504
8895,40640
8896,44032
8897,47168
8898,48960
8899,48128
8900,44352
8901,39232
8902,33984
8903,29952
8904,27520
8905,26624
8906,26688
8907,27328
8908,28032
8909,28544
8910,28992
8911,29504
8912,30016
8913,30400
8914,30656
8915,30848
8916,31040
8917,31104
8918,31296
8919,31488
8920,31680
8921,31680
8922,31680
8923,31744
8924,31808
8925,31872
8926,31936
8927,32000
8928,32128
8929,32192
8930,32192
8931,32192
8932,32192
8933,32256
8934,32256
8935,32256
8936,32320
8937,32320
8938,32192
8939,32192
8940,32192
8941,32192
8942,32128
8943,32064
8944,32000
8945,31936
8946,31936
8947,31936
8948,32000
8949,32064
8950,32064
8951,32064
8952,32128
8953,32192
8954,32192
8955,32320
8956,32512
8957,32704
8958,32768
8959,32704
8960,32576
8961,32512
8962,32448
8963,32384
8964,32384
8965,32384
8966,32320
8967,32256
8968,32192
8969,32128
8970,32128
8971,32128
8972,32064
8973,32000
8974,32000
8975,32064
8976,32064
8977,32000
8978,31936
8979,31808
8980,31744
8981,31744
8982,31680
8983,31552
8984,31424
8985,31360
8986,31360
8987,31360
8988,31296
8989,31168
8990,31104
8991,30976
8992,30784
8993,30784
8994,30784
8995,30848
8996,30784
8997,30784
8998,30976
8999,31232
9000,31424
9001,31552
9002,31616
9003,31552
9004,31488
9005,31552
9006,31616
9007,31680
9008,31744
9009,31808
9010,31808
9011,31744
9012,31552
9013,31360
9014,31040
9015,30656
9016,30144
9017,29568
9018,29248
9019,29056
9020,28992
9021,28928
9022,28928
9023,28992
9024,29056
9025,29120
9026,29120
9027,29248
9028,29376
9029,29440
9030,29504
9031,29504
9032,29376
9033,29120
9034,29056
9035,29312
9036,30016
9037,31616
9038,33984
9039,36800
9040,40064
9041,43136
9042,44736
9043,44224
9044,41472
9045,37184
9046,32640
9047,28736
9048,26048
9049,24640
9050,24256
9051,24704
9052,25408
9053,26176
9054,26752
9055,27328
9056,27776
9057,28224
9058,28544
9059,28864
9060,29120
9061,29376
9062,29632
9063,29824
9064,30080
9065,30272
9066,30464
9067,30592
9068,30720
9069,30912
9070,31040
9071,31104
9072,31168
9073,31360
9074,31488
9075,31552
9076,31616
9077,31744
9078,31872
9079,31936
9080,31936
9081,32000
9082,32192
9083,32256
9084,32256
9085,32320
9086,32384
9087,32512
9088,32512
9089,32576
9090,32704
9091,32768
9092,32832
9093,32896
9094,33024
9095,33088
9096,33152
9097,33280
9098,33600
9099,33920
9100,34176
9101,34304
9102,34496
9103,34624
9104,34624
9105,34624
9106,34688
9107,34688
9108,34688
9109,34624
9110,34752
9111,34816
9112,34816
9113,34816
9114,34944
9115,35072
9116,35200
9117,35200
9118,35264
9119,35328
9120,35392
9121,35456
9122,35584
9123,35648
9124,35776
9125,35776
9126,35776
9127,35776
9128,35840
9129,35840
9130,35776
9131,35776
9132,35904
9133,35968
9134,35968
9135,35968
9136,36096
9137,36224
9138,36352
9139,36608
9140,36800
9141,36864
9142,36864
9143,36928
9144,37120
9145,37312
9146,37504
9147,37632
9148,37696
9149,37696
9150,37568
9151,37504
9152,37312
9153,36992
9154,36544
9155,36032
9156,35648
9157,35328
9158,35008
9159,34880
9160,34752
9161,34752
9162,34816
9163,34880
9164,35008
9165,35200
9166,35328
9167,35456
9168,35584
9169,35648
9170,35712
9171,35584
9172,35328
9173,35200
9174,35200
9175,35584
9176,36480
9177,38336
9178,41088
9179,44288
9180,47616
9181,50368
9182,51392
9183,49984
9184,46144
9185,41088
9186,36480
9187,32768
9188,30784
9189,30144
9190,30336
9191,30976
9192,31680
9193,32256
9194,32832
9195,33280
9196,33536
9197,33920
9198,34304
9199,34624
9200,34816
9201,35008
9202,35200
9203,35392
9204,35520
9205,35648
9206,35840
9207,35968
9208,36032
9209,36032
9210,36160
9211,36352
9212,36480
9213,36480
9214,36480
9215,36480
9216,36480
9217,36480
9218,36544
9219,36544
9220,36608
9221,36544
9222,36480
9223,36480
9224,36544
9225,36544
9226,36544
9227,36608
9228,36608
9229,36544
9230,36480
9231,36480
9232,36544
9233,36544
9234,36544
9235,36672
9236,36800
9237,36928
9238,37056
9239,37184
9240,37376
9241,37440
9242,37504
9243,37504
9244,37632
9245,37568
9246,37504
9247,37376
9248,37248
9249,37184
9250,37056
9251,36928
9252,36864
9253,36864
9254,36736
9255,36672
9256,36736
9257,36800
9258,36800
9259,36800
9260,36864
9261,36928
9262,36992
9263,36864
9264,36800
9265,36800
9266,36736
9267,36672
9268,36608
9269,36544
9270,36544
9271,36416
9272,36352
9273,36288
9274,36288
9275,36160
9276,36096
9277,36096
9278,36224
9279,36480
9280,36736
9281,36928
9282,36928
9283,36864
9284,36800
9285,36864
9286,36992
9287,37056
9288,37056
9289,37056
9290,37056
9291,36864
9292,36544
9293,36288
9294,35904
9295,35392
9296,34816
9297,34304
9298,33920
9299,33728
9300,33536
9301,33344
9302,33344
9303,33408
9304,33472
9305,33600
9306,33728
9307,33856
9308,33984
9309,34048
9310,34176
9311,34112
9312,33856
9313,33600
9314,33536
9315,33920
9316,34816
9317,36480
9318,39104
9319,42496
9320,46016
9321,49344
9322,51200
9323,50368
9324,46528
9325,40896
9326,35392
9327,31296
9328,28928
9329,28032
9330,28160
9331,28736
9332,29440
9333,30080
9334,30528
9335,30976
9336,31424
9337,31744
9338,31936
9339,32192
9340,32448
9341,32576
9342,32704
9343,32960
9344,33152
9345,33344
9346,33472
9347,33536
9348,33728
9349,33856
9350,33856
9351,33920
9352,33984
9353,34112
9354,34112
9355,34048
9356,34048
9357,34112
9358,34112
9359,34112
9360,34240
9361,34304
9362,34304
9363,34240
9364,34304
9365,34304
9366,34368
9367,34368
9368,34368
9369,34368
9370,34368
9371,34304
9372,34304
9373,34432
9374,34432
9375,34432
9376,34560
9377,34688
9378,34816
9379,34880
9380,35008
9381,35200
9382,35392
9383,35392
9384,35264
9385,35264
9386,35264
9387,35264
9388,35200
9389,35200
9390,35072
9391,34944
9392,34816
9393,34752
9394,34752
9395,34816
9396,34880
9397,34944
9398,35008
9399,35008
9400,35008
9401,35008
9402,35008
9403,35072
9404,35072
9405,35072
9406,35072
9407,35072
9408,34944
9409,34880
9410,34880
9411,34880
9412,34880
9413,34816
9414,34688
9415,34624
9416,34496
9417,34496
9418,34560
9419,34880
9420,35200
9421,35392
9422,35392
9423,35456
9424,35456
9425,35456
9426,35584
9427,35776
9428,35840
9429,35840
9430,35712
9431,35584
9432,35456
9433,35200
9434,34816
9435,34368
9436,33856
9437,33344
9438,32960
9439,32640
9440,32384
9441,32256
9442,32192
9443,32320
9444,32448
9445,32576
9446,32576
9447,32640
9448,32768
9449,32896
9450,32960
9451,32896
9452,32832
9453,32576
9454,32384
9455,32448
9456,33152
9457,34560
9458,36928
9459,40000
9460,43648
9461,47360
9462,49984
9463,50176
9464,47168
9465,41920
9466,36160
9467,31488
9468,28544
9469,27264
9470,27136
9471,27520
9472,28160
9473,28736
9474,29376
9475,29824
9476,30208
9477,30592
9478,30976
9479,31296
9480,31552
9481,31744
9482,31936
9483,32000
9484,32064
9485,32192
9486,32384
9487,32512
9488,32576
9489,32768
9490,32896
9491,32960
9492,33024
9493,33088
9494,33152
9495,33216
9496,33216
9497,33216
9498,33344
9499,33472
9500,33408
9501,33408
9502,33344
9503,33344
9504,33344
9505,33280
9506,33344
9507,33408
9508,33344
9509,33280
9510,33344
9511,33344
9512,33344
9513,33344
9514,33344
9515,33408
9516,33472
9517,33600
9518,33856
9519,34112
9520,34240
9521,34368
9522,34432
9523,34624
9524,34624
9525,34624
9526,34560
9527,34496
9528,34432
9529,34240
9530,34176
9531,34112
9532,34176
9533,34112
9534,34048
9535,34112
9536,34176
9537,34240
9538,34240
9539,34304
9540,34368
9541,34368
9542,34368
9543,34304
9544,34368
9545,34304
9546,34240
9547,34240
9548,34240
9549,34176
9550,34112
9551,34176
9552,34176
9553,34112
9554,34048
9555,33984
9556,34048
9557,34176
9558,34368
9559,34496
9560,34624
9561,34688
9562,34624
9563,34560
9564,34624
9565,34752
9566,34880
9567,34944
9568,34944
9569,34944
9570,34880
9571,34624
9572,34368
9573,33984
9574,33536
9575,32960
9576,32512
9577,32128
9578,31936
9579,31872
9580,31808
9581,31808
9582,31872
9583,31936
9584,32000
9585,32064
9586,32256
9587,32384
9588,32512
9589,32576
9590,32576
9591,32256
9592,31872
9593,31744
9594,31872
9595,32512
9596,33984
9597,36544
9598,39744
9599,43136
9600,46144
9601,47744
9602,47040
9603,43776
9604,39104
9605,33984
9606,30400
9607,27904
9608,27008
9609,27008
9610,27584
9611,28288
9612,28992
9613,29504
9614,29952
9615,30336
9616,30656
9617,30912
9618,31168
9619,31424
9620,31616
9621,31744
9622,31872
9623,32000
9624,32128
9625,32192
9626,32256
9627,32384
9628,32512
9629,32576
9630,32640
9631,32704
9632,32768
9633,32832
9634,32768
9635,32832
9636,32896
9637,32960
9638,32896
9639,32832
9640,32832
9641,32832
9642,32704
9643,32704
9644,32704
9645,32704
9646,32640
9647,32576
9648,32576
9649,32576
9650,32576
9651,32576
9652,32768
9653,32832
9654,32896
9655,32960
9656,33152
9657,33344
9658,33472
9659,33664
9660,33792
9661,33856
9662,33856
9663,33792
9664,33664
9665,33600
9666,33536
9667,33536
9668,33472
9669,33408
9670,33408
9671,33344
9672,33344
9673,33408
9674,33408
9675,33408
9676,33408
9677,33472
9678,33536
9679,33472
9680,33472
9681,33472
9682,33408
9683,33408
9684,33280
9685,33280
9686,33280
9687,33216
9688,33152
9689,33152
9690,33152
9691,33152
9692,33088
9693,33024
9694,32960
9695,32896
9696,32704
9697,32576
9698,32512
9699,32576
9700,32768
9701,32960
9702,33344
9703,33600
9704,33728
9705,33728
9706,33792
9707,33856
9708,33856
9709,33920
9710,34048
9711,34112
9712,34112
9713,34048
9714,33920
9715,33728
9716,33408
9717,32960
9718,32448
9719,31936
9720,31488
9721,31232
9722,31104
9723,31040
9724,31040
9725,31040
9726,31168
9727,31232
9728,31296
9729,31424
9730,31488
9731,31616
9732,31808
9733,31744
9734,31552
9735,31296
9736,31232
9737,31488
9738,32192
9739,33792
9740,36480
9741,39872
9742,44736
9743,46912
9744,48960
9745,48320
9746,44608
9747,39040
9748,33536
9749,29312
9750,26880
9751,25920
9752,26048
9753,26624
9754,27328
9755,27968
9756,28544
9757,29056
9758,29376
9759,29696
9760,30080
9761,30400
9762,30656
9763,30784
9764,31040
9765,31232
9766,31424
9767,31552
9768,31616
9769,31744
9770,31872
9771,31936
9772,32064
9773,32128
9774,32256
9775,32320
9776,32384
9777,32448
9778,32576
9779,32576
9780,32576
9781,32640
9782,32640
9783,32640
9784,32704
9785,32768
9786,32704
9787,32768
9788,32768
9789,32896
9790,32960
9791,32896
9792,32896
9793,32960
9794,32960
9795,32960
9796,33024
9797,33152
9798,33216
9799,33344
9800,33472
9801,33408
9802,33728
9803,33984
9804,34048
9805,34112
9806,34176
9807,34176
9808,34048
9809,33920
9810,33920
9811,33792
9812,33728
9813,33792
9814,33792
9815,33856
9816,33792
9817,33856
9818,33984
9819,33984
9820,33920
9821,33984
9822,34048
9823,34048
9824,33984
9825,33920
9826,33920
9827,33920
9828,33920
9829,33856
9830,33792
9831,33792
9832,33792
9833,33728
9834,33664
9835,33600
9836,33536
9837,33472
9838,33472
9839,33472
9840,33472
9841,33408
9842,33472
9843,33664
9844,33920
9845,34112
9846,34048
9847,34240
9848,34368
9849,34304
9850,34304
9851,34368
9852,34560
9853,34560
9854,34560
9855,34496
9856,34432
9857,34304
9858,34048
9859,33600
9860,33024
9861,32832
9862,32320
9863,31872
9864,31680
9865,31552
9866,31488
9867,31552
9868,31680
9869,31744
9870,31872
9871,31936
9872,32064
9873,32192
9874,32192
9875,32192
9876,32000
9877,31872
9878,31808
9879,32128
9880,32896
9881,34496
9882,36864
9883,39936
9884,43392
9885,46656
9886,48576
9887,47936
9888,44544
9889,39616
9890,34240
9891,29440
9892,29248
9893,26688
9894,26624
9895,27136
9896,27840
9897,28608
9898,29248
9899,29696
9900,30080
9901,30464
9902,30720
9903,30976
9904,31168
9905,31424
9906,31744
9907,31872
9908,32000
9909,32192
9910,32384
9911,32512
9912,32576
9913,32640
9914,32768
9915,32704
9916,32832
9917,33024
9918,33088
9919,33088
9920,33024
9921,33152
9922,33152
9923,33280
9924,33280
9925,33280
9926,33344
9927,33472
9928,33472
9929,33472
9930,33536
9931,33536
9932,33472
9933,33408
9934,33344
9935,33408
9936,33408
9937,33408
9938,33536
9939,33664
9940,33664
9941,33728
9942,33856
9943,33984
9944,34112
9945,34240
9946,34368
9947,34432
9948,34432
9949,34432
9950,34304
9951,34304
9952,34240
9953,34176
9954,34048
9955,33984
9956,33920
9957,33920
9958,33984
9959,34048
9960,34048
9961,34112
9962,34112
9963,34240
9964,34368
9965,34432
9966,34496
9967,34432
9968,34432
9969,34368
9970,34304
9971,34304
9972,34368
9973,34368
9974,34240
9975,34112
9976,34048
9977,34048
9978,33984
9979,33984
9980,34048
9981,34176
9982,34368
9983,34496
9984,34560
9985,34560
9986,34560
9987,34560
9988,34624
9989,34752
9990,34944
9991,35008
9992,35072
9993,35072
9994,35008
9995,34880
9996,34560
9997,34496
9998,33920
9999,33408
10000,32960
10001,32640
10002,32448
10003,32320
10004,32320
10005,32320
10006,32384
10007,32448
10008,32576
10009,32704
10010,32832
10011,32960
10012,32896
10013,33088
10014,33088
10015,32960
10016,32768
10017,32768
10018,33088
10019,33856
10020,35328
10021,37632
10022,40640
10023,43776
10024,46592
10025,47808
10026,45952
10027,45696
10028,39488
10029,35136
10030,31488
10031,29120
10032,27968
10033,27904
10034,28416
10035,29248
10036,29952
10037,30592
10038,31040
10039,31488
10040,31744
10041,32000
10042,32128
10043,32320
10044,32576
10045,32768
10046,32896
10047,33088
10048,33216
10049,33344
10050,33472
10051,33600
10052,33664
10053,33664
10054,33728
10055,33792
10056,33920
10057,33856
10058,34112
10059,34176
10060,34176
10061,34112
10062,33984
10063,33984
10064,34112
10065,34112
10066,33984
10067,33920
10068,33920
10069,33920
10070,33920
10071,33920
10072,33920
10073,33984
10074,33920
10075,33920
10076,33984
10077,34112
10078,34176
10079,34240
10080,34368
10081,34624
10082,34752
10083,34816
10084,34944
10085,35008
10086,35008
10087,34944
10088,34944
10089,34880
10090,34816
10091,34752
10092,34624
10093,34688
10094,34688
10095,34624
10096,34560
10097,34560
10098,34624
10099,34752
10100,34752
10101,34816
10102,34880
10103,34880
10104,34816
10105,34816
10106,34880
10107,34880
10108,34816
10109,34752
10110,34752
10111,34752
10112,34688
10113,34752
10114,34752
10115,34688
10116,34560
10117,34432
10118,34496
10119,34432
10120,34368
10121,34304
10122,34240
10123,34304
10124,34368
10125,34496
10126,34816
10127,35136
10128,35328
10129,35328
10130,35328
10131,35328
10132,35328
10133,35328
10134,35392
10135,35520
10136,35520
10137,35392
10138,35264
10139,35136
10140,34944
10141,34560
10142,34048
10143,33536
10144,33152
10145,32768
10146,32448
10147,32320
10148,32320
10149,32320
10150,32384
10151,32512
10152,32640
10153,32704
10154,32832
10155,33024
10156,33216
10157,33216
10158,33024
10159,32768
10160,32768
10161,33152
10162,33856
10163,35328
10164,37696
10165,40832
10166,44352
10167,47808
10168,50240
10169,50048
10170,46656
10171,41152
10172,35584
10173,31168
10174,28480
10175,27328
10176,27328
10177,27840
10178,28480
10179,29120
10180,29760
10181,30336
10182,30720
10183,31104
10184,31360
10185,31680
10186,31872
10187,32064
10188,32320
10189,32576
10190,32768
10191,32832
10192,32960
10193,33088
10194,33216
10195,33280
10196,33344
10197,33408
10198,33472
10199,33536
10200,33600
10201,33792
10202,33920
10203,33984
10204,34048
10205,34112
10206,34112
10207,34112
10208,34112
10209,34176
10210,34176
10211,34240
10212,34240
10213,34240
10214,34304
10215,34304
10216,34240
10217,34240
10218,34240
10219,34304
10220,34304
10221,34368
10222,34560
10223,34688
10224,34688
10225,34752
10226,34944
10227,35072
10228,35200
10229,35200
10230,35264
10231,35200
10232,35072
10233,35008
10234,34944
10235,34880
10236,34816
10237,34752
10238,34688
10239,34688
10240,34688
10241,34688
10242,34688
10243,34752
10244,34816
10245,34880
10246,34880
10247,34944
10248,35008
10249,35008
10250,34944
10251,34944
10252,34944
10253,34944
10254,34944
10255,35008
10256,35008
10257,34944
10258,34816
10259,34752
10260,34752
10261,34624
10262,34432
10263,34368
10264,34432
10265,34432
10266,34432
10267,34432
10268,34432
10269,34560
10270,34624
10271,34880
10272,35136
10273,35328
10274,35328
10275,35264
10276,35200
10277,35200
10278,35328
10279,35520
10280,35584
10281,35648
10282,35584
10283,35456
10284,35392
10285,35200
10286,34816
10287,34368
10288,33856
10289,33408
10290,33088
10291,32832
10292,32768
10293,32768
10294,32704
10295,32704
10296,32768
10297,32896
10298,33024
10299,33088
10300,33152
10301,33280
10302,33344
10303,33152
10304,32896
10305,32832
10306,33216
10307,33920
10308,35200
10309,37312
10310,40192
10311,43584
10312,47040
10313,49600
10314,49856
10315,46976
10316,41984
10317,36544
10318,31936
10319,28992
10320,27584
10321,27392
10322,27904
10323,28672
10324,29248
10325,29824
10326,30336
10327,30848
10328,31296
10329,31680
10330,31936
10331,32192
10332,32384
10333,32512
10334,32640
10335,32768
10336,32896
10337,32960
10338,33088
10339,33216
10340,33344
10341,33472
10342,33536
10343,33600
10344,33600
10345,33600
10346,33664
10347,33792
10348,33920
10349,33984
10350,33984
10351,34048
10352,34112
10353,34112
10354,34112
10355,34176
10356,34240
10357,34176
10358,34176
10359,34112
10360,34176
10361,34176
10362,34112
10363,34176
10364,34304
10365,34304
10366,34304
10367,34368
10368,34432
10369,34496
10370,34560
10371,34624
10372,34688
10373,34816
10374,34752
10375,34752
10376,34752
10377,34816
10378,34752
10379,34624
10380,34496
10381,34368
10382,34240
10383,34176
10384,34240
10385,34240
10386,34240
10387,34176
10388,34240
10389,34368
10390,34432
10391,34432
10392,34496
10393,34560
10394,34624
10395,34624
10396,34560
10397,34560
10398,34624
10399,34560
10400,34496
10401,34496
10402,34432
10403,34432
10404,34368
10405,34368
10406,34368
10407,34176
10408,34048
10409,34048
10410,34048
10411,34048
10412,33984
10413,33920
10414,33920
10415,33856
10416,33792
10417,33792
10418,33920
10419,34048
10420,34176
10421,34432
10422,34688
10423,34816
10424,34816
10425,34816
10426,34816
10427,34816
10428,34880
10429,35008
10430,35136
10431,35200
10432,35136
10433,35008
10434,34880
10435,34752
10436,34368
10437,33856
10438,33408
10439,33024
10440,32640
10441,32384
10442,32256
10443,32320
10444,32384
10445,32384
10446,32448
10447,32576
10448,32704
10449,32832
10450,32960
10451,33152
10452,33152
10453,33024
10454,32768
10455,32832
10456,33216
10457,33920
10458,35200
10459,37376
10460,40256
10461,43520
10462,46656
10463,48576
10464,48192
10465,44992
10466,40128
10467,35136
10468,31168
10469,28608
10470,27520
10471,27456
10472,28160
10473,28928
10474,29632
10475,30208
10476,30656
10477,31104
10478,31488
10479,31744
10480,32000
10481,32256
10482,32384
10483,32512
10484,32640
10485,32768
10486,32960
10487,33088
10488,33216
10489,33344
10490,33344
10491,33408
10492,33472
10493,33664
10494,33792
10495,33856
10496,33856
10497,33920
10498,33984
10499,33984
10500,33984
10501,34112
10502,34176
10503,34176
10504,34176
10505,34240
10506,34240
10507,34240
10508,34304
10509,34304
10510,34304
10511,34304
10512,34304
10513,34368
10514,34432
10515,34496
10516,34560
10517,34560
10518,34688
10519,34816
10520,34880
10521,34944
10522,35008
10523,35008
10524,35008
10525,35008
10526,34944
10527,34880
10528,34816
10529,34688
10530,34624
10531,34624
10532,34624
10533,34496
10534,34496
10535,34432
10536,34368
10537,34432
10538,34560
10539,34688
10540,34752
10541,34752
10542,34688
10543,34752
10544,34880
10545,34944
10546,34944
10547,34880
10548,34880
10549,34816
10550,34752
10551,34752
10552,34752
10553,34752
10554,34752
10555,34752
10556,34688
10557,34560
10558,34496
10559,34432
10560,34432
10561,34304
10562,34176
10563,34176
10564,34176
10565,34176
10566,34176
10567,34176
10568,34176
10569,34240
10570,34432
10571,34752
10572,35008
10573,35200
10574,35200
10575,35200
10576,35200
10577,35264
10578,35264
10579,35200
10580,35264
10581,35328
10582,35200
10583,35136
10584,35072
10585,34752
10586,34240
10587,33664
10588,33280
10589,32960
10590,32768
10591,32640
10592,32704
10593,32704
10594,32640
10595,32640
10596,32640
10597,32768
10598,33024
10599,33088
10600,33216
10601,33280
10602,33216
10603,33024
10604,32960
10605,33216
10606,33856
10607,34944
10608,36800
10609,39488
10610,42816
10611,46272
10612,48960
10613,49472
10614,47104
10615,42368
10616,36928
10617,32256
10618,29184
10619,27776
10620,27520
10621,27968
10622,28608
10623,29376
10624,30016
10625,30528
10626,30976
10627,31360
10628,31616
10629,31808
10630,32000
10631,32256
10632,32448
10633,32576
10634,32704
10635,32832
10636,33024
10637,33152
10638,33344
10639,33408
10640,33408
10641,33408
10642,33408
10643,33600
10644,33728
10645,33856
10646,33856
10647,33920
10648,34048
10649,34048
10650,34048
10651,33984
10652,34048
10653,34112
10654,34176
10655,34176
10656,34176
10657,34112
10658,34048
10659,34112
10660,34240
10661,34304
10662,34304
10663,34304
10664,34368
10665,34432
10666,34368
10667,34368
10668,34496
10669,34624
10670,34688
10671,34816
10672,34880
10673,34944
10674,34944
10675,34944
10676,34880
10677,34880
10678,34816
10679,34688
10680,34560
10681,34496
10682,34368
10683,34304
10684,34304
10685,34304
10686,34368
10687,34368
10688,34496
10689,34624
10690,34688
10691,34688
10692,34752
10693,34880
10694,34944
10695,34944
10696,35008
10697,35008
10698,34944
10699,34816
10700,34688
10701,34688
10702,34688
10703,34688
10704,34560
10705,34496
10706,34496
10707,34368
10708,34304
10709,34304
10710,34304
10711,34304
10712,34304
10713,34304
10714,34304
10715,34304
10716,34240
10717,34112
10718,34112
10719,34112
10720,34112
10721,34240
10722,34432
10723,34752
10724,34944
10725,35072
10726,35136
10727,35200
10728,35200
10729,35200
10730,35264
10731,35392
10732,35456
10733,35392
10734,35264
10735,35136
10736,35008
10737,34816
10738,34496
10739,34112
10740,33664
10741,33152
10742,32896
10743,32832
10744,32768
10745,32704
10746,32704
10747,32768
10748,32832
10749,32960
10750,33152
10751,33280
10752,33408
10753,33408
10754,33344
10755,33216
10756,33024
10757,33152
10758,33600
10759,34496
10760,36224
10761,38592
10762,41600
10763,44992
10764,48128
10765,49600
10766,48128
10767,43968
10768,38720
10769,33728
10770,30080
10771,28096
10772,27520
10773,27776
10774,28352
10775,28992
10776,29568
10777,30144
10778,30528
10779,30912
10780,31232
10781,31616
10782,31872
10783,32064
10784,32256
10785,32448
10786,32512
10787,32704
10788,32832
10789,33024
10790,33088
10791,33152
10792,33216
10793,33280
10794,33280
10795,33344
10796,33472
10797,33536
10798,33600
10799,33600
10800,33664
10801,33792
10802,33920
10803,33920
10804,33920
10805,33984
10806,34048
10807,34048
10808,34048
10809,34048
10810,34112
10811,34112
10812,34112
10813,34112
10814,34176
10815,34176
10816,34112
10817,34112
10818,34240
10819,34304
10820,34432
10821,34496
10822,34624
10823,34688
10824,34624
10825,34624
10826,34624
10827,34624
10828,34496
10829,34432
10830,34368
10831,34368
10832,34240
10833,34176
10834,34112
10835,34112
10836,34112
10837,33984
10838,33984
10839,34112
10840,34240
10841,34240
10842,34304
10843,34432
10844,34560
10845,34560
10846,34624
10847,34688
10848,34624
10849,34624
10850,34624
10851,34688
10852,34752
10853,34688
10854,34560
10855,34432
10856,34304
10857,34240
10858,34176
10859,34176
10860,34240
10861,34240
10862,34176
10863,34176
10864,34176
10865,34112
10866,34048
10867,33920
10868,33984
10869,33920
10870,33920
10871,33920
10872,33984
10873,34112
10874,34240
10875,34432
10876,34752
10877,35008
10878,35072
10879,35072
10880,35136
10881,35136
10882,35072
10883,35072
10884,35136
10885,35328
10886,35328
10887,35264
10888,35200
10889,35136
10890,34944
10891,34560
10892,34048
10893,33600
10894,33216
10895,32896
10896,32768
10897,32768
10898,32768
10899,32768
10900,32896
10901,33024
10902,33088
10903,33216
10904,33344
10905,33472
10906,33536
10907,33472
10908,33280
10909,33088
10910,33216
10911,33664
10912,34432
10913,35968
10914,38336
10915,41344
10916,44608
10917,47488
10918,48832
10919,47552
10920,43712
10921,38784
10922,34048
10923,30464
10924,28352
