,ECG
0,33024
1,33024
2,32960
3,32768
4,32448
5,32064
6,31616
7,31168
8,30784
9,30592
10,30464
11,30400
12,30400
13,30464
14,30592
15,30656
16,30848
17,30976
18,31168
19,31232
20,31360
21,31360
22,31296
23,31104
24,31168
25,31552
26,32384
27,33664
28,35840
29,38784
30,42112
31,45312
32,47616
33,47552
34,44672
35,39808
36,34432
37,30080
38,27456
39,26368
40,26304
41,26816
42,27584
43,28288
44,28928
45,29440
46,29888
47,30336
48,30720
49,30976
50,31296
51,31552
52,31808
53,32000
54,32192
55,32448
56,32704
57,32896
58,33088
59,33152
60,33280
61,33408
62,33536
63,33664
64,33728
65,33856
66,33920
67,33984
68,34048
69,34112
70,34240
71,34368
72,34368
73,34432
74,34496
75,34624
76,34688
77,34752
78,34752
79,35008
80,35072
81,35136
82,35200
83,35136
84,35392
85,35456
86,35584
87,35584
88,35968
89,36096
90,36224
91,36352
92,36416
93,36352
94,36352
95,36352
96,36352
97,36288
98,36224
99,36096
100,36096
101,36032
102,36032
103,36096
104,36160
105,36224
106,36224
107,36288
108,36352
109,36352
110,36352
111,36416
112,36416
113,36480
114,36416
115,36416
116,36416
117,36416
118,36416
119,36352
120,36416
121,36416
122,36352
123,36288
124,36288
125,36288
126,36224
127,36224
128,36224
129,36288
130,36288
131,36224
132,36224
133,36288
134,36416
135,36544
136,36800
137,37120
138,37312
139,37376
140,37440
141,37440
142,37440
143,37504
144,37568
145,37696
146,37760
147,37760
148,37760
149,37696
150,37568
151,37248
152,36864
153,36416
154,35968
155,35584
156,35328
157,35200
158,35200
159,35200
160,35200
161,35328
162,35264
163,35584
164,35648
165,35776
166,35904
167,35968
168,36032
169,35904
170,35776
171,35840
172,36160
173,36928
174,38336
175,40512
176,43392
177,46656
178,49792
179,51648
180,51136
181,47872
182,42944
183,37888
184,33792
185,31232
186,30144
187,30144
188,30656
189,31296
190,32000
191,32128
192,33152
193,33536
194,33792
195,34112
196,34368
197,34560
198,34752
199,34880
200,35072
201,35200
202,35328
203,35456
204,35520
205,35584
206,35584
207,35648
208,35776
209,35840
210,35904
211,35968
212,36032
213,36096
214,36096
215,36096
216,36096
217,36096
218,36096
219,36096
220,36160
221,36160
222,36160
223,36160
224,36224
225,36288
226,36288
227,36288
228,36288
229,36288
230,36288
231,36288
232,36288
233,36352
234,36416
235,36480
236,36544
237,36672
238,36736
239,36736
240,36800
241,36800
242,36800
243,36672
244,36544
245,36480
246,36416
247,36352
248,36224
249,36224
250,36288
251,36288
252,36288
253,36224
254,36288
255,36288
256,36288
257,36288
258,36288
259,36288
260,36288
261,36288
262,36288
263,36288
264,36224
265,36160
266,36160
267,36096
268,36032
269,35904
270,35840
271,35776
272,35712
273,35712
274,35712
275,35648
276,35648
277,35584
278,35520
279,35520
280,35520
281,35584
282,35840
283,36096
284,36224
285,36288
286,36288
287,36224
288,36224
289,36288
290,36416
291,36608
292,36736
293,36672
294,36608
295,36544
296,36352
297,36032
298,35648
299,35136
300,34624
301,34240
302,33920
303,33792
304,33728
305,33728
306,33728
307,33792
308,33920
309,34048
310,34112
311,34304
312,34432
313,34560
314,34560
315,34368
316,34176
317,34112
318,34368
319,35008
320,36288
321,38400
322,41088
323,44160
324,47104
325,49088
326,48704
327,46080
328,41856
329,37312
330,33344
331,30464
332,28992
333,28608
334,28992
335,29632
336,30400
337,31040
338,31616
339,32000
340,32384
341,32704
342,32960
343,33152
344,33344
345,33536
346,33728
347,33920
348,33984
349,34112
350,34240
351,34304
352,34368
353,34432
354,34560
355,34624
356,34624
357,34624
358,34624
359,34624
360,34624
361,34688
362,34752
363,34688
364,34688
365,34688
366,34688
367,34752
368,34816
369,34816
370,34816
371,34944
372,35008
373,35136
374,35200
375,35200
376,35200
377,35136
378,35136
379,35264
380,35328
381,35392
382,35456
383,35520
384,35648
385,35840
386,35904
387,35968
388,35904
389,35840
390,35776
391,35776
392,35712
393,35648
394,35584
395,35584
396,35520
397,35392
398,35328
399,35328
400,35456
401,35520
402,35584
403,35584
404,35584
405,35584
406,35648
407,35712
408,35712
409,35776
410,35840
411,35904
412,35840
413,35584
414,35264
415,35072
416,35008
417,34944
418,35008
419,35072
420,35136
421,35136
422,35008
423,35072
424,35392
425,35648
426,35840
427,35904
428,36032
429,36160
430,36096
431,35968
432,35840
433,35712
434,35456
435,35264
436,35136
437,35072
438,34944
439,34752
440,34624
441,34368
442,33984
443,33792
444,33600
445,33344
446,33024
447,33024
448,32896
449,32576
450,32256
451,32000
452,32128
453,32384
454,32640
455,32896
456,32960
457,32640
458,32256
459,32256
460,32896
461,34240
462,36416
463,39168
464,42240
465,45376
466,47680
467,48064
468,45824
469,41280
470,36672
471,32512
472,29568
473,27840
474,27328
475,27712
476,28352
477,28992
478,29696
479,30336
480,30912
481,31360
482,31744
483,32000
484,32192
485,32384
486,32576
487,32832
488,32832
489,32832
490,32832
491,32896
492,32896
493,32896
494,32960
495,33216
496,33600
497,33728
498,33792
499,33920
500,34112
501,34176
502,34112
503,33984
504,33792
505,33792
506,33856
507,33920
508,33856
509,33792
510,33792
511,33984
512,34112
513,33984
514,33920
515,33920
516,33792
517,33728
518,33728
519,33920
520,34176
521,34240
522,34176
523,34304
524,34432
525,34624
526,34816
527,34880
528,34752
529,34688
530,34688
531,34688
532,34624
533,34496
534,34304
535,34112
536,34048
537,34112
538,34176
539,34240
540,34240
541,34112
542,33984
543,34048
544,34240
545,34368
546,34432
547,34432
548,34432
549,34368
550,34368
551,34304
552,34176
553,34112
554,34048
555,33920
556,34048
557,34240
558,34368
559,34368
560,34304
561,34176
562,34048
563,34048
564,34368
565,34560
566,34624
567,34752
568,34816
569,34816
570,34880
571,34880
572,34816
573,34752
574,34816
575,35072
576,35136
577,35136
578,35136
579,34752
580,33792
581,32960
582,32576
583,32384
584,32128
585,31744
586,31552
587,31616
588,31872
589,32064
590,32256
591,32448
592,32576
593,32704
594,32768
595,33024
596,33088
597,32768
598,32256
599,32320
600,32768
601,33664
602,35264
603,37696
604,40960
605,44224
606,47104
607,48576
608,47808
609,43584
610,37376
611,33152
612,29440
613,27776
614,27200
615,27264
616,27712
617,28288
618,28992
619,29632
620,30080
621,30336
622,30464
623,30720
624,30976
625,31104
626,31232
627,31488
628,31680
629,31936
630,32064
631,32256
632,32448
633,32704
634,32960
635,33152
636,33088
637,32832
638,32512
639,32384
640,32704
641,32832
642,32640
643,32576
644,32704
645,32896
646,32896
647,32832
648,32768
649,32832
650,32960
651,33216
652,33344
653,33408
654,33472
655,33728
656,33728
657,33344
658,33024
659,33024
660,33024
661,33088
662,33408
663,33728
664,33920
665,33984
666,33984
667,34112
668,34176
669,34112
670,34048
671,33856
672,33664
673,33408
674,33088
675,33024
676,33024
677,33216
678,33408
679,33408
680,33408
681,33152
682,33024
683,33152
684,33472
685,33664
686,33600
687,33664
688,33728
689,33408
690,33344
691,33472
692,33664
693,33408
694,32960
695,32768
696,32960
697,33152
698,32960
699,32704
700,32576
701,32768
702,32768
703,32576
704,32512
705,32640
706,32832
707,32960
708,33088
709,33152
710,33088
711,33216
712,33344
713,33472
714,33536
715,33408
716,33344
717,33344
718,33344
719,33536
720,33728
721,33024
722,32320
723,31744
724,31232
725,31040
726,30976
727,30656
728,30528
729,30720
730,30784
731,30656
732,30656
733,30784
734,30848
735,30848
736,30976
737,31232
738,31104
739,30592
740,30208
741,30080
742,30400
743,31360
744,33088
745,35648
746,38784
747,41984
748,44928
749,46912
750,46912
751,43840
752,38720
753,33216
754,28672
755,26496
756,25472
757,25408
758,25792
759,26176
760,26944
761,27392
762,28096
763,28480
764,28800
765,29120
766,29312
767,29568
768,29888
769,30144
770,30336
771,30720
772,31296
773,31616
774,31296
775,31232
776,31232
777,30976
778,31040
779,31040
780,30912
781,30912
782,31168
783,31488
784,31552
785,31296
786,31040
787,31360
788,31744
789,31680
790,31488
791,31552
792,31680
793,31680
794,31616
795,31680
796,31744
797,31808
798,31808
799,31680
800,31680
801,31744
802,31872
803,32128
804,32384
805,32384
806,32320
807,32256
808,32320
809,32576
810,32960
811,33344
812,33664
813,33408
814,32896
815,32576
816,32576
817,32576
818,32448
819,32192
820,32000
821,32064
822,32064
823,32192
824,32448
825,32640
826,32640
827,32704
828,32960
829,33152
830,33024
831,32704
832,32640
833,32960
834,33088
835,32704
836,32640
837,32512
838,32320
839,32192
840,32064
841,31808
842,31936
843,32448
844,32896
845,32960
846,32576
847,32384
848,32320
849,32256
850,32448
851,32960
852,33280
853,33344
854,33280
855,33152
856,33280
857,33280
858,33408
859,33728
860,33920
861,34048
862,34048
863,34112
864,34048
865,33600
866,33408
867,32896
868,32128
869,31488
870,31168
871,31104
872,30976
873,30912
874,30912
875,30976
876,31232
877,31616
878,31808
879,31936
880,31936
881,31872
882,31808
883,31744
884,31808
885,31872
886,32000
887,32768
888,34112
889,36288
890,38976
891,41984
892,44992
893,46912
894,46784
895,44096
896,39552
897,34752
898,30656
899,27904
900,26752
901,26752
902,27264
903,28032
904,28672
905,29312
906,29888
907,30528
908,30912
909,31168
910,31488
911,31616
912,31680
913,31744
914,31680
915,31936
916,32320
917,32704
918,32768
919,32576
920,32384
921,32512
922,32704
923,32960
924,32960
925,33024
926,33152
927,33344
928,33344
929,33216
930,33088
931,32960
932,33088
933,33280
934,33408
935,33408
936,33344
937,33344
938,33536
939,33472
940,33408
941,33408
942,33600
943,33664
944,33600
945,33664
946,33664
947,33664
948,33792
949,34048
950,34304
951,34496
952,34624
953,34752
954,35072
955,35200
956,35072
957,34880
958,34688
959,34560
960,34560
961,34432
962,34304
963,34240
964,34304
965,34304
966,34432
967,34624
968,34752
969,34752
970,34816
971,34944
972,35008
973,34816
974,34624
975,34560
976,34496
977,34496
978,34624
979,34816
980,34688
981,34496
982,34624
983,34816
984,34688
985,34432
986,34368
987,34624
988,34688
989,34496
990,34368
991,34624
992,35072
993,35264
994,35264
995,35264
996,35264
997,35200
998,35264
999,35392
1000,35776
1001,35904
1002,36032
1003,35776
1004,35584
1005,35392
1006,35072
1007,34560
1008,33984
1009,33472
1010,33152
1011,33088
1012,33088
1013,33216
1014,33152
1015,32896
1016,32832
1017,32960
1018,33216
1019,33536
1020,33600
1021,33408
1022,33152
1023,32960
1024,32832
1025,33024
1026,33344
1027,33920
1028,35264
1029,37440
1030,40448
1031,43264
1032,46144
1033,47744
1034,47296
1035,44480
1036,40320
1037,35968
1038,32320
1039,29824
1040,28544
1041,28288
1042,28736
1043,29440
1044,30080
1045,30656
1046,31104
1047,31616
1048,32064
1049,32448
1050,32704
1051,32832
1052,32832
1053,32960
1054,33152
1055,33280
1056,33408
1057,33600
1058,33856
1059,33920
1060,33984
1061,34048
1062,34176
1063,34432
1064,34496
1065,34368
1066,34304
1067,34240
1068,34176
1069,34176
1070,34240
1071,34176
1072,34048
1073,33920
1074,33856
1075,33920
1076,33984
1077,34112
1078,34240
1079,34176
1080,34240
1081,34240
1082,34304
1083,34432
1084,34496
1085,34368
1086,34496
1087,34752
1088,34944
1089,35200
1090,35456
1091,35520
1092,35584
1093,35584
1094,35584
1095,35712
1096,35904
1097,35840
1098,35648
1099,35456
1100,35392
1101,35328
1102,35200
1103,35136
1104,35200
1105,35328
1106,35328
1107,35200
1108,35200
1109,35392
1110,35520
1111,35392
1112,35264
1113,35392
1114,35456
1115,35456
1116,35520
1117,35776
1118,35776
1119,35584
1120,35392
1121,35264
1122,35264
1123,35264
1124,35264
1125,35200
1126,35136
1127,35136
1128,35008
1129,34816
1130,34624
1131,34688
1132,35008
1133,35392
1134,35648
1135,35648
1136,35648
1137,35712
1138,35776
1139,35840
1140,35904
1141,36032
1142,36160
1143,36160
1144,36032
1145,35776
1146,35520
1147,35264
1148,35008
1149,34688
1150,34048
1151,33792
1152,33472
1153,33280
1154,33152
1155,33088
1156,33024
1157,33088
1158,33344
1159,33600
1160,33792
1161,33792
1162,33792
1163,33728
1164,33472
1165,33088
1166,32960
1167,33152
1168,33920
1169,35392
1170,37632
1171,40704
1172,44224
1173,47168
1174,49344
1175,49152
1176,46144
1177,41280
1178,36224
1179,32000
1180,28736
1181,28352
1182,28288
1183,28608
1184,29120
1185,29568
1186,30080
1187,30720
1188,31168
1189,31488
1190,31744
1191,32064
1192,32320
1193,32512
1194,32704
1195,33152
1196,33344
1197,33472
1198,33344
1199,33344
1200,33408
1201,33408
1202,33344
1203,33344
1204,33472
1205,33600
1206,33600
1207,33664
1208,33728
1209,33792
1210,33728
1211,33728
1212,33856
1213,34112
1214,34176
1215,34240
1216,34240
1217,34240
1218,34240
1219,34112
1220,34048
1221,34048
1222,34112
1223,34048
1224,34048
1225,34240
1226,34560
1227,34688
1228,34688
1229,34752
1230,34944
1231,35136
1232,35328
1233,35520
1234,35584
1235,35584
1236,35520
1237,35520
1238,35456
1239,35392
1240,35328
1241,35264
1242,35264
1243,35136
1244,35008
1245,34880
1246,34880
1247,35008
1248,35072
1249,35072
1250,35072
1251,35136
1252,35136
1253,35200
1254,35328
1255,35328
1256,35264
1257,35264
1258,35200
1259,35136
1260,35072
1261,35008
1262,34944
1263,34944
1264,34880
1265,34816
1266,34752
1267,34688
1268,34624
1269,34560
1270,34496
1271,34432
1272,34432
1273,34368
1274,34368
1275,34368
1276,34496
1277,34624
1278,34816
1279,35008
1280,35136
1281,35200
1282,35136
1283,35072
1284,35072
1285,35072
1286,35200
1287,35264
1288,35392
1289,35392
1290,35328
1291,35264
1292,35072
1293,34816
1294,34304
1295,33792
1296,33408
1297,33088
1298,32768
1299,32640
1300,32640
1301,32640
1302,32640
1303,32704
1304,32832
1305,32896
1306,33024
1307,33088
1308,33152
1309,33216
1310,33024
1311,32832
1312,32896
1313,33344
1314,34176
1315,35648
1316,37888
1317,40832
1318,44096
1319,47104
1320,48640
1321,47936
1322,44544
1323,39744
1324,34816
1325,30784
1326,28288
1327,27136
1328,27072
1329,27648
1330,28480
1331,29184
1332,29824
1333,30336
1334,30784
1335,31040
1336,31296
1337,31616
1338,31872
1339,32064
1340,32256
1341,32448
1342,32640
1343,32768
1344,32832
1345,32896
1346,33024
1347,33088
1348,33152
1349,33216
1350,33344
1351,33472
1352,33536
1353,33600
1354,33664
1355,33728
1356,33728
1357,33728
1358,33728
1359,33792
1360,33792
1361,33792
1362,33856
1363,33856
1364,33920
1365,33920
1366,33920
1367,33920
1368,33920
1369,33984
1370,33984
1371,34048
1372,34112
1373,34176
1374,34176
1375,34304
1376,34432
1377,34496
1378,34560
1379,34624
1380,34624
1381,34624
1382,34560
1383,34560
1384,34496
1385,34368
1386,34304
1387,34176
1388,34176
1389,34176
1390,34112
1391,34048
1392,34112
1393,34112
1394,34112
1395,34112
1396,34176
1397,34176
1398,34176
1399,34176
1400,34176
1401,34240
1402,34176
1403,34176
1404,34112
1405,34176
1406,34112
1407,34048
1408,34048
1409,33984
1410,33920
1411,33856
1412,33792
1413,33792
1414,33728
1415,33664
1416,33600
1417,33600
1418,33600
1419,33536
1420,33536
1421,33600
1422,33728
1423,33856
1424,34048
1425,34304
1426,34560
1427,34560
1428,34560
1429,34560
1430,34560
1431,34560
1432,34688
1433,34816
1434,34944
1435,35008
1436,34944
1437,34816
1438,34624
1439,34368
1440,33920
1441,33472
1442,33024
1443,32704
1444,32448
1445,32256
1446,32192
1447,32192
1448,32256
1449,32320
1450,32384
1451,32512
1452,32640
1453,32704
1454,32768
1455,32896
1456,32768
1457,32512
1458,32448
1459,32576
1460,33088
1461,34112
1462,35968
1463,38464
1464,41536
1465,44608
1466,47168
1467,47808
1468,46080
1469,42240
1470,37568
1471,33216
1472,29632
1473,27776
1474,27008
1475,27136
1476,27776
1477,28544
1478,29248
1479,29888
1480,30464
1481,30848
1482,31168
1483,31424
1484,31616
1485,31808
1486,32000
1487,32128
1488,32320
1489,32512
1490,32576
1491,32640
1492,32768
1493,32832
1494,32896
1495,32960
1496,33088
1497,33152
1498,33216
1499,33280
1500,33280
1501,33344
1502,33408
1503,33408
1504,33472
1505,33536
1506,33600
1507,33600
1508,33600
1509,33664
1510,33728
1511,33728
1512,33728
1513,33792
1514,33792
1515,33792
1516,33856
1517,33856
1518,33920
1519,33920
1520,33984
1521,34112
1522,34240
1523,34368
1524,34432
1525,34560
1526,34624
1527,34624
1528,34624
1529,34560
1530,34560
1531,34368
1532,34240
1533,34176
1534,34112
1535,34048
1536,33920
1537,33920
1538,33920
1539,33984
1540,34048
1541,34112
1542,34176
1543,34240
1544,34240
1545,34240
1546,34240
1547,34240
1548,34240
1549,34240
1550,34304
1551,34432
1552,34368
1553,34304
1554,34240
1555,34240
1556,34176
1557,34176
1558,34112
1559,34112
1560,34048
1561,33984
1562,33920
1563,33920
1564,34048
1565,34176
1566,34304
1567,34432
1568,34496
1569,34432
1570,34432
1571,34496
1572,34560
1573,34560
1574,34624
1575,34752
1576,34880
1577,34944
1578,34880
1579,34752
1580,34496
1581,34048
1582,33472
1583,33024
1584,32640
1585,32384
1586,32192
1587,32128
1588,32128
1589,32192
1590,32192
1591,32192
1592,32384
1593,32512
1594,32576
1595,32640
1596,32704
1597,32640
1598,32512
1599,32320
1600,32384
1601,32704
1602,33408
1603,34816
1604,36928
1605,39616
1606,42560
1607,45248
1608,46848
1609,46400
1610,43776
1611,39808
1612,35584
1613,31808
1614,29184
1615,27648
1616,27200
1617,27456
1618,28160
1619,28864
1620,29568
1621,30208
1622,30656
1623,31040
1624,31360
1625,31680
1626,31936
1627,32064
1628,32256
1629,32448
1630,32576
1631,32704
1632,32832
1633,32896
1634,33024
1635,33088
1636,33152
1637,33216
1638,33280
1639,33344
1640,33408
1641,33472
1642,33600
1643,33664
1644,33664
1645,33664
1646,33728
1647,33792
1648,33856
1649,33856
1650,33920
1651,33984
1652,33984
1653,33984
1654,33984
1655,34048
1656,34048
1657,34112
1658,34176
1659,34304
1660,34368
1661,34368
1662,34432
1663,34560
1664,34752
1665,34816
1666,34944
1667,34944
1668,35008
1669,34880
1670,34816
1671,34752
1672,34688
1673,34624
1674,34560
1675,34496
1676,34432
1677,34368
1678,34304
1679,34304
1680,34368
1681,34432
1682,34368
1683,34368
1684,34432
1685,34496
1686,34496
1687,34560
1688,34624
1689,34624
1690,34624
1691,34624
1692,34624
1693,34688
1694,34624
1695,34624
1696,34624
1697,34624
1698,34560
1699,34496
1700,34432
1701,34432
1702,34368
1703,34304
1704,34304
1705,34496
1706,34688
1707,34816
1708,34880
1709,34880
1710,34880
1711,34880
1712,34944
1713,35008
1714,35072
1715,35136
1716,35136
1717,35136
1718,35136
1719,35008
1720,34816
1721,34496
1722,34048
1723,33600
1724,33152
1725,32768
1726,32576
1727,32448
1728,32384
1729,32320
1730,32384
1731,32384
1732,32448
1733,32640
1734,32832
1735,33024
1736,33088
1737,33088
1738,33088
1739,32896
1740,32832
1741,32960
1742,33472
1743,34496
1744,36288
1745,38720
1746,41664
1747,44608
1748,47040
1749,47872
1750,46464
1751,42880
1752,38208
1753,33728
1754,30336
1755,28288
1756,27456
1757,27520
1758,28096
1759,28800
1760,29504
1761,30080
1762,30592
1763,31040
1764,31488
1765,31872
1766,32192
1767,32512
1768,32704
1769,32832
1770,32896
1771,33024
1772,33152
1773,33152
1774,33152
1775,33280
1776,33408
1777,33472
1778,33664
1779,33728
1780,33856
1781,33856
1782,33792
1783,33856
1784,33920
1785,34112
1786,34240
1787,34240
1788,34112
1789,33920
1790,33856
1791,33792
1792,33856
1793,33856
1794,33792
1795,33856
1796,34048
1797,34304
1798,34432
1799,34496
1800,34624
1801,34688
1802,34752
1803,34752
1804,34688
1805,34752
1806,34816
1807,34944
1808,35008
1809,35072
1810,35136
1811,35136
1812,35072
1813,35008
1814,34944
1815,34752
1816,34624
1817,34560
1818,34560
1819,34624
1820,34688
1821,34752
1822,34752
1823,34752
1824,34880
1825,34816
1826,34880
1827,34944
1828,35008
1829,35008
1830,34944
1831,34880
1832,34880
1833,34880
1834,34944
1835,34880
1836,34816
1837,34880
1838,34944
1839,34880
1840,34688
1841,34496
1842,34368
1843,34240
1844,34112
1845,34176
1846,34432
1847,34752
1848,34944
1849,35072
1850,35136
1851,35200
1852,35136
1853,35072
1854,35008
1855,35008
1856,35072
1857,35136
1858,35136
1859,35072
1860,35008
1861,34944
1862,34752
1863,34496
1864,34176
1865,33792
1866,33472
1867,33216
1868,32960
1869,32832
1870,32704
1871,32704
1872,32640
1873,32512
1874,32512
1875,32704
1876,33088
1877,33024
1878,32896
1879,32896
1880,32832
1881,32768
1882,32896
1883,33408
1884,34432
1885,34432
1886,36160
1887,38592
1888,44800
1889,47808
1890,49472
1891,48576
1892,44864
1893,39552
1894,34368
1895,30464
1896,28224
1897,27328
1898,27392
1899,27968
1900,28736
1901,29440
1902,30016
1903,30528
1904,30912
1905,31232
1906,31552
1907,31744
1908,31936
1909,32192
1910,32384
1911,32576
1912,32768
1913,32832
1914,32896
1915,32960
1916,33152
1917,33280
1918,33344
1919,33344
1920,33472
1921,33600
1922,33600
1923,33664
1924,33664
1925,33728
1926,33728
1927,33728
1928,33728
1929,33792
1930,33792
1931,33728
1932,33792
1933,33856
1934,33920
1935,33856
1936,33920
1937,34048
1938,34176
1939,34240
1940,34240
1941,34240
1942,34240
1943,34304
1944,34368
1945,34432
1946,34496
1947,34560
1948,34624
1949,34624
1950,34688
1951,34624
1952,34560
1953,34496
1954,34496
1955,34560
1956,34560
1957,34496
1958,34496
1959,34496
1960,34368
1961,34240
1962,34176
1963,34176
1964,34240
1965,34304
1966,34432
1967,34560
1968,34624
1969,34688
1970,34752
1971,34816
1972,34816
1973,34752
1974,34752
1975,34752
1976,34752
1977,34688
1978,34688
1979,34752
1980,34752
1981,34752
1982,34752
1983,34752
1984,34816
1985,34816
1986,34752
1987,34496
1988,34304
1989,34176
1990,34112
1991,34112
1992,34176
1993,34240
1994,34432
1995,34688
1996,35008
1997,35136
1998,35136
1999,35136
2000,35136
2001,35136
2002,35200
2003,35264
2004,35392
2005,35392
2006,35264
2007,35200
2008,35072
2009,34944
2010,34560
2011,34048
2012,33472
2013,33088
2014,32768
2015,32512
2016,32384
2017,32320
2018,32384
2019,32448
2020,32512
2021,32704
2022,32896
2023,33024
2024,33088
2025,33216
2026,33280
2027,33152
2028,33024
2029,33088
2030,33536
2031,34304
2032,35776
2033,38080
2034,41024
2035,44288
2036,47552
2037,49536
2038,49216
2039,45888
2040,40576
2041,35200
2042,30976
2043,28480
2044,27520
2045,27584
2046,28160
2047,28864
2048,29504
2049,30144
2050,30528
2051,30912
2052,31168
2053,31552
2054,31936
2055,32192
2056,32384
2057,32448
2058,32576
2059,32640
2060,32768
2061,32896
2062,33088
2063,33280
2064,33472
2065,33664
2066,33856
2067,33984
2068,34048
2069,33920
2070,33792
2071,33664
2072,33600
2073,33600
2074,33664
2075,33792
2076,33984
2077,34112
2078,34112
2079,33984
2080,33920
2081,33856
2082,33984
2083,34112
2084,34176
2085,34112
2086,34112
2087,34112
2088,34112
2089,34112
2090,34304
2091,34560
2092,34816
2093,34944
2094,35008
2095,35008
2096,35072
2097,34944
2098,34688
2099,34560
2100,34688
2101,34944
2102,34880
2103,34688
2104,34624
2105,34624
2106,34560
2107,34432
2108,34304
2109,34240
2110,34048
2111,33920
2112,33856
2113,33920
2114,33856
2115,33984
2116,34368
2117,34624
2118,34816
2119,34816
2120,34688
2121,34560
2122,34432
2123,34304
2124,34112
2125,34112
2126,34112
2127,34048
2128,33984
2129,33920
2130,33920
2131,33984
2132,34048
2133,34112
2134,34112
2135,33920
2136,33728
2137,33792
2138,33920
2139,33920
2140,33792
2141,33728
2142,33664
2143,33600
2144,33536
2145,33664
2146,33728
2147,33792
2148,33984
2149,34176
2150,34432
2151,34688
2152,34816
2153,34880
2154,34880
2155,34688
2156,34496
2157,34560
2158,34816
2159,35072
2160,35136
2161,35008
2162,34944
2163,34944
2164,34880
2165,34560
2166,34048
2167,33600
2168,33216
2169,33024
2170,32896
2171,32768
2172,32640
2173,32512
2174,32512
2175,32576
2176,32832
2177,32960
2178,33024
2179,33088
2180,33152
2181,33216
2182,33216
2183,33088
2184,33024
2185,33216
2186,33856
2187,35072
2188,37056
2189,39808
2190,43072
2191,46464
2192,48704
2193,48640
2194,45760
2195,41024
2196,35840
2197,31424
2198,28672
2199,27456
2200,27328
2201,27776
2202,28480
2203,29120
2204,29632
2205,30144
2206,30592
2207,31040
2208,31424
2209,31616
2210,31616
2211,31680
2212,31872
2213,32256
2214,32640
2215,32832
2216,32832
2217,32960
2218,33088
2219,33152
2220,33216
2221,33280
2222,33280
2223,33344
2224,33344
2225,33472
2226,33536
2227,33472
2228,33472
2229,33536
2230,33600
2231,33600
2232,33600
2233,33600
2234,33728
2235,33792
2236,33792
2237,33792
2238,33792
2239,33856
2240,34048
2241,34176
2242,34304
2243,34240
2244,34176
2245,34176
2246,34176
2247,34240
2248,34368
2249,34496
2250,34496
2251,34432
2252,34368
2253,34368
2254,34496
2255,34560
2256,34496
2257,34432
2258,34304
2259,34240
2260,34176
2261,34176
2262,34176
2263,34176
2264,34240
2265,34240
2266,34240
2267,34240
2268,34240
2269,34240
2270,34240
2271,34240
2272,34240
2273,34240
2274,34176
2275,34176
2276,34304
2277,34304
2278,34304
2279,34304
2280,34368
2281,34240
2282,34176
2283,34112
2284,34176
2285,34176
2286,34112
2287,34112
2288,34112
2289,33984
2290,33856
2291,33792
2292,33856
2293,33792
2294,33792
2295,33856
2296,33856
2297,33792
2298,33600
2299,33536
2300,33536
2301,33600
2302,33728
2303,33728
2304,33664
2305,33728
2306,33792
2307,33984
2308,34112
2309,34176
2310,34368
2311,34624
2312,34880
2313,35008
2314,34944
2315,34880
2316,34880
2317,34880
2318,34880
2319,34944
2320,35072
2321,35136
2322,35008
2323,34880
2324,34688
2325,34432
2326,34112
2327,33664
2328,33344
2329,33088
2330,32832
2331,32704
2332,32576
2333,32640
2334,32832
2335,32896
2336,32960
2337,32960
2338,33024
2339,33088
2340,33280
2341,33344
2342,33344
2343,33216
2344,33280
2345,33664
2346,34432
2347,35584
2348,37440
2349,40128
2350,43584
2351,46528
2352,48512
2353,48384
2354,45568
2355,40896
2356,35776
2357,31488
2358,28736
2359,27456
2360,27264
2361,27648
2362,28416
2363,29120
2364,29760
2365,30400
2366,30848
2367,31296
2368,31616
2369,31872
2370,32064
2371,32320
2372,32576
2373,32704
2374,32832
2375,33024
2376,33152
2377,33152
2378,33152
2379,33088
2380,33152
2381,33280
2382,33344
2383,33408
2384,33472
2385,33472
2386,33536
2387,33728
2388,33856
2389,33984
2390,34048
2391,34176
2392,34240
2393,34240
2394,34112
2395,34048
2396,33984
2397,33920
2398,33920
2399,34048
2400,34112
2401,34112
2402,34112
2403,34176
2404,34304
2405,34368
2406,34432
2407,34496
2408,34624
2409,34688
2410,34688
2411,34624
2412,34688
2413,34752
2414,34752
2415,34752
2416,34752
2417,34688
2418,34560
2419,34432
2420,34304
2421,34176
2422,34112
2423,34176
2424,34240
2425,34240
2426,34176
2427,34112
2428,34112
2429,34240
2430,34304
2431,34176
2432,34112
2433,34176
2434,34240
2435,34304
2436,34240
2437,34304
2438,34368
2439,34432
2440,34368
2441,34240
2442,34048
2443,33920
2444,33728
2445,33728
2446,33664
2447,33600
2448,33600
2449,33728
2450,33920
2451,33920
2452,33728
2453,33536
2454,33536
2455,33600
2456,33600
2457,33664
2458,33664
2459,33728
2460,33664
2461,33536
2462,33472
2463,33472
2464,33536
2465,33728
2466,34048
2467,34432
2468,34624
2469,34624
2470,34560
2471,34624
2472,34688
2473,34752
2474,34880
2475,35008
2476,35200
2477,35200
2478,35072
2479,34880
2480,34688
2481,34304
2482,33792
2483,33280
2484,32832
2485,32448
2486,32256
2487,32128
2488,32192
2489,32256
2490,32256
2491,32320
2492,32512
2493,32768
2494,32960
2495,33088
2496,33216
2497,33280
2498,33280
2499,33152
2500,33088
2501,33216
2502,33664
2503,34688
2504,36608
2505,39168
2506,42176
2507,45312
2508,47616
2509,47936
2510,45568
2511,41152
2512,36288
2513,31936
2514,28928
2515,27328
2516,27136
2517,27648
2518,28352
2519,28992
2520,29568
2521,30144
2522,30720
2523,30976
2524,31232
2525,31552
2526,31808
2527,32128
2528,32384
2529,32512
2530,32576
2531,32576
2532,32640
2533,32896
2534,33024
2535,33088
2536,33024
2537,33024
2538,33152
2539,33216
2540,33216
2541,33216
2542,33408
2543,33536
2544,33536
2545,33536
2546,33536
2547,33600
2548,33728
2549,33856
2550,33920
2551,33984
2552,34048
2553,34048
2554,34112
2555,34112
2556,34112
2557,34048
2558,33984
2559,33984
2560,34048
2561,34176
2562,34304
2563,34368
2564,34304
2565,34304
2566,34368
2567,34496
2568,34688
2569,34752
2570,34688
2571,34624
2572,34432
2573,34304
2574,34240
2575,34176
2576,34112
2577,33920
2578,33728
2579,33728
2580,33920
2581,33920
2582,33984
2583,34176
2584,34432
2585,34624
2586,34624
2587,34432
2588,34304
2589,34368
2590,34560
2591,34624
2592,34624
2593,34624
2594,34624
2595,34496
2596,34432
2597,34176
2598,33792
2599,33600
2600,33920
2601,34240
2602,33856
2603,33344
2604,33088
2605,33216
2606,33280
2607,33344
2608,33536
2609,33792
2610,33856
2611,33856
2612,33856
2613,33984
2614,34176
2615,34304
2616,34432
2617,34624
2618,34688
2619,34688
2620,34752
2621,34816
2622,34880
2623,34944
2624,35008
2625,35136
2626,35136
2627,35008
2628,34816
2629,34624
2630,34304
2631,33856
2632,33344
2633,33024
2634,32768
2635,32512
2636,32320
2637,32192
2638,32128
2639,32256
2640,32512
2641,32768
2642,33024
2643,33216
2644,33152
2645,33088
2646,33024
2647,32960
2648,32960
2649,33088
2650,33536
2651,33984
2652,35264
2653,37248
2654,39872
2655,42816
2656,45696
2657,47680
2658,47936
2659,45632
2660,41408
2661,36672
2662,32576
2663,29696
2664,28096
2665,27584
2666,27776
2667,28288
2668,28864
2669,29504
2670,30144
2671,30592
2672,30976
2673,31232
2674,31680
2675,32064
2676,32256
2677,32384
2678,32512
2679,32704
2680,32896
2681,33088
2682,33216
2683,33280
2684,33344
2685,33408
2686,33536
2687,33664
2688,33792
2689,33856
2690,33920
2691,33920
2692,33792
2693,33728
2694,33728
2695,33856
2696,33856
2697,33856
2698,33792
2699,33856
2700,33984
2701,34112
2702,34240
2703,34240
2704,34240
2705,34240
2706,34240
2707,34304
2708,34368
2709,34496
2710,34496
2711,34496
2712,34496
2713,34688
2714,34880
2715,34944
2716,34880
2717,34816
2718,34880
2719,34880
2720,34752
2721,34688
2722,34752
2723,34752
2724,34688
2725,34624
2726,34560
2727,34368
2728,34240
2729,34240
2730,34240
2731,34304
2732,34304
2733,34368
2734,34368
2735,34368
2736,34432
2737,34496
2738,34560
2739,34624
2740,34560
2741,34432
2742,34432
2743,34432
2744,34496
2745,34496
2746,34496
2747,34496
2748,34432
2749,34432
2750,34432
2751,34368
2752,34176
2753,34048
2754,33984
2755,34048
2756,34048
2757,33984
2758,33920
2759,33856
2760,33920
2761,34112
2762,34432
2763,34816
2764,35072
2765,35136
2766,35072
2767,34944
2768,34880
2769,34880
2770,35072
2771,35200
2772,35328
2773,35264
2774,35072
2775,34944
2776,34816
2777,34496
2778,34048
2779,33536
2780,33088
2781,32704
2782,32512
2783,32384
2784,32384
2785,32448
2786,32512
2787,32576
2788,32704
2789,32832
2790,32832
2791,32832
2792,32896
2793,33088
2794,33024
2795,32832
2796,32640
2797,32832
2798,33280
2799,34240
2800,35776
2801,38016
2802,40960
2803,44224
2804,47424
2805,49408
2806,48960
2807,45376
2808,40128
2809,34816
2810,30592
2811,27968
2812,27008
2813,27008
2814,27584
2815,28544
2816,29120
2817,29696
2818,30144
2819,30592
2820,30976
2821,31360
2822,31616
2823,31872
2824,32192
2825,32384
2826,32512
2827,32576
2828,32576
2829,32640
2830,32704
2831,32768
2832,32896
2833,33024
2834,33088
2835,33088
2836,33216
2837,33536
2838,33792
2839,33856
2840,33792
2841,33728
2842,33856
2843,33856
2844,33856
2845,33792
2846,33728
2847,33792
2848,33792
2849,33920
2850,34176
2851,34304
2852,34176
2853,34048
2854,34048
2855,34176
2856,34304
2857,34240
2858,34176
2859,34240
2860,34368
2861,34432
2862,34560
2863,34752
2864,34944
2865,35072
2866,34944
2867,34880
2868,34816
2869,34752
2870,34752
2871,34752
2872,34560
2873,34432
2874,34304
2875,34304
2876,34304
2877,34240
2878,34176
2879,34176
2880,34304
2881,34368
2882,34368
2883,34304
2884,34432
2885,34496
2886,34496
2887,34624
2888,34688
2889,34688
2890,34624
2891,34624
2892,34624
2893,34560
2894,34496
2895,34496
2896,34496
2897,34368
2898,34240
2899,34176
2900,34176
2901,34240
2902,34240
2903,34112
2904,33984
2905,33920
2906,33920
2907,33920
2908,34048
2909,34368
2910,34688
2911,34816
2912,34880
2913,34880
2914,34944
2915,35072
2916,35136
2917,35264
2918,35328
2919,35328
2920,35264
2921,35200
2922,35008
2923,34752
2924,34560
2925,34304
2926,33856
2927,33408
2928,33024
2929,32896
2930,32704
2931,32512
2932,32320
2933,32320
2934,32384
2935,32512
2936,32640
2937,32768
2938,32960
2939,33088
2940,33088
2941,33088
2942,33152
2943,33088
2944,33088
2945,33216
2946,33792
2947,34816
2948,36544
2949,39040
2950,42176
2951,45504
2952,48512
2953,49856
2954,48448
2955,44224
2956,38720
2957,33408
2958,29696
2959,27712
2960,27072
2961,27392
2962,27968
2963,28672
2964,29440
2965,30144
2966,30592
2967,30976
2968,31296
2969,31488
2970,31744
2971,32064
2972,32384
2973,32448
2974,32512
2975,32640
2976,32768
2977,32896
2978,33088
2979,33216
2980,33472
2981,33472
2982,33472
2983,33472
2984,33600
2985,33664
2986,33664
2987,33664
2988,33728
2989,33792
2990,33792
2991,33792
2992,33792
2993,33792
2994,33792
2995,33920
2996,33984
2997,34176
2998,34304
2999,34368
3000,34368
3001,34368
3002,34304
3003,34304
3004,34368
3005,34496
3006,34560
3007,34624
3008,34688
3009,34752
3010,34688
3011,34624
3012,34688
3013,34752
3014,34816
3015,34816
3016,34752
3017,34752
3018,34688
3019,34560
3020,34560
3021,34496
3022,34432
3023,34304
3024,34240
3025,34176
3026,34240
3027,34304
3028,34368
3029,34368
3030,34432
3031,34432
3032,34432
3033,34496
3034,34560
3035,34688
3036,34752
3037,34688
3038,34624
3039,34624
3040,34560
3041,34432
3042,34368
3043,34304
3044,34112
3045,33984
3046,34048
3047,34112
3048,34048
3049,34048
3050,33984
3051,34048
3052,34112
3053,34048
3054,33984
3055,33920
3056,33920
3057,33984
3058,34176
3059,34304
3060,34432
3061,34624
3062,34752
3063,34880
3064,34880
3065,34880
3066,34816
3067,34880
3068,34944
3069,35008
3070,35136
3071,35136
3072,35136
3073,35008
3074,34944
3075,34816
3076,34560
3077,34112
3078,33600
3079,33088
3080,32768
3081,32576
3082,32448
3083,32448
3084,32512
3085,32512
3086,32576
3087,32704
3088,33024
3089,33216
3090,33280
3091,33280
3092,33344
3093,33344
3094,33152
3095,32960
3096,33152
3097,33664
3098,34688
3099,36480
3100,40320
3101,42240
3102,45504
3103,48320
3104,49408
3105,47744
3106,43456
3107,38144
3108,33344
3109,29888
3110,28032
3111,27392
3112,27584
3113,28288
3114,29056
3115,29760
3116,30272
3117,30656
3118,30976
3119,31232
3120,31488
3121,31936
3122,32320
3123,32512
3124,32640
3125,32832
3126,32960
3127,33088
3128,33088
3129,33152
3130,33280
3131,33344
3132,33472
3133,33600
3134,33664
3135,33664
3136,33600
3137,33600
3138,33664
3139,33664
3140,33664
3141,33728
3142,33856
3143,34048
3144,34112
3145,34176
3146,34176
3147,34240
3148,34304
3149,34368
3150,34432
3151,34432
3152,34368
3153,34304
3154,34240
3155,34240
3156,34240
3157,34304
3158,34368
3159,34560
3160,34688
3161,34752
3162,34880
3163,35008
3164,35136
3165,35136
3166,35136
3167,35072
3168,34944
3169,34752
3170,34560
3171,34432
3172,34368
3173,34304
3174,34240
3175,34240
3176,34240
3177,34240
3178,34240
3179,34304
3180,34304
3181,34304
3182,34240
3183,34240
3184,34368
3185,34432
3186,34368
3187,34368
3188,34432
3189,34496
3190,34496
3191,34432
3192,34432
3193,34368
3194,34304
3195,34240
3196,34240
3197,34240
3198,34176
3199,34048
3200,33920
3201,33920
3202,33856
3203,33856
3204,33792
3205,33856
3206,33920
3207,33920
3208,33920
3209,33920
3210,33984
3211,34048
3212,34176
3213,34432
3214,34624
3215,34688
3216,34624
3217,34560
3218,34624
3219,34752
3220,34944
3221,35072
3222,35136
3223,35200
3224,35200
3225,35136
3226,35008
3227,34816
3228,34496
3229,34048
3230,33664
3231,33216
3232,32832
3233,32576
3234,32448
3235,32320
3236,32256
3237,32384
3238,32640
3239,32832
3240,32896
3241,32960
3242,33088
3243,33280
3244,33344
3245,33280
3246,33088
3247,32896
3248,33024
3249,33408
3250,34240
3251,35712
3252,38016
3253,40896
3254,44096
3255,47168
3256,48896
3257,48064
3258,44864
3259,39936
3260,34816
3261,30720
3262,28224
3263,27200
3264,27264
3265,27840
3266,28608
3267,29312
3268,29952
3269,30400
3270,30720
3271,31104
3272,31552
3273,31872
3274,32000
3275,32192
3276,32448
3277,32576
3278,32704
3279,32832
3280,33024
3281,33088
3282,33152
3283,33152
3284,33216
3285,33280
3286,33408
3287,33472
3288,33536
3289,33600
3290,33600
3291,33600
3292,33536
3293,33600
3294,33728
3295,33792
3296,33856
3297,33920
3298,33920
3299,33984
3300,34048
3301,34176
3302,34240
3303,34240
3304,34176
3305,34176
3306,34240
3307,34240
3308,34112
3309,34048
3310,34048
3311,34048
3312,34112
3313,34240
3314,34368
3315,34432
3316,34560
3317,34688
3318,34816
3319,34880
3320,34752
3321,34624
3322,34496
3323,34368
3324,34112
3325,34048
3326,34112
3327,34112
3328,34048
3329,34048
3330,34048
3331,34048
3332,33984
3333,34048
3334,34112
3335,34176
3336,34176
3337,34048
3338,33984
3339,34048
3340,34240
3341,34304
3342,34304
3343,34304
3344,34240
3345,34176
3346,34048
3347,33984
3348,33920
3349,33920
3350,33920
3351,33920
3352,33856
3353,33728
3354,33536
3355,33472
3356,33472
3357,33472
3358,33472
3359,33472
3360,33536
3361,33536
3362,33536
3363,33664
3364,33728
3365,33856
3366,33984
3367,34240
3368,34496
3369,34624
3370,34560
3371,34560
3372,34496
3373,34432
3374,34496
3375,34624
3376,34752
3377,34752
3378,34688
3379,34624
3380,34496
3381,34304
3382,33920
3383,33344
3384,32896
3385,32704
3386,32512
3387,32320
3388,32256
3389,32320
3390,32320
3391,32320
3392,32320
3393,32512
3394,32640
3395,32768
3396,32832
3397,32960
3398,32960
3399,32896
3400,32768
3401,32832
3402,33088
3403,33728
3404,34944
3405,36928
3406,39616
3407,42688
3408,46080
3409,47808
3410,47744
3411,45120
3412,40704
3413,35968
3414,31872
3415,28992
3416,27520
3417,27264
3418,27648
3419,28352
3420,28992
3421,29696
3422,30272
3423,30784
3424,31104
3425,31488
3426,31808
3427,32000
3428,32128
3429,32192
3430,32384
3431,32576
3432,32768
3433,32960
3434,33088
3435,33152
3436,33216
3437,33280
3438,33344
3439,33408
3440,33536
3441,33600
3442,33600
3443,33664
3444,33728
3445,33728
3446,33792
3447,33856
3448,33920
3449,33920
3450,33920
3451,34048
3452,34112
3453,34112
3454,34176
3455,34240
3456,34304
3457,34304
3458,34304
3459,34368
3460,34368
3461,34368
3462,34432
3463,34496
3464,34624
3465,34688
3466,34688
3467,34752
3468,34816
3469,34880
3470,34944
3471,35008
3472,35008
3473,34944
3474,34752
3475,34560
3476,34432
3477,34304
3478,34240
3479,34176
3480,34176
3481,34176
3482,34176
3483,34176
3484,34304
3485,34368
3486,34368
3487,34368
3488,34432
3489,34560
3490,34624
3491,34688
3492,34752
3493,34752
3494,34688
3495,34560
3496,34560
3497,34496
3498,34496
3499,34368
3500,34368
3501,34368
3502,34368
3503,34304
3504,34240
3505,34176
3506,34176
3507,34176
3508,34176
3509,34240
3510,34240
3511,34240
3512,34240
3513,34240
3514,34304
3515,34368
3516,34560
3517,34752
3518,34880
3519,34880
3520,34880
3521,34880
3522,35008
3523,35072
3524,35136
3525,35136
3526,35200
3527,35200
3528,35136
3529,35072
3530,34880
3531,34560
3532,34048
3533,33536
3534,33088
3535,32768
3536,32576
3537,32512
3538,32576
3539,32640
3540,32704
3541,32704
3542,32768
3543,32832
3544,32960
3545,33024
3546,33088
3547,33216
3548,33152
3549,33088
3550,33088
3551,33280
3552,33792
3553,34688
3554,36352
3555,38784
3556,41792
3557,45056
3558,47936
3559,48960
3560,47424
3561,43328
3562,38144
3563,33344
3564,29824
3565,27968
3566,27392
3567,27648
3568,28288
3569,28992
3570,29696
3571,30272
3572,30848
3573,31232
3574,31488
3575,31744
3576,32000
3577,32192
3578,32320
3579,32448
3580,32576
3581,32640
3582,32704
3583,32768
3584,32896
3585,33024
3586,33088
3587,33216
3588,33408
3589,33536
3590,33600
3591,33664
3592,33792
3593,33856
3594,33856
3595,33792
3596,33728
3597,33792
3598,33920
3599,34112
3600,34048
3601,33920
3602,33856
3603,33792
3604,33792
3605,33984
3606,34112
3607,34112
3608,34112
3609,34048
3610,34048
3611,34048
3612,34176
3613,34304
3614,34560
3615,34688
3616,34752
3617,34816
3618,34880
3619,34944
3620,34816
3621,34688
3622,34560
3623,34496
3624,34304
3625,34176
3626,34240
3627,34240
3628,34240
3629,34176
3630,34112
3631,34112
3632,34176
3633,34176
3634,34112
3635,34176
3636,34240
3637,34304
3638,34368
3639,34432
3640,34496
3641,34496
3642,34432
3643,34432
3644,34432
3645,34304
3646,34240
3647,34304
3648,34432
3649,34432
3650,34240
3651,34176
3652,34176
3653,34112
3654,33984
3655,33920
3656,33920
3657,33984
3658,34048
3659,34112
3660,34048
3661,33984
3662,33984
3663,33984
3664,34048
3665,34176
3666,34432
3667,34816
3668,35136
3669,35264
3670,35264
3671,35200
3672,35200
3673,35200
3674,35200
3675,35264
3676,35392
3677,35392
3678,35328
3679,35200
3680,35072
3681,34752
3682,34368
3683,33856
3684,33408
3685,33088
3686,32896
3687,32704
3688,32576
3689,32640
3690,32704
3691,32704
3692,32704
3693,32768
3694,32960
3695,33280
3696,33344
3697,33280
3698,33088
3699,32896
3700,32832
3701,32832
3702,33856
3703,35200
3704,37376
3705,40128
3706,43328
3707,46592
3708,48832
3709,48768
3710,45760
3711,40768
3712,35520
3713,31296
3714,28608
3715,27392
3716,27328
3717,27776
3718,28480
3719,29184
3720,29760
3721,30336
3722,30656
3723,30912
3724,31168
3725,31552
3726,31936
3727,32192
3728,32384
3729,32576
3730,32768
3731,32832
3732,32960
3733,32960
3734,33024
3735,33024
3736,33088
3737,33216
3738,33344
3739,33344
3740,33344
3741,33472
3742,33600
3743,33536
3744,33472
3745,33472
3746,33536
3747,33600
3748,33664
3749,33728
3750,33792
3751,33856
3752,33984
3753,33920
3754,33920
3755,33984
3756,34048
3757,34048
3758,34048
3759,34112
3760,34048
3761,34048
3762,34176
3763,34240
3764,34368
3765,34432
3766,34496
3767,34624
3768,34560
3769,34752
3770,34624
3771,34560
3772,34560
3773,34496
3774,34368
3775,34304
3776,34240
3777,34240
3778,34176
3779,34176
3780,34176
3781,34176
3782,34048
3783,34048
3784,34112
3785,34112
3786,34112
3787,34176
3788,34176
3789,34176
3790,34176
3791,34304
3792,34432
3793,34496
3794,34432
3795,34368
3796,34368
3797,34368
3798,34368
3799,34368
3800,34432
3801,34560
3802,34432
3803,34176
3804,34048
3805,33984
3806,33984
3807,33984
3808,33984
3809,33984
3810,33920
3811,33728
3812,33728
3813,33856
3814,34048
3815,34240
3816,34688
3817,35008
3818,35136
3819,35264
3820,35392
3821,35456
3822,35328
3823,35200
3824,35200
3825,35136
3826,35136
3827,35072
3828,34816
3829,34560
3830,34176
3831,33728
3832,33216
3833,32768
3834,32576
3835,32512
3836,32512
3837,32512
3838,32576
3839,32640
3840,32640
3841,32640
3842,32640
3843,32640
3844,32704
3845,32768
3846,32960
3847,33088
3848,33024
3849,32704
3850,32576
3851,32896
3852,33664
3853,35072
3854,37248
3855,40064
3856,43328
3857,46848
3858,49152
3859,49280
3860,46400
3861,41344
3862,35968
3863,31488
3864,28736
3865,27392
3866,27328
3867,27776
3868,28480
3869,29184
3870,29760
3871,30336
3872,30720
3873,30976
3874,31360
3875,31808
3876,32128
3877,32320
3878,32512
3879,32704
3880,32832
3881,32896
3882,32960
3883,32960
3884,33024
3885,33088
3886,33088
3887,33152
3888,33280
3889,33408
3890,33472
3891,33600
3892,33664
3893,33728
3894,33728
3895,33728
3896,33856
3897,33856
3898,33792
3899,33792
3900,33856
3901,34048
3902,34176
3903,34240
3904,34240
3905,34304
3906,34304
3907,34240
3908,34176
3909,34176
3910,34176
3911,34176
3912,34304
3913,34432
3914,34624
3915,34688
3916,34880
3917,35072
3918,35136
3919,35136
3920,35136
3921,35136
3922,35136
3923,35072
3924,34944
3925,34752
3926,34560
3927,34304
3928,34240
3929,34304
3930,34368
3931,34496
3932,34496
3933,34624
3934,34816
3935,34816
3936,34624
3937,34496
3938,34560
3939,34752
3940,34816
3941,34816
3942,34816
3943,34816
3944,34752
3945,34624
3946,34432
3947,34112
3948,33984
3949,33984
3950,34176
3951,34304
3952,34304
3953,34240
3954,34240
3955,34240
3956,34112
3957,34176
3958,34176
3959,34368
3960,34432
3961,34432
3962,34496
3963,34624
3964,34752
3965,34816
3966,34816
3967,34816
3968,34880
3969,35008
3970,35136
3971,35264
3972,35392
3973,35328
3974,35264
3975,35136
3976,34944
3977,34752
3978,34368
3979,33856
3980,33408
3981,33024
3982,32768
3983,32640
3984,32640
3985,32704
3986,32704
3987,32768
3988,32896
3989,33024
3990,33024
3991,33088
3992,33152
3993,33216
3994,33280
3995,33216
3996,33024
3997,33024
3998,33216
3999,33920
4000,35328
4001,37504
4002,40320
4003,43520
4004,46656
4005,48640
4006,48384
4007,45248
4008,40704
4009,35776
4010,31680
4011,29056
4012,27840
4013,27648
4014,28096
4015,28800
4016,29568
4017,30208
4018,30720
4019,30912
4020,31168
4021,31488
4022,31872
4023,32064
4024,32128
4025,32256
4026,32448
4027,32576
4028,32768
4029,32896
4030,32896
4031,32960
4032,33152
4033,33408
4034,33472
4035,33472
4036,33600
4037,33856
4038,33920
4039,33920
4040,33856
4041,33792
4042,33856
4043,33920
4044,33984
4045,33920
4046,33920
4047,33984
4048,33984
4049,34048
4050,34176
4051,34240
4052,34240
4053,34240
4054,34240
4055,34304
4056,34368
4057,34432
4058,34432
4059,34432
4060,34432
4061,34560
4062,34816
4063,35072
4064,35136
4065,35136
4066,35136
4067,35136
4068,35008
4069,34880
4070,34752
4071,34560
4072,34368
4073,34304
4074,34176
4075,34176
4076,34240
4077,34304
4078,34368
4079,34432
4080,34496
4081,34560
4082,34560
4083,34496
4084,34560
4085,34560
4086,34560
4087,34496
4088,34368
4089,34304
4090,34304
4091,34432
4092,34368
4093,34240
4094,34048
4095,33856
4096,33856
4097,33920
4098,33856
4099,33600
4100,33536
4101,33664
4102,33792
4103,33856
4104,33792
4105,33728
4106,33792
4107,33984
4108,34368
4109,34560
4110,34496
4111,34368
4112,34368
4113,34368
4114,34368
4115,34432
4116,34560
4117,34624
4118,34688
4119,34624
4120,34560
4121,34496
4122,34304
4123,33856
4124,33408
4125,33024
4126,32704
4127,32448
4128,32192
4129,32064
4130,32064
4131,32064
4132,32064
4133,32192
4134,32256
4135,32384
4136,32512
4137,32704
4138,32896
4139,33024
4140,32832
4141,32384
4142,32192
4143,32576
4144,33344
4145,34624
4146,36672
4147,39488
4148,42752
4149,45952
4150,48256
4151,48448
4152,45760
4153,41152
4154,35968
4155,31552
4156,28544
4157,27072
4158,26880
4159,27456
4160,28160
4161,28928
4162,29824
4163,30464
4164,30848
4165,31104
4166,31424
4167,31680
4168,31872
4169,32000
4170,32064
4171,32192
4172,32512
4173,32576
4174,32576
4175,32576
4176,32768
4177,33024
4178,33280
4179,33408
4180,33472
4181,33536
4182,33536
4183,33472
4184,33344
4185,33280
4186,33216
4187,33280
4188,33472
4189,33728
4190,33728
4191,33664
4192,33600
4193,33600
4194,33728
4195,33728
4196,33728
4197,33728
4198,33792
4199,33856
4200,33856
4201,33920
4202,33984
4203,34048
4204,34176
4205,34368
4206,34432
4207,34368
4208,34368
4209,34560
4210,34752
4211,34816
4212,34752
4213,34624
4214,34560
4215,34560
4216,34496
4217,34368
4218,34304
4219,34240
4220,34176
4221,34176
4222,34240
4223,34176
4224,34176
4225,34240
4226,34304
4227,34304
4228,34304
4229,34368
4230,34496
4231,34496
4232,34432
4233,34368
4234,34368
4235,34496
4236,34432
4237,34304
4238,34176
4239,34048
4240,33984
4241,33984
4242,33920
4243,33856
4244,33728
4245,33728
4246,33792
4247,33856
4248,33920
4249,33920
4250,34176
4251,34624
4252,34880
4253,34880
4254,34816
4255,34752
4256,34752
4257,34816
4258,34944
4259,35008
4260,34944
4261,34944
4262,35008
4263,35008
4264,34752
4265,34432
4266,34112
4267,33728
4268,33280
4269,32896
4270,32640
4271,32512
4272,32448
4273,32384
4274,32384
4275,32448
4276,32512
4277,32576
4278,32640
4279,32640
4280,32704
4281,32768
4282,32960
4283,33088
4284,32960
4285,32704
4286,32768
4287,33280
4288,34240
4289,35968
4290,38464
4291,41536
4292,44864
4293,47488
4294,48448
4295,46912
4296,43136
4297,38400
4298,33792
4299,30272
4300,28224
4301,27456
4302,27520
4303,28096
4304,28928
4305,29632
4306,30144
4307,30592
4308,31040
4309,31488
4310,31744
4311,31936
4312,32064
4313,32192
4314,32384
4315,32576
4316,32640
4317,32832
4318,33088
4319,33280
4320,33344
4321,33344
4322,33344
4323,33344
4324,33472
4325,33536
4326,33600
4327,33536
4328,33600
4329,33728
4330,33920
4331,33920
4332,33920
4333,33920
4334,33920
4335,34048
4336,33984
4337,33920
4338,33856
4339,33920
4340,33920
4341,33920
4342,33920
4343,33920
4344,34048
4345,34176
4346,34240
4347,34368
4348,34496
4349,34624
4350,34752
4351,34944
4352,35136
4353,35200
4354,35072
4355,35008
4356,35008
4357,34944
4358,34880
4359,34880
4360,34816
4361,34688
4362,34560
4363,34560
4364,34624
4365,34560
4366,34560
4367,34752
4368,34816
4369,34816
4370,34688
4371,34752
4372,34816
4373,34752
4374,34624
4375,34624
4376,34624
4377,34688
4378,34688
4379,34624
4380,34560
4381,34496
4382,34368
4383,34368
4384,34368
4385,34432
4386,34368
4387,34304
4388,34304
4389,34368
4390,34368
4391,34496
4392,34688
4393,34880
4394,34944
4395,34880
4396,34880
4397,34880
4398,34944
4399,35072
4400,35200
4401,35328
4402,35392
4403,35392
4404,35328
4405,35200
4406,34944
4407,34688
4408,34368
4409,33920
4410,33536
4411,33088
4412,32768
4413,32576
4414,32448
4415,32320
4416,32320
4417,32384
4418,32384
4419,32512
4420,32640
4421,32768
4422,32960
4423,33152
4424,33152
4425,33088
4426,32832
4427,32640
4428,32640
4429,33024
4430,34048
4431,36032
4432,38848
4433,42176
4434,45632
4435,48832
4436,49472
4437,47680
4438,43456
4439,38144
4440,33216
4441,29632
4442,27776
4443,27328
4444,27520
4445,28096
4446,28864
4447,29504
4448,30080
4449,30528
4450,30912
4451,31168
4452,31424
4453,31744
4454,32000
4455,32192
4456,32320
4457,32384
4458,32576
4459,32832
4460,32960
4461,32896
4462,33024
4463,33216
4464,33344
4465,33344
4466,33344
4467,33344
4468,33408
4469,33472
4470,33536
4471,33600
4472,33664
4473,33600
4474,33600
4475,33536
4476,33536
4477,33536
4478,33600
4479,33600
4480,33856
4481,33920
4482,34048
4483,34112
4484,34112
4485,34112
4486,34048
4487,34048
4488,34176
4489,34240
4490,34368
4491,34432
4492,34496
4493,34688
4494,34752
4495,34752
4496,34880
4497,34944
4498,34880
4499,34880
4500,34944
4501,34944
4502,34880
4503,34752
4504,34560
4505,34432
4506,34432
4507,34496
4508,34560
4509,34560
4510,34496
4511,34496
4512,34560
4513,34688
4514,34816
4515,34816
4516,34752
4517,34816
4518,34816
4519,34752
4520,34688
4521,34688
4522,34688
4523,34624
4524,34496
4525,34432
4526,34432
4527,34432
4528,34368
4529,34368
4530,34368
4531,34240
4532,34112
4533,34112
4534,34432
4535,34880
4536,35136
4537,35200
4538,35136
4539,35136
4540,35072
4541,35072
4542,35136
4543,35200
4544,35328
4545,35392
4546,35392
4547,35328
4548,35072
4549,34752
4550,34368
4551,33920
4552,33472
4553,32960
4554,32704
4555,32512
4556,32448
4557,32448
4558,32512
4559,32576
4560,32704
4561,32704
4562,32768
4563,32896
4564,33024
4565,33088
4566,33152
4567,33216
4568,33024
4569,32768
4570,32832
4571,33152
4572,34048
4573,35648
4574,38080
4575,41216
4576,44736
4577,47936
4578,49664
4579,48704
4580,44928
4581,39616
4582,34368
4583,30400
4584,28160
4585,27456
4586,27648
4587,28224
4588,28928
4589,29568
4590,30080
4591,30592
4592,30976
4593,31296
4594,31552
4595,31808
4596,32000
4597,32256
4598,32320
4599,32384
4600,32576
4601,32704
4602,32960
4603,33088
4604,33152
4605,33344
4606,33472
4607,33472
4608,33408
4609,33472
4610,33600
4611,33600
4612,33664
4613,33728
4614,33728
4615,33728
4616,33728
4617,33856
4618,33984
4619,33920
4620,33856
4621,33792
4622,33856
4623,33920
4624,33984
4625,34048
4626,34112
4627,34240
4628,34368
4629,34368
4630,34368
4631,34368
4632,34432
4633,34560
4634,34752
4635,34880
4636,34944
4637,34880
4638,34816
4639,34880
4640,34944
4641,35008
4642,35072
4643,35072
4644,34944
4645,34816
4646,34752
4647,34688
4648,34624
4649,34496
4650,34496
4651,34496
4652,34560
4653,34560
4654,34560
4655,34432
4656,34368
4657,34496
4658,34688
4659,34816
4660,34880
4661,34816
4662,34816
4663,34752
4664,34688
4665,34560
4666,34432
4667,34368
4668,34368
4669,34240
4670,34112
4671,33920
4672,33984
4673,34048
4674,34112
4675,34048
4676,34112
4677,34176
4678,34368
4679,34624
4680,34880
4681,35072
4682,35072
4683,35072
4684,35072
4685,35072
4686,35008
4687,35072
4688,35136
4689,35200
4690,35136
4691,35008
4692,34816
4693,34560
4694,34240
4695,33856
4696,33472
4697,33088
4698,32768
4699,32576
4700,32512
4701,32576
4702,32640
4703,32704
4704,32704
4705,32768
4706,32832
4707,33024
4708,33216
4709,33344
4710,33344
4711,33280
4712,33024
4713,32768
4714,32768
4715,33088
4716,33792
4717,35200
4718,37440
4719,40320
4720,44608
4721,46848
4722,48960
4723,48704
4724,45568
4725,40704
4726,35584
4727,31424
4728,28864
4729,27776
4730,27712
4731,28160
4732,28736
4733,29312
4734,29952
4735,30528
4736,30848
4737,31104
4738,31296
4739,31488
4740,31680
4741,32000
4742,32320
4743,32576
4744,32704
4745,32768
4746,32960
4747,33088
4748,33216
4749,33280
4750,33344
4751,33408
4752,33408
4753,33408
4754,33408
4755,33472
4756,33472
4757,33472
4758,33536
4759,33536
4760,33472
4761,33472
4762,33536
4763,33664
4764,33856
4765,33920
4766,33920
4767,33856
4768,33856
4769,33920
4770,33984
4771,33984
4772,33984
4773,34048
4774,34048
4775,34112
4776,34240
4777,34304
4778,34368
4779,34304
4780,34432
4781,34432
4782,34496
4783,34624
4784,34816
4785,34816
4786,34624
4787,34496
4788,34432
4789,34432
4790,34368
4791,34304
4792,34240
4793,34176
4794,34112
4795,33984
4796,33984
4797,34176
4798,34304
4799,34304
4800,34304
4801,34240
4802,34176
4803,34240
4804,34240
4805,34304
4806,34368
4807,34368
4808,34368
4809,34240
4810,34112
4811,33920
4812,33856
4813,33792
4814,33728
4815,33664
4816,33664
4817,33664
4818,33728
4819,33664
4820,33600
4821,33728
4822,33984
4823,34176
4824,34368
4825,34496
4826,34560
4827,34560
4828,34560
4829,34560
4830,34560
4831,34624
4832,34816
4833,35008
4834,35136
4835,35136
4836,35008
4837,34752
4838,34560
4839,34176
4840,33536
4841,33152
4842,32768
4843,32512
4844,32256
4845,32000
4846,31936
4847,32000
4848,32128
4849,32192
4850,32320
4851,32448
4852,32576
4853,32704
4854,32896
4855,33152
4856,33152
4857,33024
4858,32768
4859,32704
4860,32896
4861,33536
4862,34880
4863,36992
4864,39872
4865,43136
4866,46336
4867,48320
4868,48064
4869,45056
4870,40064
4871,35584
4872,31488
4873,28736
4874,27328
4875,27072
4876,27584
4877,28352
4878,29184
4879,29632
4880,30144
4881,30592
4882,30912
4883,31232
4884,31552
4885,31936
4886,32064
4887,32256
4888,32384
4889,32448
4890,32448
4891,32576
4892,32768
4893,32960
4894,33024
4895,33088
4896,33152
4897,33216
4898,33216
4899,33216
4900,33216
4901,33216
4902,33280
4903,33344
4904,33472
4905,33536
4906,33600
4907,33536
4908,33600
4909,33664
4910,33728
4911,33664
4912,33728
4913,33728
4914,33728
4915,33728
4916,33728
4917,33728
4918,33792
4919,33856
4920,33856
4921,33920
4922,34048
4923,34176
4924,34240
4925,34304
4926,34496
4927,34688
4928,34688
4929,34624
4930,34560
4931,34496
4932,34432
4933,34432
4934,34496
4935,34496
4936,34368
4937,34240
4938,34240
4939,34304
4940,34304
4941,34304
4942,34304
4943,34368
4944,34368
4945,34368
4946,34432
4947,34432
4948,34432
4949,34368
4950,34368
4951,34432
4952,34496
4953,34496
4954,34496
4955,34496
4956,34496
4957,34432
4958,34432
4959,34496
4960,34368
4961,34304
4962,34304
4963,34304
4964,34368
4965,34496
4966,34688
4967,34880
4968,34944
4969,34944
4970,34880
4971,34816
4972,35008
4973,35200
4974,35328
4975,35392
4976,35392
4977,35264
4978,35072
4979,34816
4980,34624
4981,34304
4982,33792
4983,33344
4984,33024
4985,32768
4986,32512
4987,32384
4988,32384
4989,32512
4990,32768
4991,32768
4992,32896
4993,33024
4994,33088
4995,33088
4996,33152
4997,33216
4998,33216
4999,33024
5000,32768
5001,32832
5002,33088
5003,33920
5004,35520
5005,38080
5006,41088
5007,44544
5008,47488
5009,48768
5010,47680
5011,43968
5012,38912
5013,34048
5014,30592
5015,28416
5016,27584
5017,27648
5018,28224
5019,28992
5020,30016
5021,30336
5022,30848
5023,31232
5024,31488
5025,31680
5026,31872
5027,32128
5028,32320
5029,32576
5030,32832
5031,33024
5032,33024
5033,32960
5034,33152
5035,33344
5036,33280
5037,33280
5038,33344
5039,33536
5040,33600
5041,33664
5042,33664
5043,33792
5044,33856
5045,33792
5046,33728
5047,33728
5048,33728
5049,33728
5050,33728
5051,33728
5052,33728
5053,33664
5054,33728
5055,33920
5056,34112
5057,34176
5058,34176
5059,34240
5060,34240
5061,34240
5062,34304
5063,34496
5064,34624
5065,34624
5066,34624
5067,34688
5068,34816
5069,34944
5070,34944
5071,34880
5072,34816
5073,34880
5074,34880
5075,34752
5076,34624
5077,34432
5078,34368
5079,34304
5080,34304
5081,34304
5082,34432
5083,34432
5084,34496
5085,34496
5086,34496
5087,34496
5088,34624
5089,34688
5090,34624
5091,34560
5092,34560
5093,34560
5094,34560
5095,34496
5096,34368
5097,34240
5098,34176
5099,34240
5100,34304
5101,34304
5102,34240
5103,34112
5104,33984
5105,33984
5106,34112
5107,34432
5108,34752
5109,34944
5110,35136
5111,35072
5112,34944
5113,34880
5114,34816
5115,34816
5116,34944
5117,35072
5118,35200
5119,35136
5120,35008
5121,34944
5122,34816
5123,34560
5124,34048
5125,33536
5126,33088
5127,32768
5128,32576
5129,32384
5130,32256
5131,32256
5132,32384
5133,32576
5134,32768
5135,32832
5136,32832
5137,32896
5138,33024
5139,33216
5140,33024
5141,32832
5142,32576
5143,32576
5144,32960
5145,33728
5146,35136
5147,37440
5148,40384
5149,43776
5150,47040
5151,49344
5152,49344
5153,46272
5154,41088
5155,35648
5156,31296
5157,28608
5158,27520
5159,27392
5160,27904
5161,28544
5162,29056
5163,29696
5164,30400
5165,31040
5166,31360
5167,31552
5168,31680
5169,31744
5170,31808
5171,32064
5172,32320
5173,32448
5174,32576
5175,32704
5176,32960
5177,33088
5178,33088
5179,33152
5180,33216
5181,33216
5182,33344
5183,33472
5184,33600
5185,33728
5186,33792
5187,33728
5188,33792
5189,33792
5190,33728
5191,33728
5192,33920
5193,34112
5194,34176
5195,34048
5196,33984
5197,33984
5198,34048
5199,34048
5200,34112
5201,34112
5202,34176
5203,34240
5204,34432
5205,34560
5206,34624
5207,34752
5208,34880
5209,35008
5210,35136
5211,35200
5212,35264
5213,35200
5214,35008
5215,34816
5216,34688
5217,34624
5218,34624
5219,34688
5220,34624
5221,34432
5222,34432
5223,34368
5224,34368
5225,34496
5226,34688
5227,34816
5228,34752
5229,34688
5230,34752
5231,34816
5232,34880
5233,34880
5234,34752
5235,34560
5236,34496
5237,34496
5238,34496
5239,34432
5240,34304
5241,34304
5242,34304
5243,34304
5244,34240
5245,34240
5246,34112
5247,34240
5248,34304
5249,34368
5250,34496
5251,34752
5252,34880
5253,34880
5254,34880
5255,35008
5256,35136
5257,35136
5258,35136
5259,35008
5260,35008
5261,35008
5262,35072
5263,35008
5264,34944
5265,34688
5266,34304
5267,33920
5268,33472
5269,33088
5270,32768
5271,32448
5272,32320
5273,32256
5274,32256
5275,32320
5276,32448
5277,32576
5278,32576
5279,32576
5280,32512
5281,32512
5282,32576
5283,32576
5284,32576
5285,32448
5286,32256
5287,32192
5288,32640
5289,33664
5290,35392
5291,37952
5292,41216
5293,44736
5294,48000
5295,49600
5296,48384
5297,44288
5298,38528
5299,33600
5300,29760
5301,27712
5302,27008
5303,27136
5304,27712
5305,28416
5306,29184
5307,29696
5308,30144
5309,30592
5310,30912
5311,31104
5312,31232
5313,31424
5314,31744
5315,32064
5316,32256
5317,32320
5318,32448
5319,32576
5320,32704
5321,32832
5322,33024
5323,33280
5324,33344
5325,33344
5326,33280
5327,33280
5328,33280
5329,33344
5330,33408
5331,33408
5332,33408
5333,33344
5334,33408
5335,33600
5336,33600
5337,33664
5338,33728
5339,33856
5340,33920
5341,33920
5342,33984
5343,34048
5344,33984
5345,33920
5346,34048
5347,34240
5348,34368
5349,34304
5350,34368
5351,34432
5352,34624
5353,34688
5354,34816
5355,34880
5356,34880
5357,34816
5358,34624
5359,34624
5360,34624
5361,34688
5362,34624
5363,34560
5364,34368
5365,34240
5366,34240
5367,34240
5368,34176
5369,34304
5370,34496
5371,34688
5372,34752
5373,34816
5374,34880
5375,34816
5376,34752
5377,34688
5378,34496
5379,34432
5380,34432
5381,34432
5382,34368
5383,34304
5384,34240
5385,34304
5386,34368
5387,34304
5388,34240
5389,34240
5390,34240
5391,34176
5392,34176
5393,34176
5394,34304
5395,34432
5396,34624
5397,34944
5398,35072
5399,34944
5400,34816
5401,34816
5402,34880
5403,34880
5404,34944
5405,35072
5406,35200
5407,35200
5408,35264
5409,35200
5410,35008
5411,34624
5412,34176
5413,33664
5414,33280
5415,32960
5416,32640
5417,32448
5418,32320
5419,32320
5420,32448
5421,32576
5422,32640
5423,32704
5424,32832
5425,32960
5426,33024
5427,33088
5428,33088
5429,33088
5430,32896
5431,32832
5432,33024
5433,33536
5434,34560
5435,36544
5436,39232
5437,42432
5438,45824
5439,48512
5440,49216
5441,46848
5442,42368
5443,37120
5444,32448
5445,29248
5446,27584
5447,27200
5448,27584
5449,28224
5450,28928
5451,29632
5452,30144
5453,30464
5454,30784
5455,31168
5456,31552
5457,31808
5458,32064
5459,32256
5460,32448
5461,32512
5462,32576
5463,32640
5464,32768
5465,32832
5466,32896
5467,32960
5468,33024
5469,33152
5470,33152
5471,33216
5472,33280
5473,33280
5474,33280
5475,33280
5476,33344
5477,33344
5478,33280
5479,33280
5480,33408
5481,33536
5482,33600
5483,33536
5484,33600
5485,33664
5486,33664
5487,33664
5488,33600
5489,33600
5490,33664
5491,33728
5492,33792
5493,33920
5494,33984
5495,34048
5496,34112
5497,34240
5498,34304
5499,34304
5500,34176
5501,34176
5502,34240
5503,34240
5504,34240
5505,34176
5506,34048
5507,33920
5508,33728
5509,33600
5510,33600
5511,33664
5512,33728
5513,33792
5514,33792
5515,33728
5516,33728
5517,33664
5518,33472
5519,33472
5520,33472
5521,33408
5522,33344
5523,33280
5524,33280
5525,33408
5526,33536
5527,33472
5528,33408
5529,33280
5530,33216
5531,33088
5532,32960
5533,32896
5534,32832
5535,32832
5536,32896
5537,33152
5538,33152
5539,33664
5540,33600
5541,33536
5542,33600
5543,33664
5544,33664
5545,33664
5546,33728
5547,33792
5548,33728
5549,33728
5550,33728
5551,33536
5552,33216
5553,32832
5554,32384
5555,31936
5556,31488
5557,31232
5558,31168
5559,31104
5560,31104
5561,31104
5562,31168
5563,31296
5564,31360
5565,31360
5566,31360
5567,31424
5568,31488
5569,31552
5570,31552
5571,31360
5572,31168
5573,31168
5574,31488
5575,32448
5576,34176
5577,36736
5578,39872
5579,43200
5580,46080
5581,47296
5582,45824
5583,45184
5584,37120
5585,32256
5586,28672
5587,26688
5588,26048
5589,26112
5590,26752
5591,26880
5592,28096
5593,28736
5594,29184
5595,29568
5596,29888
5597,30208
5598,30208
5599,30528
5600,30720
5601,30976
5602,31104
5603,31232
5604,31360
5605,31424
5606,31488
5607,31616
5608,31744
5609,31872
5610,32000
5611,32000
5612,32000
5613,32064
5614,32128
5615,32064
5616,32128
5617,32128
5618,32192
5619,32256
5620,32320
5621,32384
5622,32448
5623,32448
5624,32512
5625,32576
5626,32704
5627,32704
5628,32704
5629,32640
5630,32640
5631,32640
5632,32640
5633,32768
5634,32896
5635,32960
5636,33024
5637,33152
5638,33408
5639,33536
5640,33600
5641,33664
5642,33792
5643,33920
5644,33920
5645,33792
5646,33664
5647,33600
5648,33472
5649,33408
5650,33408
5651,33344
5652,33408
5653,33536
5654,33600
5655,33600
5656,33600
5657,33664
5658,33792
5659,34048
5660,34304
5661,34496
5662,34432
5663,34240
5664,34048
5665,33984
5666,34048
5667,34304
5668,34112
5669,33728
5670,33792
5671,34048
5672,33856
5673,33472
5674,33600
5675,34240
5676,34560
5677,34368
5678,34176
5679,33920
5680,33728
5681,33728
5682,33664
5683,33792
5684,34176
5685,34688
5686,35136
5687,35200
5688,35008
5689,34944
5690,34944
5691,34880
5692,34752
5693,34496
5694,33920
5695,33280
5696,32896
5697,32576
5698,32320
5699,32192
5700,32256
5701,32384
5702,32576
5703,32768
5704,32960
5705,33152
5706,33344
5707,33536
5708,33728
5709,33856
5710,33984
5711,33984
5712,33664
5713,33216
5714,33024
5715,33280
5716,34176
5717,35776
5718,38016
5719,40960
5720,44224
5721,47296
5722,48960
5723,48320
5724,45184
5725,40576
5726,36032
5727,32384
5728,29952
5729,29056
5730,28992
5731,29440
5732,30144
5733,30912
5734,31616
5735,32128
5736,32512
5737,32768
5738,33024
5739,33280
5740,33472
5741,33728
5742,34240
5743,34688
5744,34816
5745,34816
5746,35008
5747,35200
5748,34944
5749,34752
5750,35008
5751,35392
5752,35200
5753,34944
5754,34752
5755,34944
5756,35264
5757,35392
5758,35264
5759,35136
5760,35136
5761,35136
5762,35264
5763,35392
5764,35584
5765,35584
5766,35520
5767,35584
5768,35712
5769,35840
5770,35968
5771,35968
5772,36032
5773,36032
5774,36096
5775,36288
5776,36416
5777,36480
5778,36672
5779,36864
5780,37056
5781,37248
5782,37312
5783,37312
5784,37248
5785,37120
5786,36928
5787,36800
5788,36736
5789,36608
5790,36544
5791,36544
5792,36544
5793,36608
5794,36672
5795,36736
5796,36864
5797,36992
5798,36992
5799,37056
5800,37056
5801,36928
5802,36608
5803,36416
5804,36352
5805,36480
5806,36544
5807,36672
5808,36672
5809,36544
5810,36352
5811,36160
5812,35968
5813,35968
5814,36032
5815,36160
5816,36544
5817,37056
5818,37440
5819,37376
5820,37184
5821,36992
5822,36864
5823,36736
5824,36736
5825,36928
5826,37184
5827,37248
5828,37120
5829,36992
5830,36864
5831,36544
5832,36096
5833,35584
5834,35136
5835,34624
5836,34240
5837,33984
5838,33920
5839,33920
5840,33984
5841,34176
5842,34240
5843,34176
5844,34048
5845,34112
5846,34240
5847,34304
5848,34368
5849,34304
5850,34176
5851,33920
5852,33728
5853,33792
5854,34368
5855,35712
5856,37952
5857,40896
5858,44224
5859,47424
5860,49344
5861,48960
5862,45952
5863,41344
5864,36480
5865,32512
5866,30080
5867,29120
5868,29184
5869,29696
5870,30400
5871,31104
5872,31808
5873,32256
5874,32576
5875,32832
5876,33024
5877,33152
5878,33280
5879,33472
5880,33728
5881,33856
5882,33984
5883,34112
5884,34240
5885,34304
5886,34368
5887,34432
5888,34560
5889,34624
5890,34688
5891,34816
5892,34880
5893,34880
5894,34944
5895,34944
5896,35072
5897,35136
5898,35200
5899,35200
5900,35200
5901,35264
5902,35264
5903,35264
5904,35200
5905,35200
5906,35264
5907,35264
5908,35392
5909,35456
5910,35520
5911,35584
5912,35584
5913,35648
5914,35776
5915,35904
5916,35968
5917,36096
5918,36160
5919,36160
5920,36160
5921,36160
5922,36224
5923,36224
5924,36224
5925,36288
5926,36224
5927,36160
5928,36096
5929,36032
5930,36032
5931,36032
5932,35968
5933,35904
5934,35840
5935,35776
5936,35712
5937,35712
5938,35712
5939,35648
5940,35648
5941,35584
5942,35520
5943,35520
5944,35456
5945,35456
5946,35456
5947,35456
5948,35392
5949,35328
5950,35264
5951,35264
5952,35392
5953,35584
5954,35648
5955,35712
5956,35712
5957,35648
5958,35648
5959,35648
5960,35712
5961,35776
5962,35840
5963,35904
5964,35840
5965,35776
5966,35520
5967,35328
5968,35008
5969,34560
5970,34176
5971,33856
5972,33536
5973,33344
5974,33216
5975,33216
5976,33216
5977,33280
5978,33344
5979,33408
5980,33536
5981,33600
5982,33664
5983,33792
5984,33856
5985,33856
5986,33600
5987,33408
5988,33344
5989,33664
5990,34496
5991,36096
5992,38528
5993,41600
5994,44864
5995,47616
5996,48832
5997,47680
5998,44096
5999,39232
6000,34496
6001,30848
6002,28672
6003,27904
6004,27968
6005,28480
6006,29184
6007,29760
6008,30336
6009,30848
6010,31232
6011,31552
6012,31808
6013,32128
6014,32320
6015,32448
6016,32512
6017,32704
6018,32832
6019,32896
6020,33024
6021,33152
6022,33280
6023,33344
6024,33472
6025,33536
6026,33600
6027,33600
6028,33664
6029,33664
6030,33728
6031,33728
6032,33728
6033,33792
6034,33856
6035,33920
6036,33920
6037,33984
6038,34048
6039,34048
6040,34048
6041,34048
6042,34112
6043,34176
6044,34176
6045,34176
6046,34240
6047,34240
6048,34240
6049,34304
6050,34368
6051,34496
6052,34560
6053,34688
6054,34752
6055,34816
6056,34880
6057,34816
6058,34816
6059,34816
6060,34752
6061,34624
6062,34560
6063,34496
6064,34496
6065,34432
6066,34432
6067,34496
6068,34496
6069,34496
6070,34432
6071,34496
6072,34560
6073,34560
6074,34560
6075,34560
6076,34560
6077,34496
6078,34496
6079,34496
6080,34496
6081,34432
6082,34368
6083,34304
6084,34368
6085,34432
6086,34560
6087,34688
6088,34816
6089,34752
6090,34688
6091,34688
6092,34624
6093,34688
6094,34752
6095,34880
6096,34944
6097,35008
6098,34944
6099,34816
6100,34560
6101,34304
6102,33920
6103,33536
6104,33088
6105,32768
6106,32512
6107,32256
6108,32192
6109,32192
6110,32256
6111,32256
6112,32256
6113,32320
6114,32448
6115,32512
6116,32576
6117,32640
6118,32640
6119,32512
6120,32256
6121,32064
6122,32192
6123,32640
6124,33664
6125,35648
6126,38464
6127,41728
6128,44992
6129,47360
6130,47872
6131,45824
6132,41600
6133,36736
6134,32320
6135,29248
6136,27648
6137,27200
6138,27584
6139,28288
6140,28992
6141,29632
6142,30208
6143,30656
6144,30976
6145,31296
6146,31552
6147,31808
6148,32000
6149,32128
6150,32256
6151,32384
6152,32512
6153,32576
6154,32704
6155,32768
6156,32832
6157,32896
6158,32960
6159,33088
6160,33216
6161,33216
6162,33280
6163,33344
6164,33408
6165,33408
6166,33408
6167,33472
6168,33472
6169,33536
6170,33600
6171,33664
6172,33664
6173,33664
6174,33664
6175,33664
6176,33728
6177,33728
6178,33728
6179,33728
6180,33792
6181,33856
6182,33920
6183,33984
6184,34112
6185,34240
6186,34368
6187,34432
6188,34560
6189,34624
6190,34624
6191,34560
6192,34560
6193,34432
6194,34368
6195,34304
6196,34240
6197,34176
6198,34112
6199,34112
6200,34112
6201,34112
6202,34112
6203,34112
6204,34112
6205,34176
6206,34176
6207,34240
6208,34304
6209,34368
6210,34368
6211,34368
6212,34368
6213,34304
6214,34304
6215,34304
6216,34368
6217,34560
6218,34752
6219,34880
6220,34880
6221,34880
6222,34880
6223,34816
6224,34752
6225,34816
6226,34880
6227,35008
6228,35008
6229,35008
6230,34944
6231,34752
6232,34496
6233,34176
6234,33792
6235,33344
6236,32960
6237,32576
6238,32384
6239,32256
6240,32192
6241,32128
6242,32192
6243,32256
6244,32320
6245,32448
6246,32576
6247,32704
6248,32768
6249,32832
6250,32704
6251,32384
6252,32000
6253,31744
6254,31936
6255,32704
6256,34240
6257,36736
6258,39872
6259,43264
6260,46336
6261,47872
6262,47168
6263,43904
6264,39040
6265,34176
6266,30336
6267,28096
6268,27264
6269,27392
6270,27904
6271,28608
6272,29248
6273,29760
6274,30208
6275,30592
6276,30976
6277,31232
6278,31424
6279,31616
6280,31872
6281,32000
6282,32192
6283,32320
6284,32384
6285,32512
6286,32512
6287,32576
6288,32640
6289,32768
6290,32832
6291,32896
6292,32960
6293,33024
6294,33024
6295,33024
6296,33088
6297,33088
6298,33088
6299,33088
6300,33152
6301,33280
6302,33280
6303,33344
6304,33408
6305,33472
6306,33472
6307,33472
6308,33472
6309,33536
6310,33600
6311,33600
6312,33664
6313,33728
6314,33856
6315,33984
6316,34112
6317,34240
6318,34368
6319,34432
6320,34432
6321,34496
6322,34496
6323,34496
6324,34432
6325,34304
6326,34304
6327,34176
6328,34112
6329,34112
6330,34112
6331,34112
6332,34112
6333,34112
6334,34112
6335,34176
6336,34176
6337,34176
6338,34240
6339,34240
6340,34240
6341,34240
6342,34240
6343,34240
6344,34176
6345,34176
6346,34240
6347,34368
6348,34560
6349,34752
6350,34816
6351,34880
6352,34816
6353,34752
6354,34752
6355,34752
6356,34816
6357,34880
6358,34944
6359,34944
6360,34816
6361,34624
6362,34432
6363,34176
6364,33856
6365,33344
6366,32896
6367,32512
6368,32256
6369,32064
6370,31936
6371,32000
6372,32064
6373,32128
6374,32192
6375,32256
6376,32384
6377,32512
6378,32512
6379,32512
6380,32512
6381,32320
6382,31936
6383,31680
6384,31616
6385,32128
6386,33088
6387,35200
6388,38080
6389,41472
6390,44992
6391,47616
6392,48384
6393,46336
6394,41856
6395,36544
6396,32000
6397,28992
6398,27584
6399,27264
6400,27648
6401,28224
6402,28864
6403,29440
6404,29952
6405,30464
6406,30848
6407,31168
6408,31424
6409,31680
6410,31808
6411,31936
6412,32064
6413,32192
6414,32384
6415,32512
6416,32576
6417,32704
6418,32832
6419,32896
6420,32960
6421,33024
6422,33088
6423,33152
6424,33152
6425,33152
6426,33216
6427,33216
6428,33216
6429,33216
6430,33280
6431,33344
6432,33344
6433,33344
6434,33408
6435,33472
6436,33472
6437,33472
6438,33472
6439,33536
6440,33600
6441,33600
6442,33728
6443,33856
6444,33920
6445,34048
6446,34112
6447,34304
6448,34432
6449,34496
6450,34560
6451,34624
6452,34624
6453,34560
6454,34560
6455,34560
6456,34496
6457,34368
6458,34304
6459,34240
6460,34176
6461,34112
6462,34048
6463,34112
6464,34112
6465,34112
6466,34176
6467,34240
6468,34240
6469,34240
6470,34240
6471,34240
6472,34304
6473,34240
6474,34240
6475,34304
6476,34432
6477,34624
6478,34880
6479,35008
6480,35008
6481,34944
6482,34944
6483,34944
6484,35008
6485,35008
6486,35072
6487,35136
6488,35136
6489,35072
6490,34816
6491,34624
6492,34432
6493,34176
6494,33792
6495,33408
6496,33024
6497,32704
6498,32448
6499,32320
6500,32192
6501,32192
6502,32192
6503,32256
6504,32320
6505,32448
6506,32512
6507,32576
6508,32704
6509,32768
6510,32704
6511,32320
6512,32000
6513,31872
6514,32064
6515,32896
6516,34624
6517,37312
6518,40576
6519,44096
6520,47040
6521,48384
6522,47104
6523,43200
6524,38016
6525,33280
6526,29824
6527,27968
6528,27456
6529,27712
6530,28352
6531,28992
6532,29568
6533,30080
6534,30528
6535,30848
6536,31104
6537,31360
6538,31616
6539,31872
6540,32064
6541,32192
6542,32320
6543,32512
6544,32576
6545,32640
6546,32704
6547,32768
6548,32832
6549,32832
6550,32960
6551,33088
6552,33152
6553,33216
6554,33280
6555,33344
6556,33408
6557,33472
6558,33472
6559,33472
6560,33408
6561,33408
6562,33408
6563,33472
6564,33472
6565,33536
6566,33536
6567,33600
6568,33664
6569,33664
6570,33728
6571,33792
6572,33920
6573,33984
6574,34112
6575,34240
6576,34432
6577,34560
6578,34624
6579,34688
6580,34816
6581,34816
6582,34752
6583,34688
6584,34688
6585,34624
6586,34560
6587,34496
6588,34432
6589,34368
6590,34240
6591,34240
6592,34304
6593,34304
6594,34368
6595,34368
6596,34432
6597,34496
6598,34496
6599,34496
6600,34496
6601,34496
6602,34432
6603,34368
6604,34432
6605,34496
6606,34624
6607,34816
6608,34944
6609,35008
6610,35008
6611,34944
6612,34944
6613,34944
6614,34944
6615,34944
6616,34944
6617,35008
6618,34944
6619,34816
6620,34688
6621,34496
6622,34240
6623,33856
6624,33408
6625,33024
6626,32704
6627,32448
6628,32320
6629,32320
6630,32320
6631,32320
6632,32384
6633,32448
6634,32512
6635,32640
6636,32704
6637,32832
6638,32896
6639,32768
6640,32384
6641,32192
6642,32192
6643,32512
6644,33536
6645,35456
6646,38208
6647,41792
6648,45056
6649,47680
6650,48448
6651,46528
6652,42240
6653,37120
6654,32576
6655,28800
6656,27776
6657,27520
6658,27904
6659,28544
6660,29248
6661,29824
6662,30336
6663,30720
6664,31104
6665,31360
6666,31552
6667,31808
6668,32064
6669,32192
6670,32448
6671,32512
6672,32640
6673,32768
6674,32832
6675,32960
6676,33088
6677,33152
6678,33152
6679,33216
6680,33280
6681,33344
6682,33344
6683,33344
6684,33408
6685,33472
6686,33536
6687,33536
6688,33600
6689,33600
6690,33600
6691,33536
6692,33600
6693,33664
6694,33600
6695,33600
6696,33664
6697,33728
6698,33728
6699,33792
6700,33920
6701,33984
6702,34048
6703,34176
6704,34304
6705,34432
6706,34560
6707,34688
6708,34752
6709,34880
6710,34944
6711,34944
6712,34880
6713,34816
6714,34752
6715,34624
6716,34560
6717,34560
6718,34496
6719,34496
6720,34432
6721,34496
6722,34496
6723,34496
6724,34496
6725,34496
6726,34496
6727,34496
6728,34496
6729,34432
6730,34432
6731,34432
6732,34368
6733,34304
6734,34304
6735,34304
6736,34240
6737,34304
6738,34496
6739,34624
6740,34624
6741,34624
6742,34624
6743,34624
6744,34624
6745,34624
6746,34624
6747,34688
6748,34688
6749,34624
6750,34560
6751,34432
6752,34240
6753,33984
6754,33664
6755,33280
6756,32832
6757,32448
6758,32192
6759,32064
6760,32000
6761,32000
6762,32000
6763,32064
6764,32128
6765,32256
6766,32320
6767,32448
6768,32512
6769,32512
6770,32320
6771,32128
6772,32000
6773,32000
6774,32448
6775,33984
6776,35456
6777,38016
6778,41216
6779,44608
6780,47168
6781,47872
6782,45888
6783,41600
6784,36544
6785,32000
6786,28864
6787,27264
6788,27008
6789,27328
6790,27968
6791,28672
6792,29312
6793,29824
6794,30208
6795,30592
6796,30912
6797,31232
6798,31424
6799,31552
6800,31744
6801,31936
6802,32064
6803,32256
6804,32384
6805,32512
6806,32576
6807,32640
6808,32704
6809,32768
6810,32832
6811,32896
6812,32960
6813,33024
6814,33088
6815,33152
6816,33216
6817,33280
6818,33344
6819,33344
6820,33344
6821,33344
6822,33408
6823,33408
6824,33408
6825,33472
6826,33472
6827,33472
6828,33472
6829,33536
6830,33600
6831,33600
6832,33664
6833,33728
6834,33920
6835,34048
6836,34176
6837,34304
6838,34496
6839,34560
6840,34624
6841,34624
6842,34624
6843,34624
6844,34560
6845,34432
6846,34432
6847,34368
6848,34304
6849,34240
6850,34176
6851,34176
6852,34176
6853,34176
6854,34176
6855,34304
6856,34304
6857,34304
6858,34304
6859,34304
6860,34304
6861,34304
6862,34240
6863,34240
6864,34240
6865,34112
6866,34048
6867,34048
6868,34112
6869,34112
6870,34112
6871,34304
6872,34560
6873,34624
6874,34624
6875,34560
6876,34560
6877,34560
6878,34560
6879,34688
6880,34880
6881,34880
6882,34880
6883,34816
6884,34688
6885,34496
6886,34304
6887,33984
6888,33600
6889,33152
6890,32768
6891,32384
6892,32192
6893,32128
6894,32064
6895,32128
6896,32192
6897,32256
6898,32320
6899,32384
6900,32512
6901,32640
6902,32768
6903,32704
6904,32576
6905,32256
6906,32064
6907,32128
6908,32704
6909,33920
6910,36864
6911,38848
6912,42112
6913,45376
6914,47552
6915,47744
6916,45312
6917,40384
6918,35456
6919,31936
6920,29056
6921,27648
6922,27392
6923,27776
6924,28416
6925,29440
6926,29824
6927,30336
6928,30720
6929,31040
6930,31360
6931,31680
6932,31872
6933,32064
6934,32256
6935,32448
6936,32576
6937,32704
6938,32832
6939,32896
6940,32960
6941,33024
6942,33152
6943,33216
6944,33216
6945,33280
6946,33344
6947,33408
6948,33472
6949,33472
6950,33472
6951,33536
6952,33536
6953,33536
6954,33600
6955,33664
6956,33664
6957,33664
6958,33728
6959,33792
6960,33856
6961,33856
6962,33856
6963,33920
6964,33984
6965,34048
6966,34112
6967,34176
6968,34368
6969,34432
6970,34624
6971,34752
6972,34880
6973,34944
6974,35008
6975,35072
6976,35072
6977,35072
6978,34944
6979,34944
6980,34880
6981,34816
6982,34752
6983,34688
6984,34688
6985,34688
6986,34624
6987,34624
6988,34688
6989,34752
6990,34752
6991,34752
6992,34816
6993,34816
6994,34816
6995,34816
6996,34816
6997,34816
6998,34816
6999,34816
7000,34816
7001,34816
7002,34880
7003,35008
7004,35200
7005,35392
7006,35392
7007,35328
7008,35264
7009,35264
7010,35264
7011,35264
7012,35328
7013,35392
7014,35456
7015,35328
7016,35200
7017,35072
7018,34880
7019,34560
7020,34176
7021,33792
7022,33408
7023,33024
7024,32832
7025,32704
7026,32640
7027,32640
7028,32640
7029,32704
7030,32832
7031,32832
7032,32960
7033,33088
7034,33152
7035,33216
7036,33088
7037,32768
7038,32448
7039,32384
7040,32704
7041,33664
7042,35520
7043,38144
7044,41408
7045,45056
7046,47552
7047,48640
7048,47104
7049,43072
7050,38016
7051,33408
7052,30080
7053,28224
7054,27776
7055,28032
7056,28672
7057,29312
7058,29888
7059,30400
7060,30912
7061,31232
7062,31552
7063,31808
7064,32064
7065,32256
7066,32448
7067,32640
7068,32768
7069,32896
7070,32960
7071,33024
7072,33088
7073,33152
7074,33216
7075,33408
7076,33408
7077,33472
7078,33536
7079,33536
7080,33600
7081,33664
7082,33664
7083,33664
7084,33664
7085,33664
7086,33664
7087,33728
7088,33728
7089,33728
7090,33728
7091,33728
7092,33792
7093,33856
7094,33856
7095,33920
7096,33920
7097,34048
7098,34112
7099,34176
7100,34368
7101,34496
7102,34624
7103,34688
7104,34816
7105,34944
7106,35008
7107,35072
7108,35072
7109,35072
7110,35008
7111,34880
7112,34816
7113,34752
7114,34688
7115,34624
7116,34560
7117,34560
7118,34624
7119,34624
7120,34624
7121,34688
7122,34752
7123,34752
7124,34752
7125,34816
7126,34816
7127,34816
7128,34752
7129,34752
7130,34752
7131,34752
7132,34624
7133,34560
7134,34560
7135,34496
7136,34496
7137,34496
7138,34688
7139,34944
7140,35072
7141,35136
7142,35072
7143,35072
7144,35072
7145,35008
7146,35072
7147,35200
7148,35264
7149,35264
7150,35200
7151,35072
7152,34880
7153,34688
7154,34368
7155,33984
7156,33600
7157,33216
7158,32896
7159,32704
7160,32576
7161,32512
7162,32512
7163,32512
7164,32576
7165,32704
7166,32768
7167,32896
7168,33024
7169,33088
7170,33088
7171,32960
7172,32704
7173,32512
7174,32640
7175,33216
7176,34432
7177,36480
7178,39296
7179,42624
7180,46080
7181,48640
7182,49024
7183,46592
7184,41920
7185,36608
7186,32064
7187,29184
7188,27840
7189,27648
7190,28032
7191,28672
7192,29312
7193,29952
7194,30464
7195,30848
7196,31168
7197,31488
7198,31744
7199,31936
7200,32128
7201,32384
7202,32576
7203,32640
7204,32768
7205,32896
7206,32960
7207,33024
7208,33088
7209,33152
7210,33280
7211,33344
7212,33344
7213,33408
7214,33472
7215,33472
7216,33536
7217,33664
7218,33728
7219,33728
7220,33792
7221,33792
7222,33856
7223,33792
7224,33792
7225,33856
7226,33920
7227,33920
7228,33984
7229,34112
7230,34176
7231,34240
7232,34304
7233,34368
7234,34432
7235,34560
7236,34688
7237,34816
7238,34944
7239,35072
7240,35136
7241,35200
7242,35200
7243,35200
7244,35136
7245,35136
7246,35072
7247,35008
7248,34880
7249,34816
7250,34752
7251,34752
7252,34688
7253,34688
7254,34688
7255,34688
7256,34752
7257,34752
7258,34752
7259,34816
7260,34880
7261,34880
7262,34880
7263,34880
7264,34880
7265,34816
7266,34752
7267,34752
7268,34688
7269,34624
7270,34560
7271,34432
7272,34432
7273,34368
7274,34304
7275,34304
7276,34240
7277,34304
7278,34432
7279,34624
7280,34880
7281,34944
7282,34944
7283,34944
7284,35008
7285,34944
7286,34944
7287,35008
7288,35072
7289,35136
7290,35072
7291,35008
7292,34880
7293,34752
7294,34432
7295,34048
7296,33664
7297,33280
7298,32960
7299,32704
7300,32512
7301,32512
7302,32512
7303,32576
7304,32640
7305,32704
7306,32832
7307,32896
7308,32960
7309,33088
7310,33216
7311,33152
7312,32960
7313,32768
7314,32896
7315,33344
7316,34240
7317,35840
7318,38272
7319,41344
7320,44672
7321,47552
7322,48896
7323,47552
7324,43776
7325,38656
7326,33856
7327,30144
7328,28160
7329,27456
7330,27648
7331,28288
7332,28992
7333,29568
7334,30656
7335,31040
7336,31360
7337,31680
7338,31936
7339,32128
7340,32256
7341,32384
7342,32576
7343,32640
7344,32768
7345,32832
7346,32960
7347,33024
7348,33088
7349,33216
7350,33344
7351,33280
7352,33344
7353,33472
7354,33536
7355,33600
7356,33600
7357,33664
7358,33728
7359,33728
7360,33728
7361,33728
7362,33792
7363,33856
7364,33920
7365,33920
7366,33984
7367,33984
7368,34048
7369,34112
7370,34112
7371,34112
7372,34112
7373,34176
7374,34240
7375,34368
7376,34496
7377,34624
7378,34688
7379,34880
7380,34944
7381,35008
7382,35008
7383,35008
7384,35008
7385,34944
7386,34880
7387,34752
7388,34688
7389,34624
7390,34560
7391,34496
7392,34432
7393,34432
7394,34432
7395,34496
7396,34496
7397,34496
7398,34496
7399,34496
7400,34560
7401,34560
7402,34496
7403,34432
7404,34432
7405,34432
7406,34368
7407,34304
7408,34240
7409,34240
7410,34176
7411,34112
7412,34048
7413,34048
7414,33984
7415,33920
7416,33856
7417,33856
7418,33792
7419,33728
7420,33728
7421,33728
7422,33728
7423,33856
7424,33984
7425,34304
7426,34496
7427,34560
7428,34560
7429,34560
7430,34624
7431,34560
7432,34560
7433,34688
7434,34816
7435,34816
7436,34752
7437,34624
7438,34496
7439,34240
7440,33920
7441,33536
7442,33152
7443,32832
7444,32512
7445,32320
7446,32256
7447,32192
7448,32192
7449,32256
7450,32320
7451,32384
7452,32448
7453,32576
7454,32704
7455,32768
7456,32832
7457,32768
7458,32576
7459,32512
7460,32704
7461,33216
7462,34304
7463,36096
7464,38528
7465,41600
7466,44736
7467,47296
7468,48064
7469,46208
7470,42048
7471,37056
7472,32256
7473,29248
7474,27712
7475,27328
7476,27648
7477,28288
7478,28992
7479,29632
7480,30144
7481,30528
7482,30912
7483,31296
7484,31552
7485,31744
7486,31936
7487,32128
7488,32256
7489,32448
7490,32512
7491,32640
7492,32768
7493,32832
7494,32896
7495,33024
7496,33088
7497,33152
7498,33152
7499,33216
7500,33344
7501,33408
7502,33472
7503,33472
7504,33536
7505,33600
7506,33600
7507,33600
7508,33664
7509,33728
7510,33728
7511,33728
7512,33728
7513,33792
7514,33856
7515,33856
7516,33920
7517,33984
7518,33984
7519,33984
7520,34048
7521,34176
7522,34240
7523,34368
7524,34496
7525,34624
7526,34688
7527,34688
7528,34752
7529,34816
7530,34752
7531,34688
7532,34624
7533,34560
7534,34560
7535,34432
7536,34368
7537,34368
7538,34368
7539,34368
7540,34304
7541,34368
7542,34432
7543,34432
7544,34432
7545,34432
7546,34496
7547,34496
7548,34432
7549,34432
7550,34432
7551,34368
7552,34304
7553,34240
7554,34240
7555,34240
7556,34176
7557,34112
7558,34112
7559,34048
7560,33920
7561,33920
7562,33856
7563,33856
7564,33792
7565,33728
7566,33728
7567,33728
7568,33728
7569,33664
7570,33728
7571,33856
7572,34112
7573,34368
7574,34496
7575,34560
7576,34560
7577,34496
7578,34496
7579,34624
7580,34752
7581,34880
7582,34944
7583,35008
7584,34944
7585,34816
7586,34560
7587,34304
7588,33920
7589,33472
7590,33024
7591,32704
7592,32512
7593,32320
7594,32256
7595,32256
7596,32384
7597,32448
7598,32512
7599,32640
7600,32832
7601,32896
7602,32960
7603,33024
7604,33088
7605,32960
7606,32768
7607,32768
7608,33088
7609,33856
7610,35136
7611,37248
7612,39936
7613,42944
7614,45824
7615,47488
7616,47168
7617,44416
7618,40128
7619,35520
7620,31616
7621,28992
7622,27648
7623,27392
7624,27840
7625,28544
7626,29312
7627,29952
7628,30464
7629,30976
7630,31360
7631,31616
7632,31808
7633,32064
7634,32320
7635,32448
7636,32576
7637,32704
7638,32832
7639,32960
7640,33024
7641,33088
7642,33280
7643,33344
7644,33408
7645,33472
7646,33536
7647,33600
7648,33600
7649,33664
7650,33728
7651,33728
7652,33728
7653,33728
7654,33792
7655,33856
7656,33856
7657,33856
7658,33920
7659,33984
7660,33984
7661,34048
7662,34112
7663,34176
7664,34176
7665,34240
7666,34304
7667,34368
7668,34432
7669,34496
7670,34624
7671,34816
7672,34944
7673,35008
7674,35072
7675,35136
7676,35200
7677,35136
7678,35136
7679,35136
7680,35072
7681,35008
7682,34944
7683,34880
7684,34880
7685,34752
7686,34752
7687,34752
7688,34816
7689,34752
7690,34816
7691,34816
7692,34880
7693,34880
7694,34880
7695,34944
7696,34944
7697,34944
7698,34880
7699,34816
7700,34816
7701,34816
7702,34752
7703,34688
7704,34624
7705,34624
7706,34496
7707,34432
7708,34432
7709,34368
7710,34368
7711,34304
7712,34304
7713,34304
7714,34432
7715,34560
7716,34880
7717,35072
7718,35136
7719,35136
7720,35200
7721,35200
7722,35264
7723,35264
7724,35328
7725,35392
7726,35392
7727,35328
7728,35200
7729,35008
7730,34752
7731,34304
7732,33856
7733,33472
7734,33088
7735,32768
7736,32576
7737,32576
7738,32576
7739,32576
7740,32576
7741,32704
7742,32832
7743,32896
7744,32960
7745,33088
7746,33152
7747,33152
7748,33024
7749,32768
7750,32768
7751,33024
7752,33664
7753,34880
7754,36928
7755,39616
7756,42752
7757,46080
7758,48320
7759,48640
7760,46208
7761,41536
7762,36416
7763,32000
7764,29120
7765,27776
7766,27584
7767,28096
7768,28736
7769,29376
7770,29952
7771,30464
7772,30912
7773,31232
7774,31488
7775,31808
7776,32064
7777,32256
7778,32384
7779,32576
7780,32704
7781,32832
7782,32896
7783,33024
7784,33152
7785,33152
7786,33216
7787,33280
7788,33344
7789,33408
7790,33408
7791,33472
7792,33536
7793,33600
7794,33664
7795,33664
7796,33728
7797,33728
7798,33728
7799,33728
7800,33792
7801,33792
7802,33792
7803,33856
7804,33920
7805,33984
7806,33984
7807,33984
7808,34048
7809,34112
7810,34176
7811,34240
7812,34368
7813,34496
7814,34560
7815,34624
7816,34752
7817,34880
7818,34944
7819,34944
7820,34944
7821,34880
7822,34816
7823,34752
7824,34688
7825,34688
7826,34560
7827,34496
7828,34432
7829,34432
7830,34496
7831,34432
7832,34432
7833,34496
7834,34560
7835,34560
7836,34624
7837,34624
7838,34688
7839,34688
7840,34624
7841,34624
7842,34624
7843,34560
7844,34496
7845,34496
7846,34496
7847,34432
7848,34304
7849,34304
7850,34240
7851,34176
7852,34112
7853,34048
7854,34048
7855,33984
7856,33920
7857,33920
7858,33856
7859,33856
7860,33856
7861,33856
7862,33984
7863,34240
7864,34496
7865,34688
7866,34816
7867,34816
7868,34880
7869,34880
7870,34880
7871,35008
7872,35072
7873,35136
7874,35136
7875,35136
7876,35072
7877,34816
7878,34560
7879,34240
7880,33792
7881,33280
7882,32960
7883,32832
7884,32704
7885,32512
7886,32512
7887,32512
7888,32512
7889,32448
7890,32512
7891,32704
7892,32832
7893,32832
7894,32768
7895,32832
7896,32896
7897,32896
7898,33024
7899,33280
7900,33600
7901,34496
7902,36288
7903,38912
7904,42368
7905,45632
7906,47808
7907,47936
7908,45632
7909,41152
7910,36096
7911,31616
7912,28736
7913,27392
7914,27264
7915,27776
7916,28416
7917,28992
7918,29568
7919,29952
7920,30336
7921,30720
7922,31040
7923,31232
7924,31552
7925,31808
7926,32064
7927,32256
7928,32384
7929,32512
7930,32640
7931,32768
7932,32896
7933,33024
7934,33024
7935,32896
7936,32832
7937,32896
7938,33024
7939,33152
7940,33280
7941,33408
7942,33472
7943,33536
7944,33600
7945,33728
7946,33792
7947,33856
7948,33856
7949,33792
7950,33728
7951,33792
7952,33856
7953,33792
7954,33728
7955,33728
7956,33664
7957,33728
7958,33984
7959,34304
7960,34368
7961,34368
7962,34432
7963,34688
7964,34816
7965,34688
7966,34560
7967,34432
7968,34368
7969,34368
7970,34432
7971,34496
7972,34496
7973,34432
7974,34368
7975,34432
7976,34368
7977,34368
7978,34368
7979,34496
7980,34624
7981,34624
7982,34624
7983,34624
7984,34752
7985,34752
7986,34752
7987,34816
7988,34880
7989,34816
7990,34752
7991,34688
7992,34560
7993,34368
7994,34240
7995,34240
7996,34240
7997,34176
7998,34176
7999,34112
8000,34112
8001,34112
8002,34112
8003,34176
8004,34240
8005,34240
8006,34176
8007,34048
8008,33984
8009,33984
8010,34048
8011,34112
8012,34176
8013,34112
8014,34240
8015,34496
8016,34752
8017,34880
8018,34880
8019,34816
8020,34752
8021,34752
8022,34752
8023,34880
8024,35008
8025,35072
8026,35072
8027,35008
8028,34944
8029,34752
8030,34304
8031,33728
8032,33152
8033,32832
8034,32640
8035,32448
8036,32448
8037,32512
8038,32576
8039,32576
8040,32640
8041,32832
8042,33088
8043,33280
8044,33344
8045,33408
8046,33344
8047,33216
8048,32960
8049,32896
8050,33216
8051,34048
8052,35392
8053,37376
8054,40000
8055,43008
8056,46080
8057,48192
8058,48192
8059,45568
8060,40896
8061,35776
8062,31488
8063,28864
8064,27648
8065,27520
8066,27968
8067,28672
8068,29312
8069,29952
8070,30528
8071,31104
8072,31552
8073,31872
8074,32064
8075,32256
8076,32448
8077,32576
8078,32704
8079,32768
8080,32832
8081,32832
8082,32896
8083,33024
8084,33216
8085,33280
8086,33280
8087,33280
8088,33408
8089,33472
8090,33600
8091,33728
8092,33856
8093,33984
8094,33984
8095,34048
8096,34112
8097,34112
8098,33984
8099,33984
8100,33984
8101,33920
8102,33856
8103,33856
8104,33920
8105,33984
8106,33984
8107,34112
8108,34240
8109,34240
8110,34304
8111,34368
8112,34496
8113,34688
8114,34816
8115,34880
8116,34944
8117,34944
8118,35008
8119,34944
8120,34944
8121,34944
8122,34880
8123,34752
8124,34688
8125,34624
8126,34560
8127,34432
8128,34432
8129,34432
8130,34432
8131,34560
8132,34624
8133,34688
8134,34752
8135,34816
8136,34816
8137,34880
8138,34816
8139,34688
8140,34560
8141,34432
8142,34368
8143,34304
8144,34240
8145,34240
8146,34240
8147,34240
8148,34176
8149,34048
8150,33856
8151,33792
8152,33792
8153,33856
8154,33920
8155,33920
8156,33920
8157,33856
8158,33856
8159,33856
8160,33984
8161,33984
8162,34176
8163,34368
8164,34432
8165,34432
8166,34496
8167,34496
8168,34432
8169,34432
8170,34624
8171,34816
8172,34944
8173,35072
8174,35072
8175,35008
8176,34752
8177,34496
8178,34112
8179,33664
8180,33280
8181,32896
8182,32576
8183,32320
8184,32128
8185,32064
8186,32192
8187,32256
8188,32384
8189,32512
8190,32704
8191,32832
8192,32960
8193,33024
8194,33024
8195,32832
8196,32704
8197,32768
8198,33024
8199,33536
8200,34688
8201,36608
8202,39232
8203,42304
8204,45504
8205,47744
8206,48064
8207,45568
8208,41408
8209,36416
8210,32064
8211,29120
8212,27648
8213,27392
8214,27776
8215,28416
8216,29184
8217,29888
8218,30464
8219,30848
8220,31104
8221,31424
8222,31744
8223,31936
8224,32128
8225,32256
8226,32320
8227,32384
8228,32512
8229,32640
8230,32768
8231,32832
8232,32960
8233,33088
8234,33152
8235,33280
8236,33280
8237,33280
8238,33344
8239,33408
8240,33472
8241,33600
8242,33664
8243,33728
8244,33728
8245,33728
8246,33728
8247,33728
8248,33664
8249,33664
8250,33728
8251,33728
8252,33728
8253,33728
8254,33728
8255,33856
8256,33856
8257,33856
8258,33920
8259,34112
8260,34240
8261,34240
8262,34368
8263,34432
8264,34496
8265,34496
8266,34496
8267,34432
8268,34368
8269,34304
8270,34240
8271,34176
8272,34112
8273,34176
8274,34240
8275,34240
8276,34240
8277,34240
8278,34240
8279,34304
8280,34304
8281,34368
8282,34368
8283,34368
8284,34304
8285,34240
8286,34112
8287,34048
8288,34048
8289,34048
8290,33984
8291,33984
8292,33984
8293,33856
8294,33728
8295,33600
8296,33600
8297,33472
8298,33472
8299,33472
8300,33536
8301,33472
8302,33408
8303,33408
8304,33408
8305,33408
8306,33344
8307,33280
8308,33280
8309,33408
8310,33536
8311,33792
8312,33984
8313,34048
8314,34048
8315,34112
8316,34176
8317,34176
8318,34176
8319,34112
8320,34304
8321,34368
8322,34432
8323,34368
8324,34240
8325,34112
8326,33728
8327,33152
8328,32576
8329,32320
8330,32000
8331,31808
8332,31744
8333,31744
8334,31680
8335,31680
8336,31680
8337,31744
8338,31936
8339,32064
8340,32064
8341,32192
8342,32192
8343,32000
8344,31808
8345,31808
8346,32128
8347,32768
8348,34048
8349,36160
8350,39040
8351,41984
8352,44864
8353,46784
8354,46784
8355,44352
8356,40128
8357,35328
8358,31488
8359,28544
8360,26880
8361,26496
8362,27136
8363,28160
8364,28864
8365,29184
8366,29760
8367,30912
8368,31296
8369,31360
8370,31488
8371,31744
8372,31616
8373,31424
8374,31360
8375,31232
8376,30848
8377,30336
8378,30144
8379,30464
8380,31104
8381,31488
8382,31808
8383,32064
8384,32128
8385,32128
8386,32384
8387,32640
8388,32832
8389,32768
8390,32320
8391,31936
8392,31872
8393,32064
8394,32576
8395,33088
8396,33152
8397,33024
8398,32896
8399,32768
8400,32768
8401,32896
8402,33024
8403,33024
8404,33024
8405,33024
8406,33088
8407,33280
8408,33472
8409,33536
8410,33664
8411,33792
8412,33920
8413,34112
8414,34240
8415,34112
8416,33920
8417,33984
8418,33984
8419,33856
8420,33856
8421,33728
8422,33536
8423,33344
8424,33536
8425,33536
8426,33408
8427,33280
8428,33408
8429,33536
8430,33664
8431,33792
8432,33920
8433,33984
8434,33920
8435,33856
8436,33856
8437,33984
8438,34048
8439,34112
8440,34176
8441,34240
8442,34112
8443,33856
8444,33728
8445,33792
8446,34048
8447,34176
8448,33792
8449,33472
8450,33280
8451,33344
8452,33472
8453,33792
8454,34112
8455,34496
8456,34560
8457,34560
8458,34688
8459,34624
8460,34624
8461,34624
8462,34752
8463,34880
8464,35008
8465,35008
8466,34944
8467,34816
8468,34432
8469,34048
8470,33600
8471,33216
8472,32896
8473,32704
8474,32512
8475,32320
8476,32128
8477,32064
8478,32192
8479,32384
8480,32384
8481,32384
8482,32704
8483,32960
8484,33216
8485,33344
8486,33408
8487,33280
8488,32896
8489,32576
8490,32960
8491,34304
8492,36416
8493,39296
8494,42368
8495,45760
8496,48384
8497,48896
8498,46528
8499,41984
8500,35968
8501,32256
8502,29184
8503,27904
8504,27904
8505,28480
8506,29056
8507,29440
8508,29824
8509,30400
8510,31168
8511,31680
8512,31744
8513,31936
8514,32000
8515,32128
8516,32384
8517,32640
8518,32832
8519,32960
8520,33152
8521,33472
8522,33792
8523,33984
8524,34048
8525,34112
8526,34176
8527,34176
8528,34176
8529,34240
8530,34112
8531,33920
8532,33856
8533,34048
8534,34304
8535,34432
8536,34432
8537,34368
8538,34368
8539,34432
8540,34496
8541,34560
8542,34624
8543,34624
8544,34624
8545,34688
8546,34752
8547,34752
8548,34752
8549,35072
8550,35392
8551,35328
8552,35328
8553,35392
8554,35584
8555,35904
8556,36032
8557,36032
8558,35904
8559,35840
8560,35840
8561,35904
8562,35840
8563,35712
8564,35520
8565,35392
8566,35456
8567,35520
8568,35584
8569,35584
8570,35520
8571,35520
8572,35520
8573,35584
8574,35712
8575,35968
8576,35968
8577,35712
8578,35584
8579,35712
8580,35776
8581,35904
8582,36032
8583,36032
8584,35840
8585,35712
8586,35584
8587,35456
8588,35392
8589,35392
8590,35520
8591,35520
8592,35392
8593,35136
8594,35264
8595,35648
8596,36096
8597,36224
8598,36160
8599,36160
8600,36224
8601,36288
8602,36160
8603,36160
8604,36160
8605,36416
8606,36416
8607,36288
8608,36096
8609,35968
8610,35904
8611,35648
8612,35200
8613,34688
8614,34368
8615,34112
8616,33984
8617,34048
8618,33792
8619,33344
8620,33152
8621,33536
8622,33984
8623,34112
8624,34176
8625,34432
8626,34432
8627,34240
8628,33856
8629,33472
8630,33536
8631,33728
8632,34304
8633,35584
8634,37696
8635,40832
8636,43520
8637,46720
8638,49216
8639,49728
8640,47360
8641,42624
8642,37312
8643,32896
8644,30080
8645,28672
8646,28352
8647,28672
8648,29184
8649,29888
8650,30720
8651,30976
8652,31360
8653,31616
8654,31872
8655,32384
8656,32832
8657,33152
8658,33216
8659,33280
8660,33472
8661,33664
8662,33664
8663,33920
8664,34048
8665,34240
8666,34304
8667,34176
8668,33984
8669,34048
8670,34176
8671,34304
8672,34368
8673,34368
8674,34496
8675,34496
8676,34432
8677,34368
8678,34368
8679,34624
8680,34816
8681,34944
8682,34880
8683,34880
8684,34944
8685,35072
8686,35136
8687,35136
8688,35072
8689,35136
8690,35200
8691,35200
8692,35264
8693,35328
8694,35584
8695,35712
8696,35712
8697,35584
8698,35520
8699,35584
8700,35840
8701,35776
8702,35520
8703,35392
8704,35520
8705,35648
8706,35520
8707,35328
8708,35072
8709,34944
8710,34944
8711,35072
8712,35264
8713,35264
8714,35072
8715,35008
8716,35328
8717,35584
8718,35584
8719,35328
8720,35136
8721,35136
8722,35136
8723,35072
8724,35136
8725,35136
8726,35072
8727,34944
8728,34944
8729,35008
8730,35008
8731,35008
8732,35136
8733,35072
8734,34944
8735,34752
8736,34816
8737,35008
8738,35264
8739,35392
8740,35584
8741,35648
8742,35904
8743,36160
8744,36096
8745,35968
8746,35776
8747,35648
8748,35648
8749,35776
8750,35904
8751,35712
8752,35328
8753,35008
8754,34816
8755,34304
8756,33856
8757,33664
8758,33536
8759,33344
8760,33216
8761,33152
8762,33152
8763,33152
8764,33152
8765,33280
8766,33600
8767,33856
8768,33856
8769,33792
8770,33856
8771,33664
8772,33472
8773,33664
8774,34176
8775,35008
8776,36416
8777,38592
8778,41472
8779,44608
8780,47424
8781,48832
8782,47936
8783,44608
8784,39616
8785,32832
8786,30784
8787,28992
8788,28416
8789,28608
8790,28992
8791,29504
8792,30144
8793,30656
8794,31168
8795,31744
8796,32064
8797,32256
8798,32448
8799,32576
8800,32704
8801,32896
8802,33088
8803,33088
8804,33216
8805,33408
8806,33536
8807,33536
8808,33600
8809,33664
8810,33792
8811,33920
8812,33920
8813,33984
8814,34112
8815,34176
8816,34240
8817,34240
8818,34048
8819,33856
8820,33856
8821,34048
8822,34176
8823,34240
8824,34304
8825,34432
8826,34560
8827,34688
8828,34624
8829,34560
8830,34496
8831,34368
8832,34304
8833,34304
8834,34368
8835,34496
8836,34752
8837,34944
8838,35008
8839,34944
8840,35008
8841,35264
8842,35520
8843,35712
8844,35648
8845,35584
8846,35520
8847,35328
8848,35008
8849,34752
8850,34688
8851,34944
8852,35072
8853,35072
8854,34880
8855,34688
8856,34624
8857,34624
8858,34624
8859,34560
8860,34240
8861,34304
8862,34560
8863,34688
8864,34624
8865,34624
8866,34816
8867,35072
8868,35072
8869,34944
8870,34752
8871,34624
8872,34368
8873,34240
8874,34176
8875,34240
8876,34112
8877,33792
8878,33600
8879,33920
8880,34240
8881,34368
8882,34368
8883,34240
8884,34112
8885,34240
8886,34560
8887,34816
8888,34880
8889,34944
8890,35008
8891,35008
8892,34944
8893,34816
8894,34752
8895,34880
8896,35200
8897,35328
8898,35072
8899,34688
8900,34304
8901,33792
8902,33216
8903,32576
8904,32384
8905,32576
8906,32448
8907,32384
8908,32512
8909,32576
8910,32384
8911,32256
8912,32384
8913,32512
8914,32640
8915,32768
8916,32768
8917,32576
8918,32576
8919,32640
8920,33088
8921,33536
8922,35008
8923,37376
8924,40256
8925,43264
8926,46080
8927,47872
8928,47424
8929,44480
8930,39744
8931,34816
8932,30912
8933,28608
8934,27584
8935,27456
8936,27840
8937,28608
8938,29440
8939,30144
8940,30464
8941,30656
8942,30912
8943,31040
8944,31168
8945,31360
8946,31744
8947,32064
8948,32128
8949,32064
8950,32320
8951,32448
8952,32640
8953,32896
8954,33152
8955,33152
8956,33152
8957,33472
8958,33728
8959,33536
8960,33344
8961,33216
8962,33216
8963,33152
8964,33152
8965,33280
8966,33280
8967,33344
8968,33280
8969,33088
8970,33088
8971,33280
8972,33472
8973,33664
8974,33664
8975,33664
8976,33664
8977,33664
8978,33600
8979,33792
8980,34048
8981,33984
8982,33920
8983,34176
8984,34368
8985,34432
8986,34432
8987,34496
8988,34560
8989,34432
8990,34304
8991,34240
8992,34176
8993,34112
8994,34112
8995,34176
8996,34176
8997,34112
8998,34112
8999,34048
9000,34048
9001,33984
9002,33856
9003,33856
9004,33920
9005,34048
9006,34112
9007,34048
9008,33920
9009,34048
9010,34304
9011,34368
9012,34240
9013,33920
9014,33664
9015,33600
9016,33408
9017,33408
9018,33408
9019,33344
9020,33216
9021,33216
9022,33216
9023,33152
9024,33216
9025,33280
9026,33344
9027,33216
9028,33024
9029,33152
9030,33536
9031,33920
9032,34048
9033,34112
9034,33920
9035,33856
9036,33856
9037,33856
9038,33920
9039,33920
9040,34048
9041,34112
9042,34048
9043,33920
9044,33856
9045,33856
9046,33472
9047,33024
9048,32320
9049,31872
9050,31680
9051,31552
9052,31488
9053,31360
9054,31296
9055,31168
9056,31104
9057,31040
9058,31232
9059,31552
9060,31616
9061,31680
9062,31744
9063,31744
9064,31488
9065,31296
9066,31488
9067,32256
9068,33472
9069,35264
9070,39552
9071,40832
9072,43584
9073,45504
9074,45632
9075,43520
9076,39616
9077,35136
9078,30976
9079,28352
9080,26816
9081,26304
9082,26560
9083,27200
9084,27904
9085,28608
9086,29056
9087,29504
9088,29888
9089,30208
9090,30464
9091,30720
9092,30912
9093,31040
9094,31168
9095,31296
9096,31488
9097,31680
9098,31680
9099,31680
9100,31872
9101,32064
9102,32256
9103,32320
9104,32192
9105,32064
9106,32000
9107,32000
9108,32128
9109,32256
9110,32448
9111,32704
9112,32896
9113,32896
9114,32704
9115,32704
9116,32768
9117,32896
9118,32960
9119,32768
9120,32768
9121,32832
9122,32768
9123,32832
9124,33024
9125,33152
9126,33280
9127,33408
9128,33600
9129,33728
9130,33856
9131,33984
9132,33984
9133,33920
9134,33984
9135,34112
9136,34176
9137,34240
9138,34304
9139,34112
9140,33984
9141,33984
9142,33984
9143,33984
9144,34112
9145,34112
9146,34176
9147,34240
9148,34304
9149,34496
9150,34752
9151,34688
9152,34688
9153,34624
9154,34496
9155,34560
9156,34624
9157,34688
9158,34752
9159,34688
9160,34624
9161,34688
9162,34880
9163,35008
9164,35136
9165,35072
9166,34816
9167,34688
9168,34624
9169,34688
9170,34624
9171,34624
9172,34624
9173,34880
9174,35328
9175,35584
9176,35712
9177,35968
9178,36096
9179,36032
9180,35776
9181,35712
9182,35840
9183,35840
9184,36352
9185,36416
9186,36544
9187,36608
9188,36416
9189,36096
9190,35712
9191,35200
9192,34688
9193,34240
9194,34176
9195,34176
9196,33984
9197,33792
9198,33856
9199,34112
9200,34368
9201,34432
9202,34432
9203,34624
9204,34944
9205,35136
9206,35072
9207,34752
9208,34496
9209,34560
9210,35072
9211,35968
9212,37632
9213,40000
9214,43136
9215,43520
9216,46208
9217,50176
9218,49216
9219,45824
9220,40832
9221,39872
9222,32704
9223,30528
9224,29760
9225,30016
9226,30720
9227,31552
9228,31616
9229,32640
9230,32960
9231,33344
9232,33600
9233,33856
9234,34048
9235,34176
9236,34304
9237,34496
9238,34688
9239,34880
9240,35136
9241,35392
9242,35712
9243,35776
9244,35776
9245,35904
9246,35968
9247,35840
9248,35776
9249,35840
9250,35904
9251,35968
9252,35904
9253,35904
9254,36032
9255,36032
9256,35968
9257,35968
9258,35968
9259,35968
9260,35904
9261,35776
9262,35776
9263,35904
9264,35840
9265,35840
9266,35968
9267,36096
9268,36096
9269,36096
9270,36224
9271,36416
9272,36608
9273,36736
9274,36864
9275,36928
9276,36928
9277,36864
9278,36864
9279,36800
9280,36864
9281,36992
9282,37056
9283,36992
9284,36800
9285,36672
9286,36672
9287,36608
9288,36544
9289,36480
9290,36544
9291,36608
9292,36608
9293,36672
9294,36928
9295,37120
9296,37056
9297,36928
9298,37056
9299,37184
9300,37056
9301,36928
9302,36736
9303,36736
9304,36608
9305,36480
9306,36480
9307,36608
9308,36672
9309,36736
9310,36800
9311,36800
9312,36736
9313,36608
9314,36544
9315,36544
9316,36608
9317,36544
9318,36544
9319,36672
9320,36864
9321,37184
9322,37440
9323,37696
9324,37696
9325,37504
9326,37312
9327,37184
9328,37184
9329,37248
9330,37504
9331,37760
9332,37760
9333,37632
9334,37376
9335,37120
9336,36800
9337,36608
9338,36032
9339,35392
9340,34880
9341,34560
9342,34304
9343,34240
9344,34304
9345,34432
9346,34432
9347,34432
9348,34560
9349,34752
9350,35008
9351,35264
9352,35328
9353,34944
9354,34560
9355,34496
9356,34752
9357,35456
9358,36800
9359,39232
9360,42432
9361,45696
9362,48960
9363,49088
9364,49856
9365,46720
9366,41792
9367,36800
9368,32832
9369,30464
9370,29440
9371,29312
9372,29824
9373,30592
9374,31104
9375,31488
9376,31744
9377,32000
9378,32448
9379,33024
9380,33344
9381,33344
9382,33472
9383,33728
9384,33920
9385,34048
9386,34240
9387,34432
9388,34496
9389,34560
9390,34496
9391,34560
9392,34752
9393,34944
9394,35136
9395,35200
9396,35136
9397,35136
9398,35072
9399,35008
9400,35072
9401,35136
9402,35200
9403,35200
9404,35136
9405,35072
9406,34944
9407,34944
9408,35072
9409,35136
9410,35008
9411,34944
9412,34880
9413,34816
9414,34880
9415,35136
9416,35328
9417,35392
9418,35584
9419,35648
9420,35584
9421,35648
9422,35840
9423,36032
9424,36224
9425,36352
9426,36352
9427,36096
9428,35904
9429,36032
9430,36288
9431,36480
9432,36352
9433,36224
9434,36288
9435,36288
9436,36032
9437,35584
9438,35200
9439,35136
9440,35136
9441,35264
9442,35520
9443,35712
9444,35904
9445,35776
9446,35648
9447,35648
9448,35648
9449,35712
9450,35712
9451,35392
9452,35072
9453,34880
9454,34944
9455,35136
9456,35392
9457,35200
9458,34816
9459,34624
9460,34688
9461,34752
9462,34624
9463,34432
9464,34304
9465,34560
9466,34944
9467,35008
9468,34880
9469,35072
9470,35520
9471,35840
9472,35904
9473,35968
9474,36032
9475,36096
9476,35840
9477,35648
9478,35648
9479,35904
9480,35968
9481,36032
9482,36288
9483,36160
9484,35520
9485,34944
9486,34560
9487,34240
9488,33856
9489,33472
9490,33344
9491,33472
9492,33472
9493,33536
9494,33536
9495,33536
9496,33344
9497,33152
9498,33152
9499,33408
9500,33728
9501,34048
9502,33984
9503,33792
9504,33856
9505,34304
9506,35712
9507,38144
9508,41216
9509,44352
9510,47296
9511,49408
9512,49344
9513,46016
9514,40960
9515,35584
9516,31936
9517,29376
9518,28352
9519,28416
9520,28800
9521,29376
9522,30080
9523,30912
9524,31296
9525,31616
9526,31936
9527,32128
9528,32192
9529,32384
9530,32768
9531,33088
9532,33344
9533,33408
9534,33600
9535,33664
9536,33600
9537,33536
9538,33472
9539,33600
9540,33536
9541,33536
9542,33728
9543,34176
9544,34624
9545,34944
9546,35136
9547,34880
9548,34368
9549,34432
9550,34688
9551,34624
9552,34688
9553,34688
9554,34368
9555,33856
9556,33344
9557,33408
9558,33984
9559,34560
9560,34880
9561,35136
9562,35008
9563,34688
9564,34624
9565,34816
9566,35072
9567,35200
9568,35392
9569,35456
9570,35712
9571,35840
9572,35840
9573,35712
9574,35712
9575,35712
9576,35712
9577,35712
9578,35520
9579,35456
9580,35392
9581,35392
9582,35584
9583,35712
9584,35456
9585,35392
9586,35328
9587,35328
9588,35392
9589,35392
9590,35328
9591,35456
9592,35712
9593,35840
9594,35712
9595,35392
9596,35392
9597,35392
9598,35328
9599,35008
9600,34688
9601,34432
9602,34560
9603,34944
9604,35136
9605,35136
9606,35072
9607,35072
9608,34944
9609,34880
9610,34752
9611,34624
9612,34688
9613,34688
9614,34560
9615,34560
9616,34624
9617,34624
9618,34688
9619,35200
9620,35904
9621,36224
9622,36096
9623,35584
9624,35008
9625,35072
9626,35648
9627,36160
9628,36480
9629,36672
9630,36480
9631,36032
9632,35648
9633,35200
9634,34496
9635,34240
9636,33920
9637,33536
9638,33408
9639,33280
9640,33344
9641,33344
9642,33088
9643,33088
9644,33280
9645,33536
9646,33664
9647,33408
9648,33216
9649,33344
9650,33472
9651,33216
9652,33088
9653,33472
9654,34368
9655,35904
9656,38400
9657,41344
9658,44416
9659,47232
9660,48640
9661,47488
9662,43840
9663,39104
9664,34496
9665,30848
9666,28608
9667,27712
9668,27776
9669,28544
9670,29312
9671,29824
9672,30336
9673,30912
9674,31296
9675,31552
9676,31808
9677,31936
9678,32064
9679,32256
9680,32256
9681,32256
9682,32512
9683,32832
9684,32896
9685,32832
9686,32768
9687,33152
9688,33536
9689,33536
9690,33408
9691,33472
9692,33728
9693,33984
9694,34048
9695,33920
9696,33920
9697,33856
9698,33600
9699,33472
9700,33600
9701,33536
9702,33536
9703,33728
9704,33728
9705,33536
9706,33472
9707,33536
9708,33664
9709,33664
9710,33664
9711,33856
9712,34176
9713,34304
9714,34112
9715,34112
9716,34560
9717,34816
9718,34560
9719,34304
9720,34368
9721,34624
9722,34816
9723,34752
9724,34624
9725,34560
9726,34304
9727,34240
9728,34304
9729,34432
9730,34432
9731,34560
9732,34560
9733,34304
9734,33984
9735,33984
9736,34240
9737,34560
9738,34688
9739,34688
9740,34752
9741,34688
9742,34304
9743,33984
9744,34112
9745,34240
9746,34112
9747,34048
9748,33984
9749,33920
9750,33984
9751,34048
9752,34112
9753,34176
9754,34240
9755,34112
9756,33920
9757,33664
9758,33536
9759,33472
9760,33280
9761,33280
9762,33536
9763,33856
9764,34112
9765,34048
9766,33728
9767,33536
9768,33536
9769,33792
9770,34176
9771,34432
9772,34432
9773,34368
9774,34432
9775,34624
9776,34816
9777,35008
9778,35200
9779,35136
9780,34944
9781,34816
9782,34624
9783,34176
9784,33600
9785,32960
9786,32448
9787,32064
9788,31872
9789,31808
9790,31872
9791,32128
9792,32448
9793,32512
9794,32512
9795,32448
9796,32320
9797,32384
9798,32576
9799,32640
9800,32512
9801,32448
9802,32768
9803,33472
9804,34624
9805,36480
9806,38784
9807,41664
9808,44416
9809,46464
9810,46976
9811,44928
9812,40448
9813,35968
9814,31744
9815,28864
9816,27520
9817,27264
9818,27712
9819,28352
9820,29120
9821,29632
9822,29952
9823,30336
9824,30720
9825,30976
9826,31232
9827,31360
9828,31552
9829,31744
9830,32064
9831,32256
9832,32384
9833,32512
9834,32832
9835,33024
9836,32960
9837,32832
9838,32640
9839,32640
9840,32640
9841,32704
9842,32832
9843,32896
9844,32896
9845,32960
9846,33088
9847,33152
9848,33280
9849,33344
9850,33344
9851,33344
9852,33280
9853,33280
9854,33344
9855,33344
9856,33472
9857,33600
9858,33536
9859,33472
9860,33472
9861,33536
9862,33664
9863,33856
9864,33984
9865,34176
9866,34304
9867,34304
9868,34240
9869,34240
9870,34368
9871,34304
9872,34240
9873,34304
9874,34368
9875,34432
9876,34368
9877,34304
9878,34240
9879,34240
9880,34176
9881,34112
9882,34112
9883,34176
9884,34112
9885,34048
9886,33856
9887,33792
9888,33792
9889,33920
9890,34176
9891,34304
9892,34304
9893,34304
9894,34432
9895,34432
9896,34048
9897,33600
9898,33472
9899,33408
9900,33408
9901,33344
9902,33216
9903,33152
9904,33088
9905,33152
9906,33280
9907,33472
9908,33472
9909,33280
9910,33152
9911,33152
9912,33152
9913,33152
9914,33152
9915,33472
9916,33920
9917,34240
9918,34432
9919,34560
9920,34816
9921,35008
9922,34816
9923,34496
9924,34496
9925,34752
9926,34624
9927,34304
9928,34240
9929,34240
9930,34112
9931,33792
9932,33472
9933,33088
9934,32704
9935,32384
9936,32192
9937,32128
9938,32064
9939,31936
9940,31808
9941,31872
9942,32064
9943,32448
9944,33024
9945,33536
9946,33664
9947,33024
9948,32256
9949,31936
9950,32064
9951,32512
9952,33344
9953,34880
9954,37120
9955,39872
9956,42816
9957,45376
9958,46656
9959,45696
9960,42496
9961,38016
9962,33664
9963,29952
9964,28032
9965,27200
9966,27264
9967,27840
9968,28544
9969,29248
9970,29888
9971,30400
9972,30720
9973,30912
9974,31104
9975,31360
9976,31680
9977,31936
9978,32128
9979,32256
9980,32320
9981,32384
9982,32448
9983,32448
9984,32512
9985,32576
9986,32768
9987,33088
9988,33216
9989,33216
9990,33280
9991,33280
9992,33280
9993,33344
9994,33472
9995,33536
9996,33472
9997,33280
9998,33216
9999,33216
10000,33152
10001,33152
10002,33216
10003,33408
10004,33536
10005,33600
10006,33664
10007,33728
10008,33792
10009,33792
10010,33984
10011,34240
10012,34496
10013,34432
10014,34368
10015,34304
10016,34304
10017,34368
10018,34432
10019,34560
10020,34624
10021,34560
10022,34432
10023,34368
10024,34368
10025,34240
10026,34048
10027,33984
10028,34240
10029,34432
10030,34368
10031,34176
10032,34112
10033,34112
10034,34112
10035,34176
10036,34240
10037,34304
10038,34240
10039,34240
10040,34304
10041,34304
10042,34240
10043,34112
10044,34048
10045,34112
10046,34240
10047,34240
10048,34112
10049,34048
10050,33984
10051,33920
10052,33856
10053,33664
10054,33536
10055,33536
10056,33472
10057,33408
10058,33472
10059,33536
10060,33600
10061,33600
10062,33664
10063,33792
10064,34176
10065,34624
10066,34752
10067,34688
10068,34624
10069,34752
10070,34816
10071,34944
10072,35008
10073,35008
10074,34880
10075,34816
10076,34752
10077,34560
10078,34368
10079,33984
10080,33472
10081,32832
10082,32384
10083,32128
10084,32000
10085,31936
10086,32128
10087,32384
10088,32640
10089,32832
10090,32704
10091,32640
10092,32384
10093,32128
10094,32064
10095,31936
10096,31872
10097,31936
10098,32576
10099,33344
10100,34688
10101,36672
10102,39424
10103,42432
10104,45312
10105,47104
10106,46720
10107,43968
10108,39680
10109,34944
10110,30912
10111,28224
10112,26944
10113,26944
10114,27584
10115,28352
10116,29120
10117,29696
10118,30144
10119,30528
10120,30848
10121,31040
10122,31232
10123,31424
10124,31744
10125,31808
10126,31744
10127,31616
10128,31680
10129,31872
10130,32064
10131,32384
10132,32640
10133,32768
10134,32896
10135,33152
10136,33472
10137,33664
10138,33728
10139,33728
10140,33664
10141,33664
10142,33664
10143,33600
10144,33472
10145,33408
10146,33408
10147,33408
10148,33408
10149,33344
10150,33408
10151,33536
10152,33664
10153,33856
10154,33984
10155,33920
10156,33856
10157,33856
10158,33856
10159,33920
10160,34048
10161,34176
10162,34368
10163,34432
10164,34368
10165,34304
10166,34304
10167,34368
10168,34304
10169,34240
10170,34176
10171,34048
10172,33920
10173,33856
10174,33792
10175,33728
10176,33728
10177,33664
10178,33728
10179,33664
10180,33664
10181,33792
10182,33920
10183,34048
10184,34112
10185,34048
10186,34112
10187,34112
10188,34048
10189,33920
10190,33728
10191,33664
10192,33728
10193,33728
10194,33728
10195,33728
10196,33728
10197,33664
10198,33600
10199,33536
10200,33472
10201,33408
10202,33344
10203,33344
10204,33344
10205,33280
10206,33216
10207,33216
10208,33280
10209,33344
10210,33472
10211,33792
10212,34112
10213,34240
10214,34240
10215,34240
10216,34304
10217,34304
10218,34368
10219,34496
10220,34624
10221,34688
10222,34688
10223,34688
10224,34560
10225,34176
10226,33728
10227,33216
10228,32832
10229,32448
10230,32256
10231,32192
10232,32064
10233,31936
10234,31808
10235,31808
10236,31936
10237,32000
10238,32192
10239,32320
10240,32256
10241,32320
10242,32320
10243,32256
10244,32064
10245,32064
10246,32512
10247,33472
10248,35008
10249,37248
10250,40128
10251,43264
10252,45952
10253,46848
10254,45504
10255,42048
10256,37696
10257,33344
10258,29888
10259,27648
10260,26624
10261,26560
10262,27072
10263,27904
10264,28736
10265,29504
10266,30144
10267,30592
10268,30912
10269,31168
10270,31424
10271,31616
10272,31808
10273,32000
10274,32128
10275,32256
10276,32384
10277,32448
10278,32576
10279,32640
10280,32704
10281,32704
10282,32768
10283,32896
10284,32960
10285,33024
10286,33088
10287,33216
10288,33216
10289,33216
10290,33344
10291,33472
10292,33536
10293,33536
10294,33536
10295,33536
10296,33536
10297,33536
10298,33600
10299,33600
10300,33600
10301,33600
10302,33600
10303,33600
10304,33664
10305,33728
10306,33792
10307,33920
10308,34048
10309,34176
10310,34304
10311,34432
10312,34496
10313,34496
10314,34496
10315,34496
10316,34496
10317,34432
10318,34304
10319,34176
10320,34112
10321,34048
10322,33984
10323,33856
10324,33856
10325,33984
10326,34048
10327,34240
10328,34368
10329,34496
10330,34496
10331,34496
10332,34496
10333,34432
10334,34432
10335,34368
10336,34304
10337,34304
10338,34304
10339,34240
10340,34240
10341,34240
10342,34176
10343,34176
10344,34112
10345,34112
10346,34112
10347,34048
10348,34048
10349,34112
10350,34240
10351,34368
10352,34496
10353,34688
10354,34752
10355,34688
10356,34688
10357,34688
10358,34816
10359,34880
10360,34880
10361,35008
10362,35008
10363,35008
10364,34944
10365,34752
10366,34496
10367,34112
10368,33600
10369,33216
10370,32896
10371,32704
10372,32512
10373,32448
10374,32448
10375,32512
10376,32512
10377,32576
10378,32704
10379,32832
10380,32896
10381,33024
10382,33152
10383,33216
10384,33088
10385,32896
10386,32960
10387,33280
10388,34048
10389,35456
10390,38336
10391,40640
10392,43520
10393,46336
10394,47808
10395,47360
10396,44480
10397,40064
10398,35456
10399,31552
10400,28928
10401,27712
10402,27456
10403,27904
10404,28608
10405,29312
10406,29952
10407,30528
10408,30976
10409,31296
10410,31552
10411,31808
10412,32064
10413,32256
10414,32384
10415,32576
10416,32768
10417,32896
10418,33024
10419,33088
10420,33152
10421,33216
10422,33216
10423,33280
10424,33344
10425,33408
10426,33472
10427,33600
10428,33664
10429,33728
10430,33728
10431,33728
10432,33728
10433,33792
10434,33728
10435,33728
10436,33728
10437,33792
10438,33792
10439,33792
10440,33792
10441,33792
10442,33792
10443,33792
10444,33792
10445,33920
10446,34048
10447,34176
10448,34240
10449,34432
10450,34496
10451,34560
10452,34560
10453,34624
10454,34624
10455,34560
10456,34432
10457,34432
10458,34368
10459,34304
10460,34176
10461,34112
10462,34176
10463,34176
10464,34176
10465,34176
10466,34240
10467,34240
10468,34240
10469,34240
10470,34304
10471,34240
10472,34240
10473,34304
10474,34240
10475,34048
10476,33920
10477,33792
10478,33920
10479,34240
10480,34560
10481,34560
10482,34560
10483,34432
10484,34432
10485,34432
10486,34624
10487,34688
10488,34560
10489,34432
10490,34496
10491,34304
10492,34240
10493,34304
10494,34432
10495,34560
10496,34624
10497,34688
10498,34816
10499,34944
10500,35072
10501,35136
10502,35200
10503,35136
10504,35200
10505,35008
10506,34688
10507,34432
10508,34112
10509,33728
10510,33280
10511,32960
10512,32640
10513,32320
10514,32128
10515,32064
10516,32192
10517,32256
10518,32256
10519,32320
10520,32448
10521,32640
10522,32768
10523,32896
10524,32832
10525,32576
10526,32384
10527,32448
10528,32960
10529,34112
10530,35968
10531,38656
10532,41856
10533,45184
10534,48000
10535,49088
10536,47488
10537,43328
10538,38016
10539,33088
10540,28736
10541,27648
10542,27136
10543,27328
10544,27968
10545,28672
10546,29312
10547,29824
10548,30208
10549,30528
10550,30848
10551,31168
10552,31552
10553,31872
10554,32192
10555,32384
10556,32512
10557,32640
10558,32768
10559,32832
10560,32896
10561,33024
10562,33152
10563,33216
10564,33280
10565,33344
10566,33472
10567,33536
10568,33600
10569,33600
10570,33664
10571,33792
10572,33792
10573,33856
10574,33920
10575,33920
10576,33984
10577,33984
10578,34048
10579,34112
10580,34112
10581,34112
10582,34176
10583,34240
10584,34304
10585,34240
10586,34304
10587,34368
10588,34432
10589,34496
10590,34560
10591,34688
10592,34816
10593,34816
10594,34880
10595,34880
10596,34880
10597,34880
10598,34816
10599,34752
10600,34688
10601,34560
10602,34496
10603,34432
10604,34432
10605,34368
10606,34240
10607,34240
10608,34240
10609,34240
10610,34304
10611,34368
10612,34432
10613,34432
10614,34432
10615,34368
10616,34432
10617,34432
10618,34432
10619,34432
10620,34496
10621,34496
10622,34496
10623,34496
10624,34496
10625,34496
10626,34432
10627,34432
10628,34432
10629,34368
10630,34304
10631,34304
10632,34368
10633,34624
10634,34816
10635,34944
10636,34944
10637,34944
10638,34944
10639,34880
10640,34944
10641,35072
10642,35264
10643,35328
10644,35264
10645,35200
10646,35072
10647,34880
10648,34560
10649,34240
10650,33792
10651,33344
10652,32960
10653,32640
10654,32448
10655,32256
10656,32192
10657,32256
10658,32320
10659,32384
10660,32448
10661,32512
10662,32640
10663,32832
10664,32896
10665,32960
10666,32832
10667,32576
10668,32448
10669,32768
10670,33536
10671,34880
10672,37120
10673,40064
10674,43392
10675,46592
10676,48832
10677,48832
10678,45888
10679,40960
10680,35648
10681,31232
10682,28352
10683,27264
10684,27200
10685,27648
10686,28352
10687,29120
10688,29760
10689,30272
10690,30848
10691,31104
10692,31360
10693,31616
10694,31808
10695,32064
10696,32192
10697,32320
10698,32448
10699,32640
10700,32768
10701,32896
10702,32960
10703,33024
10704,33088
10705,33152
10706,33216
10707,33280
10708,33408
10709,33472
10710,33536
10711,33600
10712,33728
10713,33728
10714,33728
10715,33728
10716,33792
10717,33856
10718,33856
10719,33856
10720,33856
10721,33856
10722,33856
10723,33920
10724,34048
10725,34176
10726,34240
10727,34240
10728,34304
10729,34368
10730,34432
10731,34496
10732,34624
10733,34752
10734,34816
10735,34816
10736,34816
10737,34880
10738,34816
10739,34752
10740,34688
10741,34688
10742,34624
10743,34496
10744,34432
10745,34432
10746,34368
10747,34304
10748,34240
10749,34240
10750,34240
10751,34240
10752,34240
10753,34304
10754,34368
10755,34432
10756,34432
10757,34432
10758,34432
10759,34432
10760,34432
10761,34432
10762,34432
10763,34432
10764,34432
10765,34432
10766,34432
10767,34368
10768,34304
10769,34240
10770,34176
10771,34176
10772,34112
10773,34048
10774,34048
10775,34048
10776,33984
10777,33984
10778,34112
10779,34368
10780,34688
10781,34944
10782,35072
10783,35072
10784,35136
10785,35072
10786,35072
10787,35200
10788,35264
10789,35264
10790,35264
10791,35200
10792,35136
10793,34944
10794,34688
10795,34176
10796,33856
10797,33344
10798,32960
10799,32640
10800,32448
10801,32384
10802,32384
10803,32384
10804,32512
10805,32576
10806,32640
10807,32768
10808,32960
10809,33024
10810,33088
10811,33024
10812,32896
10813,32704
10814,32704
10815,33088
10816,33920
10817,35520
10818,37824
10819,40832
10820,44096
10821,47168
10822,48896
10823,48192
10824,44736
10825,39616
10826,34496
10827,30464
10828,28160
10829,27264
10830,27392
10831,27904
10832,28608
10833,29312
10834,29888
10835,30336
10836,30784
10837,31104
10838,31424
10839,31680
10840,32000
10841,32128
10842,32320
10843,32448
10844,32576
10845,32768
10846,32832
10847,32896
10848,33024
10849,33088
10850,33216
10851,33280
10852,33344
10853,33408
10854,33536
10855,33664
10856,33664
10857,33728
10858,33728
10859,33792
10860,33792
10861,33856
10862,33920
10863,33920
10864,33920
10865,33920
10866,33920
10867,33984
10868,33984
10869,33984
10870,34048
10871,34048
10872,34112
10873,34112
10874,34240
10875,34368
10876,34432
10877,34496
10878,34688
10879,34816
10880,34880
10881,34944
10882,34944
10883,35008
10884,35008
10885,34944
10886,34880
10887,34816
10888,34752
10889,34624
10890,34560
10891,34496
10892,34496
10893,34432
10894,34432
10895,34496
10896,34496
10897,34496
10898,34560
10899,34560
10900,34624
10901,34624
10902,34624
10903,34688
10904,34688
10905,34688
10906,34688
10907,34624
10908,34624
10909,34624
10910,34560
10911,34560
10912,34496
10913,34496
10914,34432
10915,34368
10916,34304
10917,34304
10918,34240
10919,34176
10920,34176
10921,34176
10922,34048
10923,33984
10924,33920
