,ECG
0,33792
1,33856
2,33920
3,34048
4,34112
5,34112
6,34112
7,34240
8,34240
9,34304
10,34368
11,34432
12,34496
13,34496
14,34560
15,34624
16,34688
17,34688
18,34752
19,34816
20,34816
21,34752
22,34752
23,34816
24,34944
25,35008
26,35136
27,35200
28,35264
29,35264
30,35200
31,35200
32,35200
33,35072
34,35008
35,34880
36,34816
37,34752
38,34624
39,34560
40,34560
41,34496
42,34432
43,34432
44,34432
45,34432
46,34432
47,34432
48,34496
49,34560
50,34560
51,34560
52,34560
53,34624
54,34688
55,34688
56,34688
57,34752
58,34752
59,34752
60,34752
61,34752
62,34688
63,34624
64,34624
65,34624
66,34624
67,34560
68,34496
69,34432
70,34432
71,34368
72,34368
73,34304
74,34240
75,34176
76,34048
77,34112
78,34240
79,34496
80,34752
81,35008
82,35200
83,35264
84,35200
85,35136
86,35136
87,35136
88,35200
89,35264
90,35264
91,35264
92,35200
93,35072
94,34944
95,34624
96,34240
97,33792
98,33344
99,33024
100,32704
101,32512
102,32448
103,32576
104,32640
105,32512
106,32576
107,32768
108,33024
109,33152
110,33280
111,33472
112,33600
113,33344
114,33088
115,33088
116,33472
117,34112
118,35456
119,37504
120,40128
121,43136
122,46272
123,48384
124,48384
125,45760
126,40960
127,35776
128,31680
129,29120
130,28032
131,27904
132,28352
133,29056
134,29760
135,30336
136,30720
137,31104
138,31360
139,31616
140,31808
141,32064
142,32192
143,32320
144,32448
145,32576
146,32704
147,32896
148,33024
149,33280
150,33408
151,33472
152,33536
153,33600
154,33600
155,33664
156,33728
157,33856
158,33856
159,33856
160,33856
161,33920
162,33984
163,33984
164,33984
165,34112
166,34176
167,34240
168,34304
169,34432
170,34560
171,34560
172,34624
173,34624
174,34624
175,34560
176,34560
177,34624
178,34688
179,34752
180,34816
181,34816
182,34880
183,34944
184,34880
185,34880
186,34816
187,34752
188,34688
189,34560
190,34496
191,34432
192,34368
193,34304
194,34304
195,34304
196,34240
197,34112
198,34112
199,34176
200,34176
201,34240
202,34304
203,34432
204,34496
205,34560
206,34624
207,34688
208,34688
209,34624
210,34560
211,34560
212,34560
213,34496
214,34560
215,34624
216,34752
217,34752
218,34752
219,34752
220,34752
221,34688
222,34624
223,34624
224,34624
225,34560
226,34496
227,34368
228,34368
229,34304
230,34240
231,34176
232,34176
233,34240
234,34304
235,34560
236,34880
237,35136
238,35200
239,35136
240,35200
241,35200
242,35200
243,35328
244,35520
245,35712
246,35712
247,35584
248,35456
249,35328
250,35072
251,34688
252,34240
253,33728
254,33344
255,33024
256,32768
257,32704
258,32768
259,32768
260,32896
261,33024
262,33152
263,33216
264,33280
265,33408
266,33472
267,33472
268,33408
269,33280
270,33280
271,33536
272,34048
273,35136
274,37056
275,39424
276,42496
277,45760
278,48384
279,49024
280,46848
281,42368
282,37184
283,32704
284,29568
285,28096
286,27840
287,28224
288,28736
289,29440
290,30016
291,30592
292,30976
293,31424
294,31808
295,32192
296,32384
297,32448
298,32512
299,32704
300,32896
301,33088
302,33280
303,33472
304,33536
305,33536
306,33536
307,33536
308,33600
309,33664
310,33728
311,33856
312,33920
313,33920
314,33984
315,34176
316,34176
317,34240
318,34368
319,34496
320,34432
321,34304
322,34560
323,34688
324,34816
325,35072
326,35264
327,35456
328,35392
329,35136
330,34880
331,34816
332,34816
333,34624
334,34496
335,34496
336,34560
337,34752
338,35072
339,35136
340,34944
341,34816
342,34816
343,34624
344,34112
345,33728
346,33600
347,33536
348,33472
349,33600
350,33664
351,33728
352,33856
353,34048
354,34048
355,34048
356,34112
357,34304
358,34432
359,34432
360,34432
361,34496
362,34496
363,34496
364,34496
365,34560
366,34624
367,34624
368,34624
369,34752
370,34752
371,34624
372,34432
373,34368
374,34432
375,34432
376,34432
377,34432
378,34368
379,34240
380,34112
381,34112
382,34176
383,34176
384,34176
385,34176
386,34112
387,34048
388,33984
389,34048
390,34176
391,34496
392,34816
393,35072
394,35200
395,35200
396,35200
397,35136
398,35200
399,35264
400,35328
401,35328
402,35392
403,35456
404,35392
405,35200
406,35008
407,34624
408,34112
409,33536
410,33088
411,32768
412,32640
413,32576
414,32640
415,32768
416,32832
417,32768
418,32768
419,32832
420,33088
421,33216
422,33280
423,33280
424,33216
425,32960
426,32768
427,33152
428,33792
429,34752
430,36480
431,38976
432,42048
433,45248
434,47872
435,48768
436,46976
437,42752
438,37568
439,32832
440,29440
441,27712
442,27136
443,27456
444,28224
445,28992
446,29568
447,30016
448,30336
449,30656
450,31040
451,31424
452,31744
453,31936
454,32064
455,32256
456,32448
457,32640
458,32768
459,32768
460,32896
461,33088
462,33152
463,32960
464,32832
465,32896
466,33024
467,33088
468,33152
469,33280
470,33216
471,33152
472,33088
473,33344
474,33600
475,33856
476,33984
477,34048
478,34048
479,34176
480,34240
481,34368
482,34496
483,34560
484,34496
485,34496
486,34624
487,34752
488,34688
489,34496
490,34304
491,34304
492,34304
493,34432
494,34560
495,34624
496,34560
497,34432
498,34368
499,34304
500,34304
501,34240
502,34112
503,34048
504,33984
505,33792
506,33664
507,33664
508,33536
509,33408
510,33344
511,33408
512,33536
513,33472
514,33600
515,33792
516,33984
517,33984
518,33920
519,33984
520,33984
521,33984
522,33920
523,33856
524,33920
525,33856
526,33792
527,33792
528,33664
529,33600
530,33536
531,33536
532,33600
533,33664
534,33728
535,33728
536,33728
537,33792
538,33920
539,34112
540,34240
541,34176
542,34112
543,33984
544,33984
545,34112
546,34240
547,34496
548,34624
549,34688
550,34624
551,34368
552,34112
553,33920
554,33600
555,33152
556,32768
557,32448
558,32128
559,31872
560,31680
561,31744
562,31808
563,31872
564,32000
565,32192
566,32320
567,32320
568,32384
569,32448
570,32512
571,32320
572,32064
573,31936
574,32128
575,32576
576,33408
577,35072
578,37504
579,40448
580,43584
581,46272
582,47296
583,46208
584,42944
585,38656
586,34304
587,30656
588,28096
589,26816
590,26624
591,27008
592,27776
593,28352
594,28992
595,29632
596,30080
597,30400
598,30784
599,31168
600,31424
601,31552
602,31808
603,32128
604,32256
605,32256
606,32320
607,32448
608,32512
609,32512
610,32576
611,32640
612,32704
613,32704
614,32768
615,32896
616,33024
617,33024
618,33088
619,33216
620,33280
621,33280
622,33216
623,33344
624,33408
625,33408
626,33344
627,33344
628,33408
629,33472
630,33280
631,33216
632,33408
633,33536
634,33664
635,33792
636,33856
637,33920
638,33856
639,33856
640,33984
641,34112
642,34176
643,34176
644,34176
645,34304
646,34176
647,34112
648,34112
649,34112
650,33984
651,33856
652,33792
653,33792
654,33728
655,33600
656,33600
657,33728
658,33792
659,33792
660,33792
661,33920
662,34048
663,34048
664,34112
665,34176
666,34240
667,34112
668,34112
669,34112
670,34176
671,34112
672,34112
673,34176
674,34176
675,34112
676,34048
677,34048
678,34112
679,34112
680,34112
681,34240
682,34432
683,34432
684,34432
685,34496
686,34624
687,34752
688,34752
689,34880
690,35008
691,35072
692,34944
693,34880
694,34816
695,34688
696,34368
697,33856
698,33536
699,33216
700,32896
701,32640
702,32512
703,32512
704,32448
705,32384
706,32384
707,32512
708,32576
709,32640
710,32832
711,33024
712,33216
713,33152
714,33024
715,32960
716,32896
717,32896
718,33088
719,33728
720,35072
721,36992
722,39616
723,42624
724,45568
725,47360
726,47360
727,45248
728,41536
729,37248
730,33280
731,30208
732,28352
733,27584
734,27712
735,28288
736,29056
737,29760
738,30272
739,30720
740,31168
741,31488
742,31744
743,31936
744,32256
745,32512
746,32576
747,32704
748,32832
749,33024
750,33088
751,33152
752,33216
753,33344
754,33408
755,33472
756,33536
757,33664
758,33728
759,33792
760,33856
761,34048
762,34112
763,33984
764,33984
765,34112
766,34176
767,34240
768,34304
769,34240
770,34048
771,33920
772,33856
773,33920
774,33984
775,33984
776,33920
777,34048
778,34176
779,34304
780,34368
781,34432
782,34560
783,34752
784,34880
785,34944
786,35008
787,35072
788,35008
789,34880
790,34752
791,34752
792,34688
793,34560
794,34496
795,34496
796,34496
797,34432
798,34432
799,34496
800,34496
801,34368
802,34368
803,34432
804,34496
805,34560
806,34496
807,34496
808,34496
809,34432
810,34432
811,34560
812,34624
813,34560
814,34432
815,34496
816,34496
817,34432
818,34368
819,34432
820,34496
821,34368
822,34368
823,34432
824,34624
825,34752
826,34752
827,34880
828,35008
829,35008
830,34880
831,34944
832,35072
833,35200
834,35264
835,35264
836,35264
837,35200
838,35072
839,34944
840,34752
841,34496
842,34112
843,33664
844,33280
845,32960
846,32768
847,32640
848,32640
849,32704
850,32768
851,32832
852,32960
853,33088
854,33216
855,33216
856,33280
857,33344
858,33344
859,33216
860,33024
861,33024
862,33472
863,33920
864,35072
865,37184
866,39744
867,42688
868,45824
869,48320
870,49024
871,47168
872,43072
873,38208
874,33792
875,30400
876,28416
877,27712
878,27840
879,28416
880,29120
881,29760
882,30400
883,30912
884,31232
885,31552
886,31872
887,32192
888,32384
889,32576
890,32768
891,32960
892,33088
893,33088
894,33280
895,33408
896,33408
897,33408
898,33536
899,33664
900,33728
901,33792
902,33856
903,33984
904,33984
905,33984
906,34048
907,34240
908,34240
909,34176
910,34176
911,34304
912,34304
913,34304
914,34368
915,34496
916,34496
917,34432
918,34432
919,34560
920,34624
921,34688
922,34752
923,34816
924,34880
925,34880
926,34816
927,34880
928,35008
929,35072
930,35008
931,35008
932,35072
933,34944
934,34816
935,34752
936,34752
937,34752
938,34624
939,34560
940,34496
941,34496
942,34368
943,34304
944,34304
945,34432
946,34432
947,34432
948,34496
949,34496
950,34560
951,34560
952,34624
953,34624
954,34624
955,34624
956,34624
957,34688
958,34688
959,34560
960,34560
961,34688
962,34752
963,34688
964,34624
965,34624
966,34624
967,34560
968,34496
969,34496
970,34496
971,34432
972,34496
973,34752
974,35136
975,35264
976,35264
977,35328
978,35456
979,35456
980,35392
981,35456
982,35456
983,35456
984,35264
985,35200
986,35200
987,35136
988,34880
989,34496
990,34112
991,33664
992,33216
993,32832
994,32640
995,32576
996,32576
997,32640
998,32704
999,32896
1000,32960
1001,33088
1002,33216
1003,33408
1004,33472
1005,33472
1006,33408
1007,33344
1008,33152
1009,33088
1010,33408
1011,34240
1012,36160
1013,37632
1014,40512
1015,43840
1016,47168
1017,49536
1018,49664
1019,46784
1020,41792
1021,36352
1022,31808
1023,28992
1024,27776
1025,27584
1026,27904
1027,28608
1028,29440
1029,30208
1030,30656
1031,31104
1032,31488
1033,31808
1034,32000
1035,32256
1036,32512
1037,32704
1038,32768
1039,32832
1040,32960
1041,33088
1042,33216
1043,33280
1044,33408
1045,33536
1046,33536
1047,33600
1048,33728
1049,33856
1050,33920
1051,33920
1052,33984
1053,34112
1054,34112
1055,34112
1056,34112
1057,34304
1058,34304
1059,34304
1060,34368
1061,34496
1062,34560
1063,34624
1064,34624
1065,34752
1066,34880
1067,34880
1068,34880
1069,34944
1070,35072
1071,35072
1072,35072
1073,35072
1074,35136
1075,35136
1076,35136
1077,35136
1078,35136
1079,35072
1080,35008
1081,34944
1082,34880
1083,34752
1084,34560
1085,34496
1086,34496
1087,34496
1088,34368
1089,34240
1090,34176
1091,34176
1092,34176
1093,34240
1094,34368
1095,34496
1096,34496
1097,34432
1098,34496
1099,34496
1100,34496
1101,34432
1102,34560
1103,34560
1104,34624
1105,34560
1106,34560
1107,34560
1108,34560
1109,34432
1110,34368
1111,34368
1112,34368
1113,34304
1114,34304
1115,34368
1116,34368
1117,34176
1118,34112
1119,34112
1120,34176
1121,34112
1122,34048
1123,34176
1124,34368
1125,34496
1126,34752
1127,35008
1128,35200
1129,35200
1130,35200
1131,35200
1132,35392
1133,35392
1134,35392
1135,35392
1136,35392
1137,35328
1138,35136
1139,35008
1140,34944
1141,34688
1142,34240
1143,33792
1144,33408
1145,33152
1146,32896
1147,32704
1148,32704
1149,32832
1150,32832
1151,32832
1152,32896
1153,33088
1154,33216
1155,33280
1156,33408
1157,33472
1158,33536
1159,33472
1160,33344
1161,33280
1162,33600
1163,33920
1164,34752
1165,36224
1166,38592
1167,41344
1168,44608
1169,47744
1170,49600
1171,48768
1172,45056
1173,39808
1174,34624
1175,30784
1176,28608
1177,27840
1178,27968
1179,28480
1180,29056
1181,29632
1182,30272
1183,30720
1184,31040
1185,31296
1186,31616
1187,31872
1188,32064
1189,32192
1190,32384
1191,32576
1192,32704
1193,32768
1194,32896
1195,33088
1196,33152
1197,33216
1198,33344
1199,33536
1200,33536
1201,33536
1202,33600
1203,33728
1204,33792
1205,33728
1206,33792
1207,33984
1208,33984
1209,33984
1210,33984
1211,34112
1212,34240
1213,34304
1214,34368
1215,34432
1216,34560
1217,34624
1218,34624
1219,34688
1220,34752
1221,34752
1222,34688
1223,34688
1224,34816
1225,34816
1226,34880
1227,34944
1228,35072
1229,35072
1230,34944
1231,34880
1232,34944
1233,34816
1234,34688
1235,34560
1236,34496
1237,34432
1238,34304
1239,34176
1240,34112
1241,34112
1242,33984
1243,33920
1244,33984
1245,34048
1246,34048
1247,33984
1248,34112
1249,34176
1250,34112
1251,34176
1252,34304
1253,34240
1254,34304
1255,34240
1256,34304
1257,34304
1258,34240
1259,34240
1260,34240
1261,34240
1262,34176
1263,34112
1264,34048
1265,34048
1266,34048
1267,34048
1268,34048
1269,34112
1270,34048
1271,33984
1272,33920
1273,33920
1274,33920
1275,33792
1276,33792
1277,33856
1278,33856
1279,33792
1280,33856
1281,33984
1282,34112
1283,34240
1284,34496
1285,34816
1286,34944
1287,34880
1288,34816
1289,34880
1290,34944
1291,35008
1292,35008
1293,35072
1294,35072
1295,34944
1296,34816
1297,34752
1298,34624
1299,34368
1300,33920
1301,33536
1302,33216
1303,32896
1304,32576
1305,32448
1306,32448
1307,32512
1308,32576
1309,32704
1310,32704
1311,32768
1312,32768
1313,32832
1314,32832
1315,33152
1316,33152
1317,33024
1318,32960
1319,33024
1320,33280
1321,33856
1322,35072
1323,36992
1324,39488
1325,42496
1326,45632
1327,48128
1328,48512
1329,46144
1330,41664
1331,36608
1332,32192
1333,29120
1334,27584
1335,27392
1336,27840
1337,28416
1338,29120
1339,29696
1340,30208
1341,30592
1342,30976
1343,31296
1344,31552
1345,31744
1346,31872
1347,32128
1348,32256
1349,32320
1350,32384
1351,32512
1352,32768
1353,32832
1354,32832
1355,32960
1356,33088
1357,33152
1358,33216
1359,33280
1360,33408
1361,33472
1362,33472
1363,33472
1364,33600
1365,33728
1366,33792
1367,33792
1368,33856
1369,33920
1370,33920
1371,33920
1372,33984
1373,34112
1374,34176
1375,34176
1376,34240
1377,34304
1378,34304
1379,34368
1380,34432
1381,34496
1382,34560
1383,34560
1384,34560
1385,34688
1386,34752
1387,34688
1388,34688
1389,34688
1390,34624
1391,34624
1392,34560
1393,34496
1394,34432
1395,34304
1396,34176
1397,34112
1398,34048
1399,33920
1400,33856
1401,33856
1402,33984
1403,33984
1404,33984
1405,33984
1406,34112
1407,34112
1408,34112
1409,34112
1410,34176
1411,34240
1412,34176
1413,34176
1414,34240
1415,34240
1416,34176
1417,34176
1418,34176
1419,34176
1420,34112
1421,34048
1422,34048
1423,34112
1424,34048
1425,33920
1426,33856
1427,33856
1428,33792
1429,33792
1430,33856
1431,33984
1432,34112
1433,34240
1434,34368
1435,34496
1436,34560
1437,34496
1438,34496
1439,34560
1440,34752
1441,34752
1442,34816
1443,34944
1444,35008
1445,34944
1446,34752
1447,34624
1448,34368
1449,33920
1450,33472
1451,33088
1452,32768
1453,32512
1454,32384
1455,32320
1456,32384
1457,32384
1458,32384
1459,32448
1460,32576
1461,32704
1462,32832
1463,32896
1464,33024
1465,33152
1466,33088
1467,32960
1468,32768
1469,32832
1470,33088
1471,33664
1472,34944
1473,36992
1474,39680
1475,42560
1476,45504
1477,47552
1478,47552
1479,45248
1480,41344
1481,36992
1482,32896
1483,29760
1484,27968
1485,27392
1486,27712
1487,28224
1488,28864
1489,29632
1490,30272
1491,30720
1492,31104
1493,31488
1494,31808
1495,32000
1496,32128
1497,32320
1498,32512
1499,32640
1500,32704
1501,32832
1502,33024
1503,33088
1504,33152
1505,33216
1506,33344
1507,33472
1508,33472
1509,33536
1510,33600
1511,33664
1512,33664
1513,33728
1514,33856
1515,33920
1516,33920
1517,33856
1518,33920
1519,33984
1520,33984
1521,33984
1522,34048
1523,34112
1524,34112
1525,34112
1526,34176
1527,34240
1528,34240
1529,34240
1530,34240
1531,34368
1532,34432
1533,34496
1534,34560
1535,34752
1536,34880
1537,34880
1538,34944
1539,34944
1540,34944
1541,34880
1542,34816
1543,34816
1544,34816
1545,34688
1546,34560
1547,34496
1548,34496
1549,34432
1550,34368
1551,34368
1552,34432
1553,34432
1554,34432
1555,34496
1556,34560
1557,34624
1558,34560
1559,34624
1560,34688
1561,34688
1562,34624
1563,34624
1564,34688
1565,34688
1566,34624
1567,34560
1568,34560
1569,34560
1570,34560
1571,34496
1572,34432
1573,34432
1574,34368
1575,34304
1576,34304
1577,34304
1578,34240
1579,34176
1580,34304
1581,34496
1582,34688
1583,34880
1584,35008
1585,35136
1586,35136
1587,35072
1588,35072
1589,35200
1590,35328
1591,35392
1592,35392
1593,35392
1594,35328
1595,35200
1596,34944
1597,34688
1598,34368
1599,33920
1600,33408
1601,33088
1602,32896
1603,32768
1604,32704
1605,32704
1606,32832
1607,32896
1608,32896
1609,32960
1610,33088
1611,33216
1612,33280
1613,33344
1614,33408
1615,33408
1616,33216
1617,33088
1618,33152
1619,33536
1620,34176
1621,35456
1622,37568
1623,40320
1624,43392
1625,46208
1626,48128
1627,48000
1628,45440
1629,41088
1630,36416
1631,32320
1632,29440
1633,27968
1634,27648
1635,28096
1636,28736
1637,29376
1638,29952
1639,30592
1640,31040
1641,31360
1642,31616
1643,31936
1644,32192
1645,32320
1646,32448
1647,32704
1648,32896
1649,33024
1650,33088
1651,33216
1652,33408
1653,33472
1654,33472
1655,33536
1656,33664
1657,33664
1658,33664
1659,33664
1660,33728
1661,33792
1662,33792
1663,33792
1664,33920
1665,33984
1666,33984
1667,33984
1668,34048
1669,34112
1670,34112
1671,34112
1672,34176
1673,34304
1674,34368
1675,34368
1676,34432
1677,34496
1678,34496
1679,34432
1680,34432
1681,34560
1682,34688
1683,34816
1684,34880
1685,35008
1686,35008
1687,35008
1688,35008
1689,35008
1690,35008
1691,34944
1692,34816
1693,34752
1694,34752
1695,34624
1696,34560
1697,34496
1698,34496
1699,34496
1700,34496
1701,34496
1702,34624
1703,34624
1704,34560
1705,34624
1706,34624
1707,34624
1708,34560
1709,34560
1710,34624
1711,34624
1712,34560
1713,34496
1714,34560
1715,34560
1716,34496
1717,34432
1718,34496
1719,34496
1720,34368
1721,34304
1722,34368
1723,34368
1724,34240
1725,34176
1726,34112
1727,34112
1728,34048
1729,33984
1730,33920
1731,33984
1732,33984
1733,33920
1734,33856
1735,34048
1736,34304
1737,34560
1738,34816
1739,35008
1740,35136
1741,35136
1742,35136
1743,35200
1744,35328
1745,35328
1746,35392
1747,35392
1748,35392
1749,35200
1750,34944
1751,34752
1752,34496
1753,34048
1754,33536
1755,33152
1756,32896
1757,32704
1758,32512
1759,32512
1760,32576
1761,32704
1762,32704
1763,32768
1764,32960
1765,33088
1766,33088
1767,33152
1768,33280
1769,33344
1770,33216
1771,33024
1772,33024
1773,33280
1774,33856
1775,34816
1776,36608
1777,39168
1778,42176
1779,45376
1780,48256
1781,49344
1782,47616
1783,43264
1784,37760
1785,32960
1786,29696
1787,27968
1788,27520
1789,27840
1790,28480
1791,29120
1792,29696
1793,30272
1794,30784
1795,31168
1796,31424
1797,31744
1798,32000
1799,32192
1800,32384
1801,32640
1802,32832
1803,32960
1804,33216
1805,33536
1806,33792
1807,33920
1808,33920
1809,33984
1810,34368
1811,35072
1812,35456
1813,35264
1814,34880
1815,34432
1816,34112
1817,34368
1818,34880
1819,34880
1820,34688
1821,35136
1822,35776
1823,35712
1824,35328
1825,35072
1826,34688
1827,34560
1828,34560
1829,34496
1830,34496
1831,34240
1832,34112
1833,34048
1834,33792
1835,33344
1836,33024
1837,33216
1838,33728
1839,34432
1840,35136
1841,35648
1842,35776
1843,35904
1844,35904
1845,35840
1846,35904
1847,36032
1848,35968
1849,35584
1850,35136
1851,34816
1852,34880
1853,34880
1854,34752
1855,34624
1856,34624
1857,34688
1858,34688
1859,34816
1860,34944
1861,35008
1862,34816
1863,34688
1864,34752
1865,34880
1866,34880
1867,34752
1868,34752
1869,34688
1870,34560
1871,34432
1872,34304
1873,34304
1874,34368
1875,34432
1876,34496
1877,34496
1878,34368
1879,34240
1880,34304
1881,34432
1882,34496
1883,34368
1884,34304
1885,34368
1886,34368
1887,34432
1888,34496
1889,34368
1890,34240
1891,34240
1892,34368
1893,34624
1894,34880
1895,35008
1896,35200
1897,35328
1898,35456
1899,35392
1900,35200
1901,35072
1902,35008
1903,35136
1904,35392
1905,35456
1906,35136
1907,34624
1908,34112
1909,33856
1910,33664
1911,33216
1912,32896
1913,32704
1914,32640
1915,32576
1916,32512
1917,32576
1918,32640
1919,32896
1920,33216
1921,33344
1922,33408
1923,33536
1924,33728
1925,33600
1926,33536
1927,33728
1928,34368
1929,35264
1930,36928
1931,39296
1932,41920
1933,44672
1934,47680
1935,49728
1936,48960
1937,44992
1938,39808
1939,34816
1940,30784
1941,28288
1942,27072
1943,27008
1944,27712
1945,28480
1946,29120
1947,29696
1948,30400
1949,31040
1950,31488
1951,31616
1952,31744
1953,31936
1954,32192
1955,32448
1956,32704
1957,32896
1958,32960
1959,32960
1960,32960
1961,33024
1962,33088
1963,33280
1964,33408
1965,33472
1966,33408
1967,33472
1968,33664
1969,33536
1970,33536
1971,33920
1972,34240
1973,34176
1974,34048
1975,34112
1976,34048
1977,33984
1978,33920
1979,34048
1980,34368
1981,34624
1982,34624
1983,34496
1984,34688
1985,34880
1986,34624
1987,34304
1988,34240
1989,34368
1990,34496
1991,34752
1992,34816
1993,34880
1994,35008
1995,35200
1996,35264
1997,35264
1998,35072
1999,34880
2000,34816
2001,34880
2002,34880
2003,34688
2004,34432
2005,34304
2006,34368
2007,34304
2008,34368
2009,34496
2010,34432
2011,34368
2012,34432
2013,34496
2014,34496
2015,34560
2016,34432
2017,34496
2018,34624
2019,34688
2020,34816
2021,34880
2022,35072
2023,35008
2024,34624
2025,34304
2026,34176
2027,34112
2028,33792
2029,33536
2030,33664
2031,33856
2032,33984
2033,33984
2034,33984
2035,34176
2036,34304
2037,34496
2038,34688
2039,34816
2040,34816
2041,34688
2042,34560
2043,34496
2044,34496
2045,34496
2046,34432
2047,34240
2048,33920
2049,33792
2050,33600
2051,33536
2052,33344
2053,33024
2054,32704
2055,32512
2056,32256
2057,32064
2058,31808
2059,31552
2060,31488
2061,31616
2062,32000
2063,31808
2064,31872
2065,32064
2066,32128
2067,32064
2068,32384
2069,32768
2070,32896
2071,32896
2072,33152
2073,33280
2074,33344
2075,33920
2076,34688
2077,35904
2078,37824
2079,40640
2080,44032
2081,47168
2082,48768
2083,48000
2084,44544
2085,39744
2086,34880
2087,30848
2088,28288
2089,27136
2090,27072
2091,27584
2092,28288
2093,28992
2094,29568
2095,29952
2096,30336
2097,30720
2098,30976
2099,31168
2100,31296
2101,31424
2102,31552
2103,31616
2104,31808
2105,32064
2106,32192
2107,32192
2108,32192
2109,32128
2110,32192
2111,32128
2112,32192
2113,32256
2114,32192
2115,32256
2116,32320
2117,32320
2118,32448
2119,32576
2120,32704
2121,32768
2122,32768
2123,32832
2124,32896
2125,32960
2126,32960
2127,32960
2128,32896
2129,32896
2130,32960
2131,33024
2132,32896
2133,32832
2134,32768
2135,32832
2136,32896
2137,32832
2138,32896
2139,33088
2140,33152
2141,33216
2142,33408
2143,33472
2144,33472
2145,33408
2146,33408
2147,33536
2148,33472
2149,33152
2150,32896
2151,32832
2152,32896
2153,32896
2154,32832
2155,32768
2156,32704
2157,32832
2158,33088
2159,33280
2160,33344
2161,33280
2162,33088
2163,33024
2164,33088
2165,32960
2166,32640
2167,32576
2168,32640
2169,32704
2170,32704
2171,32640
2172,32640
2173,32704
2174,32704
2175,32640
2176,32512
2177,32384
2178,32320
2179,32320
2180,32320
2181,32576
2182,32896
2183,32960
2184,32960
2185,33088
2186,33088
2187,33088
2188,33024
2189,33152
2190,33216
2191,33088
2192,32960
2193,32960
2194,32960
2195,32704
2196,32448
2197,32192
2198,31936
2199,31552
2200,31296
2201,31104
2202,30976
2203,30784
2204,30720
2205,30784
2206,30848
2207,30976
2208,31040
2209,31040
2210,31040
2211,31040
2212,30912
2213,30784
2214,30784
2215,30592
2216,30400
2217,30592
2218,31168
2219,31872
2220,33088
2221,35328
2222,38144
2223,41344
2224,44352
2225,46208
2226,46080
2227,43200
2228,38528
2229,33920
2230,29568
2231,26688
2232,25280
2233,24960
2234,25472
2235,26368
2236,27136
2237,27648
2238,28096
2239,28544
2240,28928
2241,29248
2242,29504
2243,29632
2244,29760
2245,29952
2246,30208
2247,30464
2248,30720
2249,30912
2250,31040
2251,31168
2252,31296
2253,31296
2254,31360
2255,31488
2256,31616
2257,31744
2258,31744
2259,31808
2260,31936
2261,32064
2262,32192
2263,32384
2264,32576
2265,32640
2266,32512
2267,32384
2268,32384
2269,32512
2270,32704
2271,32768
2272,32704
2273,32640
2274,32384
2275,32256
2276,32256
2277,32384
2278,32448
2279,32576
2280,32640
2281,32768
2282,32768
2283,32832
2284,32896
2285,33024
2286,33024
2287,33088
2288,33152
2289,33216
2290,33152
2291,32896
2292,32640
2293,32512
2294,32384
2295,32256
2296,32256
2297,32256
2298,32320
2299,32384
2300,32448
2301,32576
2302,32704
2303,32832
2304,32960
2305,33216
2306,33344
2307,33344
2308,33408
2309,33408
2310,33408
2311,33280
2312,33088
2313,32960
2314,32960
2315,32960
2316,32896
2317,32896
2318,33088
2319,33280
2320,33408
2321,33600
2322,33856
2323,33984
2324,33920
2325,33792
2326,33856
2327,34048
2328,34176
2329,34240
2330,34240
2331,34304
2332,34432
2333,34496
2334,34432
2335,34240
2336,33984
2337,33728
2338,33408
2339,33088
2340,32768
2341,32448
2342,32128
2343,32128
2344,32128
2345,32064
2346,32128
2347,32320
2348,32448
2349,32448
2350,32448
2351,32576
2352,32832
2353,32960
2354,32896
2355,32640
2356,32320
2357,32128
2358,32384
2359,33216
2360,34752
2361,36864
2362,39936
2363,42944
2364,46144
2365,48000
2366,47872
2367,45248
2368,40960
2369,36224
2370,32064
2371,29120
2372,27648
2373,27328
2374,27584
2375,28224
2376,28928
2377,29760
2378,30336
2379,30784
2380,31168
2381,31424
2382,31616
2383,31872
2384,32128
2385,32320
2386,32448
2387,32640
2388,32768
2389,32832
2390,32832
2391,32832
2392,32832
2393,32960
2394,33088
2395,33280
2396,33344
2397,33408
2398,33536
2399,33600
2400,33728
2401,33728
2402,33664
2403,33536
2404,33664
2405,33792
2406,33984
2407,33920
2408,33728
2409,33728
2410,33856
2411,33984
2412,33984
2413,34048
2414,34112
2415,34176
2416,34240
2417,34304
2418,34496
2419,34560
2420,34496
2421,34560
2422,34624
2423,34752
2424,34944
2425,34944
2426,34880
2427,34688
2428,34432
2429,34176
2430,34112
2431,34112
2432,34048
2433,33920
2434,33984
2435,34112
2436,34240
2437,34240
2438,34176
2439,34176
2440,34240
2441,34240
2442,34304
2443,34304
2444,34368
2445,34496
2446,34560
2447,34496
2448,34496
2449,34432
2450,34496
2451,34624
2452,34688
2453,34624
2454,34624
2455,34752
2456,34880
2457,35008
2458,35072
2459,35264
2460,35456
2461,35520
2462,35456
2463,35264
2464,35328
2465,35456
2466,35520
2467,35584
2468,35648
2469,35648
2470,35520
2471,35456
2472,35392
2473,35264
2474,34816
2475,34496
2476,34176
2477,33792
2478,33472
2479,33152
2480,33152
2481,33280
2482,33344
2483,33344
2484,33472
2485,33600
2486,33600
2487,33600
2488,33728
2489,33856
2490,33920
2491,33728
2492,33472
2493,33344
2494,33536
2495,33984
2496,35072
2497,37376
2498,39808
2499,43008
2500,46400
2501,48896
2502,49664
2503,47872
2504,43840
2505,38912
2506,34304
2507,30848
2508,28864
2509,28224
2510,28352
2511,28864
2512,29568
2513,30208
2514,30784
2515,31168
2516,31552
2517,31936
2518,32320
2519,32576
2520,32768
2521,32960
2522,33216
2523,33472
2524,33664
2525,33792
2526,33856
2527,33920
2528,33856
2529,33920
2530,34048
2531,34176
2532,34176
2533,34112
2534,34176
2535,34304
2536,34304
2537,34304
2538,34432
2539,34624
2540,34688
2541,34624
2542,34688
2543,34752
2544,34816
2545,34752
2546,34752
2547,34752
2548,34752
2549,34752
2550,34816
2551,34880
2552,35008
2553,35008
2554,35008
2555,35072
2556,35200
2557,35264
2558,35264
2559,35328
2560,35392
2561,35520
2562,35520
2563,35456
2564,35328
2565,35200
2566,35200
2567,35136
2568,35200
2569,35072
2570,34944
2571,34880
2572,34752
2573,34624
2574,34496
2575,34432
2576,34560
2577,34688
2578,34688
2579,34688
2580,34816
2581,34944
2582,35008
2583,35008
2584,34944
2585,34944
2586,34944
2587,35008
2588,35072
2589,35008
2590,35008
2591,35072
2592,35264
2593,35520
2594,35776
2595,36032
2596,35968
2597,35712
2598,35520
2599,35520
2600,35520
2601,35520
2602,35456
2603,35456
2604,35392
2605,35456
2606,35520
2607,35520
2608,35456
2609,35328
2610,35072
2611,34688
2612,34240
2613,33856
2614,33664
2615,33472
2616,33152
2617,32960
2618,32960
2619,32960
2620,32960
2621,32896
2622,32896
2623,33088
2624,33216
2625,33408
2626,33472
2627,33472
2628,33216
2629,33024
2630,33088
2631,33536
2632,35008
2633,36608
2634,39424
2635,42816
2636,46400
2637,49472
2638,50624
2639,48768
2640,44032
2641,38336
2642,33408
2643,30016
2644,28288
2645,27712
2646,27968
2647,28800
2648,29376
2649,30016
2650,30528
2651,30976
2652,31360
2653,31680
2654,31872
2655,32128
2656,32320
2657,32448
2658,32640
2659,32832
2660,33088
2661,33344
2662,33472
2663,33664
2664,33792
2665,33856
2666,33856
2667,33856
2668,33920
2669,33920
2670,33856
2671,33856
2672,33984
2673,34048
2674,34176
2675,34240
2676,34304
2677,34368
2678,34304
2679,34368
2680,34304
2681,34304
2682,34368
2683,34432
2684,34496
2685,34688
2686,34816
2687,34944
2688,34944
2689,35008
2690,35072
2691,35072
2692,35072
2693,35136
2694,35200
2695,35136
2696,35072
2697,35072
2698,35008
2699,34944
2700,34880
2701,34880
2702,34880
2703,34880
2704,34880
2705,34944
2706,34880
2707,34624
2708,34432
2709,34368
2710,34432
2711,34432
2712,34368
2713,34304
2714,34432
2715,34432
2716,34432
2717,34496
2718,34624
2719,34688
2720,34752
2721,34880
2722,35072
2723,35008
2724,34880
2725,34752
2726,34752
2727,34816
2728,34816
2729,35008
2730,35328
2731,35584
2732,35584
2733,35456
2734,35520
2735,35648
2736,35712
2737,35840
2738,35968
2739,35968
2740,35776
2741,35584
2742,35328
2743,35072
2744,34880
2745,34560
2746,34304
2747,33984
2748,33600
2749,33152
2750,32832
2751,32768
2752,32896
2753,33024
2754,32896
2755,32768
2756,32832
2757,32960
2758,32960
2759,32960
2760,33024
2761,33088
2762,32832
2763,32576
2764,32576
2765,32832
2766,33536
2767,35008
2768,37504
2769,40768
2770,44416
2771,47936
2772,50048
2773,49536
2774,46016
2775,40768
2776,35520
2777,31360
2778,28864
2779,27776
2780,27776
2781,28352
2782,29120
2783,29568
2784,30016
2785,30528
2786,30912
2787,31232
2788,31552
2789,31808
2790,32000
2791,32128
2792,32256
2793,32448
2794,32640
2795,32832
2796,33024
2797,33216
2798,33280
2799,33344
2800,33536
2801,33664
2802,33728
2803,33728
2804,33792
2805,33856
2806,33984
2807,33984
2808,33920
2809,33920
2810,34048
2811,34112
2812,34240
2813,34304
2814,34432
2815,34432
2816,34432
2817,34560
2818,34624
2819,34560
2820,34368
2821,34176
2822,34240
2823,34560
2824,34944
2825,35264
2826,35456
2827,35328
2828,35008
2829,34880
2830,34816
2831,34816
2832,34752
2833,34816
2834,34944
2835,35136
2836,35392
2837,35520
2838,35520
2839,35136
2840,34624
2841,34368
2842,34176
2843,34048
2844,33856
2845,33728
2846,33792
2847,33856
2848,34048
2849,34176
2850,34176
2851,34112
2852,34112
2853,34112
2854,34240
2855,34368
2856,34496
2857,34560
2858,34560
2859,34624
2860,34688
2861,34624
2862,34560
2863,34752
2864,35072
2865,35200
2866,35264
2867,35328
2868,35392
2869,35392
2870,35264
2871,35200
2872,35328
2873,35392
2874,35264
2875,35136
2876,35072
2877,35072
2878,34816
2879,34368
2880,33856
2881,33472
2882,33088
2883,32896
2884,32704
2885,32640
2886,32512
2887,32512
2888,32512
2889,32640
2890,32832
2891,33024
2892,33152
2893,33216
2894,33280
2895,33024
2896,32704
2897,32640
2898,32704
2899,32832
2900,33728
2901,35584
2902,39360
2903,41792
2904,45248
2905,48128
2906,49152
2907,47488
2908,43392
2909,38272
2910,33472
2911,29952
2912,28096
2913,27584
2914,27840
2915,28352
2916,28992
2917,29824
2918,30272
2919,30784
2920,31168
2921,31488
2922,31744
2923,32000
2924,32192
2925,32320
2926,32512
2927,32704
2928,32768
2929,32832
2930,33024
2931,33216
2932,33344
2933,33344
2934,33472
2935,33600
2936,33600
2937,33600
2938,33664
2939,33728
2940,33792
2941,33920
2942,33984
2943,34112
2944,34240
2945,34304
2946,34304
2947,34368
2948,34368
2949,34368
2950,34432
2951,34368
2952,34368
2953,34368
2954,34496
2955,34624
2956,34752
2957,34816
2958,34816
2959,34880
2960,35072
2961,35200
2962,35328
2963,35392
2964,35520
2965,35584
2966,35584
2967,35648
2968,35712
2969,35840
2970,35840
2971,35840
2972,35904
2973,35904
2974,35776
2975,35584
2976,35520
2977,35520
2978,35520
2979,35520
2980,35520
2981,35456
2982,35328
2983,35328
2984,35328
2985,35328
2986,35200
2987,35008
2988,34944
2989,34944
2990,34880
2991,34816
2992,34688
2993,34496
2994,34304
2995,34112
2996,34048
2997,34112
2998,34240
2999,34368
3000,34624
3001,34944
3002,35072
3003,35072
3004,35008
3005,35072
3006,35136
3007,35136
3008,35200
3009,35264
3010,35328
3011,35264
3012,35136
3013,34944
3014,34816
3015,34560
3016,34112
3017,33728
3018,33344
3019,32960
3020,32704
3021,32512
3022,32512
3023,32448
3024,32448
3025,32512
3026,32576
3027,32704
3028,32768
3029,32832
3030,32896
3031,32896
3032,32704
3033,32384
3034,32192
3035,32448
3036,33152
3037,34624
3038,36992
3039,40128
3040,43584
3041,46848
3042,48832
3043,48448
3044,45184
3045,40000
3046,34688
3047,30528
3048,28032
3049,27008
3050,26944
3051,27392
3052,28224
3053,28544
3054,29056
3055,29504
3056,29952
3057,30272
3058,30528
3059,30720
3060,30912
3061,31040
3062,31168
3063,31296
3064,31424
3065,31488
3066,31552
3067,31616
3068,31680
3069,31744
3070,31936
3071,32000
3072,32064
3073,32128
3074,32192
3075,32192
3076,32192
3077,32192
3078,32192
3079,32256
3080,32320
3081,32256
3082,32320
3083,32384
3084,32384
3085,32384
3086,32320
3087,32320
3088,32384
3089,32384
3090,32448
3091,32448
3092,32512
3093,32512
3094,32512
3095,32448
3096,32704
3097,32704
3098,32704
3099,33024
3100,33216
3101,33344
3102,33408
3103,33408
3104,33408
3105,33344
3106,33216
3107,33088
3108,32960
3109,32960
3110,32896
3111,32768
3112,32704
3113,32704
3114,32768
3115,32704
3116,32768
3117,32832
3118,32832
3119,32832
3120,32896
3121,32896
3122,32896
3123,32896
3124,32896
3125,32832
3126,32832
3127,32768
3128,32768
3129,32704
3130,32704
3131,32640
3132,32576
3133,32512
3134,32512
3135,32512
3136,32448
3137,32384
3138,32384
3139,32384
3140,32384
3141,32576
3142,32512
3143,33216
3144,33344
3145,33408
3146,33408
3147,33408
3148,33408
3149,33472
3150,33600
3151,33728
3152,33728
3153,33664
3154,33600
3155,33536
3156,33088
3157,32960
3158,32384
3159,31936
3160,31552
3161,31168
3162,30976
3163,30912
3164,30848
3165,30912
3166,30976
3167,31104
3168,31232
3169,31296
3170,31296
3171,31616
3172,31552
3173,31360
3174,31104
3175,31168
3176,31488
3177,32320
3178,33984
3179,36544
3180,39744
3181,43072
3182,46208
3183,47872
3184,46976
3185,43200
3186,37376
3187,37056
3188,29056
3189,26944
3190,26176
3191,26368
3192,27008
3193,27648
3194,28288
3195,28800
3196,29312
3197,29696
3198,30016
3199,30272
3200,30528
3201,30912
3202,30848
3203,31232
3204,31424
3205,31552
3206,31680
3207,31744
3208,31872
3209,32000
3210,32064
3211,32128
3212,32192
3213,32320
3214,32384
3215,32512
3216,32576
3217,32704
3218,32768
3219,32832
3220,32832
3221,32960
3222,32960
3223,33024
3224,33024
3225,33152
3226,33152
3227,33216
3228,33216
3229,33280
3230,33344
3231,33344
3232,33344
3233,33408
3234,33472
3235,33472
3236,33536
3237,33664
3238,33792
3239,33920
3240,34048
3241,34240
3242,34432
3243,34496
3244,34560
3245,34624
3246,34624
3247,34624
3248,34496
3249,34432
3250,34368
3251,34304
3252,34176
3253,34112
3254,34048
3255,34112
3256,34112
3257,34112
3258,34176
3259,34240
3260,34304
3261,34304
3262,34304
3263,34304
3264,34368
3265,34304
3266,34304
3267,34304
3268,34304
3269,34240
3270,34176
3271,34176
3272,34112
3273,34048
3274,34048
3275,33984
3276,33984
3277,33856
3278,33792
3279,33792
3280,33792
3281,33728
3282,33728
3283,33728
3284,33728
3285,33664
3286,33664
3287,33792
3288,34048
3289,34368
3290,34624
3291,34752
3292,34816
3293,34816
3294,34752
3295,34688
3296,34688
3297,34816
3298,34880
3299,34944
3300,35008
3301,34880
3302,34688
3303,34432
3304,34048
3305,33600
3306,33152
3307,32768
3308,32512
3309,32384
3310,32320
3311,32320
3312,32384
3313,32512
3314,32640
3315,32704
3316,32832
3317,32960
3318,33024
3319,32832
3320,32640
3321,32704
3322,33088
3323,33792
3324,35200
3325,37376
3326,40256
3327,43456
3328,46528
3329,48384
3330,48000
3331,44800
3332,40000
3333,35072
3334,31040
3335,28544
3336,27520
3337,27520
3338,28032
3339,28736
3340,29376
3341,29952
3342,30464
3343,30784
3344,31104
3345,31360
3346,31616
3347,31808
3348,32000
3349,32128
3350,32256
3351,32448
3352,32576
3353,32704
3354,32832
3355,32960
3356,33024
3357,33088
3358,33152
3359,33280
3360,33280
3361,33344
3362,33408
3363,33536
3364,33600
3365,33600
3366,33664
3367,33728
3368,33792
3369,33792
3370,33792
3371,33856
3372,33920
3373,33920
3374,33920
3375,33984
3376,34048
3377,34048
3378,33984
3379,33984
3380,34048
3381,33984
3382,33920
3383,33984
3384,34112
3385,34176
3386,34304
3387,34496
3388,34624
3389,34688
3390,34688
3391,34688
3392,34688
3393,34624
3394,34560
3395,34432
3396,34368
3397,34240
3398,34176
3399,34112
3400,34176
3401,34176
3402,34112
3403,34176
3404,34240
3405,34240
3406,34304
3407,34368
3408,34432
3409,34496
3410,34496
3411,34496
3412,34496
3413,34496
3414,34432
3415,34368
3416,34304
3417,34304
3418,34240
3419,34176
3420,34112
3421,34112
3422,34048
3423,33920
3424,33920
3425,33984
3426,34112
3427,34304
3428,34496
3429,34624
3430,34624
3431,34624
3432,34624
3433,34624
3434,34688
3435,34816
3436,34944
3437,35008
3438,35136
3439,35136
3440,35008
3441,34880
3442,34560
3443,34176
3444,33728
3445,33408
3446,33024
3447,32768
3448,32576
3449,32512
3450,32512
3451,32640
3452,32704
3453,32768
3454,32896
3455,33024
3456,33152
3457,33152
3458,33088
3459,32960
3460,32896
3461,32960
3462,33472
3463,34496
3464,36288
3465,38784
3466,41728
3467,44736
3468,46912
3469,47424
3470,45824
3471,42304
3472,37952
3473,33792
3474,30592
3475,28672
3476,27904
3477,27904
3478,28480
3479,29184
3480,29952
3481,30528
3482,31040
3483,31552
3484,31872
3485,32128
3486,32320
3487,32512
3488,32704
3489,32896
3490,33024
3491,33216
3492,33344
3493,33472
3494,33536
3495,33664
3496,33728
3497,33856
3498,33856
3499,33984
3500,34048
3501,34112
3502,34176
3503,34240
3504,34304
3505,34304
3506,34304
3507,34304
3508,34432
3509,34432
3510,34432
3511,34432
3512,34432
3513,34496
3514,34432
3515,34496
3516,34496
3517,34560
3518,34560
3519,34624
3520,34624
3521,34752
3522,34816
3523,34944
3524,35072
3525,35200
3526,35328
3527,35392
3528,35456
3529,35520
3530,35520
3531,35520
3532,35392
3533,35392
3534,35264
3535,35136
3536,35072
3537,35008
3538,34944
3539,34944
3540,34880
3541,34880
3542,34880
3543,34880
3544,34752
3545,34752
3546,34752
3547,34816
3548,34816
3549,34880
3550,34880
3551,34816
3552,34816
3553,34752
3554,34752
3555,34752
3556,34688
3557,34624
3558,34560
3559,34496
3560,34496
3561,34432
3562,34432
3563,34432
3564,34432
3565,34432
3566,34560
3567,34816
3568,34944
3569,35008
3570,34944
3571,34944
3572,34880
3573,34880
3574,35008
3575,35072
3576,35136
3577,35136
3578,35072
3579,35008
3580,34752
3581,34496
3582,34048
3583,33600
3584,33152
3585,32768
3586,32448
3587,32256
3588,32192
3589,32128
3590,32128
3591,32192
3592,32320
3593,32384
3594,32512
3595,32576
3596,32576
3597,32448
3598,32128
3599,32000
3600,32320
3601,32960
3602,34304
3603,36544
3604,39488
3605,42752
3606,45952
3607,48192
3608,48320
3609,45632
3610,40832
3611,35520
3612,31040
3613,28160
3614,26752
3615,26496
3616,26880
3617,27520
3618,28160
3619,28672
3620,29184
3621,29568
3622,29952
3623,30208
3624,30464
3625,30720
3626,30912
3627,31104
3628,31232
3629,31424
3630,31552
3631,31616
3632,31744
3633,31808
3634,31872
3635,31936
3636,31936
3637,32064
3638,32192
3639,32256
3640,32384
3641,32384
3642,32448
3643,32448
3644,32448
3645,32448
3646,32512
3647,32512
3648,32512
3649,32512
3650,32576
3651,32576
3652,32512
3653,32512
3654,32576
3655,32640
3656,32576
3657,32576
3658,32576
3659,32640
3660,32640
3661,32704
3662,32768
3663,32896
3664,33024
3665,33152
3666,33216
3667,33344
3668,33344
3669,33344
3670,33344
3671,33280
3672,33216
3673,33152
3674,33088
3675,33024
3676,32896
3677,32768
3678,32704
3679,32704
3680,32704
3681,32704
3682,32704
3683,32768
3684,32832
3685,32832
3686,32832
3687,32832
3688,32896
3689,32896
3690,32896
3691,32896
3692,32896
3693,32832
3694,32832
3695,32768
3696,32768
3697,32704
3698,32640
3699,32576
3700,32576
3701,32640
3702,32704
3703,32896
3704,33216
3705,33408
3706,33472
3707,33408
3708,33472
3709,33472
3710,33536
3711,33600
3712,33664
3713,33728
3714,33664
3715,33600
3716,33472
3717,33344
3718,33152
3719,32768
3720,32256
3721,31808
3722,31424
3723,31104
3724,30912
3725,30912
3726,30912
3727,30912
3728,30976
3729,31104
3730,31232
3731,31360
3732,31488
3733,31552
3734,31488
3735,31232
3736,31104
3737,31360
3738,32000
3739,33280
3740,35456
3741,38400
3742,41920
3743,45056
3744,47488
3745,47680
3746,45056
3747,40256
3748,34944
3749,30528
3750,27840
3751,26624
3752,26496
3753,26944
3754,27648
3755,28224
3756,28800
3757,29312
3758,29696
3759,30080
3760,30464
3761,30720
3762,30976
3763,31168
3764,31296
3765,31488
3766,31616
3767,31744
3768,31872
3769,32000
3770,32064
3771,32256
3772,32384
3773,32384
3774,32512
3775,32640
3776,32768
3777,32832
3778,32896
3779,32960
3780,33024
3781,33024
3782,33088
3783,33152
3784,33216
3785,33152
3786,33152
3787,33216
3788,33280
3789,33344
3790,33344
3791,33344
3792,33344
3793,33344
3794,33408
3795,33408
3796,33472
3797,33536
3798,33600
3799,33728
3800,33856
3801,34048
3802,34112
3803,34240
3804,34304
3805,34432
3806,34432
3807,34368
3808,34368
3809,34304
3810,34240
3811,34112
3812,34048
3813,33984
3814,33920
3815,33792
3816,33792
3817,33856
3818,33920
3819,33920
3820,33984
3821,34048
3822,34112
3823,34112
3824,34176
3825,34240
3826,34240
3827,34240
3828,34176
3829,34240
3830,34240
3831,34176
3832,34112
3833,34112
3834,34112
3835,34048
3836,33984
3837,33984
3838,33984
3839,33920
3840,33984
3841,34112
3842,34368
3843,34560
3844,34624
3845,34624
3846,34624
3847,34624
3848,34560
3849,34624
3850,34752
3851,34816
3852,34816
3853,34816
3854,34752
3855,34624
3856,34432
3857,34176
3858,33728
3859,33280
3860,32832
3861,32512
3862,32320
3863,32256
3864,32256
3865,32256
3866,32320
3867,32448
3868,32512
3869,32576
3870,32704
3871,32768
3872,32704
3873,32448
3874,32320
3875,32384
3876,32896
3877,33856
3878,35712
3879,38336
3880,41600
3881,44928
3882,47744
3883,48768
3884,46976
3885,42752
3886,37504
3887,32832
3888,29568
3889,27840
3890,27392
3891,27712
3892,28416
3893,29056
3894,29632
3895,30144
3896,30656
3897,30976
3898,31296
3899,31552
3900,31808
3901,32064
3902,32256
3903,32448
3904,32576
3905,32768
3906,32832
3907,32960
3908,33088
3909,33152
3910,33216
3911,33280
3912,33408
3913,33536
3914,33600
3915,33600
3916,33664
3917,33728
3918,33792
3919,33792
3920,33856
3921,33920
3922,33920
3923,33920
3924,33920
3925,33984
3926,34048
3927,34048
3928,34048
3929,34048
3930,34048
3931,34048
3932,34112
3933,34176
3934,34240
3935,34240
3936,34240
3937,34368
3938,34496
3939,34560
3940,34688
3941,34816
3942,34944
3943,34944
3944,34944
3945,34944
3946,34944
3947,34880
3948,34752
3949,34688
3950,34560
3951,34496
3952,34368
3953,34304
3954,34304
3955,34368
3956,34368
3957,34368
3958,34432
3959,34496
3960,34560
3961,34624
3962,34688
3963,34752
3964,34688
3965,34624
3966,34624
3967,34688
3968,34624
3969,34624
3970,34560
3971,34560
3972,34560
3973,34496
3974,34432
3975,34432
3976,34368
3977,34304
3978,34240
3979,34240
3980,34240
3981,34176
3982,34176
3983,34304
3984,34496
3985,34752
3986,34944
3987,35008
3988,35008
3989,35008
3990,35008
3991,35008
3992,35136
3993,35200
3994,35200
3995,35264
3996,35264
3997,35200
3998,35008
3999,34752
4000,34368
4001,33920
4002,33472
4003,33088
4004,32768
4005,32640
4006,32512
4007,32512
4008,32576
4009,32704
4010,32768
4011,32896
4012,33024
4013,33088
4014,33088
4015,32960
4016,32768
4017,32768
4018,33024
4019,33792
4020,35264
4021,37504
4022,40384
4023,43648
4024,46720
4025,48640
4026,48192
4027,44992
4028,40192
4029,35264
4030,31296
4031,28800
4032,27840
4033,27840
4034,28352
4035,28992
4036,29696
4037,30272
4038,30784
4039,31168
4040,31424
4041,31744
4042,32000
4043,32256
4044,32384
4045,32576
4046,32768
4047,32896
4048,33024
4049,33088
4050,33216
4051,33344
4052,33408
4053,33536
4054,33600
4055,33664
4056,33728
4057,33792
4058,33856
4059,33920
4060,33920
4061,33920
4062,33984
4063,34112
4064,34176
4065,34112
4066,34176
4067,34240
4068,34240
4069,34176
4070,34240
4071,34240
4072,34304
4073,34304
4074,34304
4075,34368
4076,34432
4077,34432
4078,34496
4079,34624
4080,34752
4081,34816
4082,34944
4083,35136
4084,35328
4085,35328
4086,35328
4087,35328
4088,35328
4089,35264
4090,35200
4091,35072
4092,35008
4093,34944
4094,34880
4095,34816
4096,34816
4097,34816
4098,34752
4099,34816
4100,34880
4101,34944
4102,34944
4103,34944
4104,35008
4105,35008
4106,34944
4107,34944
4108,34944
4109,34944
4110,34880
4111,34880
4112,34880
4113,34816
4114,34752
4115,34688
4116,34688
4117,34688
4118,34624
4119,34496
4120,34496
4121,34496
4122,34432
4123,34368
4124,34368
4125,34304
4126,34304
4127,34240
4128,34240
4129,34304
4130,34304
4131,34240
4132,34240
4133,34304
4134,34432
4135,34560
4136,34816
4137,35136
4138,35264
4139,35264
4140,35264
4141,35264
4142,35264
4143,35328
4144,35328
4145,35456
4146,35520
4147,35456
4148,35392
4149,35264
4150,35008
4151,34688
4152,34240
4153,33792
4154,33472
4155,33216
4156,33024
4157,32896
4158,32832
4159,32896
4160,32960
4161,33088
4162,33216
4163,33344
4164,33408
4165,33408
4166,33280
4167,33152
4168,33216
4169,33600
4170,34368
4171,35776
4172,37824
4173,40576
4174,43648
4175,46656
4176,48448
4177,47936
4178,44864
4179,40128
4180,35264
4181,31296
4182,28928
4183,27968
4184,27968
4185,28416
4186,29120
4187,29824
4188,30400
4189,30912
4190,31296
4191,31616
4192,31936
4193,32192
4194,32384
4195,32576
4196,32704
4197,32832
4198,32960
4199,33088
4200,33216
4201,33344
4202,33408
4203,33472
4204,33600
4205,33664
4206,33664
4207,33728
4208,33856
4209,33920
4210,33984
4211,34048
4212,34048
4213,34112
4214,34112
4215,34176
4216,34176
4217,34240
4218,34304
4219,34368
4220,34368
4221,34432
4222,34432
4223,34432
4224,34496
4225,34560
4226,34560
4227,34496
4228,34496
4229,34560
4230,34624
4231,34688
4232,34816
4233,34944
4234,35072
4235,35136
4236,35200
4237,35264
4238,35328
4239,35264
4240,35136
4241,35136
4242,35072
4243,34944
4244,34816
4245,34688
4246,34624
4247,34560
4248,34496
4249,34496
4250,34560
4251,34624
4252,34624
4253,34688
4254,34688
4255,34752
4256,34752
4257,34752
4258,34752
4259,34752
4260,34752
4261,34688
4262,34688
4263,34624
4264,34560
4265,34496
4266,34496
4267,34496
4268,34432
4269,34368
4270,34368
4271,34304
4272,34240
4273,34176
4274,34176
4275,34176
4276,34112
4277,34048
4278,34048
4279,33984
4280,33984
4281,33984
4282,33984
4283,33984
4284,33984
4285,33984
4286,33984
4287,33920
4288,33984
4289,33984
4290,34112
4291,34304
4292,34624
4293,34816
4294,34944
4295,35008
4296,35008
4297,34944
4298,34944
4299,34944
4300,35072
4301,35072
4302,35072
4303,35072
4304,35008
4305,34880
4306,34624
4307,34240
4308,33856
4309,33472
4310,33024
4311,32768
4312,32640
4313,32640
4314,32640
4315,32640
4316,32768
4317,32896
4318,32960
4319,33024
4320,33152
4321,33152
4322,33088
4323,32896
4324,33088
4325,33472
4326,34240
4327,35648
4328,37568
4329,40256
4330,43328
4331,46208
4332,47872
4333,47296
4334,44160
4335,39488
4336,34688
4337,30912
4338,28672
4339,27776
4340,27776
4341,28352
4342,29056
4343,29696
4344,30272
4345,30720
4346,31104
4347,31424
4348,31680
4349,31936
4350,32192
4351,32384
4352,32512
4353,32640
4354,32832
4355,32960
4356,33024
4357,33088
4358,33216
4359,33280
4360,33408
4361,33472
4362,33536
4363,33600
4364,33664
4365,33728
4366,33792
4367,33856
4368,33920
4369,33984
4370,34048
4371,34112
4372,34176
4373,34176
4374,34240
4375,34240
4376,34240
4377,34240
4378,34240
4379,34304
4380,34304
4381,34368
4382,34368
4383,34368
4384,34432
4385,34432
4386,34432
4387,34496
4388,34624
4389,34688
4390,34752
4391,34816
4392,34880
4393,34944
4394,34944
4395,34944
4396,34944
4397,34880
4398,34816
4399,34688
4400,34560
4401,34432
4402,34368
4403,34304
4404,34304
4405,34304
4406,34304
4407,34304
4408,34368
4409,34432
4410,34432
4411,34496
4412,34560
4413,34624
4414,34624
4415,34624
4416,34688
4417,34688
4418,34624
4419,34560
4420,34560
4421,34496
4422,34496
4423,34432
4424,34368
4425,34368
4426,34304
4427,34240
4428,34176
4429,34176
4430,34112
4431,34048
4432,33984
4433,33984
4434,33920
4435,33856
4436,33792
4437,33792
4438,33792
4439,33792
4440,33728
4441,33792
4442,33792
4443,33792
4444,33728
4445,33728
4446,33728
4447,33728
4448,33728
4449,33728
4450,33856
4451,33984
4452,34240
4453,34560
4454,34752
4455,34816
4456,34816
4457,34752
4458,34752
4459,34752
4460,34816
4461,34944
4462,35008
4463,35008
4464,34944
4465,34816
4466,34624
4467,34368
4468,33984
4469,33600
4470,33216
4471,32960
4472,32704
4473,32576
4474,32512
4475,32512
4476,32512
4477,32576
4478,32704
4479,32832
4480,32960
4481,33024
4482,33024
4483,32896
4484,32832
4485,32960
4486,33408
4487,34240
4488,35712
4489,37888
4490,40576
4491,43520
4492,46528
4493,47360
4494,46208
4495,42752
4496,38208
4497,33792
4498,30336
4499,28288
4500,27520
4501,27648
4502,28224
4503,28928
4504,29632
4505,30208
4506,30656
4507,31040
4508,31360
4509,31680
4510,31936
4511,32128
4512,32320
4513,32448
4514,32576
4515,32704
4516,32832
4517,32960
4518,33024
4519,33088
4520,33216
4521,33344
4522,33408
4523,33408
4524,33472
4525,33600
4526,33664
4527,33728
4528,33792
4529,33856
4530,33920
4531,33920
4532,33984
4533,34048
4534,34112
4535,34176
4536,34240
4537,34304
4538,34304
4539,34304
4540,34304
4541,34368
4542,34432
4543,34432
4544,34432
4545,34496
4546,34560
4547,34624
4548,34624
4549,34752
4550,34880
4551,34944
4552,35008
4553,35008
4554,35072
4555,35008
4556,35008
4557,34944
4558,34944
4559,34880
4560,34752
4561,34624
4562,34560
4563,34560
4564,34496
4565,34432
4566,34432
4567,34432
4568,34432
4569,34368
4570,34432
4571,34496
4572,34560
4573,34560
4574,34624
4575,34688
4576,34688
4577,34688
4578,34688
4579,34752
4580,34752
4581,34688
4582,34624
4583,34624
4584,34624
4585,34560
4586,34496
4587,34496
4588,34496
4589,34432
4590,34368
4591,34304
4592,34304
4593,34240
4594,34112
4595,34112
4596,34048
4597,34048
4598,33984
4599,33920
4600,33984
4601,33984
4602,33920
4603,33856
4604,33920
4605,33920
4606,33920
4607,33920
4608,33984
4609,34048
4610,34112
4611,34176
4612,34432
4613,34752
4614,35008
4615,35136
4616,35136
4617,35200
4618,35136
4619,35072
4620,35072
4621,35200
4622,35200
4623,35264
4624,35200
4625,35136
4626,35008
4627,34752
4628,34368
4629,33984
4630,33600
4631,33152
4632,32896
4633,32768
4634,32704
4635,32640
4636,32704
4637,32768
4638,32896
4639,32960
4640,33024
4641,33216
4642,33280
4643,33216
4644,33024
4645,33024
4646,33280
4647,33792
4648,34752
4649,36416
4650,38784
4651,41664
4652,44672
4653,47168
4654,47872
4655,46016
4656,41856
4657,36992
4658,32640
4659,29632
4660,28160
4661,27776
4662,28160
4663,28800
4664,29440
4665,30016
4666,30528
4667,30976
4668,31360
4669,31680
4670,31936
4671,32192
4672,32448
4673,32512
4674,32640
4675,32768
4676,32896
4677,33024
4678,33088
4679,33216
4680,33344
4681,33408
4682,33472
4683,33536
4684,33600
4685,33664
4686,33728
4687,33920
4688,33920
4689,33984
4690,33984
4691,34048
4692,34112
4693,34112
4694,34176
4695,34240
4696,34304
4697,34368
4698,34304
4699,34368
4700,34496
4701,34496
4702,34496
4703,34496
4704,34496
4705,34560
4706,34560
4707,34560
4708,34624
4709,34688
4710,34752
4711,34816
4712,34880
4713,34944
4714,35008
4715,35008
4716,34944
4717,34944
4718,34880
4719,34752
4720,34688
4721,34624
4722,34496
4723,34432
4724,34368
4725,34304
4726,34240
4727,34240
4728,34240
4729,34304
4730,34368
4731,34368
4732,34432
4733,34496
4734,34560
4735,34560
4736,34560
4737,34624
4738,34624
4739,34624
4740,34624
4741,34624
4742,34688
4743,34688
4744,34688
4745,34624
4746,34624
4747,34560
4748,34496
4749,34432
4750,34368
4751,34304
4752,34240
4753,34240
4754,34240
4755,34176
4756,34112
4757,34048
4758,34048
4759,34048
4760,34048
4761,33984
4762,33984
4763,33984
4764,33984
4765,33984
4766,33984
4767,33984
4768,33984
4769,33984
4770,34048
4771,34048
4772,34048
4773,33984
4774,33984
4775,34048
4776,34048
4777,33984
4778,33984
4779,34048
4780,34176
4781,34304
4782,34560
4783,34944
4784,35200
4785,35264
4786,35264
4787,35264
4788,35200
4789,35200
4790,35264
4791,35328
4792,35456
4793,35392
4794,35392
4795,35328
4796,35200
4797,35008
4798,34688
4799,34240
4800,33792
4801,33472
4802,33152
4803,33024
4804,33024
4805,33024
4806,33024
4807,33152
4808,33216
4809,33344
4810,33408
4811,33472
4812,33472
4813,33344
4814,33344
4815,33472
4816,33984
4817,34816
4818,36096
4819,38144
4820,40832
4821,43840
4822,46720
4823,48192
4824,47360
4825,43968
4826,39168
4827,34496
4828,30848
4829,28800
4830,28032
4831,28096
4832,28672
4833,29312
4834,29952
4835,30464
4836,30912
4837,31296
4838,31680
4839,31872
4840,32128
4841,32320
4842,32576
4843,32704
4844,32832
4845,32960
4846,33088
4847,33152
4848,33216
4849,33344
4850,33536
4851,33600
4852,33664
4853,33664
4854,33792
4855,33856
4856,33920
4857,33984
4858,34112
4859,34176
4860,34176
4861,34176
4862,34240
4863,34368
4864,34432
4865,34560
4866,34624
4867,34688
4868,34752
4869,34752
4870,34752
4871,34752
4872,34752
4873,34752
4874,34816
4875,34880
4876,34816
4877,34752
4878,34688
4879,34752
4880,34752
4881,34816
4882,34944
4883,34944
4884,35008
4885,35008
4886,35008
4887,35008
4888,34944
4889,34816
4890,34688
4891,34624
4892,34496
4893,34368
4894,34304
4895,34240
4896,34240
4897,34176
4898,34240
4899,34304
4900,34368
4901,34368
4902,34432
4903,34496
4904,34560
4905,34624
4906,34688
4907,34688
4908,34752
4909,34816
4910,34880
4911,34880
4912,34880
4913,34880
4914,34880
4915,34752
4916,34624
4917,34432
4918,34240
4919,34112
4920,34048
4921,33984
4922,33920
4923,33920
4924,33920
4925,33984
4926,33984
4927,33984
4928,33984
4929,33984
4930,33920
4931,33856
4932,33856
4933,33920
4934,33856
4935,33856
4936,33856
4937,33856
4938,33856
4939,33856
4940,33856
4941,33920
4942,33856
4943,33984
4944,34112
4945,34240
4946,34496
4947,34688
4948,34880
4949,35008
4950,35008
4951,34944
4952,34944
4953,35008
4954,35072
4955,35072
4956,35072
4957,35008
4958,35072
4959,35008
4960,34944
4961,34752
4962,34432
4963,34048
4964,33664
4965,33536
4966,33344
4967,33152
4968,33024
4969,33152
4970,33024
4971,32768
4972,32704
4973,32832
4974,32896
4975,33024
4976,33024
4977,32960
4978,32896
4979,32960
4980,33344
4981,33984
4982,35136
4983,36992
4984,39552
4985,42304
4986,46400
4987,46592
4988,47488
4989,45056
4990,40704
4991,35904
4992,31744
4993,28992
4994,27648
4995,27520
4996,27968
4997,28672
4998,29440
4999,30080
5000,30528
5001,31104
5002,31104
5003,31616
5004,31872
5005,32000
5006,32192
5007,32384
5008,32576
5009,32704
5010,32768
5011,32896
5012,33088
5013,33152
5014,33152
5015,33280
5016,33408
5017,33600
5018,33664
5019,33920
5020,33856
5021,33728
5022,33792
5023,33728
5024,33536
5025,33408
5026,33408
5027,33472
5028,33600
5029,33728
5030,33856
5031,33984
5032,33984
5033,33920
5034,33920
5035,33920
5036,34048
5037,34048
5038,34048
5039,34048
5040,34112
5041,34176
5042,34176
5043,34240
5044,34304
5045,34432
5046,34496
5047,34496
5048,34496
5049,34496
5050,34432
5051,34432
5052,34368
5053,34368
5054,34304
5055,34176
5056,33984
5057,33920
5058,33728
5059,33600
5060,33536
5061,33600
5062,33536
5063,33536
5064,33536
5065,33536
5066,33600
5067,33728
5068,33856
5069,33728
5070,33664
5071,33664
5072,33536
5073,33664
5074,33728
5075,33600
5076,33536
5077,33472
5078,33408
5079,33344
5080,33344
5081,33344
5082,33408
5083,33280
5084,33152
5085,33024
5086,33024
5087,33024
5088,32960
5089,32960
5090,32960
5091,32896
5092,32832
5093,32896
5094,32896
5095,33024
5096,33088
5097,33216
5098,33408
5099,33664
5100,33856
5101,33920
5102,33920
5103,33920
5104,33856
5105,33856
5106,33984
5107,33920
5108,34048
5109,33984
5110,33984
5111,33984
5112,33792
5113,33536
5114,33088
5115,32576
5116,32192
5117,31808
5118,31552
5119,31360
5120,31296
5121,31296
5122,31232
5123,31424
5124,31552
5125,31616
5126,31680
5127,31744
5128,31872
5129,31808
5130,31680
5131,31488
5132,31552
5133,31936
5134,32576
5135,33728
5136,35840
5137,38144
5138,41024
5139,43840
5140,45632
5141,45632
5142,43264
5143,39168
5144,34560
5145,30400
5146,27584
5147,26048
5148,25728
5149,26176
5150,26816
5151,27584
5152,27648
5153,28672
5154,29056
5155,29376
5156,29696
5157,29952
5158,30208
5159,30336
5160,30400
5161,30592
5162,30720
5163,30848
5164,30976
5165,31104
5166,31232
5167,31232
5168,31360
5169,31424
5170,31552
5171,31616
5172,31616
5173,31680
5174,31744
5175,31872
5176,31936
5177,32000
5178,32128
5179,32192
5180,32192
5181,32192
5182,32128
5183,32192
5184,32256
5185,32384
5186,32640
5187,32832
5188,32960
5189,33088
5190,33152
5191,33152
5192,33280
5193,33408
5194,33472
5195,33408
5196,33280
5197,33216
5198,33408
5199,33536
5200,33472
5201,33408
5202,33408
5203,33664
5204,33664
5205,33344
5206,33216
5207,33088
5208,32960
5209,32768
5210,32704
5211,32640
5212,32576
5213,32448
5214,32448
5215,32448
5216,32576
5217,32640
5218,32704
5219,32768
5220,32832
5221,32896
5222,32896
5223,32896
5224,32960
5225,32960
5226,32896
5227,32896
5228,32896
5229,32896
5230,32832
5231,32768
5232,32768
5233,32768
5234,32704
5235,32640
5236,32512
5237,32512
5238,32384
5239,32384
5240,32384
5241,32320
5242,32256
5243,32192
5244,32128
5245,32192
5246,32192
5247,32192
5248,32320
5249,32512
5250,32640
5251,32704
5252,32704
5253,32768
5254,32768
5255,32768
5256,32768
5257,32832
5258,32960
5259,32960
5260,32960
5261,32896
5262,32832
5263,32576
5264,32192
5265,31808
5266,31424
5267,31104
5268,30720
5269,30528
5270,30400
5271,30336
5272,30336
5273,30528
5274,30784
5275,30912
5276,30976
5277,30976
5278,30912
5279,30976
5280,30848
5281,30720
5282,30656
5283,30912
5284,31488
5285,32384
5286,33984
5287,36288
5288,39040
5289,41920
5290,44352
5291,45376
5292,43968
5293,40256
5294,35584
5295,31104
5296,27776
5297,25856
5298,25152
5299,25344
5300,25920
5301,26496
5302,27136
5303,27648
5304,28096
5305,28416
5306,28736
5307,29056
5308,29312
5309,29504
5310,29696
5311,29888
5312,30016
5313,30080
5314,30144
5315,30272
5316,30464
5317,30656
5318,30784
5319,30912
5320,31040
5321,31168
5322,31232
5323,31360
5324,31488
5325,31616
5326,31744
5327,31872
5328,32000
5329,32128
5330,32192
5331,32384
5332,32512
5333,32704
5334,32768
5335,32832
5336,32896
5337,33024
5338,33152
5339,33280
5340,33408
5341,33472
5342,33536
5343,33536
5344,33600
5345,33792
5346,33856
5347,33984
5348,34048
5349,34112
5350,34112
5351,34048
5352,34048
5353,34112
5354,34112
5355,34048
5356,33920
5357,33856
5358,33728
5359,33600
5360,33600
5361,33600
5362,33536
5363,33472
5364,33472
5365,33472
5366,33536
5367,33472
5368,33472
5369,33472
5370,33536
5371,33664
5372,33728
5373,33792
5374,33856
5375,33728
5376,33664
5377,33728
5378,33856
5379,34048
5380,34112
5381,34112
5382,34176
5383,34176
5384,34048
5385,33920
5386,33792
5387,33664
5388,33536
5389,33408
5390,33472
5391,33792
5392,34112
5393,34432
5394,34624
5395,34816
5396,34816
5397,34816
5398,34816
5399,34816
5400,34752
5401,34752
5402,34816
5403,34880
5404,34752
5405,34560
5406,34368
5407,34176
5408,33984
5409,33600
5410,33152
5411,32832
5412,32576
5413,32320
5414,32192
5415,32192
5416,32256
5417,32256
5418,32320
5419,32448
5420,32576
5421,32704
5422,32768
5423,32832
5424,32768
5425,32576
5426,32448
5427,32640
5428,33280
5429,34432
5430,36160
5431,38656
5432,41664
5433,44800
5434,47680
5435,48832
5436,47552
5437,43072
5438,38592
5439,33792
5440,30208
5441,28224
5442,27584
5443,27776
5444,28352
5445,29056
5446,29760
5447,30272
5448,30720
5449,31168
5450,31488
5451,31744
5452,32000
5453,32256
5454,32448
5455,32576
5456,32704
5457,32896
5458,33024
5459,33152
5460,33280
5461,33408
5462,33536
5463,33664
5464,33728
5465,33856
5466,33984
5467,34048
5468,34112
5469,34176
5470,34176
5471,34240
5472,34240
5473,34368
5474,34496
5475,34624
5476,34624
5477,34688
5478,34752
5479,34816
5480,34880
5481,34944
5482,35008
5483,35136
5484,35136
5485,35200
5486,35264
5487,35264
5488,35264
5489,35200
5490,35264
5491,35392
5492,35520
5493,35712
5494,35840
5495,35904
5496,35840
5497,35840
5498,35776
5499,35712
5500,35584
5501,35456
5502,35328
5503,35392
5504,35328
5505,35200
5506,35136
5507,35136
5508,35136
5509,35136
5510,35200
5511,35200
5512,35200
5513,35200
5514,35200
5515,35200
5516,35328
5517,35328
5518,35328
5519,35328
5520,35392
5521,35392
5522,35392
5523,35392
5524,35392
5525,35328
5526,35328
5527,35328
5528,35328
5529,35264
5530,35200
5531,35264
5532,35456
5533,35840
5534,36096
5535,36160
5536,36224
5537,36224
5538,36224
5539,36160
5540,36160
5541,36160
5542,36160
5543,36160
5544,36032
5545,36032
5546,35904
5547,35648
5548,35392
5549,35072
5550,34624
5551,34112
5552,33728
5553,33536
5554,33408
5555,33344
5556,33344
5557,33408
5558,33472
5559,33472
5560,33536
5561,33664
5562,33792
5563,33920
5564,33856
5565,33728
5566,33536
5567,33472
5568,33728
5569,34624
5570,36160
5571,38336
5572,41600
5573,44864
5574,48256
5575,50560
5576,50496
5577,47232
5578,41920
5579,36352
5580,31936
5581,29312
5582,28224
5583,28160
5584,28672
5585,29312
5586,29888
5587,30464
5588,30848
5589,31232
5590,31552
5591,31872
5592,32128
5593,32320
5594,32576
5595,32768
5596,32960
5597,33088
5598,33216
5599,33408
5600,33536
5601,33600
5602,33664
5603,33792
5604,33920
5605,34048
5606,34112
5607,34240
5608,34240
5609,34304
5610,34304
5611,34368
5612,34432
5613,34432
5614,34432
5615,34496
5616,34560
5617,34560
5618,34624
5619,34688
5620,34752
5621,34816
5622,34880
5623,34944
5624,35008
5625,35008
5626,35008
5627,35008
5628,35072
5629,35136
5630,35200
5631,35264
5632,35392
5633,35456
5634,35456
5635,35456
5636,35520
5637,35584
5638,35584
5639,35520
5640,35456
5641,35392
5642,35264
5643,35136
5644,35072
5645,35072
5646,35072
5647,34944
5648,34880
5649,34816
5650,34816
5651,34816
5652,34816
5653,34880
5654,34944
5655,35008
5656,35072
5657,35200
5658,35264
5659,35264
5660,35264
5661,35200
5662,35200
5663,35136
5664,35200
5665,35264
5666,35264
5667,35200
5668,35136
5669,35072
5670,35072
5671,35008
5672,34880
5673,34880
5674,35008
5675,35264
5676,35456
5677,35712
5678,35840
5679,35776
5680,35776
5681,35776
5682,35776
5683,35840
5684,35840
5685,35904
5686,35904
5687,35840
5688,35712
5689,35520
5690,35264
5691,34944
5692,34432
5693,33920
5694,33536
5695,33216
5696,33024
5697,32960
5698,32896
5699,32960
5700,32960
5701,33088
5702,33280
5703,33408
5704,33536
5705,33664
5706,33664
5707,33536
5708,33216
5709,32960
5710,33088
5711,33600
5712,34816
5713,36800
5714,39680
5715,43072
5716,46528
5717,49408
5718,50240
5719,48064
5720,43392
5721,37760
5722,32896
5723,29632
5724,28032
5725,27584
5726,27840
5727,28416
5728,29120
5729,29696
5730,30208
5731,30656
5732,31040
5733,31424
5734,31616
5735,31872
5736,32128
5737,32256
5738,32384
5739,32448
5740,32576
5741,32832
5742,33024
5743,33216
5744,33344
5745,33408
5746,33472
5747,33536
5748,33600
5749,33664
5750,33664
5751,33600
5752,33664
5753,33728
5754,33792
5755,33856
5756,33920
5757,33984
5758,34048
5759,34112
5760,34112
5761,34176
5762,34112
5763,34112
5764,34048
5765,34048
5766,34048
5767,34048
5768,33984
5769,33984
5770,34112
5771,34240
5772,34304
5773,34368
5774,34560
5775,34688
5776,34816
5777,35008
5778,35136
5779,35264
5780,35200
5781,35136
5782,35136
5783,35072
5784,34944
5785,34816
5786,34688
5787,34560
5788,34496
5789,34432
5790,34432
5791,34496
5792,34432
5793,34432
5794,34496
5795,34624
5796,34688
5797,34752
5798,34816
5799,34880
5800,34816
5801,34816
5802,34752
5803,34688
5804,34688
5805,34688
5806,34688
5807,34688
5808,34688
5809,34560
5810,34496
5811,34432
5812,34432
5813,34240
5814,34176
5815,34240
5816,34240
5817,34112
5818,33920
5819,33856
5820,33856
5821,33984
5822,34240
5823,34560
5824,34880
5825,35008
5826,35008
5827,35136
5828,35200
5829,35264
5830,35328
5831,35456
5832,35520
5833,35648
5834,35520
5835,35328
5836,35136
5837,34816
5838,34432
5839,34048
5840,33600
5841,33280
5842,32960
5843,32768
5844,32640
5845,32640
5846,32576
5847,32512
5848,32576
5849,32704
5850,32896
5851,32960
5852,33088
5853,33088
5854,33024
5855,32768
5856,32640
5857,32896
5858,33472
5859,34688
5860,36736
5861,39616
5862,43008
5863,46464
5864,49216
5865,49920
5866,47488
5867,42624
5868,36992
5869,32192
5870,28928
5871,27392
5872,27072
5873,27392
5874,28096
5875,28800
5876,29376
5877,29888
5878,30336
5879,30656
5880,30912
5881,31168
5882,31424
5883,31680
5884,31872
5885,32000
5886,32192
5887,32384
5888,32512
5889,32640
5890,32768
5891,32896
5892,32896
5893,32960
5894,33088
5895,33280
5896,33408
5897,33408
5898,33472
5899,33536
5900,33536
5901,33600
5902,33664
5903,33728
5904,33792
5905,33792
5906,33792
5907,33792
5908,33792
5909,33792
5910,33728
5911,33728
5912,33728
5913,33792
5914,33856
5915,33984
5916,34112
5917,34176
5918,34176
5919,34240
5920,34368
5921,34496
5922,34560
5923,34688
5924,34816
5925,34880
5926,34944
5927,34944
5928,35008
5929,35008
5930,34880
5931,34816
5932,34688
5933,34560
5934,34432
5935,34304
5936,34304
5937,34368
5938,34432
5939,34496
5940,34496
5941,34496
5942,34496
5943,34432
5944,34432
5945,34496
5946,34560
5947,34624
5948,34624
5949,34624
5950,34560
5951,34560
5952,34496
5953,34432
5954,34368
5955,34240
5956,34112
5957,34048
5958,33984
5959,33984
5960,33984
5961,34048
5962,34048
5963,33984
5964,33856
5965,33792
5966,33792
5967,33664
5968,33600
5969,33600
5970,33664
5971,33792
5972,33792
5973,33920
5974,34240
5975,34624
5976,34816
5977,34944
5978,34944
5979,35008
5980,35008
5981,34944
5982,35008
5983,35136
5984,35136
5985,35136
5986,35072
5987,35008
5988,34816
5989,34496
5990,33984
5991,33472
5992,33024
5993,32704
5994,32512
5995,32384
5996,32256
5997,32256
5998,32256
5999,32384
6000,32512
6001,32640
6002,32704
6003,32832
6004,32960
6005,32896
6006,32704
6007,32512
6008,32640
6009,33152
6010,33984
6011,35520
6012,37824
6013,40704
6014,43904
6015,46976
6016,48832
6017,48128
6018,44608
6019,39552
6020,34496
6021,30464
6022,28096
6023,27264
6024,27392
6025,27968
6026,28672
6027,29312
6028,29888
6029,30400
6030,30784
6031,31168
6032,31488
6033,31744
6034,31872
6035,32000
6036,32192
6037,32384
6038,32512
6039,32640
6040,32768
6041,32896
6042,33024
6043,33088
6044,33152
6045,33216
6046,33280
6047,33280
6048,33344
6049,33472
6050,33536
6051,33536
6052,33536
6053,33600
6054,33664
6055,33664
6056,33728
6057,33792
6058,33856
6059,33856
6060,33856
6061,33920
6062,33920
6063,33920
6064,33856
6065,33792
6066,33856
6067,33856
6068,33856
6069,33920
6070,33984
6071,34112
6072,34176
6073,34368
6074,34560
6075,34688
6076,34880
6077,35008
6078,35136
6079,35200
6080,35136
6081,35136
6082,35072
6083,35008
6084,34880
6085,34816
6086,34752
6087,34752
6088,34752
6089,34688
6090,34688
6091,34752
6092,34752
6093,34688
6094,34752
6095,34752
6096,34752
6097,34688
6098,34688
6099,34688
6100,34624
6101,34624
6102,34560
6103,34560
6104,34496
6105,34432
6106,34368
6107,34304
6108,34240
6109,34240
6110,34112
6111,34112
6112,34112
6113,34112
6114,34048
6115,33984
6116,33984
6117,33920
6118,33792
6119,33792
6120,33792
6121,33792
6122,33792
6123,33792
6124,33856
6125,33920
6126,33920
6127,34112
6128,34368
6129,34752
6130,34944
6131,35008
6132,35008
6133,35008
6134,35008
6135,35008
6136,35072
6137,35200
6138,35200
6139,35136
6140,35136
6141,35072
6142,34880
6143,34560
6144,34176
6145,33728
6146,33280
6147,32896
6148,32640
6149,32448
6150,32448
6151,32448
6152,32512
6153,32640
6154,32768
6155,32832
6156,32960
6157,33088
6158,33152
6159,33152
6160,33024
6161,32896
6162,32960
6163,33280
6164,33920
6165,35328
6166,37504
6167,40320
6168,43584
6169,46656
6170,48576
6171,48192
6172,44928
6173,40192
6174,35200
6175,31168
6176,28608
6177,27520
6178,27520
6179,28032
6180,28736
6181,29376
6182,30016
6183,30528
6184,30912
6185,31232
6186,31552
6187,31808
6188,32064
6189,32192
6190,32384
6191,32640
6192,32768
6193,32832
6194,32960
6195,33024
6196,33088
6197,33152
6198,33280
6199,33472
6200,33600
6201,33664
6202,33664
6203,33728
6204,33792
6205,33856
6206,33856
6207,33920
6208,33984
6209,33984
6210,33984
6211,34048
6212,34048
6213,34048
6214,33984
6215,34048
6216,34048
6217,34048
6218,34048
6219,34112
6220,34176
6221,34176
6222,34112
6223,34112
6224,34176
6225,34240
6226,34368
6227,34496
6228,34688
6229,34880
6230,35008
6231,35072
6232,35136
6233,35200
6234,35136
6235,35072
6236,35008
6237,34880
6238,34752
6239,34624
6240,34624
6241,34624
6242,34624
6243,34624
6244,34688
6245,34688
6246,34752
6247,34752
6248,34752
6249,34752
6250,34752
6251,34688
6252,34688
6253,34688
6254,34688
6255,34624
6256,34624
6257,34624
6258,34560
6259,34496
6260,34432
6261,34368
6262,34304
6263,34240
6264,34112
6265,34112
6266,34048
6267,33984
6268,33920
6269,33856
6270,33856
6271,33856
6272,33856
6273,33856
6274,33856
6275,33856
6276,33792
6277,33728
6278,33792
6279,33792
6280,33792
6281,33856
6282,34112
6283,34432
6284,34688
6285,34816
6286,34944
6287,35008
6288,34944
6289,34944
6290,35008
6291,35072
6292,35200
6293,35200
6294,35200
6295,35136
6296,34944
6297,34752
6298,34368
6299,33984
6300,33536
6301,33088
6302,32768
6303,32640
6304,32512
6305,32512
6306,32512
6307,32576
6308,32640
6309,32704
6310,32832
6311,32960
6312,33088
6313,33216
6314,33216
6315,33088
6316,33024
6317,33088
6318,33472
6319,34304
6320,35904
6321,38016
6322,41216
6323,44032
6324,47040
6325,48576
6326,47680
6327,44160
6328,39232
6329,34432
6330,30592
6331,28352
6332,27584
6333,27712
6334,28288
6335,28992
6336,29632
6337,30208
6338,30720
6339,31040
6340,31360
6341,31680
6342,31872
6343,32064
6344,32256
6345,32448
6346,32576
6347,32768
6348,32896
6349,33024
6350,33152
6351,33216
6352,33344
6353,33408
6354,33536
6355,33536
6356,33600
6357,33664
6358,33728
6359,33792
6360,33856
6361,33920
6362,33984
6363,34048
6364,34048
6365,34112
6366,34176
6367,34176
6368,34112
6369,34112
6370,34176
6371,34176
6372,34176
6373,34176
6374,34240
6375,34304
6376,34304
6377,34304
6378,34368
6379,34432
6380,34496
6381,34560
6382,34752
6383,34880
6384,35008
6385,35072
6386,35136
6387,35264
6388,35264
6389,35200
6390,35136
6391,35072
6392,34944
6393,34816
6394,34752
6395,34752
6396,34688
6397,34624
6398,34560
6399,34624
6400,34688
6401,34688
6402,34688
6403,34752
6404,34752
6405,34752
6406,34752
6407,34752
6408,34752
6409,34688
6410,34624
6411,34624
6412,34624
6413,34560
6414,34496
6415,34432
6416,34432
6417,34368
6418,34240
6419,34240
6420,34240
6421,34176
6422,34112
6423,34112
6424,34112
6425,34048
6426,33984
6427,33920
6428,33856
6429,33920
6430,33920
6431,33920
6432,33920
6433,33920
6434,33920
6435,33920
6436,33984
6437,34112
6438,34304
6439,34560
6440,34880
6441,35072
6442,35136
6443,35136
6444,35072
6445,35072
6446,35136
6447,35136
6448,35200
6449,35264
6450,35200
6451,35200
6452,35072
6453,34944
6454,34560
6455,34112
6456,33664
6457,33216
6458,32960
6459,32768
6460,32640
6461,32640
6462,32704
6463,32704
6464,32832
6465,32960
6466,33088
6467,33216
6468,33280
6469,33344
6470,33344
6471,33216
6472,33152
6473,33280
6474,33728
6475,34624
6476,36160
6477,38400
6478,41344
6479,44480
6480,47232
6481,48512
6482,47360
6483,43648
6484,38720
6485,33984
6486,30400
6487,28224
6488,27712
6489,27904
6490,28544
6491,29248
6492,29824
6493,30336
6494,30784
6495,31232
6496,31552
6497,31808
6498,32064
6499,32256
6500,32448
6501,32640
6502,32768
6503,32896
6504,33088
6505,33152
6506,33216
6507,33344
6508,33472
6509,33600
6510,33664
6511,33664
6512,33792
6513,33792
6514,33856
6515,33856
6516,33984
6517,33984
6518,33984
6519,33984
6520,34112
6521,34112
6522,34112
6523,34176
6524,34176
6525,34176
6526,34176
6527,34176
6528,34240
6529,34240
6530,34240
6531,34240
6532,34304
6533,34304
6534,34240
6535,34304
6536,34368
6537,34560
6538,34624
6539,34688
6540,34816
6541,34944
6542,34944
6543,35008
6544,34944
6545,34944
6546,34880
6547,34752
6548,34688
6549,34624
6550,34496
6551,34432
6552,34368
6553,34368
6554,34368
6555,34368
6556,34432
6557,34432
6558,34496
6559,34560
6560,34496
6561,34560
6562,34560
6563,34560
6564,34560
6565,34560
6566,34624
6567,34560
6568,34560
6569,34496
6570,34496
6571,34432
6572,34368
6573,34304
6574,34304
6575,34240
6576,34176
6577,34112
6578,34112
6579,34048
6580,34048
6581,33984
6582,33920
6583,33984
6584,33984
6585,34048
6586,34176
6587,34368
6588,34560
6589,34752
6590,34880
6591,34880
6592,34816
6593,34816
6594,34816
6595,35008
6596,35136
6597,35200
6598,35264
6599,35264
6600,35264
6601,35072
6602,34816
6603,34432
6604,33984
6605,33536
6606,33152
6607,32896
6608,32768
6609,32640
6610,32640
6611,32704
6612,32768
6613,32832
6614,32896
6615,33024
6616,33152
6617,33280
6618,33344
6619,33344
6620,33280
6621,33152
6622,33152
6623,33408
6624,34048
6625,35328
6626,37376
6627,40064
6628,43136
6629,46080
6630,47808
6631,47552
6632,44928
6633,40768
6634,36288
6635,32320
6636,29632
6637,28096
6638,27968
6639,28352
6640,29056
6641,29824
6642,30464
6643,30976
6644,31424
6645,31744
6646,32000
6647,32256
6648,32512
6649,32704
6650,32896
6651,32960
6652,33088
6653,33280
6654,33408
6655,33472
6656,33600
6657,33728
6658,33792
6659,33920
6660,33984
6661,34048
6662,34112
6663,34176
6664,34176
6665,34304
6666,34368
6667,34368
6668,34368
6669,34432
6670,34496
6671,34496
6672,34496
6673,34496
6674,34560
6675,34496
6676,34496
6677,34496
6678,34560
6679,34560
6680,34560
6681,34560
6682,34560
6683,34624
6684,34688
6685,34688
6686,34816
6687,34944
6688,35072
6689,35136
6690,35264
6691,35392
6692,35392
6693,35392
6694,35328
6695,35328
6696,35200
6697,35136
6698,35008
6699,34944
6700,34880
6701,34880
6702,34816
6703,34816
6704,34816
6705,34816
6706,34816
6707,34880
6708,34944
6709,34944
6710,34944
6711,35008
6712,35008
6713,35008
6714,35008
6715,35008
6716,35008
6717,34944
6718,34880
6719,34880
6720,34816
6721,34752
6722,34752
6723,34752
6724,34752
6725,34688
6726,34560
6727,34496
6728,34496
6729,34432
6730,34368
6731,34368
6732,34304
6733,34304
6734,34240
6735,34240
6736,34304
6737,34432
6738,34624
6739,34944
6740,35200
6741,35328
6742,35264
6743,35328
6744,35328
6745,35328
6746,35392
6747,35456
6748,35520
6749,35584
6750,35520
6751,35392
6752,35264
6753,35008
6754,34560
6755,33984
6756,33536
6757,33152
6758,32896
6759,32704
6760,32640
6761,32640
6762,32704
6763,32768
6764,32896
6765,33024
6766,33152
6767,33216
6768,33344
6769,33408
6770,33408
6771,33216
6772,33152
6773,33280
6774,33728
6775,34560
6776,36096
6777,38464
6778,41408
6779,44544
6780,47488
6781,49024
6782,48000
6783,44288
6784,39104
6785,34240
6786,29760
6787,29440
6788,27968
6789,28096
6790,28736
6791,29376
6792,30016
6793,30528
6794,31040
6795,31424
6796,31680
6797,31936
6798,32192
6799,32384
6800,32576
6801,32832
6802,32832
6803,33088
6804,33216
6805,33280
6806,33408
6807,33536
6808,33600
6809,33664
6810,33792
6811,33856
6812,33920
6813,33984
6814,34048
6815,34112
6816,34176
6817,34176
6818,34240
6819,34304
6820,34368
6821,34368
6822,34368
6823,34432
6824,34432
6825,34432
6826,34432
6827,34496
6828,34560
6829,34496
6830,34496
6831,34560
6832,34496
6833,34560
6834,34560
6835,34624
6836,34688
6837,34816
6838,34880
6839,34944
6840,35072
6841,35136
6842,35136
6843,35200
6844,35200
6845,35200
6846,35008
6847,34944
6848,34880
6849,34816
6850,34688
6851,34624
6852,34560
6853,34560
6854,34496
6855,34496
6856,34496
6857,34560
6858,34624
6859,34624
6860,34688
6861,34752
6862,34752
6863,34752
6864,34816
6865,34816
6866,34816
6867,34752
6868,34752
6869,34816
6870,34752
6871,34752
6872,34688
6873,34624
6874,34624
6875,34496
6876,34432
6877,34432
6878,34432
6879,34368
6880,34304
6881,34304
6882,34240
6883,34176
6884,34176
6885,34112
6886,34112
6887,34048
6888,34048
6889,34048
6890,34176
6891,34560
6892,34496
6893,34944
6894,35136
6895,35200
6896,35136
6897,35136
6898,35200
6899,35264
6900,35328
6901,35392
6902,35456
6903,35392
6904,35328
6905,35200
6906,34880
6907,34816
6908,34240
6909,33728
6910,33280
6911,33024
6912,32768
6913,32640
6914,32576
6915,32640
6916,32704
6917,32768
6918,32896
6919,33024
6920,33152
6921,33216
6922,33344
6923,33408
6924,33344
6925,33152
6926,33152
6927,33408
6928,33984
6929,35072
6930,36864
6931,39488
6932,42624
6933,45824
6934,48384
6935,48960
6936,45056
6937,44352
6938,36992
6939,32512
6940,29504
6941,28096
6942,27840
6943,28224
6944,28864
6945,29568
6946,30144
6947,30656
6948,31104
6949,31488
6950,31808
6951,32128
6952,32064
6953,32448
6954,32640
6955,32768
6956,32896
6957,33024
6958,33152
6959,33216
6960,33344
6961,33472
6962,33536
6963,33600
6964,33728
6965,33856
6966,33920
6967,33984
6968,33984
6969,34048
6970,34112
6971,34112
6972,34112
6973,34176
6974,34240
6975,34240
6976,34240
6977,34304
6978,34304
6979,34304
6980,34304
6981,34368
6982,34304
6983,34432
6984,34368
6985,34368
6986,34432
6987,34432
6988,34432
6989,34560
6990,34624
6991,34752
6992,34816
6993,34944
6994,35072
6995,35136
6996,35136
6997,35072
6998,35136
6999,35072
7000,35008
7001,34880
7002,34816
7003,34688
7004,34624
7005,34496
7006,34496
7007,34496
7008,34496
7009,34432
7010,34432
7011,34560
7012,34496
7013,34560
7014,34624
7015,34688
7016,34688
7017,34688
7018,34752
7019,34752
7020,34816
7021,34752
7022,34688
7023,34688
7024,34624
7025,34560
7026,34560
7027,34496
7028,34496
7029,34432
7030,34368
7031,34368
7032,34368
7033,34304
7034,34240
7035,34240
7036,34240
7037,34176
7038,34112
7039,34048
7040,34048
7041,34048
7042,33984
7043,34048
7044,34240
7045,34432
7046,34688
7047,34944
7048,35072
7049,35072
7050,35072
7051,35072
7052,35072
7053,35136
7054,35200
7055,35264
7056,35264
7057,35200
7058,35136
7059,35008
7060,34752
7061,34368
7062,33984
7063,33472
7064,33152
7065,32896
7066,32704
7067,32640
7068,32640
7069,32640
7070,32704
7071,32832
7072,32896
7073,33024
7074,33088
7075,33216
7076,33344
7077,33344
7078,33280
7079,33152
7080,33152
7081,33600
7082,34368
7083,35712
7084,37888
7085,40640
7086,45376
7087,45760
7088,48704
7089,48128
7090,44864
7091,39936
7092,34944
7093,30976
7094,28672
7095,27776
7096,27776
7097,28288
7098,28992
7099,29632
7100,30272
7101,30912
7102,30912
7103,31424
7104,31680
7105,31936
7106,32128
7107,32384
7108,32512
7109,32640
7110,32768
7111,32960
7112,33088
7113,33152
7114,33280
7115,33408
7116,33536
7117,33472
7118,33664
7119,33728
7120,33856
7121,33856
7122,33920
7123,33984
7124,34048
7125,34112
7126,34112
7127,34176
7128,34240
7129,34240
7130,34240
7131,34304
7132,34304
7133,34304
7134,34304
7135,34304
7136,34368
7137,34432
7138,34368
7139,34432
7140,34432
7141,34432
7142,34432
7143,34496
7144,34560
7145,34688
7146,34816
7147,34880
7148,35008
7149,35072
7150,35072
7151,35008
7152,35008
7153,35008
7154,34880
7155,34816
7156,34688
7157,34624
7158,34560
7159,34496
7160,34432
7161,34432
7162,34432
7163,34432
7164,34496
7165,34560
7166,34624
7167,34624
7168,34688
7169,34752
7170,34752
7171,34752
7172,34752
7173,34752
7174,34816
7175,34752
7176,34688
7177,34688
7178,34688
7179,34624
7180,34560
7181,34496
7182,34496
7183,34432
7184,34304
7185,34304
7186,34304
7187,34240
7188,34176
7189,34176
7190,34112
7191,34048
7192,34048
7193,33984
7194,34048
7195,34048
7196,34048
7197,33984
7198,34048
7199,34048
7200,34048
7201,34048
7202,34112
7203,34176
7204,34368
7205,34560
7206,34880
7207,35072
7208,35200
7209,35136
7210,35136
7211,35072
7212,35072
7213,35136
7214,35200
7215,35264
7216,35264
7217,35200
7218,35072
7219,34944
7220,34624
7221,34304
7222,33856
7223,33472
7224,33152
7225,32896
7226,32768
7227,32768
7228,32768
7229,32832
7230,32896
7231,33024
7232,33152
7233,33216
7234,33280
7235,33344
7236,33408
7237,33408
7238,33280
7239,33216
7240,33536
7241,34112
7242,35136
7243,36864
7244,39360
7245,42304
7246,45440
7247,47872
7248,48512
7249,46272
7250,41856
7251,37056
7252,32640
7253,29568
7254,28096
7255,27776
7256,28160
7257,28864
7258,29504
7259,30080
7260,30592
7261,31040
7262,31360
7263,31680
7264,31936
7265,32128
7266,32320
7267,32448
7268,32640
7269,32768
7270,32896
7271,32960
7272,33024
7273,33152
7274,33280
7275,33344
7276,33408
7277,33536
7278,33664
7279,33728
7280,33728
7281,33792
7282,33856
7283,33856
7284,33920
7285,33984
7286,34048
7287,34048
7288,34112
7289,34112
7290,34240
7291,34240
7292,34240
7293,34304
7294,34304
7295,34304
7296,34368
7297,34368
7298,34432
7299,34432
7300,34432
7301,34432
7302,34496
7303,34496
7304,34560
7305,34624
7306,34752
7307,34816
7308,34816
7309,34880
7310,34880
7311,34816
7312,34752
7313,34688
7314,34624
7315,34624
7316,34496
7317,34368
7318,34304
7319,34240
7320,34240
7321,34176
7322,34240
7323,34304
7324,34368
7325,34368
7326,34368
7327,34432
7328,34496
7329,34560
7330,34560
7331,34624
7332,34624
7333,34624
7334,34560
7335,34560
7336,34624
7337,34560
7338,34496
7339,34432
7340,34432
7341,34304
7342,34240
7343,34240
7344,34176
7345,34176
7346,34048
7347,34048
7348,34048
7349,33984
7350,33984
7351,33920
7352,33984
7353,33984
7354,33920
7355,33920
7356,33856
7357,33920
7358,33856
7359,33856
7360,33856
7361,33984
7362,34112
7363,34240
7364,34560
7365,34752
7366,34880
7367,34944
7368,34944
7369,34944
7370,34944
7371,35008
7372,35072
7373,35200
7374,35264
7375,35200
7376,35200
7377,35072
7378,34880
7379,34560
7380,34176
7381,33792
7382,33408
7383,33152
7384,32896
7385,32832
7386,32832
7387,32832
7388,32832
7389,32960
7390,33024
7391,33152
7392,33216
7393,33344
7394,33472
7395,33536
7396,33472
7397,33280
7398,33280
7399,33536
7400,34112
7401,35008
7402,36928
7403,39168
7404,42048
7405,44992
7406,47296
7407,47872
7408,46016
7409,42240
7410,37760
7411,33600
7412,30464
7413,28672
7414,28096
7415,28416
7416,28992
7417,29632
7418,30272
7419,30912
7420,31360
7421,31680
7422,32000
7423,32256
7424,32512
7425,32704
7426,32896
7427,33024
7428,33216
7429,33344
7430,33472
7431,33536
7432,33728
7433,33728
7434,33792
7435,33856
7436,33984
7437,34048
7438,34112
7439,34176
7440,34240
7441,34304
7442,34304
7443,34304
7444,34304
7445,34368
7446,34368
7447,34368
7448,34368
7449,34432
7450,34432
7451,34432
7452,34496
7453,34560
7454,34560
7455,34560
7456,34624
7457,34688
7458,34688
7459,34688
7460,34688
7461,34816
7462,34880
7463,34944
7464,35072
7465,35200
7466,35264
7467,35264
7468,35328
7469,35328
7470,35328
7471,35264
7472,35200
7473,35136
7474,35072
7475,34944
7476,34880
7477,34752
7478,34752
7479,34688
7480,34688
7481,34688
7482,34688
7483,34688
7484,34688
7485,34688
7486,34752
7487,34816
7488,34816
7489,34880
7490,34880
7491,34880
7492,34880
7493,34880
7494,34880
7495,34880
7496,34816
7497,34752
7498,34752
7499,34688
7500,34624
7501,34560
7502,34560
7503,34496
7504,34496
7505,34432
7506,34368
7507,34368
7508,34304
7509,34304
7510,34240
7511,34240
7512,34176
7513,34112
7514,34112
7515,34112
7516,34112
7517,34112
7518,34048
7519,34112
7520,34112
7521,34112
7522,34048
7523,34048
7524,34112
7525,34112
7526,34176
7527,34368
7528,34688
7529,34944
7530,35136
7531,35264
7532,35264
7533,35264
7534,35200
7535,35200
7536,35200
7537,35264
7538,35264
7539,35264
7540,35264
7541,35200
7542,35008
7543,34752
7544,34432
7545,33984
7546,33536
7547,33216
7548,32960
7549,32832
7550,32768
7551,32704
7552,32768
7553,32832
7554,32896
7555,32960
7556,33088
7557,33216
7558,33280
7559,33344
7560,33344
7561,33280
7562,33216
7563,33408
7564,33856
7565,34816
7566,36224
7567,38656
7568,41344
7569,44544
7570,47424
7571,48704
7572,47360
7573,43456
7574,38400
7575,33600
7576,30208
7577,28480
7578,28032
7579,28288
7580,28864
7581,29440
7582,30016
7583,30528
7584,30976
7585,31296
7586,31680
7587,31936
7588,32128
7589,32320
7590,32576
7591,32704
7592,32832
7593,32960
7594,33088
7595,33216
7596,33344
7597,33408
7598,33536
7599,33664
7600,33728
7601,33792
7602,33920
7603,33984
7604,34048
7605,34048
7606,34112
7607,34176
7608,34240
7609,34240
7610,34240
7611,34304
7612,34368
7613,34432
7614,34496
7615,34560
7616,34624
7617,34624
7618,34624
7619,34688
7620,34752
7621,34752
7622,34688
7623,34752
7624,34816
7625,34816
7626,34816
7627,34880
7628,35008
7629,35072
7630,35072
7631,35200
7632,35264
7633,35200
7634,35200
7635,35200
7636,35200
7637,35136
7638,34944
7639,34880
7640,34752
7641,34688
7642,34496
7643,34432
7644,34432
7645,34432
7646,34368
7647,34368
7648,34432
7649,34432
7650,34432
7651,34432
7652,34560
7653,34688
7654,34880
7655,35008
7656,35008
7657,34880
7658,34752
7659,34624
7660,34624
7661,34624
7662,34624
7663,34560
7664,34496
7665,34496
7666,34496
7667,34496
7668,34432
7669,34432
7670,34432
7671,34432
7672,34432
7673,34368
7674,34368
7675,34304
7676,34240
7677,34176
7678,34048
7679,33984
7680,33984
7681,34048
7682,34112
7683,34176
7684,34176
7685,34176
7686,34240
7687,34240
7688,34240
7689,34240
7690,34240
7691,34176
7692,33984
7693,33856
7694,33984
7695,34176
7696,34560
7697,35008
7698,35328
7699,35520
7700,35520
7701,35520
7702,35456
7703,35456
7704,35456
7705,35392
7706,35392
7707,35328
7708,35264
7709,35072
7710,34880
7711,34560
7712,34176
7713,33728
7714,33344
7715,33088
7716,32896
7717,32832
7718,32832
7719,32832
7720,32896
7721,32896
7722,32960
7723,33088
7724,33216
7725,33216
7726,33280
7727,33408
7728,33344
7729,33216
7730,33280
7731,33600
7732,34432
7733,35520
7734,37440
7735,40000
7736,43136
7737,46272
7738,48448
7739,48512
7740,45696
7741,40896
7742,35776
7743,31616
7744,29120
7745,28032
7746,27968
7747,28416
7748,29120
7749,29696
7750,30272
7751,30720
7752,31104
7753,31488
7754,31808
7755,32000
7756,32192
7757,32384
7758,32576
7759,32704
7760,32896
7761,33088
7762,33216
7763,33280
7764,33344
7765,33472
7766,33600
7767,33664
7768,33728
7769,33856
7770,33920
7771,33984
7772,34048
7773,34112
7774,34176
7775,34176
7776,34176
7777,34304
7778,34368
7779,34368
7780,34432
7781,34496
7782,34624
7783,34624
7784,34688
7785,34752
7786,34816
7787,34816
7788,34752
7789,34688
7790,34688
7791,34752
7792,34752
7793,34752
7794,34944
7795,35072
7796,35072
7797,35072
7798,35136
7799,35136
7800,35136
7801,35072
7802,35136
7803,35136
7804,35072
7805,34944
7806,34752
7807,34624
7808,34496
7809,34368
7810,34240
7811,34176
7812,34176
7813,34240
7814,34304
7815,34432
7816,34432
7817,34432
7818,34560
7819,34688
7820,34624
7821,34432
7822,34176
7823,34112
7824,34240
7825,34432
7826,34560
7827,34624
7828,34496
7829,34432
7830,34432
7831,34368
7832,34368
7833,34240
7834,34048
7835,34048
7836,34112
7837,34368
7838,34560
7839,34688
7840,34752
7841,34688
7842,34560
7843,34432
7844,34304
7845,34240
7846,34176
7847,34112
7848,34048
7849,33984
7850,33856
7851,33856
7852,33920
7853,34048
7854,34048
7855,34048
7856,34048
7857,34112
7858,34176
7859,34240
7860,34304
7861,34432
7862,34560
7863,34624
7864,34752
7865,34944
7866,35008
7867,35008
7868,35008
7869,35072
7870,35072
7871,35072
7872,35136
7873,35264
7874,35328
7875,35328
7876,35136
7877,34816
7878,34560
7879,34304
7880,33984
7881,33600
7882,33280
7883,33024
7884,32768
7885,32640
7886,32640
7887,32640
7888,32704
7889,32896
7890,33024
7891,33088
7892,33152
7893,33152
7894,33216
7895,33216
7896,33024
7897,33024
7898,33344
7899,34048
7900,35072
7901,36672
7902,39040
7903,41984
7904,45120
7905,47808
7906,48896
7907,47168
7908,42944
7909,37760
7910,33088
7911,29824
7912,28224
7913,27840
7914,28224
7915,28864
7916,29568
7917,30144
7918,30656
7919,31040
7920,31488
7921,31808
7922,32128
7923,32384
7924,32576
7925,32704
7926,32832
7927,32896
7928,33024
7929,33088
7930,33152
7931,33280
7932,33536
7933,33600
7934,33728
7935,33728
7936,33792
7937,33920
7938,33984
7939,34048
7940,34176
7941,34240
7942,34304
7943,34368
7944,34432
7945,34496
7946,34432
7947,34368
7948,34368
7949,34496
7950,34560
7951,34560
7952,34624
7953,34624
7954,34624
7955,34688
7956,34752
7957,34752
7958,34752
7959,34688
7960,34688
7961,34688
7962,34688
7963,34688
7964,34880
7965,35008
7966,35072
7967,35072
7968,35072
7969,35136
7970,35136
7971,35072
7972,35008
7973,34880
7974,34752
7975,34624
7976,34560
7977,34560
7978,34560
7979,34496
7980,34368
7981,34304
7982,34368
7983,34432
7984,34432
7985,34432
7986,34432
7987,34496
7988,34624
7989,34752
7990,34816
7991,34816
7992,34816
7993,34880
7994,34880
7995,34880
7996,34752
7997,34624
7998,34624
7999,34560
8000,34496
8001,34432
8002,34368
8003,34304
8004,34240
8005,34176
8006,34176
8007,34176
8008,34112
8009,34048
8010,34048
8011,33920
8012,33856
8013,33856
8014,33856
8015,33920
8016,33920
8017,33856
8018,33856
8019,33920
8020,33920
8021,33920
8022,33856
8023,33920
8024,33984
8025,34048
8026,34176
8027,34368
8028,34624
8029,34816
8030,34944
8031,34944
8032,34944
8033,34880
8034,34816
8035,34880
8036,35008
8037,35072
8038,35072
8039,35008
8040,34944
8041,34816
8042,34560
8043,34240
8044,33792
8045,33408
8046,33024
8047,32768
8048,32640
8049,32576
8050,32576
8051,32576
8052,32640
8053,32704
8054,32832
8055,32896
8056,32960
8057,33088
8058,33152
8059,33216
8060,33152
8061,33024
8062,33024
8063,33216
8064,33792
8065,34944
8066,36736
8067,39168
8068,42112
8069,45248
8070,47808
8071,48448
8072,46400
8073,42176
8074,36992
8075,32576
8076,29440
8077,27904
8078,27584
8079,27904
8080,28544
8081,29248
8082,29952
8083,30464
8084,30912
8085,31232
8086,31552
8087,31808
8088,31936
8089,32128
8090,32320
8091,32448
8092,32576
8093,32704
8094,32896
8095,33024
8096,33088
8097,33216
8098,33344
8099,33408
8100,33472
8101,33472
8102,33536
8103,33600
8104,33664
8105,33728
8106,33856
8107,33920
8108,33920
8109,33920
8110,33856
8111,33920
8112,33984
8113,33984
8114,34048
8115,34112
8116,34176
8117,34240
8118,34240
8119,34304
8120,34304
8121,34240
8122,34240
8123,34240
8124,34240
8125,34304
8126,34304
8127,34432
8128,34496
8129,34560
8130,34560
8131,34624
8132,34688
8133,34624
8134,34560
8135,34496
8136,34432
8137,34368
8138,34240
8139,34176
8140,34176
8141,34048
8142,33920
8143,33792
8144,33792
8145,33792
8146,33856
8147,33920
8148,33984
8149,34048
8150,34112
8151,34176
8152,34304
8153,34368
8154,34432
8155,34432
8156,34432
8157,34432
8158,34368
8159,34240
8160,34240
8161,34240
8162,34176
8163,34112
8164,34048
8165,34048
8166,34048
8167,33984
8168,33920
8169,33920
8170,33856
8171,33792
8172,33728
8173,33664
8174,33664
8175,33664
8176,33664
8177,33664
8178,33728
8179,33664
8180,33600
8181,33600
8182,33600
8183,33536
8184,33472
8185,33472
8186,33600
8187,33728
8188,33984
8189,34304
8190,34496
8191,34496
8192,34432
8193,34432
8194,34496
8195,34560
8196,34560
8197,34624
8198,34688
8199,34688
8200,34688
8201,34560
8202,34432
8203,34240
8204,33792
8205,33344
8206,32960
8207,32640
8208,32448
8209,32256
8210,32192
8211,32192
8212,32256
8213,32320
8214,32384
8215,32512
8216,32576
8217,32640
8218,32704
8219,32768
8220,32896
8221,32768
8222,32640
8223,32704
8224,32960
8225,33408
8226,34240
8227,35840
8228,38144
8229,40960
8230,43904
8231,46336
8232,47168
8233,45632
8234,42048
8235,37632
8236,33408
8237,30080
8238,28096
8239,27264
8240,27456
8241,28032
8242,28800
8243,29376
8244,29952
8245,30464
8246,30848
8247,31168
8248,31424
8249,31680
8250,31872
8251,32064
8252,32256
8253,32448
8254,32576
8255,32640
8256,32832
8257,32960
8258,33024
8259,33088
8260,33216
8261,33344
8262,33408
8263,33472
8264,33472
8265,33536
8266,33664
8267,33600
8268,33600
8269,33664
8270,33728
8271,33792
8272,33856
8273,33920
8274,33984
8275,33984
8276,33920
8277,33984
8278,34048
8279,34112
8280,34176
8281,34176
8282,34240
8283,34176
8284,34176
8285,34176
8286,34304
8287,34368
8288,34432
8289,34496
8290,34624
8291,34688
8292,34752
8293,34752
8294,34752
8295,34688
8296,34624
8297,34560
8298,34432
8299,34368
8300,34240
8301,34112
8302,34048
8303,34048
8304,33984
8305,33984
8306,33984
8307,34048
8308,34048
8309,34048
8310,34112
8311,34176
8312,34176
8313,34176
8314,34176
8315,34240
8316,34304
8317,34368
8318,34368
8319,34432
8320,34432
8321,34368
8322,34304
8323,34304
8324,34304
8325,34240
8326,34176
8327,34176
8328,34176
8329,34176
8330,34048
8331,34048
8332,34048
8333,33984
8334,33856
8335,33792
8336,33792
8337,33792
8338,33728
8339,33664
8340,33728
8341,33792
8342,33856
8343,34048
8344,34368
8345,34752
8346,34880
8347,34880
8348,34880
8349,34944
8350,34944
8351,34944
8352,34944
8353,35072
8354,35072
8355,35008
8356,34944
8357,34816
8358,34624
8359,34240
8360,33728
8361,33344
8362,32896
8363,32576
8364,32320
8365,32320
8366,32320
8367,32384
8368,32384
8369,32512
8370,32640
8371,32704
8372,32768
8373,32896
8374,32960
8375,33024
8376,33024
8377,32960
8378,32832
8379,32896
8380,33216
8381,33856
8382,35072
8383,36992
8384,39552
8385,42560
8386,45696
8387,48128
8388,48448
8389,45952
8390,41344
8391,36160
8392,31744
8393,28864
8394,27648
8395,27456
8396,27840
8397,28480
8398,29184
8399,29824
8400,30272
8401,30656
8402,31040
8403,31360
8404,31552
8405,31744
8406,31936
8407,32256
8408,32384
8409,32512
8410,32576
8411,32768
8412,32896
8413,32960
8414,33024
8415,33152
8416,33280
8417,33344
8418,33472
8419,33536
8420,33664
8421,33728
8422,33728
8423,33792
8424,33920
8425,33920
8426,33920
8427,33984
8428,34048
8429,34048
8430,34048
8431,34048
8432,34112
8433,34176
8434,34176
8435,34240
8436,34304
8437,34368
8438,34368
8439,34368
8440,34432
8441,34432
8442,34432
8443,34432
8444,34496
8445,34560
8446,34624
8447,34688
8448,34688
8449,34752
8450,34688
8451,34560
8452,34496
8453,34496
8454,34432
8455,34304
8456,34240
8457,34240
8458,34176
8459,34112
8460,34048
8461,34048
8462,33984
8463,33984
8464,33984
8465,34048
8466,34112
8467,34176
8468,34176
8469,34240
8470,34240
8471,34304
8472,34304
8473,34304
8474,34304
8475,34304
8476,34304
8477,34304
8478,34368
8479,34304
8480,34240
8481,34240
8482,34176
8483,34176
8484,34112
8485,34048
8486,33984
8487,33984
8488,33856
8489,33856
8490,33856
8491,33792
8492,33728
8493,33728
8494,33728
8495,33728
8496,33728
8497,33728
8498,33792
8499,33984
8500,34304
8501,34560
8502,34688
8503,34752
8504,34752
8505,34752
8506,34752
8507,34816
8508,34816
8509,34816
8510,34816
8511,34816
8512,34752
8513,34624
8514,34432
8515,34176
8516,33792
8517,33408
8518,33024
8519,32704
8520,32576
8521,32448
8522,32384
8523,32384
8524,32512
8525,32512
8526,32512
8527,32576
8528,32768
8529,32896
8530,33088
8531,33152
8532,33216
8533,33024
8534,33024
8535,33344
8536,33920
8537,34944
8538,36672
8539,39168
8540,42176
8541,45312
8542,47872
8543,48640
8544,46592
8545,42240
8546,37056
8547,32576
8548,29440
8549,27904
8550,27520
8551,27904
8552,28608
8553,29248
8554,29824
8555,29824
8556,30912
8557,30912
8558,31104
8559,31616
8560,31808
8561,32000
8562,32192
8563,32320
8564,32512
8565,32704
8566,32832
8567,32896
8568,33088
8569,33216
8570,33216
8571,33408
8572,33344
8573,33600
8574,33664
8575,33664
8576,33728
8577,33792
8578,33792
8579,33856
8580,33856
8581,33984
8582,33984
8583,34048
8584,34112
8585,34048
8586,34240
8587,34240
8588,34304
8589,34368
8590,34368
8591,34432
8592,34432
8593,34496
8594,34496
8595,34496
8596,34432
8597,34432
8598,34496
8599,34560
8600,34624
8601,34688
8602,34752
8603,34816
8604,34816
8605,34752
8606,34816
8607,34752
8608,34688
8609,34560
8610,34496
8611,34368
8612,34304
8613,34240
8614,34240
8615,34176
8616,34176
8617,34112
8618,34176
8619,34240
8620,34240
8621,34304
8622,34368
8623,34432
8624,34432
8625,34496
8626,34496
8627,34560
8628,34560
8629,34560
8630,34496
8631,34560
8632,34560
8633,34496
8634,34432
8635,34432
8636,34432
8637,34368
8638,34304
8639,34240
8640,34240
8641,34112
8642,34048
8643,34048
8644,34048
8645,33984
8646,33920
8647,33856
8648,33856
8649,33920
8650,33920
8651,33856
8652,33920
8653,33920
8654,34048
8655,34240
8656,34560
8657,34752
8658,34880
8659,34880
8660,34880
8661,34816
8662,34816
8663,34880
8664,34944
8665,35008
8666,35008
8667,35008
8668,35008
8669,34944
8670,34688
8671,34368
8672,33920
8673,33536
8674,33152
8675,32832
8676,32640
8677,32576
8678,32512
8679,32576
8680,32640
8681,32704
8682,32768
8683,32832
8684,32896
8685,33024
8686,33152
8687,33152
8688,33216
8689,33152
8690,33088
8691,33152
8692,33152
8693,33984
8694,35200
8695,37120
8696,39680
8697,42688
8698,45760
8699,48000
8700,48192
8701,45696
8702,41216
8703,36224
8704,31872
8705,29056
8706,27840
8707,27648
8708,28032
8709,28736
8710,29440
8711,30080
8712,30592
8713,30976
8714,31296
8715,31616
8716,31808
8717,32000
8718,32256
8719,32512
8720,32640
8721,32768
8722,32768
8723,33024
8724,33216
8725,33344
8726,33472
8727,33536
8728,33600
8729,33664
8730,33728
8731,33792
8732,33856
8733,33856
8734,33920
8735,33984
8736,33984
8737,33920
8738,33984
8739,34112
8740,34176
8741,34240
8742,34240
8743,34368
8744,34432
8745,34432
8746,34496
8747,34496
8748,34560
8749,34560
8750,34560
8751,34560
8752,34560
8753,34560
8754,34624
8755,34688
8756,34816
8757,34880
8758,34944
8759,35008
8760,35072
8761,35072
8762,35008
8763,34880
8764,34816
8765,34752
8766,34624
8767,34560
8768,34432
8769,34368
8770,34304
8771,34240
8772,34240
8773,34240
8774,34240
8775,34176
8776,34240
8777,34304
8778,34368
8779,34432
8780,34432
8781,34560
8782,34496
8783,34624
8784,34624
8785,34624
8786,34624
8787,34624
8788,34560
8789,34560
8790,34560
8791,34432
8792,34368
8793,34368
8794,34432
8795,34368
8796,34240
8797,34176
8798,34240
8799,34176
8800,34112
8801,34112
8802,34112
8803,34048
8804,34048
8805,34048
8806,34112
8807,34240
8808,34432
8809,34688
8810,34880
8811,35008
8812,35008
8813,34944
8814,34944
8815,35008
8816,35136
8817,35200
8818,35200
8819,35200
8820,35200
8821,35072
8822,34944
8823,34752
8824,34368
8825,33920
8826,33344
8827,33216
8828,32832
8829,32640
8830,32640
8831,32704
8832,32704
8833,32704
8834,32768
8835,32896
8836,32960
8837,33088
8838,33152
8839,33216
8840,33344
8841,33280
8842,33216
8843,32960
8844,33024
8845,33280
8846,33984
8847,35328
8848,37376
8849,40000
8850,42944
8851,45888
8852,47744
8853,47616
8854,44992
8855,40896
8856,36416
8857,32384
8858,29568
8859,28096
8860,27712
8861,28096
8862,28736
8863,29440
8864,30080
8865,30592
8866,31040
8867,31360
8868,31744
8869,32000
8870,32192
8871,32448
8872,32448
8873,32832
8874,32960
8875,33088
8876,33152
8877,33280
8878,33408
8879,33472
8880,33600
8881,33664
8882,33792
8883,33856
8884,33920
8885,33984
8886,34048
8887,33984
8888,34112
8889,34176
8890,34240
8891,34240
8892,34304
8893,34368
8894,34432
8895,34432
8896,34432
8897,34432
8898,34496
8899,34496
8900,34496
8901,34560
8902,34624
8903,34688
8904,34624
8905,34688
8906,34752
8907,34816
8908,34880
8909,35008
8910,35136
8911,35264
8912,35264
8913,35264
8914,35264
8915,35200
8916,35136
8917,35072
8918,35008
8919,34944
8920,34880
8921,34816
8922,34688
8923,34688
8924,34624
8925,34560
8926,34560
8927,34624
8928,34688
8929,34624
8930,34624
8931,34752
8932,34688
8933,34752
8934,34752
8935,34816
8936,34880
8937,34880
8938,34816
8939,34816
8940,34880
8941,34880
8942,34880
8943,34880
8944,34816
8945,34752
8946,34688
8947,34624
8948,34688
8949,34688
8950,34624
8951,34560
8952,34496
8953,34496
8954,34432
8955,34368
8956,34304
8957,34240
8958,34304
8959,34432
8960,34624
8961,35008
8962,35136
8963,35264
8964,35328
8965,35392
8966,35392
8967,35456
8968,35520
8969,35584
8970,35584
8971,35456
8972,35328
8973,35264
8974,35072
8975,34752
8976,34176
8977,34112
8978,33472
8979,33088
8980,32832
8981,32704
8982,32640
8983,32640
8984,32704
8985,32768
8986,32896
8987,32960
8988,33024
8989,33152
8990,33280
8991,33408
8992,33472
8993,33472
8994,33344
8995,33216
8996,33344
8997,33856
8998,34752
8999,36288
9000,38592
9001,41472
9002,44736
9003,47680
9004,49216
9005,48064
9006,42176
9007,41472
9008,34432
9009,30592
9010,28544
9011,27904
9012,28032
9013,28608
9014,29312
9015,29888
9016,30400
9017,30848
9018,31168
9019,31552
9020,31808
9021,32000
9022,32256
9023,32512
9024,32704
9025,32768
9026,32896
9027,33088
9028,33216
9029,33280
9030,33408
9031,33536
9032,33664
9033,33728
9034,33792
9035,33856
9036,33984
9037,33984
9038,34048
9039,34112
9040,34176
9041,34176
9042,34176
9043,34240
9044,34304
9045,34304
9046,34304
9047,34368
9048,34496
9049,34560
9050,34560
9051,34624
9052,34752
9053,34752
9054,34752
9055,34752
9056,34752
9057,34816
9058,34816
9059,34816
9060,34880
9061,34944
9062,34944
9063,35008
9064,35072
9065,35136
9066,35136
9067,35136
9068,35072
9069,35072
9070,34880
9071,34752
9072,34624
9073,34624
9074,34560
9075,34496
9076,34496
9077,34496
9078,34560
9079,34496
9080,34496
9081,34624
9082,34624
9083,34624
9084,34560
9085,34624
9086,34688
9087,34688
9088,34688
9089,34688
9090,34688
9091,34624
9092,34560
9093,34624
9094,34688
9095,34752
9096,34688
9097,34688
9098,34688
9099,34624
9100,34496
9101,34368
9102,34368
9103,34304
9104,34240
9105,34176
9106,34176
9107,34112
9108,34048
9109,34048
9110,34112
9111,34304
9112,34432
9113,34688
9114,34944
9115,35136
9116,35136
9117,35072
9118,35072
9119,35072
9120,35072
9121,35072
9122,35136
9123,35200
9124,35200
9125,35136
9126,35072
9127,34944
9128,34624
9129,34176
9130,33728
9131,33408
9132,33088
9133,32832
9134,32704
9135,32640
9136,32704
9137,32704
9138,32768
9139,32832
9140,32960
9141,33024
9142,33088
9143,33152
9144,33344
9145,33408
9146,33280
9147,33152
9148,33152
9149,33408
9150,33984
9151,35072
9152,36864
9153,39424
9154,42432
9155,46016
9156,48256
9157,49088
9158,47040
9159,42688
9160,37504
9161,32832
9162,29568
9163,27968
9164,27584
9165,27904
9166,28544
9167,29184
9168,29824
9169,30400
9170,30848
9171,31104
9172,31360
9173,31680
9174,31936
9175,32192
9176,32448
9177,32640
9178,32832
9179,32960
9180,33024
9181,33152
9182,33280
9183,33344
9184,33408
9185,33536
9186,33600
9187,33600
9188,33600
9189,33728
9190,33856
9191,33856
9192,33856
9193,33920
9194,34048
9195,34112
9196,34112
9197,34176
9198,34240
9199,34304
9200,34304
9201,34304
9202,34368
9203,34368
9204,34368
9205,34368
9206,34368
9207,34432
9208,34368
9209,34304
9210,34304
9211,34368
9212,34432
9213,34496
9214,34624
9215,34752
9216,34752
9217,34688
9218,34688
9219,34688
9220,34624
9221,34560
9222,34432
9223,34368
9224,34240
9225,34112
9226,33984
9227,33920
9228,33920
9229,33856
9230,33792
9231,33856
9232,33920
9233,33984
9234,34048
9235,34048
9236,34112
9237,34176
9238,34176
9239,34240
9240,34304
9241,34304
9242,34304
9243,34240
9244,34240
9245,34176
9246,34176
9247,34176
9248,34176
9249,34112
9250,34048
9251,33920
9252,33984
9253,33984
9254,33984
9255,33920
9256,33920
9257,33984
9258,33920
9259,33856
9260,33856
9261,33856
9262,33856
9263,33856
9264,33920
9265,34176
9266,34368
9267,34496
9268,34624
9269,34688
9270,34624
9271,34560
9272,34624
9273,34752
9274,34944
9275,35008
9276,34944
9277,34944
9278,34944
9279,34752
9280,34496
9281,34176
9282,33792
9283,33344
9284,32960
9285,32640
9286,32512
9287,32448
9288,32384
9289,32448
9290,32512
9291,32576
9292,32640
9293,32704
9294,32896
9295,32960
9296,33024
9297,33088
9298,33152
9299,33024
9300,32832
9301,32896
9302,33280
9303,34048
9304,35328
9305,37504
9306,40064
9307,43392
9308,46080
9309,47936
9310,47680
9311,44928
9312,40384
9313,35648
9314,31616
9315,28928
9316,27584
9317,27328
9318,27776
9319,28480
9320,29248
9321,29888
9322,30400
9323,30912
9324,31296
9325,31552
9326,31744
9327,32000
9328,32256
9329,32384
9330,32512
9331,32704
9332,32832
9333,32896
9334,33024
9335,33152
9336,33280
9337,33408
9338,33472
9339,33536
9340,33664
9341,33728
9342,33728
9343,33728
9344,33856
9345,33856
9346,33856
9347,33920
9348,34048
9349,34112
9350,34112
9351,34112
9352,34176
9353,34176
9354,34176
9355,34176
9356,34240
9357,34304
9358,34368
9359,34368
9360,34496
9361,34560
9362,34560
9363,34560
9364,34560
9365,34688
9366,34688
9367,34688
9368,34752
9369,34816
9370,34816
9371,34816
9372,34752
9373,34752
9374,34688
9375,34560
9376,34432
9377,34432
9378,34368
9379,34240
9380,34112
9381,34048
9382,34112
9383,34112
9384,34048
9385,34112
9386,34176
9387,34240
9388,34240
9389,34304
9390,34368
9391,34432
9392,34432
9393,34496
9394,34560
9395,34624
9396,34560
9397,34560
9398,34560
9399,34560
9400,34496
9401,34432
9402,34432
9403,34432
9404,34368
9405,34304
9406,34304
9407,34304
9408,34240
9409,34240
9410,34304
9411,34560
9412,34752
9413,34816
9414,34816
9415,34880
9416,34880
9417,34880
9418,34944
9419,35072
9420,35136
9421,35200
9422,35136
9423,35136
9424,35072
9425,34880
9426,34624
9427,34304
9428,33920
9429,33472
9430,33088
9431,32896
9432,32768
9433,32704
9434,32704
9435,32768
9436,32832
9437,32896
9438,32896
9439,33024
9440,33152
9441,33280
9442,33280
9443,33408
9444,33408
9445,33280
9446,33024
9447,32960
9448,33216
9449,33856
9450,35008
9451,36992
9452,39680
9453,42816
9454,45824
9455,47936
9456,48192
9457,45888
9458,41856
9459,37120
9460,32960
9461,29952
9462,28416
9463,27904
9464,28224
9465,28864
9466,29568
9467,30080
9468,30656
9469,31104
9470,31552
9471,31808
9472,32000
9473,32256
9474,32512
9475,32640
9476,32768
9477,32960
9478,33088
9479,33216
9480,33280
9481,33408
9482,33536
9483,33600
9484,33664
9485,33728
9486,33856
9487,33920
9488,33984
9489,33984
9490,34048
9491,34112
9492,34112
9493,34112
9494,34176
9495,34176
9496,34176
9497,34176
9498,34240
9499,34304
9500,34240
9501,34240
9502,34304
9503,34304
9504,34304
9505,34304
9506,34368
9507,34496
9508,34496
9509,34560
9510,34688
9511,34816
9512,34880
9513,34880
9514,35008
9515,35072
9516,35072
9517,35008
9518,35008
9519,35008
9520,34944
9521,34816
9522,34688
9523,34688
9524,34624
9525,34496
9526,34432
9527,34368
9528,34368
9529,34368
9530,34368
9531,34368
9532,34496
9533,34496
9534,34496
9535,34560
9536,34624
9537,34624
9538,34624
9539,34688
9540,34752
9541,34752
9542,34752
9543,34752
9544,34752
9545,34752
9546,34688
9547,34624
9548,34624
9549,34624
9550,34560
9551,34496
9552,34496
9553,34496
9554,34368
9555,34304
9556,34304
9557,34304
9558,34368
9559,34496
9560,34752
9561,35008
9562,35136
9563,35136
9564,35136
9565,35200
9566,35200
9567,35200
9568,35200
9569,35328
9570,35328
9571,35264
9572,35200
9573,35136
9574,35008
9575,34688
9576,34304
9577,33856
9578,33472
9579,33088
9580,32832
9581,32704
9582,32640
9583,32640
9584,32640
9585,32768
9586,32832
9587,32960
9588,33024
9589,33152
9590,33280
9591,33344
9592,33344
9593,33280
9594,33152
9595,33088
9596,33152
9597,33664
9598,34560
9599,36160
9600,38400
9601,41344
9602,44608
9603,47680
9604,49408
9605,48384
9606,44800
9607,39488
9608,34496
9609,30656
9610,28544
9611,27776
9612,27904
9613,28416
9614,29056
9615,29696
9616,30272
9617,30656
9618,31040
9619,31424
9620,31744
9621,32000
9622,32192
9623,32384
9624,32640
9625,32768
9626,32896
9627,33024
9628,33216
9629,33280
9630,33344
9631,33472
9632,33600
9633,33664
9634,33664
9635,33728
9636,33856
9637,33920
9638,33984
9639,34048
9640,34112
9641,34176
9642,34112
9643,34176
9644,34304
9645,34368
9646,34368
9647,34368
9648,34496
9649,34496
9650,34560
9651,34560
9652,34688
9653,34752
9654,34752
9655,34752
9656,34752
9657,34880
9658,34880
9659,34880
9660,34944
9661,35072
9662,35072
9663,35072
9664,35072
9665,35072
9666,35072
9667,35008
9668,34944
9669,34880
9670,34816
9671,34688
9672,34624
9673,34560
9674,34496
9675,34432
9676,34304
9677,34304
9678,34304
9679,34304
9680,34240
9681,34304
9682,34368
9683,34368
9684,34368
9685,34432
9686,34496
9687,34560
9688,34560
9689,34624
9690,34688
9691,34688
9692,34688
9693,34688
9694,34688
9695,34688
9696,34624
9697,34560
9698,34560
9699,34560
9700,34496
9701,34432
9702,34432
9703,34368
9704,34304
9705,34240
9706,34240
9707,34240
9708,34304
9709,34368
9710,34624
9711,34880
9712,35008
9713,35008
9714,34944
9715,35008
9716,35072
9717,35072
9718,35072
9719,35136
9720,35200
9721,35136
9722,35072
9723,34944
9724,34816
9725,34560
9726,34176
9727,33728
9728,33408
9729,33024
9730,32768
9731,32640
9732,32640
9733,32640
9734,32640
9735,32704
9736,32768
9737,32896
9738,32960
9739,33024
9740,33152
9741,33216
9742,33280
9743,33344
9744,33280
9745,33152
9746,33216
9747,33600
9748,34432
9749,35840
9750,37952
9751,40768
9752,44032
9753,47168
9754,49088
9755,48576
9756,45248
9757,40320
9758,35200
9759,31104
9760,28736
9761,27776
9762,27840
9763,28352
9764,28992
9765,29632
9766,30208
9767,30592
9768,30976
9769,31360
9770,31616
9771,31872
9772,32064
9773,32320
9774,32512
9775,32640
9776,32768
9777,32896
9778,33024
9779,33152
9780,33216
9781,33280
9782,33408
9783,33472
9784,33472
9785,33536
9786,33664
9787,33728
9788,33792
9789,33792
9790,33856
9791,33920
9792,33920
9793,33984
9794,34048
9795,34048
9796,34048
9797,34112
9798,34176
9799,34240
9800,34240
9801,34240
9802,34304
9803,34304
9804,34368
9805,34304
9806,34368
9807,34368
9808,34432
9809,34368
9810,34432
9811,34496
9812,34496
9813,34560
9814,34624
9815,34624
9816,34624
9817,34560
9818,34496
9819,34432
9820,34368
9821,34304
9822,34176
9823,34112
9824,34048
9825,33984
9826,33920
9827,33920
9828,33984
9829,33920
9830,33920
9831,33984
9832,34112
9833,34112
9834,34176
9835,34176
9836,34240
9837,34304
9838,34304
9839,34304
9840,34368
9841,34368
9842,34368
9843,34304
9844,34304
9845,34304
9846,34240
9847,34176
9848,34176
9849,34112
9850,34112
9851,34048
9852,34048
9853,34048
9854,33984
9855,33920
9856,33856
9857,33856
9858,33856
9859,33792
9860,33856
9861,33984
9862,34176
9863,34368
9864,34560
9865,34688
9866,34688
9867,34688
9868,34688
9869,34752
9870,34816
9871,34880
9872,34944
9873,35008
9874,35008
9875,34944
9876,34816
9877,34688
9878,34432
9879,33984
9880,33472
9881,33088
9882,32768
9883,32576
9884,32448
9885,32448
9886,32512
9887,32576
9888,32576
9889,32640
9890,32768
9891,32896
9892,32960
9893,33024
9894,33152
9895,33216
9896,33152
9897,33024
9898,32896
9899,33088
9900,33472
9901,34240
9902,35648
9903,37824
9904,40640
9905,43648
9906,46400
9907,47808
9908,47040
9909,43776
9910,39296
9911,34752
9912,31040
9913,28672
9914,27648
9915,27648
9916,28224
9917,28928
9918,29568
9919,30208
9920,30720
9921,31104
9922,31424
9923,31744
9924,32000
9925,32128
9926,32320
9927,32512
9928,32704
9929,32832
9930,32896
9931,33024
9932,33088
9933,33152
9934,33216
9935,33280
9936,33408
9937,33472
9938,33536
9939,33600
9940,33664
9941,33728
9942,33728
9943,33792
9944,33856
9945,33984
9946,33984
9947,33984
9948,34048
9949,34112
9950,34112
9951,34112
9952,34176
9953,34240
9954,34240
9955,34304
9956,34304
9957,34368
9958,34368
9959,34368
9960,34368
9961,34496
9962,34560
9963,34624
9964,34624
9965,34688
9966,34752
9967,34816
9968,34752
9969,34752
9970,34688
9971,34624
9972,34560
9973,34560
9974,34496
9975,34432
9976,34304
9977,34240
9978,34240
9979,34240
9980,34176
9981,34176
9982,34240
9983,34240
9984,34240
9985,34304
9986,34432
9987,34496
9988,34560
9989,34560
9990,34624
9991,34688
9992,34688
9993,34752
9994,34752
9995,34816
9996,34816
9997,34752
9998,34688
9999,34688
10000,34624
10001,34560
10002,34560
10003,34560
10004,34496
10005,34432
10006,34496
10007,34560
10008,34624
10009,34816
10010,35008
10011,35136
10012,35136
10013,35136
10014,35136
10015,35136
10016,35264
10017,35264
10018,35328
10019,35392
10020,35456
10021,35392
10022,35328
10023,35200
10024,34944
10025,34560
10026,34112
10027,33600
10028,33344
10029,33024
10030,32896
10031,32832
10032,32896
10033,32960
10034,32960
10035,33024
10036,33088
10037,33152
10038,33280
10039,33344
10040,33472
10041,33600
10042,33600
10043,33472
10044,33344
10045,33216
10046,33344
10047,33792
10048,34816
10049,36544
10050,38976
10051,41920
10052,45056
10053,47616
10054,48512
10055,46848
10056,43264
10057,38528
10058,34048
10059,30592
10060,28608
10061,27968
10062,28096
10063,28672
10064,29376
10065,30080
10066,30592
10067,31040
10068,31424
10069,31744
10070,32064
10071,32320
10072,32512
10073,32704
10074,32896
10075,33024
10076,33088
10077,33216
10078,33344
10079,33472
10080,33536
10081,33600
10082,33728
10083,33792
10084,33792
10085,33920
10086,33984
10087,34048
10088,34048
10089,34048
10090,34112
10091,34176
10092,34176
10093,34176
10094,34176
10095,34240
10096,34240
10097,34304
10098,34368
10099,34432
10100,34432
10101,34432
10102,34432
10103,34496
10104,34496
10105,34496
10106,34560
10107,34624
10108,34752
10109,34816
10110,34880
10111,34944
10112,35008
10113,35072
10114,35072
10115,35136
10116,35136
10117,35008
10118,34944
10119,34880
10120,34816
10121,34752
10122,34624
10123,34560
10124,34560
10125,34496
10126,34432
10127,34368
10128,34432
10129,34432
10130,34432
10131,34496
10132,34560
10133,34624
10134,34688
10135,34688
10136,34752
10137,34752
10138,34688
10139,34688
10140,34752
10141,34752
10142,34688
10143,34688
10144,34688
10145,34688
10146,34688
10147,34624
10148,34624
10149,34624
10150,34560
10151,34432
10152,34432
10153,34368
10154,34304
10155,34240
10156,34176
10157,34240
10158,34304
10159,34432
10160,34688
10161,34944
10162,35136
10163,35136
10164,35136
10165,35200
10166,35200
10167,35136
10168,35200
10169,35328
10170,35392
10171,35328
10172,35264
10173,35200
10174,35072
10175,34816
10176,34368
10177,33920
10178,33536
10179,33152
10180,32832
10181,32704
10182,32640
10183,32640
10184,32640
10185,32768
10186,32832
10187,32960
10188,33024
10189,33088
10190,33216
10191,33344
10192,33408
10193,33408
10194,33408
10195,33280
10196,33280
10197,33600
10198,34240
10199,35520
10200,37504
10201,40192
10202,43392
10203,46656
10204,49024
10205,49024
10206,46272
10207,41024
10208,36160
10209,31744
10210,29056
10211,27968
10212,27840
10213,28288
10214,28928
10215,29568
10216,30144
10217,30656
10218,31040
10219,31360
10220,31680
10221,31936
10222,32128
10223,32384
10224,32576
10225,32704
10226,32832
10227,32960
10228,33088
10229,33152
10230,33280
10231,33344
10232,33472
10233,33600
10234,33664
10235,33728
10236,33856
10237,33920
10238,33920
10239,33920
10240,33984
10241,34048
10242,34112
10243,34112
10244,34176
10245,34304
10246,34304
10247,34368
10248,34432
10249,34496
10250,34560
10251,34624
10252,34688
10253,34752
10254,34752
10255,34752
10256,34752
10257,34816
10258,34880
10259,34880
10260,34880
10261,35008
10262,35072
10263,35008
10264,35008
10265,35072
10266,35072
10267,35008
10268,34880
10269,34816
10270,34752
10271,34624
10272,34496
10273,34432
10274,34432
10275,34368
10276,34368
10277,34304
10278,34368
10279,34432
10280,34368
10281,34432
10282,34432
10283,34496
10284,34432
10285,34432
10286,34496
10287,34560
10288,34624
10289,34624
10290,34624
10291,34624
10292,34624
10293,34560
10294,34624
10295,34624
10296,34624
10297,34560
10298,34560
10299,34560
10300,34496
10301,34432
10302,34304
10303,34304
10304,34240
10305,34176
10306,34112
10307,34112
10308,34112
10309,34112
10310,34112
10311,34112
10312,34240
10313,34368
10314,34560
10315,34880
10316,35072
10317,35072
10318,35008
10319,35072
10320,35072
10321,35072
10322,35136
10323,35200
10324,35200
10325,35200
10326,35136
10327,35072
10328,34880
10329,34624
10330,34176
10331,33728
10332,33408
10333,33088
10334,32832
10335,32704
10336,32704
10337,32704
10338,32704
10339,32704
10340,32768
10341,32832
10342,32896
10343,32960
10344,33088
10345,33152
10346,33216
10347,33216
10348,32960
10349,33024
10350,33344
10351,33344
10352,35200
10353,37056
10354,39872
10355,40064
10356,46400
10357,46720
10358,48320
10359,46144
10360,41536
10361,36352
10362,31872
10363,29056
10364,27776
10365,27584
10366,28032
10367,28608
10368,29248
10369,29824
10370,29888
10371,30720
10372,30720
10373,31040
10374,31680
10375,31872
10376,32064
10377,32256
10378,32448
10379,32576
10380,32704
10381,32832
10382,32960
10383,33088
10384,33152
10385,33216
10386,33344
10387,33344
10388,33408
10389,33472
10390,33600
10391,33600
10392,33664
10393,33664
10394,33728
10395,33728
10396,33728
10397,33792
10398,33920
10399,33920
10400,33920
10401,33984
10402,34048
10403,34112
10404,34112
10405,34176
10406,34240
10407,34304
10408,34304
10409,34304
10410,34304
10411,34368
10412,34368
10413,34432
10414,34560
10415,34624
10416,34688
10417,34624
10418,34624
10419,34752
10420,34688
10421,34624
10422,34560
10423,34496
10424,34368
10425,34240
10426,34176
10427,34112
10428,34112
10429,34048
10430,33984
10431,34048
10432,34048
10433,34048
10434,34048
10435,34176
10436,34240
10437,34240
10438,34240
10439,34304
10440,34368
10441,34368
10442,34368
10443,34368
10444,34432
10445,34432
10446,34432
10447,34368
10448,34432
10449,34368
10450,34304
10451,34304
10452,34304
10453,34304
10454,34176
10455,34048
10456,34048
10457,33984
10458,33920
10459,33920
10460,33920
10461,33920
10462,33856
10463,33792
10464,33920
10465,33984
10466,34048
10467,34240
10468,34496
10469,34688
10470,34752
10471,34752
10472,34752
10473,34752
10474,34752
10475,34816
10476,34944
10477,35008
10478,35072
10479,35072
10480,34944
10481,34816
10482,34560
10483,34176
10484,33664
10485,33280
10486,32896
10487,32640
10488,32448
10489,32448
10490,32448
10491,32448
10492,32512
10493,32576
10494,32768
10495,32832
10496,32896
10497,32960
10498,33088
10499,33152
10500,33152
10501,33152
10502,33024
10503,32960
10504,33152
10505,33600
10506,34752
10507,34752
10508,38528
10509,41344
10510,44352
10511,46912
10512,47808
10513,46208
10514,42688
10515,38144
10516,33792
10517,30400
10518,28416
10519,27712
10520,27840
10521,28480
10522,28544
10523,29760
10524,30336
10525,30784
10526,31232
10527,31552
10528,31808
10529,32000
10530,32192
10531,32384
10532,32576
10533,32640
10534,32768
10535,32896
10536,33024
10537,33152
10538,33216
10539,33344
10540,33408
10541,33472
10542,33472
10543,33536
10544,33664
10545,33664
10546,33728
10547,33792
10548,33920
10549,33984
10550,33984
10551,34048
10552,34048
10553,34176
10554,34176
10555,34176
10556,34240
10557,34240
10558,34304
10559,34240
10560,34304
10561,34368
10562,34368
10563,34368
10564,34432
10565,34496
10566,34496
10567,34496
10568,34624
10569,34752
10570,34880
10571,34880
10572,34944
10573,34944
10574,34944
10575,34880
10576,34816
10577,34816
10578,34752
10579,34624
10580,34560
10581,34496
10582,34496
10583,34432
10584,34368
10585,34368
10586,34368
10587,34368
10588,34368
10589,34432
10590,34560
10591,34560
10592,34624
10593,34688
10594,34752
10595,34752
10596,34752
10597,34752
10598,34816
10599,34816
10600,34752
10601,34688
10602,34752
10603,34752
10604,34752
10605,34752
10606,34752
10607,34688
10608,34624
10609,34496
10610,34432
10611,34432
10612,34368
10613,34368
10614,34496
10615,34624
10616,34880
10617,35008
10618,35072
10619,35136
10620,35136
10621,35136
10622,35136
10623,35264
10624,35328
10625,35328
10626,35328
10627,35264
10628,35328
10629,35136
10630,34880
10631,34560
10632,34176
10633,33664
10634,33216
10635,32960
10636,32768
10637,32704
10638,32640
10639,32640
10640,32768
10641,32832
10642,32896
10643,32960
10644,33088
10645,33216
10646,33280
10647,33344
10648,33472
10649,33472
10650,33344
10651,33088
10652,33152
10653,33472
10654,34304
10655,35520
10656,37760
10657,40576
10658,43776
10659,46848
10660,48832
10661,48640
10662,45632
10663,40896
10664,35904
10665,31744
10666,29120
10667,28032
10668,27904
10669,28416
10670,29056
10671,29824
10672,29824
10673,30784
10674,31232
10675,31552
10676,31808
10677,32064
10678,32256
10679,32448
10680,32640
10681,32832
10682,33024
10683,33088
10684,33216
10685,33344
10686,33472
10687,33472
10688,33600
10689,33728
10690,33792
10691,33856
10692,33920
10693,33920
10694,34048
10695,34048
10696,34112
10697,34112
10698,34176
10699,34240
10700,34240
10701,34240
10702,34304
10703,34368
10704,34368
10705,34368
10706,34368
10707,34432
10708,34496
10709,34432
10710,34496
10711,34560
10712,34560
10713,34560
10714,34624
10715,34752
10716,34816
10717,34752
10718,34944
10719,35008
10720,35072
10721,35072
10722,35072
10723,35072
10724,35008
10725,34880
10726,34816
10727,34752
10728,34688
10729,34624
10730,34496
10731,34496
10732,34432
10733,34432
10734,34432
10735,34432
10736,34496
10737,34560
10738,34560
10739,34624
10740,34688
10741,34752
10742,34688
10743,34752
10744,34752
10745,34752
10746,34752
10747,34752
10748,34816
10749,34816
10750,34752
10751,34688
10752,34688
10753,34688
10754,34624
10755,34560
10756,34496
10757,34496
10758,34432
10759,34368
10760,34304
10761,34240
10762,34240
10763,34240
10764,34368
10765,34624
10766,34880
10767,35072
10768,35136
10769,35136
10770,35136
10771,35136
10772,35136
10773,35200
10774,35264
10775,35264
10776,35264
10777,35200
10778,35264
10779,35136
10780,34880
10781,34560
10782,34176
10783,33664
10784,33216
10785,32960
10786,32768
10787,32640
10788,32576
10789,32640
10790,32768
10791,32896
10792,32896
10793,33024
10794,33088
10795,33216
10796,33280
10797,33344
10798,33472
10799,33472
10800,33280
10801,33152
10802,33408
10803,33920
10804,34944
10805,36608
10806,39104
10807,42240
10808,45504
10809,48384
10810,49472
10811,47872
10812,43584
10813,38272
10814,33408
10815,29952
10816,28224
10817,27712
10818,27968
10819,28608
10820,29248
10821,30016
10822,30080
10823,30848
10824,31232
10825,31552
10826,31808
10827,32064
10828,32256
10829,32384
10830,32576
10831,32704
10832,32832
10833,32960
10834,33024
10835,33152
10836,33344
10837,33344
10838,33472
10839,33536
10840,33664
10841,33728
10842,33728
10843,33792
10844,33920
10845,33984
10846,34048
10847,34112
10848,34176
10849,34176
10850,34176
10851,34176
10852,34240
10853,34304
10854,34304
10855,34304
10856,34368
10857,34432
10858,34432
10859,34432
10860,34496
10861,34496
10862,34560
10863,34560
10864,34560
10865,34688
10866,34752
10867,34752
10868,34816
10869,34880
10870,34944
10871,34880
10872,34880
10873,34880
10874,34816
10875,34752
10876,34624
10877,34496
10878,34432
10879,34304
10880,34240
10881,34176
10882,34112
10883,34176
10884,34112
10885,34176
10886,34240
10887,34240
10888,34240
10889,34304
10890,34368
10891,34368
10892,34368
10893,34432
10894,34496
10895,34496
10896,34496
10897,34432
10898,34496
10899,34496
10900,34432
10901,34304
10902,34304
10903,34240
10904,34176
10905,34112
10906,34112
10907,34112
10908,34048
10909,33984
10910,33920
10911,33920
10912,33920
10913,33920
10914,33984
10915,34112
10916,34368
10917,34560
10918,34752
10919,34816
10920,34816
10921,34816
10922,34752
10923,34816
10924,34944
