,ECG
0,35136
1,34752
2,33984
3,33344
4,32960
5,32896
6,33024
7,33152
8,33344
9,33472
10,33600
11,33472
12,33280
13,33152
14,33408
15,34432
16,36096
17,38208
18,40256
19,41536
20,41280
21,38912
22,35968
23,33536
24,32256
25,31680
26,31552
27,31744
28,32064
29,32384
30,32640
31,33088
32,33408
33,33664
34,33856
35,33856
36,33856
37,33856
38,33856
39,33984
40,34368
41,34560
42,34432
43,34304
44,34176
45,34368
46,34560
47,34240
48,33920
49,33920
50,34176
51,34304
52,33728
53,33152
54,32960
55,33024
56,33344
57,33856
58,34112
59,34304
60,34560
61,34752
62,34752
63,34816
64,34816
65,35008
66,35328
67,35520
68,35584
69,35392
70,35264
71,35456
72,35520
73,35520
74,35648
75,35712
76,35584
77,35648
78,35776
79,35712
80,35648
81,35648
82,35712
83,35584
84,35392
85,35136
86,34944
87,34560
88,34176
89,33792
90,33664
91,33536
92,33280
93,32960
94,32832
95,33088
96,33280
97,33344
98,33024
99,32576
100,32320
101,32384
102,32704
103,33024
104,32960
105,32832
106,32832
107,32960
108,33152
109,33216
110,33216
111,33216
112,33408
113,33472
114,33344
115,33408
116,33408
117,33344
118,33856
119,34368
120,34240
121,33856
122,33472
123,33088
124,32960
125,32960
126,32896
127,33024
128,33280
129,33472
130,33600
131,33728
132,33856
133,33792
134,33856
135,33920
136,34048
137,34112
138,34112
139,33920
140,33856
141,33856
142,33792
143,33728
144,33984
145,34368
146,34688
147,34432
148,33664
149,33280
150,33216
151,33216
152,33216
153,33408
154,33536
155,33600
156,33728
157,33856
158,34048
159,34240
160,34304
161,34432
162,34752
163,34816
164,34560
165,34240
166,33728
167,33152
168,33216
169,33920
170,33984
171,33472
172,33088
173,33088
174,33280
175,33472
176,33536
177,33792
178,34048
179,34112
180,34304
181,34624
182,34880
183,34688
184,34368
185,34432
186,34752
187,34944
188,34560
189,34112
190,33856
191,33728
192,33856
193,33856
194,33728
195,33600
196,33536
197,33920
198,34112
199,33920
200,33728
201,33600
202,33600
203,33664
204,33536
205,33600
206,33792
207,33792
208,33856
209,34240
210,34880
211,34752
212,33856
213,33024
214,32704
215,33280
216,34944
217,37248
218,39552
219,41152
220,41216
221,39040
222,36032
223,33536
224,32128
225,31488
226,31488
227,31936
228,32384
229,32768
230,33088
231,33344
232,33472
233,33600
234,33728
235,34048
236,34560
237,34432
238,33664
239,33216
240,33280
241,33408
242,33472
243,33600
244,33664
245,33728
246,33792
247,33920
248,34112
249,34112
250,33984
251,33984
252,34176
253,34368
254,34432
255,34368
256,34432
257,34688
258,34688
259,34496
260,34304
261,34368
262,34304
263,34112
264,34112
265,34496
266,34816
267,34880
268,34880
269,34944
270,35136
271,35200
272,35328
273,35712
274,36096
275,35968
276,35904
277,36032
278,35968
279,35776
280,35648
281,35648
282,35776
283,35904
284,35904
285,35520
286,35072
287,34688
288,34240
289,33728
290,33152
291,32768
292,32448
293,32320
294,32512
295,33024
296,32896
297,32448
298,32192
299,32192
300,32256
301,32384
302,32640
303,32896
304,33024
305,33024
306,33280
307,33728
308,34112
309,33984
310,33280
311,32832
312,32640
313,32640
314,32768
315,33024
316,33152
317,33344
318,33600
319,33728
320,33728
321,33472
322,33280
323,33344
324,33536
325,33536
326,33472
327,33536
328,33856
329,33984
330,33984
331,33728
332,33600
333,33664
334,34048
335,34176
336,33856
337,33408
338,33216
339,33216
340,33408
341,33408
342,33408
343,33664
344,33856
345,33856
346,33984
347,34176
348,34112
349,33792
350,33536
351,33472
352,33664
353,33792
354,33664
355,33664
356,33920
357,34176
358,34048
359,33856
360,33728
361,33920
362,34112
363,34048
364,33792
365,33728
366,33728
367,33792
368,34112
369,34304
370,34304
371,34240
372,34240
373,34176
374,34176
375,34112
376,34112
377,34304
378,34496
379,34368
380,34048
381,34112
382,34240
383,34048
384,33600
385,33408
386,33344
387,33216
388,33216
389,33408
390,33536
391,33600
392,33600
393,33600
394,33728
395,33792
396,33728
397,33856
398,34112
399,34112
400,33856
401,33344
402,32896
403,32960
404,33728
405,35264
406,37440
407,39744
408,41088
409,41152
410,39168
411,36224
412,33472
413,31936
414,31232
415,31232
416,31616
417,32192
418,32768
419,33024
420,33024
421,32960
422,33088
423,33344
424,33536
425,33600
426,33600
427,33664
428,33792
429,33792
430,33984
431,34176
432,34304
433,34112
434,34048
435,34112
436,34048
437,33920
438,33792
439,33856
440,34432
441,34624
442,34176
443,33728
444,33600
445,33792
446,33984
447,33984
448,34048
449,34176
450,34304
451,34432
452,34624
453,34752
454,34816
455,34816
456,35008
457,35200
458,35264
459,35328
460,35456
461,35648
462,35712
463,35712
464,35840
465,35904
466,35904
467,36032
468,36096
469,36096
470,35904
471,35520
472,35328
473,35136
474,34944
475,34688
476,34304
477,33920
478,33600
479,33216
480,32960
481,32896
482,32896
483,32896
484,32704
485,32640
486,32576
487,32576
488,32576
489,32640
490,33024
491,33344
492,33344
493,33152
494,32960
495,32832
496,32640
497,32768
498,33152
499,33536
500,33728
501,33472
502,33088
503,32896
504,32896
505,32896
506,33024
507,33152
508,33280
509,33344
510,33472
511,33728
512,33856
513,33664
514,33472
515,33600
516,33792
517,33984
518,33856
519,33664
520,33536
521,33408
522,33408
523,33472
524,33600
525,33664
526,33792
527,33920
528,34048
529,33984
530,33856
531,33728
532,33792
533,33792
534,33728
535,33856
536,33920
537,33856
538,33920
539,33984
540,33984
541,33920
542,33664
543,33536
544,33536
545,33664
546,33728
547,33984
548,34176
549,34240
550,34240
551,34432
552,34304
553,33920
554,33536
555,33536
556,34048
557,34368
558,34176
559,33792
560,33792
561,34176
562,34432
563,34368
564,34368
565,34560
566,34624
567,34304
568,34048
569,33856
570,33728
571,33664
572,33664
573,33664
574,33664
575,33664
576,33728
577,33984
578,33920
579,33600
580,33472
581,33472
582,33472
583,33408
584,33472
585,33600
586,33664
587,33472
588,33088
589,32960
590,33216
591,34176
592,35904
593,37824
594,40000
595,41280
596,41152
597,39104
598,36160
599,33408
600,31424
601,30656
602,30784
603,31360
604,32000
605,32640
606,33152
607,33472
608,33536
609,33664
610,34048
611,34560
612,34496
613,34112
614,33792
615,33600
616,33408
617,33408
618,33600
619,33728
620,33856
621,33984
622,33920
623,33984
624,34112
625,34176
626,34368
627,34432
628,34304
629,34048
630,33792
631,33856
632,34176
633,34368
634,34432
635,34560
636,34624
637,34624
638,34688
639,34816
640,34944
641,34880
642,34880
643,35008
644,35200
645,35328
646,35264
647,35328
648,35456
649,35584
650,35648
651,35712
652,35904
653,36224
654,36416
655,36480
656,36544
657,36288
658,35776
659,35392
660,35200
661,35008
662,34624
663,34176
664,33728
665,33472
666,33152
667,32832
668,32704
669,32768
670,32896
671,32832
672,32640
673,32640
674,32832
675,32768
676,32768
677,32832
678,32896
679,32960
680,33216
681,33344
682,33216
683,32896
684,32768
685,32960
686,33344
687,33536
688,33280
689,33024
690,33024
691,33088
692,33088
693,33152
694,33344
695,33472
696,33408
697,33536
698,33792
699,33984
700,33984
701,33728
702,33472
703,33472
704,33600
705,33728
706,33664
707,33664
708,33472
709,33280
710,33344
711,33472
712,33536
713,33600
714,33728
715,33984
716,33984
717,33920
718,33856
719,33792
720,33792
721,33792
722,33920
723,34048
724,34048
725,33856
726,33600
727,33536
728,33600
729,33600
730,33664
731,33920
732,34176
733,34240
734,34176
735,34176
736,34176
737,34048
738,33984
739,34112
740,34560
741,34752
742,34432
743,34176
744,34048
745,34048
746,33856
747,33664
748,33536
749,33536
750,33536
751,33408
752,33472
753,33728
754,33920
755,33792
756,33664
757,33664
758,33536
759,33472
760,33536
761,33728
762,33792
763,33728
764,33728
765,33728
766,33536
767,33408
768,33408
769,33984
770,35136
771,36736
772,38848
773,40576
774,41280
775,40000
776,37504
777,34816
778,32640
779,31360
780,30912
781,31168
782,31680
783,32192
784,32640
785,33024
786,33408
787,33664
788,33728
789,33792
790,34048
791,34176
792,34176
793,34048
794,33984
795,33984
796,33984
797,34048
798,34048
799,34240
800,34176
801,34112
802,34112
803,34176
804,34176
805,34176
806,34240
807,34240
808,34368
809,34624
810,34816
811,34816
812,34560
813,34432
814,34368
815,34240
816,34176
817,34240
818,34560
819,34752
820,34816
821,34880
822,35008
823,35136
824,35264
825,35328
826,35520
827,35648
828,35840
829,35904
830,35904
831,35968
832,36032
833,36096
834,36032
835,36032
836,35840
837,35648
838,35456
839,35136
840,34816
841,34368
842,33856
843,33472
844,33280
845,33280
846,33152
847,32960
848,32768
849,32640
850,32576
851,32640
852,32832
853,32832
854,32704
855,32576
856,32704
857,32960
858,33024
859,32960
860,33152
861,33472
862,33216
863,33088
864,33152
865,33088
866,33216
867,33216
868,33280
869,33344
870,33344
871,33344
872,33408
873,33600
874,33664
875,33728
876,33664
877,33728
878,33728
879,33664
880,33600
881,33856
882,33792
883,33728
884,33856
885,34240
886,34240
887,33792
888,33408
889,33280
890,33280
891,33216
892,33152
893,33728
894,33856
895,33792
896,33728
897,33792
898,33920
899,33920
900,33856
901,33984
902,34112
903,34112
904,34112
905,34112
906,34048
907,34048
908,33984
909,34048
910,33984
911,34304
912,34304
913,34432
914,34560
915,34624
916,34496
917,34624
918,34880
919,34752
920,34432
921,34176
922,34048
923,33984
924,33920
925,33856
926,33664
927,33664
928,33664
929,33536
930,33728
931,33984
932,33792
933,33472
934,33408
935,33536
936,33664
937,33664
938,33792
939,34240
940,34496
941,34048
942,33408
943,33088
944,32768
945,32512
946,32704
947,33664
948,35392
949,37568
950,39616
951,40896
952,40768
953,38592
954,35648
955,35456
956,32256
957,31872
958,31872
959,32000
960,32320
961,32576
962,32704
963,33024
964,33728
965,34176
966,33984
967,33664
968,33600
969,33536
970,33472
971,33600
972,33728
973,33664
974,33536
975,33664
976,33856
977,34048
978,34176
979,34304
980,34496
981,34624
982,34176
983,33728
984,33856
985,34176
986,34304
987,34176
988,34112
989,34176
990,34176
991,34048
992,34048
993,34176
994,34368
995,34432
996,34560
997,34752
998,35008
999,35072
1000,35136
1001,35264
1002,35392
1003,35456
1004,35456
1005,35584
1006,35712
1007,35712
1008,35776
1009,35968
1010,36096
1011,35968
1012,35776
1013,35712
1014,35648
1015,35584
1016,35200
1017,34880
1018,34688
1019,34368
1020,33984
1021,33600
1022,33344
1023,33216
1024,33088
1025,32896
1026,32960
1027,32960
1028,32768
1029,32512
1030,32512
1031,32576
1032,32640
1033,32768
1034,32832
1035,32960
1036,32960
1037,32960
1038,33024
1039,33152
1040,33216
1041,33216
1042,33216
1043,33344
1044,33472
1045,33408
1046,33408
1047,33600
1048,33664
1049,33664
1050,33600
1051,33728
1052,33792
1053,33536
1054,33344
1055,33344
1056,33472
1057,33472
1058,33472
1059,33600
1060,33728
1061,33728
1062,33728
1063,33792
1064,33856
1065,33792
1066,33728
1067,33728
1068,33792
1069,33920
1070,33920
1071,33920
1072,33984
1073,34048
1074,34176
1075,34304
1076,34240
1077,34176
1078,33984
1079,33664
1080,33408
1081,33344
1082,33280
1083,33344
1084,33472
1085,33600
1086,33536
1087,33536
1088,33600
1089,33728
1090,33792
1091,33792
1092,33856
1093,33920
1094,33984
1095,33920
1096,33984
1097,34048
1098,34048
1099,33920
1100,33856
1101,34048
1102,34240
1103,34368
1104,34496
1105,34688
1106,34880
1107,34816
1108,34496
1109,34432
1110,34368
1111,33984
1112,33600
1113,33472
1114,33536
1115,33600
1116,33664
1117,33792
1118,33920
1119,33856
1120,33600
1121,33472
1122,33536
1123,33664
1124,33664
1125,33664
1126,33856
1127,34048
1128,34112
1129,34048
1130,34048
1131,34112
1132,34304
1133,34112
1134,33536
1135,33088
1136,32832
1137,32640
1138,33152
1139,34944
1140,37248
1141,39488
1142,40896
1143,41152
1144,39424
1145,36288
1146,33280
1147,31872
1148,31232
1149,31296
1150,31808
1151,32384
1152,32960
1153,33216
1154,33408
1155,33600
1156,33600
1157,33536
1158,33472
1159,33664
1160,33856
1161,33856
1162,33792
1163,33792
1164,33920
1165,33984
1166,33920
1167,33920
1168,34048
1169,34304
1170,34496
1171,34432
1172,34368
1173,34304
1174,34048
1175,33920
1176,33984
1177,34112
1178,34176
1179,34240
1180,34496
1181,34816
1182,34880
1183,34624
1184,34560
1185,34688
1186,34688
1187,34688
1188,34624
1189,34688
1190,34688
1191,34752
1192,34816
1193,35008
1194,35328
1195,35392
1196,35520
1197,35648
1198,35712
1199,35712
1200,35776
1201,35904
1202,36032
1203,36096
1204,36032
1205,35968
1206,35968
1207,35712
1208,35264
1209,34944
1210,34624
1211,34112
1212,33600
1213,33216
1214,33088
1215,32896
1216,32704
1217,32768
1218,33088
1219,33088
1220,32832
1221,32576
1222,32512
1223,32384
1224,32576
1225,32960
1226,33024
1227,32832
1228,32768
1229,32832
1230,32896
1231,33024
1232,33024
1233,33024
1234,33216
1235,33664
1236,33920
1237,33600
1238,33280
1239,33152
1240,33152
1241,33216
1242,33152
1243,33280
1244,33344
1245,33408
1246,33664
1247,34048
1248,33984
1249,33664
1250,33408
1251,33408
1252,33600
1253,33600
1254,33600
1255,33536
1256,33600
1257,33536
1258,33600
1259,33728
1260,33792
1261,33600
1262,33408
1263,33408
1264,33472
1265,33472
1266,33600
1267,33792
1268,33920
1269,33856
1270,33728
1271,33664
1272,33856
1273,33984
1274,33856
1275,33920
1276,34240
1277,34304
1278,34176
1279,33920
1280,33728
1281,33536
1282,33536
1283,33728
1284,33984
1285,34048
1286,33856
1287,33600
1288,33536
1289,33664
1290,33728
1291,33728
1292,33792
1293,33984
1294,34176
1295,34176
1296,34176
1297,34176
1298,34176
1299,34240
1300,34176
1301,34112
1302,34240
1303,34304
1304,34368
1305,34496
1306,34432
1307,34304
1308,34176
1309,34240
1310,34176
1311,33920
1312,33664
1313,33600
1314,33792
1315,33600
1316,33344
1317,33408
1318,33856
1319,33984
1320,33792
1321,33664
1322,33792
1323,33920
1324,33920
1325,33920
1326,33920
1327,33792
1328,33472
1329,33216
1330,33408
1331,34112
1332,35584
1333,37696
1334,40064
1335,41472
1336,41216
1337,38656
1338,35520
1339,33152
1340,31808
1341,31552
1342,31936
1343,32384
1344,32576
1345,32512
1346,32640
1347,32896
1348,33280
1349,33536
1350,33792
1351,33984
1352,34176
1353,34112
1354,33984
1355,33984
1356,34048
1357,33984
1358,33856
1359,33856
1360,33920
1361,33920
1362,34048
1363,34176
1364,34496
1365,34752
1366,34688
1367,34432
1368,34176
1369,34176
1370,34112
1371,34048
1372,34112
1373,34048
1374,34112
1375,34176
1376,34368
1377,34496
1378,34560
1379,34560
1380,34752
1381,35008
1382,35136
1383,35328
1384,35456
1385,35328
1386,35136
1387,35008
1388,35072
1389,35328
1390,35520
1391,35584
1392,35776
1393,36096
1394,36224
1395,36032
1396,35968
1397,35968
1398,35904
1399,35584
1400,35136
1401,35008
1402,34816
1403,34432
1404,33920
1405,33536
1406,33280
1407,32960
1408,32768
1409,32704
1410,32704
1411,32640
1412,32576
1413,32640
1414,32832
1415,32896
1416,32768
1417,32768
1418,32896
1419,33216
1420,33536
1421,33536
1422,33344
1423,33216
1424,32960
1425,32960
1426,33088
1427,33152
1428,33024
1429,32960
1430,33088
1431,33408
1432,33408
1433,33664
1434,33984
1435,33984
1436,33472
1437,33088
1438,33024
1439,33216
1440,33344
1441,33344
1442,33408
1443,33600
1444,33728
1445,33664
1446,33536
1447,33536
1448,33664
1449,33664
1450,33536
1451,33664
1452,33920
1453,33984
1454,33856
1455,33728
1456,33728
1457,33728
1458,33536
1459,33408
1460,33472
1461,33728
1462,33728
1463,33728
1464,33920
1465,33984
1466,33792
1467,33664
1468,33664
1469,33792
1470,33856
1471,34048
1472,33984
1473,33920
1474,33792
1475,33728
1476,33856
1477,33856
1478,33792
1479,33792
1480,33984
1481,34112
1482,33920
1483,33728
1484,33728
1485,33856
1486,33984
1487,34112
1488,34432
1489,34432
1490,34496
1491,34496
1492,34240
1493,34176
1494,34048
1495,33984
1496,33984
1497,34112
1498,34304
1499,34240
1500,33856
1501,33600
1502,33536
1503,33536
1504,33472
1505,33600
1506,33728
1507,33728
1508,33792
1509,33920
1510,34176
1511,34304
1512,34176
1513,33984
1514,33984
1515,33984
1516,33984
1517,33856
1518,33856
1519,33728
1520,33600
1521,33984
1522,34752
1523,36288
1524,38464
1525,40384
1526,41216
1527,40448
1528,37760
1529,34944
1530,32832
1531,31872
1532,31424
1533,31424
1534,32192
1535,33024
1536,33088
1537,32960
1538,32960
1539,33216
1540,33408
1541,33472
1542,33664
1543,33856
1544,33984
1545,33920
1546,33920
1547,34048
1548,34176
1549,34112
1550,34112
1551,34304
1552,34496
1553,34304
1554,34048
1555,34112
1556,34176
1557,34112
1558,33920
1559,33984
1560,34176
1561,34240
1562,34240
1563,34368
1564,34624
1565,34560
1566,34432
1567,34560
1568,34688
1569,34624
1570,34432
1571,34368
1572,34560
1573,34752
1574,34944
1575,35072
1576,35136
1577,35264
1578,35328
1579,35328
1580,35456
1581,35712
1582,35712
1583,35712
1584,35712
1585,35648
1586,35584
1587,35456
1588,35456
1589,35520
1590,35520
1591,35328
1592,34944
1593,34624
1594,34432
1595,34176
1596,33856
1597,33408
1598,33280
1599,32832
1600,32320
1601,32128
1602,32320
1603,32448
1604,32448
1605,32512
1606,32576
1607,32640
1608,32640
1609,32704
1610,32832
1611,32960
1612,33024
1613,33280
1614,33536
1615,33408
1616,33216
1617,33088
1618,33152
1619,33344
1620,33344
1621,33280
1622,33408
1623,33472
1624,33472
1625,33408
1626,33344
1627,33280
1628,33280
1629,33472
1630,33536
1631,33472
1632,33280
1633,33152
1634,33152
1635,33280
1636,33408
1637,33472
1638,33536
1639,33664
1640,33728
1641,33792
1642,33856
1643,34048
1644,34112
1645,33792
1646,33536
1647,33600
1648,33728
1649,33728
1650,33792
1651,33792
1652,33728
1653,33600
1654,33600
1655,33664
1656,33792
1657,33920
1658,33856
1659,33664
1660,33664
1661,33792
1662,33728
1663,33664
1664,33664
1665,33728
1666,33792
1667,33984
1668,34048
1669,33984
1670,33664
1671,33536
1672,33600
1673,33728
1674,33728
1675,33728
1676,33920
1677,34112
1678,34240
1679,34240
1680,34304
1681,34432
1682,34368
1683,34112
1684,33920
1685,33984
1686,34112
1687,34112
1688,34112
1689,34176
1690,34240
1691,34240
1692,34304
1693,34240
1694,34176
1695,33984
1696,33600
1697,33536
1698,33600
1699,33600
1700,33472
1701,33536
1702,33664
1703,33664
1704,33536
1705,33536
1706,33664
1707,33856
1708,33792
1709,33728
1710,33856
1711,33920
1712,33792
1713,33472
1714,33280
1715,33280
1716,33792
1717,34560
1718,36352
1719,38720
1720,40704
1721,41408
1722,40448
1723,37760
1724,34688
1725,32448
1726,31360
1727,31168
1728,31488
1729,32000
1730,32576
1731,33152
1732,33216
1733,33344
1734,33536
1735,33856
1736,33920
1737,33920
1738,34176
1739,34240
1740,34048
1741,33728
1742,33536
1743,33600
1744,33664
1745,33664
1746,33792
1747,33856
1748,33984
1749,34240
1750,34304
1751,34176
1752,34048
1753,33920
1754,33856
1755,33984
1756,34176
1757,34432
1758,34432
1759,34432
1760,34496
1761,34496
1762,34432
1763,34496
1764,34688
1765,34816
1766,34816
1767,34880
1768,35008
1769,35136
1770,35136
1771,35136
1772,35328
1773,35456
1774,35520
1775,35520
1776,35712
1777,35776
1778,35776
1779,35776
1780,35840
1781,35904
1782,35968
1783,36096
1784,36096
1785,36032
1786,35648
1787,35008
1788,34496
1789,34176
1790,33856
1791,33472
1792,33280
1793,33024
1794,32704
1795,32448
1796,32320
1797,32448
1798,32640
1799,32512
1800,32448
1801,32576
1802,32768
1803,32768
1804,32832
1805,32896
1806,33088
1807,33280
1808,33280
1809,33152
1810,33216
1811,33216
1812,33152
1813,33088
1814,33216
1815,33408
1816,33472
1817,33536
1818,33664
1819,33728
1820,33600
1821,33728
1822,33728
1823,33600
1824,33344
1825,33024
1826,32960
1827,33088
1828,33280
1829,33408
1830,33472
1831,33600
1832,33664
1833,33664
1834,33664
1835,33792
1836,33856
1837,33856
1838,33920
1839,34112
1840,34048
1841,33728
1842,33664
1843,33728
1844,33792
1845,33600
1846,33664
1847,33856
1848,33984
1849,33920
1850,33728
1851,33728
1852,33728
1853,33600
1854,33536
1855,33536
1856,33664
1857,33728
1858,33664
1859,33792
1860,33984
1861,33984
1862,33856
1863,33856
1864,33856
1865,33984
1866,33984
1867,34048
1868,34240
1869,34112
1870,33728
1871,33600
1872,33728
1873,33792
1874,33664
1875,33664
1876,33664
1877,33664
1878,33664
1879,33664
1880,33728
1881,33856
1882,33856
1883,33856
1884,33920
1885,33984
1886,33984
1887,33984
1888,34048
1889,34112
1890,34112
1891,34048
1892,34176
1893,34304
1894,34368
1895,34240
1896,34112
1897,34112
1898,34240
1899,34432
1900,34624
1901,34624
1902,34496
1903,34240
1904,34048
1905,33792
1906,33664
1907,33536
1908,33536
1909,33664
1910,33920
1911,33920
1912,33792
1913,33664
1914,33728
1915,33856
1916,33792
1917,33792
1918,33984
1919,34048
1920,33920
1921,33792
1922,33728
1923,33664
1924,33472
1925,33280
1926,33408
1927,33728
1928,34688
1929,36352
1930,38592
1931,40576
1932,41344
1933,40512
1934,37824
1935,34944
1936,32768
1937,31616
1938,31232
1939,31488
1940,31872
1941,32512
1942,32704
1943,33024
1944,33408
1945,33600
1946,33792
1947,33920
1948,33856
1949,33728
1950,33664
1951,33728
1952,33792
1953,33920
1954,33984
1955,34176
1956,34176
1957,34048
1958,33792
1959,33664
1960,33728
1961,33856
1962,33856
1963,33920
1964,34112
1965,34112
1966,33984
1967,34048
1968,34240
1969,34432
1970,34432
1971,34496
1972,34688
1973,34880
1974,34944
1975,34816
1976,34624
1977,34560
1978,34688
1979,34816
1980,34944
1981,34944
1982,34880
1983,34880
1984,35072
1985,35456
1986,35712
1987,35776
1988,35584
1989,35456
1990,35520
1991,35584
1992,35712
1993,35776
1994,35712
1995,35648
1996,35520
1997,35328
1998,35072
1999,34752
2000,34368
2001,34048
2002,33728
2003,33408
2004,33088
2005,32896
2006,32896
2007,32768
2008,32768
2009,32896
2010,33152
2011,33024
2012,32704
2013,32512
2014,32512
2015,32576
2016,32576
2017,32640
2018,32832
2019,33088
2020,33344
2021,33408
2022,33344
2023,33280
2024,33152
2025,33088
2026,33152
2027,33344
2028,33408
2029,33472
2030,33408
2031,33472
2032,33344
2033,33216
2034,33280
2035,33280
2036,33280
2037,33216
2038,33280
2039,33344
2040,33408
2041,33408
2042,33408
2043,33600
2044,33728
2045,33792
2046,33728
2047,33664
2048,33792
2049,33856
2050,33728
2051,33728
2052,33856
2053,33920
2054,34048
2055,33920
2056,33792
2057,33728
2058,33792
2059,33728
2060,33600
2061,33536
2062,33408
2063,33344
2064,33472
2065,33600
2066,33664
2067,33728
2068,33920
2069,33984
2070,33856
2071,33792
2072,33792
2073,33984
2074,34048
2075,33984
2076,33984
2077,33984
2078,33920
2079,33792
2080,33856
2081,33920
2082,34048
2083,33984
2084,33984
2085,33984
2086,34176
2087,34304
2088,34304
2089,34368
2090,34240
2091,34048
2092,33984
2093,33920
2094,33984
2095,33792
2096,33664
2097,33664
2098,33792
2099,33792
2100,33728
2101,33920
2102,34176
2103,34112
2104,33920
2105,33920
2106,34176
2107,34304
2108,34304
2109,34176
2110,34176
2111,34176
2112,34176
2113,34304
2114,34432
2115,34688
2116,34688
2117,34496
2118,34176
2119,34048
2120,33920
2121,33728
2122,33728
2123,33664
2124,33536
2125,33536
2126,33728
2127,33856
2128,33792
2129,33984
2130,34048
2131,33792
2132,33600
2133,33472
2134,33536
2135,33664
2136,33792
2137,33664
2138,33472
2139,33344
2140,33280
2141,33600
2142,34688
2143,36672
2144,39040
2145,40832
2146,41472
2147,40448
2148,37696
2149,34816
2150,32704
2151,31744
2152,31744
2153,32128
2154,32384
2155,32640
2156,32896
2157,33088
2158,33216
2159,33536
2160,34048
2161,34176
2162,33792
2163,33472
2164,33472
2165,33472
2166,33472
2167,33664
2168,33856
2169,33920
2170,33856
2171,33792
2172,33920
2173,34176
2174,34112
2175,33984
2176,34048
2177,34176
2178,34496
2179,34496
2180,34368
2181,34304
2182,34240
2183,34304
2184,34496
2185,34560
2186,34496
2187,34304
2188,34240
2189,34368
2190,34560
2191,34624
2192,34752
2193,34944
2194,35008
2195,35072
2196,35136
2197,35328
2198,35712
2199,35840
2200,35776
2201,35712
2202,35712
2203,35840
2204,35968
2205,36032
2206,35904
2207,35712
2208,35584
2209,35648
2210,35712
2211,35456
2212,35200
2213,34944
2214,34624
2215,34112
2216,33664
2217,33344
2218,33088
2219,32960
2220,32768
2221,32576
2222,32512
2223,32640
2224,32768
2225,32768
2226,32768
2227,32960
2228,33024
2229,32960
2230,33024
2231,33088
2232,33088
2233,33088
2234,33152
2235,33472
2236,33536
2237,33216
2238,33024
2239,32960
2240,33024
2241,33088
2242,33216
2243,33344
2244,33600
2245,33856
2246,33792
2247,33728
2248,33728
2249,33600
2250,33664
2251,33856
2252,33920
2253,33792
2254,33664
2255,33664
2256,33792
2257,33728
2258,33408
2259,33152
2260,33152
2261,33280
2262,33408
2263,33472
2264,33664
2265,33856
2266,33920
2267,34176
2268,34304
2269,34112
2270,33600
2271,33280
2272,33344
2273,33536
2274,33600
2275,33664
2276,34048
2277,34240
2278,34112
2279,33792
2280,33664
2281,33856
2282,34304
2283,34496
2284,34176
2285,33792
2286,33600
2287,33536
2288,33472
2289,33536
2290,33664
2291,33600
2292,33536
2293,33600
2294,33664
2295,33728
2296,33792
2297,33856
2298,33856
2299,33856
2300,33728
2301,33728
2302,33856
2303,33856
2304,33856
2305,33984
2306,34176
2307,34112
2308,33856
2309,33856
2310,33984
2311,33984
2312,33920
2313,33920
2314,33984
2315,34176
2316,34176
2317,34176
2318,34304
2319,34304
2320,34176
2321,34048
2322,34112
2323,34240
2324,34240
2325,34304
2326,34368
2327,34496
2328,34432
2329,34304
2330,34176
2331,34048
2332,33920
2333,33856
2334,33856
2335,33792
2336,33792
2337,33728
2338,33728
2339,33792
2340,33920
2341,33920
2342,33920
2343,33984
2344,34048
2345,34048
2346,33984
2347,33984
2348,34048
2349,33920
2350,33728
2351,33536
2352,33408
2353,33856
2354,35008
2355,37120
2356,39552
2357,41344
2358,41728
2359,40000
2360,36864
2361,33984
2362,32064
2363,31232
2364,31104
2365,31488
2366,32000
2367,32512
2368,33024
2369,33536
2370,33728
2371,33664
2372,33728
2373,33856
2374,33856
2375,33856
2376,33856
2377,33920
2378,33920
2379,33920
2380,33984
2381,34112
2382,34176
2383,34112
2384,34048
2385,34112
2386,34176
2387,34112
2388,34112
2389,34368
2390,34496
2391,34368
2392,34496
2393,34496
2394,34368
2395,34176
2396,34048
2397,34048
2398,34112
2399,34240
2400,34304
2401,34432
2402,34624
2403,34816
2404,34944
2405,35008
2406,35136
2407,35200
2408,35200
2409,35200
2410,35392
2411,35584
2412,35712
2413,35904
2414,35968
2415,35968
2416,35968
2417,36096
2418,35968
2419,35776
2420,35584
2421,35584
2422,35648
2423,35456
2424,35008
2425,34432
2426,33856
2427,33536
2428,33280
2429,33024
2430,32896
2431,32896
2432,32832
2433,32704
2434,32768
2435,32896
2436,32896
2437,32768
2438,32704
2439,32896
2440,33088
2441,32960
2442,32832
2443,32960
2444,33088
2445,33088
2446,33344
2447,33408
2448,33408
2449,33344
2450,33152
2451,33088
2452,33152
2453,33280
2454,33536
2455,33600
2456,33472
2457,33344
2458,33216
2459,33216
2460,33344
2461,33472
2462,33344
2463,33344
2464,33408
2465,33536
2466,33472
2467,33472
2468,33600
2469,33856
2470,34048
2471,33856
2472,33728
2473,33856
2474,33920
2475,33728
2476,33536
2477,33600
2478,33728
2479,33984
2480,34112
2481,33984
2482,33728
2483,33664
2484,33728
2485,33792
2486,33728
2487,33600
2488,33600
2489,33728
2490,33856
2491,33856
2492,33728
2493,33728
2494,33856
2495,33856
2496,33856
2497,33856
2498,33920
2499,33856
2500,33856
2501,33920
2502,34368
2503,34624
2504,34432
2505,34176
2506,33920
2507,33728
2508,33536
2509,33408
2510,33536
2511,33664
2512,33728
2513,33856
2514,34112
2515,34560
2516,34560
2517,34240
2518,34048
2519,34112
2520,34176
2521,34112
2522,34112
2523,34240
2524,34368
2525,34368
2526,34240
2527,34112
2528,33920
2529,33728
2530,33664
2531,33728
2532,33728
2533,33664
2534,33664
2535,33856
2536,34112
2537,34048
2538,33856
2539,33856
2540,33920
2541,33856
2542,33856
2543,34176
2544,34368
2545,34176
2546,33792
2547,33408
2548,33152
2549,33216
2550,33664
2551,35072
2552,37248
2553,39424
2554,40832
2555,41024
2556,39360
2557,36416
2558,34176
2559,32384
2560,31488
2561,31232
2562,31360
2563,31808
2564,32384
2565,32960
2566,33280
2567,33472
2568,33728
2569,33984
2570,33920
2571,33792
2572,33856
2573,33984
2574,33984
2575,33920
2576,33920
2577,33984
2578,34048
2579,34176
2580,34368
2581,34432
2582,34240
2583,33920
2584,33664
2585,33664
2586,33856
2587,34048
2588,34048
2589,34112
2590,34176
2591,34176
2592,34176
2593,34304
2594,34496
2595,34624
2596,34560
2597,34624
2598,34752
2599,34816
2600,34752
2601,34816
2602,35136
2603,35328
2604,35392
2605,35584
2606,35712
2607,35712
2608,35840
2609,35840
2610,35776
2611,35584
2612,35392
2613,35392
2614,35456
2615,35520
2616,35456
2617,35392
2618,35392
2619,35392
2620,35136
2621,34816
2622,34432
2623,34176
2624,33856
2625,33600
2626,33344
2627,33216
2628,33088
2629,32832
2630,32640
2631,32640
2632,32960
2633,33152
2634,33024
2635,32768
2636,32704
2637,32640
2638,32576
2639,32704
2640,32896
2641,33024
2642,33152
2643,33088
2644,33024
2645,33024
2646,33024
2647,33024
2648,33152
2649,33216
2650,33280
2651,33280
2652,33408
2653,33408
2654,33408
2655,33472
2656,33600
2657,33792
2658,33920
2659,33984
2660,33984
2661,33792
2662,33536
2663,33344
2664,33408
2665,33536
2666,33472
2667,33408
2668,33472
2669,33664
2670,33664
2671,33536
2672,33472
2673,33600
2674,33728
2675,33728
2676,33856
2677,33856
2678,33792
2679,33600
2680,33664
2681,33856
2682,33984
2683,34048
2684,34048
2685,33920
2686,33728
2687,33664
2688,33792
2689,33792
2690,33664
2691,33472
2692,33472
2693,33856
2694,33856
2695,33792
2696,33856
2697,33920
2698,33920
2699,33728
2700,33728
2701,33856
2702,33920
2703,33920
2704,34048
2705,34240
2706,34112
2707,33856
2708,33728
2709,33792
2710,33728
2711,33856
2712,33984
2713,34112
2714,34304
2715,34304
2716,34304
2717,34304
2718,34176
2719,33984
2720,33792
2721,33728
2722,33728
2723,34176
2724,34112
2725,34048
2726,33984
2727,34048
2728,34048
2729,34176
2730,34496
2731,34688
2732,34560
2733,34368
2734,34432
2735,34368
2736,33920
2737,33664
2738,33664
2739,33600
2740,33536
2741,33344
2742,33472
2743,33600
2744,33664
2745,33728
2746,33920
2747,34176
2748,34176
2749,34048
2750,33920
2751,33920
2752,33792
2753,33600
2754,33472
2755,33408
2756,33280
2757,33152
2758,34048
2759,35968
2760,38400
2761,40512
2762,41600
2763,41344
2764,38976
2765,35776
2766,33280
2767,31936
2768,31552
2769,31680
2770,31680
2771,32000
2772,32832
2773,33088
2774,33344
2775,33344
2776,33344
2777,33472
2778,33536
2779,33472
2780,33536
2781,33664
2782,33664
2783,33728
2784,33856
2785,33984
2786,33920
2787,34048
2788,33984
2789,34048
2790,34112
2791,34048
2792,34048
2793,34176
2794,34240
2795,34176
2796,34112
2797,34112
2798,34112
2799,34304
2800,34560
2801,34624
2802,34560
2803,34432
2804,34368
2805,34496
2806,34688
2807,34688
2808,34688
2809,34688
2810,34816
2811,34880
2812,35008
2813,35264
2814,35520
2815,35584
2816,35520
2817,35584
2818,35840
2819,35968
2820,35904
2821,35840
2822,35840
2823,35840
2824,35712
2825,35712
2826,35776
2827,35648
2828,35264
2829,34880
2830,34560
2831,34368
2832,33920
2833,33408
2834,33152
2835,33024
2836,32832
2837,32704
2838,32768
2839,32896
2840,32960
2841,32896
2842,32832
2843,32768
2844,32640
2845,32512
2846,32640
2847,32832
2848,33024
2849,33024
2850,33088
2851,33280
2852,33344
2853,33280
2854,33280
2855,33408
2856,33408
2857,33280
2858,33088
2859,33152
2860,33344
2861,33472
2862,33408
2863,33344
2864,33344
2865,33408
2866,33600
2867,33984
2868,33920
2869,33600
2870,33408
2871,33472
2872,33536
2873,33472
2874,33344
2875,33344
2876,33472
2877,33600
2878,33600
2879,33600
2880,33664
2881,33728
2882,33728
2883,33728
2884,33792
2885,34048
2886,34048
2887,33856
2888,33792
2889,33856
2890,33792
2891,33728
2892,33856
2893,34048
2894,33856
2895,33664
2896,33792
2897,34048
2898,34176
2899,34112
2900,33856
2901,33600
2902,33472
2903,33472
2904,33536
2905,33664
2906,33728
2907,33792
2908,33792
2909,33920
2910,34048
2911,33984
2912,34048
2913,34112
2914,34112
2915,33984
2916,33856
2917,33856
2918,33984
2919,34048
2920,33984
2921,33920
2922,34368
2923,34624
2924,34368
2925,34112
2926,34048
2927,33984
2928,33728
2929,33600
2930,33728
2931,33920
2932,33792
2933,33664
2934,33664
2935,33792
2936,33792
2937,33920
2938,33984
2939,34176
2940,34368
2941,34496
2942,34496
2943,34496
2944,34368
2945,34112
2946,34176
2947,34304
2948,34304
2949,34304
2950,34304
2951,34432
2952,34432
2953,34240
2954,34240
2955,34240
2956,34240
2957,34176
2958,33984
2959,33792
2960,33664
2961,33472
2962,33408
2963,33472
2964,33792
2965,33984
2966,33856
2967,33856
2968,33920
2969,33920
2970,33792
2971,33792
2972,33856
2973,33792
2974,33536
2975,33216
2976,33216
2977,33600
2978,34688
2979,36608
2980,39168
2981,41152
2982,41984
2983,41024
2984,38272
2985,35264
2986,32960
2987,31680
2988,31296
2989,31488
2990,31872
2991,32256
2992,32768
2993,33280
2994,33408
2995,33280
2996,33344
2997,33600
2998,33728
2999,33664
3000,33536
3001,33536
3002,33600
3003,33600
3004,33664
3005,33792
3006,33856
3007,33856
3008,33984
3009,34048
3010,34112
3011,34176
3012,34240
3013,34304
3014,34304
3015,34176
3016,33920
3017,33856
3018,33984
3019,34048
3020,34048
3021,34048
3022,34240
3023,34432
3024,34432
3025,34496
3026,34624
3027,34752
3028,34752
3029,34816
3030,35008
3031,35136
3032,35136
3033,35136
3034,35264
3035,35456
3036,35520
3037,35520
3038,35648
3039,35776
3040,35840
3041,35840
3042,35904
3043,36032
3044,35968
3045,35840
3046,35776
3047,35776
3048,35520
3049,34944
3050,34368
3051,33856
3052,33536
3053,33088
3054,32832
3055,32768
3056,32704
3057,32576
3058,32448
3059,32576
3060,32704
3061,32704
3062,32704
3063,32768
3064,32832
3065,33024
3066,33152
3067,33152
3068,33216
3069,33216
3070,32960
3071,32960
3072,33216
3073,33216
3074,33024
3075,32896
3076,33024
3077,33152
3078,33344
3079,33536
3080,33664
3081,33664
3082,33408
3083,33152
3084,33088
3085,33280
3086,33344
3087,33344
3088,33472
3089,33728
3090,33856
3091,33664
3092,33600
3093,33600
3094,33600
3095,33536
3096,33664
3097,33792
3098,33856
3099,33728
3100,33728
3101,33920
3102,34112
3103,33984
3104,33792
3105,33792
3106,33856
3107,33920
3108,33984
3109,33984
3110,33856
3111,33728
3112,33600
3113,33664
3114,33792
3115,33856
3116,33984
3117,34048
3118,34048
3119,34048
3120,34048
3121,34048
3122,34048
3123,34048
3124,33920
3125,33920
3126,33984
3127,33984
3128,33920
3129,33920
3130,34048
3131,34112
3132,34176
3133,34176
3134,34176
3135,34368
3136,34368
3137,34240
3138,34048
3139,33920
3140,33856
3141,33792
3142,33792
3143,34112
3144,34368
3145,34240
3146,34304
3147,34368
3148,34432
3149,34176
3150,33984
3151,34112
3152,34304
3153,34304
3154,34240
3155,34176
3156,34304
3157,34240
3158,34176
3159,34176
3160,34112
3161,34112
3162,33984
3163,33856
3164,33664
3165,33600
3166,33664
3167,33728
3168,33792
3169,33856
3170,33792
3171,33792
3172,33920
3173,33920
3174,33920
3175,33920
3176,33984
3177,34112
3178,34048
3179,33664
3180,33344
3181,33280
3182,33792
3183,35136
3184,37184
3185,39488
3186,41216
3187,41536
3188,40000
3189,37184
3190,34432
3191,32448
3192,31488
3193,31296
3194,31616
3195,32064
3196,32576
3197,33088
3198,33408
3199,33664
3200,33728
3201,33792
3202,33856
3203,33856
3204,33856
3205,33920
3206,34048
3207,34048
3208,33984
3209,33984
3210,34112
3211,34240
3212,34176
3213,34112
3214,34176
3215,34240
3216,34048
3217,33984
3218,33984
3219,34176
3220,34240
3221,34304
3222,34368
3223,34304
3224,34240
3225,34176
3226,34304
3227,34496
3228,34624
3229,34688
3230,34816
3231,34880
3232,34816
3233,34752
3234,34816
3235,35072
3236,35328
3237,35392
3238,35456
3239,35584
3240,35584
3241,35520
3242,35520
3243,35776
3244,36032
3245,36096
3246,36096
3247,36032
3248,36096
3249,35968
3250,35840
3251,35584
3252,35328
3253,34880
3254,34432
3255,34112
3256,33856
3257,33472
3258,33216
3259,33152
3260,33152
3261,33152
3262,32896
3263,32576
3264,32576
3265,32512
3266,32576
3267,32640
3268,32768
3269,32768
3270,32704
3271,32896
3272,33216
3273,33344
3274,33344
3275,33344
3276,33344
3277,33216
3278,33024
3279,32960
3280,33024
3281,33216
3282,33216
3283,33280
3284,33344
3285,33472
3286,33472
3287,33408
3288,33472
3289,33600
3290,33664
3291,33600
3292,33600
3293,33664
3294,33728
3295,33728
3296,33664
3297,33728
3298,33792
3299,33792
3300,33792
3301,33856
3302,33984
3303,33920
3304,33856
3305,33856
3306,33856
3307,33856
3308,33920
3309,33984
3310,34112
3311,33984
3312,33728
3313,33536
3314,33600
3315,33600
3316,33600
3317,33600
3318,33728
3319,33856
3320,33856
3321,33856
3322,33920
3323,33984
3324,33984
3325,33984
3326,33984
3327,33984
3328,33856
3329,33856
3330,33920
3331,34048
3332,34176
3333,34304
3334,34560
3335,34624
3336,34112
3337,33536
3338,33280
3339,33280
3340,33408
3341,33472
3342,33600
3343,33856
3344,33984
3345,34048
3346,34112
3347,34176
3348,34176
3349,34112
3350,34048
3351,34112
3352,34176
3353,34112
3354,34048
3355,34112
3356,34176
3357,34176
3358,34112
3359,34112
3360,34304
3361,34560
3362,34752
3363,34624
3364,34496
3365,34304
3366,34240
3367,34496
3368,34816
3369,34688
3370,34368
3371,34048
3372,33984
3373,34112
3374,33984
3375,33792
3376,33728
3377,33728
3378,33664
3379,33664
3380,33920
3381,34112
3382,33984
3383,33792
3384,33792
3385,33984
3386,33984
3387,33856
3388,33856
3389,33984
3390,34112
3391,34240
3392,34176
3393,33856
3394,33344
3395,32832
3396,32704
3397,33024
3398,33920
3399,35520
3400,37824
3401,40192
3402,41792
3403,41920
3404,39744
3405,36544
3406,33856
3407,32192
3408,31360
3409,31296
3410,31808
3411,32448
3412,32704
3413,33024
3414,33344
3415,33536
3416,33664
3417,33792
3418,33920
3419,33920
3420,33792
3421,33792
3422,33856
3423,33984
3424,33984
3425,33984
3426,34048
3427,34112
3428,34112
3429,34048
3430,34048
3431,34112
3432,34048
3433,34048
3434,34048
3435,34176
3436,34240
3437,34176
3438,34176
3439,34304
3440,34368
3441,34304
3442,34432
3443,34752
3444,35008
3445,34944
3446,34880
3447,34880
3448,34880
3449,34816
3450,34944
3451,35072
3452,35008
3453,34880
3454,34880
3455,35008
3456,35392
3457,35520
3458,35584
3459,35776
3460,36032
3461,36160
3462,36160
3463,36224
3464,36288
3465,36224
3466,36032
3467,35712
3468,35456
3469,35136
3470,34688
3471,34176
3472,33984
3473,33664
3474,33344
3475,33024
3476,32896
3477,32832
3478,32704
3479,32640
3480,32640
3481,32704
3482,32768
3483,32768
3484,32832
3485,32960
3486,33024
3487,32960
3488,33024
3489,33152
3490,33216
3491,33152
3492,33152
3493,33280
3494,33344
3495,33344
3496,33280
3497,33344
3498,33408
3499,33408
3500,33408
3501,33536
3502,33600
3503,33536
3504,33536
3505,33600
3506,33664
3507,33664
3508,33600
3509,33664
3510,33728
3511,33728
3512,33664
3513,33664
3514,33728
3515,33792
3516,33728
3517,33728
3518,33792
3519,33856
3520,33856
3521,33856
3522,33856
3523,33920
3524,33856
3525,33792
3526,33856
3527,33920
3528,33920
3529,33856
3530,33792
3531,33920
3532,33920
3533,33856
3534,33856
3535,33984
3536,33984
3537,33920
3538,33856
3539,33920
3540,33984
3541,33920
3542,33856
3543,33920
3544,33984
3545,33920
3546,33920
3547,33984
3548,34176
3549,34240
3550,34432
3551,34304
3552,34304
3553,34368
3554,34240
3555,34176
3556,34112
3557,33920
3558,33600
3559,33472
3560,33536
3561,33664
3562,33728
3563,33792
3564,33920
3565,34048
3566,34048
3567,34048
3568,34112
3569,34176
3570,34112
3571,34048
3572,34176
3573,34240
3574,34176
3575,34176
3576,34240
3577,34304
3578,34176
3579,34048
3580,34048
3581,34112
3582,34304
3583,34368
3584,34432
3585,34496
3586,34560
3587,34624
3588,34688
3589,34688
3590,34496
3591,34304
3592,34112
3593,34112
3594,34176
3595,34112
3596,34048
3597,34048
3598,33920
3599,33664
3600,33472
3601,33536
3602,33728
3603,33728
3604,33728
3605,33728
3606,33920
3607,33920
3608,33856
3609,33856
3610,33984
3611,34048
3612,33984
3613,33920
3614,33856
3615,33600
3616,33408
3617,33472
3618,34304
3619,35968
3620,38208
3621,40704
3622,42112
3623,42368
3624,40192
3625,36672
3626,33920
3627,32192
3628,31168
3629,30784
3630,31168
3631,31808
3632,32320
3633,32512
3634,32768
3635,33152
3636,33472
3637,33472
3638,33728
3639,34048
3640,34112
3641,33984
3642,33856
3643,33856
3644,33920
3645,33856
3646,33984
3647,34112
3648,34240
3649,34240
3650,34112
3651,34048
3652,34112
3653,34112
3654,34112
3655,34176
3656,34176
3657,34240
3658,34176
3659,34176
3660,34368
3661,34432
3662,34432
3663,34432
3664,34496
3665,34624
3666,34688
3667,34688
3668,34816
3669,35008
3670,35008
3671,35008
3672,35136
3673,35328
3674,35456
3675,35520
3676,35584
3677,35712
3678,35840
3679,35840
3680,35904
3681,36032
3682,36032
3683,35968
3684,36096
3685,36160
3686,36032
3687,35648
3688,35264
3689,35008
3690,34688
3691,34240
3692,33856
3693,33600
3694,33408
3695,33216
3696,33088
3697,33024
3698,33088
3699,33280
3700,33280
3701,32896
3702,32448
3703,32192
3704,32064
3705,32128
3706,32320
3707,32448
3708,32576
3709,32832
3710,33024
3711,33088
3712,33024
3713,33152
3714,33280
3715,33344
3716,33280
3717,33280
3718,33344
3719,33408
3720,33344
3721,33344
3722,33408
3723,33536
3724,33536
3725,33600
3726,33664
3727,33728
3728,33728
3729,33600
3730,33536
3731,33600
3732,33600
3733,33600
3734,33600
3735,33728
3736,33856
3737,33920
3738,33920
3739,33856
3740,33856
3741,33792
3742,33920
3743,34240
3744,34240
3745,33920
3746,33792
3747,33792
3748,33600
3749,33472
3750,33408
3751,33536
3752,33664
3753,33728
3754,33792
3755,33984
3756,34048
3757,33984
3758,33856
3759,33728
3760,33792
3761,33856
3762,33792
3763,33856
3764,33920
3765,33984
3766,34112
3767,34368
3768,34432
3769,34176
3770,34112
3771,34176
3772,34112
3773,33920
3774,33728
3775,33728
3776,33728
3777,33792
3778,33792
3779,33664
3780,33664
3781,33920
3782,34048
3783,34176
3784,34368
3785,34688
3786,34816
3787,34688
3788,34560
3789,34624
3790,34624
3791,34560
3792,34304
3793,34176
3794,34112
3795,33920
3796,33792
3797,33792
3798,33856
3799,33792
3800,33664
3801,33472
3802,33280
3803,33344
3804,33472
3805,33792
3806,34112
3807,34176
3808,33856
3809,33664
3810,33664
3811,33728
3812,33664
3813,33536
3814,33408
3815,33216
3816,33344
3817,33536
3818,34496
3819,36160
3820,38400
3821,40384
3822,41344
3823,40896
3824,38592
3825,35776
3826,33472
3827,32064
3828,31360
3829,31104
3830,31296
3831,32064
3832,32448
3833,32832
3834,33024
3835,33216
3836,33472
3837,33728
3838,33856
3839,33792
3840,33728
3841,33600
3842,33664
3843,33920
3844,34048
3845,33984
3846,33856
3847,33792
3848,33920
3849,33984
3850,33984
3851,34112
3852,34240
3853,34112
3854,33920
3855,33920
3856,34048
3857,34176
3858,34304
3859,34496
3860,34688
3861,34816
3862,34752
3863,34432
3864,34304
3865,34240
3866,34176
3867,34304
3868,34560
3869,34752
3870,34752
3871,34752
3872,34944
3873,35520
3874,35776
3875,35584
3876,35520
3877,35520
3878,35712
3879,35904
3880,36160
3881,36416
3882,36672
3883,36544
3884,36032
3885,35584
3886,35264
3887,35008
3888,34816
3889,34432
3890,33984
3891,33408
3892,33216
3893,33088
3894,33024
3895,33152
3896,33152
3897,33152
3898,33280
3899,33152
3900,32640
3901,32192
3902,32192
3903,32320
3904,32320
3905,32320
3906,32704
3907,33024
3908,33024
3909,33024
3910,33408
3911,33472
3912,33088
3913,32896
3914,32896
3915,33152
3916,33536
3917,33536
3918,33216
3919,32960
3920,32896
3921,32960
3922,33088
3923,33280
3924,33344
3925,33408
3926,33536
3927,33728
3928,34048
3929,34112
3930,33792
3931,33344
3932,33088
3933,33088
3934,33088
3935,33280
3936,33664
3937,33600
3938,33472
3939,33344
3940,33472
3941,33536
3942,33664
3943,33856
3944,33920
3945,33792
3946,33600
3947,33536
3948,33792
3949,33792
3950,33600
3951,33472
3952,33536
3953,33600
3954,33600
3955,33664
3956,33728
3957,33856
3958,33856
3959,33792
3960,33920
3961,33984
3962,33856
3963,33792
3964,33920
3965,34176
3966,34240
3967,34048
3968,33792
3969,33664
3970,33536
3971,33408
3972,33472
3973,33792
3974,33792
3975,33728
3976,33664
3977,33664
3978,33728
3979,33600
3980,33472
3981,33536
3982,33856
3983,34176
3984,34176
3985,33984
3986,33984
3987,33984
3988,34048
3989,34240
3990,34368
3991,34368
3992,34368
3993,34368
3994,34432
3995,34368
3996,34176
3997,34112
3998,34112
3999,33984
4000,33792
4001,33920
4002,34176
4003,33984
4004,33600
4005,33408
4006,33408
4007,33536
4008,33664
4009,33664
4010,33664
4011,33728
4012,33664
4013,33536
4014,33600
4015,33600
4016,33600
4017,33472
4018,33344
4019,33408
4020,33408
4021,33600
4022,34432
4023,36032
4024,38208
4025,40320
4026,41600
4027,41600
4028,39360
4029,36096
4030,33344
4031,31808
4032,31296
4033,31360
4034,31552
4035,31872
4036,32320
4037,32704
4038,33024
4039,33344
4040,33664
4041,33792
4042,33664
4043,33600
4044,33728
4045,33792
4046,33984
4047,34112
4048,34112
4049,33984
4050,33664
4051,33472
4052,33600
4053,33920
4054,34048
4055,33920
4056,33792
4057,33792
4058,33792
4059,33856
4060,33984
4061,34176
4062,34368
4063,34368
4064,34304
4065,34368
4066,34368
4067,34560
4068,34752
4069,34944
4070,34880
4071,34752
4072,34560
4073,34624
4074,34752
4075,34816
4076,34880
4077,35136
4078,35328
4079,35456
4080,35648
4081,35840
4082,35968
4083,35968
4084,35968
4085,36096
4086,36224
4087,36224
4088,36160
4089,36096
4090,35968
4091,35712
4092,35456
4093,35136
4094,34624
4095,34240
4096,33920
4097,33472
4098,33088
4099,32832
4100,32640
4101,32640
4102,32576
4103,32448
4104,32320
4105,32256
4106,32320
4107,32576
4108,32832
4109,32896
4110,32896
4111,32896
4112,33024
4113,33344
4114,33600
4115,33472
4116,33088
4117,32960
4118,32960
4119,32960
4120,32960
4121,32896
4122,33024
4123,33152
4124,33344
4125,33472
4126,33664
4127,33728
4128,33600
4129,33408
4130,33344
4131,33472
4132,33728
4133,33728
4134,33600
4135,33600
4136,33792
4137,33728
4138,33600
4139,33600
4140,33728
4141,33664
4142,33536
4143,33536
4144,33664
4145,33792
4146,33856
4147,33856
4148,33920
4149,34112
4150,34176
4151,33920
4152,33856
4153,33792
4154,33536
4155,33536
4156,33792
4157,33792
4158,33600
4159,33536
4160,33792
4161,33984
4162,33984
4163,33856
4164,33792
4165,33856
4166,33856
4167,33856
4168,33856
4169,34048
4170,34176
4171,34048
4172,33792
4173,33664
4174,33728
4175,33728
4176,33792
4177,34048
4178,34240
4179,34112
4180,33920
4181,33792
4182,33792
4183,33920
4184,33856
4185,33792
4186,33984
4187,34048
4188,34176
4189,34368
4190,34432
4191,34176
4192,33920
4193,33664
4194,33536
4195,33536
4196,33536
4197,33664
4198,33856
4199,34176
4200,34368
4201,34368
4202,34560
4203,34752
4204,34688
4205,34560
4206,34560
4207,34432
4208,34240
4209,34112
4210,34048
4211,34176
4212,34176
4213,34112
4214,33984
4215,34048
4216,34048
4217,33856
4218,33728
4219,33792
4220,33792
4221,33664
4222,33600
4223,33664
4224,33664
4225,33600
4226,33664
4227,33728
4228,33856
4229,33856
4230,33920
4231,34176
4232,34176
4233,33728
4234,33152
4235,32832
4236,33280
4237,34560
4238,36416
4239,38848
4240,41088
4241,42240
4242,41280
4243,38272
4244,35200
4245,32896
4246,31552
4247,31040
4248,31232
4249,31936
4250,32512
4251,32704
4252,32768
4253,32960
4254,33088
4255,33344
4256,33728
4257,33920
4258,33856
4259,33856
4260,33984
4261,33984
4262,33792
4263,33664
4264,33856
4265,34048
4266,33920
4267,33728
4268,33664
4269,33728
4270,33792
4271,33856
4272,34112
4273,34496
4274,34560
4275,34240
4276,33984
4277,33984
4278,34240
4279,34496
4280,34560
4281,34560
4282,34368
4283,34176
4284,34240
4285,34496
4286,34816
4287,34880
4288,34752
4289,34752
4290,34944
4291,35008
4292,35008
4293,35200
4294,35456
4295,35584
4296,35648
4297,35648
4298,35840
4299,35968
4300,35968
4301,36032
4302,36096
4303,36160
4304,36224
4305,36160
4306,35840
4307,35456
4308,34752
4309,34048
4310,33600
4311,33472
4312,33216
4313,32896
4314,32704
4315,32640
4316,32512
4317,32320
4318,32320
4319,32576
4320,32896
4321,33024
4322,33088
4323,33088
4324,32896
4325,32640
4326,32640
4327,32960
4328,33280
4329,33216
4330,33152
4331,33280
4332,33472
4333,33408
4334,33280
4335,33344
4336,33344
4337,33152
4338,33024
4339,33216
4340,33536
4341,33664
4342,33600
4343,33408
4344,33408
4345,33408
4346,33280
4347,33344
4348,33728
4349,33856
4350,33664
4351,33408
4352,33408
4353,33536
4354,33664
4355,33728
4356,33792
4357,33792
4358,33728
4359,33664
4360,33728
4361,33856
4362,33856
4363,33792
4364,34048
4365,34240
4366,34112
4367,33856
4368,33792
4369,33920
4370,34048
4371,33920
4372,33792
4373,33728
4374,33728
4375,33792
4376,33920
4377,34112
4378,34112
4379,33856
4380,33728
4381,33856
4382,34112
4383,34112
4384,33984
4385,33792
4386,33728
4387,33728
4388,33792
4389,33920
4390,34048
4391,34048
4392,33984
4393,34112
4394,34304
4395,34176
4396,33984
4397,33984
4398,34048
4399,34240
4400,34304
4401,34560
4402,34944
4403,34944
4404,34624
4405,34240
4406,34112
4407,34048
4408,34048
4409,33984
4410,33984
4411,34048
4412,34112
4413,33984
4414,33728
4415,33600
4416,33536
4417,33472
4418,33472
4419,33600
4420,33792
4421,33856
4422,33984
4423,34176
4424,34304
4425,34176
4426,33856
4427,33856
4428,34048
4429,33728
4430,33216
4431,32896
4432,33024
4433,33856
4434,35520
4435,38016
4436,40384
4437,41792
4438,41728
4439,39552
4440,36480
4441,33856
4442,32064
4443,31168
4444,31168
4445,31552
4446,32128
4447,32640
4448,33024
4449,33280
4450,33344
4451,33472
4452,33728
4453,33920
4454,33728
4455,33536
4456,33600
4457,33792
4458,33984
4459,34048
4460,34112
4461,33984
4462,33728
4463,33600
4464,33600
4465,33728
4466,33856
4467,33856
4468,33920
4469,34048
4470,34176
4471,34176
4472,34304
4473,34560
4474,34688
4475,34624
4476,34688
4477,34816
4478,34752
4479,34496
4480,34368
4481,34368
4482,34496
4483,34752
4484,35072
4485,35328
4486,35328
4487,35264
4488,35136
4489,35136
4490,35264
4491,35456
4492,35584
4493,35776
4494,36096
4495,36288
4496,36224
4497,36224
4498,36352
4499,36288
4500,35712
4501,35584
4502,35328
4503,35008
4504,34624
4505,34240
4506,33792
4507,33664
4508,33024
4509,32704
4510,32576
4511,32512
4512,32512
4513,32576
4514,32704
4515,32704
4516,32704
4517,32832
4518,32960
4519,33024
4520,33024
4521,32896
4522,32896
4523,33024
4524,32960
4525,33024
4526,33344
4527,33600
4528,33536
4529,33280
4530,33216
4531,33280
4532,33280
4533,33216
4534,33216
4535,33216
4536,33216
4537,33216
4538,33344
4539,33472
4540,33600
4541,33600
4542,33856
4543,33984
4544,33920
4545,33728
4546,33600
4547,33664
4548,33664
4549,33536
4550,33536
4551,33792
4552,33984
4553,33984
4554,33920
4555,33856
4556,33792
4557,34112
4558,34112
4559,33856
4560,33600
4561,33600
4562,33728
4563,33856
4564,33792
4565,33664
4566,33664
4567,33600
4568,33728
4569,33920
4570,33984
4571,33984
4572,33920
4573,33920
4574,33856
4575,33856
4576,33920
4577,33920
4578,33856
4579,33792
4580,33856
4581,33984
4582,33920
4583,33856
4584,33920
4585,34048
4586,34112
4587,33984
4588,33856
4589,33984
4590,33984
4591,33920
4592,33856
4593,33920
4594,34112
4595,34176
4596,34048
4597,33920
4598,33856
4599,33728
4600,33664
4601,33856
4602,34176
4603,34304
4604,34176
4605,33920
4606,33792
4607,33728
4608,33728
4609,33856
4610,33984
4611,33984
4612,33920
4613,33920
4614,33984
4615,34112
4616,34048
4617,33920
4618,33984
4619,34112
4620,34048
4621,33920
4622,34048
4623,34176
4624,34112
4625,34112
4626,34240
4627,34432
4628,34688
4629,34688
4630,34688
4631,34752
4632,34688
4633,34624
4634,34560
4635,34560
4636,34560
4637,34368
4638,34176
4639,33984
4640,33856
4641,33728
4642,33792
4643,33856
4644,33920
4645,33984
4646,33920
4647,33600
4648,33344
4649,33216
4650,33280
4651,33408
4652,33600
4653,33664
4654,33664
4655,33856
4656,34048
4657,33920
4658,33536
4659,33280
4660,33472
4661,34240
4662,35776
4663,37696
4664,39936
4665,41664
4666,42240
4667,40448
4668,37056
4669,33856
4670,31808
4671,31104
4672,31104
4673,31360
4674,31744
4675,32000
4676,32384
4677,32960
4678,33472
4679,33536
4680,33408
4681,33472
4682,33536
4683,33536
4684,33664
4685,33792
4686,33856
4687,33792
4688,33728
4689,33984
4690,34176
4691,33984
4692,33856
4693,33856
4694,33920
4695,33856
4696,33984
4697,34240
4698,34368
4699,34112
4700,33920
4701,34048
4702,34240
4703,34432
4704,34496
4705,34432
4706,34304
4707,34240
4708,34368
4709,34560
4710,34752
4711,34816
4712,34880
4713,34880
4714,35008
4715,35200
4716,35328
4717,35392
4718,35520
4719,35648
4720,35776
4721,35840
4722,35968
4723,36032
4724,36032
4725,36096
4726,36288
4727,36288
4728,36096
4729,35840
4730,35584
4731,35392
4732,35072
4733,34688
4734,34304
4735,34048
4736,33920
4737,33536
4738,33024
4739,32704
4740,32576
4741,32640
4742,32768
4743,32704
4744,32704
4745,32704
4746,32640
4747,32576
4748,32768
4749,32768
4750,32704
4751,32704
4752,32832
4753,32960
4754,33024
4755,33024
4756,33216
4757,33472
4758,33664
4759,33408
4760,33152
4761,33280
4762,33280
4763,33152
4764,33152
4765,33216
4766,33472
4767,33728
4768,33728
4769,33600
4770,33344
4771,33216
4772,33280
4773,33408
4774,33408
4775,33408
4776,33600
4777,33792
4778,33792
4779,33664
4780,33664
4781,33728
4782,33728
4783,33664
4784,33792
4785,33984
4786,33920
4787,33920
4788,33856
4789,33856
4790,33856
4791,34048
4792,34112
4793,34048
4794,33792
4795,33536
4796,33472
4797,33600
4798,33728
4799,33728
4800,33664
4801,33664
4802,33728
4803,33728
4804,33792
4805,33920
4806,34112
4807,34048
4808,33920
4809,34112
4810,34240
4811,34048
4812,33856
4813,34048
4814,34304
4815,34176
4816,33856
4817,33856
4818,33984
4819,33984
4820,33728
4821,33600
4822,33728
4823,33856
4824,33856
4825,33984
4826,34176
4827,34176
4828,34048
4829,33984
4830,34112
4831,34304
4832,34176
4833,33984
4834,34112
4835,34240
4836,34112
4837,33856
4838,33920
4839,34176
4840,34112
4841,33856
4842,33792
4843,33920
4844,34112
4845,34112
4846,34048
4847,34112
4848,34176
4849,34112
4850,34048
4851,34240
4852,34560
4853,34560
4854,34432
4855,34560
4856,34752
4857,34752
4858,34752
4859,34944
4860,34944
4861,34752
4862,34432
4863,34368
4864,34432
4865,34496
4866,34304
4867,33984
4868,33856
4869,33856
4870,33600
4871,33344
4872,33344
4873,33536
4874,33664
4875,33728
4876,33920
4877,33984
4878,33920
4879,33792
4880,33856
4881,34176
4882,34176
4883,33984
4884,33792
4885,33600
4886,33280
4887,32960
4888,33088
4889,33920
4890,35392
4891,37504
4892,39936
4893,41728
4894,42176
4895,40448
4896,37312
4897,34560
4898,32512
4899,31488
4900,31360
4901,31744
4902,32064
4903,32320
4904,32448
4905,32704
4906,33152
4907,33472
4908,33664
4909,33792
4910,33984
4911,34048
4912,33920
4913,33728
4914,33664
4915,33728
4916,33728
4917,33728
4918,33984
4919,33984
4920,33856
4921,33856
4922,33984
4923,34048
4924,34048
4925,33984
4926,33984
4927,34112
4928,34304
4929,34560
4930,34752
4931,34688
4932,34368
4933,34176
4934,34304
4935,34432
4936,34496
4937,34432
4938,34560
4939,34880
4940,35136
4941,34944
4942,34944
4943,35072
4944,35136
4945,35136
4946,35200
4947,35392
4948,35584
4949,35776
4950,35840
4951,35968
4952,36160
4953,36288
4954,36224
4955,36160
4956,36160
4957,35968
4958,35648
4959,35392
4960,35136
4961,35008
4962,35072
4963,34752
4964,33984
4965,33280
4966,32832
4967,32576
4968,32512
4969,32448
4970,32448
4971,32448
4972,32512
4973,32512
4974,32832
4975,32896
4976,32896
4977,32960
4978,33024
4979,32960
4980,33280
4981,33664
4982,33536
4983,33088
4984,32896
4985,32960
4986,33088
4987,33024
4988,33024
4989,33280
4990,33472
4991,33472
4992,33408
4993,33536
4994,33792
4995,33792
4996,33536
4997,33472
4998,33536
4999,33536
5000,33408
5001,33408
5002,33536
5003,33792
5004,33984
5005,33792
5006,33600
5007,33600
5008,33472
5009,33344
5010,33408
5011,33408
5012,33408
5013,33472
5014,33600
5015,33728
5016,33728
5017,33728
5018,33920
5019,34112
5020,34048
5021,34048
5022,34432
5023,34496
5024,34048
5025,33792
5026,33664
5027,33664
5028,33664
5029,33664
5030,33664
5031,33792
5032,33792
5033,33792
5034,33920
5035,34176
5036,34240
5037,34048
5038,33792
5039,33728
5040,33728
5041,33728
5042,33792
5043,33920
5044,34112
5045,34112
5046,34112
5047,34304
5048,34368
5049,34048
5050,33664
5051,33536
5052,33664
5053,33920
5054,33920
5055,33984
5056,34176
5057,34240
5058,34304
5059,34304
5060,34560
5061,34816
5062,34880
5063,34816
5064,34752
5065,34624
5066,34368
5067,34112
5068,34048
5069,34176
5070,34176
5071,34048
5072,33984
5073,33920
5074,33664
5075,33472
5076,33344
5077,33344
5078,33472
5079,33600
5080,33728
5081,33856
5082,33920
5083,33792
5084,33728
5085,33792
5086,33856
5087,33792
5088,33664
5089,33856
5090,33792
5091,33280
5092,32960
5093,33152
5094,34112
5095,35968
5096,38336
5097,40512
5098,41920
5099,41536
5100,38784
5101,35584
5102,33088
5103,31616
5104,30976
5105,30976
5106,31552
5107,32064
5108,32576
5109,32960
5110,33216
5111,33472
5112,33664
5113,33728
5114,33728
5115,33792
5116,33728
5117,33728
5118,33792
5119,33984
5120,33984
5121,33920
5122,33856
5123,33920
5124,33920
5125,33920
5126,33920
5127,34048
5128,34048
5129,33984
5130,34048
5131,34304
5132,34368
5133,34240
5134,34240
5135,34304
5136,34368
5137,34304
5138,34304
5139,34368
5140,34560
5141,34688
5142,34880
5143,34880
5144,34944
5145,34944
5146,34880
5147,34816
5148,34944
5149,35136
5150,35456
5151,35840
5152,35840
5153,35712
5154,35648
5155,35776
5156,35904
5157,36032
5158,36160
5159,36160
5160,36160
5161,36160
5162,35968
5163,35648
5164,35392
5165,35072
5166,34560
5167,34112
5168,33984
5169,33792
5170,33472
5171,33088
5172,32832
5173,32640
5174,32640
5175,32768
5176,32640
5177,32512
5178,32576
5179,32640
5180,32640
5181,32704
5182,32768
5183,32896
5184,32960
5185,32960
5186,32960
5187,33024
5188,33088
5189,33344
5190,33536
5191,33408
5192,33216
5193,33216
5194,33344
5195,33280
5196,33216
5197,33216
5198,33344
5199,33408
5200,33472
5201,33472
5202,33600
5203,33600
5204,33600
5205,33600
5206,33600
5207,33600
5208,33664
5209,33856
5210,33984
5211,33792
5212,33408
5213,33280
5214,33344
5215,33472
5216,33472
5217,33472
5218,33536
5219,33792
5220,33856
5221,33792
5222,33856
5223,33856
5224,33792
5225,33664
5226,33600
5227,33664
5228,33728
5229,33664
5230,33728
5231,33856
5232,33920
5233,33920
5234,33984
5235,34240
5236,34304
5237,34112
5238,33856
5239,33728
5240,33600
5241,33472
5242,33536
5243,33792
5244,34176
5245,34240
5246,33984
5247,33664
5248,33600
5249,33600
5250,33600
5251,33664
5252,33856
5253,33856
5254,33856
5255,33920
5256,34112
5257,34112
5258,33920
5259,34048
5260,34304
5261,34240
5262,33984
5263,33792
5264,33792
5265,33792
5266,33792
5267,33792
5268,33792
5269,33920
5270,33920
5271,33856
5272,34048
5273,34304
5274,34176
5275,33920
5276,33856
5277,33856
5278,33792
5279,33728
5280,33792
5281,33920
5282,34048
5283,34112
5284,34176
5285,34176
5286,34112
5287,33984
5288,34048
5289,34240
5290,34560
5291,34432
5292,34240
5293,34240
5294,34368
5295,34496
5296,34432
5297,34432
5298,34560
5299,34624
5300,34560
5301,34560
5302,34624
5303,34432
5304,34304
5305,34240
5306,34112
5307,33792
5308,33664
5309,33536
5310,33472
5311,33408
5312,33408
5313,33472
5314,33600
5315,33792
5316,33856
5317,33792
5318,33856
5319,33984
5320,33984
5321,33920
5322,33792
5323,33664
5324,33600
5325,33472
5326,33344
5327,33344
5328,33664
5329,34496
5330,36032
5331,38336
5332,40448
5333,41600
5334,41280
5335,38656
5336,35712
5337,33216
5338,31680
5339,31232
5340,31424
5341,31808
5342,32128
5343,32448
5344,32768
5345,32960
5346,33152
5347,33408
5348,33856
5349,34048
5350,33856
5351,33728
5352,33728
5353,33728
5354,33728
5355,33664
5356,33728
5357,33792
5358,33856
5359,33856
5360,33856
5361,33920
5362,33984
5363,34176
5364,34240
5365,34176
5366,33984
5367,33728
5368,33792
5369,34048
5370,34048
5371,33920
5372,34048
5373,34304
5374,34432
5375,34432
5376,34624
5377,34752
5378,34752
5379,34688
5380,34688
5381,34880
5382,35008
5383,35008
5384,34944
5385,35072
5386,35264
5387,35328
5388,35456
5389,35712
5390,36032
5391,36096
5392,36096
5393,36160
5394,36224
5395,36288
5396,36224
5397,36032
5398,35776
5399,35520
5400,35136
5401,34816
5402,34816
5403,34560
5404,33984
5405,33408
5406,33024
5407,32768
5408,32512
5409,32384
5410,32512
5411,32768
5412,32640
5413,32448
5414,32448
5415,32576
5416,32640
5417,32704
5418,32768
5419,32960
5420,33024
5421,33088
5422,33152
5423,33280
5424,33344
5425,33280
5426,33280
5427,33280
5428,33280
5429,33216
5430,33152
5431,33280
5432,33280
5433,33152
5434,33216
5435,33408
5436,33536
5437,33536
5438,33472
5439,33600
5440,33664
5441,33600
5442,33600
5443,33664
5444,33856
5445,33792
5446,33600
5447,33472
5448,33472
5449,33408
5450,33344
5451,33536
5452,33792
5453,33984
5454,33792
5455,33728
5456,33728
5457,33728
5458,33792
5459,33856
5460,33920
5461,33920
5462,33792
5463,33728
5464,33856
5465,33920
5466,33728
5467,33600
5468,33600
5469,33728
5470,33792
5471,33856
5472,34048
5473,34176
5474,34112
5475,33920
5476,33920
5477,34176
5478,34240
5479,33984
5480,33728
5481,33728
5482,33792
5483,33792
5484,33792
5485,33984
5486,34112
5487,34112
5488,33984
5489,33984
5490,34176
5491,34304
5492,34112
5493,33984
5494,33920
5495,33792
5496,33664
5497,33728
5498,33856
5499,33792
5500,33664
5501,33728
5502,34048
5503,34304
5504,34240
5505,34176
5506,34176
5507,34176
5508,33984
5509,33856
5510,33856
5511,34048
5512,34112
5513,34048
5514,33920
5515,33984
5516,33984
5517,34240
5518,34432
5519,34112
5520,33792
5521,33600
5522,33600
5523,33792
5524,33984
5525,33984
5526,34048
5527,34112
5528,34304
5529,34304
5530,34304
5531,34304
5532,34112
5533,33792
5534,33792
5535,34112
5536,34240
5537,34240
5538,34240
5539,34240
5540,34304
5541,34432
5542,34432
5543,34240
5544,34048
5545,33792
5546,33664
5547,33920
5548,34048
5549,33728
5550,33472
5551,33344
5552,33408
5553,33536
5554,33664
5555,33792
5556,34112
5557,34176
5558,33984
5559,33792
5560,33856
5561,33856
5562,33792
5563,33600
5564,33472
5565,33408
5566,33408
5567,33472
5568,34304
5569,36032
5570,38336
5571,41408
5572,42304
5573,42176
5574,39680
5575,36352
5576,33536
5577,31744
5578,31168
5579,31104
5580,31360
5581,31808
5582,32384
5583,32768
5584,32960
5585,33216
5586,33536
5587,33728
5588,33664
5589,33600
5590,33856
5591,33792
5592,33728
5593,33792
5594,33920
5595,33984
5596,33728
5597,33664
5598,33792
5599,33728
5600,33664
5601,33856
5602,33920
5603,33984
5604,33984
5605,34048
5606,34176
5607,34432
5608,34432
5609,34368
5610,34304
5611,34304
5612,34304
5613,34304
5614,34432
5615,34560
5616,34560
5617,34624
5618,34752
5619,35008
5620,35008
5621,35008
5622,35008
5623,35072
5624,35200
5625,35328
5626,35456
5627,35648
5628,35840
5629,35904
5630,35840
5631,35904
5632,35840
5633,35776
5634,35840
5635,35968
5636,36288
5637,36160
5638,35648
5639,35200
5640,34880
5641,34688
5642,34304
5643,33792
5644,33344
5645,32960
5646,32768
5647,32640
5648,32704
5649,32768
5650,32640
5651,32576
5652,32640
5653,32768
5654,32768
5655,32768
5656,32768
5657,32768
5658,32832
5659,32960
5660,33152
5661,33216
5662,33152
5663,33280
5664,33344
5665,33344
5666,33152
5667,33152
5668,33280
5669,33344
5670,33280
5671,33216
5672,33408
5673,33984
5674,34112
5675,33472
5676,32960
5677,32960
5678,33024
5679,33088
5680,33216
5681,33344
5682,33472
5683,33472
5684,33536
5685,33664
5686,33664
5687,33536
5688,33472
5689,33536
5690,33664
5691,33792
5692,33856
5693,33856
5694,33856
5695,33792
5696,33920
5697,34112
5698,34112
5699,33856
5700,33536
5701,33472
5702,33792
5703,33920
5704,33792
5705,33728
5706,33856
5707,33920
5708,33856
5709,33856
5710,33920
5711,33984
5712,33920
5713,33920
5714,33920
5715,33984
5716,33984
5717,34048
5718,34112
5719,34176
5720,34048
5721,33984
5722,33984
5723,34048
5724,34240
5725,34240
5726,33984
5727,33856
5728,33920
5729,33792
5730,33664
5731,33728
5732,33856
5733,33856
5734,33920
5735,34112
5736,34432
5737,34432
5738,34432
5739,34496
5740,34688
5741,34688
5742,34624
5743,34688
5744,35008
5745,35136
5746,34880
5747,34560
5748,34432
5749,34368
5750,34048
5751,33792
5752,33600
5753,33472
5754,33472
5755,33472
5756,33536
5757,33664
5758,33600
5759,33600
5760,33728
5761,33792
5762,33856
5763,33792
5764,33856
5765,33984
5766,33856
5767,33792
5768,33728
5769,33664
5770,33408
5771,33152
5772,33280
5773,34240
5774,35968
5775,38208
5776,40320
5777,41472
5778,41280
5779,39040
5780,36224
5781,33024
5782,32128
5783,31232
5784,30912
5785,31360
5786,31936
5787,32384
5788,32640
5789,33024
5790,33408
5791,33600
5792,33664
5793,33728
5794,33792
5795,33792
5796,33728
5797,33728
5798,33856
5799,33856
5800,33856
5801,33920
5802,34048
5803,34112
5804,34176
5805,34240
5806,34240
5807,34112
5808,33984
5809,33984
5810,33984
5811,34112
5812,34112
5813,34304
5814,34368
5815,34240
5816,34048
5817,33984
5818,34176
5819,34432
5820,34560
5821,34624
5822,34752
5823,34944
5824,35392
5825,35712
5826,35136
5827,34880
5828,34880
5829,35136
5830,35456
5831,35392
5832,35200
5833,35264
5834,35392
5835,35584
5836,35840
5837,35968
5838,35968
5839,36096
5840,36288
5841,36224
5842,36032
5843,35648
5844,35264
5845,34816
5846,34368
5847,34112
5848,33920
5849,33600
5850,33152
5851,32704
5852,32448
5853,32384
5854,32320
5855,32384
5856,32576
5857,32704
5858,32832
5859,32832
5860,32832
5861,32832
5862,32768
5863,32768
5864,32896
5865,33088
5866,33152
5867,33152
5868,33280
5869,33472
5870,33664
5871,33600
5872,33536
5873,33408
5874,33344
5875,33152
5876,33152
5877,33280
5878,33152
5879,32960
5880,33024
5881,33216
5882,33472
5883,33664
5884,33664
5885,33664
5886,33856
5887,33728
5888,33472
5889,33344
5890,33408
5891,33728
5892,34048
5893,33984
5894,33664
5895,33536
5896,33472
5897,33472
5898,33600
5899,33664
5900,33728
5901,33856
5902,33920
5903,33984
5904,33920
5905,33728
5906,33600
5907,33664
5908,33728
5909,33664
5910,33664
5911,33792
5912,33984
5913,33984
5914,33856
5915,33984
5916,34112
5917,33984
5918,33792
5919,33856
5920,33856
5921,33664
5922,33600
5923,33728
5924,33856
5925,33856
5926,33792
5927,33920
5928,34048
5929,34048
5930,34112
5931,34176
5932,34112
5933,33920
5934,33792
5935,33792
5936,33856
5937,33984
5938,33984
5939,33792
5940,33728
5941,33856
5942,33920
5943,33984
5944,33984
5945,34048
5946,34048
5947,33984
5948,33984
5949,33984
5950,33984
5951,33984
5952,34048
5953,34048
5954,33920
5955,33920
5956,33984
5957,34176
5958,34176
5959,34304
5960,34496
5961,34688
5962,34752
5963,34688
5964,34560
5965,34560
5966,34496
5967,34432
5968,34432
5969,34560
5970,34624
5971,34688
5972,34816
5973,34560
5974,34112
5975,33728
5976,33344
5977,33152
5978,33216
5979,33216
5980,33216
5981,33472
5982,33792
5983,33920
5984,33984
5985,33920
5986,33792
5987,33664
5988,33664
5989,33728
5990,33856
5991,33856
5992,33728
5993,33536
5994,33344
5995,33280
5996,33600
5997,34880
5998,36928
5999,39360
6000,41088
6001,41728
6002,40768
6003,38016
6004,34944
6005,32640
6006,31424
6007,31104
6008,31232
6009,31680
6010,32320
6011,32768
6012,33024
6013,33408
6014,33600
6015,33664
6016,33664
6017,33600
6018,33664
6019,33792
6020,33792
6021,33728
6022,33664
6023,33856
6024,34048
6025,33920
6026,33856
6027,33856
6028,33856
6029,33792
6030,33728
6031,33792
6032,33984
6033,34048
6034,34240
6035,34560
6036,34624
6037,34368
6038,34112
6039,34048
6040,34112
6041,34176
6042,34112
6043,34176
6044,34432
6045,34752
6046,34816
6047,34752
6048,34816
6049,34944
6050,34944
6051,34880
6052,35008
6053,35200
6054,35328
6055,35392
6056,35584
6057,35840
6058,35968
6059,36096
6060,36288
6061,36480
6062,36416
6063,36224
6064,36160
6065,36224
6066,35968
6067,35584
6068,35328
6069,35072
6070,34496
6071,33920
6072,33472
6073,33280
6074,33152
6075,32896
6076,32704
6077,32704
6078,32704
6079,32768
6080,32832
6081,32640
6082,32576
6083,32512
6084,32448
6085,32640
6086,32896
6087,32960
6088,32960
6089,33088
6090,33216
6091,33408
6092,33472
6093,33408
6094,33280
6095,33216
6096,33152
6097,33280
6098,33536
6099,33664
6100,33536
6101,33472
6102,33536
6103,33536
6104,33344
6105,33344
6106,33344
6107,33280
6108,33216
6109,33216
6110,33408
6111,33600
6112,33728
6113,33856
6114,33920
6115,33856
6116,33792
6117,33664
6118,33600
6119,33856
6120,34112
6121,34048
6122,33856
6123,33728
6124,33728
6125,33664
6126,33664
6127,33984
6128,34176
6129,33984
6130,33728
6131,33600
6132,33664
6133,33792
6134,33920
6135,34048
6136,34176
6137,34240
6138,34112
6139,33920
6140,33856
6141,33856
6142,33856
6143,33920
6144,34112
6145,34112
6146,33856
6147,33728
6148,33792
6149,34112
6150,34176
6151,34048
6152,33856
6153,33728
6154,33664
6155,33792
6156,33984
6157,33984
6158,33856
6159,33728
6160,33792
6161,33920
6162,34048
6163,33984
6164,33984
6165,34240
6166,34368
6167,34176
6168,34112
6169,34176
6170,34240
6171,33984
6172,33856
6173,33792
6174,33792
6175,33792
6176,33984
6177,34176
6178,34176
6179,33984
6180,33920
6181,33920
6182,33920
6183,33856
6184,33920
6185,33920
6186,34112
6187,34368
6188,34368
6189,34368
6190,34496
6191,34624
6192,34688
6193,34816
6194,34944
6195,34816
6196,34624
6197,34496
6198,34304
6199,34240
6200,34240
6201,34048
6202,33728
6203,33472
6204,33344
6205,33344
6206,33408
6207,33472
6208,33472
6209,33536
6210,33728
6211,33920
6212,33920
6213,33792
6214,33728
6215,33728
6216,33792
6217,33792
6218,33792
6219,33792
6220,33600
6221,33344
6222,33216
6223,33472
6224,34496
6225,36224
6226,38656
6227,41088
6228,42432
6229,42048
6230,39424
6231,35904
6232,32896
6233,31232
6234,30528
6235,30784
6236,31424
6237,32128
6238,32704
6239,32960
6240,33216
6241,33344
6242,33344
6243,33408
6244,33728
6245,33792
6246,33728
6247,33664
6248,33664
6249,33728
6250,33728
6251,33856
6252,33984
6253,34112
6254,34048
6255,33920
6256,33856
6257,34112
6258,34176
6259,34048
6260,33920
6261,33856
6262,33792
6263,33728
6264,33792
6265,34048
6266,34240
6267,34240
6268,34368
6269,34624
6270,34688
6271,34496
6272,34432
6273,34496
6274,34688
6275,34816
6276,34880
6277,35008
6278,35200
6279,35264
6280,35264
6281,35392
6282,35648
6283,35840
6284,35776
6285,35712
6286,35776
6287,35904
6288,35904
6289,36096
6290,36288
6291,36288
6292,35904
6293,35520
6294,35328
6295,35136
6296,34816
6297,34432
6298,34176
6299,34112
6300,33856
6301,33280
6302,32832
6303,32512
6304,32320
6305,32256
6306,32256
6307,32448
6308,32576
6309,32576
6310,32640
6311,32832
6312,32960
6313,33024
6314,33152
6315,33344
6316,33408
6317,33088
6318,32768
6319,32832
6320,32960
6321,32768
6322,32832
6323,33024
6324,33216
6325,33280
6326,33216
6327,33344
6328,33216
6329,33152
6330,33280
6331,33408
6332,33472
6333,33536
6334,33728
6335,33792
6336,33856
6337,33792
6338,33664
6339,33600
6340,33536
6341,33600
6342,33408
6343,33344
6344,33472
6345,33472
6346,33408
6347,33472
6348,33664
6349,33728
6350,33728
6351,33728
6352,33664
6353,33664
6354,33536
6355,33600
6356,33600
6357,33792
6358,33792
6359,33728
6360,33856
6361,34048
6362,33984
6363,33856
6364,33728
6365,33664
6366,33536
6367,33472
6368,34048
6369,34304
6370,33920
6371,33600
6372,33472
6373,33600
6374,33664
6375,33728
6376,33792
6377,34048
6378,34048
6379,33920
6380,33792
6381,33856
6382,33984
6383,33984
6384,33920
6385,33856
6386,33792
6387,33728
6388,33792
6389,33920
6390,34112
6391,34176
6392,34176
6393,34176
6394,34176
6395,33984
6396,33856
6397,33984
6398,34304
6399,34496
6400,34368
6401,34304
6402,34368
6403,34304
6404,34240
6405,34432
6406,34688
6407,34688
6408,34496
6409,34368
6410,34432
6411,34368
6412,34304
6413,34048
6414,33728
6415,33472
6416,33280
6417,33280
6418,33536
6419,33792
6420,33856
6421,33792
6422,33856
6423,33984
6424,33792
6425,33664
6426,33600
6427,33728
6428,33856
6429,33856
6430,33728
6431,33536
6432,33280
6433,33024
6434,33152
6435,34112
6436,35904
6437,38144
6438,40256
6439,41536
6440,41472
6441,39040
6442,36288
6443,33792
6444,32192
6445,31296
6446,31104
6447,31360
6448,31808
6449,32192
6450,32576
6451,32960
6452,33472
6453,33728
6454,33664
6455,33600
6456,33792
6457,33920
6458,33984
6459,33984
6460,33920
6461,33792
6462,33600
6463,33600
6464,33856
6465,33856
6466,33728
6467,33664
6468,33792
6469,33984
6470,33984
6471,34048
6472,34240
6473,34432
6474,34560
6475,34432
6476,34368
6477,34432
6478,34368
6479,34240
6480,34240
6481,34304
6482,34304
6483,34240
6484,34304
6485,34624
6486,34880
6487,34944
6488,35008
6489,35136
6490,35328
6491,35520
6492,35584
6493,35520
6494,35584
6495,35648
6496,35712
6497,35904
6498,36032
6499,35968
6500,35904
6501,35968
6502,36160
6503,36160
6504,35904
6505,35456
6506,35008
6507,34624
6508,34176
6509,33856
6510,33536
6511,33408
6512,33152
6513,33088
6514,32960
6515,32768
6516,32512
6517,32448
6518,32448
6519,32512
6520,32640
6521,32768
6522,32832
6523,32896
6524,32832
6525,32768
6526,32896
6527,33024
6528,33088
6529,33152
6530,33152
6531,33216
6532,33216
6533,33152
6534,33216
6535,33280
6536,33344
6537,33280
6538,33216
6539,33344
6540,33408
6541,33536
6542,33472
6543,33344
6544,33280
6545,33344
6546,33664
6547,33664
6548,33472
6549,33344
6550,33344
6551,33536
6552,33664
6553,33600
6554,33408
6555,33344
6556,33536
6557,33728
6558,33792
6559,33664
6560,33600
6561,33664
6562,33600
6563,33536
6564,33728
6565,33856
6566,33792
6567,33728
6568,33728
6569,33920
6570,34176
6571,34304
6572,34112
6573,33856
6574,33600
6575,33472
6576,33536
6577,33600
6578,33664
6579,33664
6580,33728
6581,33856
6582,33920
6583,33856
6584,33856
6585,33984
6586,34048
6587,33920
6588,33856
6589,33920
6590,33984
6591,34048
6592,34048
6593,34176
6594,34112
6595,33920
6596,33728
6597,33856
6598,34112
6599,34176
6600,33984
6601,33984
6602,34176
6603,34368
6604,34048
6605,33664
6606,33536
6607,33664
6608,33792
6609,33856
6610,33920
6611,33856
6612,33728
6613,33664
6614,33856
6615,34048
6616,34176
6617,34240
6618,34304
6619,34496
6620,34752
6621,34816
6622,34624
6623,34432
6624,34496
6625,34496
6626,34496
6627,34432
6628,34432
6629,34368
6630,34176
6631,33984
6632,33664
6633,33472
6634,33408
6635,33600
6636,33728
6637,33664
6638,33600
6639,33792
6640,33920
6641,33792
6642,33664
6643,33664
6644,33792
6645,33856
6646,33728
6647,33600
6648,33600
6649,33536
6650,33280
6651,33152
6652,33280
6653,33856
6654,35008
6655,37120
6656,39360
6657,41408
6658,42176
6659,40832
6660,37888
6661,35008
6662,32832
6663,31744
6664,31296
6665,31360
6666,31616
6667,31936
6668,32448
6669,32896
6670,33280
6671,33536
6672,33664
6673,33728
6674,33856
6675,34112
6676,34112
6677,33856
6678,33664
6679,33472
6680,33472
6681,33600
6682,33728
6683,33728
6684,33856
6685,34048
6686,34176
6687,34176
6688,34112
6689,34240
6690,34560
6691,34560
6692,34112
6693,33792
6694,33728
6695,33728
6696,33728
6697,33856
6698,34112
6699,34368
6700,34496
6701,34560
6702,34688
6703,34752
6704,34752
6705,34880
6706,35200
6707,35264
6708,35200
6709,35264
6710,35456
6711,35584
6712,35520
6713,35520
6714,35776
6715,36096
6716,36032
6717,35968
6718,35968
6719,35968
6720,35968
6721,35968
6722,35968
6723,35968
6724,35776
6725,35264
6726,34816
6727,34240
6728,33664
6729,33152
6730,32960
6731,33088
6732,33216
6733,33088
6734,32768
6735,32512
6736,32448
6737,32448
6738,32384
6739,32448
6740,32640
6741,32832
6742,33088
6743,33152
6744,33216
6745,33152
6746,33024
6747,32960
6748,33088
6749,33152
6750,33216
6751,33280
6752,33536
6753,33664
6754,33472
6755,33152
6756,33152
6757,33344
6758,33664
6759,33792
6760,33664
6761,33408
6762,33152
6763,33024
6764,33152
6765,33344
6766,33408
6767,33408
6768,33408
6769,33472
6770,33472
6771,33472
6772,33664
6773,33856
6774,33920
6775,33984
6776,33856
6777,33728
6778,33664
6779,33536
6780,33408
6781,33408
6782,33664
6783,33984
6784,33984
6785,33856
6786,33792
6787,33728
6788,33664
6789,33728
6790,33792
6791,33920
6792,33984
6793,33920
6794,33856
6795,33728
6796,33728
6797,33792
6798,33856
6799,33920
6800,33920
6801,33792
6802,33792
6803,33792
6804,33792
6805,33792
6806,33856
6807,33856
6808,33792
6809,33792
6810,33856
6811,33920
6812,33920
6813,33920
6814,33984
6815,34048
6816,34112
6817,34240
6818,34496
6819,34432
6820,34112
6821,33792
6822,33536
6823,33536
6824,33600
6825,33600
6826,33728
6827,33984
6828,34112
6829,34048
6830,33984
6831,33984
6832,34048
6833,34048
6834,34112
6835,34176
6836,34240
6837,34304
6838,34240
6839,34112
6840,33984
6841,33792
6842,33664
6843,33728
6844,33856
6845,33984
6846,33984
6847,34048
6848,34240
6849,34304
6850,34048
6851,33856
6852,33856
6853,33920
6854,33920
6855,34048
6856,34240
6857,34368
6858,34368
6859,34368
6860,34496
6861,34752
6862,34752
6863,34624
6864,34624
6865,34624
6866,34496
6867,34304
6868,34240
6869,34176
6870,34048
6871,33792
6872,33536
6873,33472
6874,33472
6875,33408
6876,33344
6877,33472
6878,33600
6879,33728
6880,33792
6881,33984
6882,34112
6883,34112
6884,34048
6885,33792
6886,33728
6887,33664
6888,33536
6889,33408
6890,33280
6891,33216
6892,33472
6893,34240
6894,35776
6895,37952
6896,40128
6897,41408
6898,41600
6899,39680
6900,36480
6901,33664
6902,31936
6903,31232
6904,31104
6905,31424
6906,31936
6907,32512
6908,32832
6909,33152
6910,33408
6911,33600
6912,33792
6913,33792
6914,33792
6915,33856
6916,33728
6917,33664
6918,33728
6919,33856
6920,33984
6921,33792
6922,33600
6923,33600
6924,33664
6925,33664
6926,33664
6927,33792
6928,33920
6929,33920
6930,34048
6931,34240
6932,34240
6933,34176
6934,34176
6935,34304
6936,34432
6937,34560
6938,34752
6939,34688
6940,34496
6941,34304
6942,34240
6943,34304
6944,34560
6945,34752
6946,34816
6947,35008
6948,35200
6949,35328
6950,35328
6951,35328
6952,35456
6953,35712
6954,35776
6955,35840
6956,35904
6957,36032
6958,36096
6959,36096
6960,36096
6961,36160
6962,36032
6963,35840
6964,35584
6965,35264
6966,34944
6967,34880
6968,34560
6969,33984
6970,33344
6971,32768
6972,32512
6973,32384
6974,32320
6975,32256
6976,32256
6977,32384
6978,32576
6979,32640
6980,32640
6981,32768
6982,32832
6983,32896
6984,32896
6985,32960
6986,33088
6987,33088
6988,33088
6989,33088
6990,33216
6991,33344
6992,33280
6993,33280
6994,33472
6995,33536
6996,33664
6997,33920
6998,34048
6999,33792
7000,33280
7001,32960
7002,32960
7003,33152
7004,33280
7005,33408
7006,33664
7007,33728
7008,33472
7009,33344
7010,33344
7011,33472
7012,33600
7013,33664
7014,33600
7015,33600
7016,33728
7017,33920
7018,33984
7019,33856
7020,33664
7021,33600
7022,33664
7023,33664
7024,33600
7025,33536
7026,33472
7027,33600
7028,33792
7029,33856
7030,33920
7031,33984
7032,34112
7033,34048
7034,33920
7035,33728
7036,33728
7037,33792
7038,33792
7039,33984
7040,34112
7041,33920
7042,33664
7043,33600
7044,33856
7045,34048
7046,33984
7047,33792
7048,33728
7049,33792
7050,33728
7051,33728
7052,33856
7053,33984
7054,33920
7055,33920
7056,33920
7057,34048
7058,34112
7059,34048
7060,34048
7061,34240
7062,34240
7063,34112
7064,33920
7065,34048
7066,34304
7067,34176
7068,33856
7069,33920
7070,33984
7071,33728
7072,33664
7073,33792
7074,34048
7075,34048
7076,33920
7077,33856
7078,33856
7079,33792
7080,33920
7081,34048
7082,34240
7083,34304
7084,34496
7085,34752
7086,34816
7087,34752
7088,34624
7089,34560
7090,34624
7091,34624
7092,34496
7093,34240
7094,34176
7095,34176
7096,33920
7097,33600
7098,33600
7099,33664
7100,33664
7101,33664
7102,33600
7103,33600
7104,33600
7105,33664
7106,33728
7107,33664
7108,33600
7109,33600
7110,33728
7111,33792
7112,33792
7113,33600
7114,33408
7115,33408
7116,33408
7117,33792
7118,35136
7119,37376
7120,39744
7121,41344
7122,41792
7123,40512
7124,37760
7125,34752
7126,32384
7127,31168
7128,31040
7129,31360
7130,31680
7131,32064
7132,32512
7133,32832
7134,33152
7135,33600
7136,33856
7137,33856
7138,33664
7139,33536
7140,33600
7141,33664
7142,33664
7143,33664
7144,33792
7145,33920
7146,33984
7147,34048
7148,34240
7149,34240
7150,34112
7151,34176
7152,34176
7153,34304
7154,34176
7155,34176
7156,34176
7157,34240
7158,34176
7159,34112
7160,34048
7161,34304
7162,34496
7163,34624
7164,34624
7165,34816
7166,34880
7167,34688
7168,34560
7169,34624
7170,34752
7171,34816
7172,34944
7173,35136
7174,35392
7175,35456
7176,35520
7177,35712
7178,35904
7179,35840
7180,35840
7181,35968
7182,36032
7183,35968
7184,35904
7185,36032
7186,36032
7187,35776
7188,35392
7189,35072
7190,34688
7191,34240
7192,33920
7193,33536
7194,33280
7195,33152
7196,32960
7197,32896
7198,32832
7199,32768
7200,32704
7201,32640
7202,32704
7203,32832
7204,32896
7205,32832
7206,32832
7207,32896
7208,32896
7209,32896
7210,33024
7211,33280
7212,33344
7213,33280
7214,33152
7215,33216
7216,33280
7217,33280
7218,33344
7219,33600
7220,33920
7221,33856
7222,33600
7223,33472
7224,33472
7225,33280
7226,33152
7227,33152
7228,33408
7229,33600
7230,33600
7231,33408
7232,33408
7233,33408
7234,33408
7235,33536
7236,33664
7237,33664
7238,33664
7239,33792
7240,33920
7241,33984
7242,33856
7243,33856
7244,33920
7245,33920
7246,33856
7247,33792
7248,33792
7249,33920
7250,33856
7251,33792
7252,33792
7253,33856
7254,33984
7255,33984
7256,33984
7257,34048
7258,34112
7259,34048
7260,33920
7261,33856
7262,33856
7263,33728
7264,33664
7265,33792
7266,33920
7267,33856
7268,33792
7269,34048
7270,34432
7271,34240
7272,33856
7273,33792
7274,33984
7275,33984
7276,33728
7277,33600
7278,33600
7279,33600
7280,33664
7281,33792
7282,33920
7283,34048
7284,33984
7285,33984
7286,33984
7287,34048
7288,34048
7289,34048
7290,34176
7291,34368
7292,34368
7293,34304
7294,34368
7295,34496
7296,34624
7297,34624
7298,34752
7299,34944
7300,34944
7301,34688
7302,34496
7303,34496
7304,34368
7305,33984
7306,33920
7307,33856
7308,33600
7309,33280
7310,33152
7311,33216
7312,33408
7313,33472
7314,33600
7315,33792
7316,33856
7317,33920
7318,33856
7319,33920
7320,33920
7321,33856
7322,33792
7323,33792
7324,33728
7325,33536
7326,33280
7327,33280
7328,33984
7329,35520
7330,37824
7331,40000
7332,41536
7333,41792
7334,39808
7335,36736
7336,34112
7337,32320
7338,31488
7339,31360
7340,31808
7341,32576
7342,32768
7343,32896
7344,33216
7345,33408
7346,33344
7347,33088
7348,32960
7349,33088
7350,33216
7351,33280
7352,33472
7353,33664
7354,33792
7355,33856
7356,34048
7357,34240
7358,34368
7359,34304
7360,34112
7361,34112
7362,34176
7363,33984
7364,33920
7365,34112
7366,34048
7367,33792
7368,33728
7369,33856
7370,34048
7371,34240
7372,34304
7373,34240
7374,34240
7375,34368
7376,34432
7377,34496
7378,34560
7379,34688
7380,34688
7381,34816
7382,35008
7383,35200
7384,35328
7385,35392
7386,35712
7387,35968
7388,36416
7389,36736
7390,36608
7391,36224
7392,35840
7393,35520
7394,35456
7395,35584
7396,35584
7397,35584
7398,35648
7399,35456
7400,35008
7401,34304
7402,33984
7403,33728
7404,33536
7405,33152
7406,33024
7407,33152
7408,33152
7409,32960
7410,32832
7411,32640
7412,32512
7413,32448
7414,32448
7415,32448
7416,32448
7417,32448
7418,32576
7419,32768
7420,32960
7421,33088
7422,33088
7423,33216
7424,33408
7425,33472
7426,33408
7427,33472
7428,33600
7429,33600
7430,33408
7431,33280
7432,33216
7433,33152
7434,33152
7435,33216
7436,33344
7437,33472
7438,33536
7439,33600
7440,33856
7441,34240
7442,34240
7443,33856
7444,33472
7445,33344
7446,33344
7447,33344
7448,33472
7449,33664
7450,33728
7451,33728
7452,33728
7453,33792
7454,33856
7455,33920
7456,33920
7457,33984
7458,34176
7459,34176
7460,33984
7461,33728
7462,33600
7463,33536
7464,33600
7465,33728
7466,33856
7467,33920
7468,33920
7469,33920
7470,34112
7471,34112
7472,34048
7473,34176
7474,34432
7475,34496
7476,34176
7477,33792
7478,33600
7479,33536
7480,33600
7481,33664
7482,33792
7483,33856
7484,33792
7485,33792
7486,33856
7487,33984
7488,33920
7489,33920
7490,33984
7491,34368
7492,34240
7493,34048
7494,33920
7495,33920
7496,33920
7497,33920
7498,33920
7499,33920
7500,33856
7501,33728
7502,33728
7503,33856
7504,33920
7505,33856
7506,33984
7507,34048
7508,34368
7509,34496
7510,34240
7511,34048
7512,33920
7513,33792
7514,33920
7515,34112
7516,34112
7517,33856
7518,33664
7519,33664
7520,33792
7521,33856
7522,33792
7523,33856
7524,33984
7525,34112
7526,34112
7527,34176
7528,34240
7529,34176
7530,34112
7531,34048
7532,34176
7533,34368
7534,34368
7535,34368
7536,34496
7537,34688
7538,34816
7539,34752
7540,34752
7541,34752
7542,34560
7543,34304
7544,34112
7545,33984
7546,33856
7547,33600
7548,33472
7549,33472
7550,33536
7551,33472
7552,33472
7553,33536
7554,33664
7555,33664
7556,33664
7557,33792
7558,33856
7559,33792
7560,33792
7561,33856
7562,33984
7563,34048
7564,34048
7565,33920
7566,33472
7567,33152
7568,33024
7569,33664
7570,35456
7571,37888
7572,40320
7573,41728
7574,41728
7575,39616
7576,36416
7577,33792
7578,32256
7579,31424
7580,31040
7581,31168
7582,31680
7583,32256
7584,32512
7585,32768
7586,33088
7587,33344
7588,33344
7589,33344
7590,33472
7591,33664
7592,33792
7593,33792
7594,33984
7595,34240
7596,34304
7597,34112
7598,33920
7599,33728
7600,33664
7601,33536
7602,33472
7603,33536
7604,33664
7605,33792
7606,33856
7607,33984
7608,34048
7609,33984
7610,33984
7611,34112
7612,34176
7613,34176
7614,34176
7615,34176
7616,34240
7617,34368
7618,34496
7619,34624
7620,34752
7621,34816
7622,34816
7623,34880
7624,35072
7625,35264
7626,35328
7627,35328
7628,35648
7629,35968
7630,35968
7631,35968
7632,35968
7633,35904
7634,35904
7635,35968
7636,36032
7637,36096
7638,36032
7639,35904
7640,35712
7641,35456
7642,35008
7643,34496
7644,34112
7645,33920
7646,33792
7647,33664
7648,33280
7649,32768
7650,32320
7651,32064
7652,32000
7653,32128
7654,32320
7655,32448
7656,32640
7657,32768
7658,33024
7659,33152
7660,33152
7661,33344
7662,33536
7663,33344
7664,33088
7665,32960
7666,33024
7667,33088
7668,33024
7669,33088
7670,33152
7671,33280
7672,33280
7673,33472
7674,33664
7675,33600
7676,33408
7677,33344
7678,33344
7679,33536
7680,33536
7681,33536
7682,33600
7683,33728
7684,33792
7685,33728
7686,33792
7687,33792
7688,33792
7689,33856
7690,33920
7691,33856
7692,33792
7693,33728
7694,33536
7695,33472
7696,33472
7697,33408
7698,33408
7699,33600
7700,33792
7701,33792
7702,33792
7703,33856
7704,33984
7705,33984
7706,33856
7707,33856
7708,33984
7709,34048
7710,34048
7711,34112
7712,34112
7713,34048
7714,34112
7715,34176
7716,34496
7717,34432
7718,34112
7719,33728
7720,33536
7721,33536
7722,33600
7723,33728
7724,33792
7725,33728
7726,33664
7727,33664
7728,33792
7729,34048
7730,34176
7731,34048
7732,33984
7733,33984
7734,33984
7735,33984
7736,34048
7737,34176
7738,34112
7739,34048
7740,34048
7741,34176
7742,34176
7743,33984
7744,33792
7745,33920
7746,34112
7747,34112
7748,34176
7749,34048
7750,33984
7751,33856
7752,33792
7753,33728
7754,33728
7755,33792
7756,33792
7757,34048
7758,34432
7759,34432
7760,34112
7761,33920
7762,33920
7763,34048
7764,34048
7765,34048
7766,34048
7767,33984
7768,34112
7769,34368
7770,34368
7771,34432
7772,34432
7773,34368
7774,34112
7775,34048
7776,34240
7777,34304
7778,34368
7779,34368
7780,34176
7781,34048
7782,34048
7783,34176
7784,34304
7785,34368
7786,34304
7787,34112
7788,33856
7789,33728
7790,33792
7791,33984
7792,33984
7793,33856
7794,33664
7795,33664
7796,33728
7797,33664
7798,33472
7799,33472
7800,33600
7801,33664
7802,33728
7803,33984
7804,34240
7805,34048
7806,33536
7807,33408
7808,33280
7809,33344
7810,34048
7811,35520
7812,37760
7813,40064
7814,41536
7815,41792
7816,39936
7817,36864
7818,33856
7819,31872
7820,31104
7821,31104
7822,31232
7823,31552
7824,32064
7825,32512
7826,32832
7827,33088
7828,33344
7829,33600
7830,33728
7831,33728
7832,33792
7833,33856
7834,33984
7835,34048
7836,33920
7837,33856
7838,33920
7839,33856
7840,33728
7841,33664
7842,33728
7843,33728
7844,33792
7845,33920
7846,34048
7847,34048
7848,34112
7849,34304
7850,34496
7851,34432
7852,34240
7853,34176
7854,34176
7855,34368
7856,34432
7857,34368
7858,34432
7859,34496
7860,34560
7861,34624
7862,34752
7863,34944
7864,35008
7865,35072
7866,35328
7867,35456
7868,35392
7869,35456
7870,35584
7871,35712
7872,35840
7873,35968
7874,36096
7875,36096
7876,35968
7877,35776
7878,35648
7879,35648
7880,35584
7881,35392
7882,35072
7883,34880
7884,34688
7885,34304
7886,33920
7887,33664
7888,33472
7889,33088
7890,32768
7891,32704
7892,32704
7893,32640
7894,32640
7895,32640
7896,32640
7897,32640
7898,32704
7899,32832
7900,32896
7901,32768
7902,32704
7903,32832
7904,33088
7905,33216
7906,33088
7907,33088
7908,33216
7909,33408
7910,33408
7911,33344
7912,33344
7913,33408
7914,33344
7915,33344
7916,33408
7917,33472
7918,33472
7919,33536
7920,33728
7921,33792
7922,33728
7923,33792
7924,33920
7925,33856
7926,33664
7927,33472
7928,33536
7929,33600
7930,33536
7931,33344
7932,33344
7933,33472
7934,33600
7935,33664
7936,33728
7937,33856
7938,33856
7939,33856
7940,33920
7941,34176
7942,34304
7943,34112
7944,34112
7945,34176
7946,33920
7947,33408
7948,33216
7949,33408
7950,33728
7951,33728
7952,33664
7953,33664
7954,33792
7955,33856
7956,33920
7957,33984
7958,34112
7959,34112
7960,33984
7961,33856
7962,33856
7963,33856
7964,33920
7965,33920
7966,34048
7967,34112
7968,34240
7969,34368
7970,34176
7971,33920
7972,33856
7973,33920
7974,33984
7975,34048
7976,33984
7977,33792
7978,33664
7979,33792
7980,34048
7981,34176
7982,34240
7983,34432
7984,34624
7985,34688
7986,34560
7987,34688
7988,34752
7989,34688
7990,34624
7991,34624
7992,34752
7993,34496
7994,33920
7995,33472
7996,33344
7997,33216
7998,33216
7999,33344
8000,33600
8001,33856
8002,33920
8003,33920
8004,33856
8005,33600
8006,33408
8007,33472
8008,33664
8009,33728
8010,33664
8011,33728
8012,33792
8013,33728
8014,33408
8015,33152
8016,33472
8017,34496
8018,36160
8019,38400
8020,40448
8021,41728
8022,41152
8023,38464
8024,35520
8025,33344
8026,32064
8027,31296
8028,31104
8029,31488
8030,32000
8031,32384
8032,32832
8033,33408
8034,33856
8035,33792
8036,33536
8037,33536
8038,33728
8039,33856
8040,33728
8041,33600
8042,33600
8043,33600
8044,33536
8045,33664
8046,33920
8047,33984
8048,33856
8049,33856
8050,34048
8051,34240
8052,34304
8053,34240
8054,34240
8055,34240
8056,34176
8057,34112
8058,34176
8059,34240
8060,34176
8061,34176
8062,34432
8063,34688
8064,34880
8065,34816
8066,34688
8067,34560
8068,34560
8069,34624
8070,34816
8071,35008
8072,35072
8073,35200
8074,35456
8075,35584
8076,35712
8077,35840
8078,35904
8079,36096
8080,36224
8081,36224
8082,36160
8083,36096
8084,36160
8085,35968
8086,35712
8087,35392
8088,35200
8089,35008
8090,34752
8091,34432
8092,33984
8093,33536
8094,33152
8095,32960
8096,32896
8097,32768
8098,32576
8099,32576
8100,32640
8101,32512
8102,32256
8103,32256
8104,32448
8105,32640
8106,32832
8107,33024
8108,33216
8109,33344
8110,33280
8111,33216
8112,33280
8113,33408
8114,33536
8115,33536
8116,33344
8117,33152
8118,33024
8119,33088
8120,33152
8121,33408
8122,33600
8123,33536
8124,33472
8125,33344
8126,33344
8127,33344
8128,33408
8129,33536
8130,33600
8131,33600
8132,33600
8133,33664
8134,33792
8135,33792
8136,33728
8137,33792
8138,33792
8139,33664
8140,33792
8141,33792
8142,33664
8143,33472
8144,33536
8145,33792
8146,33856
8147,33792
8148,33728
8149,33920
8150,33984
8151,33920
8152,33792
8153,33728
8154,33856
8155,34112
8156,34176
8157,34176
8158,34304
8159,34176
8160,33728
8161,33408
8162,33344
8163,33472
8164,33600
8165,33664
8166,33792
8167,33920
8168,33920
8169,33984
8170,34176
8171,34112
8172,33920
8173,33792
8174,33920
8175,34048
8176,33920
8177,33728
8178,33664
8179,33664
8180,33664
8181,33728
8182,33664
8183,34048
8184,34176
8185,34176
8186,34112
8187,34176
8188,34176
8189,34048
8190,33984
8191,34048
8192,34048
8193,33984
8194,34048
8195,34368
8196,34624
8197,34560
8198,34048
8199,33856
8200,33984
8201,34240
8202,34176
8203,33920
8204,33728
8205,33664
8206,33728
8207,33920
8208,34176
8209,34240
8210,34368
8211,34688
8212,34944
8213,34688
8214,34304
8215,34176
8216,34240
8217,34368
8218,34432
8219,34560
8220,34880
8221,35008
8222,34816
8223,34496
8224,34176
8225,33984
8226,33856
8227,33792
8228,33664
8229,33600
8230,33600
8231,33536
8232,33408
8233,33344
8234,33280
8235,33280
8236,33408
8237,33728
8238,33856
8239,33792
8240,33728
8241,33792
8242,33792
8243,33728
8244,33536
8245,33344
8246,33280
8247,33728
8248,35264
8249,37504
8250,39936
8251,41600
8252,42304
8253,40768
8254,37312
8255,33984
8256,31680
8257,30784
8258,30720
8259,31104
8260,31616
8261,32192
8262,32704
8263,33088
8264,33280
8265,33408
8266,33664
8267,33856
8268,34048
8269,34112
8270,34112
8271,33984
8272,33856
8273,33856
8274,33856
8275,33792
8276,33664
8277,33664
8278,34048
8279,34496
8280,34240
8281,33728
8282,33536
8283,33856
8284,34048
8285,34048
8286,33984
8287,33984
8288,33984
8289,33984
8290,34176
8291,34496
8292,34624
8293,34496
8294,34432
8295,34496
8296,34560
8297,34624
8298,34688
8299,34944
8300,35200
8301,35072
8302,34944
8303,35008
8304,35264
8305,35520
8306,35776
8307,35968
8308,35840
8309,35584
8310,35520
8311,35584
8312,35840
8313,36160
8314,36416
8315,36608
8316,36480
8317,36032
8318,35584
8319,35264
8320,35072
8321,34688
8322,34240
8323,33920
8324,33536
8325,33216
8326,33024
8327,32896
8328,32768
8329,32704
8330,32704
8331,32832
8332,32832
8333,32768
8334,32640
8335,32576
8336,32640
8337,32832
8338,32960
8339,33088
8340,33280
8341,33536
8342,33536
8343,33216
8344,33088
8345,33152
8346,33216
8347,33152
8348,33152
8349,33280
8350,33472
8351,33600
8352,33600
8353,33536
8354,33664
8355,33664
8356,33408
8357,33280
8358,33280
8359,33344
8360,33408
8361,33664
8362,33856
8363,33792
8364,33728
8365,33728
8366,33856
8367,33792
8368,33536
8369,33408
8370,33408
8371,33536
8372,33600
8373,33664
8374,33792
8375,34112
8376,34176
8377,33984
8378,33920
8379,34048
8380,33984
8381,33920
8382,33856
8383,33792
8384,33792
8385,33728
8386,33792
8387,33984
8388,34112
8389,34112
8390,33856
8391,33728
8392,33792
8393,33792
8394,33792
8395,33984
8396,34112
8397,34112
8398,34048
8399,34240
8400,34368
8401,34304
8402,34176
8403,34176
8404,34112
8405,33984
8406,33792
8407,33856
8408,33984
8409,33920
8410,33792
8411,33920
8412,34112
8413,34048
8414,33920
8415,33984
8416,34368
8417,34624
8418,34432
8419,34240
8420,34368
8421,34624
8422,34688
8423,34560
8424,34560
8425,34560
8426,34432
8427,34304
8428,34368
8429,34368
8430,34112
8431,33856
8432,33984
8433,33984
8434,33664
8435,33408
8436,33472
8437,33792
8438,33920
8439,33728
8440,33600
8441,33600
8442,33792
8443,34048
8444,34112
8445,34176
8446,34112
8447,33920
8448,33728
8449,33664
8450,33600
8451,33280
8452,33024
8453,33344
8454,34752
8455,36992
8456,39232
8457,40960
8458,41728
8459,40576
8460,37760
8461,35008
8462,32896
8463,31808
8464,31488
8465,31552
8466,31872
8467,32256
8468,32448
8469,32768
8470,33216
8471,33728
8472,33984
8473,33792
8474,33600
8475,33600
8476,33600
8477,33600
8478,33664
8479,33792
8480,33920
8481,33920
8482,33984
8483,34048
8484,34048
8485,34112
8486,34112
8487,34176
8488,34304
8489,34368
8490,34432
8491,34368
8492,34240
8493,34176
8494,34240
8495,34432
8496,34496
8497,34368
8498,34240
8499,34304
8500,34624
8501,34752
8502,34624
8503,34624
8504,34752
8505,34816
8506,34816
8507,34880
8508,35072
8509,35328
8510,35456
8511,35520
8512,35712
8513,35840
8514,36096
8515,36224
8516,36096
8517,35968
8518,35904
8519,35904
8520,35904
8521,35968
8522,35840
8523,35648
8524,35456
8525,35392
8526,35136
8527,34624
8528,34176
8529,33728
8530,33344
8531,32960
8532,32768
8533,32704
8534,32640
8535,32448
8536,32448
8537,32576
8538,32768
8539,32768
8540,32832
8541,33024
8542,33088
8543,32960
8544,32896
8545,32960
8546,33088
8547,33152
8548,33088
8549,33152
8550,33280
8551,33344
8552,33280
8553,33280
8554,33344
8555,33408
8556,33344
8557,33408
8558,33472
8559,33600
8560,33536
8561,33536
8562,33536
8563,33600
8564,33600
8565,33536
8566,33536
8567,33600
8568,33600
8569,33536
8570,33600
8571,33664
8572,33664
8573,33664
8574,33728
8575,33792
8576,33792
8577,33792
8578,33728
8579,33856
8580,33856
8581,33792
8582,33792
8583,33856
8584,33920
8585,33856
8586,33792
8587,33856
8588,33984
8589,33984
8590,33920
8591,33920
8592,33984
8593,33920
8594,33792
8595,33792
8596,33920
8597,33920
8598,33792
8599,33856
8600,34176
8601,34304
8602,33984
8603,33664
8604,33600
8605,33600
8606,33600
8607,33664
8608,33792
8609,33920
8610,33920
8611,33920
8612,33984
8613,34240
8614,34432
8615,34560
8616,34688
8617,34624
8618,34560
8619,34368
8620,34048
8621,33984
8622,34112
8623,34304
8624,34432
8625,34560
8626,34688
8627,34624
8628,34368
8629,34112
8630,34048
8631,33856
8632,33792
8633,33728
8634,33792
8635,33728
8636,33728
8637,33920
8638,33984
8639,33856
8640,33792
8641,33792
8642,33856
8643,33984
8644,34048
8645,34048
8646,33920
8647,33664
8648,33408
8649,33408
8650,33472
8651,33344
8652,33088
8653,32960
8654,33344
8655,34496
8656,36416
8657,38784
8658,40896
8659,42368
8660,41920
8661,38912
8662,35520
8663,32832
8664,31296
8665,30656
8666,30848
8667,31424
8668,32064
8669,32576
8670,32960
8671,33344
8672,33600
8673,33728
8674,33856
8675,33920
8676,33920
8677,33792
8678,33856
8679,34240
8680,34176
8681,33856
8682,33600
8683,33600
8684,33728
8685,33792
8686,33856
8687,33984
8688,34112
8689,34048
8690,34112
8691,34560
8692,34688
8693,34368
8694,34112
8695,34048
8696,34112
8697,34176
8698,34176
8699,34304
8700,34560
8701,34880
8702,34816
8703,34560
8704,34496
8705,34496
8706,34432
8707,34496
8708,34688
8709,35008
8710,35200
8711,35264
8712,35456
8713,35840
8714,36096
8715,36160
8716,36096
8717,36096
8718,36032
8719,35968
8720,36096
8721,36608
8722,36864
8723,36480
8724,35840
8725,35264
8726,34880
8727,34560
8728,34368
8729,34240
8730,34112
8731,33600
8732,33024
8733,32576
8734,32384
8735,32320
8736,32320
8737,32384
8738,32512
8739,32576
8740,32640
8741,32832
8742,33088
8743,33216
8744,33216
8745,33152
8746,33280
8747,33344
8748,33216
8749,33088
8750,33280
8751,33536
8752,33536
8753,33280
8754,33088
8755,33024
8756,32960
8757,33024
8758,33280
8759,33536
8760,33600
8761,33536
8762,33472
8763,33472
8764,33472
8765,33472
8766,33600
8767,33792
8768,33920
8769,33728
8770,33600
8771,33536
8772,33536
8773,33472
8774,33536
8775,33664
8776,33728
8777,33792
8778,33792
8779,33856
8780,33984
8781,33920
8782,33920
8783,33920
8784,33984
8785,33920
8786,33856
8787,33856
8788,33920
8789,33984
8790,33856
8791,33792
8792,33856
8793,33920
8794,33920
8795,33792
8796,33792
8797,33792
8798,33728
8799,33728
8800,33792
8801,33856
8802,33792
8803,33792
8804,33856
8805,34048
8806,34176
8807,34240
8808,34112
8809,33984
8810,33920
8811,33792
8812,33664
8813,33728
8814,33728
8815,33600
8816,33600
8817,33856
8818,34048
8819,33984
8820,33856
8821,34048
8822,34176
8823,33984
8824,33856
8825,33856
8826,34048
8827,34240
8828,34368
8829,34432
8830,34496
8831,34496
8832,34496
8833,34624
8834,34752
8835,34688
8836,34688
8837,34688
8838,34752
8839,34560
8840,34304
8841,33920
8842,33472
8843,33152
8844,33088
8845,33088
8846,33216
8847,33344
8848,33408
8849,33472
8850,33664
8851,33792
8852,33792
8853,33856
8854,33920
8855,34048
8856,34048
8857,33920
8858,33856
8859,33792
8860,33600
8861,33280
8862,33152
8863,33536
8864,34496
8865,36160
8866,38400
8867,40512
8868,41792
8869,41536
8870,38976
8871,35648
8872,33216
8873,31680
8874,31040
8875,31232
8876,31808
8877,32256
8878,32512
8879,32704
8880,33024
8881,33280
8882,33536
8883,33728
8884,33792
8885,33792
8886,33600
8887,33472
8888,33536
8889,33664
8890,33664
8891,33664
8892,33856
8893,33920
8894,33856
8895,33856
8896,34112
8897,34240
8898,34176
8899,33984
8900,33920
8901,33984
8902,34048
8903,34368
8904,34432
8905,34240
8906,34112
8907,34048
8908,34048
8909,34112
8910,34240
8911,34240
8912,34240
8913,34432
8914,34560
8915,34624
8916,34752
8917,35008
8918,35200
8919,35264
8920,35392
8921,35520
8922,35648
8923,35712
8924,35776
8925,36032
8926,36288
8927,36352
8928,36352
8929,36352
8930,36288
8931,36032
8932,35712
8933,35456
8934,35328
8935,35136
8936,34816
8937,34624
8938,34496
8939,34176
8940,33600
8941,33088
8942,32832
8943,32704
8944,32512
8945,32448
8946,32448
8947,32576
8948,32576
8949,32576
8950,32704
8951,32896
8952,32960
8953,32960
8954,33024
8955,33280
8956,33472
8957,33472
8958,33472
8959,33408
8960,33536
8961,33408
8962,33088
8963,32960
8964,32896
8965,32768
8966,32768
8967,32896
8968,33024
8969,33152
8970,33344
8971,33472
8972,33536
8973,33472
8974,33408
8975,33472
8976,33600
8977,33600
8978,33536
8979,33664
8980,33856
8981,33792
8982,33664
8983,33728
8984,33984
8985,34048
8986,33728
8987,33536
8988,33728
8989,33920
8990,33664
8991,33408
8992,33472
8993,33664
8994,33792
8995,33856
8996,33728
8997,33728
8998,33728
8999,33600
9000,33472
9001,33600
9002,33728
9003,33792
9004,33792
9005,33792
9006,33856
9007,33856
9008,33856
9009,34048
9010,34176
9011,34176
9012,34048
9013,33856
9014,33792
9015,33728
9016,33728
9017,33984
9018,34176
9019,34176
9020,34048
9021,33984
9022,34112
9023,34048
9024,33920
9025,33920
9026,34048
9027,33984
9028,33920
9029,33984
9030,34176
9031,34304
9032,34304
9033,34368
9034,34560
9035,34752
9036,34880
9037,34880
9038,34688
9039,34496
9040,34240
9041,33920
9042,33792
9043,33728
9044,33536
9045,33536
9046,33600
9047,33664
9048,33664
9049,33600
9050,33664
9051,33856
9052,33920
9053,33792
9054,33664
9055,33792
9056,33856
9057,33920
9058,33920
9059,33920
9060,33856
9061,33600
9062,33216
9063,33024
9064,33280
9065,34048
9066,35904
9067,38016
9068,40512
9069,41920
9070,41664
9071,39424
9072,36352
9073,33728
9074,31936
9075,31168
9076,31040
9077,31424
9078,31936
9079,32576
9080,33088
9081,33344
9082,33344
9083,33408
9084,33536
9085,33728
9086,33728
9087,33728
9088,33792
9089,33920
9090,33920
9091,33920
9092,34048
9093,34176
9094,34112
9095,33920
9096,33856
9097,33984
9098,33984
9099,33920
9100,33920
9101,34048
9102,34368
9103,34368
9104,34176
9105,34048
9106,34112
9107,34048
9108,34048
9109,34176
9110,34432
9111,34496
9112,34432
9113,34560
9114,34688
9115,34688
9116,34752
9117,34944
9118,35200
9119,35264
9120,35328
9121,35456
9122,35776
9123,35840
9124,35776
9125,35712
9126,35776
9127,35840
9128,35840
9129,35968
9130,36160
9131,36224
9132,36096
9133,36032
9134,35904
9135,35776
9136,35392
9137,34880
9138,34432
9139,34048
9140,33728
9141,33408
9142,33280
9143,33088
9144,32896
9145,32704
9146,32704
9147,32832
9148,32832
9149,32704
9150,32704
9151,32832
9152,32896
9153,32896
9154,32960
9155,33088
9156,33216
9157,33216
9158,33216
9159,33344
9160,33536
9161,33600
9162,33536
9163,33408
9164,33472
9165,33280
9166,33152
9167,33216
9168,33408
9169,33472
9170,33536
9171,33664
9172,33728
9173,33600
9174,33408
9175,33408
9176,33472
9177,33536
9178,33536
9179,33536
9180,33600
9181,33728
9182,33664
9183,33664
9184,33728
9185,33792
9186,33728
9187,33664
9188,33664
9189,33728
9190,33728
9191,33664
9192,33728
9193,33792
9194,33792
9195,33728
9196,33856
9197,34048
9198,34112
9199,33920
9200,33856
9201,33920
9202,33920
9203,33920
9204,33856
9205,33920
9206,33920
9207,33920
9208,33920
9209,33984
9210,34048
9211,34048
9212,34048
9213,34048
9214,33984
9215,33920
9216,33856
9217,33856
9218,33984
9219,34048
9220,34112
9221,34176
9222,34368
9223,34560
9224,34560
9225,34432
9226,34432
9227,34624
9228,34752
9229,34816
9230,34752
9231,34496
9232,34240
9233,33920
9234,33792
9235,33792
9236,33664
9237,33536
9238,33600
9239,33664
9240,33536
9241,33408
9242,33472
9243,33728
9244,33856
9245,33856
9246,33856
9247,33920
9248,33920
9249,33792
9250,33664
9251,33600
9252,33600
9253,33472
9254,33088
9255,32896
9256,33088
9257,33920
9258,35648
9259,38016
9260,40320
9261,41600
9262,41536
9263,39296
9264,36288
9265,33600
9266,32000
9267,31360
9268,31360
9269,31680
9270,32000
9271,32448
9272,32896
9273,33344
9274,33536
9275,33600
9276,33664
9277,33600
9278,33600
9279,33664
9280,33856
9281,33920
9282,33856
9283,33856
9284,33920
9285,33920
9286,33856
9287,33856
9288,33920
9289,34112
9290,34176
9291,34112
9292,33984
9293,33984
9294,34048
9295,34112
9296,34240
9297,34368
9298,34432
9299,34368
9300,34368
9301,34432
9302,34560
9303,34624
9304,34752
9305,34752
9306,34816
9307,34752
9308,34816
9309,35072
9310,35264
9311,35328
9312,35456
9313,35520
9314,35584
9315,35584
9316,35520
9317,35648
9318,35904
9319,36032
9320,36096
9321,36160
9322,36288
9323,36352
9324,36224
9325,35968
9326,35712
9327,35456
9328,35136
9329,34688
9330,34496
9331,34304
9332,33984
9333,33472
9334,33088
9335,32832
9336,32576
9337,32512
9338,32512
9339,32704
9340,32896
9341,32768
9342,32768
9343,32960
9344,33216
9345,33024
9346,32768
9347,32704
9348,32768
9349,32704
9350,32768
9351,33024
9352,33152
9353,33152
9354,33088
9355,33152
9356,33280
9357,33344
9358,33344
9359,33344
9360,33472
9361,33600
9362,33664
9363,33728
9364,33728
9365,33664
9366,33536
9367,33536
9368,33536
9369,33600
9370,33536
9371,33536
9372,33664
9373,33728
9374,33536
9375,33344
9376,33408
9377,33536
9378,33600
9379,33600
9380,33728
9381,33984
9382,33920
9383,33792
9384,33792
9385,33920
9386,33856
9387,33792
9388,33728
9389,33856
9390,33920
9391,33856
9392,33792
9393,33856
9394,33856
9395,33856
9396,33984
9397,34048
9398,34176
9399,34176
9400,34112
9401,34048
9402,33920
9403,33728
9404,33664
9405,33792
9406,34112
9407,34240
9408,34048
9409,33792
9410,33664
9411,33664
9412,33664
9413,33728
9414,33856
9415,33920
9416,33856
9417,33856
9418,33984
9419,34176
9420,34176
9421,34112
9422,34112
9423,34112
9424,34112
9425,34048
9426,34112
9427,34304
9428,34368
9429,34368
9430,34304
9431,34240
9432,34112
9433,34048
9434,34176
9435,34368
9436,34432
9437,34496
9438,34624
9439,34752
9440,34816
9441,34752
9442,34624
9443,34432
9444,34304
9445,34112
9446,34048
9447,33984
9448,33920
9449,33792
9450,33600
9451,33600
9452,33600
9453,33600
9454,33600
9455,33600
9456,33792
9457,33792
9458,33792
9459,33856
9460,34048
9461,34112
9462,34048
9463,33984
9464,33920
9465,33856
9466,33536
9467,33216
9468,33088
9469,33216
9470,33600
9471,34816
9472,36864
9473,39360
9474,41152
9475,41920
9476,40640
9477,37760
9478,34688
9479,32512
9480,31424
9481,31232
9482,31488
9483,31872
9484,32320
9485,32768
9486,33152
9487,33280
9488,33408
9489,33536
9490,33664
9491,33728
9492,33728
9493,33856
9494,34048
9495,33984
9496,33920
9497,33856
9498,33920
9499,33920
9500,33984
9501,34048
9502,33984
9503,33856
9504,33728
9505,33728
9506,33856
9507,33984
9508,33984
9509,34048
9510,34176
9511,34304
9512,34432
9513,34496
9514,34560
9515,34624
9516,34560
9517,34496
9518,34496
9519,34560
9520,34624
9521,34752
9522,34816
9523,35008
9524,35072
9525,35136
9526,35328
9527,35520
9528,35584
9529,35520
9530,35584
9531,35776
9532,35840
9533,35840
9534,35968
9535,36160
9536,36224
9537,36160
9538,36096
9539,36032
9540,35904
9541,35648
9542,35456
9543,35072
9544,34624
9545,34048
9546,33344
9547,33088
9548,32896
9549,32704
9550,32640
9551,32640
9552,32704
9553,32704
9554,32576
9555,32576
9556,32704
9557,32768
9558,32640
9559,32640
9560,32704
9561,32896
9562,32896
9563,33024
9564,33088
9565,33216
9566,33152
9567,33088
9568,33152
9569,33280
9570,33280
9571,33216
9572,33280
9573,33472
9574,33536
9575,33600
9576,33536
9577,33536
9578,33472
9579,33344
9580,33344
9581,33536
9582,33664
9583,33600
9584,33536
9585,33600
9586,33664
9587,33600
9588,33536
9589,33728
9590,33856
9591,33664
9592,33600
9593,33600
9594,33664
9595,33728
9596,33728
9597,33664
9598,33664
9599,33664
9600,33600
9601,33536
9602,33792
9603,34048
9604,33984
9605,33856
9606,33856
9607,33920
9608,33920
9609,33728
9610,33728
9611,33792
9612,33728
9613,33792
9614,33920
9615,34048
9616,33984
9617,33920
9618,33920
9619,34048
9620,33984
9621,33920
9622,33920
9623,33984
9624,34048
9625,33920
9626,33984
9627,34112
9628,34048
9629,33920
9630,33856
9631,33920
9632,34048
9633,34048
9634,33984
9635,33984
9636,34176
9637,34240
9638,34048
9639,33856
9640,33856
9641,33856
9642,33856
9643,33920
9644,33984
9645,33984
9646,33984
9647,34048
9648,34112
9649,34112
9650,34112
9651,34112
9652,34240
9653,34304
9654,34240
9655,34112
9656,34048
9657,34176
9658,34304
9659,34432
9660,34688
9661,34752
9662,34688
9663,34688
9664,34752
9665,34688
9666,34368
9667,34240
9668,34176
9669,34112
9670,34048
9671,33856
9672,33664
9673,33664
9674,33600
9675,33536
9676,33600
9677,33792
9678,33856
9679,33792
9680,33728
9681,33792
9682,33856
9683,33792
9684,33792
9685,33984
9686,34112
9687,33984
9688,33792
9689,33728
9690,33856
9691,33728
9692,33408
9693,33216
9694,33344
9695,34048
9696,36224
9697,37504
9698,39808
9699,41536
9700,41984
9701,40064
9702,37248
9703,34496
9704,32576
9705,31616
9706,31424
9707,31552
9708,31744
9709,32064
9710,32448
9711,32960
9712,33024
9713,33216
9714,33408
9715,33600
9716,33664
9717,33664
9718,33792
9719,34048
9720,34112
9721,33984
9722,33856
9723,33792
9724,33792
9725,33792
9726,33920
9727,33984
9728,34176
9729,34176
9730,34112
9731,34176
9732,34240
9733,34112
9734,34112
9735,34112
9736,34112
9737,34176
9738,34176
9739,34304
9740,34368
9741,34432
9742,34432
9743,34368
9744,34560
9745,34752
9746,34944
9747,35008
9748,35136
9749,35136
9750,35072
9751,35072
9752,35264
9753,35584
9754,35712
9755,35776
9756,36160
9757,36160
9758,35968
9759,35840
9760,35904
9761,36096
9762,36096
9763,35904
9764,35840
9765,35776
9766,35584
9767,35264
9768,34944
9769,34560
9770,34304
9771,33664
9772,33344
9773,33088
9774,32896
9775,32768
9776,32704
9777,32704
9778,32640
9779,32640
9780,32640
9781,32768
9782,33152
9783,33216
9784,32896
9785,32768
9786,32768
9787,32576
9788,32448
9789,32512
9790,32768
9791,32960
9792,33024
9793,33152
9794,33344
9795,33472
9796,33408
9797,33408
9798,33472
9799,33536
9800,33472
9801,33536
9802,33600
9803,33664
9804,33664
9805,33600
9806,33664
9807,33728
9808,33728
9809,33664
9810,33664
9811,33728
9812,33728
9813,33664
9814,33664
9815,33792
9816,33792
9817,33728
9818,33728
9819,33792
9820,33856
9821,33792
9822,33728
9823,33856
9824,33920
9825,33920
9826,33920
9827,33984
9828,34112
9829,34048
9830,33856
9831,33792
9832,33856
9833,34048
9834,33984
9835,33792
9836,33728
9837,33664
9838,33600
9839,33600
9840,33792
9841,33856
9842,33856
9843,33920
9844,33984
9845,34048
9846,33984
9847,33920
9848,33984
9849,34048
9850,33984
9851,33984
9852,33984
9853,34048
9854,34048
9855,33984
9856,34048
9857,34176
9858,34176
9859,34048
9860,33984
9861,34048
9862,34048
9863,34112
9864,34176
9865,34368
9866,34496
9867,34496
9868,34560
9869,34688
9870,34816
9871,34816
9872,34688
9873,34496
9874,34304
9875,34112
9876,33984
9877,33856
9878,33792
9879,33664
9880,33536
9881,33600
9882,33664
9883,33728
9884,33792
9885,33920
9886,33920
9887,33856
9888,33856
9889,33856
9890,33856
9891,33856
9892,33856
9893,33792
9894,33792
9895,33664
9896,33408
9897,33088
9898,32960
9899,32960
9900,33472
9901,35008
9902,37248
9903,39616
9904,41152
9905,41472
9906,39936
9907,37248
9908,34624
9909,32768
9910,31872
9911,31488
9912,31424
9913,31552
9914,32000
9915,32704
9916,33408
9917,33664
9918,33536
9919,33408
9920,33344
9921,33216
9922,33216
9923,33472
9924,33664
9925,33600
9926,33664
9927,33856
9928,34112
9929,34112
9930,33984
9931,33856
9932,33792
9933,33728
9934,33664
9935,33792
9936,33984
9937,34176
9938,34176
9939,34176
9940,34304
9941,34368
9942,34368
9943,34368
9944,34496
9945,34624
9946,34560
9947,34560
9948,34688
9949,34880
9950,34880
9951,34752
9952,34688
9953,34880
9954,35008
9955,35072
9956,35200
9957,35392
9958,35520
9959,35648
9960,35776
9961,35840
9962,35904
9963,35968
9964,36096
9965,36288
9966,36352
9967,36288
9968,36032
9969,35712
9970,35328
9971,35072
9972,34752
9973,34304
9974,33856
9975,33472
9976,33152
9977,32960
9978,32768
9979,32640
9980,32512
9981,32576
9982,32576
9983,32832
9984,33024
9985,32960
9986,32832
9987,32768
9988,32768
9989,32896
9990,33024
9991,33024
9992,33024
9993,33216
9994,33408
9995,33408
9996,33344
9997,33344
9998,33472
9999,33408
10000,33344
10001,33280
10002,33280
10003,33280
10004,33280
10005,33280
10006,33600
10007,33536
10008,33536
10009,33472
10010,33536
10011,33664
10012,33664
10013,33600
10014,33536
10015,33536
10016,33472
10017,33536
10018,33728
10019,33856
10020,33728
10021,33600
10022,33600
10023,33664
10024,33600
10025,33600
10026,33664
10027,33792
10028,33920
10029,33920
10030,33856
10031,33792
10032,33664
10033,33600
10034,33536
10035,33664
10036,33856
10037,33920
10038,33856
10039,33920
10040,33984
10041,33856
10042,33792
10043,33600
10044,33664
10045,33600
10046,33664
10047,33728
10048,33856
10049,33920
10050,33920
10051,33792
10052,33856
10053,33856
10054,33856
10055,33856
10056,33984
10057,34112
10058,34176
10059,34176
10060,34048
10061,33856
10062,33792
10063,33728
10064,33728
10065,33792
10066,33856
10067,33920
10068,34112
10069,34304
10070,34304
10071,34368
10072,34304
10073,34624
10074,34688
10075,34688
10076,34688
10077,34752
10078,34688
10079,34752
10080,34688
10081,34432
10082,34112
10083,33792
10084,33600
10085,33472
10086,33408
10087,33280
10088,33280
10089,33408
10090,33536
10091,33664
10092,33792
10093,33920
10094,34048
10095,33984
10096,33792
10097,33728
10098,33728
10099,33792
10100,33728
10101,33664
10102,33600
10103,33344
10104,33152
10105,33600
10106,34880
10107,36928
10108,39296
10109,41088
10110,41792
10111,40512
10112,37568
10113,34624
10114,32576
10115,31616
10116,31360
10117,31488
10118,31936
10119,32448
10120,32768
10121,32896
10122,33152
10123,33408
10124,33536
10125,33664
10126,33664
10127,33728
10128,33792
10129,33856
10130,33856
10131,33920
10132,33984
10133,33920
10134,33792
10135,33728
10136,33792
10137,33792
10138,33792
10139,33792
10140,33920
10141,34048
10142,34112
10143,34112
10144,34240
10145,34368
10146,34304
10147,34240
10148,34240
10149,34304
10150,34240
10151,34304
10152,34432
10153,34496
10154,34432
10155,34432
10156,34560
10157,34688
10158,34752
10159,34816
10160,35008
10161,35200
10162,35264
10163,35392
10164,35520
10165,35712
10166,35840
10167,35968
10168,36160
10169,36288
10170,36224
10171,36096
10172,36032
10173,36032
10174,35968
10175,35776
10176,35648
10177,35456
10178,35072
10179,34560
10180,34112
10181,33792
10182,33472
10183,33088
10184,32768
10185,32640
10186,32576
10187,32512
10188,32512
10189,32704
10190,32832
10191,32896
10192,32768
10193,32640
10194,32704
10195,32768
10196,32832
10197,32896
10198,32960
10199,33088
10200,33088
10201,33152
10202,33280
10203,33408
10204,33344
10205,33344
10206,33408
10207,33408
10208,33344
10209,33280
10210,33408
10211,33536
10212,33536
10213,33536
10214,33536
10215,33664
10216,33664
10217,33536
10218,33536
10219,33664
10220,33856
10221,34048
10222,34112
10223,33920
10224,33536
10225,33344
10226,33408
10227,33536
10228,33536
10229,33472
10230,33408
10231,33472
10232,33600
10233,33536
10234,33536
10235,33728
10236,33984
10237,33856
10238,33664
10239,33664
10240,33728
10241,33728
10242,33664
10243,33728
10244,33920
10245,34048
10246,33984
10247,33920
10248,33856
10249,33792
10250,33792
10251,33920
10252,34048
10253,34048
10254,33792
10255,33600
10256,33600
10257,33664
10258,33664
10259,33664
10260,33728
10261,33856
10262,33856
10263,33792
10264,33792
10265,33920
10266,33920
10267,33856
10268,33856
10269,33920
10270,33984
10271,33920
10272,33920
10273,33984
10274,33984
10275,33920
10276,33856
10277,33920
10278,33984
10279,33920
10280,33920
10281,33920
10282,33984
10283,33984
10284,33920
10285,33920
10286,33984
10287,33984
10288,33984
10289,34112
10290,34304
10291,34368
10292,34304
10293,34304
10294,34432
10295,34432
10296,34176
10297,34112
10298,34240
10299,34496
10300,34560
10301,34496
10302,34496
10303,34432
10304,34368
10305,34304
10306,34176
10307,34048
10308,33792
10309,33536
10310,33472
10311,33472
10312,33536
10313,33472
10314,33472
10315,33536
10316,33600
10317,33664
10318,33728
10319,33856
10320,33920
10321,33792
10322,33728
10323,33728
10324,33792
10325,33728
10326,33536
10327,33344
10328,33216
10329,33344
10330,34240
10331,36096
10332,38592
10333,40768
10334,41792
10335,41344
10336,38848
10337,35648
10338,33024
10339,31488
10340,31168
10341,31424
10342,31744
10343,32064
10344,32448
10345,32704
10346,32832
10347,33024
10348,33408
10349,33664
10350,33664
10351,33600
10352,33728
10353,33792
10354,33792
10355,33856
10356,34048
10357,34176
10358,34048
10359,33856
10360,33856
10361,33984
10362,33856
10363,33664
10364,33536
10365,33600
10366,33664
10367,33792
10368,33920
10369,34112
10370,34176
10371,34240
10372,34304
10373,34496
10374,34496
10375,34432
10376,34432
10377,34560
10378,34624
10379,34624
10380,34624
10381,34816
10382,35072
10383,35072
10384,35008
10385,35008
10386,35200
10387,35264
10388,35392
10389,35456
10390,35712
10391,35904
10392,35968
10393,36096
10394,36160
10395,36224
10396,36160
10397,36288
10398,36352
10399,36160
10400,35840
10401,35456
10402,35200
10403,34944
10404,34496
10405,34048
10406,33664
10407,33472
10408,33472
10409,33344
10410,32960
10411,32704
10412,32576
10413,32448
10414,32384
10415,32448
10416,32576
10417,32640
10418,32768
10419,32960
10420,33088
10421,33024
10422,33024
10423,33216
10424,33344
10425,33344
10426,33280
10427,33280
10428,33344
10429,33344
10430,33280
10431,33408
10432,33600
10433,33664
10434,33728
10435,33728
10436,33728
10437,33728
10438,33536
10439,33600
10440,33728
10441,33664
10442,33536
10443,33472
10444,33536
10445,33664
10446,33600
10447,33472
10448,33536
10449,33792
10450,33792
10451,33728
10452,33664
10453,33728
10454,33792
10455,33792
10456,33856
10457,33920
10458,33984
10459,33920
10460,33984
10461,34240
10462,34368
10463,34240
10464,34048
10465,33920
10466,33792
10467,33728
10468,33792
10469,33920
10470,33984
10471,33856
10472,33664
10473,33728
10474,33792
10475,33920
10476,33984
10477,33984
10478,34048
10479,33984
10480,33920
10481,33856
10482,33856
10483,33856
10484,33856
10485,33920
10486,34048
10487,34048
10488,34048
10489,34048
10490,34048
10491,34112
10492,34048
10493,34048
10494,34112
10495,34432
10496,34624
10497,34432
10498,34112
10499,34048
10500,34176
10501,34240
10502,34240
10503,34176
10504,33920
10505,33664
10506,33792
10507,34112
10508,34240
10509,34048
10510,33984
10511,34112
10512,34368
10513,34432
10514,34560
10515,34752
10516,34880
10517,34752
10518,34624
10519,34560
10520,34496
10521,34304
10522,34048
10523,33920
10524,33984
10525,33856
10526,33664
10527,33664
10528,33728
10529,33792
10530,33728
10531,33664
10532,33792
10533,33856
10534,33792
10535,33792
10536,33920
10537,33984
10538,33920
10539,33856
10540,33792
10541,33664
10542,33344
10543,33280
10544,33728
10545,35008
10546,36928
10547,39168
10548,40960
10549,41792
10550,40704
10551,37696
10552,35072
10553,33024
10554,31808
10555,31232
10556,31360
10557,31936
10558,32512
10559,33088
10560,33344
10561,33344
10562,33216
10563,33280
10564,33472
10565,33600
10566,33856
10567,33920
10568,33792
10569,33856
10570,33920
10571,33664
10572,33472
10573,33472
10574,33664
10575,33728
10576,33728
10577,33792
10578,33984
10579,34112
10580,33984
10581,33984
10582,34112
10583,34240
10584,34304
10585,34368
10586,34432
10587,34496
10588,34368
10589,34368
10590,34496
10591,34688
10592,34816
10593,34816
10594,34816
10595,34816
10596,34752
10597,34752
10598,34880
10599,34944
10600,35008
10601,35200
10602,35328
10603,35520
10604,35584
10605,35584
10606,35648
10607,35776
10608,35904
10609,35904
10610,35968
10611,36032
10612,36032
10613,35968
10614,35776
10615,35648
10616,35392
10617,35008
10618,34624
10619,34304
10620,33920
10621,33600
10622,33280
10623,33024
10624,32896
10625,32832
10626,32704
10627,32640
10628,32704
10629,32768
10630,32768
10631,32768
10632,32832
10633,32960
10634,32960
10635,32960
10636,33088
10637,33216
10638,33152
10639,33152
10640,33280
10641,33408
10642,33408
10643,33280
10644,33280
10645,33344
10646,33344
10647,33344
10648,33408
10649,33536
10650,33536
10651,33600
10652,33664
10653,33728
10654,33664
10655,33536
10656,33472
10657,33536
10658,33664
10659,33856
10660,33920
10661,33792
10662,33664
10663,33664
10664,33664
10665,33536
10666,33536
10667,33472
10668,33728
10669,34240
10670,34432
10671,34048
10672,33536
10673,33280
10674,33408
10675,33472
10676,33472
10677,33472
10678,33600
10679,33664
10680,33728
10681,33792
10682,33920
10683,33984
10684,33984
10685,33984
10686,34048
10687,34112
10688,34048
10689,33984
10690,34048
10691,34048
10692,34048
10693,33984
10694,34048
10695,34112
10696,34112
10697,34048
10698,34048
10699,34112
10700,33984
10701,33920
10702,33856
10703,33984
10704,34112
10705,34176
10706,34304
10707,34560
10708,34624
10709,34560
10710,34560
10711,34560
10712,34560
10713,34368
10714,34240
10715,34176
10716,34048
10717,33856
10718,33664
10719,33600
10720,33664
10721,33728
10722,33728
10723,33792
10724,33920
10725,33856
10726,33728
10727,33664
10728,33728
10729,33856
10730,33792
10731,33792
10732,33856
10733,33920
10734,33792
10735,33600
10736,33408
10737,33280
10738,33280
10739,33920
10740,35648
10741,38080
10742,40256
10743,41536
10744,41472
10745,39360
10746,36160
10747,33728
10748,32000
10749,31296
10750,31104
10751,31296
10752,31744
10753,32384
10754,32960
10755,33408
10756,33536
10757,33600
10758,33664
10759,33664
10760,33600
10761,33728
10762,33920
10763,33856
10764,33792
10765,33792
10766,33856
10767,33856
10768,33792
10769,33856
10770,33920
10771,33920
10772,34112
10773,34368
10774,34560
10775,34368
10776,34112
10777,33984
10778,33984
10779,33984
10780,33920
10781,33984
10782,34112
10783,34304
10784,34304
10785,34368
10786,34560
10787,34688
10788,34688
10789,34688
10790,34752
10791,34944
10792,34944
10793,34944
10794,35072
10795,35264
10796,35392
10797,35456
10798,35648
10799,36096
10800,36544
10801,36352
10802,35904
10803,35584
10804,35584
10805,35584
10806,35584
10807,35712
10808,35840
10809,35520
10810,35200
10811,34880
10812,34560
10813,34176
10814,33792
10815,33472
10816,33216
10817,32896
10818,32640
10819,32512
10820,32576
10821,32704
10822,32960
10823,33216
10824,33216
10825,33088
10826,32832
10827,32640
10828,32640
10829,32832
10830,32960
10831,32960
10832,33024
10833,33152
10834,33152
10835,33088
10836,33088
10837,33088
10838,33088
10839,33152
10840,33344
10841,33408
10842,33408
10843,33344
10844,33408
10845,33472
10846,33536
10847,33472
10848,33408
10849,33536
10850,33600
10851,33600
10852,33600
10853,33664
10854,33728
10855,33664
10856,33664
10857,33664
10858,33792
10859,33856
10860,33792
10861,33792
10862,33792
10863,33856
10864,33856
10865,33856
10866,33856
10867,33728
10868,33664
10869,33664
10870,33856
10871,33920
10872,33792
10873,33728
10874,33856
10875,33920
10876,33856
10877,33920
10878,33984
10879,33984
10880,33920
10881,33920
10882,33920
10883,33920
10884,33792
10885,33728
10886,33792
10887,33920
10888,33984
10889,33856
10890,33920
10891,33984
10892,33984
10893,33920
10894,33920
10895,33984
10896,34048
10897,33984
10898,33920
10899,33984
10900,34048
10901,33984
10902,33984
10903,34112
10904,34176
10905,34048
10906,33920
10907,33920
10908,33920
10909,33920
10910,33920
10911,34048
10912,34176
10913,34304
10914,34624
10915,34880
10916,35008
10917,34816
10918,34368
10919,34176
10920,34304
10921,34368
10922,34240
10923,34176
10924,34240
