,ECG
0,35712
1,35648
2,35584
3,35520
4,35328
5,35136
6,34880
7,34752
8,34688
9,34496
10,34304
11,34240
12,34176
13,34048
14,33984
15,33984
16,33984
17,34112
18,33984
19,33920
20,33792
21,33536
22,33152
23,33088
24,33600
25,35136
26,37568
27,40704
28,44288
29,47488
30,48960
31,48064
32,45248
33,41856
34,38400
35,35392
36,33024
37,31552
38,30720
39,30336
40,30208
41,30400
42,30656
43,30912
44,31104
45,31424
46,31744
47,31936
48,32192
49,32448
50,32704
51,32896
52,33024
53,33216
54,33408
55,33472
56,33472
57,33600
58,33728
59,33856
60,33984
61,34112
62,34240
63,34304
64,34240
65,34176
66,34240
67,34304
68,34304
69,34240
70,34432
71,34496
72,34560
73,34560
74,34688
75,34816
76,34944
77,34944
78,35072
79,35136
80,35136
81,35136
82,35136
83,35200
84,35200
85,35136
86,35072
87,35008
88,34944
89,34816
90,34688
91,34624
92,34560
93,34432
94,34240
95,34176
96,34112
97,33920
98,33728
99,33664
100,33600
101,33472
102,33280
103,33152
104,33152
105,33088
106,33024
107,33024
108,33152
109,33088
110,33024
111,33088
112,33152
113,33216
114,33152
115,33152
116,33280
117,33344
118,33344
119,33280
120,33408
121,33472
122,33536
123,33600
124,33792
125,33984
126,33984
127,33984
128,34048
129,34176
130,34112
131,34048
132,34112
133,34240
134,34240
135,34176
136,34176
137,34240
138,34304
139,34304
140,34240
141,34240
142,34240
143,34176
144,34176
145,34240
146,34304
147,34304
148,34240
149,34304
150,34368
151,34304
152,34240
153,34240
154,34240
155,34176
156,34048
157,34112
158,34240
159,34240
160,34112
161,34112
162,34112
163,34112
164,34048
165,34048
166,34176
167,34176
168,34112
169,34048
170,34048
171,34112
172,34048
173,34048
174,34048
175,34176
176,34112
177,34048
178,34048
179,34048
180,34048
181,34048
182,34048
183,34176
184,34112
185,33984
186,33984
187,34048
188,34112
189,34112
190,34112
191,34176
192,34240
193,34176
194,34176
195,34240
196,34240
197,34112
198,33984
199,34048
200,34048
201,34048
202,34048
203,34112
204,34240
205,34240
206,34176
207,34240
208,34432
209,34496
210,34496
211,34624
212,34816
213,35008
214,35136
215,35200
216,35328
217,35328
218,35136
219,34816
220,34560
221,34368
222,34176
223,33920
224,33728
225,33600
226,33472
227,33344
228,33280
229,33344
230,33344
231,33344
232,33344
233,33472
234,33344
235,33024
236,32704
237,32640
238,33024
239,34304
240,36672
241,40256
242,43328
243,46464
244,48192
245,47680
246,45248
247,41856
248,38336
249,35328
250,33024
251,31424
252,30400
253,30016
254,29952
255,30016
256,30144
257,30400
258,30848
259,31168
260,31424
261,31680
262,31936
263,32192
264,32384
265,32576
266,32768
267,32960
268,33088
269,33216
270,33344
271,33472
272,33536
273,33600
274,33728
275,33792
276,33856
277,33856
278,33984
279,34176
280,34240
281,34240
282,34304
283,34432
284,34496
285,34496
286,34560
287,34752
288,34816
289,34880
290,34880
291,35008
292,35072
293,35072
294,35136
295,35200
296,35328
297,35200
298,35136
299,35136
300,35072
301,34944
302,34752
303,34688
304,34624
305,34560
306,34432
307,34368
308,34368
309,34240
310,34112
311,33984
312,33920
313,33728
314,33472
315,33280
316,33152
317,33088
318,32960
319,32896
320,32832
321,32832
322,32768
323,32768
324,32832
325,32960
326,32960
327,32960
328,33024
329,33152
330,33216
331,33216
332,33280
333,33344
334,33408
335,33408
336,33472
337,33600
338,33728
339,33728
340,33728
341,33856
342,33920
343,33920
344,33920
345,33984
346,34048
347,33984
348,33920
349,34048
350,34176
351,34240
352,34176
353,34240
354,34304
355,34240
356,34176
357,34176
358,34176
359,34176
360,34112
361,34048
362,34112
363,34112
364,34048
365,34048
366,34112
367,34112
368,34048
369,34048
370,34048
371,34112
372,34048
373,33984
374,33920
375,33984
376,33984
377,33920
378,33984
379,34048
380,33984
381,33920
382,33920
383,34048
384,34048
385,33920
386,33984
387,34048
388,34176
389,34176
390,34176
391,34240
392,34304
393,34304
394,34368
395,34496
396,34624
397,34752
398,34816
399,34944
400,35072
401,35072
402,34944
403,34816
404,34624
405,34304
406,34048
407,33920
408,33856
409,33728
410,33536
411,33408
412,33408
413,33344
414,33280
415,33280
416,33408
417,33472
418,33344
419,33280
420,33152
421,32896
422,32576
423,32448
424,33088
425,34688
426,37184
427,40320
428,44160
429,47104
430,48128
431,46976
432,44160
433,40960
434,37632
435,34560
436,32384
437,31232
438,30528
439,30144
440,30080
441,30272
442,30528
443,30784
444,30976
445,31360
446,31680
447,31936
448,32064
449,32384
450,32640
451,32768
452,32832
453,32960
454,33152
455,33216
456,33280
457,33408
458,33664
459,33728
460,33792
461,33856
462,34048
463,34112
464,34112
465,34176
466,34240
467,34368
468,34432
469,34496
470,34624
471,34752
472,34816
473,34816
474,35008
475,35136
476,35136
477,35200
478,35264
479,35392
480,35392
481,35392
482,35456
483,35520
484,35520
485,35392
486,35200
487,35136
488,35072
489,34944
490,34816
491,34752
492,34688
493,34560
494,34304
495,34176
496,34048
497,33856
498,33664
499,33536
500,33408
501,33280
502,33088
503,32960
504,32960
505,32896
506,32768
507,32704
508,32832
509,32832
510,32832
511,32832
512,32960
513,33024
514,33024
515,33024
516,33152
517,33216
518,33216
519,33280
520,33344
521,33472
522,33472
523,33472
524,33600
525,33664
526,33728
527,33664
528,33728
529,33856
530,33920
531,33856
532,33920
533,34048
534,34112
535,34112
536,34112
537,34176
538,34112
539,34048
540,34048
541,34112
542,34112
543,34048
544,33984
545,34048
546,34112
547,34048
548,33984
549,34048
550,34112
551,34048
552,33984
553,33984
554,34048
555,34048
556,34048
557,34048
558,34176
559,34176
560,34112
561,34048
562,34112
563,34112
564,34048
565,33984
566,33984
567,34048
568,33984
569,33984
570,34048
571,34048
572,34048
573,33984
574,34048
575,34176
576,34240
577,34176
578,34112
579,34176
580,34304
581,34368
582,34432
583,34624
584,34816
585,34880
586,34944
587,35136
588,35136
589,35072
590,34880
591,34688
592,34496
593,34240
594,34048
595,33920
596,33728
597,33536
598,33344
599,33280
600,33280
601,33280
602,33216
603,33280
604,33408
605,33408
606,33408
607,33280
608,33024
609,32704
610,32576
611,33024
612,34560
613,36992
614,40000
615,43520
616,46592
617,48064
618,47104
619,44416
620,41152
621,37888
622,34944
623,32640
624,31296
625,30592
626,30208
627,30080
628,30208
629,30528
630,30784
631,30976
632,31296
633,31616
634,31872
635,32064
636,32256
637,32512
638,32704
639,32832
640,32896
641,33088
642,33280
643,33344
644,33344
645,33536
646,33664
647,33728
648,33792
649,33920
650,34048
651,34112
652,34176
653,34304
654,34432
655,34432
656,34432
657,34560
658,34688
659,34816
660,34816
661,34816
662,34944
663,35072
664,35072
665,35072
666,35136
667,35200
668,35200
669,35136
670,35200
671,35200
672,35072
673,35008
674,34944
675,34944
676,34816
677,34688
678,34624
679,34624
680,34496
681,34304
682,34176
683,34048
684,33920
685,33728
686,33536
687,33472
688,33280
689,33088
690,32960
691,32960
692,32896
693,32832
694,32768
695,32832
696,32896
697,32896
698,32832
699,32896
700,33088
701,33088
702,33088
703,33152
704,33344
705,33408
706,33472
707,33536
708,33664
709,33728
710,33664
711,33664
712,33792
713,33920
714,33920
715,33920
716,34048
717,34112
718,34112
719,34048
720,34112
721,34176
722,34176
723,34176
724,34240
725,34304
726,34304
727,34240
728,34240
729,34304
730,34368
731,34304
732,34304
733,34368
734,34304
735,34240
736,34240
737,34304
738,34304
739,34240
740,34176
741,34240
742,34304
743,34176
744,34112
745,34176
746,34240
747,34176
748,34112
749,34176
750,34240
751,34176
752,34112
753,34112
754,34176
755,34176
756,34176
757,34176
758,34240
759,34176
760,34112
761,34112
762,34176
763,34240
764,34112
765,34112
766,34176
767,34240
768,34176
769,34112
770,34176
771,34240
772,34240
773,34240
774,34304
775,34368
776,34368
777,34368
778,34432
779,34560
780,34688
781,34688
782,34752
783,34880
784,35072
785,35136
786,35200
787,35264
788,35200
789,34944
790,34688
791,34496
792,34432
793,34240
794,33984
795,33792
796,33664
797,33536
798,33408
799,33344
800,33344
801,33408
802,33408
803,33536
804,33600
805,33600
806,33344
807,33024
808,32832
809,32960
810,33792
811,35776
812,38464
813,41920
814,45312
815,47680
816,48128
817,46272
818,42496
819,39744
820,36544
821,34048
822,32192
823,30976
824,30400
825,30208
826,30208
827,30336
828,30528
829,30912
830,31232
831,31488
832,31744
833,32064
834,32320
835,32448
836,32640
837,32832
838,33024
839,33152
840,33280
841,33408
842,33536
843,33600
844,33664
845,33728
846,33856
847,33920
848,33920
849,33984
850,34112
851,34176
852,34240
853,34304
854,34432
855,34496
856,34496
857,34624
858,34752
859,34880
860,34880
861,34944
862,35072
863,35136
864,35136
865,35072
866,35136
867,35200
868,35200
869,35136
870,35136
871,35072
872,35008
873,34880
874,34816
875,34752
876,34624
877,34496
878,34368
879,34304
880,34240
881,34048
882,33856
883,33792
884,33664
885,33472
886,33344
887,33344
888,33408
889,33344
890,33152
891,32960
892,32768
893,32640
894,32576
895,32512
896,32640
897,32640
898,32704
899,32832
900,33024
901,33152
902,33216
903,33344
904,33472
905,33536
906,33536
907,33600
908,33728
909,33728
910,33728
911,33792
912,33856
913,33920
914,33920
915,33920
916,33920
917,33920
918,33856
919,33856
920,33920
921,33984
922,34048
923,34048
924,34112
925,34112
926,34112
927,34048
928,34048
929,34112
930,34112
931,33984
932,33984
933,34048
934,34048
935,34048
936,33984
937,34048
938,34048
939,33920
940,33856
941,33856
942,33920
943,33856
944,33728
945,33792
946,33856
947,33856
948,33792
949,33856
950,33920
951,33920
952,33856
953,33920
954,33920
955,33920
956,33856
957,33792
958,33792
959,33792
960,33728
961,33664
962,33728
963,33728
964,33728
965,33664
966,33664
967,33728
968,33664
969,33600
970,33664
971,33664
972,33600
973,33536
974,33600
975,33664
976,33664
977,33664
978,33664
979,33792
980,33792
981,33728
982,33664
983,33728
984,33792
985,33856
986,33920
987,34048
988,34176
989,34304
990,34368
991,34560
992,34624
993,34560
994,34304
995,34048
996,33856
997,33664
998,33408
999,33216
1000,33024
1001,32896
1002,32704
1003,32640
1004,32576
1005,32576
1006,32448
1007,32512
1008,32576
1009,32640
1010,32576
1011,32320
1012,32000
1013,31744
1014,31936
1015,32896
1016,35072
1017,37888
1018,41216
1019,44416
1020,46592
1021,46592
1022,44480
1023,41344
1024,38080
1025,35072
1026,32640
1027,30848
1028,29760
1029,29440
1030,29248
1031,29248
1032,29376
1033,29632
1034,29888
1035,30144
1036,30400
1037,30656
1038,30912
1039,31104
1040,31296
1041,31488
1042,31744
1043,31872
1044,32000
1045,32128
1046,32256
1047,32320
1048,32320
1049,32448
1050,32576
1051,32704
1052,32704
1053,32768
1054,32832
1055,32896
1056,32896
1057,32960
1058,33152
1059,33152
1060,33152
1061,33216
1062,33344
1063,33472
1064,33472
1065,33472
1066,33600
1067,33728
1068,33792
1069,33856
1070,33920
1071,33984
1072,33920
1073,33856
1074,33856
1075,33856
1076,33728
1077,33600
1078,33472
1079,33408
1080,33280
1081,33152
1082,33088
1083,33024
1084,32960
1085,32832
1086,32640
1087,32576
1088,32448
1089,32320
1090,32128
1091,32064
1092,31936
1093,31808
1094,31552
1095,31488
1096,31424
1097,31360
1098,31360
1099,31360
1100,31488
1101,31488
1102,31424
1103,31552
1104,31616
1105,31680
1106,31680
1107,31744
1108,31872
1109,31936
1110,31936
1111,31936
1112,32064
1113,32128
1114,32128
1115,32192
1116,32256
1117,32384
1118,32384
1119,32384
1120,32384
1121,32448
1122,32448
1123,32448
1124,32512
1125,32576
1126,32576
1127,32576
1128,32576
1129,32704
1130,32768
1131,32704
1132,32704
1133,32832
1134,32832
1135,32768
1136,32768
1137,32832
1138,32896
1139,32896
1140,32832
1141,32832
1142,32896
1143,32832
1144,32832
1145,32832
1146,32896
1147,32832
1148,32768
1149,32768
1150,32832
1151,32832
1152,32832
1153,32832
1154,32896
1155,32896
1156,32896
1157,32832
1158,32896
1159,32960
1160,32896
1161,32896
1162,32960
1163,32960
1164,32960
1165,32960
1166,32960
1167,33024
1168,33024
1169,32960
1170,33024
1171,33152
1172,33216
1173,33216
1174,33280
1175,33344
1176,33408
1177,33472
1178,33664
1179,33664
1180,33792
1181,33856
1182,33920
1183,34112
1184,34240
1185,34240
1186,34176
1187,34048
1188,33856
1189,33600
1190,33408
1191,33280
1192,33088
1193,32768
1194,32640
1195,32576
1196,32512
1197,32512
1198,32512
1199,32576
1200,32704
1201,32768
1202,32768
1203,32704
1204,32512
1205,32256
1206,32000
1207,32128
1208,33152
1209,35200
1210,37952
1211,41280
1212,44608
1213,46848
1214,46976
1215,44928
1216,41920
1217,38784
1218,35648
1219,33152
1220,31424
1221,30400
1222,29888
1223,29568
1224,29632
1225,29888
1226,30144
1227,30336
1228,30592
1229,30976
1230,31232
1231,31488
1232,31744
1233,32000
1234,32256
1235,32384
1236,32576
1237,32768
1238,32960
1239,33024
1240,33088
1241,33280
1242,33408
1243,33472
1244,33536
1245,33600
1246,33728
1247,33792
1248,33856
1249,33984
1250,34112
1251,34176
1252,34240
1253,34432
1254,34496
1255,34560
1256,34624
1257,34688
1258,34816
1259,34944
1260,34944
1261,35008
1262,35072
1263,35136
1264,35200
1265,35200
1266,35264
1267,35328
1268,35200
1269,35136
1270,35136
1271,35072
1272,34944
1273,34752
1274,34688
1275,34624
1276,34496
1277,34368
1278,34304
1279,34240
1280,34112
1281,33856
1282,33664
1283,33472
1284,33408
1285,33216
1286,33088
1287,33024
1288,32960
1289,32832
1290,32768
1291,32768
1292,32832
1293,32896
1294,32832
1295,32960
1296,33088
1297,33152
1298,33152
1299,33280
1300,33408
1301,33472
1302,33472
1303,33472
1304,33600
1305,33664
1306,33728
1307,33792
1308,33856
1309,33984
1310,33984
1311,33984
1312,34112
1313,34176
1314,34240
1315,34240
1316,34368
1317,34432
1318,34432
1319,34368
1320,34432
1321,34496
1322,34496
1323,34496
1324,34496
1325,34560
1326,34560
1327,34496
1328,34560
1329,34560
1330,34624
1331,34560
1332,34560
1333,34624
1334,34624
1335,34560
1336,34560
1337,34560
1338,34624
1339,34560
1340,34496
1341,34496
1342,34560
1343,34496
1344,34496
1345,34496
1346,34560
1347,34560
1348,34432
1349,34496
1350,34560
1351,34560
1352,34432
1353,34432
1354,34496
1355,34560
1356,34496
1357,34496
1358,34560
1359,34624
1360,34560
1361,34560
1362,34624
1363,34624
1364,34560
1365,34496
1366,34496
1367,34560
1368,34560
1369,34496
1370,34560
1371,34624
1372,34624
1373,34624
1374,34624
1375,34688
1376,34752
1377,34752
1378,34752
1379,34880
1380,34880
1381,34816
1382,34944
1383,35072
1384,35200
1385,35264
1386,35264
1387,35456
1388,35584
1389,35648
1390,35648
1391,35584
1392,35456
1393,35200
1394,34944
1395,34816
1396,34752
1397,34560
1398,34368
1399,34176
1400,34112
1401,33984
1402,33920
1403,33920
1404,34048
1405,34048
1406,34112
1407,34112
1408,34048
1409,33856
1410,33408
1411,33216
1412,33536
1413,34752
1414,36928
1415,39872
1416,43328
1417,46720
1418,48576
1419,48256
1420,45952
1421,42816
1422,39424
1423,36288
1424,33856
1425,32256
1426,31232
1427,30720
1428,30592
1429,30720
1430,30912
1431,31168
1432,31424
1433,31808
1434,32128
1435,32384
1436,32576
1437,32832
1438,33088
1439,33216
1440,33280
1441,33408
1442,33600
1443,33792
1444,33856
1445,33984
1446,34112
1447,34240
1448,34240
1449,34304
1450,34496
1451,34560
1452,34560
1453,34624
1454,34752
1455,34816
1456,34880
1457,34944
1458,35072
1459,35200
1460,35200
1461,35264
1462,35392
1463,35456
1464,35520
1465,35456
1466,35584
1467,35648
1468,35712
1469,35712
1470,35776
1471,35776
1472,35712
1473,35584
1474,35520
1475,35584
1476,35456
1477,35328
1478,35136
1479,35136
1480,35072
1481,34880
1482,34752
1483,34688
1484,34624
1485,34432
1486,34240
1487,34112
1488,33984
1489,33792
1490,33536
1491,33472
1492,33408
1493,33280
1494,33152
1495,33088
1496,33152
1497,33216
1498,33152
1499,33216
1500,33280
1501,33344
1502,33344
1503,33408
1504,33536
1505,33664
1506,33664
1507,33728
1508,33792
1509,33920
1510,33920
1511,33920
1512,34048
1513,34112
1514,34112
1515,34176
1516,34240
1517,34368
1518,34368
1519,34368
1520,34432
1521,34496
1522,34560
1523,34496
1524,34496
1525,34624
1526,34624
1527,34560
1528,34560
1529,34624
1530,34624
1531,34560
1532,34560
1533,34560
1534,34560
1535,34560
1536,34496
1537,34560
1538,34560
1539,34496
1540,34432
1541,34432
1542,34496
1543,34432
1544,34368
1545,34368
1546,34432
1547,34368
1548,34304
1549,34304
1550,34368
1551,34304
1552,34304
1553,34304
1554,34368
1555,34368
1556,34368
1557,34304
1558,34304
1559,34304
1560,34240
1561,34176
1562,34240
1563,34304
1564,34304
1565,34240
1566,34304
1567,34368
1568,34304
1569,34304
1570,34304
1571,34304
1572,34304
1573,34240
1574,34240
1575,34304
1576,34304
1577,34240
1578,34240
1579,34304
1580,34304
1581,34240
1582,34240
1583,34304
1584,34368
1585,34368
1586,34368
1587,34432
1588,34496
1589,34432
1590,34432
1591,34560
1592,34688
1593,34752
1594,34816
1595,34944
1596,35136
1597,35264
1598,35264
1599,35264
1600,35264
1601,35008
1602,34752
1603,34496
1604,34432
1605,34304
1606,34048
1607,33856
1608,33728
1609,33600
1610,33472
1611,33408
1612,33472
1613,33536
1614,33600
1615,33600
1616,33600
1617,33536
1618,33152
1619,32768
1620,32704
1621,33280
1622,34816
1623,37248
1624,40384
1625,44032
1626,47040
1627,48384
1628,47424
1629,44736
1630,41408
1631,38016
1632,34880
1633,32768
1634,31360
1635,30464
1636,30080
1637,30016
1638,30208
1639,30464
1640,30656
1641,30976
1642,31360
1643,31616
1644,31872
1645,32128
1646,32384
1647,32576
1648,32704
1649,32896
1650,33088
1651,33216
1652,33280
1653,33344
1654,33536
1655,33664
1656,33728
1657,33792
1658,33920
1659,34048
1660,34048
1661,34112
1662,34176
1663,34304
1664,34368
1665,34368
1666,34496
1667,34624
1668,34624
1669,34688
1670,34752
1671,34944
1672,35008
1673,35072
1674,35136
1675,35264
1676,35328
1677,35328
1678,35328
1679,35328
1680,35392
1681,35264
1682,35200
1683,35200
1684,35136
1685,35008
1686,34816
1687,34752
1688,34688
1689,34560
1690,34432
1691,34368
1692,34304
1693,34176
1694,33984
1695,33792
1696,33664
1697,33536
1698,33280
1699,33152
1700,33024
1701,32896
1702,32768
1703,32704
1704,32704
1705,32704
1706,32704
1707,32704
1708,32832
1709,32896
1710,32960
1711,32960
1712,33024
1713,33152
1714,33152
1715,33216
1716,33280
1717,33408
1718,33472
1719,33472
1720,33536
1721,33664
1722,33728
1723,33728
1724,33792
1725,33920
1726,33984
1727,33920
1728,33920
1729,34048
1730,34048
1731,34048
1732,34112
1733,34176
1734,34240
1735,34176
1736,34176
1737,34240
1738,34240
1739,34240
1740,34240
1741,34240
1742,34304
1743,34304
1744,34240
1745,34304
1746,34368
1747,34368
1748,34304
1749,34240
1750,34304
1751,34240
1752,34176
1753,34176
1754,34176
1755,34112
1756,34048
1757,34048
1758,34112
1759,34048
1760,34048
1761,34048
1762,34048
1763,34048
1764,33984
1765,34048
1766,34048
1767,34112
1768,34048
1769,34112
1770,34176
1771,34112
1772,34048
1773,34112
1774,34176
1775,34176
1776,34112
1777,34112
1778,34240
1779,34240
1780,34176
1781,34112
1782,34176
1783,34240
1784,34112
1785,34048
1786,34112
1787,34048
1788,34112
1789,34112
1790,34176
1791,34240
1792,34304
1793,34368
1794,34304
1795,34304
1796,34176
1797,34176
1798,34176
1799,34240
1800,34240
1801,34240
1802,34368
1803,34496
1804,34624
1805,34752
1806,34880
1807,35072
1808,35264
1809,35328
1810,35328
1811,35328
1812,35136
1813,34880
1814,34688
1815,34560
1816,34496
1817,34304
1818,33984
1819,33856
1820,33792
1821,33664
1822,33536
1823,33536
1824,33600
1825,33664
1826,33664
1827,33664
1828,33600
1829,33280
1830,32896
1831,32768
1832,33216
1833,34688
1834,37120
1835,40192
1836,43840
1837,47040
1838,48640
1839,47936
1840,45440
1841,42112
1842,38592
1843,35392
1844,33024
1845,31488
1846,31168
1847,30592
1848,30080
1849,30272
1850,30464
1851,30656
1852,30976
1853,31296
1854,31616
1855,31808
1856,32000
1857,32320
1858,32576
1859,32704
1860,32896
1861,32832
1862,33280
1863,33408
1864,33472
1865,33600
1866,33728
1867,33856
1868,33856
1869,33984
1870,34048
1871,34112
1872,34176
1873,34240
1874,34432
1875,34496
1876,34496
1877,34560
1878,34688
1879,34816
1880,34816
1881,34880
1882,35008
1883,35136
1884,35136
1885,35200
1886,35328
1887,35392
1888,35392
1889,35392
1890,35456
1891,35520
1892,35456
1893,35392
1894,35328
1895,35328
1896,35200
1897,35072
1898,34944
1899,34880
1900,34816
1901,34688
1902,34560
1903,34496
1904,34368
1905,34176
1906,33984
1907,33856
1908,33728
1909,33472
1910,33280
1911,33216
1912,33152
1913,33024
1914,32960
1915,32960
1916,32960
1917,32896
1918,32768
1919,32768
1920,32896
1921,32960
1922,32960
1923,33024
1924,33216
1925,33280
1926,33280
1927,33344
1928,33472
1929,33536
1930,33536
1931,33600
1932,33664
1933,33728
1934,33728
1935,33728
1936,33856
1937,33920
1938,33920
1939,33920
1940,34048
1941,34112
1942,34176
1943,34112
1944,34176
1945,34240
1946,34240
1947,34176
1948,34176
1949,34240
1950,34240
1951,34176
1952,34112
1953,34240
1954,34304
1955,34240
1956,34176
1957,34176
1958,34176
1959,34112
1960,34048
1961,34048
1962,34112
1963,34112
1964,34112
1965,34112
1966,34176
1967,34176
1968,34048
1969,33984
1970,34048
1971,34048
1972,33984
1973,33984
1974,34048
1975,34048
1976,33984
1977,33984
1978,34048
1979,34048
1980,33984
1981,33920
1982,33984
1983,33984
1984,33920
1985,33856
1986,33920
1987,33920
1988,33856
1989,33792
1990,33856
1991,33984
1992,33920
1993,33856
1994,33856
1995,33920
1996,33920
1997,33792
1998,33792
1999,33792
2000,33792
2001,33792
2002,33792
2003,33856
2004,33856
2005,33792
2006,33792
2007,33856
2008,33920
2009,33920
2010,33856
2011,33856
2012,33920
2013,34048
2014,34176
2015,34432
2016,34816
2017,35008
2018,35072
2019,35072
2020,35008
2021,34688
2022,34368
2023,34048
2024,33856
2025,33600
2026,33344
2027,33088
2028,32960
2029,32832
2030,32768
2031,32704
2032,32768
2033,32896
2034,32832
2035,32832
2036,32832
2037,32576
2038,32128
2039,31808
2040,32064
2041,33088
2042,35200
2043,38016
2044,41536
2045,44992
2046,47360
2047,47424
2048,45376
2049,42304
2050,38848
2051,35520
2052,32832
2053,31104
2054,30080
2055,29440
2056,29184
2057,29312
2058,29504
2059,29696
2060,29888
2061,30208
2062,30528
2063,30784
2064,30976
2065,31232
2066,31488
2067,31616
2068,31744
2069,31936
2070,32128
2071,32320
2072,32384
2073,32576
2074,32704
2075,32768
2076,32768
2077,32832
2078,32960
2079,33024
2080,33024
2081,33088
2082,33216
2083,33344
2084,33344
2085,33408
2086,33536
2087,33664
2088,33728
2089,33728
2090,33856
2091,33984
2092,34048
2093,34048
2094,34176
2095,34304
2096,34368
2097,34304
2098,34304
2099,34368
2100,34368
2101,34240
2102,34176
2103,34176
2104,34112
2105,33984
2106,33856
2107,33792
2108,33728
2109,33600
2110,33472
2111,33408
2112,33344
2113,33152
2114,32960
2115,32768
2116,32640
2117,32448
2118,32256
2119,32128
2120,32128
2121,32000
2122,31808
2123,31744
2124,31744
2125,31808
2126,31744
2127,31808
2128,31936
2129,32000
2130,32064
2131,32064
2132,32192
2133,32320
2134,32320
2135,32384
2136,32448
2137,32576
2138,32576
2139,32576
2140,32640
2141,32768
2142,32768
2143,32832
2144,32896
2145,33024
2146,33088
2147,33088
2148,33152
2149,33216
2150,33280
2151,33216
2152,33216
2153,33344
2154,33344
2155,33344
2156,33344
2157,33344
2158,33408
2159,33344
2160,33280
2161,33344
2162,33408
2163,33408
2164,33344
2165,33408
2166,33408
2167,33408
2168,33344
2169,33280
2170,33344
2171,33280
2172,33216
2173,33280
2174,33344
2175,33344
2176,33216
2177,33216
2178,33280
2179,33344
2180,33280
2181,33280
2182,33344
2183,33408
2184,33344
2185,33280
2186,33344
2187,33344
2188,33344
2189,33280
2190,33344
2191,33472
2192,33472
2193,33408
2194,33408
2195,33408
2196,33344
2197,33280
2198,33280
2199,33408
2200,33472
2201,33408
2202,33408
2203,33472
2204,33472
2205,33408
2206,33408
2207,33472
2208,33536
2209,33536
2210,33536
2211,33536
2212,33600
2213,33536
2214,33472
2215,33536
2216,33664
2217,33728
2218,33728
2219,33664
2220,33728
2221,33792
2222,33856
2223,34048
2224,34432
2225,34752
2226,34944
2227,35008
2228,34944
2229,34752
2230,34432
2231,34176
2232,33984
2233,33856
2234,33600
2235,33408
2236,33344
2237,33280
2238,33216
2239,33088
2240,33152
2241,33280
2242,33280
2243,33344
2244,33344
2245,33216
2246,32832
2247,32448
2248,32448
2249,33216
2250,35136
2251,37760
2252,41024
2253,44608
2254,47360
2255,48064
2256,46400
2257,43456
2258,40128
2259,36800
2260,34112
2261,32192
2262,31040
2263,30336
2264,30016
2265,30016
2266,30272
2267,30464
2268,30656
2269,30976
2270,31360
2271,31616
2272,31808
2273,32000
2274,32256
2275,32512
2276,32640
2277,32768
2278,32960
2279,33088
2280,33216
2281,33344
2282,33472
2283,33664
2284,33728
2285,33792
2286,33920
2287,34048
2288,34112
2289,34176
2290,34240
2291,34368
2292,34432
2293,34496
2294,34560
2295,34752
2296,34816
2297,34880
2298,34944
2299,35072
2300,35200
2301,35264
2302,35328
2303,35456
2304,35520
2305,35584
2306,35520
2307,35520
2308,35584
2309,35520
2310,35456
2311,35456
2312,35392
2313,35200
2314,35008
2315,34944
2316,34880
2317,34752
2318,34624
2319,34560
2320,34496
2321,34368
2322,34176
2323,34048
2324,33920
2325,33792
2326,33600
2327,33408
2328,33408
2329,33344
2330,33280
2331,33216
2332,33152
2333,33088
2334,33024
2335,33024
2336,33216
2337,33280
2338,33280
2339,33216
2340,33344
2341,33408
2342,33472
2343,33536
2344,33600
2345,33728
2346,33792
2347,33792
2348,33856
2349,34048
2350,34112
2351,34112
2352,34176
2353,34304
2354,34368
2355,34368
2356,34304
2357,34368
2358,34496
2359,34496
2360,34496
2361,34560
2362,34624
2363,34624
2364,34624
2365,34688
2366,34752
2367,34752
2368,34688
2369,34688
2370,34752
2371,34688
2372,34688
2373,34688
2374,34752
2375,34688
2376,34624
2377,34560
2378,34624
2379,34624
2380,34560
2381,34560
2382,34560
2383,34560
2384,34560
2385,34560
2386,34560
2387,34624
2388,34624
2389,34560
2390,34560
2391,34624
2392,34624
2393,34560
2394,34496
2395,34560
2396,34496
2397,34432
2398,34432
2399,34496
2400,34496
2401,34432
2402,34432
2403,34496
2404,34560
2405,34560
2406,34496
2407,34560
2408,34496
2409,34496
2410,34432
2411,34432
2412,34496
2413,34496
2414,34496
2415,34496
2416,34560
2417,34560
2418,34496
2419,34560
2420,34624
2421,34624
2422,34560
2423,34560
2424,34624
2425,34624
2426,34496
2427,34560
2428,34752
2429,35008
2430,35264
2431,35584
2432,35840
2433,36032
2434,35904
2435,35712
2436,35456
2437,35200
2438,34816
2439,34560
2440,34304
2441,34176
2442,34048
2443,33920
2444,33856
2445,33856
2446,33792
2447,33728
2448,33728
2449,33856
2450,33856
2451,33664
2452,33280
2453,33024
2454,33088
2455,33792
2456,35584
2457,38272
2458,41664
2459,45248
2460,47936
2461,48832
2462,47552
2463,44608
2464,41152
2465,37696
2466,34880
2467,32768
2468,31424
2469,30656
2470,30400
2471,30400
2472,30464
2473,30656
2474,31040
2475,31360
2476,31616
2477,31872
2478,32192
2479,32384
2480,32512
2481,32704
2482,32960
2483,33152
2484,33280
2485,33408
2486,33600
2487,33728
2488,33792
2489,33856
2490,33920
2491,34112
2492,34176
2493,34240
2494,34304
2495,34432
2496,34496
2497,34496
2498,34624
2499,34752
2500,34816
2501,34880
2502,34944
2503,35136
2504,35264
2505,35264
2506,35264
2507,35328
2508,35456
2509,35456
2510,35456
2511,35584
2512,35648
2513,35648
2514,35584
2515,35584
2516,35648
2517,35584
2518,35456
2519,35392
2520,35328
2521,35264
2522,35136
2523,35008
2524,35008
2525,34944
2526,34816
2527,34624
2528,34496
2529,34240
2530,34048
2531,33792
2532,33664
2533,33472
2534,33344
2535,33216
2536,33152
2537,33088
2538,33024
2539,32960
2540,32960
2541,33088
2542,33088
2543,33216
2544,33280
2545,33408
2546,33344
2547,33344
2548,33408
2549,33600
2550,33664
2551,33600
2552,33600
2553,33728
2554,33792
2555,33792
2556,33856
2557,33984
2558,34112
2559,34176
2560,34176
2561,34240
2562,34304
2563,34304
2564,34304
2565,34368
2566,34368
2567,34304
2568,34240
2569,34304
2570,34432
2571,34560
2572,34560
2573,34496
2574,34432
2575,34368
2576,34240
2577,34176
2578,34304
2579,34432
2580,34560
2581,34560
2582,34560
2583,34560
2584,34560
2585,34496
2586,34560
2587,34624
2588,34496
2589,34368
2590,34304
2591,34368
2592,34304
2593,34240
2594,34304
2595,34432
2596,34432
2597,34368
2598,34432
2599,34560
2600,34560
2601,34560
2602,34432
2603,34432
2604,34240
2605,34112
2606,34112
2607,34240
2608,34304
2609,34176
2610,34240
2611,34368
2612,34432
2613,34368
2614,34240
2615,34240
2616,34368
2617,34368
2618,34304
2619,34432
2620,34624
2621,34688
2622,34496
2623,34496
2624,34560
2625,34560
2626,34368
2627,34240
2628,34304
2629,34368
2630,34368
2631,34368
2632,34432
2633,34624
2634,34816
2635,35008
2636,35392
2637,35648
2638,35648
2639,35328
2640,35072
2641,34944
2642,34816
2643,34560
2644,34304
2645,34112
2646,33920
2647,33728
2648,33536
2649,33600
2650,33600
2651,33536
2652,33536
2653,33664
2654,33728
2655,33536
2656,33024
2657,32640
2658,32576
2659,33088
2660,34496
2661,36992
2662,40128
2663,43968
2664,46848
2665,48512
2666,47872
2667,45120
2668,41664
2669,38336
2670,35584
2671,33280
2672,31616
2673,30656
2674,30336
2675,30272
2676,30272
2677,30464
2678,30784
2679,31104
2680,31232
2681,31360
2682,31616
2683,31936
2684,32192
2685,32512
2686,32768
2687,33024
2688,33216
2689,33280
2690,33216
2691,33280
2692,33408
2693,33536
2694,33600
2695,33792
2696,33920
2697,33856
2698,33856
2699,34048
2700,34304
2701,34368
2702,34368
2703,34432
2704,34432
2705,34368
2706,34368
2707,34432
2708,34688
2709,34816
2710,34944
2711,34944
2712,34944
2713,35008
2714,35072
2715,35136
2716,35264
2717,35264
2718,35264
2719,35264
2720,35264
2721,35200
2722,35072
2723,34944
2724,34880
2725,34752
2726,34624
2727,34496
2728,34432
2729,34368
2730,34240
2731,34112
2732,34048
2733,33984
2734,33728
2735,33472
2736,33344
2737,33216
2738,33088
2739,32896
2740,32768
2741,32768
2742,32640
2743,32512
2744,32576
2745,32768
2746,32960
2747,32960
2748,32960
2749,32960
2750,32960
2751,32960
2752,33024
2753,33152
2754,33216
2755,33280
2756,33280
2757,33408
2758,33472
2759,33472
2760,33536
2761,33728
2762,33920
2763,33920
2764,33856
2765,33984
2766,34112
2767,34112
2768,34048
2769,34048
2770,34112
2771,34112
2772,33984
2773,34048
2774,34304
2775,34432
2776,34368
2777,34176
2778,34240
2779,34048
2780,33856
2781,33920
2782,33984
2783,34048
2784,34240
2785,34304
2786,34240
2787,34304
2788,34240
2789,34112
2790,34048
2791,34112
2792,34176
2793,34112
2794,34048
2795,34048
2796,34176
2797,34368
2798,34688
2799,34304
2800,33792
2801,33664
2802,33792
2803,33984
2804,34112
2805,34048
2806,34112
2807,34240
2808,34304
2809,34240
2810,34048
2811,33984
2812,33984
2813,33984
2814,33984
2815,33984
2816,34176
2817,34304
2818,34240
2819,33984
2820,33856
2821,33856
2822,33856
2823,33984
2824,34112
2825,34176
2826,34112
2827,33984
2828,34112
2829,34240
2830,34240
2831,34176
2832,34240
2833,34496
2834,34560
2835,34432
2836,34432
2837,34880
2838,35200
2839,35328
2840,35392
2841,35328
2842,35072
2843,34752
2844,34624
2845,34560
2846,34368
2847,34112
2848,33856
2849,33728
2850,33536
2851,33344
2852,33408
2853,33472
2854,33536
2855,33472
2856,33536
2857,33600
2858,33344
2859,33024
2860,32640
2861,32832
2862,33856
2863,35840
2864,38592
2865,42112
2866,45760
2867,47808
2868,47872
2869,45824
2870,42752
2871,39488
2872,36352
2873,33600
2874,32192
2875,31232
2876,30656
2877,30400
2878,30464
2879,30656
2880,30720
2881,30784
2882,31104
2883,31488
2884,31744
2885,32000
2886,32320
2887,32640
2888,32768
2889,32768
2890,33152
2891,33472
2892,33408
2893,33280
2894,33280
2895,33344
2896,33472
2897,33536
2898,33664
2899,33920
2900,34048
2901,34048
2902,34048
2903,34240
2904,34432
2905,34560
2906,34560
2907,34496
2908,34432
2909,34432
2910,34496
2911,34752
2912,35072
2913,35136
2914,35136
2915,35136
2916,35328
2917,35328
2918,35264
2919,35264
2920,35392
2921,35392
2922,35200
2923,35072
2924,35008
2925,35072
2926,35008
2927,34880
2928,34880
2929,35008
2930,34816
2931,34560
2932,34432
2933,34368
2934,34304
2935,34048
2936,33984
2937,33920
2938,33536
2939,33152
2940,33152
2941,33280
2942,32960
2943,32640
2944,32640
2945,32768
2946,32768
2947,32704
2948,32704
2949,32832
2950,32960
2951,32960
2952,33024
2953,33280
2954,33408
2955,33280
2956,33152
2957,33344
2958,33536
2959,33600
2960,33536
2961,33600
2962,33792
2963,33792
2964,33728
2965,33792
2966,34048
2967,34176
2968,33984
2969,34112
2970,34240
2971,34112
2972,34112
2973,34176
2974,34240
2975,34304
2976,34240
2977,34240
2978,34368
2979,34496
2980,34432
2981,34240
2982,34240
2983,34304
2984,34304
2985,34240
2986,34368
2987,34368
2988,34304
2989,34304
2990,34368
2991,34368
2992,34368
2993,34176
2994,34048
2995,34240
2996,34368
2997,34304
2998,34112
2999,34176
3000,34304
3001,34240
3002,34176
3003,34240
3004,34304
3005,34240
3006,34240
3007,34304
3008,34496
3009,34368
3010,34112
3011,34112
3012,34176
3013,34176
3014,34176
3015,34304
3016,34432
3017,34304
3018,34112
3019,34176
3020,34240
3021,34304
3022,34112
3023,34048
3024,34240
3025,34304
3026,34368
3027,34304
3028,34432
3029,34432
3030,34432
3031,34304
3032,34240
3033,34304
3034,34112
3035,34112
3036,34176
3037,34368
3038,34624
3039,34752
3040,35072
3041,35328
3042,35456
3043,35392
3044,35136
3045,34944
3046,34880
3047,34688
3048,34432
3049,34368
3050,34368
3051,34240
3052,34176
3053,34048
3054,33856
3055,33536
3056,33408
3057,33600
3058,33728
3059,33664
3060,33600
3061,33408
3062,33152
3063,32896
3064,33024
3065,33984
3066,36032
3067,38848
3068,43200
3069,45696
3070,48064
3071,48256
3072,46208
3073,43200
3074,39872
3075,36672
3076,33984
3077,32064
3078,31040
3079,30400
3080,30080
3081,30080
3082,30400
3083,30784
3084,30912
3085,31232
3086,31680
3087,32128
3088,32384
3089,32384
3090,32512
3091,32768
3092,32960
3093,33024
3094,33088
3095,33216
3096,33344
3097,33408
3098,33536
3099,33664
3100,33792
3101,33792
3102,33984
3103,34112
3104,34112
3105,34112
3106,34240
3107,34368
3108,34496
3109,34432
3110,34496
3111,34688
3112,34816
3113,35008
3114,35200
3115,35200
3116,35200
3117,35072
3118,35072
3119,35200
3120,35328
3121,35328
3122,35520
3123,35456
3124,35264
3125,35200
3126,35200
3127,35264
3128,35328
3129,35200
3130,34944
3131,34688
3132,34688
3133,34688
3134,34496
3135,34368
3136,34496
3137,34368
3138,34176
3139,33664
3140,33216
3141,33216
3142,33280
3143,32896
3144,32640
3145,32704
3146,32832
3147,32768
3148,32704
3149,32704
3150,32768
3151,32768
3152,32832
3153,32960
3154,33024
3155,32896
3156,32832
3157,33152
3158,33344
3159,33216
3160,33088
3161,33280
3162,33472
3163,33536
3164,33536
3165,33600
3166,33664
3167,33792
3168,33792
3169,33792
3170,33792
3171,33856
3172,33728
3173,33792
3174,33920
3175,34048
3176,33984
3177,33984
3178,34048
3179,34240
3180,34304
3181,34304
3182,34304
3183,34240
3184,34112
3185,34176
3186,34240
3187,34304
3188,34304
3189,34240
3190,34304
3191,34304
3192,34240
3193,34112
3194,34176
3195,34176
3196,34176
3197,34176
3198,34240
3199,34112
3200,33984
3201,33920
3202,33920
3203,33984
3204,34048
3205,34112
3206,34112
3207,34176
3208,34240
3209,34304
3210,34304
3211,34304
3212,34368
3213,34240
3214,34240
3215,34176
3216,34112
3217,33984
3218,33984
3219,34048
3220,34240
3221,34304
3222,34176
3223,34176
3224,34240
3225,34240
3226,34048
3227,33984
3228,34048
3229,34176
3230,34240
3231,34112
3232,33984
3233,34112
3234,34112
3235,34048
3236,34112
3237,34176
3238,34176
3239,34112
3240,34176
3241,34304
3242,34304
3243,34240
3244,34304
3245,34368
3246,34368
3247,34240
3248,34112
3249,34176
3250,34368
3251,34560
3252,34816
3253,35072
3254,35264
3255,35136
3256,34944
3257,34752
3258,34688
3259,34560
3260,34368
3261,34304
3262,34496
3263,34432
3264,33920
3265,33664
3266,33536
3267,33536
3268,33664
3269,33856
3270,33920
3271,33728
3272,33536
3273,33216
3274,32896
3275,32768
3276,33024
3277,34304
3278,38336
3279,39872
3280,43520
3281,46784
3282,48576
3283,48128
3284,45696
3285,42368
3286,38592
3287,35904
3288,33536
3289,31808
3290,30784
3291,30464
3292,30272
3293,30144
3294,30272
3295,30592
3296,30848
3297,31104
3298,31424
3299,31808
3300,32128
3301,32384
3302,32576
3303,32512
3304,32640
3305,32896
3306,33088
3307,33344
3308,33664
3309,33728
3310,33728
3311,33728
3312,33856
3313,33920
3314,33984
3315,34048
3316,34112
3317,34048
3318,33984
3319,34112
3320,34432
3321,34560
3322,34496
3323,34688
3324,34752
3325,34752
3326,34560
3327,34560
3328,34752
3329,35072
3330,35328
3331,35392
3332,35392
3333,35392
3334,35328
3335,35264
3336,35328
3337,35392
3338,35264
3339,35200
3340,35072
3341,35008
3342,34880
3343,34688
3344,34560
3345,34560
3346,34560
3347,34432
3348,34304
3349,34240
3350,34112
3351,33856
3352,33600
3353,33408
3354,33280
3355,33088
3356,32896
3357,32896
3358,32960
3359,32896
3360,32704
3361,32640
3362,32768
3363,32768
3364,32768
3365,32896
3366,32896
3367,32896
3368,32832
3369,32960
3370,33152
3371,33408
3372,33472
3373,33408
3374,33472
3375,33600
3376,33600
3377,33664
3378,33856
3379,33920
3380,33792
3381,33728
3382,33792
3383,33984
3384,33984
3385,33920
3386,33984
3387,34176
3388,34304
3389,34176
3390,34112
3391,34048
3392,34048
3393,34048
3394,34176
3395,34304
3396,34176
3397,34176
3398,34240
3399,34368
3400,34304
3401,34240
3402,34240
3403,34304
3404,34432
3405,34368
3406,34176
3407,34112
3408,34240
3409,34368
3410,34432
3411,34304
3412,34112
3413,33984
3414,33920
3415,33920
3416,34048
3417,34112
3418,34048
3419,34176
3420,34240
3421,34304
3422,34240
3423,34176
3424,34112
3425,34048
3426,34048
3427,34048
3428,34048
3429,34048
3430,34048
3431,34048
3432,34176
3433,34240
3434,34176
3435,34112
3436,34112
3437,34176
3438,34176
3439,34112
3440,34176
3441,34304
3442,34304
3443,34048
3444,33984
3445,34176
3446,34304
3447,34240
3448,34240
3449,34304
3450,34432
3451,34368
3452,34240
3453,34240
3454,34240
3455,34176
3456,34112
3457,34112
3458,34176
3459,34112
3460,34176
3461,34368
3462,34624
3463,34880
3464,34944
3465,35008
3466,35200
3467,35008
3468,34560
3469,34304
3470,34304
3471,34240
3472,34112
3473,33984
3474,33920
3475,33920
3476,33792
3477,33728
3478,33728
3479,33728
3480,33664
3481,33600
3482,33664
3483,33664
3484,33408
3485,33024
3486,32832
3487,33024
3488,34048
3489,36224
3490,39104
3491,42688
3492,46016
3493,48000
3494,48064
3495,46016
3496,42816
3497,39296
3498,36096
3499,33600
3500,31872
3501,30848
3502,30272
3503,30016
3504,30016
3505,30208
3506,30464
3507,30848
3508,31296
3509,31680
3510,31808
3511,32064
3512,32320
3513,32384
3514,32512
3515,32704
3516,32960
3517,33152
3518,33152
3519,33280
3520,33472
3521,33600
3522,33600
3523,33664
3524,33792
3525,33856
3526,33856
3527,33920
3528,33984
3529,33984
3530,34112
3531,34304
3532,34560
3533,34752
3534,34688
3535,34624
3536,34688
3537,34816
3538,34816
3539,34880
3540,34944
3541,35072
3542,35072
3543,35072
3544,35136
3545,35264
3546,35328
3547,35200
3548,35136
3549,35136
3550,35200
3551,35200
3552,35008
3553,35008
3554,35008
3555,34944
3556,34752
3557,34496
3558,34240
3559,34048
3560,33920
3561,33856
3562,33792
3563,33600
3564,33344
3565,33152
3566,33024
3567,32896
3568,32704
3569,32768
3570,32704
3571,32640
3572,32512
3573,32576
3574,32704
3575,32832
3576,32768
3577,32768
3578,32832
3579,32768
3580,33024
3581,33088
3582,33216
3583,33152
3584,33088
3585,33216
3586,33216
3587,33472
3588,33600
3589,33664
3590,33600
3591,33600
3592,33792
3593,33728
3594,33792
3595,33920
3596,33920
3597,33920
3598,33984
3599,34048
3600,33984
3601,34048
3602,34176
3603,34176
3604,34112
3605,34048
3606,34048
3607,34176
3608,34240
3609,34176
3610,34304
3611,34432
3612,34176
3613,33920
3614,33920
3615,33984
3616,33984
3617,33920
3618,33920
3619,34048
3620,34176
3621,34048
3622,34048
3623,34048
3624,34048
3625,33984
3626,33920
3627,34048
3628,34048
3629,34048
3630,33984
3631,34048
3632,33984
3633,33856
3634,33920
3635,34048
3636,34240
3637,34112
3638,33984
3639,33856
3640,33856
3641,33920
3642,33920
3643,33920
3644,34048
3645,34112
3646,34048
3647,34048
3648,34112
3649,34176
3650,34048
3651,33984
3652,33984
3653,34048
3654,34048
3655,34048
3656,34112
3657,34176
3658,34112
3659,34112
3660,34176
3661,34240
3662,34176
3663,34048
3664,33984
3665,33984
3666,34048
3667,34112
3668,34368
3669,34624
3670,34944
3671,34944
3672,34944
3673,35072
3674,34944
3675,34624
3676,34304
3677,34240
3678,34112
3679,33920
3680,33792
3681,33728
3682,33664
3683,33536
3684,33472
3685,33472
3686,33472
3687,33472
3688,33536
3689,33600
3690,33600
3691,33472
3692,33088
3693,32704
3694,32768
3695,33472
3696,35328
3697,37952
3698,41216
3699,44608
3700,47104
3701,47680
3702,46016
3703,43072
3704,39808
3705,36480
3706,34112
3707,32256
3708,31104
3709,30400
3710,30208
3711,30208
3712,30144
3713,30208
3714,30464
3715,30848
3716,31232
3717,31488
3718,31744
3719,32000
3720,32192
3721,32320
3722,32448
3723,32704
3724,32896
3725,33024
3726,33152
3727,33344
3728,33536
3729,33536
3730,33536
3731,33600
3732,33728
3733,33792
3734,33792
3735,33920
3736,34048
3737,34048
3738,34176
3739,34240
3740,34368
3741,34496
3742,34432
3743,34560
3744,34752
3745,34880
3746,34880
3747,34944
3748,35008
3749,35072
3750,35072
3751,35072
3752,35200
3753,35264
3754,35264
3755,35200
3756,35200
3757,35200
3758,35136
3759,35008
3760,34880
3761,34816
3762,34752
3763,34624
3764,34560
3765,34496
3766,34368
3767,34112
3768,33984
3769,33856
3770,33664
3771,33408
3772,33216
3773,33152
3774,33088
3775,32896
3776,32768
3777,32704
3778,32768
3779,32704
3780,32640
3781,32640
3782,32704
3783,32768
3784,32832
3785,32960
3786,33088
3787,33152
3788,33152
3789,33216
3790,33280
3791,33408
3792,33408
3793,33472
3794,33600
3795,33664
3796,33728
3797,33664
3798,33856
3799,33920
3800,33984
3801,34048
3802,34112
3803,34176
3804,34112
3805,34112
3806,34112
3807,34240
3808,34240
3809,34304
3810,34368
3811,34432
3812,34432
3813,34432
3814,34560
3815,34624
3816,34624
3817,34560
3818,34496
3819,34560
3820,34560
3821,34496
3822,34560
3823,34560
3824,34560
3825,34432
3826,34368
3827,34432
3828,34496
3829,34432
3830,34368
3831,34432
3832,34432
3833,34432
3834,34368
3835,34368
3836,34432
3837,34432
3838,34368
3839,34368
3840,34432
3841,34432
3842,34368
3843,34368
3844,34432
3845,34432
3846,34368
3847,34368
3848,34432
3849,34432
3850,34368
3851,34304
3852,34368
3853,34496
3854,34688
3855,35008
3856,35392
3857,35648
3858,35776
3859,35584
3860,35392
3861,35200
3862,34944
3863,34688
3864,34496
3865,34304
3866,33984
3867,33600
3868,33408
3869,33344
3870,33344
3871,33344
3872,33408
3873,33536
3874,33600
3875,33664
3876,33600
3877,33408
3878,33024
3879,32640
3880,32640
3881,33472
3882,35392
3883,38016
3884,41152
3885,44608
3886,46848
3887,47168
3888,45248
3889,42176
3890,39040
3891,36160
3892,33856
3893,32192
3894,31232
3895,30720
3896,30464
3897,30400
3898,30656
3899,30912
3900,31104
3901,31360
3902,31680
3903,32000
3904,32192
3905,32320
3906,32576
3907,32768
3908,32960
3909,33088
3910,33216
3911,33408
3912,33472
3913,33536
3914,33600
3915,33792
3916,33920
3917,33984
3918,34048
3919,34112
3920,34176
3921,34176
3922,34240
3923,34432
3924,34560
3925,34624
3926,34688
3927,34752
3928,34880
3929,34944
3930,35008
3931,35072
3932,35264
3933,35328
3934,35328
3935,35392
3936,35520
3937,35584
3938,35584
3939,35520
3940,35584
3941,35520
3942,35456
3943,35264
3944,35200
3945,35136
3946,35008
3947,34880
3948,34880
3949,34816
3950,34624
3951,34496
3952,34368
3953,34240
3954,33984
3955,33728
3956,33536
3957,33408
3958,33216
3959,33024
3960,32896
3961,32832
3962,32768
3963,32640
3964,32640
3965,32704
3966,32704
3967,32704
3968,32768
3969,32896
3970,32896
3971,32896
3972,32960
3973,33088
3974,33216
3975,33280
3976,33280
3977,33408
3978,33536
3979,33600
3980,33600
3981,33664
3982,33792
3983,33792
3984,33792
3985,33856
3986,33920
3987,33984
3988,33984
3989,33984
3990,34048
3991,34176
3992,34112
3993,34112
3994,34240
3995,34240
3996,34240
3997,34240
3998,34304
3999,34368
4000,34368
4001,34368
4002,34368
4003,34432
4004,34432
4005,34432
4006,34432
4007,34496
4008,34432
4009,34368
4010,34368
4011,34368
4012,34368
4013,34304
4014,34304
4015,34304
4016,34368
4017,34240
4018,34240
4019,34304
4020,34304
4021,34240
4022,34176
4023,34176
4024,34240
4025,34176
4026,34112
4027,34176
4028,34240
4029,34240
4030,34176
4031,34240
4032,34304
4033,34304
4034,34176
4035,34176
4036,34240
4037,34240
4038,34176
4039,34176
4040,34240
4041,34240
4042,34240
4043,34176
4044,34240
4045,34368
4046,34368
4047,34304
4048,34304
4049,34304
4050,34304
4051,34432
4052,34624
4053,34944
4054,35264
4055,35456
4056,35584
4057,35520
4058,35328
4059,35008
4060,34816
4061,34688
4062,34496
4063,34240
4064,34048
4065,33984
4066,33856
4067,33664
4068,33600
4069,33664
4070,33664
4071,33664
4072,33664
4073,33728
4074,33664
4075,33408
4076,33024
4077,32896
4078,33280
4079,34432
4080,36672
4081,39616
4082,43072
4083,46272
4084,48064
4085,47680
4086,45376
4087,42176
4088,38656
4089,35712
4090,33472
4091,31872
4092,30912
4093,30464
4094,30336
4095,30400
4096,30592
4097,30784
4098,31168
4099,31488
4100,31680
4101,31936
4102,32256
4103,32512
4104,32640
4105,32768
4106,32896
4107,33088
4108,33216
4109,33216
4110,33344
4111,33536
4112,33664
4113,33728
4114,33792
4115,33984
4116,34048
4117,34112
4118,34176
4119,34304
4120,34368
4121,34368
4122,34432
4123,34560
4124,34688
4125,34752
4126,34752
4127,34880
4128,34944
4129,35008
4130,35008
4131,35072
4132,35200
4133,35264
4134,35264
4135,35328
4136,35456
4137,35456
4138,35392
4139,35264
4140,35328
4141,35264
4142,35136
4143,35008
4144,34944
4145,34880
4146,34752
4147,34624
4148,34624
4149,34560
4150,34368
4151,34176
4152,34048
4153,33920
4154,33664
4155,33408
4156,33216
4157,33152
4158,32960
4159,32832
4160,32704
4161,32704
4162,32704
4163,32704
4164,32704
4165,32832
4166,32896
4167,32896
4168,32960
4169,33088
4170,33152
4171,33152
4172,33216
4173,33280
4174,33408
4175,33408
4176,33408
4177,33536
4178,33664
4179,33728
4180,33728
4181,33792
4182,33920
4183,33920
4184,33920
4185,33984
4186,34048
4187,34048
4188,34048
4189,34112
4190,34240
4191,34240
4192,34240
4193,34176
4194,34240
4195,34304
4196,34304
4197,34240
4198,34304
4199,34368
4200,34368
4201,34304
4202,34368
4203,34368
4204,34368
4205,34304
4206,34304
4207,34304
4208,34304
4209,34240
4210,34176
4211,34240
4212,34304
4213,34240
4214,34240
4215,34240
4216,34240
4217,34176
4218,34176
4219,34240
4220,34304
4221,34176
4222,34112
4223,34176
4224,34176
4225,34176
4226,34176
4227,34176
4228,34304
4229,34240
4230,34176
4231,34176
4232,34240
4233,34240
4234,34176
4235,34176
4236,34176
4237,34176
4238,34112
4239,34112
4240,34176
4241,34176
4242,34176
4243,34176
4244,34240
4245,34368
4246,34304
4247,34240
4248,34240
4249,34176
4250,34176
4251,34304
4252,34560
4253,34880
4254,35136
4255,35328
4256,35392
4257,35392
4258,35200
4259,34880
4260,34688
4261,34560
4262,34368
4263,34112
4264,33920
4265,33856
4266,33792
4267,33664
4268,33536
4269,33600
4270,33600
4271,33536
4272,33536
4273,33600
4274,33600
4275,33344
4276,32960
4277,32832
4278,33216
4279,34432
4280,36608
4281,39552
4282,43008
4283,46208
4284,48000
4285,47680
4286,45376
4287,42176
4288,38784
4289,35712
4290,33344
4291,31680
4292,30656
4293,30144
4294,30080
4295,30208
4296,30400
4297,30656
4298,30976
4299,31296
4300,31552
4301,31744
4302,32000
4303,32320
4304,32512
4305,32640
4306,32768
4307,33024
4308,33152
4309,33216
4310,33344
4311,33536
4312,33600
4313,33664
4314,33728
4315,33856
4316,33920
4317,33984
4318,34048
4319,34176
4320,34240
4321,34304
4322,34304
4323,34432
4324,34560
4325,34560
4326,34560
4327,34688
4328,34816
4329,34880
4330,34880
4331,35008
4332,35136
4333,35200
4334,35200
4335,35200
4336,35328
4337,35264
4338,35200
4339,35200
4340,35200
4341,35200
4342,35072
4343,34880
4344,34880
4345,34880
4346,34752
4347,34560
4348,34432
4349,34368
4350,34240
4351,33984
4352,33856
4353,33792
4354,33600
4355,33344
4356,33152
4357,33024
4358,32832
4359,32640
4360,32576
4361,32512
4362,32512
4363,32448
4364,32512
4365,32640
4366,32704
4367,32704
4368,32768
4369,32896
4370,33024
4371,33024
4372,33088
4373,33152
4374,33280
4375,33344
4376,33344
4377,33408
4378,33536
4379,33536
4380,33536
4381,33600
4382,33728
4383,33728
4384,33728
4385,33728
4386,33856
4387,33856
4388,33856
4389,33856
4390,33984
4391,33984
4392,33920
4393,33856
4394,33920
4395,34048
4396,33984
4397,33984
4398,34048
4399,34112
4400,34048
4401,33984
4402,33984
4403,34048
4404,34048
4405,33984
4406,33984
4407,34048
4408,33984
4409,33920
4410,33920
4411,33920
4412,33920
4413,33856
4414,33792
4415,33856
4416,33856
4417,33856
4418,33792
4419,33792
4420,33856
4421,33792
4422,33728
4423,33792
4424,33856
4425,33856
4426,33856
4427,33856
4428,33856
4429,33792
4430,33728
4431,33728
4432,33792
4433,33792
4434,33728
4435,33728
4436,33792
4437,33856
4438,33792
4439,33792
4440,33856
4441,33856
4442,33792
4443,33792
4444,33792
4445,33856
4446,33856
4447,33792
4448,33856
4449,33856
4450,33792
4451,33664
4452,33664
4453,33728
4454,33856
4455,33984
4456,34240
4457,34496
4458,34688
4459,34688
4460,34624
4461,34560
4462,34368
4463,34176
4464,34048
4465,33984
4466,33856
4467,33600
4468,33408
4469,33280
4470,33216
4471,33088
4472,33024
4473,33024
4474,33152
4475,33152
4476,33152
4477,33088
4478,32896
4479,32576
4480,32256
4481,32384
4482,33216
4483,35136
4484,37824
4485,41152
4486,44544
4487,47104
4488,47552
4489,45888
4490,42944
4491,39552
4492,36288
4493,33472
4494,31616
4495,30464
4496,29824
4497,29568
4498,29568
4499,29760
4500,30016
4501,30208
4502,30528
4503,30912
4504,31168
4505,31360
4506,31616
4507,31872
4508,32128
4509,32256
4510,32384
4511,32512
4512,32640
4513,32768
4514,32832
4515,32960
4516,33088
4517,33216
4518,33216
4519,33408
4520,33536
4521,33600
4522,33664
4523,33728
4524,33856
4525,33920
4526,33920
4527,33984
4528,34112
4529,34176
4530,34240
4531,34304
4532,34432
4533,34560
4534,34560
4535,34624
4536,34752
4537,34816
4538,34880
4539,34880
4540,34944
4541,34944
4542,34880
4543,34816
4544,34816
4545,34752
4546,34624
4547,34560
4548,34496
4549,34432
4550,34304
4551,34176
4552,34112
4553,34048
4554,33856
4555,33600
4556,33408
4557,33280
4558,33152
4559,32896
4560,32704
4561,32640
4562,32576
4563,32448
4564,32320
4565,32320
4566,32384
4567,32320
4568,32320
4569,32384
4570,32512
4571,32576
4572,32576
4573,32704
4574,32832
4575,32896
4576,32896
4577,33024
4578,33152
4579,33216
4580,33152
4581,33216
4582,33280
4583,33344
4584,33344
4585,33408
4586,33536
4587,33664
4588,33664
4589,33664
4590,33728
4591,33856
4592,33792
4593,33792
4594,33856
4595,33920
4596,33920
4597,33920
4598,33984
4599,34048
4600,34048
4601,34048
4602,34048
4603,34112
4604,34112
4605,34112
4606,34112
4607,34176
4608,34176
4609,34112
4610,34048
4611,34112
4612,34112
4613,34048
4614,33984
4615,34048
4616,34048
4617,33984
4618,33984
4619,33984
4620,34048
4621,33984
4622,33920
4623,33984
4624,34048
4625,33984
4626,33920
4627,33984
4628,34112
4629,34112
4630,34048
4631,34048
4632,34048
4633,34112
4634,34048
4635,33984
4636,34048
4637,34048
4638,34048
4639,34048
4640,34112
4641,34112
4642,34112
4643,34048
4644,34112
4645,34176
4646,34112
4647,34112
4648,34112
4649,34176
4650,34240
4651,34176
4652,34176
4653,34304
4654,34368
4655,34304
4656,34240
4657,34304
4658,34304
4659,34176
4660,34112
4661,34240
4662,34432
4663,34560
4664,34624
4665,34816
4666,35072
4667,35072
4668,35008
4669,34880
4670,34816
4671,34688
4672,34560
4673,34496
4674,34432
4675,34304
4676,34176
4677,34112
4678,34112
4679,34048
4680,33984
4681,33984
4682,34048
4683,34112
4684,34048
4685,33920
4686,33728
4687,33408
4688,33152
4689,33408
4690,34624
4691,36928
4692,39808
4693,43264
4694,46528
4695,48576
4696,48320
4697,46016
4698,42880
4699,39488
4700,36352
4701,33856
4702,32128
4703,31040
4704,30656
4705,30464
4706,30592
4707,30848
4708,31104
4709,31360
4710,31616
4711,31936
4712,32256
4713,32448
4714,32640
4715,32896
4716,33152
4717,33280
4718,33408
4719,33536
4720,33728
4721,33792
4722,33856
4723,33984
4724,34176
4725,34240
4726,34304
4727,34368
4728,34496
4729,34560
4730,34560
4731,34560
4732,34688
4733,34752
4734,34752
4735,34816
4736,34944
4737,35008
4738,35072
4739,35136
4740,35264
4741,35392
4742,35392
4743,35456
4744,35520
4745,35648
4746,35648
4747,35648
4748,35712
4749,35712
4750,35648
4751,35584
4752,35520
4753,35456
4754,35392
4755,35264
4756,35136
4757,35136
4758,35072
4759,34880
4760,34752
4761,34688
4762,34560
4763,34304
4764,34112
4765,33984
4766,33856
4767,33664
4768,33472
4769,33408
4770,33344
4771,33280
4772,33088
4773,33088
4774,33088
4775,33088
4776,33024
4777,33088
4778,33216
4779,33280
4780,33280
4781,33344
4782,33408
4783,33536
4784,33600
4785,33664
4786,33792
4787,33920
4788,33920
4789,33920
4790,33984
4791,34048
4792,34048
4793,34112
4794,34112
4795,34240
4796,34240
4797,34240
4798,34304
4799,34368
4800,34432
4801,34432
4802,34432
4803,34496
4804,34496
4805,34496
4806,34496
4807,34560
4808,34624
4809,34560
4810,34496
4811,34560
4812,34624
4813,34560
4814,34560
4815,34496
4816,34560
4817,34560
4818,34496
4819,34496
4820,34496
4821,34432
4822,34432
4823,34432
4824,34432
4825,34432
4826,34368
4827,34368
4828,34432
4829,34432
4830,34304
4831,34304
4832,34368
4833,34432
4834,34368
4835,34368
4836,34368
4837,34432
4838,34368
4839,34368
4840,34432
4841,34432
4842,34432
4843,34368
4844,34368
4845,34368
4846,34368
4847,34368
4848,34368
4849,34432
4850,34432
4851,34368
4852,34368
4853,34432
4854,34368
4855,34368
4856,34304
4857,34368
4858,34368
4859,34368
4860,34368
4861,34368
4862,34432
4863,34368
4864,34432
4865,34496
4866,34496
4867,34432
4868,34304
4869,34304
4870,34304
4871,34240
4872,34240
4873,34432
4874,34560
4875,34688
4876,34816
4877,35008
4878,35136
4879,35072
4880,34816
4881,34688
4882,34624
4883,34560
4884,34432
4885,34240
4886,34176
4887,34048
4888,33984
4889,33856
4890,33856
4891,33792
4892,33728
4893,33728
4894,33728
4895,33856
4896,33728
4897,33408
4898,33024
4899,32896
4900,33152
4901,34304
4902,36544
4903,39552
4904,43072
4905,46272
4906,48256
4907,48064
4908,45888
4909,42624
4910,39168
4911,36032
4912,33600
4913,31872
4914,30784
4915,30336
4916,30208
4917,30208
4918,30336
4919,30656
4920,30976
4921,31232
4922,31424
4923,31680
4924,32000
4925,32192
4926,32320
4927,32512
4928,32768
4929,32896
4930,33024
4931,33152
4932,33344
4933,33472
4934,33536
4935,33600
4936,33728
4937,33856
4938,33856
4939,33856
4940,33984
4941,34112
4942,34112
4943,34176
4944,34240
4945,34368
4946,34432
4947,34432
4948,34496
4949,34624
4950,34688
4951,34688
4952,34752
4953,34880
4954,34944
4955,35008
4956,35008
4957,35136
4958,35200
4959,35136
4960,35072
4961,35072
4962,35072
4963,34944
4964,34816
4965,34816
4966,34752
4967,34624
4968,34496
4969,34368
4970,34368
4971,34240
4972,34048
4973,33920
4974,33856
4975,33728
4976,33472
4977,33280
4978,33152
4979,32960
4980,32768
4981,32576
4982,32512
4983,32512
4984,32448
4985,32384
4986,32384
4987,32512
4988,32512
4989,32512
4990,32640
4991,32768
4992,32832
4993,32832
4994,32896
4995,33024
4996,33088
4997,33152
4998,33152
4999,33280
5000,33344
5001,33280
5002,33344
5003,33472
5004,33472
5005,33536
5006,33536
5007,33664
5008,33728
5009,33728
5010,33664
5011,33728
5012,33856
5013,33792
5014,33792
5015,33856
5016,33920
5017,33920
5018,33920
5019,33920
5020,34048
5021,34048
5022,33984
5023,33984
5024,34048
5025,34112
5026,34048
5027,33984
5028,34048
5029,34048
5030,33984
5031,33984
5032,34048
5033,34048
5034,33984
5035,33920
5036,33984
5037,34048
5038,33984
5039,33920
5040,33920
5041,33984
5042,33984
5043,33920
5044,33920
5045,33984
5046,33984
5047,33920
5048,33920
5049,33984
5050,33984
5051,33920
5052,33856
5053,33920
5054,33920
5055,33920
5056,33856
5057,33920
5058,33984
5059,33920
5060,33920
5061,33920
5062,33984
5063,33920
5064,33856
5065,33920
5066,33984
5067,33984
5068,33920
5069,33984
5070,34048
5071,33984
5072,33920
5073,33920
5074,33984
5075,33984
5076,33920
5077,33920
5078,34112
5079,34112
5080,34048
5081,33984
5082,33984
5083,33984
5084,33856
5085,33856
5086,33984
5087,34176
5088,34240
5089,34304
5090,34496
5091,34752
5092,34752
5093,34560
5094,34432
5095,34368
5096,34240
5097,34048
5098,33984
5099,33920
5100,33792
5101,33664
5102,33600
5103,33600
5104,33536
5105,33472
5106,33472
5107,33536
5108,33600
5109,33536
5110,33216
5111,32960
5112,32704
5113,32768
5114,33472
5115,35392
5116,38208
5117,41536
5118,44928
5119,47552
5120,48256
5121,46720
5122,43712
5123,39168
5124,37056
5125,34304
5126,32192
5127,30912
5128,30272
5129,30016
5130,29952
5131,30080
5132,30400
5133,30720
5134,30976
5135,31232
5136,31552
5137,31872
5138,32064
5139,32256
5140,32448
5141,32704
5142,32832
5143,32960
5144,33024
5145,33216
5146,33344
5147,33408
5148,33536
5149,33664
5150,33728
5151,33792
5152,33792
5153,33984
5154,34048
5155,34048
5156,34112
5157,34240
5158,34304
5159,34368
5160,34368
5161,34496
5162,34560
5163,34624
5164,34688
5165,34816
5166,34944
5167,35008
5168,35072
5169,35072
5170,35200
5171,35264
5172,35200
5173,35200
5174,35200
5175,35200
5176,35136
5177,35008
5178,35008
5179,34880
5180,34752
5181,34624
5182,34560
5183,34496
5184,34432
5185,34240
5186,34112
5187,34048
5188,33856
5189,33664
5190,33472
5191,33344
5192,33152
5193,32960
5194,32832
5195,32768
5196,32704
5197,32640
5198,32576
5199,32640
5200,32704
5201,32704
5202,32704
5203,32768
5204,32896
5205,32896
5206,32960
5207,33088
5208,33216
5209,33216
5210,33216
5211,33280
5212,33408
5213,33472
5214,33472
5215,33536
5216,33664
5217,33728
5218,33728
5219,33728
5220,33792
5221,33920
5222,33920
5223,34048
5224,34048
5225,34112
5226,34176
5227,34112
5228,33984
5229,33920
5230,33920
5231,33984
5232,34112
5233,34304
5234,34432
5235,34304
5236,34240
5237,34240
5238,34368
5239,34304
5240,34176
5241,34112
5242,34048
5243,33920
5244,33856
5245,33920
5246,33920
5247,33984
5248,33984
5249,34112
5250,34112
5251,34112
5252,34112
5253,34112
5254,34176
5255,34112
5256,34112
5257,34112
5258,34176
5259,34112
5260,34112
5261,34112
5262,34176
5263,34176
5264,34048
5265,34048
5266,34112
5267,34176
5268,34112
5269,34112
5270,34176
5271,34176
5272,34112
5273,34048
5274,34048
5275,34048
5276,34048
5277,33920
5278,33984
5279,34048
5280,34112
5281,34112
5282,34240
5283,34240
5284,34112
5285,33984
5286,33920
5287,33920
5288,33792
5289,33728
5290,33728
5291,33792
5292,33728
5293,33664
5294,33664
5295,33856
5296,33984
5297,33920
5298,33856
5299,33920
5300,34048
5301,34176
5302,34304
5303,34432
5304,34624
5305,34752
5306,34816
5307,34752
5308,34560
5309,34304
5310,34048
5311,33984
5312,34048
5313,34048
5314,34048
5315,33920
5316,33728
5317,33600
5318,33536
5319,33536
5320,33664
5321,33728
5322,33664
5323,33600
5324,33536
5325,33216
5326,32768
5327,32448
5328,32704
5329,33728
5330,35712
5331,38592
5332,42112
5333,45696
5334,48128
5335,48256
5336,46336
5337,43392
5338,40000
5339,36736
5340,34112
5341,32128
5342,30912
5343,30208
5344,29952
5345,29888
5346,30016
5347,30336
5348,30656
5349,30976
5350,31296
5351,31488
5352,31680
5353,32000
5354,32384
5355,32512
5356,32512
5357,32640
5358,33024
5359,33280
5360,33408
5361,33536
5362,33600
5363,33600
5364,33664
5365,33728
5366,33856
5367,33856
5368,33792
5369,33792
5370,33920
5371,34048
5372,34112
5373,34112
5374,34304
5375,34496
5376,34496
5377,34496
5378,34560
5379,34688
5380,34752
5381,34752
5382,34816
5383,34944
5384,34944
5385,35008
5386,35072
5387,35136
5388,35200
5389,35072
5390,35136
5391,35136
5392,35008
5393,34752
5394,34688
5395,34688
5396,34560
5397,34368
5398,34240
5399,34176
5400,34112
5401,33920
5402,33856
5403,33728
5404,33472
5405,33280
5406,33152
5407,33088
5408,32896
5409,32768
5410,32640
5411,32704
5412,32640
5413,32576
5414,32704
5415,32832
5416,32832
5417,32832
5418,32832
5419,32896
5420,33024
5421,32960
5422,33088
5423,33216
5424,33344
5425,33408
5426,33472
5427,33472
5428,33536
5429,33600
5430,33600
5431,33600
5432,33728
5433,33728
5434,33728
5435,33792
5436,33920
5437,33984
5438,33920
5439,33984
5440,34112
5441,34240
5442,34240
5443,34176
5444,34240
5445,34304
5446,34368
5447,34304
5448,34304
5449,34176
5450,34240
5451,34304
5452,34368
5453,34368
5454,34240
5455,34176
5456,34176
5457,34304
5458,34304
5459,34304
5460,34368
5461,34368
5462,34432
5463,34240
5464,34176
5465,34240
5466,34304
5467,34176
5468,34112
5469,34112
5470,34240
5471,34176
5472,34112
5473,34048
5474,34048
5475,33984
5476,33920
5477,33984
5478,34112
5479,34112
5480,34112
5481,34176
5482,34112
5483,33984
5484,33920
5485,34176
5486,34240
5487,34240
5488,34176
5489,34240
5490,34240
5491,34176
5492,34112
5493,34048
5494,34112
5495,34176
5496,34112
5497,34176
5498,34176
5499,34112
5500,34176
5501,34240
5502,34240
5503,34112
5504,34048
5505,34112
5506,34304
5507,34560
5508,34752
5509,34944
5510,35136
5511,35200
5512,35136
5513,34880
5514,34752
5515,34624
5516,34496
5517,34240
5518,34048
5519,33920
5520,33856
5521,33728
5522,33664
5523,33536
5524,33472
5525,33408
5526,33408
5527,33472
5528,33536
5529,33472
5530,33216
5531,32896
5532,32704
5533,32832
5534,33856
5535,36032
5536,38976
5537,42240
5538,45504
5539,47616
5540,47552
5541,45312
5542,42176
5543,38656
5544,36032
5545,33600
5546,31872
5547,30848
5548,30400
5549,30272
5550,30272
5551,30336
5552,30528
5553,30848
5554,31104
5555,31296
5556,31616
5557,31936
5558,32256
5559,32448
5560,32576
5561,32704
5562,32832
5563,32832
5564,32960
5565,33152
5566,33280
5567,33280
5568,33344
5569,33536
5570,33728
5571,33792
5572,33792
5573,33856
5574,33920
5575,33920
5576,33920
5577,34048
5578,34176
5579,34240
5580,34304
5581,34368
5582,34432
5583,34432
5584,34432
5585,34624
5586,34816
5587,34944
5588,34944
5589,34944
5590,35072
5591,35072
5592,35072
5593,35008
5594,35008
5595,34944
5596,34816
5597,34688
5598,34688
5599,34624
5600,34496
5601,34368
5602,34368
5603,34368
5604,34240
5605,34112
5606,33984
5607,33920
5608,33664
5609,33408
5610,33152
5611,32960
5612,32768
5613,32576
5614,32320
5615,32256
5616,32320
5617,32256
5618,32320
5619,32384
5620,32448
5621,32512
5622,32576
5623,32768
5624,32960
5625,33024
5626,32768
5627,32576
5628,32576
5629,32832
5630,32960
5631,33088
5632,33216
5633,33280
5634,33280
5635,33280
5636,33408
5637,33472
5638,33472
5639,33536
5640,33664
5641,33728
5642,33664
5643,33664
5644,33792
5645,33792
5646,33792
5647,33792
5648,33920
5649,33984
5650,33984
5651,33984
5652,34112
5653,34112
5654,34048
5655,33984
5656,34112
5657,34176
5658,34112
5659,34048
5660,34048
5661,34048
5662,33984
5663,33856
5664,33856
5665,33920
5666,33984
5667,33920
5668,33856
5669,33856
5670,33920
5671,33984
5672,33984
5673,33984
5674,33984
5675,33856
5676,33856
5677,33920
5678,33984
5679,33792
5680,33600
5681,33728
5682,33920
5683,33920
5684,33664
5685,33536
5686,33600
5687,33664
5688,33664
5689,33664
5690,33728
5691,33792
5692,33728
5693,33664
5694,33728
5695,33792
5696,33856
5697,33984
5698,34176
5699,34432
5700,34752
5701,34944
5702,34944
5703,34752
5704,34432
5705,34176
5706,34048
5707,33984
5708,33792
5709,33536
5710,33344
5711,33152
5712,33024
5713,32896
5714,32832
5715,32896
5716,32960
5717,33088
5718,33216
5719,33408
5720,33408
5721,32960
5722,32512
5723,32192
5724,32256
5725,33152
5726,35264
5727,38272
5728,41664
5729,44992
5730,47168
5731,47040
5732,45120
5733,42048
5734,38848
5735,35968
5736,33728
5737,32064
5738,30528
5739,29824
5740,29504
5741,29312
5742,29376
5743,29568
5744,29952
5745,30336
5746,30656
5747,30848
5748,31104
5749,31360
5750,31488
5751,31552
5752,31872
5753,32256
5754,32448
5755,32576
5756,32640
5757,32704
5758,32768
5759,32896
5760,32960
5761,33024
5762,33088
5763,32896
5764,32832
5765,33024
5766,33152
5767,33216
5768,33344
5769,33472
5770,33600
5771,33728
5772,33856
5773,34048
5774,34304
5775,34432
5776,34368
5777,34496
5778,34624
5779,34624
5780,34560
5781,34624
5782,34688
5783,34560
5784,34432
5785,34368
5786,34432
5787,34432
5788,34240
5789,34176
5790,34176
5791,34048
5792,33856
5793,33920
5794,34048
5795,33792
5796,33600
5797,33408
5798,33216
5799,33088
5800,32640
5801,32192
5802,31936
5803,31808
5804,31680
5805,31552
5806,31552
5807,31616
5808,31616
5809,31552
5810,31552
5811,31680
5812,31808
5813,31808
5814,31872
5815,32000
5816,32256
5817,32448
5818,32512
5819,32576
5820,32384
5821,32320
5822,32320
5823,32512
5824,32576
5825,32640
5826,32704
5827,32832
5828,32960
5829,33024
5830,33024
5831,33088
5832,33216
5833,33280
5834,33344
5835,33344
5836,33472
5837,33600
5838,33664
5839,33664
5840,33792
5841,33856
5842,33792
5843,33728
5844,33664
5845,33664
5846,33728
5847,33728
5848,33856
5849,34112
5850,34176
5851,33984
5852,34048
5853,34368
5854,34368
5855,34304
5856,34112
5857,33984
5858,33856
5859,33792
5860,33792
5861,33920
5862,33984
5863,33984
5864,34048
5865,34176
5866,34240
5867,34240
5868,34240
5869,34368
5870,34560
5871,34880
5872,34688
5873,34432
5874,34304
5875,34176
5876,34112
5877,34112
5878,34304
5879,34368
5880,34368
5881,34432
5882,34560
5883,34560
5884,34496
5885,34496
5886,34560
5887,34688
5888,34688
5889,34688
5890,34752
5891,34752
5892,34688
5893,34688
5894,34880
5895,35200
5896,35520
5897,35776
5898,36032
5899,36160
5900,36032
5901,35712
5902,35520
5903,35520
5904,35328
5905,35008
5906,34752
5907,34624
5908,34560
5909,34432
5910,34368
5911,34432
5912,34496
5913,34432
5914,34496
5915,34624
5916,34688
5917,34560
5918,34240
5919,33856
5920,33920
5921,34432
5922,35776
5923,38144
5924,41280
5925,44800
5926,47872
5927,49280
5928,48512
5929,45824
5930,42432
5931,39168
5932,36352
5933,34240
5934,32704
5935,31872
5936,31552
5937,31488
5938,31552
5939,31744
5940,32064
5941,32384
5942,32640
5943,32960
5944,33216
5945,33472
5946,33664
5947,33792
5948,34048
5949,34304
5950,34368
5951,34432
5952,34560
5953,34752
5954,34816
5955,34880
5956,34944
5957,35136
5958,35264
5959,35264
5960,35328
5961,35456
5962,35520
5963,35584
5964,35648
5965,35776
5966,35904
5967,35904
5968,35968
5969,36032
5970,36224
5971,36288
5972,36288
5973,36352
5974,36480
5975,36544
5976,36608
5977,36608
5978,36672
5979,36608
5980,36608
5981,36544
5982,36608
5983,36544
5984,36352
5985,36288
5986,36288
5987,36224
5988,36032
5989,35904
5990,35840
5991,35776
5992,35584
5993,35392
5994,35264
5995,35008
5996,34752
5997,34560
5998,34432
5999,34368
6000,34112
6001,33728
6002,33600
6003,33536
6004,33536
6005,33536
6006,33600
6007,33728
6008,33792
6009,33728
6010,33664
6011,33728
6012,33856
6013,33856
6014,33920
6015,33984
6016,34112
6017,34112
6018,34176
6019,34240
6020,34368
6021,34368
6022,34304
6023,34304
6024,34432
6025,34432
6026,34432
6027,34496
6028,34624
6029,34688
6030,34688
6031,34688
6032,34816
6033,34880
6034,34816
6035,34816
6036,34880
6037,34880
6038,34816
6039,34816
6040,34880
6041,34944
6042,34880
6043,34816
6044,34816
6045,34880
6046,34880
6047,34816
6048,34816
6049,34880
6050,34880
6051,34752
6052,34624
6053,34624
6054,34624
6055,34624
6056,34560
6057,34624
6058,34624
6059,34560
6060,34496
6061,34560
6062,34560
6063,34560
6064,34496
6065,34560
6066,34560
6067,34560
6068,34496
6069,34560
6070,34624
6071,34624
6072,34560
6073,34496
6074,34560
6075,34624
6076,34560
6077,34560
6078,34624
6079,34624
6080,34560
6081,34560
6082,34624
6083,34624
6084,34624
6085,34560
6086,34624
6087,34624
6088,34624
6089,34624
6090,34624
6091,34688
6092,34688
6093,34624
6094,34624
6095,34624
6096,34560
6097,34560
6098,34688
6099,34944
6100,35136
6101,35392
6102,35584
6103,35712
6104,35584
6105,35328
6106,35072
6107,34944
6108,34816
6109,34624
6110,34432
6111,34304
6112,34176
6113,34048
6114,33920
6115,33920
6116,33920
6117,33856
6118,33856
6119,33920
6120,33984
6121,33920
6122,33600
6123,33280
6124,33088
6125,33280
6126,34368
6127,36544
6128,39552
6129,42944
6130,46272
6131,48384
6132,48320
6133,46144
6134,42944
6135,39552
6136,36416
6137,33984
6138,32192
6139,31104
6140,30592
6141,30400
6142,30464
6143,30592
6144,30848
6145,31168
6146,31424
6147,31616
6148,31872
6149,32192
6150,32384
6151,32512
6152,32704
6153,32960
6154,33152
6155,33216
6156,33280
6157,33472
6158,33600
6159,33664
6160,33664
6161,33792
6162,33856
6163,33920
6164,33920
6165,34048
6166,34240
6167,34304
6168,34304
6169,34368
6170,34496
6171,34560
6172,34560
6173,34688
6174,34816
6175,34880
6176,34944
6177,35008
6178,35136
6179,35264
6180,35264
6181,35264
6182,35392
6183,35456
6184,35456
6185,35392
6186,35392
6187,35392
6188,35264
6189,35136
6190,35072
6191,35072
6192,34944
6193,34816
6194,34752
6195,34688
6196,34496
6197,34304
6198,34176
6199,34048
6200,33856
6201,33664
6202,33408
6203,33280
6204,33152
6205,32960
6206,32768
6207,32704
6208,32704
6209,32640
6210,32576
6211,32576
6212,32640
6213,32576
6214,32640
6215,32768
6216,32896
6217,32960
6218,32960
6219,33024
6220,33152
6221,33216
6222,33216
6223,33280
6224,33408
6225,33472
6226,33472
6227,33536
6228,33664
6229,33728
6230,33728
6231,33728
6232,33792
6233,33856
6234,33792
6235,33856
6236,33984
6237,34048
6238,33984
6239,33920
6240,33920
6241,33984
6242,33984
6243,33920
6244,33920
6245,34048
6246,34048
6247,33984
6248,33984
6249,34048
6250,34048
6251,33984
6252,33920
6253,33984
6254,33984
6255,33920
6256,33856
6257,33856
6258,33920
6259,33856
6260,33728
6261,33792
6262,33856
6263,33792
6264,33792
6265,33792
6266,33856
6267,33792
6268,33728
6269,33728
6270,33792
6271,33792
6272,33728
6273,33728
6274,33792
6275,33792
6276,33792
6277,33728
6278,33792
6279,33856
6280,33792
6281,33792
6282,33856
6283,33856
6284,33856
6285,33792
6286,33856
6287,33920
6288,33920
6289,33856
6290,33856
6291,33856
6292,33792
6293,33728
6294,33728
6295,33792
6296,33792
6297,33792
6298,33792
6299,33856
6300,33920
6301,33920
6302,33984
6303,33984
6304,33920
6305,33856
6306,33792
6307,33856
6308,33856
6309,33920
6310,34048
6311,34176
6312,34368
6313,34496
6314,34560
6315,34624
6316,34560
6317,34432
6318,34240
6319,34176
6320,34176
6321,34048
6322,33920
6323,33792
6324,33792
6325,33728
6326,33600
6327,33536
6328,33536
6329,33536
6330,33536
6331,33536
6332,33600
6333,33536
6334,33216
6335,32768
6336,32640
6337,33024
6338,34496
6339,36672
6340,39680
6341,43264
6342,46400
6343,48128
6344,47680
6345,45248
6346,41920
6347,38464
6348,35392
6349,33024
6350,31424
6351,30400
6352,29952
6353,29888
6354,29952
6355,30080
6356,30336
6357,30656
6358,31040
6359,31296
6360,31488
6361,31808
6362,32064
6363,32256
6364,32384
6365,32576
6366,32768
6367,32896
6368,32960
6369,33024
6370,33216
6371,33280
6372,33344
6373,33408
6374,33536
6375,33600
6376,33600
6377,33664
6378,33792
6379,33856
6380,33920
6381,33920
6382,34112
6383,34240
6384,34240
6385,34304
6386,34432
6387,34496
6388,34560
6389,34560
6390,34688
6391,34816
6392,34880
6393,34880
6394,34944
6395,35008
6396,35008
6397,34944
6398,34944
6399,34944
6400,34880
6401,34752
6402,34688
6403,34624
6404,34560
6405,34432
6406,34304
6407,34240
6408,34176
6409,33984
6410,33728
6411,33600
6412,33472
6413,33216
6414,32960
6415,32832
6416,32704
6417,32576
6418,32384
6419,32256
6420,32256
6421,32256
6422,32192
6423,32192
6424,32320
6425,32384
6426,32448
6427,32448
6428,32640
6429,32704
6430,32768
6431,32832
6432,32960
6433,33088
6434,33088
6435,33088
6436,33152
6437,33216
6438,33280
6439,33280
6440,33344
6441,33472
6442,33472
6443,33472
6444,33536
6445,33664
6446,33664
6447,33664
6448,33728
6449,33856
6450,33856
6451,33856
6452,33856
6453,33984
6454,34048
6455,34048
6456,33984
6457,34048
6458,34048
6459,34048
6460,33984
6461,34048
6462,34112
6463,34048
6464,34048
6465,34048
6466,34176
6467,34112
6468,34048
6469,34048
6470,34112
6471,34112
6472,34048
6473,34048
6474,34112
6475,34048
6476,33984
6477,33984
6478,33984
6479,33984
6480,33984
6481,33920
6482,33984
6483,34048
6484,34048
6485,33984
6486,33984
6487,34048
6488,34048
6489,33984
6490,33984
6491,34048
6492,34048
6493,33984
6494,33984
6495,33984
6496,33984
6497,33920
6498,33984
6499,34048
6500,34048
6501,33984
6502,33984
6503,34048
6504,34048
6505,33984
6506,33984
6507,33984
6508,34048
6509,34048
6510,33984
6511,34048
6512,34112
6513,34112
6514,34048
6515,34048
6516,34112
6517,34048
6518,33984
6519,34048
6520,34112
6521,34176
6522,34112
6523,34112
6524,34112
6525,34112
6526,34112
6527,34048
6528,34048
6529,34112
6530,34112
6531,34240
6532,34432
6533,34624
6534,34688
6535,34816
6536,34816
6537,34688
6538,34496
6539,34304
6540,34176
6541,34176
6542,34048
6543,33920
6544,33792
6545,33792
6546,33728
6547,33664
6548,33600
6549,33664
6550,33664
6551,33664
6552,33600
6553,33600
6554,33408
6555,33024
6556,32640
6557,32640
6558,33344
6559,35072
6560,37696
6561,41024
6562,44544
6563,47744
6564,48192
6565,46848
6566,44032
6567,40640
6568,37248
6569,34432
6570,32384
6571,31040
6572,30208
6573,29888
6574,29888
6575,30016
6576,30208
6577,30528
6578,30912
6579,31168
6580,31360
6581,31552
6582,31808
6583,32064
6584,32192
6585,32320
6586,32512
6587,32704
6588,32832
6589,32896
6590,33024
6591,33152
6592,33280
6593,33280
6594,33344
6595,33472
6596,33536
6597,33536
6598,33600
6599,33728
6600,33792
6601,33792
6602,33856
6603,33984
6604,34112
6605,34112
6606,34176
6607,34240
6608,34368
6609,34368
6610,34432
6611,34560
6612,34688
6613,34752
6614,34752
6615,34816
6616,34944
6617,34944
6618,34880
6619,34880
6620,34880
6621,34816
6622,34688
6623,34560
6624,34496
6625,34432
6626,34368
6627,34240
6628,34176
6629,34112
6630,33920
6631,33728
6632,33600
6633,33408
6634,33152
6635,32960
6636,32768
6637,32704
6638,32512
6639,32384
6640,32320
6641,32384
6642,32320
6643,32320
6644,32320
6645,32384
6646,32448
6647,32448
6648,32512
6649,32640
6650,32768
6651,32768
6652,32832
6653,33024
6654,33088
6655,33088
6656,33088
6657,33152
6658,33280
6659,33280
6660,33280
6661,33344
6662,33408
6663,33472
6664,33472
6665,33600
6666,33728
6667,33792
6668,33792
6669,33792
6670,33856
6671,33920
6672,33856
6673,33856
6674,33920
6675,33984
6676,33984
6677,34048
6678,34048
6679,34112
6680,33984
6681,33984
6682,34048
6683,34112
6684,34112
6685,34112
6686,34112
6687,34176
6688,34112
6689,34048
6690,33984
6691,34048
6692,34048
6693,33984
6694,33984
6695,33984
6696,33984
6697,33984
6698,33984
6699,34048
6700,34048
6701,33984
6702,33920
6703,33984
6704,34048
6705,33984
6706,33920
6707,33984
6708,34048
6709,34048
6710,34048
6711,34048
6712,34112
6713,34048
6714,33984
6715,33984
6716,34112
6717,34048
6718,33984
6719,33984
6720,34112
6721,34112
6722,34048
6723,34048
6724,34048
6725,34112
6726,34048
6727,34048
6728,34112
6729,34176
6730,34176
6731,34112
6732,34176
6733,34240
6734,34176
6735,34112
6736,34048
6737,34112
6738,34048
6739,33984
6740,34112
6741,34240
6742,34368
6743,34432
6744,34560
6745,34880
6746,35008
6747,34944
6748,34816
6749,34688
6750,34624
6751,34496
6752,34368
6753,34304
6754,34112
6755,33920
6756,33792
6757,33728
6758,33728
6759,33728
6760,33728
6761,33728
6762,33792
6763,33856
6764,33792
6765,33728
6766,33472
6767,33088
6768,32832
6769,33088
6770,34432
6771,36672
6772,39616
6773,43072
6774,45888
6775,47616
6776,46976
6777,44416
6778,41344
6779,38208
6780,35456
6781,33216
6782,31936
6783,31104
6784,30656
6785,30464
6786,30528
6787,30720
6788,30976
6789,31104
6790,31360
6791,31680
6792,31936
6793,32192
6794,32384
6795,32640
6796,32832
6797,32960
6798,33024
6799,33152
6800,33280
6801,33344
6802,33408
6803,33600
6804,33664
6805,33728
6806,33728
6807,33792
6808,33920
6809,33984
6810,33984
6811,34112
6812,34240
6813,34304
6814,34368
6815,34432
6816,34560
6817,34624
6818,34624
6819,34688
6820,34816
6821,34880
6822,34944
6823,35008
6824,35136
6825,35136
6826,35136
6827,35072
6828,35136
6829,35200
6830,35200
6831,35264
6832,35264
6833,35200
6834,35072
6835,34944
6836,34816
6837,34752
6838,34624
6839,34496
6840,34432
6841,34368
6842,34176
6843,33984
6844,33664
6845,33536
6846,33344
6847,33152
6848,32960
6849,32896
6850,32832
6851,32704
6852,32640
6853,32704
6854,32704
6855,32704
6856,32704
6857,32768
6858,32832
6859,32832
6860,32832
6861,32896
6862,33024
6863,33152
6864,33216
6865,33280
6866,33408
6867,33472
6868,33536
6869,33536
6870,33600
6871,33600
6872,33600
6873,33600
6874,33664
6875,33728
6876,33728
6877,33728
6878,33920
6879,33984
6880,34048
6881,34048
6882,34048
6883,34048
6884,34112
6885,34048
6886,34112
6887,34240
6888,34240
6889,34176
6890,34240
6891,34240
6892,34304
6893,34304
6894,34304
6895,34368
6896,34432
6897,34368
6898,34304
6899,34240
6900,34240
6901,34240
6902,34176
6903,34240
6904,34240
6905,34112
6906,34048
6907,34112
6908,34176
6909,34176
6910,34112
6911,34112
6912,34112
6913,34176
6914,34112
6915,34176
6916,34176
6917,34112
6918,33984
6919,34048
6920,34240
6921,34304
6922,34176
6923,34112
6924,34176
6925,34368
6926,34560
6927,34816
6928,35200
6929,35456
6930,35456
6931,35328
6932,35136
6933,34944
6934,34752
6935,34496
6936,34304
6937,34112
6938,33792
6939,33600
6940,33472
6941,33408
6942,33408
6943,33408
6944,33472
6945,33600
6946,33664
6947,33664
6948,33664
6949,33536
6950,33152
6951,32704
6952,32576
6953,33728
6954,35008
6955,37568
6956,40576
6957,43712
6958,46336
6959,47296
6960,45888
6961,43072
6962,39872
6963,37056
6964,34624
6965,32896
6966,31808
6967,31104
6968,30720
6969,30656
6970,30720
6971,30912
6972,31104
6973,31360
6974,31616
6975,31872
6976,32064
6977,32320
6978,32576
6979,32832
6980,32960
6981,33088
6982,33216
6983,33344
6984,33408
6985,33408
6986,33536
6987,33664
6988,33792
6989,33856
6990,33984
6991,34112
6992,34176
6993,34176
6994,34304
6995,34432
6996,34496
6997,34496
6998,34496
6999,34560
7000,34624
7001,34688
7002,34752
7003,34816
7004,34944
7005,35008
7006,35072
7007,35136
7008,35200
7009,35264
7010,35328
7011,35392
7012,35456
7013,35392
7014,35264
7015,35200
7016,35200
7017,35200
7018,35072
7019,34944
7020,34880
7021,34816
7022,34624
7023,34496
7024,34368
7025,34240
7026,33984
7027,33856
7028,33664
7029,33472
7030,33280
7031,33088
7032,32960
7033,32896
7034,32768
7035,32704
7036,32704
7037,32768
7038,32768
7039,32768
7040,32768
7041,32896
7042,32960
7043,32960
7044,33024
7045,33088
7046,33216
7047,33280
7048,33344
7049,33472
7050,33536
7051,33472
7052,33472
7053,33536
7054,33600
7055,33664
7056,33664
7057,33664
7058,33728
7059,33792
7060,33792
7061,33920
7062,33984
7063,34048
7064,34048
7065,34112
7066,34240
7067,34240
7068,34176
7069,34176
7070,34176
7071,34240
7072,34240
7073,34304
7074,34304
7075,34368
7076,34304
7077,34240
7078,34240
7079,34304
7080,34304
7081,34304
7082,34304
7083,34368
7084,34304
7085,34240
7086,34240
7087,34304
7088,34240
7089,34176
7090,34112
7091,34112
7092,34112
7093,34176
7094,34240
7095,34368
7096,34368
7097,34240
7098,34304
7099,34432
7100,34688
7101,34880
7102,35136
7103,35392
7104,35392
7105,35264
7106,35072
7107,34880
7108,34752
7109,34560
7110,34304
7111,34048
7112,33856
7113,33664
7114,33408
7115,33280
7116,33280
7117,33280
7118,33408
7119,33472
7120,33600
7121,33600
7122,33536
7123,33344
7124,33024
7125,32704
7126,32448
7127,32896
7128,34304
7129,36736
7130,39488
7131,42560
7132,45376
7133,46848
7134,46016
7135,43456
7136,40512
7137,37696
7138,35264
7139,33280
7140,32064
7141,31296
7142,30848
7143,30656
7144,30656
7145,30912
7146,31104
7147,31232
7148,31424
7149,31680
7150,31936
7151,32192
7152,32448
7153,32640
7154,32896
7155,32960
7156,33024
7157,33216
7158,33408
7159,33472
7160,33536
7161,33664
7162,33792
7163,33856
7164,33792
7165,33792
7166,33920
7167,33984
7168,33984
7169,33984
7170,34112
7171,34240
7172,34304
7173,34368
7174,34560
7175,34688
7176,34752
7177,34752
7178,34944
7179,34944
7180,35008
7181,35072
7182,35136
7183,35264
7184,35328
7185,35264
7186,35136
7187,35136
7188,35008
7189,34944
7190,34944
7191,34880
7192,34816
7193,34688
7194,34560
7195,34560
7196,34432
7197,34240
7198,34112
7199,34048
7200,33920
7201,33728
7202,33536
7203,33472
7204,33408
7205,33216
7206,33088
7207,33024
7208,32896
7209,32704
7210,32704
7211,32768
7212,32832
7213,32832
7214,32960
7215,33024
7216,32960
7217,33088
7218,33088
7219,33216
7220,33280
7221,33280
7222,33280
7223,33408
7224,33536
7225,33536
7226,33536
7227,33664
7228,33600
7229,33728
7230,33664
7231,33600
7232,33920
7233,33984
7234,33920
7235,33856
7236,33984
7237,34048
7238,33984
7239,33984
7240,34112
7241,34112
7242,33984
7243,33920
7244,34048
7245,34112
7246,34112
7247,34304
7248,34304
7249,34304
7250,34240
7251,34112
7252,34176
7253,34112
7254,34112
7255,34048
7256,34048
7257,34048
7258,34112
7259,34048
7260,34048
7261,34048
7262,34048
7263,33984
7264,34048
7265,34112
7266,34112
7267,33984
7268,33920
7269,33984
7270,34112
7271,34240
7272,34496
7273,34880
7274,35136
7275,35328
7276,35264
7277,35200
7278,35008
7279,34816
7280,34624
7281,34496
7282,34304
7283,33984
7284,33664
7285,33472
7286,33344
7287,33280
7288,33216
7289,33216
7290,33344
7291,33344
7292,33344
7293,33344
7294,33472
7295,33280
7296,32896
7297,32512
7298,32512
7299,33280
7300,34944
7301,37504
7302,37824
7303,43584
7304,46080
7305,46976
7306,46784
7307,43136
7308,40000
7309,37056
7310,34624
7311,32832
7312,31616
7313,30784
7314,30656
7315,30400
7316,30528
7317,30720
7318,30976
7319,31296
7320,31552
7321,31680
7322,31808
7323,32064
7324,32320
7325,32448
7326,32640
7327,32896
7328,33088
7329,33152
7330,33216
7331,33344
7332,33472
7333,33472
7334,33600
7335,33728
7336,33664
7337,33984
7338,33920
7339,33984
7340,34112
7341,34240
7342,34240
7343,34304
7344,34432
7345,34496
7346,34496
7347,34560
7348,34624
7349,34752
7350,34816
7351,34816
7352,34880
7353,35072
7354,35136
7355,35136
7356,35200
7357,35200
7358,35072
7359,35008
7360,35008
7361,35008
7362,35008
7363,34944
7364,34880
7365,34880
7366,34816
7367,34624
7368,34432
7369,34304
7370,34240
7371,34048
7372,33856
7373,33792
7374,33664
7375,33472
7376,33216
7377,33088
7378,33024
7379,32960
7380,32960
7381,32960
7382,33024
7383,33024
7384,32896
7385,32832
7386,32832
7387,32896
7388,33024
7389,33152
7390,33280
7391,33408
7392,33408
7393,33472
7394,33536
7395,33664
7396,33664
7397,33600
7398,33664
7399,33792
7400,33792
7401,33856
7402,33920
7403,33984
7404,33984
7405,33984
7406,33984
7407,34048
7408,34048
7409,34048
7410,34112
7411,34176
7412,34240
7413,34304
7414,34304
7415,34368
7416,34432
7417,34368
7418,34368
7419,34432
7420,34432
7421,34368
7422,34304
7423,34304
7424,34304
7425,34304
7426,34304
7427,34304
7428,34304
7429,34304
7430,34240
7431,34304
7432,34368
7433,34368
7434,34304
7435,34240
7436,34240
7437,34240
7438,34240
7439,34240
7440,34240
7441,34304
7442,34240
7443,34240
7444,34240
7445,34240
7446,34176
7447,34176
7448,34176
7449,34240
7450,34240
7451,34304
7452,34368
7453,34432
7454,34432
7455,34368
7456,34432
7457,34624
7458,34688
7459,34752
7460,34816
7461,34944
7462,35072
7463,35136
7464,35200
7465,35264
7466,35136
7467,34880
7468,34624
7469,34496
7470,34432
7471,34240
7472,34048
7473,33920
7474,33792
7475,33728
7476,33600
7477,33536
7478,33600
7479,33600
7480,33536
7481,33600
7482,33664
7483,33600
7484,33408
7485,33088
7486,32960
7487,33152
7488,33920
7489,35840
7490,38464
7491,41600
7492,44672
7493,46976
7494,47488
7495,45824
7496,42944
7497,39680
7498,36672
7499,34176
7500,32320
7501,31168
7502,30592
7503,30400
7504,30400
7505,30464
7506,30720
7507,31104
7508,31360
7509,31616
7510,31872
7511,32128
7512,32384
7513,32576
7514,32704
7515,32896
7516,33088
7517,33088
7518,33216
7519,33344
7520,33536
7521,33664
7522,33728
7523,33856
7524,33984
7525,34048
7526,34048
7527,34112
7528,34176
7529,34240
7530,34304
7531,34368
7532,34496
7533,34560
7534,34624
7535,34752
7536,34880
7537,35008
7538,35008
7539,35008
7540,35136
7541,35200
7542,35200
7543,35264
7544,35328
7545,35392
7546,35392
7547,35392
7548,35392
7549,35456
7550,35392
7551,35264
7552,35200
7553,35136
7554,35008
7555,34880
7556,34816
7557,34752
7558,34624
7559,34432
7560,34304
7561,34176
7562,34048
7563,33792
7564,33600
7565,33472
7566,33280
7567,33088
7568,33024
7569,33024
7570,33088
7571,33024
7572,33024
7573,33024
7574,33088
7575,33088
7576,33088
7577,33152
7578,33280
7579,33344
7580,33344
7581,33408
7582,33472
7583,33536
7584,33536
7585,33600
7586,33664
7587,33728
7588,33792
7589,33792
7590,33920
7591,33984
7592,33984
7593,33984
7594,33984
7595,34112
7596,34112
7597,34112
7598,34176
7599,34240
7600,34240
7601,34240
7602,34240
7603,34304
7604,34368
7605,34368
7606,34368
7607,34432
7608,34432
7609,34432
7610,34368
7611,34432
7612,34368
7613,34304
7614,34304
7615,34304
7616,34304
7617,34304
7618,34240
7619,34304
7620,34304
7621,34304
7622,34240
7623,34304
7624,34368
7625,34368
7626,34304
7627,34304
7628,34304
7629,34240
7630,34240
7631,34240
7632,34368
7633,34368
7634,34304
7635,34240
7636,34240
7637,34240
7638,34176
7639,34176
7640,34176
7641,34240
7642,34176
7643,34176
7644,34176
7645,34240
7646,34176
7647,34176
7648,34240
7649,34304
7650,34304
7651,34304
7652,34304
7653,34304
7654,34304
7655,34240
7656,34240
7657,34304
7658,34304
7659,34240
7660,34240
7661,34240
7662,34304
7663,34240
7664,34176
7665,34240
7666,34304
7667,34240
7668,34240
7669,34368
7670,34496
7671,34432
7672,34432
7673,34496
7674,34688
7675,34816
7676,34816
7677,34880
7678,35008
7679,35072
7680,35072
7681,35136
7682,35200
7683,35136
7684,34880
7685,34624
7686,34496
7687,34368
7688,34240
7689,34048
7690,33984
7691,33856
7692,33728
7693,33664
7694,33664
7695,33600
7696,33600
7697,33536
7698,33600
7699,33664
7700,33600
7701,33280
7702,33024
7703,33024
7704,33472
7705,34816
7706,37184
7707,40192
7708,43648
7709,46528
7710,48128
7711,47680
7712,45248
7713,41856
7714,38400
7715,35328
7716,32960
7717,31296
7718,30400
7719,30016
7720,30016
7721,30080
7722,30272
7723,30592
7724,30976
7725,31296
7726,31552
7727,31872
7728,32128
7729,32384
7730,32512
7731,32704
7732,32896
7733,33088
7734,33152
7735,33280
7736,33408
7737,33536
7738,33664
7739,33728
7740,33856
7741,33984
7742,33984
7743,34048
7744,34112
7745,34176
7746,34304
7747,34368
7748,34496
7749,34624
7750,34688
7751,34688
7752,34816
7753,34944
7754,34944
7755,34944
7756,35008
7757,35072
7758,35200
7759,35264
7760,35264
7761,35328
7762,35392
7763,35392
7764,35392
7765,35392
7766,35328
7767,35200
7768,35136
7769,35072
7770,35072
7771,35008
7772,34880
7773,34880
7774,34816
7775,34688
7776,34560
7777,34432
7778,34304
7779,34112
7780,33856
7781,33664
7782,33536
7783,33344
7784,33152
7785,33024
7786,32960
7787,32896
7788,32832
7789,32832
7790,32896
7791,32960
7792,32960
7793,32960
7794,33024
7795,33152
7796,33152
7797,33216
7798,33280
7799,33344
7800,33472
7801,33472
7802,33536
7803,33600
7804,33664
7805,33664
7806,33728
7807,33856
7808,33920
7809,33984
7810,33984
7811,34048
7812,34112
7813,34112
7814,34112
7815,34176
7816,34240
7817,34240
7818,34240
7819,34304
7820,34368
7821,34368
7822,34368
7823,34368
7824,34368
7825,34304
7826,34304
7827,34304
7828,34368
7829,34368
7830,34304
7831,34240
7832,34304
7833,34304
7834,34304
7835,34240
7836,34240
7837,34304
7838,34240
7839,34176
7840,34176
7841,34240
7842,34176
7843,34176
7844,34240
7845,34304
7846,34240
7847,34240
7848,34240
7849,34304
7850,34240
7851,34176
7852,34176
7853,34240
7854,34240
7855,34176
7856,34176
7857,34240
7858,34240
7859,34240
7860,34176
7861,34304
7862,34304
7863,34240
7864,34176
7865,34240
7866,34240
7867,34176
7868,34176
7869,34240
7870,34304
7871,34240
7872,34240
7873,34304
7874,34368
7875,34368
7876,34304
7877,34304
7878,34368
7879,34304
7880,34240
7881,34304
7882,34368
7883,34368
7884,34368
7885,34368
7886,34368
7887,34304
7888,34240
7889,34240
7890,34240
7891,34304
7892,34240
7893,34240
7894,34304
7895,34304
7896,34304
7897,34240
7898,34240
7899,34304
7900,34304
7901,34304
7902,34304
7903,34432
7904,34496
7905,34496
7906,34496
7907,34560
7908,34624
7909,34624
7910,34752
7911,34944
7912,35072
7913,35200
7914,35264
7915,35392
7916,35328
7917,35072
7918,34752
7919,34560
7920,34432
7921,34304
7922,34176
7923,34112
7924,33984
7925,33856
7926,33728
7927,33664
7928,33664
7929,33664
7930,33600
7931,33664
7932,33728
7933,33664
7934,33472
7935,33152
7936,32960
7937,33088
7938,33792
7939,35648
7940,38336
7941,41664
7942,45056
7943,47616
7944,48512
7945,47296
7946,44352
7947,40768
7948,37312
7949,34368
7950,32192
7951,30784
7952,30080
7953,29888
7954,29888
7955,30016
7956,30336
7957,30656
7958,30976
7959,31232
7960,31552
7961,31872
7962,32128
7963,32320
7964,32512
7965,32704
7966,32896
7967,33024
7968,33088
7969,33280
7970,33408
7971,33536
7972,33536
7973,33664
7974,33792
7975,33856
7976,33920
7977,33984
7978,34112
7979,34176
7980,34240
7981,34304
7982,34368
7983,34496
7984,34496
7985,34560
7986,34624
7987,34752
7988,34752
7989,34816
7990,34944
7991,35072
7992,35136
7993,35200
7994,35264
7995,35392
7996,35392
7997,35328
7998,35392
7999,35392
8000,35328
8001,35200
8002,35136
8003,35136
8004,35072
8005,34944
8006,34880
8007,34816
8008,34688
8009,34496
8010,34368
8011,34304
8012,34176
8013,33920
8014,33728
8015,33600
8016,33408
8017,33216
8018,33024
8019,32896
8020,32832
8021,32704
8022,32640
8023,32640
8024,32640
8025,32640
8026,32640
8027,32704
8028,32832
8029,32960
8030,32960
8031,33024
8032,33152
8033,33280
8034,33280
8035,33344
8036,33472
8037,33536
8038,33536
8039,33600
8040,33664
8041,33792
8042,33792
8043,33728
8044,33792
8045,33920
8046,33920
8047,33920
8048,33920
8049,34048
8050,34048
8051,34048
8052,34048
8053,34112
8054,34112
8055,34112
8056,34112
8057,34240
8058,34240
8059,34240
8060,34176
8061,34240
8062,34240
8063,34176
8064,34176
8065,34240
8066,34304
8067,34304
8068,34240
8069,34304
8070,34304
8071,34240
8072,34176
8073,34176
8074,34176
8075,34176
8076,34112
8077,34048
8078,34112
8079,34112
8080,34048
8081,34048
8082,34176
8083,34176
8084,34112
8085,34112
8086,34176
8087,34176
8088,34112
8089,34112
8090,34176
8091,34240
8092,34176
8093,34112
8094,34176
8095,34176
8096,34176
8097,34112
8098,34112
8099,34176
8100,34176
8101,34112
8102,34112
8103,34176
8104,34176
8105,34176
8106,34112
8107,34176
8108,34240
8109,34176
8110,34176
8111,34176
8112,34240
8113,34176
8114,34176
8115,34240
8116,34240
8117,34240
8118,34176
8119,34240
8120,34304
8121,34304
8122,34240
8123,34240
8124,34240
8125,34240
8126,34240
8127,34240
8128,34304
8129,34304
8130,34176
8131,34176
8132,34240
8133,34304
8134,34240
8135,34240
8136,34304
8137,34368
8138,34368
8139,34304
8140,34368
8141,34368
8142,34240
8143,34112
8144,34240
8145,34432
8146,34624
8147,34688
8148,34880
8149,35072
8150,35136
8151,35008
8152,34880
8153,34752
8154,34624
8155,34432
8156,34368
8157,34304
8158,34176
8159,34048
8160,33920
8161,33920
8162,33920
8163,33856
8164,33792
8165,33792
8166,33792
8167,33792
8168,33664
8169,33472
8170,33216
8171,33024
8172,33152
8173,34176
8174,36288
8175,39168
8176,42496
8177,45888
8178,48256
8179,48704
8180,46912
8181,43776
8182,40000
8183,36672
8184,33984
8185,31936
8186,30784
8187,30144
8188,29888
8189,29952
8190,30144
8191,30464
8192,30720
8193,30976
8194,31360
8195,31680
8196,31936
8197,32128
8198,32384
8199,32640
8200,32832
8201,32960
8202,33088
8203,33280
8204,33344
8205,33408
8206,33472
8207,33600
8208,33728
8209,33792
8210,33856
8211,33920
8212,34048
8213,34048
8214,34112
8215,34240
8216,34304
8217,34368
8218,34368
8219,34496
8220,34560
8221,34624
8222,34688
8223,34816
8224,34944
8225,35008
8226,35008
8227,35072
8228,35200
8229,35264
8230,35328
8231,35328
8232,35392
8233,35392
8234,35328
8235,35264
8236,35264
8237,35200
8238,35072
8239,35008
8240,34944
8241,34944
8242,34816
8243,34688
8244,34496
8245,34432
8246,34240
8247,34048
8248,33920
8249,33728
8250,33536
8251,33344
8252,33152
8253,33024
8254,32896
8255,32768
8256,32704
8257,32640
8258,32704
8259,32640
8260,32640
8261,32768
8262,32832
8263,32896
8264,32896
8265,33024
8266,33152
8267,33216
8268,33216
8269,33344
8270,33472
8271,33472
8272,33536
8273,33600
8274,33664
8275,33728
8276,33728
8277,33728
8278,33856
8279,33920
8280,33920
8281,33984
8282,34048
8283,34048
8284,34048
8285,34048
8286,34176
8287,34240
8288,34176
8289,34176
8290,34240
8291,34304
8292,34304
8293,34240
8294,34304
8295,34368
8296,34304
8297,34304
8298,34304
8299,34368
8300,34304
8301,34304
8302,34240
8303,34304
8304,34240
8305,34176
8306,34176
8307,34176
8308,34176
8309,34112
8310,34112
8311,34112
8312,34176
8313,34176
8314,34176
8315,34176
8316,34240
8317,34176
8318,34112
8319,34112
8320,34176
8321,34176
8322,34112
8323,34176
8324,34240
8325,34240
8326,34176
8327,34176
8328,34240
8329,34240
8330,34176
8331,34176
8332,34176
8333,34176
8334,34112
8335,34112
8336,34112
8337,34176
8338,34112
8339,34112
8340,34112
8341,34176
8342,34176
8343,34112
8344,34112
8345,34176
8346,34176
8347,34112
8348,34112
8349,34112
8350,34112
8351,34112
8352,34112
8353,34176
8354,34176
8355,34112
8356,34112
8357,34176
8358,34240
8359,34176
8360,34176
8361,34176
8362,34240
8363,34176
8364,34176
8365,34176
8366,34240
8367,34176
8368,34176
8369,34176
8370,34240
8371,34240
8372,34176
8373,34240
8374,34304
8375,34304
8376,34240
8377,34112
8378,34176
8379,34176
8380,34240
8381,34496
8382,34816
8383,35072
8384,35200
8385,35200
8386,35136
8387,34944
8388,34688
8389,34560
8390,34432
8391,34304
8392,34176
8393,33984
8394,33856
8395,33792
8396,33728
8397,33600
8398,33600
8399,33600
8400,33600
8401,33600
8402,33600
8403,33472
8404,33216
8405,32896
8406,32832
8407,33344
8408,34880
8409,37248
8410,40384
8411,43968
8412,47168
8413,48576
8414,48064
8415,45632
8416,42304
8417,38784
8418,35520
8419,33024
8420,31424
8421,30464
8422,30016
8423,29888
8424,30080
8425,30272
8426,30528
8427,30848
8428,31168
8429,31424
8430,31616
8431,31872
8432,32192
8433,32448
8434,32576
8435,32768
8436,32960
8437,33088
8438,33216
8439,33280
8440,33472
8441,33600
8442,33664
8443,33728
8444,33792
8445,33920
8446,33984
8447,33984
8448,34048
8449,34176
8450,34240
8451,34304
8452,34368
8453,34496
8454,34560
8455,34624
8456,34624
8457,34752
8458,34880
8459,34944
8460,34944
8461,35072
8462,35200
8463,35264
8464,35264
8465,35328
8466,35392
8467,35392
8468,35328
8469,35328
8470,35264
8471,35200
8472,35072
8473,35008
8474,34944
8475,34880
8476,34752
8477,34688
8478,34624
8479,34432
8480,34240
8481,34112
8482,33984
8483,33856
8484,33600
8485,33408
8486,33280
8487,33152
8488,32960
8489,32832
8490,32704
8491,32704
8492,32640
8493,32576
8494,32576
8495,32640
8496,32640
8497,32640
8498,32704
8499,32832
8500,32896
8501,32960
8502,33024
8503,33152
8504,33216
8505,33280
8506,33344
8507,33472
8508,33536
8509,33536
8510,33600
8511,33664
8512,33728
8513,33792
8514,33792
8515,33856
8516,33920
8517,33920
8518,33920
8519,34048
8520,34112
8521,34112
8522,34112
8523,34112
8524,34112
8525,34112
8526,34112
8527,34112
8528,34176
8529,34176
8530,34176
8531,34176
8532,34240
8533,34240
8534,34240
8535,34176
8536,34240
8537,34240
8538,34176
8539,34176
8540,34176
8541,34240
8542,34176
8543,34112
8544,34112
8545,34176
8546,34176
8547,34112
8548,34112
8549,34176
8550,34176
8551,34112
8552,34112
8553,34112
8554,34112
8555,34112
8556,34112
8557,34112
8558,34112
8559,34112
8560,34112
8561,34176
8562,34176
8563,34176
8564,34112
8565,34112
8566,34112
8567,34112
8568,34048
8569,34048
8570,34112
8571,34112
8572,34112
8573,34112
8574,34112
8575,34176
8576,34112
8577,34112
8578,34176
8579,34176
8580,34176
8581,34112
8582,34176
8583,34176
8584,34176
8585,34112
8586,34176
8587,34176
8588,34176
8589,34112
8590,34176
8591,34240
8592,34240
8593,34176
8594,34176
8595,34240
8596,34240
8597,34176
8598,34176
8599,34240
8600,34240
8601,34176
8602,34176
8603,34240
8604,34304
8605,34304
8606,34304
8607,34304
8608,34240
8609,34176
8610,34240
8611,34496
8612,34752
8613,34944
8614,35072
8615,35264
8616,35264
8617,35200
8618,34944
8619,34816
8620,34688
8621,34496
8622,34304
8623,34176
8624,34048
8625,33920
8626,33792
8627,33728
8628,33728
8629,33728
8630,33664
8631,33728
8632,33792
8633,33792
8634,33536
8635,33152
8636,32832
8637,32896
8638,33664
8639,35392
8640,38080
8641,41984
8642,44992
8643,47744
8644,48704
8645,47424
8646,44544
8647,41088
8648,36800
8649,34752
8650,32576
8651,31168
8652,30400
8653,30144
8654,30080
8655,30208
8656,30400
8657,30720
8658,31040
8659,31296
8660,31616
8661,31936
8662,32192
8663,32384
8664,32576
8665,32768
8666,33024
8667,33152
8668,33216
8669,33408
8670,33536
8671,33600
8672,33600
8673,33728
8674,33856
8675,33920
8676,33984
8677,33984
8678,34176
8679,34240
8680,34304
8681,34368
8682,34496
8683,34624
8684,34624
8685,34688
8686,34752
8687,34880
8688,34880
8689,34944
8690,35072
8691,35136
8692,35200
8693,35264
8694,35328
8695,35456
8696,35456
8697,35392
8698,35392
8699,35456
8700,35456
8701,35328
8702,35264
8703,35200
8704,35136
8705,35008
8706,34880
8707,34880
8708,34880
8709,34752
8710,34624
8711,34560
8712,34432
8713,34176
8714,33984
8715,33856
8716,33664
8717,33408
8718,33152
8719,33024
8720,32960
8721,32832
8722,32768
8723,32704
8724,32768
8725,32768
8726,32768
8727,32832
8728,32960
8729,33024
8730,33024
8731,33088
8732,33152
8733,33280
8734,33280
8735,33344
8736,33408
8737,33536
8738,33536
8739,33600
8740,33664
8741,33792
8742,33792
8743,33792
8744,33856
8745,33920
8746,33984
8747,33984
8748,33984
8749,34048
8750,34048
8751,34048
8752,34048
8753,34176
8754,34176
8755,34112
8756,34112
8757,34176
8758,34240
8759,34176
8760,34176
8761,34304
8762,34368
8763,34304
8764,34240
8765,34240
8766,34240
8767,34240
8768,34176
8769,34176
8770,34176
8771,34176
8772,34048
8773,34112
8774,34176
8775,34176
8776,34112
8777,34112
8778,34112
8779,34112
8780,34112
8781,34048
8782,34112
8783,34176
8784,34112
8785,34048
8786,34112
8787,34112
8788,34112
8789,34112
8790,34112
8791,34176
8792,34176
8793,34112
8794,34112
8795,34176
8796,34112
8797,34112
8798,34176
8799,34176
8800,34176
8801,34176
8802,34112
8803,34176
8804,34176
8805,34112
8806,34112
8807,34176
8808,34240
8809,34176
8810,34176
8811,34176
8812,34240
8813,34240
8814,34176
8815,34176
8816,34176
8817,34112
8818,34112
8819,34176
8820,34240
8821,34240
8822,34112
8823,34176
8824,34240
8825,34240
8826,34240
8827,34240
8828,34368
8829,34304
8830,34240
8831,34176
8832,34176
8833,34112
8834,34176
8835,34368
8836,34624
8837,34944
8838,35072
8839,35136
8840,35200
8841,35136
8842,34944
8843,34688
8844,34560
8845,34496
8846,34304
8847,34112
8848,33920
8849,33856
8850,33792
8851,33664
8852,33600
8853,33664
8854,33664
8855,33664
8856,33664
8857,33664
8858,33344
8859,32960
8860,32704
8861,32896
8862,33792
8863,35776
8864,38464
8865,41920
8866,45376
8867,47936
8868,48448
8869,46848
8870,43904
8871,40448
8872,37120
8873,34048
8874,32384
8875,31104
8876,30400
8877,30080
8878,30144
8879,30272
8880,30464
8881,30720
8882,31104
8883,31424
8884,31616
8885,31808
8886,32128
8887,32384
8888,32576
8889,32640
8890,32832
8891,33024
8892,33152
8893,33216
8894,33344
8895,33536
8896,33600
8897,33664
8898,33728
8899,33856
8900,33920
8901,33984
8902,33984
8903,34176
8904,34240
8905,34240
8906,34304
8907,34432
8908,34496
8909,34560
8910,34624
8911,34688
8912,34816
8913,34880
8914,34944
8915,35072
8916,35136
8917,35200
8918,35200
8919,35264
8920,35328
8921,35328
8922,35328
8923,35264
8924,35328
8925,35264
8926,35136
8927,35072
8928,35008
8929,34944
8930,34880
8931,34752
8932,34688
8933,34624
8934,34432
8935,34304
8936,34176
8937,34048
8938,33792
8939,33536
8940,33408
8941,33216
8942,33024
8943,32896
8944,32832
8945,32768
8946,32704
8947,32576
8948,32640
8949,32704
8950,32704
8951,32704
8952,32768
8953,32896
8954,32960
8955,33024
8956,33088
8957,33216
8958,33344
8959,33344
8960,33408
8961,33536
8962,33600
8963,33664
8964,33664
8965,33728
8966,33856
8967,33856
8968,33856
8969,33920
8970,33984
8971,34048
8972,34048
8973,34048
8974,34176
8975,34176
8976,34176
8977,34176
8978,34240
8979,34240
8980,34240
8981,34240
8982,34304
8983,34304
8984,34304
8985,34304
8986,34304
8987,34304
8988,34304
8989,34240
8990,34240
8991,34304
8992,34240
8993,34240
8994,34240
8995,34240
8996,34240
8997,34240
8998,34240
8999,34304
9000,34304
9001,34240
9002,34240
9003,34240
9004,34304
9005,34240
9006,34176
9007,34240
9008,34240
9009,34240
9010,34176
9011,34240
9012,34304
9013,34304
9014,34240
9015,34304
9016,34368
9017,34304
9018,34304
9019,34304
9020,34304
9021,34304
9022,34240
9023,34240
9024,34304
9025,34304
9026,34240
9027,34240
9028,34304
9029,34304
9030,34240
9031,34176
9032,34240
9033,34304
9034,34240
9035,34304
9036,34304
9037,34304
9038,34240
9039,34176
9040,34368
9041,34368
9042,34368
9043,34368
9044,34496
9045,34496
9046,34432
9047,34368
9048,34304
9049,34432
9050,34496
9051,34688
9052,35136
9053,35072
9054,35392
9055,35392
9056,35328
9057,35136
9058,34880
9059,34688
9060,34624
9061,34496
9062,34432
9063,34048
9064,33920
9065,33856
9066,33728
9067,33664
9068,33600
9069,33664
9070,33664
9071,33664
9072,33664
9073,33472
9074,33088
9075,32768
9076,32832
9077,33792
9078,35712
9079,38464
9080,41792
9081,45312
9082,47936
9083,48512
9084,46784
9085,43840
9086,40448
9087,37056
9088,36608
9089,32448
9090,31232
9091,30976
9092,30208
9093,30208
9094,30336
9095,30528
9096,30784
9097,31232
9098,31232
9099,31744
9100,31936
9101,32192
9102,32448
9103,32640
9104,32768
9105,32960
9106,33152
9107,33280
9108,33408
9109,33472
9110,33600
9111,33728
9112,33792
9113,33728
9114,33920
9115,34048
9116,34112
9117,34112
9118,34176
9119,34304
9120,34368
9121,34368
9122,34432
9123,34560
9124,34624
9125,34688
9126,34688
9127,34880
9128,35008
9129,35008
9130,35072
9131,35200
9132,35264
9133,35328
9134,35328
9135,35392
9136,35456
9137,35392
9138,35392
9139,35328
9140,35328
9141,35200
9142,35072
9143,35008
9144,35008
9145,34944
9146,34816
9147,34688
9148,34624
9149,34496
9150,34304
9151,34112
9152,34048
9153,33792
9154,33600
9155,33344
9156,33216
9157,33024
9158,32960
9159,32768
9160,32704
9161,32704
9162,32640
9163,32640
9164,32704
9165,32768
9166,32768
9167,32704
9168,32896
9169,32960
9170,33088
9171,33088
9172,33216
9173,33216
9174,33344
9175,33344
9176,33408
9177,33536
9178,33600
9179,33664
9180,33664
9181,33728
9182,33792
9183,33856
9184,33856
9185,33920
9186,33984
9187,33984
9188,33984
9189,34048
9190,34112
9191,34112
9192,34112
9193,34176
9194,34240
9195,34240
9196,34240
9197,34240
9198,34304
9199,34304
9200,34304
9201,34304
9202,34304
9203,34304
9204,34240
9205,34240
9206,34240
9207,34240
9208,34240
9209,34240
9210,34240
9211,34240
9212,34176
9213,34176
9214,34176
9215,34240
9216,34176
9217,34112
9218,34112
9219,34176
9220,34176
9221,34112
9222,34112
9223,34176
9224,34176
9225,34112
9226,34112
9227,34176
9228,34240
9229,34176
9230,34176
9231,34240
9232,34240
9233,34176
9234,34176
9235,34240
9236,34240
9237,34240
9238,34240
9239,34240
9240,34240
9241,34240
9242,34240
9243,34240
9244,34304
9245,34240
9246,34240
9247,34176
9248,34240
9249,34240
9250,34240
9251,34176
9252,34240
9253,34304
9254,34240
9255,34240
9256,34304
9257,34368
9258,34368
9259,34304
9260,34304
9261,34304
9262,34304
9263,34432
9264,34624
9265,34944
9266,35200
9267,35328
9268,35328
9269,35328
9270,35072
9271,34816
9272,34624
9273,34496
9274,34368
9275,34112
9276,33920
9277,33856
9278,33728
9279,33600
9280,33536
9281,33600
9282,33664
9283,33728
9284,33728
9285,33664
9286,33472
9287,33088
9288,32768
9289,32832
9290,33600
9291,35392
9292,37952
9293,41280
9294,44800
9295,47616
9296,48448
9297,47040
9298,44224
9299,40896
9300,37568
9301,34624
9302,32640
9303,31296
9304,30528
9305,30208
9306,30208
9307,30336
9308,30528
9309,30784
9310,31104
9311,31424
9312,31680
9313,31872
9314,32128
9315,32448
9316,32640
9317,32768
9318,32960
9319,33152
9320,33280
9321,33344
9322,33472
9323,33600
9324,33728
9325,33728
9326,33856
9327,33920
9328,33984
9329,34048
9330,34048
9331,34176
9332,34240
9333,34304
9334,34368
9335,34432
9336,34560
9337,34624
9338,34688
9339,34816
9340,34944
9341,35008
9342,35008
9343,35072
9344,35200
9345,35200
9346,35264
9347,35264
9348,35392
9349,35392
9350,35392
9351,35392
9352,35392
9353,35328
9354,35200
9355,35072
9356,35008
9357,34944
9358,34816
9359,34688
9360,34688
9361,34624
9362,34496
9363,34304
9364,34176
9365,33984
9366,33792
9367,33536
9368,33408
9369,33280
9370,33088
9371,32896
9372,32768
9373,32704
9374,32640
9375,32576
9376,32576
9377,32704
9378,32768
9379,32768
9380,32768
9381,32896
9382,32960
9383,33024
9384,33024
9385,33152
9386,33280
9387,33344
9388,33344
9389,33408
9390,33536
9391,33536
9392,33472
9393,33536
9394,33600
9395,33728
9396,33728
9397,33792
9398,33920
9399,33920
9400,33920
9401,33920
9402,33920
9403,33984
9404,33984
9405,33984
9406,34048
9407,34112
9408,34048
9409,33984
9410,33984
9411,33984
9412,33920
9413,33920
9414,33920
9415,33984
9416,33984
9417,33920
9418,33984
9419,33984
9420,33920
9421,33856
9422,33856
9423,33856
9424,33856
9425,33792
9426,33728
9427,33728
9428,33728
9429,33664
9430,33664
9431,33664
9432,33728
9433,33728
9434,33664
9435,33728
9436,33728
9437,33664
9438,33664
9439,33664
9440,33728
9441,33664
9442,33600
9443,33600
9444,33600
9445,33600
9446,33600
9447,33536
9448,33600
9449,33664
9450,33600
9451,33536
9452,33600
9453,33600
9454,33600
9455,33536
9456,33600
9457,33664
9458,33664
9459,33600
9460,33664
9461,33664
9462,33600
9463,33600
9464,33600
9465,33600
9466,33664
9467,33600
9468,33664
9469,33664
9470,33600
9471,33472
9472,33472
9473,33664
9474,33856
9475,34048
9476,34304
9477,34624
9478,34752
9479,34688
9480,34496
9481,34304
9482,34176
9483,33984
9484,33792
9485,33664
9486,33472
9487,33280
9488,33088
9489,32960
9490,32960
9491,32896
9492,32832
9493,32896
9494,33024
9495,33088
9496,32960
9497,32640
9498,32256
9499,32000
9500,32192
9501,33280
9502,35520
9503,38336
9504,41664
9505,44928
9506,47040
9507,46912
9508,44672
9509,41600
9510,38400
9511,35328
9512,33088
9513,31424
9514,30464
9515,29888
9516,29632
9517,29568
9518,29760
9519,30080
9520,30336
9521,30592
9522,30848
9523,31104
9524,31360
9525,31552
9526,31744
9527,32000
9528,32128
9529,32256
9530,32384
9531,32512
9532,32704
9533,32768
9534,32832
9535,32960
9536,33024
9537,33088
9538,33152
9539,33280
9540,33408
9541,33408
9542,33472
9543,33536
9544,33664
9545,33728
9546,33728
9547,33792
9548,33920
9549,33984
9550,34048
9551,34112
9552,34240
9553,34368
9554,34432
9555,34432
9556,34496
9557,34560
9558,34560
9559,34560
9560,34560
9561,34624
9562,34560
9563,34496
9564,34432
9565,34432
9566,34304
9567,34176
9568,34112
9569,34112
9570,34048
9571,33856
9572,33728
9573,33664
9574,33472
9575,33216
9576,32960
9577,32896
9578,32768
9579,32576
9580,32448
9581,32320
9582,32192
9583,32064
9584,31936
9585,31872
9586,31936
9587,31936
9588,32000
9589,32064
9590,32128
9591,32192
9592,32192
9593,32256
9594,32384
9595,32448
9596,32448
9597,32448
9598,32576
9599,32640
9600,32640
9601,32704
9602,32832
9603,32896
9604,32896
9605,32960
9606,33024
9607,33088
9608,33088
9609,33088
9610,33152
9611,33216
9612,33280
9613,33280
9614,33344
9615,33408
9616,33472
9617,33408
9618,33408
9619,33472
9620,33472
9621,33472
9622,33408
9623,33536
9624,33536
9625,33536
9626,33536
9627,33600
9628,33664
9629,33600
9630,33536
9631,33536
9632,33536
9633,33472
9634,33472
9635,33472
9636,33536
9637,33536
9638,33472
9639,33472
9640,33472
9641,33472
9642,33472
9643,33472
9644,33536
9645,33536
9646,33536
9647,33600
9648,33664
9649,33664
9650,33600
9651,33600
9652,33600
9653,33664
9654,33664
9655,33664
9656,33728
9657,33792
9658,33728
9659,33728
9660,33728
9661,33728
9662,33728
9663,33664
9664,33792
9665,33856
9666,33792
9667,33792
9668,33920
9669,34112
9670,34368
9671,34624
9672,34944
9673,35200
9674,35264
9675,35072
9676,34816
9677,34624
9678,34432
9679,34240
9680,33984
9681,33792
9682,33728
9683,33536
9684,33408
9685,33344
9686,33344
9687,33344
9688,33344
9689,33408
9690,33536
9691,33472
9692,33280
9693,33024
9694,32768
9695,32768
9696,33344
9697,34944
9698,37696
9699,40704
9700,44160
9701,46976
9702,48064
9703,46912
9704,44160
9705,40960
9706,37824
9707,35136
9708,33152
9709,31808
9710,31040
9711,30720
9712,30592
9713,30656
9714,30848
9715,31168
9716,31488
9717,31808
9718,32064
9719,32384
9720,32576
9721,32768
9722,32960
9723,33152
9724,33344
9725,33472
9726,33664
9727,33856
9728,33984
9729,34048
9730,34112
9731,34240
9732,34368
9733,34432
9734,34496
9735,34624
9736,34752
9737,34816
9738,34816
9739,34944
9740,35072
9741,35136
9742,35200
9743,35264
9744,35392
9745,35456
9746,35520
9747,35520
9748,35648
9749,35712
9750,35776
9751,35840
9752,35968
9753,36032
9754,36032
9755,36032
9756,36032
9757,36032
9758,35968
9759,35840
9760,35776
9761,35776
9762,35648
9763,35520
9764,35520
9765,35456
9766,35392
9767,35264
9768,35136
9769,35008
9770,34816
9771,34560
9772,34368
9773,34240
9774,33984
9775,33792
9776,33600
9777,33536
9778,33472
9779,33344
9780,33280
9781,33344
9782,33408
9783,33408
9784,33408
9785,33536
9786,33664
9787,33728
9788,33728
9789,33792
9790,33856
9791,33920
9792,33920
9793,33984
9794,34112
9795,34112
9796,34176
9797,34240
9798,34304
9799,34368
9800,34368
9801,34368
9802,34496
9803,34624
9804,34624
9805,34624
9806,34688
9807,34752
9808,34752
9809,34752
9810,34816
9811,34880
9812,34880
9813,34816
9814,34816
9815,34880
9816,34880
9817,34816
9818,34880
9819,34880
9820,34880
9821,34816
9822,34816
9823,34880
9824,34880
9825,34816
9826,34816
9827,34816
9828,34880
9829,34816
9830,34752
9831,34816
9832,34816
9833,34816
9834,34752
9835,34752
9836,34816
9837,34752
9838,34688
9839,34688
9840,34752
9841,34752
9842,34752
9843,34752
9844,34752
9845,34752
9846,34688
9847,34688
9848,34752
9849,34688
9850,34688
9851,34688
9852,34688
9853,34752
9854,34752
9855,34688
9856,34752
9857,34752
9858,34688
9859,34688
9860,34688
9861,34752
9862,34688
9863,34688
9864,34688
9865,34752
9866,34688
9867,34688
9868,34688
9869,34752
9870,34688
9871,34688
9872,34688
9873,34752
9874,34688
9875,34688
9876,34752
9877,34880
9878,35136
9879,35392
9880,35648
9881,35904
9882,35968
9883,35776
9884,35456
9885,35264
9886,35072
9887,34816
9888,34624
9889,34368
9890,34304
9891,34176
9892,33984
9893,33920
9894,33920
9895,33920
9896,33856
9897,33920
9898,33920
9899,33920
9900,33664
9901,33280
9902,33088
9903,33216
9904,34048
9905,35968
9906,38720
9907,42048
9908,45440
9909,47872
9910,48384
9911,46784
9912,43840
9913,40512
9914,37248
9915,34560
9916,32576
9917,31232
9918,30592
9919,30336
9920,30336
9921,30464
9922,30720
9923,30976
9924,31296
9925,31552
9926,31808
9927,32064
9928,32320
9929,32512
9930,32640
9931,32896
9932,33088
9933,33152
9934,33280
9935,33408
9936,33600
9937,33664
9938,33664
9939,33792
9940,33920
9941,33984
9942,33984
9943,34048
9944,34176
9945,34240
9946,34304
9947,34368
9948,34496
9949,34560
9950,34624
9951,34688
9952,34816
9953,34880
9954,34944
9955,35008
9956,35072
9957,35200
9958,35264
9959,35264
9960,35328
9961,35392
9962,35456
9963,35456
9964,35456
9965,35456
9966,35328
9967,35264
9968,35200
9969,35200
9970,35136
9971,35008
9972,34880
9973,34816
9974,34752
9975,34560
9976,34368
9977,34240
9978,34048
9979,33856
9980,33664
9981,33472
9982,33344
9983,33152
9984,32960
9985,32832
9986,32768
9987,32704
9988,32640
9989,32640
9990,32704
9991,32704
9992,32704
9993,32768
9994,32896
9995,32960
9996,32960
9997,33024
9998,33152
9999,33280
10000,33280
10001,33344
10002,33408
10003,33536
10004,33536
10005,33536
10006,33600
10007,33728
10008,33728
10009,33728
10010,33792
10011,33856
10012,33920
10013,33920
10014,33984
10015,34048
10016,34048
10017,34048
10018,34048
10019,34112
10020,34112
10021,34048
10022,34112
10023,34176
10024,34240
10025,34176
10026,34176
10027,34176
10028,34240
10029,34176
10030,34176
10031,34176
10032,34240
10033,34176
10034,34176
10035,34112
10036,34176
10037,34112
10038,34112
10039,34112
10040,34112
10041,34112
10042,34048
10043,34048
10044,34112
10045,34112
10046,34048
10047,34048
10048,34048
10049,34048
10050,34048
10051,33984
10052,34048
10053,34112
10054,34112
10055,34048
10056,34048
10057,34112
10058,34112
10059,34048
10060,33984
10061,34048
10062,33984
10063,33984
10064,33984
10065,34048
10066,34048
10067,33984
10068,33984
10069,34048
10070,34048
10071,34048
10072,33984
10073,34048
10074,34048
10075,34048
10076,34048
10077,34112
10078,34112
10079,34048
10080,34048
10081,34048
10082,34112
10083,34048
10084,34048
10085,34048
10086,34112
10087,34112
10088,34112
10089,34048
10090,34048
10091,33984
10092,33984
10093,34112
10094,34368
10095,34688
10096,34944
10097,35072
10098,35136
10099,35072
10100,34816
10101,34624
10102,34496
10103,34432
10104,34240
10105,34048
10106,33856
10107,33792
10108,33664
10109,33536
10110,33472
10111,33536
10112,33536
10113,33472
10114,33536
10115,33600
10116,33472
10117,33088
10118,32768
10119,32768
10120,33280
10121,34816
10122,37312
10123,40512
10124,44032
10125,47040
10126,48320
10127,47424
10128,44800
10129,41472
10130,38080
10131,35136
10132,32832
10133,31360
10134,30464
10135,30016
10136,29952
10137,30080
10138,30208
10139,30464
10140,30784
10141,31104
10142,31296
10143,31552
10144,31872
10145,32128
10146,32256
10147,32448
10148,32640
10149,32832
10150,32896
10151,32960
10152,33152
10153,33280
10154,33280
10155,33408
10156,33536
10157,33664
10158,33728
10159,33792
10160,33856
10161,33984
10162,34048
10163,34112
10164,34176
10165,34240
10166,34304
10167,34368
10168,34432
10169,34560
10170,34624
10171,34688
10172,34752
10173,34880
10174,35008
10175,35072
10176,35072
10177,35136
10178,35200
10179,35200
10180,35200
10181,35200
10182,35200
10183,35072
10184,35008
10185,34944
10186,34880
10187,34816
10188,34624
10189,34560
10190,34560
10191,34496
10192,34304
10193,34112
10194,34048
10195,33856
10196,33600
10197,33344
10198,33152
10199,33024
10200,32832
10201,32704
10202,32576
10203,32576
10204,32448
10205,32384
10206,32448
10207,32512
10208,32576
10209,32576
10210,32640
10211,32768
10212,32832
10213,32832
10214,32896
10215,33024
10216,33088
10217,33088
10218,33152
10219,33280
10220,33344
10221,33344
10222,33408
10223,33536
10224,33664
10225,33664
10226,33664
10227,33728
10228,33728
10229,33728
10230,33728
10231,33792
10232,33856
10233,33920
10234,33920
10235,33920
10236,33984
10237,33984
10238,33984
10239,33984
10240,34048
10241,34112
10242,34048
10243,34048
10244,34048
10245,34048
10246,33984
10247,33984
10248,34048
10249,34112
10250,34048
10251,33984
10252,34048
10253,34112
10254,34048
10255,33984
10256,33984
10257,33984
10258,33920
10259,33856
10260,33856
10261,33920
10262,33920
10263,33920
10264,33920
10265,33984
10266,33984
10267,33920
10268,33856
10269,33920
10270,33920
10271,33920
10272,33856
10273,33920
10274,33920
10275,33920
10276,33856
10277,33856
10278,33856
10279,33856
10280,33856
10281,33856
10282,33920
10283,33856
10284,33792
10285,33856
10286,33856
10287,33856
10288,33792
10289,33856
10290,33856
10291,33856
10292,33792
10293,33792
10294,33792
10295,33856
10296,33792
10297,33792
10298,33856
10299,33920
10300,33920
10301,33920
10302,33984
10303,34048
10304,33984
10305,33920
10306,33920
10307,33920
10308,33856
10309,33792
10310,33856
10311,33984
10312,34112
10313,34176
10314,34304
10315,34560
10316,34688
10317,34560
10318,34496
10319,34368
10320,34304
10321,34176
10322,34048
10323,33920
10324,33856
10325,33728
10326,33600
10327,33600
10328,33536
10329,33472
10330,33344
10331,33408
10332,33536
10333,33536
10334,33472
10335,33216
10336,32896
10337,32640
10338,32704
10339,33728
10340,35840
10341,38656
10342,42048
10343,45376
10344,47616
10345,47680
10346,45568
10347,42432
10348,39168
10349,36096
10350,33728
10351,31936
10352,30912
10353,30400
10354,30144
10355,30144
10356,30336
10357,30592
10358,30848
10359,31104
10360,31360
10361,31616
10362,31872
10363,32064
10364,32256
10365,32512
10366,32768
10367,32832
10368,32960
10369,33152
10370,33280
10371,33344
10372,33344
10373,33472
10374,33600
10375,33664
10376,33728
10377,33856
10378,33984
10379,34048
10380,34048
10381,34112
10382,34240
10383,34304
10384,34304
10385,34368
10386,34496
10387,34560
10388,34624
10389,34688
10390,34816
10391,34880
10392,34944
10393,35008
10394,35136
10395,35264
10396,35264
10397,35264
10398,35264
10399,35328
10400,35264
10401,35200
10402,35200
10403,35136
10404,35008
10405,34880
10406,34816
10407,34752
10408,34688
10409,34560
10410,34496
10411,34432
10412,34240
10413,34048
10414,33856
10415,33664
10416,33472
10417,33216
10418,33024
10419,32896
10420,32832
10421,32704
10422,32640
10423,32640
10424,32640
10425,32640
10426,32640
10427,32704
10428,32768
10429,32832
10430,32832
10431,32896
10432,33024
10433,33152
10434,33152
10435,33216
10436,33280
10437,33344
10438,33344
10439,33408
10440,33536
10441,33600
10442,33600
10443,33600
10444,33664
10445,33792
10446,33856
10447,33856
10448,33920
10449,33984
10450,33984
10451,33984
10452,34048
10453,34112
10454,34112
10455,34048
10456,34112
10457,34176
10458,34176
10459,34176
10460,34240
10461,34304
10462,34304
10463,34304
10464,34240
10465,34304
10466,34368
10467,34304
10468,34240
10469,34240
10470,34240
10471,34176
10472,34112
10473,34112
10474,34176
10475,34112
10476,34112
10477,34176
10478,34240
10479,34240
10480,34176
10481,34112
10482,34176
10483,34176
10484,34112
10485,34048
10486,34112
10487,34112
10488,34112
10489,34112
10490,34112
10491,34112
10492,34048
10493,34112
10494,34176
10495,34240
10496,34176
10497,34112
10498,34112
10499,34112
10500,34048
10501,33984
10502,34048
10503,34112
10504,34176
10505,34176
10506,34176
10507,34240
10508,34240
10509,34176
10510,34176
10511,34240
10512,34240
10513,34112
10514,34048
10515,34048
10516,34112
10517,34240
10518,34432
10519,34688
10520,34944
10521,35072
10522,35072
10523,35072
10524,34944
10525,34752
10526,34560
10527,34368
10528,34240
10529,34048
10530,33856
10531,33792
10532,33728
10533,33600
10534,33536
10535,33536
10536,33600
10537,33664
10538,33664
10539,33664
10540,33600
10541,33344
10542,32896
10543,32576
10544,32832
10545,34048
10546,36224
10547,38976
10548,42304
10549,45504
10550,47424
10551,47104
10552,44800
10553,41792
10554,38592
10555,35776
10556,33600
10557,32064
10558,31168
10559,30656
10560,30400
10561,30464
10562,30656
10563,30784
10564,31040
10565,31424
10566,31680
10567,31872
10568,32064
10569,32320
10570,32512
10571,32704
10572,32832
10573,32960
10574,33088
10575,33152
10576,33216
10577,33344
10578,33472
10579,33600
10580,33664
10581,33792
10582,33920
10583,33984
10584,33984
10585,34112
10586,34176
10587,34240
10588,34240
10589,34304
10590,34432
10591,34496
10592,34560
10593,34560
10594,34688
10595,34816
10596,34944
10597,35008
10598,35072
10599,35200
10600,35200
10601,35200
10602,35264
10603,35328
10604,35392
10605,35392
10606,35328
10607,35328
10608,35200
10609,35136
10610,35072
10611,35008
10612,34944
10613,34752
10614,34688
10615,34624
10616,34496
10617,34304
10618,34112
10619,33920
10620,33728
10621,33536
10622,33280
10623,33216
10624,33088
10625,32896
10626,32768
10627,32704
10628,32704
10629,32704
10630,32640
10631,32768
10632,32832
10633,32832
10634,32896
10635,32960
10636,33088
10637,33152
10638,33152
10639,33152
10640,33216
10641,33280
10642,33344
10643,33344
10644,33472
10645,33600
10646,33600
10647,33664
10648,33728
10649,33856
10650,33856
10651,33856
10652,33920
10653,34048
10654,34048
10655,34048
10656,34048
10657,34048
10658,34112
10659,34048
10660,34112
10661,34176
10662,34240
10663,34240
10664,34304
10665,34368
10666,34368
10667,34368
10668,34304
10669,34304
10670,34304
10671,34240
10672,34240
10673,34304
10674,34368
10675,34368
10676,34304
10677,34304
10678,34368
10679,34304
10680,34240
10681,34240
10682,34240
10683,34240
10684,34176
10685,34176
10686,34240
10687,34176
10688,34112
10689,34112
10690,34176
10691,34240
10692,34240
10693,34240
10694,34240
10695,34240
10696,34240
10697,34176
10698,34240
10699,34304
10700,34304
10701,34304
10702,34240
10703,34240
10704,34304
10705,34368
10706,34560
10707,34880
10708,35200
10709,35392
10710,35520
10711,35584
10712,35392
10713,35200
10714,34944
10715,34752
10716,34560
10717,34304
10718,33984
10719,33856
10720,33728
10721,33600
10722,33536
10723,33536
10724,33600
10725,33600
10726,33600
10727,33664
10728,33728
10729,33600
10730,33280
10731,32960
10732,32768
10733,33408
10734,34496
10735,36672
10736,39616
10737,42944
10738,45952
10739,47552
10740,46976
10741,44480
10742,41280
10743,38208
10744,35520
10745,33408
10746,31936
10747,31104
10748,30592
10749,30528
10750,30528
10751,30656
10752,30912
10753,31232
10754,31424
10755,31680
10756,32000
10757,32256
10758,32448
10759,32640
10760,32832
10761,33024
10762,33152
10763,33216
10764,33344
10765,33536
10766,33664
10767,33728
10768,33856
10769,33984
10770,33984
10771,34048
10772,34048
10773,34112
10774,34240
10775,34304
10776,34368
10777,34432
10778,34560
10779,34624
10780,34624
10781,34752
10782,34880
10783,34944
10784,35008
10785,35072
10786,35200
10787,35264
10788,35264
10789,35328
10790,35456
10791,35520
10792,35520
10793,35520
10794,35520
10795,35520
10796,35456
10797,35328
10798,35264
10799,35200
10800,35136
10801,35008
10802,34944
10803,34880
10804,34752
10805,34560
10806,34368
10807,34240
10808,33984
10809,33792
10810,33600
10811,33472
10812,33280
10813,33088
10814,32896
10815,32832
10816,32832
10817,32768
10818,32768
10819,32768
10820,32896
10821,32896
10822,32896
10823,33024
10824,33088
10825,33088
10826,33088
10827,33152
10828,33280
10829,33280
10830,33344
10831,33408
10832,33536
10833,33600
10834,33600
10835,33664
10836,33792
10837,33856
10838,33920
10839,33920
10840,33984
10841,34048
10842,34048
10843,34048
10844,34112
10845,34176
10846,34176
10847,34176
10848,34304
10849,34304
10850,34240
10851,34304
10852,34368
10853,34368
10854,34304
10855,34368
10856,34432
10857,34432
10858,34368
10859,34304
10860,34304
10861,34304
10862,34304
10863,34304
10864,34304
10865,34368
10866,34304
10867,34304
10868,34304
10869,34304
10870,34240
10871,34176
10872,34240
10873,34304
10874,34240
10875,34240
10876,34240
10877,34240
10878,34176
10879,34176
10880,34176
10881,34240
10882,34240
10883,34176
10884,34240
10885,34304
10886,34304
10887,34240
10888,34240
10889,34304
10890,34304
10891,34240
10892,34240
10893,34304
10894,34368
10895,34304
10896,34304
10897,34304
10898,34304
10899,34368
10900,34368
10901,34368
10902,34432
10903,34432
10904,34368
10905,34368
10906,34432
10907,34432
10908,34368
10909,34432
10910,34432
10911,34432
10912,34304
10913,34304
10914,34496
10915,34688
10916,34944
10917,35200
10918,35520
10919,35648
10920,35520
10921,35200
10922,35136
10923,34880
10924,34688
