,ECG
0,34496
1,34176
2,33856
3,33728
4,33728
5,33472
6,33344
7,33408
8,33536
9,33728
10,33536
11,33216
12,33024
13,33280
14,33984
15,35328
16,37248
17,39744
18,42944
19,46144
20,47936
21,47552
22,45376
23,41664
24,39168
25,36544
26,33984
27,32192
28,31232
29,30784
30,30528
31,30464
32,30464
33,30528
34,30784
35,31104
36,31424
37,31872
38,32256
39,32448
40,32832
41,33152
42,33216
43,33280
44,33344
45,33472
46,33536
47,33600
48,33856
49,34048
50,34112
51,34176
52,34176
53,34240
54,34304
55,34432
56,34560
57,34880
58,35136
59,35072
60,34944
61,35008
62,35072
63,35136
64,35264
65,35328
66,35392
67,35392
68,35392
69,35328
70,35136
71,34880
72,34752
73,34688
74,34560
75,34496
76,34368
77,34240
78,34048
79,33920
80,33728
81,33600
82,33600
83,33600
84,33600
85,33536
86,33536
87,33472
88,33344
89,33216
90,33088
91,33024
92,33024
93,33088
94,33152
95,33344
96,33472
97,33600
98,33856
99,33984
100,33984
101,34048
102,34112
103,34240
104,34304
105,34304
106,34304
107,34368
108,34432
109,34368
110,34368
111,34304
112,34368
113,34432
114,34304
115,34240
116,34240
117,34240
118,34176
119,34112
120,34112
121,34112
122,34112
123,34176
124,34240
125,34304
126,34240
127,34240
128,34240
129,34240
130,34176
131,34176
132,34240
133,34304
134,34304
135,34240
136,34304
137,34304
138,34304
139,34304
140,34368
141,34368
142,34304
143,34368
144,34368
145,34368
146,34432
147,34496
148,34624
149,34816
150,34944
151,34944
152,34944
153,35072
154,35200
155,35264
156,35264
157,35200
158,35136
159,34944
160,34688
161,34560
162,34304
163,33984
164,33792
165,33792
166,33792
167,33792
168,33792
169,33792
170,33856
171,33728
172,33664
173,33408
174,33152
175,32896
176,33024
177,33728
178,35008
179,36800
180,39104
181,41920
182,45184
183,47552
184,48256
185,47104
186,44608
187,41472
188,38208
189,35136
190,32768
191,31168
192,30208
193,29760
194,29632
195,29888
196,30144
197,30464
198,30784
199,31168
200,31424
201,31808
202,32128
203,32384
204,32512
205,32576
206,32704
207,32832
208,32960
209,33152
210,33344
211,33536
212,33664
213,33792
214,33984
215,34176
216,34176
217,34176
218,34304
219,34432
220,34560
221,34624
222,34688
223,34880
224,35072
225,35136
226,35136
227,35200
228,35328
229,35328
230,35264
231,35264
232,35392
233,35392
234,35200
235,35072
236,35008
237,34880
238,34752
239,34560
240,34368
241,34176
242,33984
243,33728
244,33600
245,33408
246,33216
247,33088
248,33024
249,33024
250,33152
251,33152
252,33152
253,33152
254,33152
255,33152
256,33216
257,33408
258,33536
259,33600
260,33664
261,33728
262,33728
263,33664
264,33728
265,33984
266,34112
267,34112
268,34048
269,34048
270,34112
271,34048
272,34048
273,34048
274,34112
275,34048
276,33984
277,33984
278,34112
279,34112
280,34112
281,34048
282,34048
283,34048
284,34048
285,34048
286,34048
287,34112
288,34112
289,34112
290,34176
291,34240
292,34240
293,34304
294,34304
295,34240
296,34240
297,34240
298,34240
299,34240
300,34176
301,34112
302,34112
303,34176
304,34240
305,34304
306,34368
307,34496
308,34624
309,34688
310,34816
311,34944
312,35008
313,35008
314,34944
315,34944
316,35072
317,35200
318,35264
319,35264
320,35264
321,35136
322,34880
323,34496
324,34304
325,34048
326,33792
327,33664
328,33600
329,33664
330,33664
331,33664
332,33728
333,33792
334,33728
335,33536
336,33344
337,33152
338,33216
339,33792
340,34816
341,36416
342,38592
343,41344
344,44672
345,47296
346,48320
347,47680
348,45504
349,42432
350,39040
351,35840
352,33280
353,30912
354,30336
355,29888
356,29760
357,29888
358,30208
359,30464
360,30784
361,31168
362,31488
363,31744
364,32000
365,32192
366,32512
367,32704
368,32960
369,33088
370,33216
371,33216
372,33152
373,33216
374,33408
375,33536
376,33664
377,33856
378,34048
379,34368
380,34496
381,34560
382,34688
383,34816
384,34880
385,34880
386,35072
387,35328
388,35392
389,35456
390,35520
391,35584
392,35456
393,35328
394,35136
395,35136
396,35072
397,34944
398,34816
399,34816
400,34752
401,34560
402,34368
403,34176
404,34048
405,33792
406,33600
407,33472
408,33408
409,33280
410,33088
411,32960
412,32896
413,32960
414,32960
415,33088
416,33280
417,33408
418,33408
419,33472
420,33536
421,33600
422,33600
423,33664
424,33728
425,33728
426,33664
427,33664
428,33792
429,33856
430,33792
431,33792
432,33856
433,33856
434,34048
435,34048
436,34048
437,34048
438,34112
439,34176
440,34240
441,34240
442,34176
443,34112
444,34176
445,34240
446,34176
447,34048
448,34048
449,34048
450,34048
451,33984
452,33984
453,34048
454,34048
455,34048
456,33984
457,33984
458,34048
459,34048
460,34048
461,34176
462,34240
463,34240
464,34304
465,34368
466,34496
467,34624
468,34624
469,34688
470,34752
471,34688
472,34688
473,34752
474,34816
475,34816
476,34880
477,34880
478,34880
479,34752
480,34496
481,34176
482,33984
483,33856
484,33664
485,33472
486,33472
487,33472
488,33536
489,33536
490,33600
491,33600
492,33536
493,33280
494,32960
495,32960
496,33408
497,34368
498,35840
499,37760
500,40256
501,43264
502,46208
503,48000
504,48128
505,46592
506,43776
507,40512
508,37312
509,34368
510,32000
511,30592
512,30016
513,29696
514,29632
515,29824
516,30272
517,30656
518,31040
519,31232
520,31616
521,31872
522,32128
523,32384
524,32640
525,32832
526,32896
527,33088
528,33280
529,33408
530,33472
531,33536
532,33664
533,33856
534,33984
535,33984
536,34112
537,34240
538,34368
539,34368
540,34496
541,34688
542,34816
543,34944
544,35008
545,35136
546,35200
547,35136
548,35136
549,35136
550,35136
551,35072
552,35072
553,35008
554,34880
555,34688
556,34560
557,34560
558,34432
559,34240
560,34048
561,33920
562,33920
563,33664
564,33600
565,33536
566,33472
567,33408
568,33344
569,33280
570,33408
571,33472
572,33472
573,33536
574,33600
575,33728
576,33728
577,33728
578,33920
579,33984
580,33984
581,34048
582,34112
583,34112
584,34112
585,34112
586,34240
587,34368
588,34304
589,34304
590,34304
591,34368
592,34368
593,34304
594,34304
595,34304
596,34304
597,34240
598,34240
599,34240
600,34240
601,34112
602,34112
603,34176
604,34240
605,34240
606,34176
607,34176
608,34176
609,34176
610,34112
611,34112
612,34240
613,34304
614,34304
615,34368
616,34496
617,34560
618,34624
619,34688
620,34688
621,34560
622,34432
623,34624
624,34752
625,34944
626,35008
627,35072
628,35136
629,35136
630,35072
631,35008
632,34816
633,34624
634,34368
635,34112
636,33984
637,33856
638,33792
639,33728
640,33856
641,33920
642,33920
643,33792
644,33600
645,33344
646,33088
647,33216
648,33920
649,35200
650,37056
651,39296
652,42112
653,45504
654,47168
655,47424
656,46144
657,43776
658,40896
659,37824
660,34944
661,32704
662,31232
663,30400
664,30144
665,30208
666,30464
667,30656
668,30784
669,30976
670,31296
671,31552
672,31744
673,32064
674,32384
675,32640
676,32768
677,32960
678,33088
679,33216
680,33280
681,33408
682,33536
683,33728
684,33920
685,33984
686,34048
687,34112
688,34176
689,34176
690,34368
691,34624
692,34752
693,34816
694,34880
695,35008
696,34944
697,35008
698,35072
699,35008
700,34944
701,34880
702,34880
703,34816
704,34688
705,34624
706,34560
707,34496
708,34368
709,34304
710,34240
711,34112
712,33984
713,33856
714,33792
715,33792
716,33728
717,33600
718,33600
719,33664
720,33728
721,33664
722,33664
723,33664
724,33664
725,33536
726,33472
727,33664
728,33792
729,33792
730,33856
731,33984
732,34112
733,34048
734,33984
735,34048
736,34176
737,34112
738,34176
739,34176
740,34176
741,34112
742,33984
743,34048
744,34112
745,34112
746,34112
747,34112
748,34176
749,34240
750,34176
751,34176
752,34176
753,34240
754,34176
755,34112
756,34112
757,34112
758,34112
759,34176
760,34176
761,34304
762,34368
763,34432
764,34560
765,34688
766,34752
767,34688
768,34752
769,34944
770,35072
771,35008
772,35008
773,35008
774,35008
775,34880
776,34624
777,34368
778,34240
779,33984
780,33792
781,33664
782,33536
783,33536
784,33536
785,33600
786,33728
787,33664
788,33536
789,33280
790,32896
791,32704
792,33024
793,33856
794,35392
795,37376
796,39936
797,43072
798,46144
799,47616
800,47360
801,45568
802,42752
803,39552
804,36416
805,33664
806,31680
807,30592
808,29952
809,29824
810,30016
811,30272
812,30528
813,30784
814,31104
815,31424
816,31680
817,31872
818,32128
819,32384
820,32640
821,32768
822,32896
823,33088
824,33216
825,33280
826,33344
827,33472
828,33664
829,33792
830,33920
831,34112
832,34368
833,34432
834,34432
835,34496
836,34560
837,34688
838,34752
839,34944
840,35200
841,35328
842,35328
843,35392
844,35456
845,35392
846,35264
847,35136
848,35072
849,34944
850,34752
851,34496
852,34368
853,34368
854,34240
855,34048
856,33920
857,33792
858,33600
859,33408
860,33280
861,33216
862,33088
863,32896
864,32896
865,33024
866,33024
867,33024
868,33024
869,33152
870,33280
871,33280
872,33344
873,33472
874,33664
875,33664
876,33664
877,33728
878,33728
879,33728
880,33792
881,33920
882,33920
883,33856
884,33856
885,33920
886,34048
887,34112
888,34048
889,34048
890,34112
891,34112
892,34048
893,34112
894,34112
895,34112
896,34112
897,34112
898,34176
899,34176
900,34048
901,34048
902,34176
903,34240
904,34304
905,34304
906,34368
907,34368
908,34496
909,34560
910,34688
911,34752
912,34752
913,34816
914,34880
915,35008
916,35008
917,34880
918,34752
919,34688
920,34432
921,34112
922,33856
923,33792
924,33664
925,33600
926,33536
927,33408
928,33216
929,33216
930,33280
931,33344
932,33280
933,32960
934,32704
935,32896
936,33408
937,34432
938,36160
939,38464
940,41408
941,44800
942,47360
943,48320
944,47424
945,44928
946,41664
947,38336
948,35328
949,32960
950,31296
951,30400
952,30016
953,29888
954,29888
955,30016
956,30400
957,30848
958,31168
959,31296
960,31488
961,31744
962,32000
963,32256
964,32512
965,32832
966,33088
967,33280
968,33408
969,33472
970,33664
971,33728
972,33856
973,33984
974,34048
975,34112
976,34176
977,34304
978,34496
979,34624
980,34624
981,34816
982,35008
983,35072
984,35136
985,35200
986,35328
987,35392
988,35264
989,35136
990,35008
991,34944
992,34816
993,34688
994,34624
995,34432
996,34240
997,33984
998,33856
999,33792
1000,33600
1001,33472
1002,33408
1003,33344
1004,33216
1005,33152
1006,33152
1007,33152
1008,33088
1009,33024
1010,33024
1011,33024
1012,33088
1013,33152
1014,33344
1015,33536
1016,33536
1017,33472
1018,33472
1019,33600
1020,33664
1021,33600
1022,33664
1023,33920
1024,33984
1025,34048
1026,34048
1027,34112
1028,34176
1029,34176
1030,34176
1031,34240
1032,34240
1033,34112
1034,34112
1035,34176
1036,34304
1037,34368
1038,34368
1039,34304
1040,34368
1041,34368
1042,34368
1043,34496
1044,34624
1045,34816
1046,34880
1047,34752
1048,34688
1049,34688
1050,34752
1051,34880
1052,35072
1053,35200
1054,35136
1055,35072
1056,35008
1057,34880
1058,34688
1059,34368
1060,34112
1061,33856
1062,33600
1063,33472
1064,33408
1065,33472
1066,33536
1067,33472
1068,33472
1069,33472
1070,33280
1071,32832
1072,32320
1073,32192
1074,32640
1075,33728
1076,35392
1077,37696
1078,40448
1079,43648
1080,46592
1081,48320
1082,48192
1083,46144
1084,43008
1085,39424
1086,36096
1087,33408
1088,31360
1089,30208
1090,29632
1091,29504
1092,29568
1093,29760
1094,30144
1095,30464
1096,30784
1097,31040
1098,31360
1099,31616
1100,31808
1101,32000
1102,32256
1103,32512
1104,32640
1105,32832
1106,33024
1107,33152
1108,33216
1109,33280
1110,33408
1111,33600
1112,33792
1113,33856
1114,33984
1115,34176
1116,34304
1117,34432
1118,34560
1119,34752
1120,34880
1121,34880
1122,34880
1123,34944
1124,35008
1125,34944
1126,34880
1127,34944
1128,35072
1129,35008
1130,34944
1131,34816
1132,34752
1133,34560
1134,34432
1135,34304
1136,34176
1137,34048
1138,33920
1139,33792
1140,33728
1141,33600
1142,33408
1143,33280
1144,33280
1145,33344
1146,33280
1147,33280
1148,33408
1149,33472
1150,33408
1151,33408
1152,33536
1153,33600
1154,33664
1155,33728
1156,33856
1157,33920
1158,33984
1159,33920
1160,33984
1161,34048
1162,34048
1163,34048
1164,34176
1165,34240
1166,34304
1167,34240
1168,34240
1169,34304
1170,34368
1171,34304
1172,34240
1173,34240
1174,34304
1175,34304
1176,34304
1177,34304
1178,34304
1179,34240
1180,34176
1181,34304
1182,34496
1183,34624
1184,34624
1185,34688
1186,34816
1187,34816
1188,34688
1189,34688
1190,34752
1191,34816
1192,34816
1193,34944
1194,35008
1195,35008
1196,34944
1197,34816
1198,34624
1199,34368
1200,34112
1201,33920
1202,33728
1203,33600
1204,33472
1205,33408
1206,33472
1207,33536
1208,33536
1209,33472
1210,33408
1211,33216
1212,32832
1213,32640
1214,33088
1215,34176
1216,35840
1217,37888
1218,40576
1219,43776
1220,46720
1221,48000
1222,47616
1223,45504
1224,42688
1225,39360
1226,36224
1227,33600
1228,31680
1229,30528
1230,30016
1231,29824
1232,29888
1233,30016
1234,30272
1235,30528
1236,30912
1237,31232
1238,31488
1239,31744
1240,32064
1241,32256
1242,32384
1243,32512
1244,32704
1245,32896
1246,32960
1247,33152
1248,33344
1249,33472
1250,33600
1251,33664
1252,33792
1253,33920
1254,34048
1255,34176
1256,34368
1257,34560
1258,34688
1259,34752
1260,34880
1261,35072
1262,35136
1263,35136
1264,35136
1265,35200
1266,35200
1267,35072
1268,35008
1269,34944
1270,34816
1271,34688
1272,34560
1273,34496
1274,34304
1275,34112
1276,33856
1277,33728
1278,33664
1279,33536
1280,33472
1281,33472
1282,33408
1283,33344
1284,33280
1285,33216
1286,33216
1287,33280
1288,33280
1289,33280
1290,33344
1291,33408
1292,33408
1293,33408
1294,33472
1295,33600
1296,33664
1297,33728
1298,33792
1299,33920
1300,33920
1301,33920
1302,33984
1303,34048
1304,34048
1305,33984
1306,34048
1307,34176
1308,34176
1309,34176
1310,34176
1311,34240
1312,34240
1313,34240
1314,34176
1315,34240
1316,34240
1317,34240
1318,34240
1319,34240
1320,34304
1321,34240
1322,34176
1323,34176
1324,34176
1325,34112
1326,34048
1327,34048
1328,34112
1329,34176
1330,34240
1331,34432
1332,34560
1333,34624
1334,34688
1335,34688
1336,34688
1337,34688
1338,34752
1339,34816
1340,35008
1341,35072
1342,35008
1343,34944
1344,34816
1345,34624
1346,34304
1347,33984
1348,33792
1349,33600
1350,33472
1351,33408
1352,33408
1353,33472
1354,33472
1355,33472
1356,33536
1357,33536
1358,33408
1359,33088
1360,32832
1361,32960
1362,33600
1363,34688
1364,36416
1365,38656
1366,41536
1367,44800
1368,47168
1369,48128
1370,47232
1371,44672
1372,41472
1373,38144
1374,35200
1375,32832
1376,31232
1377,30336
1378,29952
1379,29824
1380,29888
1381,30144
1382,30464
1383,30784
1384,31040
1385,31360
1386,31552
1387,31808
1388,32064
1389,32384
1390,32704
1391,32960
1392,33088
1393,33280
1394,33408
1395,33472
1396,33536
1397,33664
1398,33792
1399,33920
1400,34048
1401,34176
1402,34368
1403,34432
1404,34560
1405,34624
1406,34752
1407,34880
1408,35008
1409,35072
1410,35136
1411,35264
1412,35328
1413,35328
1414,35328
1415,35392
1416,35328
1417,35200
1418,35072
1419,34880
1420,34752
1421,34560
1422,34368
1423,34240
1424,34112
1425,33984
1426,33728
1427,33664
1428,33536
1429,33408
1430,33216
1431,33152
1432,33088
1433,33088
1434,33088
1435,33088
1436,33152
1437,33216
1438,33152
1439,33216
1440,33280
1441,33344
1442,33472
1443,33536
1444,33600
1445,33664
1446,33728
1447,33728
1448,33792
1449,33920
1450,33920
1451,33920
1452,33984
1453,34048
1454,34112
1455,34112
1456,34112
1457,34176
1458,34240
1459,34304
1460,34240
1461,34240
1462,34240
1463,34240
1464,34240
1465,34240
1466,34240
1467,34176
1468,34176
1469,34176
1470,34176
1471,34112
1472,34048
1473,34048
1474,34112
1475,34048
1476,34048
1477,34048
1478,34112
1479,34112
1480,34048
1481,34048
1482,34048
1483,34112
1484,34112
1485,34112
1486,34176
1487,34304
1488,34368
1489,34496
1490,34560
1491,34688
1492,34752
1493,34752
1494,34752
1495,34752
1496,34816
1497,34880
1498,34944
1499,35008
1500,34944
1501,34880
1502,34816
1503,34752
1504,34496
1505,34240
1506,34048
1507,33920
1508,33792
1509,33600
1510,33536
1511,33536
1512,33600
1513,33664
1514,33728
1515,33728
1516,33600
1517,33280
1518,32960
1519,33024
1520,33600
1521,34688
1522,36288
1523,38464
1524,41088
1525,44160
1526,46464
1527,47232
1528,46336
1529,44096
1530,41088
1531,38016
1532,35264
1533,33024
1534,31424
1535,30592
1536,30208
1537,30144
1538,30336
1539,30592
1540,30784
1541,31040
1542,31296
1543,31552
1544,31872
1545,32192
1546,32384
1547,32576
1548,32768
1549,32960
1550,33024
1551,33152
1552,33344
1553,33536
1554,33664
1555,33792
1556,33856
1557,33920
1558,34048
1559,34112
1560,34304
1561,34496
1562,34624
1563,34624
1564,34688
1565,34880
1566,35008
1567,35072
1568,35136
1569,35264
1570,35328
1571,35328
1572,35264
1573,35264
1574,35200
1575,35136
1576,34944
1577,34880
1578,34816
1579,34688
1580,34496
1581,34368
1582,34240
1583,34048
1584,33856
1585,33728
1586,33600
1587,33472
1588,33344
1589,33152
1590,33152
1591,33088
1592,33088
1593,33088
1594,33152
1595,33216
1596,33216
1597,33216
1598,33280
1599,33408
1600,33472
1601,33600
1602,33664
1603,33728
1604,33792
1605,33792
1606,33856
1607,33984
1608,34048
1609,34112
1610,34112
1611,34176
1612,34240
1613,34176
1614,34176
1615,34304
1616,34368
1617,34304
1618,34304
1619,34304
1620,34304
1621,34304
1622,34304
1623,34368
1624,34368
1625,34368
1626,34240
1627,34176
1628,34240
1629,34240
1630,34176
1631,34176
1632,34240
1633,34240
1634,34240
1635,34240
1636,34304
1637,34368
1638,34304
1639,34304
1640,34368
1641,34368
1642,34368
1643,34368
1644,34304
1645,34176
1646,34112
1647,34176
1648,34240
1649,34304
1650,34304
1651,34432
1652,34560
1653,34688
1654,34688
1655,34816
1656,34944
1657,34944
1658,34944
1659,34880
1660,34880
1661,35008
1662,35136
1663,35200
1664,35136
1665,35072
1666,34944
1667,34688
1668,34304
1669,33984
1670,33792
1671,33664
1672,33600
1673,33664
1674,33728
1675,33728
1676,33728
1677,33664
1678,33664
1679,33472
1680,33152
1681,32832
1682,32896
1683,33408
1684,34432
1685,35968
1686,38144
1687,40704
1688,43840
1689,46592
1690,47872
1691,47488
1692,45440
1693,42496
1694,39168
1695,36096
1696,33536
1697,31616
1698,30592
1699,30080
1700,29952
1701,29952
1702,30208
1703,30528
1704,30848
1705,31104
1706,31424
1707,31680
1708,31936
1709,32192
1710,32384
1711,32576
1712,32768
1713,32960
1714,33088
1715,33280
1716,33472
1717,33664
1718,33792
1719,33920
1720,34048
1721,34112
1722,34240
1723,34368
1724,34496
1725,34624
1726,34752
1727,34880
1728,35008
1729,35136
1730,35200
1731,35200
1732,35328
1733,35328
1734,35328
1735,35392
1736,35392
1737,35392
1738,35264
1739,35200
1740,35136
1741,35072
1742,34944
1743,34752
1744,34560
1745,34432
1746,34240
1747,33984
1748,33792
1749,33664
1750,33536
1751,33408
1752,33280
1753,33216
1754,33216
1755,33152
1756,33152
1757,33216
1758,33216
1759,33280
1760,33344
1761,33408
1762,33536
1763,33536
1764,33600
1765,33664
1766,33792
1767,33792
1768,33856
1769,33920
1770,33984
1771,34048
1772,34048
1773,34112
1774,34176
1775,34176
1776,34176
1777,34304
1778,34368
1779,34368
1780,34304
1781,34304
1782,34368
1783,34304
1784,34240
1785,34240
1786,34304
1787,34304
1788,34304
1789,34304
1790,34304
1791,34304
1792,34304
1793,34304
1794,34304
1795,34304
1796,34240
1797,34176
1798,34176
1799,34176
1800,34176
1801,34240
1802,34240
1803,34304
1804,34304
1805,34240
1806,34240
1807,34240
1808,34240
1809,34240
1810,34176
1811,34304
1812,34304
1813,34304
1814,34304
1815,34304
1816,34368
1817,34432
1818,34368
1819,34368
1820,34432
1821,34368
1822,34368
1823,34496
1824,34560
1825,34624
1826,34752
1827,34880
1828,35008
1829,35008
1830,35008
1831,35008
1832,35072
1833,35136
1834,35200
1835,35264
1836,35264
1837,35264
1838,35136
1839,35008
1840,34752
1841,34432
1842,34112
1843,33856
1844,33664
1845,33600
1846,33600
1847,33600
1848,33664
1849,33728
1850,33728
1851,33664
1852,33536
1853,33344
1854,33024
1855,33024
1856,33536
1857,34624
1858,36288
1859,38336
1860,41024
1861,44288
1862,47040
1863,48192
1864,47616
1865,45376
1866,42240
1867,38848
1868,35712
1869,33152
1870,31360
1871,30336
1872,29888
1873,29760
1874,29888
1875,30080
1876,30336
1877,30720
1878,31040
1879,31424
1880,31680
1881,31936
1882,32192
1883,32448
1884,32576
1885,32768
1886,32896
1887,33024
1888,33216
1889,33408
1890,33600
1891,33792
1892,33856
1893,33984
1894,34112
1895,34240
1896,34304
1897,34432
1898,34560
1899,34752
1900,34880
1901,34944
1902,35072
1903,35200
1904,35328
1905,35392
1906,35456
1907,35520
1908,35520
1909,35520
1910,35392
1911,35392
1912,35264
1913,35200
1914,35072
1915,35008
1916,34880
1917,34624
1918,34432
1919,34240
1920,34048
1921,33920
1922,33728
1923,33536
1924,33472
1925,33344
1926,33280
1927,33216
1928,33216
1929,33152
1930,33152
1931,33088
1932,33088
1933,33152
1934,33152
1935,33216
1936,33280
1937,33408
1938,33472
1939,33536
1940,33600
1941,33728
1942,33792
1943,33856
1944,33856
1945,33920
1946,33984
1947,34048
1948,34112
1949,34176
1950,34176
1951,34176
1952,34240
1953,34240
1954,34304
1955,34176
1956,34176
1957,34176
1958,34176
1959,34112
1960,34112
1961,34176
1962,34240
1963,34176
1964,34176
1965,34112
1966,34112
1967,34112
1968,34112
1969,34112
1970,34176
1971,34176
1972,34176
1973,34176
1974,34176
1975,34176
1976,34176
1977,34112
1978,34112
1979,34112
1980,34112
1981,34112
1982,34176
1983,34176
1984,34176
1985,34112
1986,34176
1987,34240
1988,34240
1989,34176
1990,34240
1991,34240
1992,34176
1993,34176
1994,34176
1995,34240
1996,34240
1997,34176
1998,34176
1999,34240
2000,34240
2001,34240
2002,34240
2003,34240
2004,34304
2005,34304
2006,34368
2007,34496
2008,34624
2009,34624
2010,34688
2011,34752
2012,34880
2013,34880
2014,34880
2015,34880
2016,35008
2017,35072
2018,35072
2019,35072
2020,35072
2021,35008
2022,34816
2023,34560
2024,34368
2025,34176
2026,33984
2027,33792
2028,33664
2029,33600
2030,33536
2031,33536
2032,33600
2033,33664
2034,33600
2035,33408
2036,33088
2037,32832
2038,32896
2039,33472
2040,34624
2041,36416
2042,38656
2043,41536
2044,44928
2045,47552
2046,48512
2047,47616
2048,44800
2049,41856
2050,38528
2051,35456
2052,32896
2053,31232
2054,30272
2055,29888
2056,29824
2057,29888
2058,30144
2059,30336
2060,30592
2061,30976
2062,31296
2063,31616
2064,31872
2065,32128
2066,32448
2067,32640
2068,32768
2069,32960
2070,33088
2071,33216
2072,33280
2073,33408
2074,33536
2075,33664
2076,33792
2077,33856
2078,34048
2079,34176
2080,34304
2081,34432
2082,34560
2083,34688
2084,34752
2085,34816
2086,34944
2087,35072
2088,35136
2089,35136
2090,35200
2091,35200
2092,35200
2093,35072
2094,35008
2095,35008
2096,34944
2097,34816
2098,34688
2099,34624
2100,34432
2101,34240
2102,34048
2103,33920
2104,33728
2105,33600
2106,33408
2107,33280
2108,33216
2109,33088
2110,33024
2111,33024
2112,33088
2113,33088
2114,33088
2115,33088
2116,33152
2117,33216
2118,33216
2119,33344
2120,33472
2121,33536
2122,33600
2123,33600
2124,33728
2125,33792
2126,33856
2127,33856
2128,33984
2129,33984
2130,33984
2131,33920
2132,33984
2133,34048
2134,34112
2135,34112
2136,34176
2137,34176
2138,34176
2139,34176
2140,34176
2141,34176
2142,34112
2143,34112
2144,34176
2145,34176
2146,34176
2147,34176
2148,34176
2149,34112
2150,34112
2151,34048
2152,34112
2153,34112
2154,34112
2155,34112
2156,34112
2157,34112
2158,34176
2159,34176
2160,34176
2161,34176
2162,34176
2163,34176
2164,34176
2165,34176
2166,34240
2167,34304
2168,34240
2169,34240
2170,34240
2171,34240
2172,34240
2173,34240
2174,34240
2175,34304
2176,34240
2177,34240
2178,34240
2179,34304
2180,34304
2181,34304
2182,34304
2183,34304
2184,34240
2185,34176
2186,34176
2187,34304
2188,34368
2189,34368
2190,34432
2191,34432
2192,34496
2193,34496
2194,34560
2195,34688
2196,34752
2197,34816
2198,34880
2199,34880
2200,34944
2201,35008
2202,35008
2203,35072
2204,35136
2205,35136
2206,35136
2207,35008
2208,34880
2209,34560
2210,34240
2211,33984
2212,33792
2213,33600
2214,33536
2215,33536
2216,33600
2217,33664
2218,33728
2219,33664
2220,33600
2221,33280
2222,32832
2223,32640
2224,33024
2225,33984
2226,35456
2227,37504
2228,40128
2229,43328
2230,46400
2231,48064
2232,47936
2233,46016
2234,42944
2235,39552
2236,36416
2237,33856
2238,31936
2239,30720
2240,30144
2241,30016
2242,30016
2243,30208
2244,30336
2245,30656
2246,31040
2247,31296
2248,31552
2249,31872
2250,32128
2251,32320
2252,32512
2253,32704
2254,32896
2255,33024
2256,33216
2257,33344
2258,33536
2259,33600
2260,33664
2261,33856
2262,33984
2263,34112
2264,34240
2265,34304
2266,34496
2267,34560
2268,34624
2269,34688
2270,34816
2271,34944
2272,35008
2273,35200
2274,35264
2275,35328
2276,35392
2277,35328
2278,35328
2279,35264
2280,35136
2281,35008
2282,34880
2283,34816
2284,34688
2285,34624
2286,34496
2287,34304
2288,34112
2289,33856
2290,33664
2291,33600
2292,33472
2293,33280
2294,33152
2295,33152
2296,33088
2297,32960
2298,32896
2299,32960
2300,33024
2301,33024
2302,33024
2303,33152
2304,33280
2305,33280
2306,33344
2307,33408
2308,33536
2309,33536
2310,33600
2311,33728
2312,33856
2313,33920
2314,33920
2315,33920
2316,33984
2317,34048
2318,34048
2319,34048
2320,34112
2321,34176
2322,34176
2323,34176
2324,34176
2325,34240
2326,34176
2327,34176
2328,34176
2329,34240
2330,34176
2331,34112
2332,34112
2333,34176
2334,34176
2335,34176
2336,34176
2337,34176
2338,34176
2339,34112
2340,34112
2341,34112
2342,34112
2343,34112
2344,34112
2345,34112
2346,34240
2347,34240
2348,34240
2349,34240
2350,34240
2351,34176
2352,34176
2353,34176
2354,34176
2355,34176
2356,34176
2357,34176
2358,34176
2359,34176
2360,34112
2361,34176
2362,34176
2363,34176
2364,34176
2365,34176
2366,34240
2367,34304
2368,34368
2369,34432
2370,34560
2371,34624
2372,34688
2373,34816
2374,34880
2375,34944
2376,34944
2377,34944
2378,35008
2379,35136
2380,35200
2381,35136
2382,35072
2383,35008
2384,34880
2385,34624
2386,34304
2387,33984
2388,33792
2389,33600
2390,33536
2391,33536
2392,33536
2393,33536
2394,33536
2395,33600
2396,33536
2397,33280
2398,32896
2399,32768
2400,33088
2401,33984
2402,35392
2403,37376
2404,39936
2405,43072
2406,46208
2407,47936
2408,47296
2409,45952
2410,42944
2411,39616
2412,36544
2413,33920
2414,31936
2415,30784
2416,30208
2417,30016
2418,30016
2419,30208
2420,30464
2421,30720
2422,31040
2423,31360
2424,31552
2425,31872
2426,32064
2427,32192
2428,32448
2429,32704
2430,32832
2431,32960
2432,33152
2433,33280
2434,33408
2435,33600
2436,33728
2437,33856
2438,33984
2439,33984
2440,34048
2441,34240
2442,34368
2443,34496
2444,34624
2445,34752
2446,34880
2447,35008
2448,35136
2449,35200
2450,35328
2451,35328
2452,35328
2453,35392
2454,35392
2455,35328
2456,35264
2457,35136
2458,35072
2459,34944
2460,34752
2461,34560
2462,34432
2463,34240
2464,34048
2465,33792
2466,33664
2467,33600
2468,33408
2469,33280
2470,33216
2471,33152
2472,33088
2473,33024
2474,33024
2475,33088
2476,33024
2477,33088
2478,33216
2479,33344
2480,33344
2481,33344
2482,33408
2483,33600
2484,33600
2485,33664
2486,33792
2487,33856
2488,33856
2489,33856
2490,33920
2491,33984
2492,34048
2493,34048
2494,34112
2495,34240
2496,34304
2497,34240
2498,34240
2499,34240
2500,34240
2501,34176
2502,34176
2503,34240
2504,34240
2505,34240
2506,34176
2507,34176
2508,34176
2509,34176
2510,34176
2511,34240
2512,34304
2513,34304
2514,34240
2515,34240
2516,34240
2517,34176
2518,34176
2519,34176
2520,34240
2521,34176
2522,34176
2523,34176
2524,34176
2525,34112
2526,34048
2527,34112
2528,34176
2529,34176
2530,34112
2531,34112
2532,34176
2533,34176
2534,34240
2535,34240
2536,34304
2537,34304
2538,34240
2539,34240
2540,34304
2541,34304
2542,34304
2543,34304
2544,34304
2545,34432
2546,34368
2547,34368
2548,34432
2549,34496
2550,34560
2551,34624
2552,34688
2553,34880
2554,34944
2555,34880
2556,34816
2557,34944
2558,34944
2559,35072
2560,35136
2561,35200
2562,35200
2563,35072
2564,34880
2565,34624
2566,34368
2567,34048
2568,33856
2569,33792
2570,33728
2571,33664
2572,33600
2573,33536
2574,33600
2575,33600
2576,33536
2577,33344
2578,33152
2579,32832
2580,32832
2581,33408
2582,34496
2583,36160
2584,38336
2585,41280
2586,42048
2587,47936
2588,47872
2589,48064
2590,45760
2591,42496
2592,39040
2593,35840
2594,33216
2595,31488
2596,30400
2597,29824
2598,29760
2599,29888
2600,30080
2601,30336
2602,30592
2603,30912
2604,31232
2605,31552
2606,31808
2607,32128
2608,32320
2609,32448
2610,32640
2611,32832
2612,33024
2613,33088
2614,33216
2615,33408
2616,33536
2617,33664
2618,33600
2619,33728
2620,34112
2621,34240
2622,34304
2623,34368
2624,34496
2625,34624
2626,34752
2627,34880
2628,35072
2629,35200
2630,35264
2631,35328
2632,35456
2633,35520
2634,35456
2635,35456
2636,35456
2637,35392
2638,35200
2639,35008
2640,34880
2641,34752
2642,34624
2643,34496
2644,34304
2645,34112
2646,33920
2647,33664
2648,33536
2649,33408
2650,33216
2651,33088
2652,33024
2653,33024
2654,32960
2655,32960
2656,32960
2657,33024
2658,33088
2659,33152
2660,33152
2661,33216
2662,33408
2663,33472
2664,33536
2665,33664
2666,33728
2667,33728
2668,33728
2669,33792
2670,33920
2671,33920
2672,33920
2673,33920
2674,33984
2675,33984
2676,33984
2677,34048
2678,34112
2679,34176
2680,34112
2681,34112
2682,34176
2683,34176
2684,34112
2685,34048
2686,34112
2687,34176
2688,34240
2689,34240
2690,34240
2691,34240
2692,34112
2693,34112
2694,34176
2695,34240
2696,34176
2697,34112
2698,34048
2699,34112
2700,34112
2701,34112
2702,34112
2703,34176
2704,34176
2705,34112
2706,34112
2707,34112
2708,34112
2709,34112
2710,34112
2711,34176
2712,34176
2713,34176
2714,34176
2715,34240
2716,34240
2717,34240
2718,34176
2719,34176
2720,34240
2721,34304
2722,34304
2723,34304
2724,34240
2725,34240
2726,34176
2727,34240
2728,34304
2729,34304
2730,34368
2731,34432
2732,34624
2733,34752
2734,34816
2735,34880
2736,34880
2737,34880
2738,34880
2739,34880
2740,35008
2741,35136
2742,35136
2743,35072
2744,35072
2745,35008
2746,34816
2747,34560
2748,34304
2749,34048
2750,33856
2751,33728
2752,33600
2753,33600
2754,33600
2755,33600
2756,33600
2757,33664
2758,33600
2759,33344
2760,32960
2761,32832
2762,33216
2763,34048
2764,35456
2765,37632
2766,40064
2767,43200
2768,46464
2769,48128
2770,48256
2771,46464
2772,43456
2773,40064
2774,36800
2775,34048
2776,31936
2777,30656
2778,30080
2779,29888
2780,29888
2781,30016
2782,30272
2783,30656
2784,30912
2785,31232
2786,31488
2787,31744
2788,32000
2789,32256
2790,32448
2791,32640
2792,32832
2793,32960
2794,33152
2795,33344
2796,33472
2797,33536
2798,33664
2799,33856
2800,33984
2801,34048
2802,34176
2803,34368
2804,34496
2805,34560
2806,34624
2807,34816
2808,34944
2809,35008
2810,35072
2811,35136
2812,35264
2813,35328
2814,35392
2815,35392
2816,35392
2817,35328
2818,35200
2819,35136
2820,35072
2821,34944
2822,34752
2823,34560
2824,34432
2825,34176
2826,33984
2827,33792
2828,33664
2829,33472
2830,33344
2831,33152
2832,33088
2833,33024
2834,32960
2835,32832
2836,32832
2837,32960
2838,32960
2839,32960
2840,33024
2841,33152
2842,33152
2843,33216
2844,33280
2845,33472
2846,33536
2847,33472
2848,33536
2849,33600
2850,33728
2851,33728
2852,33792
2853,33856
2854,33920
2855,33920
2856,33984
2857,34048
2858,34112
2859,34048
2860,34048
2861,34112
2862,34176
2863,34176
2864,34176
2865,34176
2866,34176
2867,34112
2868,34048
2869,33984
2870,33984
2871,33984
2872,33920
2873,33920
2874,33984
2875,33984
2876,33984
2877,33984
2878,34048
2879,34048
2880,34112
2881,34112
2882,34176
2883,34240
2884,34176
2885,34112
2886,34176
2887,34176
2888,34112
2889,34048
2890,34048
2891,34112
2892,34176
2893,34240
2894,34240
2895,34240
2896,34176
2897,34112
2898,34112
2899,34240
2900,34368
2901,34432
2902,34496
2903,34560
2904,34624
2905,34688
2906,34688
2907,34816
2908,34880
2909,34880
2910,34816
2911,34880
2912,35008
2913,35072
2914,35136
2915,35200
2916,35200
2917,35072
2918,34816
2919,34560
2920,34304
2921,34048
2922,33792
2923,33664
2924,33600
2925,33536
2926,33536
2927,33600
2928,33664
2929,33664
2930,33536
2931,33280
2932,33024
2933,32768
2934,32896
2935,33536
2936,34816
2937,36608
2938,38912
2939,41728
2940,44736
2941,46912
2942,47296
2943,45888
2944,43200
2945,40128
2946,37184
2947,34496
2948,32448
2949,31168
2950,30464
2951,30208
2952,30144
2953,30400
2954,30656
2955,30784
2956,30976
2957,31360
2958,31744
2959,32064
2960,32320
2961,32512
2962,32704
2963,32832
2964,32960
2965,33024
2966,33152
2967,33280
2968,33344
2969,33408
2970,33536
2971,33664
2972,33792
2973,33920
2974,34112
2975,34240
2976,34304
2977,34432
2978,34624
2979,34688
2980,34752
2981,34816
2982,34880
2983,35072
2984,35200
2985,35264
2986,35328
2987,35392
2988,35392
2989,35264
2990,35264
2991,35200
2992,35072
2993,34944
2994,34816
2995,34688
2996,34560
2997,34368
2998,34240
2999,34112
3000,33984
3001,33792
3002,33664
3003,33472
3004,33280
3005,33152
3006,33088
3007,33088
3008,33088
3009,33088
3010,33152
3011,33152
3012,33280
3013,33280
3014,33344
3015,33472
3016,33664
3017,33664
3018,33664
3019,33664
3020,33792
3021,33856
3022,33856
3023,33856
3024,33920
3025,33920
3026,33920
3027,33984
3028,34048
3029,34112
3030,34176
3031,34176
3032,34176
3033,34240
3034,34304
3035,34304
3036,34240
3037,34240
3038,34240
3039,34176
3040,34240
3041,34304
3042,34304
3043,34304
3044,34176
3045,34176
3046,34176
3047,34112
3048,34112
3049,34304
3050,34304
3051,34240
3052,34176
3053,34240
3054,34240
3055,34176
3056,34112
3057,34176
3058,34304
3059,34304
3060,34240
3061,34304
3062,34432
3063,34560
3064,34624
3065,34688
3066,34688
3067,34752
3068,34752
3069,34752
3070,34880
3071,35008
3072,35072
3073,35072
3074,35072
3075,35008
3076,34944
3077,34816
3078,34688
3079,34432
3080,34112
3081,33920
3082,33728
3083,33728
3084,33664
3085,33728
3086,33792
3087,33856
3088,33792
3089,33664
3090,33408
3091,33024
3092,32832
3093,33024
3094,33664
3095,34880
3096,36608
3097,38720
3098,41344
3099,44224
3100,46208
3101,46464
3102,45056
3103,42624
3104,39808
3105,36992
3106,34560
3107,32640
3108,31424
3109,30784
3110,30592
3111,30592
3112,30720
3113,30848
3114,31104
3115,31360
3116,31680
3117,31936
3118,32128
3119,32384
3120,32704
3121,32832
3122,32960
3123,33088
3124,33216
3125,33344
3126,33472
3127,33536
3128,33600
3129,33728
3130,33856
3131,33920
3132,33984
3133,34176
3134,34240
3135,34304
3136,34432
3137,34624
3138,34688
3139,34752
3140,34816
3141,34880
3142,34944
3143,35072
3144,35136
3145,35200
3146,35200
3147,35136
3148,35008
3149,35008
3150,34944
3151,34880
3152,34688
3153,34560
3154,34432
3155,34240
3156,34112
3157,34048
3158,33920
3159,33792
3160,33664
3161,33600
3162,33536
3163,33472
3164,33280
3165,33216
3166,33216
3167,33280
3168,33344
3169,33344
3170,33280
3171,33280
3172,33280
3173,33344
3174,33472
3175,33664
3176,33664
3177,33728
3178,33792
3179,33856
3180,33856
3181,33920
3182,33984
3183,33984
3184,33984
3185,33984
3186,34048
3187,34048
3188,34112
3189,34048
3190,34048
3191,34112
3192,34240
3193,34240
3194,34176
3195,34112
3196,34112
3197,34112
3198,34112
3199,34176
3200,34240
3201,34176
3202,34112
3203,34176
3204,34240
3205,34176
3206,34112
3207,34112
3208,34112
3209,34176
3210,34176
3211,34176
3212,34240
3213,34240
3214,34240
3215,34176
3216,34240
3217,34240
3218,34368
3219,34496
3220,34560
3221,34624
3222,34624
3223,34624
3224,34624
3225,34752
3226,34880
3227,34944
3228,34944
3229,35008
3230,34944
3231,34816
3232,34752
3233,34624
3234,34368
3235,34112
3236,33920
3237,33856
3238,33728
3239,33600
3240,33536
3241,33600
3242,33664
3243,33664
3244,33600
3245,33536
3246,33280
3247,33024
3248,32896
3249,33344
3250,34304
3251,35648
3252,37504
3253,39808
3254,42560
3255,44928
3256,45952
3257,45504
3258,43712
3259,41152
3260,38400
3261,35520
3262,33600
3263,32064
3264,31104
3265,30656
3266,30592
3267,30656
3268,30912
3269,31104
3270,31360
3271,31552
3272,31744
3273,31936
3274,32128
3275,32384
3276,32576
3277,32704
3278,32896
3279,33088
3280,33216
3281,33344
3282,33536
3283,33600
3284,33728
3285,33792
3286,33920
3287,34112
3288,34176
3289,34176
3290,34176
3291,34368
3292,34496
3293,34560
3294,34688
3295,34816
3296,34944
3297,34944
3298,35008
3299,35072
3300,35136
3301,35136
3302,35072
3303,35072
3304,35072
3305,35008
3306,34880
3307,34752
3308,34688
3309,34560
3310,34368
3311,34176
3312,34048
3313,33984
3314,33856
3315,33728
3316,33664
3317,33536
3318,33408
3319,33344
3320,33408
3321,33472
3322,33472
3323,33472
3324,33472
3325,33536
3326,33536
3327,33600
3328,33664
3329,33856
3330,33920
3331,33920
3332,33984
3333,34048
3334,34048
3335,33984
3336,33984
3337,34048
3338,34048
3339,34048
3340,34112
3341,34240
3342,34240
3343,34304
3344,34240
3345,34240
3346,34304
3347,34304
3348,34304
3349,34304
3350,34368
3351,34368
3352,34304
3353,34368
3354,34304
3355,34304
3356,34176
3357,34176
3358,34240
3359,34240
3360,34176
3361,34176
3362,34176
3363,34240
3364,34240
3365,34240
3366,34240
3367,34304
3368,34304
3369,34368
3370,34432
3371,34560
3372,34624
3373,34688
3374,34752
3375,34816
3376,34816
3377,34816
3378,34880
3379,35008
3380,35136
3381,35136
3382,35072
3383,35072
3384,35072
3385,34944
3386,34688
3387,34496
3388,34240
3389,33984
3390,33728
3391,33728
3392,33728
3393,33664
3394,33664
3395,33664
3396,33728
3397,33728
3398,33536
3399,33280
3400,32896
3401,32896
3402,33216
3403,34048
3404,35392
3405,37248
3406,39488
3407,42304
3408,44992
3409,46336
3410,46080
3411,44288
3412,41792
3413,38976
3414,36224
3415,33856
3416,32064
3417,31040
3418,30528
3419,30336
3420,30336
3421,30528
3422,30784
3423,31040
3424,31360
3425,31680
3426,32000
3427,32192
3428,32384
3429,32576
3430,32704
3431,32768
3432,32960
3433,33152
3434,33280
3435,33408
3436,33472
3437,33664
3438,33792
3439,33856
3440,33920
3441,34048
3442,34176
3443,34304
3444,34368
3445,34496
3446,34624
3447,34688
3448,34752
3449,34880
3450,35008
3451,35136
3452,35136
3453,35200
3454,35200
3455,35136
3456,35072
3457,35008
3458,34944
3459,34880
3460,34752
3461,34560
3462,34496
3463,34432
3464,34304
3465,34048
3466,33984
3467,33920
3468,33792
3469,33600
3470,33472
3471,33408
3472,33408
3473,33280
3474,33280
3475,33280
3476,33280
3477,33280
3478,33280
3479,33408
3480,33536
3481,33600
3482,33664
3483,33728
3484,33792
3485,33792
3486,33728
3487,33728
3488,33792
3489,33792
3490,33856
3491,33984
3492,34048
3493,34048
3494,34048
3495,34048
3496,34112
3497,34112
3498,34048
3499,34048
3500,34176
3501,34176
3502,34176
3503,34176
3504,34240
3505,34304
3506,34240
3507,34176
3508,34176
3509,34240
3510,34240
3511,34240
3512,34240
3513,34240
3514,34176
3515,34176
3516,34176
3517,34112
3518,34048
3519,34112
3520,34240
3521,34304
3522,34304
3523,34304
3524,34368
3525,34432
3526,34560
3527,34624
3528,34688
3529,34816
3530,34944
3531,34944
3532,34944
3533,35072
3534,35136
3535,35136
3536,35136
3537,35136
3538,35072
3539,34944
3540,34688
3541,34496
3542,34304
3543,34112
3544,33856
3545,33728
3546,33664
3547,33664
3548,33664
3549,33664
3550,33728
3551,33728
3552,33664
3553,33344
3554,33024
3555,32896
3556,33280
3557,34048
3558,35456
3559,37376
3560,39680
3561,42560
3562,45184
3563,46720
3564,46592
3565,44864
3566,42240
3567,39232
3568,36352
3569,33856
3570,32064
3571,31040
3572,30528
3573,30336
3574,30400
3575,30592
3576,30784
3577,30976
3578,31168
3579,31488
3580,31744
3581,31936
3582,32128
3583,32384
3584,32640
3585,32832
3586,32960
3587,33088
3588,33216
3589,33344
3590,33472
3591,33600
3592,33792
3593,33856
3594,33920
3595,34048
3596,34240
3597,34368
3598,34432
3599,34560
3600,34688
3601,34816
3602,34880
3603,34944
3604,35072
3605,35200
3606,35264
3607,35264
3608,35328
3609,35392
3610,35328
3611,35264
3612,35136
3613,35072
3614,34944
3615,34816
3616,34752
3617,34624
3618,34432
3619,34304
3620,34112
3621,33920
3622,33792
3623,33600
3624,33472
3625,33472
3626,33408
3627,33280
3628,33216
3629,33216
3630,33280
3631,33280
3632,33280
3633,33344
3634,33472
3635,33536
3636,33536
3637,33664
3638,33728
3639,33728
3640,33728
3641,33728
3642,33856
3643,33920
3644,33920
3645,33920
3646,33984
3647,34048
3648,34048
3649,34112
3650,34176
3651,34176
3652,34176
3653,34176
3654,34240
3655,34304
3656,34240
3657,34240
3658,34240
3659,34304
3660,34304
3661,34304
3662,34304
3663,34304
3664,34240
3665,34240
3666,34176
3667,34240
3668,34240
3669,34176
3670,34112
3671,34176
3672,34176
3673,34176
3674,34112
3675,34176
3676,34240
3677,34176
3678,34176
3679,34240
3680,34304
3681,34240
3682,34176
3683,34240
3684,34304
3685,34368
3686,34432
3687,34560
3688,34688
3689,34752
3690,34816
3691,34944
3692,34944
3693,34944
3694,34944
3695,35008
3696,35136
3697,35200
3698,35200
3699,35072
3700,35008
3701,34880
3702,34752
3703,34496
3704,34176
3705,33920
3706,33728
3707,33600
3708,33536
3709,33472
3710,33408
3711,33472
3712,33536
3713,33600
3714,33472
3715,33216
3716,32896
3717,32832
3718,33280
3719,34176
3720,35712
3721,37696
3722,40256
3723,43328
3724,46336
3725,48064
3726,47936
3727,46016
3728,42944
3729,39552
3730,36416
3731,33792
3732,31808
3733,30720
3734,30144
3735,29888
3736,29888
3737,30080
3738,30336
3739,30592
3740,30784
3741,31104
3742,31424
3743,31744
3744,32000
3745,32192
3746,32512
3747,32704
3748,32832
3749,32960
3750,33152
3751,33280
3752,33408
3753,33472
3754,33664
3755,33792
3756,33920
3757,34048
3758,34176
3759,34368
3760,34432
3761,34560
3762,34688
3763,34880
3764,35008
3765,35072
3766,35200
3767,35328
3768,35392
3769,35456
3770,35456
3771,35520
3772,35456
3773,35392
3774,35264
3775,35136
3776,35008
3777,34816
3778,34624
3779,34560
3780,34432
3781,34240
3782,34048
3783,33920
3784,33792
3785,33600
3786,33408
3787,33280
3788,33216
3789,33152
3790,33088
3791,33088
3792,33152
3793,33216
3794,33216
3795,33216
3796,33344
3797,33344
3798,33344
3799,33408
3800,33536
3801,33664
3802,33728
3803,33792
3804,33856
3805,33920
3806,33920
3807,33920
3808,33920
3809,34048
3810,34112
3811,34112
3812,34176
3813,34240
3814,34240
3815,34240
3816,34240
3817,34304
3818,34304
3819,34304
3820,34304
3821,34304
3822,34304
3823,34240
3824,34176
3825,34240
3826,34240
3827,34240
3828,34240
3829,34240
3830,34240
3831,34240
3832,34240
3833,34240
3834,34240
3835,34240
3836,34176
3837,34112
3838,34176
3839,34240
3840,34240
3841,34240
3842,34304
3843,34304
3844,34304
3845,34240
3846,34304
3847,34304
3848,34304
3849,34240
3850,34304
3851,34304
3852,34368
3853,34304
3854,34368
3855,34368
3856,34304
3857,34304
3858,34368
3859,34496
3860,34560
3861,34688
3862,34752
3863,34880
3864,34944
3865,35008
3866,35008
3867,35008
3868,34944
3869,35008
3870,35072
3871,35200
3872,35328
3873,35328
3874,35200
3875,35072
3876,34816
3877,34496
3878,34112
3879,33920
3880,33856
3881,33792
3882,33728
3883,33664
3884,33664
3885,33664
3886,33728
3887,33664
3888,33664
3889,33472
3890,33152
3891,33024
3892,33344
3893,34304
3894,35456
3895,37248
3896,39680
3897,42752
3898,46080
3899,48448
3900,49088
3901,47680
3902,44736
3903,41152
3904,37696
3905,34688
3906,32384
3907,30848
3908,30016
3909,29696
3910,29632
3911,29696
3912,29952
3913,30272
3914,30592
3915,30912
3916,31168
3917,31488
3918,31808
3919,32064
3920,32192
3921,32384
3922,32640
3923,32768
3924,32832
3925,33024
3926,33216
3927,33408
3928,33536
3929,33728
3930,33856
3931,33984
3932,34112
3933,34240
3934,34368
3935,34496
3936,34624
3937,34752
3938,34944
3939,35072
3940,35200
3941,35328
3942,35392
3943,35392
3944,35328
3945,35328
3946,35392
3947,35392
3948,35328
3949,35264
3950,35200
3951,35136
3952,35008
3953,34816
3954,34688
3955,34496
3956,34368
3957,34112
3958,33920
3959,33792
3960,33600
3961,33408
3962,33280
3963,33216
3964,33152
3965,33088
3966,33088
3967,33088
3968,33152
3969,33216
3970,33216
3971,33280
3972,33344
3973,33408
3974,33472
3975,33472
3976,33600
3977,33664
3978,33728
3979,33792
3980,33856
3981,33920
3982,33920
3983,33984
3984,34112
3985,34112
3986,34048
3987,34048
3988,34112
3989,34176
3990,34176
3991,34176
3992,34240
3993,34240
3994,34176
3995,34176
3996,34240
3997,34304
3998,34240
3999,34112
4000,34048
4001,34048
4002,34048
4003,34112
4004,34176
4005,34240
4006,34176
4007,34112
4008,34112
4009,34176
4010,34240
4011,34176
4012,34176
4013,34176
4014,34176
4015,34176
4016,34176
4017,34240
4018,34240
4019,34240
4020,34240
4021,34304
4022,34304
4023,34240
4024,34176
4025,34176
4026,34240
4027,34240
4028,34112
4029,34112
4030,34112
4031,34176
4032,34240
4033,34240
4034,34240
4035,34304
4036,34368
4037,34496
4038,34624
4039,34752
4040,34816
4041,34880
4042,35008
4043,35072
4044,35072
4045,35008
4046,35008
4047,35072
4048,35136
4049,35200
4050,35264
4051,35200
4052,35072
4053,34880
4054,34688
4055,34496
4056,34112
4057,33856
4058,33664
4059,33664
4060,33664
4061,33664
4062,33664
4063,33664
4064,33664
4065,33664
4066,33472
4067,33280
4068,33024
4069,32896
4070,33280
4071,34176
4072,35776
4073,37888
4074,40576
4075,43840
4076,46848
4077,48448
4078,48384
4079,46400
4080,43264
4081,39744
4082,36480
4083,33728
4084,31808
4085,30592
4086,29952
4087,29696
4088,29760
4089,29952
4090,30272
4091,30528
4092,30848
4093,31168
4094,31424
4095,31680
4096,32000
4097,32256
4098,32448
4099,32704
4100,32896
4101,33088
4102,33216
4103,33408
4104,33472
4105,33536
4106,33600
4107,33664
4108,33792
4109,33984
4110,34176
4111,34240
4112,34368
4113,34560
4114,34688
4115,34752
4116,34816
4117,34944
4118,35200
4119,35328
4120,35392
4121,35392
4122,35392
4123,35392
4124,35328
4125,35328
4126,35328
4127,35264
4128,35072
4129,34880
4130,34816
4131,34688
4132,34560
4133,34304
4134,34176
4135,33984
4136,33792
4137,33536
4138,33472
4139,33408
4140,33344
4141,33216
4142,33152
4143,33152
4144,33088
4145,33024
4146,33088
4147,33152
4148,33216
4149,33216
4150,33280
4151,33344
4152,33408
4153,33472
4154,33472
4155,33536
4156,33600
4157,33728
4158,33728
4159,33792
4160,33856
4161,33920
4162,33984
4163,33984
4164,34048
4165,34048
4166,34112
4167,34112
4168,34176
4169,34176
4170,34176
4171,34176
4172,34176
4173,34176
4174,34112
4175,34112
4176,34112
4177,34112
4178,34112
4179,34112
4180,34112
4181,34176
4182,34112
4183,34112
4184,34176
4185,34240
4186,34240
4187,34112
4188,34048
4189,34048
4190,34048
4191,33984
4192,34048
4193,34048
4194,34048
4195,34048
4196,34048
4197,34112
4198,34176
4199,34176
4200,34176
4201,34240
4202,34240
4203,34176
4204,34176
4205,34240
4206,34176
4207,34176
4208,34176
4209,34240
4210,34304
4211,34368
4212,34432
4213,34624
4214,34752
4215,34816
4216,34816
4217,34880
4218,34944
4219,34880
4220,34880
4221,34880
4222,34944
4223,35072
4224,35072
4225,35072
4226,35136
4227,35072
4228,34944
4229,34688
4230,34368
4231,34048
4232,33856
4233,33664
4234,33600
4235,33600
4236,33600
4237,33600
4238,33664
4239,33728
4240,33728
4241,33536
4242,33344
4243,33024
4244,32896
4245,33280
4246,34304
4247,35904
4248,37952
4249,40512
4250,43776
4251,46592
4252,48128
4253,47872
4254,45888
4255,42816
4256,39424
4257,36224
4258,33536
4259,31616
4260,30528
4261,29952
4262,29760
4263,29824
4264,30016
4265,30272
4266,30592
4267,30912
4268,31424
4269,31552
4270,31744
4271,31936
4272,32192
4273,32448
4274,32640
4275,32832
4276,33024
4277,33088
4278,33216
4279,33344
4280,33536
4281,33664
4282,33792
4283,33792
4284,33920
4285,34112
4286,34240
4287,34304
4288,34368
4289,34560
4290,34624
4291,34752
4292,34944
4293,35136
4294,35264
4295,35328
4296,35456
4297,35456
4298,35392
4299,35328
4300,35328
4301,35264
4302,35200
4303,35072
4304,34944
4305,34880
4306,34752
4307,34496
4308,34304
4309,34112
4310,33984
4311,33792
4312,33600
4313,33472
4314,33344
4315,33280
4316,33216
4317,33216
4318,33280
4319,33216
4320,33152
4321,33152
4322,33280
4323,33344
4324,33344
4325,33344
4326,33472
4327,33536
4328,33600
4329,33664
4330,33664
4331,33728
4332,33728
4333,33728
4334,33920
4335,33856
4336,33856
4337,33856
4338,33920
4339,33984
4340,33984
4341,33984
4342,34048
4343,33984
4344,33984
4345,34048
4346,34048
4347,34112
4348,34048
4349,33984
4350,33984
4351,34048
4352,34048
4353,34048
4354,34048
4355,34112
4356,34048
4357,33984
4358,33920
4359,34048
4360,34048
4361,33984
4362,33984
4363,34112
4364,34112
4365,34048
4366,34048
4367,34048
4368,34112
4369,34112
4370,34048
4371,34048
4372,33984
4373,33920
4374,33984
4375,34112
4376,34176
4377,34176
4378,34176
4379,34240
4380,34304
4381,34304
4382,34304
4383,34368
4384,34560
4385,34624
4386,34752
4387,34880
4388,34944
4389,34944
4390,34880
4391,34880
4392,35008
4393,34944
4394,35136
4395,35072
4396,35072
4397,35008
4398,34816
4399,34560
4400,34240
4401,34048
4402,33728
4403,33664
4404,33536
4405,33536
4406,33536
4407,33536
4408,33600
4409,33600
4410,33536
4411,33408
4412,33088
4413,32832
4414,32896
4415,33408
4416,34432
4417,37056
4418,37312
4419,41280
4420,44608
4421,47296
4422,48384
4423,47680
4424,45376
4425,42112
4426,38720
4427,35520
4428,32960
4429,31296
4430,30336
4431,29824
4432,29632
4433,29760
4434,30016
4435,30336
4436,30592
4437,30848
4438,31168
4439,31488
4440,31744
4441,32000
4442,32256
4443,32512
4444,32640
4445,32768
4446,32960
4447,33152
4448,33152
4449,33408
4450,33600
4451,33792
4452,33920
4453,34048
4454,34176
4455,34304
4456,34368
4457,34496
4458,34560
4459,34752
4460,34816
4461,34944
4462,35008
4463,35136
4464,35136
4465,35328
4466,35328
4467,35392
4468,35392
4469,35264
4470,35200
4471,35136
4472,35136
4473,35008
4474,34880
4475,34816
4476,34752
4477,34496
4478,34368
4479,34176
4480,33984
4481,33728
4482,33536
4483,33472
4484,33472
4485,33344
4486,33216
4487,33152
4488,33088
4489,33024
4490,33024
4491,33024
4492,33152
4493,33216
4494,33280
4495,33344
4496,33472
4497,33600
4498,33664
4499,33728
4500,33856
4501,33920
4502,33920
4503,33920
4504,33920
4505,33920
4506,33920
4507,33920
4508,33856
4509,34048
4510,34048
4511,34112
4512,34112
4513,34048
4514,34048
4515,34048
4516,34048
4517,34048
4518,34048
4519,34048
4520,34112
4521,34112
4522,34112
4523,34048
4524,33984
4525,34048
4526,34176
4527,34176
4528,34176
4529,34176
4530,34176
4531,34176
4532,34112
4533,34112
4534,34176
4535,34112
4536,34048
4537,34048
4538,34112
4539,34176
4540,34112
4541,34112
4542,34176
4543,34176
4544,34176
4545,34240
4546,34304
4547,34432
4548,34432
4549,34560
4550,34624
4551,34752
4552,34880
4553,34816
4554,34944
4555,34944
4556,34880
4557,34880
4558,34880
4559,35008
4560,35072
4561,35072
4562,35136
4563,35072
4564,34944
4565,34624
4566,34304
4567,33920
4568,33856
4569,33664
4570,33536
4571,33472
4572,33472
4573,33536
4574,33536
4575,33664
4576,33664
4577,33536
4578,33152
4579,32832
4580,32832
4581,33216
4582,34752
4583,34752
4584,37952
4585,40640
4586,43840
4587,46656
4588,48192
4589,47936
4590,45824
4591,42624
4592,39232
4593,36096
4594,33408
4595,31552
4596,30464
4597,30016
4598,29888
4599,29952
4600,30208
4601,30528
4602,30784
4603,30976
4604,31296
4605,31552
4606,31808
4607,32000
4608,32256
4609,32448
4610,32704
4611,32768
4612,32896
4613,33024
4614,33216
4615,33408
4616,33536
4617,33664
4618,33856
4619,33984
4620,34048
4621,34176
4622,34304
4623,34432
4624,34560
4625,34688
4626,34816
4627,34880
4628,35008
4629,35136
4630,35264
4631,35328
4632,35328
4633,35328
4634,35328
4635,35264
4636,35200
4637,35136
4638,35136
4639,35072
4640,34944
4641,34880
4642,34752
4643,34560
4644,34432
4645,34240
4646,34048
4647,33856
4648,33664
4649,33408
4650,33280
4651,33216
4652,33216
4653,33152
4654,33088
4655,33152
4656,33152
4657,33152
4658,33152
4659,33152
4660,33216
4661,33216
4662,33280
4663,33472
4664,33536
4665,33536
4666,33600
4667,33728
4668,33792
4669,33792
4670,33792
4671,33792
4672,33856
4673,33920
4674,33984
4675,34048
4676,34112
4677,34112
4678,34048
4679,34048
4680,34112
4681,34112
4682,34112
4683,34112
4684,34112
4685,34112
4686,34112
4687,34112
4688,34112
4689,34112
4690,34048
4691,34048
4692,34112
4693,34112
4694,34048
4695,34048
4696,34048
4697,34112
4698,34112
4699,34048
4700,34048
4701,34112
4702,34112
4703,34112
4704,34176
4705,34240
4706,34176
4707,34176
4708,34176
4709,34240
4710,34240
4711,34240
4712,34368
4713,34496
4714,34624
4715,34688
4716,34752
4717,34880
4718,34880
4719,34880
4720,34880
4721,35008
4722,35200
4723,35200
4724,35200
4725,35136
4726,35072
4727,34944
4728,34624
4729,34304
4730,33984
4731,33728
4732,33600
4733,33536
4734,33536
4735,33536
4736,33536
4737,33600
4738,33664
4739,33664
4740,33472
4741,33152
4742,32832
4743,32832
4744,33344
4745,34432
4746,36160
4747,38400
4748,41280
4749,44480
4750,47168
4751,48384
4752,47744
4753,45376
4754,42048
4755,38656
4756,35520
4757,32960
4758,31296
4759,30336
4760,29952
4761,29888
4762,29952
4763,30208
4764,30464
4765,30720
4766,30976
4767,31296
4768,31680
4769,31872
4770,32064
4771,32256
4772,32512
4773,32640
4774,32832
4775,32960
4776,33152
4777,33344
4778,33408
4779,33600
4780,33792
4781,33920
4782,33984
4783,33984
4784,34112
4785,34304
4786,34432
4787,34560
4788,34688
4789,34880
4790,34944
4791,35008
4792,35136
4793,35264
4794,35328
4795,35264
4796,35264
4797,35264
4798,35264
4799,35136
4800,35072
4801,35072
4802,35008
4803,34880
4804,34752
4805,34624
4806,34496
4807,34240
4808,34048
4809,33920
4810,33856
4811,33664
4812,33472
4813,33408
4814,33280
4815,33216
4816,33152
4817,33152
4818,33152
4819,33152
4820,33152
4821,33216
4822,33344
4823,33408
4824,33472
4825,33472
4826,33536
4827,33664
4828,33728
4829,33728
4830,33920
4831,33984
4832,33920
4833,33856
4834,33920
4835,33920
4836,33984
4837,34048
4838,34112
4839,34112
4840,34048
4841,34048
4842,34048
4843,34048
4844,34048
4845,33984
4846,33984
4847,34048
4848,34048
4849,34048
4850,34048
4851,34048
4852,34048
4853,34112
4854,34112
4855,34112
4856,34112
4857,34048
4858,34048
4859,34048
4860,34048
4861,34112
4862,34112
4863,34112
4864,34176
4865,34112
4866,34112
4867,34112
4868,34176
4869,34240
4870,34304
4871,34432
4872,34560
4873,34624
4874,34688
4875,34752
4876,34816
4877,34816
4878,34880
4879,34944
4880,35072
4881,35136
4882,35200
4883,35200
4884,35136
4885,35008
4886,34752
4887,34432
4888,34112
4889,33856
4890,33664
4891,33536
4892,33472
4893,33536
4894,33536
4895,33600
4896,33600
4897,33664
4898,33600
4899,33344
4900,32896
4901,32704
4902,32896
4903,33664
4904,34944
4905,36864
4906,39360
4907,42432
4908,45632
4909,47808
4910,48192
4911,46592
4912,43712
4913,40384
4914,37184
4915,34304
4916,32128
4917,30784
4918,30144
4919,29888
4920,29888
4921,30080
4922,30336
4923,30656
4924,30912
4925,31232
4926,31488
4927,31744
4928,32000
4929,32192
4930,32448
4931,32640
4932,32768
4933,32896
4934,33152
4935,33280
4936,33344
4937,33408
4938,33536
4939,33664
4940,33792
4941,33920
4942,34112
4943,34304
4944,34432
4945,34432
4946,34560
4947,34688
4948,34752
4949,34880
4950,34944
4951,35008
4952,35136
4953,35136
4954,35200
4955,35264
4956,35264
4957,35200
4958,35136
4959,35072
4960,34944
4961,34752
4962,34624
4963,34560
4964,34432
4965,34304
4966,34112
4967,33920
4968,33792
4969,33664
4970,33536
4971,33408
4972,33344
4973,33344
4974,33280
4975,33280
4976,33280
4977,33216
4978,33216
4979,33216
4980,33280
4981,33344
4982,33408
4983,33408
4984,33536
4985,33664
4986,33728
4987,33728
4988,33792
4989,33920
4990,33920
4991,33920
4992,33984
4993,34048
4994,34048
4995,33984
4996,33984
4997,33984
4998,34048
4999,33984
5000,34048
5001,34112
5002,34112
5003,34112
5004,34112
5005,34176
5006,34176
5007,34112
5008,34112
5009,34112
5010,34112
5011,34048
5012,34048
5013,34048
5014,34048
5015,34048
5016,34048
5017,34112
5018,34112
5019,34112
5020,34112
5021,34112
5022,34176
5023,34176
5024,34304
5025,34432
5026,34560
5027,34688
5028,34752
5029,34752
5030,34816
5031,34880
5032,34944
5033,35008
5034,35072
5035,35136
5036,35136
5037,35072
5038,35008
5039,34816
5040,34496
5041,34176
5042,33856
5043,33728
5044,33600
5045,33536
5046,33472
5047,33472
5048,33472
5049,33472
5050,33472
5051,33408
5052,33280
5053,32896
5054,32576
5055,32768
5056,33536
5057,34816
5058,36672
5059,39040
5060,41920
5061,44928
5062,46976
5063,47168
5064,45760
5065,43008
5066,39872
5067,36864
5068,34240
5069,32256
5070,30976
5071,30336
5072,30208
5073,30272
5074,30400
5075,30656
5076,30976
5077,31296
5078,31552
5079,31744
5080,32000
5081,32192
5082,32384
5083,32576
5084,32768
5085,32960
5086,33088
5087,33152
5088,33280
5089,33408
5090,33472
5091,33536
5092,33728
5093,33856
5094,34048
5095,34112
5096,34176
5097,34368
5098,34496
5099,34496
5100,34560
5101,34688
5102,34816
5103,34880
5104,34880
5105,34944
5106,35008
5107,35008
5108,34944
5109,35008
5110,35008
5111,34944
5112,34880
5113,34816
5114,34752
5115,34624
5116,34496
5117,34368
5118,34240
5119,34112
5120,33984
5121,33856
5122,33728
5123,33536
5124,33344
5125,33280
5126,33216
5127,33216
5128,33152
5129,33152
5130,33216
5131,33344
5132,33408
5133,33344
5134,33344
5135,33472
5136,33536
5137,33600
5138,33664
5139,33792
5140,33792
5141,33728
5142,33792
5143,33856
5144,33920
5145,33984
5146,33984
5147,34048
5148,34112
5149,34112
5150,34112
5151,34176
5152,34176
5153,34176
5154,34112
5155,34176
5156,34176
5157,34176
5158,34176
5159,34176
5160,34240
5161,34240
5162,34240
5163,34240
5164,34240
5165,34240
5166,34176
5167,34176
5168,34176
5169,34240
5170,34240
5171,34304
5172,34432
5173,34560
5174,34624
5175,34624
5176,34688
5177,34752
5178,34816
5179,34880
5180,35008
5181,35136
5182,35264
5183,35264
5184,35264
5185,35264
5186,35136
5187,34816
5188,34496
5189,34240
5190,33984
5191,33792
5192,33600
5193,33600
5194,33600
5195,33536
5196,33600
5197,33664
5198,33664
5199,33536
5200,33280
5201,32960
5202,32704
5203,32832
5204,33536
5205,34944
5206,36864
5207,39232
5208,42048
5209,44992
5210,46976
5211,47168
5212,45504
5213,42816
5214,39808
5215,36800
5216,34176
5217,32128
5218,30912
5219,30400
5220,30208
5221,30272
5222,30464
5223,30720
5224,30976
5225,31232
5226,31488
5227,31744
5228,31936
5229,32128
5230,32320
5231,32512
5232,32704
5233,32832
5234,33024
5235,33216
5236,33344
5237,33408
5238,33536
5239,33600
5240,33728
5241,33792
5242,33920
5243,34112
5244,34240
5245,34368
5246,34432
5247,34560
5248,34688
5249,34752
5250,34816
5251,34944
5252,35072
5253,35136
5254,35136
5255,35136
5256,35136
5257,35136
5258,35008
5259,34944
5260,34880
5261,34752
5262,34624
5263,34496
5264,34432
5265,34368
5266,34176
5267,34048
5268,33920
5269,33856
5270,33728
5271,33600
5272,33536
5273,33472
5274,33408
5275,33344
5276,33344
5277,33408
5278,33344
5279,33344
5280,33408
5281,33472
5282,33472
5283,33536
5284,33600
5285,33728
5286,33792
5287,33792
5288,33856
5289,33984
5290,34048
5291,34048
5292,34112
5293,34112
5294,34176
5295,34176
5296,34176
5297,34240
5298,34304
5299,34304
5300,34304
5301,34304
5302,34304
5303,34304
5304,34304
5305,34304
5306,34304
5307,34304
5308,34240
5309,34240
5310,34240
5311,34176
5312,34112
5313,34112
5314,34176
5315,34176
5316,34176
5317,34240
5318,34368
5319,34432
5320,34432
5321,34496
5322,34624
5323,34752
5324,34816
5325,34880
5326,34944
5327,35008
5328,35072
5329,35072
5330,35200
5331,35200
5332,35264
5333,35136
5334,35008
5335,34816
5336,34560
5337,34176
5338,33920
5339,33728
5340,33600
5341,33536
5342,33472
5343,33536
5344,33600
5345,33600
5346,33536
5347,33472
5348,33216
5349,32832
5350,32640
5351,32960
5352,33856
5353,35264
5354,37184
5355,39680
5356,42752
5357,45888
5358,47936
5359,48192
5360,46528
5361,43584
5362,40192
5363,36800
5364,34112
5365,32128
5366,30784
5367,30144
5368,29888
5369,30016
5370,30144
5371,30336
5372,30592
5373,30912
5374,31168
5375,31424
5376,31680
5377,32000
5378,32192
5379,32384
5380,32576
5381,32768
5382,32960
5383,33088
5384,33216
5385,33344
5386,33472
5387,33536
5388,33664
5389,33856
5390,33984
5391,34048
5392,34176
5393,34304
5394,34496
5395,34624
5396,34752
5397,34880
5398,35008
5399,35072
5400,35136
5401,35200
5402,35264
5403,35328
5404,35200
5405,35200
5406,35136
5407,35072
5408,35008
5409,34944
5410,34880
5411,34752
5412,34560
5413,34368
5414,34240
5415,34048
5416,33856
5417,33728
5418,33664
5419,33536
5420,33408
5421,33344
5422,33344
5423,33344
5424,33280
5425,33280
5426,33216
5427,33280
5428,33344
5429,33408
5430,33472
5431,33600
5432,33600
5433,33600
5434,33664
5435,33728
5436,33792
5437,33856
5438,33920
5439,34048
5440,34112
5441,34048
5442,34048
5443,34112
5444,34176
5445,34176
5446,34240
5447,34240
5448,34240
5449,34240
5450,34240
5451,34240
5452,34304
5453,34304
5454,34240
5455,34240
5456,34304
5457,34240
5458,34176
5459,34176
5460,34176
5461,34240
5462,34176
5463,34176
5464,34304
5465,34304
5466,34304
5467,34304
5468,34368
5469,34496
5470,34560
5471,34624
5472,34752
5473,34816
5474,34880
5475,34816
5476,34816
5477,34944
5478,35008
5479,35072
5480,35072
5481,35136
5482,35136
5483,35072
5484,34944
5485,34688
5486,34368
5487,34048
5488,33792
5489,33664
5490,33536
5491,33472
5492,33408
5493,33472
5494,33536
5495,33536
5496,33536
5497,33536
5498,33344
5499,33024
5500,32768
5501,33152
5502,33984
5503,35328
5504,37184
5505,39680
5506,42816
5507,46080
5508,48256
5509,48832
5510,47488
5511,44608
5512,41088
5513,37632
5514,34624
5515,32128
5516,30720
5517,29888
5518,29568
5519,29568
5520,29696
5521,29952
5522,30208
5523,30592
5524,30848
5525,31168
5526,31488
5527,31808
5528,32128
5529,32256
5530,32448
5531,32640
5532,32768
5533,32896
5534,33088
5535,33280
5536,33408
5537,33536
5538,33664
5539,33856
5540,33984
5541,34112
5542,34240
5543,34368
5544,34432
5545,34560
5546,34624
5547,34752
5548,34944
5549,35136
5550,35200
5551,35264
5552,35328
5553,35264
5554,35264
5555,35200
5556,35136
5557,35072
5558,35008
5559,34880
5560,34752
5561,34624
5562,34432
5563,34240
5564,34112
5565,33920
5566,33728
5567,33600
5568,33472
5569,33408
5570,33280
5571,33152
5572,33152
5573,33088
5574,33024
5575,33024
5576,33088
5577,33088
5578,33152
5579,33152
5580,33280
5581,33344
5582,33408
5583,33408
5584,33472
5585,33536
5586,33664
5587,33728
5588,33792
5589,33920
5590,33984
5591,33984
5592,33984
5593,34112
5594,34176
5595,34176
5596,34176
5597,34176
5598,34240
5599,34240
5600,34240
5601,34240
5602,34240
5603,34240
5604,34240
5605,34176
5606,34240
5607,34240
5608,34176
5609,34176
5610,34240
5611,34240
5612,34176
5613,34112
5614,34112
5615,34112
5616,34176
5617,34176
5618,34176
5619,34176
5620,34112
5621,34112
5622,34176
5623,34240
5624,34432
5625,34496
5626,34624
5627,34688
5628,34688
5629,34688
5630,34752
5631,34752
5632,34816
5633,34880
5634,34944
5635,35072
5636,35072
5637,35008
5638,34944
5639,34816
5640,34560
5641,34304
5642,33984
5643,33856
5644,33728
5645,33600
5646,33472
5647,33472
5648,33536
5649,33536
5650,33600
5651,33600
5652,33600
5653,33408
5654,33024
5655,32832
5656,33024
5657,33856
5658,35072
5659,36928
5660,39296
5661,42560
5662,45568
5663,47808
5664,48384
5665,47296
5666,44608
5667,41216
5668,37824
5669,34816
5670,32448
5671,30912
5672,30144
5673,29760
5674,29696
5675,29824
5676,30080
5677,30400
5678,30784
5679,31040
5680,31296
5681,31552
5682,31872
5683,32128
5684,32256
5685,32448
5686,32640
5687,32832
5688,32960
5689,33152
5690,33344
5691,33472
5692,33600
5693,33728
5694,33920
5695,34048
5696,34176
5697,34240
5698,34368
5699,34496
5700,34624
5701,34752
5702,34944
5703,35072
5704,35136
5705,35136
5706,35200
5707,35264
5708,35328
5709,35328
5710,35328
5711,35264
5712,35136
5713,35008
5714,34944
5715,34880
5716,34688
5717,34496
5718,34432
5719,34304
5720,34048
5721,33792
5722,33600
5723,33536
5724,33408
5725,33280
5726,33216
5727,33152
5728,33088
5729,33024
5730,32960
5731,33024
5732,33088
5733,33024
5734,33088
5735,33216
5736,33280
5737,33344
5738,33408
5739,33472
5740,33600
5741,33664
5742,33664
5743,33728
5744,33792
5745,33856
5746,33856
5747,33920
5748,33984
5749,34112
5750,34112
5751,34176
5752,34240
5753,34304
5754,34304
5755,34240
5756,34240
5757,34240
5758,34176
5759,34176
5760,34240
5761,34304
5762,34304
5763,34304
5764,34304
5765,34240
5766,34176
5767,34112
5768,34112
5769,34176
5770,34240
5771,34240
5772,34240
5773,34240
5774,34176
5775,34176
5776,34112
5777,34112
5778,34112
5779,34112
5780,34048
5781,34112
5782,34176
5783,34112
5784,34112
5785,34112
5786,34112
5787,34176
5788,34240
5789,34304
5790,34496
5791,34560
5792,34624
5793,34752
5794,34816
5795,34880
5796,34880
5797,34880
5798,34944
5799,35008
5800,35072
5801,35072
5802,35072
5803,35008
5804,34880
5805,34624
5806,34368
5807,34048
5808,33792
5809,33600
5810,33472
5811,33408
5812,33408
5813,33408
5814,33472
5815,33536
5816,33600
5817,33536
5818,33344
5819,33088
5820,32832
5821,32960
5822,33600
5823,34816
5824,36608
5825,38912
5826,41856
5827,45120
5828,47808
5829,48448
5830,47488
5831,44928
5832,41600
5833,38208
5834,35136
5835,32768
5836,31168
5837,30336
5838,29888
5839,29760
5840,29888
5841,30080
5842,30400
5843,30720
5844,30976
5845,31296
5846,31552
5847,31808
5848,32000
5849,32320
5850,32512
5851,32704
5852,32832
5853,33024
5854,33152
5855,33280
5856,33408
5857,33600
5858,33728
5859,33792
5860,33856
5861,34048
5862,34176
5863,34240
5864,34368
5865,34560
5866,34688
5867,34816
5868,34944
5869,35136
5870,35264
5871,35328
5872,35328
5873,35456
5874,35456
5875,35456
5876,35392
5877,35328
5878,35264
5879,35136
5880,34944
5881,34880
5882,34752
5883,34496
5884,34304
5885,34176
5886,34048
5887,33856
5888,33536
5889,33408
5890,33408
5891,33344
5892,33216
5893,33152
5894,33216
5895,33216
5896,33152
5897,33088
5898,33152
5899,33216
5900,33216
5901,33280
5902,33344
5903,33472
5904,33472
5905,33472
5906,33600
5907,33728
5908,33792
5909,33856
5910,33920
5911,34048
5912,34048
5913,34048
5914,34048
5915,34048
5916,34112
5917,34112
5918,34112
5919,34112
5920,34112
5921,34112
5922,34112
5923,34176
5924,34240
5925,34112
5926,34048
5927,34048
5928,34048
5929,33984
5930,33920
5931,33984
5932,34048
5933,34048
5934,33984
5935,33984
5936,33984
5937,34048
5938,34048
5939,34048
5940,34112
5941,34112
5942,34112
5943,34048
5944,34112
5945,34176
5946,34112
5947,34112
5948,34176
5949,34176
5950,34112
5951,34112
5952,34240
5953,34240
5954,34240
5955,34176
5956,34240
5957,34304
5958,34368
5959,34432
5960,34560
5961,34688
5962,34688
5963,34688
5964,34688
5965,34816
5966,34880
5967,34944
5968,35008
5969,35008
5970,35072
5971,35136
5972,35072
5973,35072
5974,34944
5975,34752
5976,34432
5977,34176
5978,33856
5979,33664
5980,33472
5981,33472
5982,33472
5983,33472
5984,33536
5985,33536
5986,33536
5987,33472
5988,33216
5989,32896
5990,32768
5991,33024
5992,33792
5993,35328
5994,37056
5995,39488
5996,42496
5997,45632
5998,47808
5999,48384
6000,46976
6001,44096
6002,40704
6003,37376
6004,34432
6005,32192
6006,30784
6007,30080
6008,29760
6009,29696
6010,29824
6011,30144
6012,30464
6013,30720
6014,31040
6015,31360
6016,31616
6017,31872
6018,32064
6019,32320
6020,32576
6021,32704
6022,32832
6023,33024
6024,33216
6025,33280
6026,33408
6027,33536
6028,33728
6029,33856
6030,33984
6031,34112
6032,34240
6033,34368
6034,34496
6035,34624
6036,34752
6037,34880
6038,35008
6039,35136
6040,35264
6041,35328
6042,35328
6043,35328
6044,35328
6045,35328
6046,35200
6047,35136
6048,35072
6049,35008
6050,34880
6051,34752
6052,34624
6053,34432
6054,34240
6055,34048
6056,33920
6057,33792
6058,33664
6059,33408
6060,33280
6061,33152
6062,33088
6063,33024
6064,33024
6065,33088
6066,33088
6067,33088
6068,33152
6069,33216
6070,33344
6071,33408
6072,33472
6073,33536
6074,33664
6075,33728
6076,33728
6077,33792
6078,33856
6079,33856
6080,33920
6081,33984
6082,34048
6083,34048
6084,34048
6085,34048
6086,34112
6087,34112
6088,34112
6089,34048
6090,34112
6091,34112
6092,34048
6093,34112
6094,34176
6095,34240
6096,34240
6097,34240
6098,34304
6099,34304
6100,34240
6101,34176
6102,34176
6103,34240
6104,34240
6105,34176
6106,34176
6107,34176
6108,34176
6109,34112
6110,34112
6111,34176
6112,34176
6113,34112
6114,34112
6115,34176
6116,34176
6117,34112
6118,34112
6119,34176
6120,34240
6121,34304
6122,34368
6123,34560
6124,34752
6125,34816
6126,34816
6127,34880
6128,34944
6129,35008
6130,35008
6131,35008
6132,35072
6133,35072
6134,35072
6135,35008
6136,34944
6137,34752
6138,34496
6139,34240
6140,33984
6141,33792
6142,33664
6143,33536
6144,33536
6145,33600
6146,33600
6147,33664
6148,33664
6149,33664
6150,33472
6151,33152
6152,32832
6153,33472
6154,34432
6155,36160
6156,36480
6157,41728
6158,41792
6159,47040
6160,48384
6161,47808
6162,45504
6163,42176
6164,38784
6165,35712
6166,33152
6167,31360
6168,30400
6169,30016
6170,29888
6171,29952
6172,30208
6173,30464
6174,30784
6175,31040
6176,31296
6177,31616
6178,31808
6179,32000
6180,32256
6181,32448
6182,32640
6183,32768
6184,32896
6185,33088
6186,33088
6187,33216
6188,33344
6189,33472
6190,33856
6191,33920
6192,34048
6193,34240
6194,34368
6195,34496
6196,34624
6197,34752
6198,34880
6199,35008
6200,35008
6201,35136
6202,35264
6203,35264
6204,35328
6205,35328
6206,35328
6207,35264
6208,35200
6209,35072
6210,35008
6211,34880
6212,34752
6213,34560
6214,34432
6215,34240
6216,34048
6217,33856
6218,33728
6219,33600
6220,33472
6221,33344
6222,33216
6223,33216
6224,33088
6225,33024
6226,33024
6227,33088
6228,33088
6229,33088
6230,33088
6231,33088
6232,33344
6233,33280
6234,33408
6235,33472
6236,33536
6237,33600
6238,33664
6239,33728
6240,33792
6241,33856
6242,33856
6243,33920
6244,33984
6245,34048
6246,33984
6247,34048
6248,33984
6249,34048
6250,34048
6251,34048
6252,34112
6253,34112
6254,34112
6255,34112
6256,34176
6257,34176
6258,34112
6259,34112
6260,34112
6261,34112
6262,34048
6263,33984
6264,34048
6265,34048
6266,34048
6267,34112
6268,34176
6269,34176
6270,34176
6271,34176
6272,34176
6273,34176
6274,34176
6275,34112
6276,34176
6277,34240
6278,34368
6279,34432
6280,34496
6281,34560
6282,34624
6283,34624
6284,34688
6285,34688
6286,34752
6287,34816
6288,34880
6289,35008
6290,35072
6291,35072
6292,35008
6293,34944
6294,34816
6295,34496
6296,34176
6297,33856
6298,33664
6299,33536
6300,33472
6301,33408
6302,33472
6303,33536
6304,33536
6305,33536
6306,33536
6307,33408
6308,33280
6309,32896
6310,33152
6311,33920
6312,35136
6313,36992
6314,39424
6315,42432
6316,45632
6317,47744
6318,48256
6319,46912
6320,44160
6321,40768
6322,37056
6323,36608
6324,32320
6325,30848
6326,30144
6327,29888
6328,29888
6329,30016
6330,30208
6331,30464
6332,30784
6333,31104
6334,31360
6335,31680
6336,31936
6337,32192
6338,32192
6339,32576
6340,32768
6341,32960
6342,33088
6343,33280
6344,33408
6345,33536
6346,33600
6347,33728
6348,33920
6349,34048
6350,34176
6351,34368
6352,34560
6353,34560
6354,34688
6355,34816
6356,34944
6357,35072
6358,35200
6359,35264
6360,35392
6361,35456
6362,35392
6363,35392
6364,35392
6365,35392
6366,35328
6367,35200
6368,35136
6369,35072
6370,34880
6371,34752
6372,34560
6373,34368
6374,34176
6375,33984
6376,33792
6377,33728
6378,33536
6379,33344
6380,33216
6381,33216
6382,33152
6383,33088
6384,33024
6385,33088
6386,33152
6387,33152
6388,33216
6389,33280
6390,33344
6391,33408
6392,33472
6393,33600
6394,33728
6395,33792
6396,33856
6397,33856
6398,33856
6399,33920
6400,33920
6401,33984
6402,34048
6403,34048
6404,34048
6405,34048
6406,34048
6407,34112
6408,34112
6409,34112
6410,34112
6411,34176
6412,34176
6413,34176
6414,34176
6415,34240
6416,34176
6417,34112
6418,34112
6419,34176
6420,34176
6421,34112
6422,34176
6423,34176
6424,34176
6425,34112
6426,34048
6427,34112
6428,34176
6429,34112
6430,34112
6431,34176
6432,34240
6433,34176
6434,34176
6435,34176
6436,34240
6437,34240
6438,34240
6439,34304
6440,34432
6441,34496
6442,34624
6443,34624
6444,34816
6445,34880
6446,34880
6447,34880
6448,34944
6449,35072
6450,35072
6451,35136
6452,35072
6453,35008
6454,34816
6455,34560
6456,34240
6457,33984
6458,33920
6459,33600
6460,33536
6461,33536
6462,33472
6463,33472
6464,33536
6465,33600
6466,33600
6467,33472
6468,33280
6469,32960
6470,32768
6471,33024
6472,34560
6473,34688
6474,37376
6475,39936
6476,43136
6477,46208
6478,48064
6479,48128
6480,46464
6481,43520
6482,40128
6483,36864
6484,34048
6485,31808
6486,30720
6487,30016
6488,29824
6489,29888
6490,30080
6491,30336
6492,30528
6493,30784
6494,31104
6495,31360
6496,31552
6497,31808
6498,32128
6499,32384
6500,32576
6501,32704
6502,33024
6503,33024
6504,33216
6505,33344
6506,33536
6507,33664
6508,33728
6509,33856
6510,33984
6511,34112
6512,34176
6513,34304
6514,34496
6515,34688
6516,34816
6517,34880
6518,34816
6519,35072
6520,35136
6521,35200
6522,35200
6523,35264
6524,35264
6525,35264
6526,35200
6527,35200
6528,35072
6529,34944
6530,34816
6531,34752
6532,34560
6533,34432
6534,34240
6535,34176
6536,34048
6537,33856
6538,33600
6539,33472
6540,33408
6541,33280
6542,33152
6543,33088
6544,33088
6545,33088
6546,33088
6547,33216
6548,33152
6549,33280
6550,33280
6551,33344
6552,33472
6553,33536
6554,33536
6555,33600
6556,33728
6557,33792
6558,33856
6559,33856
6560,33856
6561,33920
6562,33984
6563,33984
6564,34048
6565,34112
6566,34048
6567,33984
6568,34048
6569,34176
6570,34176
6571,34112
6572,34112
6573,34176
6574,34176
6575,34176
6576,34112
6577,34176
6578,34240
6579,34176
6580,34112
6581,34112
6582,34176
6583,34112
6584,34048
6585,34112
6586,34176
6587,34176
6588,34112
6589,34112
6590,34176
6591,34176
6592,34112
6593,34112
6594,34176
6595,34176
6596,34112
6597,34176
6598,34240
6599,34368
6600,34368
6601,34432
6602,34560
6603,34688
6604,34752
6605,34816
6606,34880
6607,34944
6608,35008
6609,35072
6610,35200
6611,35264
6612,35328
6613,35264
6614,35136
6615,35008
6616,34688
6617,34304
6618,33984
6619,33728
6620,33536
6621,33408
6622,33344
6623,33408
6624,33472
6625,33472
6626,33536
6627,33600
6628,33536
6629,33216
6630,32832
6631,32704
6632,33088
6633,33984
6634,35456
6635,37568
6636,40256
6637,43328
6638,46336
6639,47744
6640,47488
6641,45376
6642,42304
6643,39040
6644,36096
6645,33536
6646,31680
6647,30592
6648,30144
6649,29952
6650,30016
6651,30208
6652,30464
6653,30784
6654,31040
6655,31296
6656,31616
6657,31872
6658,32128
6659,32320
6660,32512
6661,32704
6662,32896
6663,33024
6664,33216
6665,33344
6666,33472
6667,33536
6668,33728
6669,33856
6670,33920
6671,33984
6672,34112
6673,34240
6674,34304
6675,34432
6676,34496
6677,34688
6678,34816
6679,34880
6680,34880
6681,35008
6682,35136
6683,35136
6684,35136
6685,35200
6686,35200
6687,35136
6688,35008
6689,34944
6690,34880
6691,34752
6692,34560
6693,34432
6694,34368
6695,34240
6696,34048
6697,33856
6698,33664
6699,33536
6700,33344
6701,33216
6702,33152
6703,33152
6704,33152
6705,33152
6706,33152
6707,33152
6708,33216
6709,33216
6710,33280
6711,33344
6712,33408
6713,33408
6714,33472
6715,33600
6716,33664
6717,33728
6718,33728
6719,33856
6720,33920
6721,33856
6722,33920
6723,33984
6724,33984
6725,33984
6726,33984
6727,33984
6728,33984
6729,34048
6730,34048
6731,34048
6732,34112
6733,34112
6734,34048
6735,34112
6736,34112
6737,34048
6738,34048
6739,34048
6740,34112
6741,34048
6742,34048
6743,34048
6744,34112
6745,34112
6746,34112
6747,34112
6748,34048
6749,34048
6750,34048
6751,34112
6752,34176
6753,34240
6754,34368
6755,34432
6756,34560
6757,34624
6758,34624
6759,34624
6760,34624
6761,34688
6762,34816
6763,34880
6764,35008
6765,35072
6766,35072
6767,35008
6768,34880
6769,34688
6770,34368
6771,34048
6772,33856
6773,33728
6774,33664
6775,33536
6776,33536
6777,33536
6778,33600
6779,33600
6780,33600
6781,33600
6782,33408
6783,33024
6784,32704
6785,32896
6786,33600
6787,34880
6788,36672
6789,38976
6790,41792
6791,44736
6792,46592
6793,46720
6794,45248
6795,42688
6796,39744
6797,36800
6798,34240
6799,32256
6800,30976
6801,30336
6802,30208
6803,30336
6804,30464
6805,30656
6806,30912
6807,31232
6808,31552
6809,31744
6810,32000
6811,32256
6812,32448
6813,32576
6814,32768
6815,32960
6816,33088
6817,33152
6818,33280
6819,33472
6820,33600
6821,33728
6822,33792
6823,33920
6824,34048
6825,34112
6826,34176
6827,34304
6828,34432
6829,34496
6830,34560
6831,34624
6832,34816
6833,34880
6834,34944
6835,35008
6836,35072
6837,35072
6838,35008
6839,35008
6840,35008
6841,34944
6842,34816
6843,34752
6844,34688
6845,34624
6846,34432
6847,34304
6848,34176
6849,34048
6850,33792
6851,33600
6852,33536
6853,33472
6854,33344
6855,33280
6856,33216
6857,33216
6858,33216
6859,33152
6860,33152
6861,33216
6862,33280
6863,33280
6864,33344
6865,33408
6866,33472
6867,33472
6868,33536
6869,33600
6870,33728
6871,33728
6872,33728
6873,33792
6874,33856
6875,33920
6876,33920
6877,33984
6878,34048
6879,33984
6880,33920
6881,33920
6882,33984
6883,34048
6884,34048
6885,34112
6886,34112
6887,34112
6888,34048
6889,34048
6890,34112
6891,34112
6892,34048
6893,34048
6894,34112
6895,34112
6896,34112
6897,34048
6898,34112
6899,34112
6900,34112
6901,34048
6902,34112
6903,34176
6904,34240
6905,34240
6906,34304
6907,34432
6908,34496
6909,34560
6910,34624
6911,34752
6912,34816
6913,34880
6914,34944
6915,35072
6916,35136
6917,35136
6918,35008
6919,35008
6920,34880
6921,34624
6922,34368
6923,34112
6924,33920
6925,33728
6926,33600
6927,33536
6928,33536
6929,33536
6930,33600
6931,33664
6932,33664
6933,33536
6934,33216
6935,32832
6936,32704
6937,33024
6938,33920
6939,35456
6940,37568
6941,40128
6942,43136
6943,45952
6944,47360
6945,46976
6946,44928
6947,41984
6948,38912
6949,36032
6950,33600
6951,31744
6952,30720
6953,30272
6954,30144
6955,30208
6956,30400
6957,30720
6958,30976
6959,31168
6960,31424
6961,31680
6962,31936
6963,32128
6964,32320
6965,32512
6966,32704
6967,32832
6968,32960
6969,33152
6970,33344
6971,33408
6972,33536
6973,33664
6974,33856
6975,33920
6976,34048
6977,34176
6978,34304
6979,34432
6980,34560
6981,34624
6982,34752
6983,34880
6984,34944
6985,35008
6986,35136
6987,35200
6988,35200
6989,35200
6990,35200
6991,35136
6992,35008
6993,34944
6994,34944
6995,34944
6996,34816
6997,34688
6998,34496
6999,34368
7000,34176
7001,33984
7002,33856
7003,33728
7004,33600
7005,33408
7006,33344
7007,33280
7008,33216
7009,33152
7010,33152
7011,33216
7012,33216
7013,33216
7014,33216
7015,33344
7016,33408
7017,33472
7018,33536
7019,33664
7020,33728
7021,33792
7022,33792
7023,33856
7024,33856
7025,33920
7026,33920
7027,33984
7028,33984
7029,34048
7030,33984
7031,34048
7032,34112
7033,34112
7034,34112
7035,34112
7036,34176
7037,34240
7038,34240
7039,34240
7040,34304
7041,34304
7042,34240
7043,34240
7044,34240
7045,34240
7046,34176
7047,34112
7048,34112
7049,34176
7050,34112
7051,34112
7052,34176
7053,34240
7054,34240
7055,34240
7056,34304
7057,34432
7058,34496
7059,34560
7060,34624
7061,34752
7062,34816
7063,34752
7064,34752
7065,34880
7066,35008
7067,35072
7068,35136
7069,35136
7070,35136
7071,35008
7072,34816
7073,34560
7074,34304
7075,33984
7076,33728
7077,33536
7078,33408
7079,33408
7080,33408
7081,33472
7082,33536
7083,33536
7084,33472
7085,33280
7086,32960
7087,32640
7088,32704
7089,33344
7090,34560
7091,36352
7092,38720
7093,41664
7094,45056
7095,47808
7096,48896
7097,47936
7098,45248
7099,41856
7100,38336
7101,35008
7102,32768
7103,31104
7104,30144
7105,29760
7106,29696
7107,29824
7108,30016
7109,30272
7110,30592
7111,30912
7112,31232
7113,31488
7114,31744
7115,32064
7116,32256
7117,32448
7118,32576
7119,32768
7120,32960
7121,33088
7122,33216
7123,33408
7124,33536
7125,33664
7126,33792
7127,33984
7128,34112
7129,34304
7130,34368
7131,34496
7132,34624
7133,34816
7134,34880
7135,35008
7136,35136
7137,35264
7138,35328
7139,35328
7140,35392
7141,35392
7142,35328
7143,35200
7144,35200
7145,35136
7146,35008
7147,34880
7148,34688
7149,34624
7150,34496
7151,34304
7152,34112
7153,33984
7154,33792
7155,33664
7156,33472
7157,33408
7158,33344
7159,33216
7160,33152
7161,33152
7162,33216
7163,33152
7164,33152
7165,33216
7166,33280
7167,33344
7168,33344
7169,33408
7170,33536
7171,33600
7172,33664
7173,33728
7174,33792
7175,33792
7176,33920
7177,33984
7178,34048
7179,34112
7180,34048
7181,33984
7182,34048
7183,34048
7184,34112
7185,34112
7186,34176
7187,34176
7188,34176
7189,34112
7190,34176
7191,34240
7192,34240
7193,34176
7194,34176
7195,34176
7196,34112
7197,34048
7198,34048
7199,34112
7200,34112
7201,34112
7202,34048
7203,34112
7204,34112
7205,34112
7206,34176
7207,34240
7208,34368
7209,34432
7210,34560
7211,34688
7212,34816
7213,34816
7214,34816
7215,34816
7216,34880
7217,34944
7218,35008
7219,35072
7220,35136
7221,35072
7222,34944
7223,34816
7224,34624
7225,34368
7226,33984
7227,33728
7228,33600
7229,33472
7230,33408
7231,33408
7232,33472
7233,33472
7234,33536
7235,33536
7236,33472
7237,33280
7238,32896
7239,32704
7240,32960
7241,33728
7242,35008
7243,36928
7244,39424
7245,42496
7246,45760
7247,48000
7248,48704
7249,47424
7250,44608
7251,41152
7252,37696
7253,34688
7254,32320
7255,30784
7256,29952
7257,29632
7258,29632
7259,29696
7260,29952
7261,30272
7262,30592
7263,30912
7264,31168
7265,31488
7266,31808
7267,32000
7268,32192
7269,32448
7270,32704
7271,32832
7272,32960
7273,33088
7274,33280
7275,33408
7276,33536
7277,33664
7278,33856
7279,33984
7280,34112
7281,34176
7282,34368
7283,34496
7284,34560
7285,34688
7286,34880
7287,35072
7288,35136
7289,35200
7290,35264
7291,35328
7292,35328
7293,35328
7294,35328
7295,35328
7296,35200
7297,35136
7298,35008
7299,34944
7300,34816
7301,34624
7302,34432
7303,34240
7304,34048
7305,33856
7306,33728
7307,33600
7308,33472
7309,33280
7310,33152
7311,33088
7312,33088
7313,33024
7314,32960
7315,33024
7316,33088
7317,33152
7318,33216
7319,33280
7320,33344
7321,33344
7322,33472
7323,33536
7324,33664
7325,33728
7326,33728
7327,33728
7328,33792
7329,33856
7330,33856
7331,33856
7332,33920
7333,33984
7334,34048
7335,34112
7336,34176
7337,34240
7338,34240
7339,34240
7340,34240
7341,34240
7342,34240
7343,34176
7344,34112
7345,34176
7346,34176
7347,34112
7348,34112
7349,34176
7350,34112
7351,34112
7352,34112
7353,34112
7354,34112
7355,34048
7356,34048
7357,34112
7358,34176
7359,34112
7360,34112
7361,34112
7362,34176
7363,34240
7364,34368
7365,34496
7366,34624
7367,34752
7368,34752
7369,34752
7370,34816
7371,34752
7372,34816
7373,34944
7374,35072
7375,35072
7376,35008
7377,34944
7378,34880
7379,34752
7380,34496
7381,34176
7382,33920
7383,33728
7384,33536
7385,33408
7386,33408
7387,33472
7388,33472
7389,33536
7390,33536
7391,33536
7392,33408
7393,33088
7394,32768
7395,32832
7396,33280
7397,34240
7398,35904
7399,38016
7400,40704
7401,43840
7402,46784
7403,48448
7404,48384
7405,46336
7406,43200
7407,39680
7408,36416
7409,33664
7410,31680
7411,30528
7412,29952
7413,29760
7414,29760
7415,30016
7416,30272
7417,30592
7418,30848
7419,31168
7420,31424
7421,31744
7422,32000
7423,32256
7424,32448
7425,32640
7426,32832
7427,32960
7428,33152
7429,33280
7430,33408
7431,33536
7432,33664
7433,33792
7434,33920
7435,34048
7436,34240
7437,34368
7438,34496
7439,34560
7440,34752
7441,34880
7442,35008
7443,35072
7444,35200
7445,35328
7446,35392
7447,35392
7448,35392
7449,35456
7450,35456
7451,35328
7452,35200
7453,35136
7454,35072
7455,34944
7456,34752
7457,34624
7458,34496
7459,34304
7460,34112
7461,33920
7462,33792
7463,33600
7464,33472
7465,33408
7466,33344
7467,33280
7468,33216
7469,33152
7470,33152
7471,33152
7472,33152
7473,33152
7474,33280
7475,33344
7476,33344
7477,33408
7478,33536
7479,33600
7480,33664
7481,33728
7482,33856
7483,33984
7484,33920
7485,33920
7486,33984
7487,34048
7488,34112
7489,34048
7490,34112
7491,34112
7492,34112
7493,34176
7494,34176
7495,34240
7496,34240
7497,34176
7498,34176
7499,34176
7500,34176
7501,34112
7502,34176
7503,34176
7504,34240
7505,34176
7506,34176
7507,34240
7508,34240
7509,34176
7510,34112
7511,34176
7512,34240
7513,34176
7514,34176
7515,34176
7516,34240
7517,34240
7518,34240
7519,34304
7520,34304
7521,34304
7522,34240
7523,34240
7524,34368
7525,34560
7526,34688
7527,34816
7528,34944
7529,35008
7530,35008
7531,35008
7532,35072
7533,35136
7534,35200
7535,35200
7536,35264
7537,35200
7538,35072
7539,34816
7540,34560
7541,34304
7542,34048
7543,33792
7544,33600
7545,33600
7546,33600
7547,33600
7548,33600
7549,33664
7550,33664
7551,33600
7552,33408
7553,33152
7554,32832
7555,32896
7556,33408
7557,34496
7558,36160
7559,38336
7560,41088
7561,44416
7562,47232
7563,48512
7564,47936
7565,45632
7566,42368
7567,38912
7568,35776
7569,33216
7570,31424
7571,30400
7572,29888
7573,29696
7574,29824
7575,30080
7576,30272
7577,30528
7578,30912
7579,31232
7580,31488
7581,31808
7582,32128
7583,32384
7584,32512
7585,32704
7586,32896
7587,33088
7588,33216
7589,33344
7590,33536
7591,33728
7592,33856
7593,33920
7594,34048
7595,34176
7596,34304
7597,34432
7598,34496
7599,34560
7600,34752
7601,34880
7602,34944
7603,35072
7604,35200
7605,35264
7606,35328
7607,35392
7608,35392
7609,35392
7610,35264
7611,35264
7612,35136
7613,35008
7614,34944
7615,34880
7616,34816
7617,34624
7618,34432
7619,34304
7620,34112
7621,33920
7622,33728
7623,33600
7624,33536
7625,33408
7626,33280
7627,33216
7628,33216
7629,33216
7630,33152
7631,33024
7632,33088
7633,33152
7634,33216
7635,33280
7636,33344
7637,33472
7638,33536
7639,33600
7640,33728
7641,33792
7642,33856
7643,33856
7644,33920
7645,33984
7646,33984
7647,33984
7648,34048
7649,34048
7650,34048
7651,34048
7652,34112
7653,34176
7654,34176
7655,34176
7656,34240
7657,34240
7658,34240
7659,34176
7660,34112
7661,34112
7662,34112
7663,34112
7664,34112
7665,34112
7666,34112
7667,34112
7668,34112
7669,34112
7670,34176
7671,34176
7672,34112
7673,34112
7674,34112
7675,34112
7676,34112
7677,34112
7678,34176
7679,34176
7680,34240
7681,34240
7682,34304
7683,34432
7684,34496
7685,34560
7686,34624
7687,34752
7688,34816
7689,34816
7690,34880
7691,34944
7692,35008
7693,35072
7694,35136
7695,35200
7696,35136
7697,35072
7698,34816
7699,34560
7700,34304
7701,33984
7702,33792
7703,33728
7704,33664
7705,33536
7706,33472
7707,33536
7708,33664
7709,33664
7710,33664
7711,33472
7712,33216
7713,32832
7714,32704
7715,33152
7716,34176
7717,35776
7718,37888
7719,40576
7720,43904
7721,46848
7722,48448
7723,48320
7724,46272
7725,43072
7726,39552
7727,36224
7728,33536
7729,31616
7730,30464
7731,29888
7732,29760
7733,29888
7734,30016
7735,30208
7736,30528
7737,30848
7738,31168
7739,31424
7740,31744
7741,32000
7742,32256
7743,32448
7744,32640
7745,32832
7746,33024
7747,33088
7748,33216
7749,33344
7750,33536
7751,33664
7752,33792
7753,33920
7754,34112
7755,34176
7756,34240
7757,34368
7758,34560
7759,34688
7760,34816
7761,34944
7762,35136
7763,35264
7764,35264
7765,35392
7766,35456
7767,35456
7768,35392
7769,35328
7770,35264
7771,35136
7772,35008
7773,34880
7774,34816
7775,34688
7776,34560
7777,34368
7778,34176
7779,34048
7780,33856
7781,33664
7782,33536
7783,33472
7784,33344
7785,33216
7786,33152
7787,33152
7788,33152
7789,33152
7790,33152
7791,33216
7792,33280
7793,33280
7794,33344
7795,33472
7796,33536
7797,33536
7798,33600
7799,33728
7800,33792
7801,33856
7802,33856
7803,33920
7804,33984
7805,34048
7806,34048
7807,34112
7808,34112
7809,34112
7810,34112
7811,34176
7812,34240
7813,34240
7814,34240
7815,34240
7816,34240
7817,34240
7818,34176
7819,34112
7820,34176
7821,34176
7822,34112
7823,34112
7824,34176
7825,34176
7826,34176
7827,34176
7828,34176
7829,34176
7830,34176
7831,34176
7832,34176
7833,34176
7834,34112
7835,34112
7836,34112
7837,34240
7838,34368
7839,34368
7840,34496
7841,34560
7842,34624
7843,34688
7844,34752
7845,34816
7846,34944
7847,35008
7848,35072
7849,35200
7850,35264
7851,35264
7852,35200
7853,35072
7854,34816
7855,34496
7856,34176
7857,33920
7858,33728
7859,33536
7860,33472
7861,33472
7862,33472
7863,33536
7864,33536
7865,33536
7866,33536
7867,33344
7868,32960
7869,32640
7870,32704
7871,33280
7872,34304
7873,35968
7874,38336
7875,41216
7876,44672
7877,47616
7878,48960
7879,48384
7880,45952
7881,42368
7882,38848
7883,34880
7884,32832
7885,31168
7886,30208
7887,29760
7888,29696
7889,29760
7890,29952
7891,30208
7892,30528
7893,30720
7894,30976
7895,31296
7896,31616
7897,31872
7898,32128
7899,32320
7900,32576
7901,32704
7902,32896
7903,33024
7904,33216
7905,33344
7906,33472
7907,33600
7908,33728
7909,33920
7910,33984
7911,34112
7912,34304
7913,34432
7914,34496
7915,34624
7916,34752
7917,34880
7918,34944
7919,35072
7920,35136
7921,35136
7922,35200
7923,35136
7924,35200
7925,35136
7926,35072
7927,34944
7928,34816
7929,34752
7930,34624
7931,34496
7932,34368
7933,34240
7934,34048
7935,33920
7936,33792
7937,33664
7938,33536
7939,33344
7940,33280
7941,33216
7942,33152
7943,33088
7944,33024
7945,33088
7946,33152
7947,33152
7948,33216
7949,33280
7950,33344
7951,33408
7952,33472
7953,33536
7954,33664
7955,33728
7956,33728
7957,33792
7958,33856
7959,33920
7960,33920
7961,33984
7962,34048
7963,34048
7964,34048
7965,34048
7966,34112
7967,34112
7968,34112
7969,34112
7970,34176
7971,34176
7972,34176
7973,34176
7974,34176
7975,34176
7976,34112
7977,34112
7978,34112
7979,34112
7980,34048
7981,34048
7982,34112
7983,34112
7984,34048
7985,34048
7986,33984
7987,34112
7988,34048
7989,34112
7990,34240
7991,34368
7992,34432
7993,34560
7994,34688
7995,34752
7996,34688
7997,34688
7998,34752
7999,34880
8000,34944
8001,35008
8002,35072
8003,35136
8004,35072
8005,34880
8006,34688
8007,34432
8008,34112
8009,33792
8010,33600
8011,33536
8012,33472
8013,33408
8014,33472
8015,33536
8016,33600
8017,33536
8018,33472
8019,33344
8020,32960
8021,32640
8022,32768
8023,33472
8024,34816
8025,36672
8026,39040
8027,42048
8028,45248
8029,47296
8030,47616
8031,47360
8032,42432
8033,41984
8034,37184
8035,34432
8036,32384
8037,31040
8038,30272
8039,30080
8040,30144
8041,30336
8042,30528
8043,30784
8044,31040
8045,31296
8046,31552
8047,31552
8048,31872
8049,32320
8050,32448
8051,32640
8052,32832
8053,33024
8054,33152
8055,33216
8056,33344
8057,33536
8058,33728
8059,33856
8060,33920
8061,34112
8062,34176
8063,34240
8064,34368
8065,34496
8066,34560
8067,34624
8068,34752
8069,34880
8070,35008
8071,35072
8072,35136
8073,35136
8074,35136
8075,35072
8076,35008
8077,35008
8078,34944
8079,34880
8080,34752
8081,34688
8082,34624
8083,34496
8084,34304
8085,34112
8086,33920
8087,33728
8088,33600
8089,33472
8090,33408
8091,33280
8092,33152
8093,33088
8094,33088
8095,33088
8096,33088
8097,33088
8098,33152
8099,33216
8100,33216
8101,33216
8102,33344
8103,33472
8104,33472
8105,33472
8106,33536
8107,33664
8108,33664
8109,33664
8110,33728
8111,33856
8112,33920
8113,33920
8114,33984
8115,34048
8116,34048
8117,34048
8118,34048
8119,34048
8120,34048
8121,34048
8122,33984
8123,34048
8124,34176
8125,34176
8126,34112
8127,34112
8128,34176
8129,34112
8130,34112
8131,34112
8132,34176
8133,34176
8134,34112
8135,34176
8136,34240
8137,34304
8138,34240
8139,34368
8140,34496
8141,34560
8142,34560
8143,34560
8144,34560
8145,34624
8146,34688
8147,34816
8148,34944
8149,35008
8150,34944
8151,34880
8152,34880
8153,34752
8154,34560
8155,34240
8156,33984
8157,33792
8158,33664
8159,33536
8160,33536
8161,33536
8162,33536
8163,33472
8164,33472
8165,33472
8166,33344
8167,32960
8168,32704
8169,32832
8170,33472
8171,34688
8172,36416
8173,38784
8174,41536
8175,44480
8176,46528
8177,46976
8178,45696
8179,43200
8180,40000
8181,37312
8182,33792
8183,33472
8184,31168
8185,30464
8186,30208
8187,30272
8188,30464
8189,30656
8190,30976
8191,31296
8192,31488
8193,31744
8194,32000
8195,32256
8196,32448
8197,32384
8198,32640
8199,32960
8200,33088
8201,33152
8202,33280
8203,33408
8204,33536
8205,33664
8206,33792
8207,33920
8208,34048
8209,34112
8210,34240
8211,34368
8212,34496
8213,34560
8214,34624
8215,34752
8216,34880
8217,34944
8218,35008
8219,35072
8220,35136
8221,35136
8222,35136
8223,35136
8224,35072
8225,35008
8226,34816
8227,34624
8228,34624
8229,34560
8230,34432
8231,34368
8232,34304
8233,34112
8234,33920
8235,33792
8236,33728
8237,33600
8238,33472
8239,33408
8240,33344
8241,33280
8242,33280
8243,33280
8244,33344
8245,33472
8246,33472
8247,33472
8248,33536
8249,33664
8250,33728
8251,33728
8252,33792
8253,33920
8254,33920
8255,33856
8256,33856
8257,33920
8258,33920
8259,33920
8260,33920
8261,33920
8262,33984
8263,33984
8264,33984
8265,34048
8266,34176
8267,34176
8268,34112
8269,34112
8270,34112
8271,34112
8272,34048
8273,34176
8274,34176
8275,34176
8276,34176
8277,34240
8278,34304
8279,34240
8280,34176
8281,34112
8282,34240
8283,34304
8284,34368
8285,34432
8286,34560
8287,34688
8288,34624
8289,34688
8290,34816
8291,34944
8292,35072
8293,35136
8294,35264
8295,35264
8296,35200
8297,35008
8298,34688
8299,34432
8300,34048
8301,33728
8302,33600
8303,33536
8304,33472
8305,33472
8306,33536
8307,33600
8308,33600
8309,33536
8310,33408
8311,33152
8312,32768
8313,32640
8314,33088
8315,34240
8316,35648
8317,37568
8318,40000
8319,42880
8320,45568
8321,46848
8322,46400
8323,44416
8324,41664
8325,38656
8326,35776
8327,33408
8328,31552
8329,30592
8330,30144
8331,30080
8332,30272
8333,30208
8334,30528
8335,30848
8336,31168
8337,31424
8338,31616
8339,31872
8340,32256
8341,32512
8342,32704
8343,32832
8344,32960
8345,33088
8346,33088
8347,33216
8348,33152
8349,33472
8350,33536
8351,33664
8352,33792
8353,33920
8354,34048
8355,34176
8356,34304
8357,34496
8358,34624
8359,34688
8360,34752
8361,34816
8362,34880
8363,34816
8364,35008
8365,35008
8366,35072
8367,35008
8368,34944
8369,34944
8370,34944
8371,34816
8372,34688
8373,34624
8374,34560
8375,34432
8376,34240
8377,34112
8378,33984
8379,33856
8380,33728
8381,33600
8382,33536
8383,33472
8384,33408
8385,33408
8386,33472
8387,33472
8388,33408
8389,33408
8390,33408
8391,33472
8392,33472
8393,33536
8394,33600
8395,33728
8396,33664
8397,33728
8398,33792
8399,33856
8400,33920
8401,33984
8402,33984
8403,33984
8404,33984
8405,33984
8406,34048
8407,34176
8408,34176
8409,34176
8410,34176
8411,34240
8412,34240
8413,34240
8414,34240
8415,34304
8416,34304
8417,34304
8418,34240
8419,34240
8420,34304
8421,34240
8422,34112
8423,34112
8424,34176
8425,34240
8426,34304
8427,34432
8428,34560
8429,34624
8430,34688
8431,34688
8432,34752
8433,34688
8434,34688
8435,34816
8436,34944
8437,35072
8438,35008
8439,35008
8440,35008
8441,34944
8442,34752
8443,34432
8444,34112
8445,33920
8446,33664
8447,33536
8448,33472
8449,33472
8450,33472
8451,33472
8452,33536
8453,33472
8454,33472
8455,33216
8456,32832
8457,32768
8458,33216
8459,34112
8460,35648
8461,37696
8462,40320
8463,43328
8464,46080
8465,47488
8466,46976
8467,44992
8468,42048
8469,38912
8470,35904
8471,33408
8472,31552
8473,30464
8474,30016
8475,29952
8476,30016
8477,30144
8478,30400
8479,30656
8480,30912
8481,31232
8482,31744
8483,31744
8484,32128
8485,32320
8486,32512
8487,32704
8488,32832
8489,32960
8490,33152
8491,33344
8492,33472
8493,33536
8494,33600
8495,33664
8496,33792
8497,34048
8498,33984
8499,34304
8500,34432
8501,34496
8502,34560
8503,34624
8504,34752
8505,34816
8506,34880
8507,35072
8508,35136
8509,35136
8510,35136
8511,35136
8512,35072
8513,35008
8514,34944
8515,34880
8516,34816
8517,34624
8518,34496
8519,34368
8520,34240
8521,34048
8522,33856
8523,33728
8524,33600
8525,33536
8526,33408
8527,33344
8528,33280
8529,33280
8530,33216
8531,33216
8532,33280
8533,33280
8534,33280
8535,33344
8536,33344
8537,33408
8538,33472
8539,33536
8540,33664
8541,33728
8542,33792
8543,33856
8544,33920
8545,33984
8546,33984
8547,34048
8548,34048
8549,34112
8550,34112
8551,34048
8552,34112
8553,34176
8554,34240
8555,34240
8556,34240
8557,34240
8558,34176
8559,34176
8560,34176
8561,34176
8562,34240
8563,34176
8564,34176
8565,34176
8566,34176
8567,34176
8568,34112
8569,34176
8570,34240
8571,34304
8572,34368
8573,34496
8574,34624
8575,34688
8576,34688
8577,34688
8578,34752
8579,34752
8580,34816
8581,34944
8582,35008
8583,35072
8584,35072
8585,35008
8586,34880
8587,34624
8588,34240
8589,33920
8590,33664
8591,33472
8592,33344
8593,33280
8594,33280
8595,33408
8596,33472
8597,33472
8598,33536
8599,33472
8600,33152
8601,32768
8602,32576
8603,32896
8604,33792
8605,35264
8606,37312
8607,40000
8608,43200
8609,46464
8610,48576
8611,48832
8612,47104
8613,44032
8614,40448
8615,37056
8616,34112
8617,32000
8618,30656
8619,29952
8620,29696
8621,29696
8622,29824
8623,30080
8624,30336
8625,30656
8626,30976
8627,31296
8628,31616
8629,31872
8630,32128
8631,32320
8632,32512
8633,32704
8634,32832
8635,33024
8636,33216
8637,33408
8638,33472
8639,33600
8640,33728
8641,33920
8642,34048
8643,34112
8644,34176
8645,34368
8646,34496
8647,34624
8648,34752
8649,34880
8650,35008
8651,35136
8652,35264
8653,35392
8654,35456
8655,35392
8656,35328
8657,35328
8658,35328
8659,35264
8660,35136
8661,35008
8662,34880
8663,34688
8664,34496
8665,34304
8666,34176
8667,33984
8668,33792
8669,33600
8670,33472
8671,33344
8672,33216
8673,33216
8674,33152
8675,33152
8676,33152
8677,33216
8678,33216
8679,33280
8680,33280
8681,33280
8682,33344
8683,33408
8684,33408
8685,33472
8686,33600
8687,33728
8688,33792
8689,33856
8690,33920
8691,34048
8692,34048
8693,34048
8694,34048
8695,34176
8696,34176
8697,34176
8698,34240
8699,34240
8700,34304
8701,34304
8702,34304
8703,34304
8704,34368
8705,34304
8706,34304
8707,34368
8708,34432
8709,34368
8710,34368
8711,34368
8712,34368
8713,34304
8714,34304
8715,34304
8716,34304
8717,34240
8718,34176
8719,34176
8720,34240
8721,34176
8722,34112
8723,34112
8724,34176
8725,34176
8726,34112
8727,34176
8728,34304
8729,34432
8730,34496
8731,34624
8732,34752
8733,34880
8734,34880
8735,34944
8736,35008
8737,35008
8738,35072
8739,35136
8740,35200
8741,35200
8742,35200
8743,35136
8744,35008
8745,34880
8746,34624
8747,34240
8748,33920
8749,33728
8750,33600
8751,33472
8752,33472
8753,33536
8754,33600
8755,33600
8756,33664
8757,33728
8758,33600
8759,33280
8760,32960
8761,32960
8762,33472
8763,34496
8764,36096
8765,38336
8766,41280
8767,44480
8768,47680
8769,49216
8770,48960
8771,46656
8772,43264
8773,39552
8774,36288
8775,33536
8776,31552
8777,30464
8778,29952
8779,29824
8780,29824
8781,30016
8782,30336
8783,30656
8784,30912
8785,31232
8786,31552
8787,31808
8788,32000
8789,32192
8790,32448
8791,32704
8792,32832
8793,33024
8794,33216
8795,33408
8796,33600
8797,33728
8798,33792
8799,33920
8800,33984
8801,34048
8802,34112
8803,34304
8804,34496
8805,34624
8806,34816
8807,34944
8808,35072
8809,35200
8810,35264
8811,35392
8812,35456
8813,35456
8814,35456
8815,35520
8816,35520
8817,35456
8818,35328
8819,35264
8820,35136
8821,35008
8822,34880
8823,34624
8824,34496
8825,34304
8826,34048
8827,33856
8828,33728
8829,33536
8830,33344
8831,33216
8832,33152
8833,33152
8834,33088
8835,33024
8836,33024
8837,33088
8838,33088
8839,33152
8840,33216
8841,33344
8842,33408
8843,33472
8844,33536
8845,33600
8846,33664
8847,33728
8848,33792
8849,33856
8850,33984
8851,33920
8852,33920
8853,33984
8854,34048
8855,33984
8856,34048
8857,34112
8858,34240
8859,34176
8860,34176
8861,34176
8862,34240
8863,34240
8864,34176
8865,34240
8866,34304
8867,34240
8868,34240
8869,34240
8870,34240
8871,34240
8872,34176
8873,34112
8874,34176
8875,34176
8876,34112
8877,34048
8878,34112
8879,34240
8880,34240
8881,34240
8882,34240
8883,34240
8884,34176
8885,34176
8886,34176
8887,34176
8888,34176
8889,34176
8890,34176
8891,34176
8892,34176
8893,34112
8894,34112
8895,34176
8896,34240
8897,34240
8898,34304
8899,34432
8900,34624
8901,34688
8902,34816
8903,34880
8904,35008
8905,35008
8906,34944
8907,35008
8908,35072
8909,35136
8910,35136
8911,35200
8912,35200
8913,35072
8914,34944
8915,34752
8916,34496
8917,34176
8918,33856
8919,33664
8920,33600
8921,33472
8922,33472
8923,33472
8924,33536
8925,33600
8926,33600
8927,33536
8928,33472
8929,33216
8930,32960
8931,33088
8932,33664
8933,34880
8934,36608
8935,38912
8936,41920
8937,45184
8938,47872
8939,48960
8940,48064
8941,45376
8942,41856
8943,38336
8944,35200
8945,32768
8946,31104
8947,30208
8948,29824
8949,29760
8950,29824
8951,30016
8952,30208
8953,30528
8954,30848
8955,31168
8956,31424
8957,31680
8958,31936
8959,32192
8960,32384
8961,32576
8962,32768
8963,32896
8964,33024
8965,33152
8966,33344
8967,33472
8968,33536
8969,33664
8970,33856
8971,34048
8972,34176
8973,34304
8974,34432
8975,34560
8976,34624
8977,34752
8978,34944
8979,35072
8980,35200
8981,35264
8982,35392
8983,35456
8984,35456
8985,35392
8986,35392
8987,35328
8988,35264
8989,35136
8990,35008
8991,34880
8992,34752
8993,34624
8994,34432
8995,34240
8996,34048
8997,33856
8998,33664
8999,33536
9000,33408
9001,33216
9002,33088
9003,33088
9004,33024
9005,32960
9006,32960
9007,32960
9008,33024
9009,33088
9010,33152
9011,33280
9012,33408
9013,33472
9014,33536
9015,33600
9016,33728
9017,33792
9018,33856
9019,33920
9020,33984
9021,34048
9022,33984
9023,33984
9024,34048
9025,34112
9026,34112
9027,34112
9028,34176
9029,34240
9030,34240
9031,34176
9032,34176
9033,34176
9034,34112
9035,34112
9036,34112
9037,34176
9038,34112
9039,34048
9040,34048
9041,34112
9042,34048
9043,34048
9044,34048
9045,34112
9046,34176
9047,34112
9048,34112
9049,34112
9050,34176
9051,34176
9052,34112
9053,34176
9054,34176
9055,34112
9056,34112
9057,34112
9058,34112
9059,34048
9060,34048
9061,34048
9062,34048
9063,34112
9064,34112
9065,34176
9066,34176
9067,34176
9068,34176
9069,34240
9070,34432
9071,34560
9072,34688
9073,34752
9074,34880
9075,35008
9076,35072
9077,35008
9078,35008
9079,35008
9080,35008
9081,35072
9082,35136
9083,35136
9084,35072
9085,35008
9086,34880
9087,34688
9088,34368
9089,34048
9090,33856
9091,33728
9092,33536
9093,33536
9094,33536
9095,33600
9096,33600
9097,33536
9098,33536
9099,33408
9100,33024
9101,32704
9102,32832
9103,33600
9104,34816
9105,36608
9106,38912
9107,41920
9108,45312
9109,48000
9110,49024
9111,48064
9112,45312
9113,41728
9114,38144
9115,35008
9116,32640
9117,31040
9118,30144
9119,29760
9120,29696
9121,29760
9122,29952
9123,30208
9124,30592
9125,30848
9126,31168
9127,31424
9128,31680
9129,32000
9130,32192
9131,32384
9132,32576
9133,32768
9134,32896
9135,33024
9136,33152
9137,33344
9138,33536
9139,33600
9140,33792
9141,33920
9142,34048
9143,34176
9144,34304
9145,34496
9146,34560
9147,34624
9148,34752
9149,34880
9150,35008
9151,35072
9152,35136
9153,35264
9154,35328
9155,35328
9156,35328
9157,35328
9158,35328
9159,35200
9160,35072
9161,34944
9162,34816
9163,34688
9164,34496
9165,34304
9166,34176
9167,33920
9168,33728
9169,33536
9170,33472
9171,33344
9172,33216
9173,33152
9174,33152
9175,33088
9176,33088
9177,33024
9178,33024
9179,33088
9180,33088
9181,33152
9182,33216
9183,33280
9184,33344
9185,33408
9186,33472
9187,33600
9188,33600
9189,33664
9190,33728
9191,33856
9192,33856
9193,33920
9194,33984
9195,34048
9196,34112
9197,34112
9198,34176
9199,34240
9200,34240
9201,34176
9202,34112
9203,34112
9204,34176
9205,34112
9206,34048
9207,34048
9208,34048
9209,34048
9210,34048
9211,34048
9212,34112
9213,34176
9214,34112
9215,34112
9216,34112
9217,34112
9218,34048
9219,34048
9220,34112
9221,34112
9222,34048
9223,34048
9224,34112
9225,34176
9226,34176
9227,34176
9228,34240
9229,34240
9230,34176
9231,34176
9232,34176
9233,34240
9234,34240
9235,34176
9236,34176
9237,34176
9238,34112
9239,34048
9240,34112
9241,34176
9242,34240
9243,34304
9244,34432
9245,34560
9246,34688
9247,34752
9248,34816
9249,34880
9250,34944
9251,34944
9252,35008
9253,35072
9254,35072
9255,35136
9256,35136
9257,35200
9258,35136
9259,35008
9260,34752
9261,34496
9262,34112
9263,33792
9264,33536
9265,33408
9266,33408
9267,33408
9268,33408
9269,33472
9270,33600
9271,33600
9272,33472
9273,33152
9274,32768
9275,32704
9276,33088
9277,34048
9278,35584
9279,37760
9280,40448
9281,43584
9282,46784
9283,48448
9284,48256
9285,46144
9286,42944
9287,39488
9288,36224
9289,33536
9290,31552
9291,30464
9292,29888
9293,29696
9294,29760
9295,29952
9296,30208
9297,30464
9298,30848
9299,31168
9300,31424
9301,31680
9302,31936
9303,32192
9304,32448
9305,32576
9306,32704
9307,32896
9308,33024
9309,33152
9310,33280
9311,33472
9312,33600
9313,33728
9314,33792
9315,33856
9316,34048
9317,34176
9318,34304
9319,34432
9320,34624
9321,34752
9322,34816
9323,34944
9324,35072
9325,35136
9326,35200
9327,35264
9328,35328
9329,35328
9330,35328
9331,35264
9332,35200
9333,35200
9334,35072
9335,34944
9336,34880
9337,34752
9338,34560
9339,34240
9340,34048
9341,33920
9342,33728
9343,33536
9344,33408
9345,33280
9346,33152
9347,33024
9348,32960
9349,32960
9350,32960
9351,33024
9352,32960
9353,33024
9354,33088
9355,33152
9356,33280
9357,33408
9358,33536
9359,33664
9360,33728
9361,33728
9362,33792
9363,33856
9364,33856
9365,33920
9366,33984
9367,33984
9368,33984
9369,33984
9370,33984
9371,33920
9372,33856
9373,33856
9374,33920
9375,33984
9376,33984
9377,33920
9378,33984
9379,34048
9380,34112
9381,34112
9382,34176
9383,34240
9384,34176
9385,34176
9386,34176
9387,34176
9388,34176
9389,34112
9390,34112
9391,34112
9392,34112
9393,34048
9394,34048
9395,34112
9396,34112
9397,34112
9398,34048
9399,34048
9400,34112
9401,34240
9402,34304
9403,34304
9404,34240
9405,34176
9406,34176
9407,34176
9408,34240
9409,34304
9410,34432
9411,34496
9412,34624
9413,34688
9414,34752
9415,34880
9416,34944
9417,35008
9418,35072
9419,35136
9420,35072
9421,35072
9422,34944
9423,34944
9424,34944
9425,34752
9426,34432
9427,34048
9428,33792
9429,33664
9430,33536
9431,33472
9432,33472
9433,33472
9434,33536
9435,33536
9436,33600
9437,33536
9438,33216
9439,32832
9440,32640
9441,32896
9442,33728
9443,35264
9444,37248
9445,39744
9446,42816
9447,45952
9448,47936
9449,48064
9450,46272
9451,43200
9452,39808
9453,36608
9454,33920
9455,31808
9456,30528
9457,30080
9458,29888
9459,29888
9460,30016
9461,30336
9462,30656
9463,30976
9464,31232
9465,31552
9466,31872
9467,32064
9468,32192
9469,32384
9470,32512
9471,32768
9472,32896
9473,33024
9474,33152
9475,33216
9476,33344
9477,33536
9478,33792
9479,34048
9480,34176
9481,34304
9482,34368
9483,34432
9484,34496
9485,34624
9486,34816
9487,34944
9488,35072
9489,35136
9490,35200
9491,35328
9492,35328
9493,35328
9494,35328
9495,35392
9496,35328
9497,35264
9498,35200
9499,35136
9500,35008
9501,34816
9502,34688
9503,34560
9504,34368
9505,34176
9506,33920
9507,33792
9508,33600
9509,33472
9510,33408
9511,33408
9512,33344
9513,33280
9514,33216
9515,33216
9516,33216
9517,33216
9518,33152
9519,33216
9520,33344
9521,33472
9522,33472
9523,33536
9524,33600
9525,33664
9526,33728
9527,33728
9528,33856
9529,33984
9530,34048
9531,34112
9532,34176
9533,34240
9534,34304
9535,34304
9536,34240
9537,34176
9538,34112
9539,33984
9540,33984
9541,34048
9542,34048
9543,34048
9544,34112
9545,34176
9546,34176
9547,34176
9548,34112
9549,34176
9550,34176
9551,34240
9552,34304
9553,34368
9554,34368
9555,34368
9556,34240
9557,34176
9558,34112
9559,34048
9560,34048
9561,34048
9562,34112
9563,34176
9564,34176
9565,34112
9566,34176
9567,34176
9568,34176
9569,34240
9570,34240
9571,34240
9572,34304
9573,34432
9574,34624
9575,34752
9576,34816
9577,34880
9578,34880
9579,34880
9580,34880
9581,34944
9582,35072
9583,35200
9584,35200
9585,35136
9586,34944
9587,34752
9588,34496
9589,34176
9590,33856
9591,33664
9592,33600
9593,33536
9594,33536
9595,33600
9596,33600
9597,33600
9598,33600
9599,33664
9600,33472
9601,33088
9602,32768
9603,32832
9604,33408
9605,34560
9606,36352
9607,38720
9608,41856
9609,44864
9610,47424
9611,48448
9612,47424
9613,44736
9614,41408
9615,38080
9616,35136
9617,32768
9618,31168
9619,30272
9620,29952
9621,29952
9622,30144
9623,30400
9624,30656
9625,30912
9626,31168
9627,31424
9628,31680
9629,32000
9630,32256
9631,32512
9632,32704
9633,32896
9634,33024
9635,33152
9636,33280
9637,33408
9638,33536
9639,33600
9640,33728
9641,33920
9642,34048
9643,34176
9644,34304
9645,34432
9646,34560
9647,34688
9648,34816
9649,34944
9650,35072
9651,35136
9652,35200
9653,35328
9654,35392
9655,35456
9656,35392
9657,35392
9658,35392
9659,35328
9660,35200
9661,35136
9662,35072
9663,34944
9664,34816
9665,34688
9666,34560
9667,34368
9668,33984
9669,33728
9670,33600
9671,33472
9672,33344
9673,33280
9674,33280
9675,33344
9676,33280
9677,33216
9678,33216
9679,33280
9680,33216
9681,33216
9682,33344
9683,33408
9684,33472
9685,33472
9686,33600
9687,33728
9688,33728
9689,33664
9690,33664
9691,33664
9692,33792
9693,33792
9694,33792
9695,33920
9696,33984
9697,34112
9698,34176
9699,34240
9700,34304
9701,34304
9702,34304
9703,34368
9704,34368
9705,34304
9706,34240
9707,34304
9708,34304
9709,34240
9710,34176
9711,34176
9712,34240
9713,34240
9714,34176
9715,34176
9716,34176
9717,34176
9718,34176
9719,34176
9720,34176
9721,34176
9722,34176
9723,34240
9724,34304
9725,34304
9726,34240
9727,34240
9728,34304
9729,34368
9730,34432
9731,34496
9732,34688
9733,34816
9734,34816
9735,34944
9736,35072
9737,35136
9738,35072
9739,35008
9740,35072
9741,35136
9742,35200
9743,35136
9744,35136
9745,35072
9746,34880
9747,34560
9748,34176
9749,33920
9750,33664
9751,33536
9752,33536
9753,33600
9754,33664
9755,33600
9756,33536
9757,33536
9758,33536
9759,33408
9760,33088
9761,32832
9762,33024
9763,33600
9764,34752
9765,36608
9766,39040
9767,42048
9768,45312
9769,47808
9770,48640
9771,47360
9772,44544
9773,40960
9774,37632
9775,34752
9776,32512
9777,31040
9778,30336
9779,30016
9780,29888
9781,29952
9782,30144
9783,30464
9784,30720
9785,31040
9786,31360
9787,31616
9788,31872
9789,32128
9790,32320
9791,32576
9792,32896
9793,33024
9794,33216
9795,33344
9796,33408
9797,33600
9798,33792
9799,33920
9800,33984
9801,33920
9802,34112
9803,34304
9804,34496
9805,34624
9806,34752
9807,34944
9808,34880
9809,35072
9810,35136
9811,35264
9812,35264
9813,35200
9814,35200
9815,35264
9816,35200
9817,35136
9818,35072
9819,35008
9820,34944
9821,34816
9822,34688
9823,34624
9824,34432
9825,34240
9826,34048
9827,33856
9828,33792
9829,33536
9830,33408
9831,33280
9832,33216
9833,33344
9834,33472
9835,33344
9836,33216
9837,33024
9838,32960
9839,33024
9840,33024
9841,33024
9842,33088
9843,33280
9844,33536
9845,33664
9846,33728
9847,33792
9848,33856
9849,33984
9850,34048
9851,34048
9852,33984
9853,33920
9854,33984
9855,33984
9856,34112
9857,34176
9858,34112
9859,34048
9860,34240
9861,34304
9862,34304
9863,34240
9864,34176
9865,34176
9866,34112
9867,34176
9868,34240
9869,34304
9870,34368
9871,34304
9872,34240
9873,34176
9874,34176
9875,34176
9876,34240
9877,34176
9878,34176
9879,34240
9880,34112
9881,34048
9882,33984
9883,33920
9884,33856
9885,34048
9886,34304
9887,34560
9888,34752
9889,34816
9890,34816
9891,34752
9892,34688
9893,34624
9894,34816
9895,34944
9896,35008
9897,35008
9898,34816
9899,34688
9900,34624
9901,34496
9902,34240
9903,33920
9904,33664
9905,33536
9906,33472
9907,33408
9908,33472
9909,33472
9910,33344
9911,33344
9912,33344
9913,33280
9914,33152
9915,32896
9916,32640
9917,32768
9918,33472
9919,34752
9920,36608
9921,38912
9922,42368
9923,42496
9924,47872
9925,48576
9926,47168
9927,44352
9928,40960
9929,37632
9930,34688
9931,32448
9932,30976
9933,30208
9934,29888
9935,29888
9936,30016
9937,30208
9938,30464
9939,30848
9940,31232
9941,31616
9942,31936
9943,32192
9944,32256
9945,32320
9946,32512
9947,32768
9948,32960
9949,33152
9950,33216
9951,33344
9952,33600
9953,33600
9954,33664
9955,33856
9956,34112
9957,34368
9958,34496
9959,34560
9960,34560
9961,34624
9962,34752
9963,34944
9964,35200
9965,35200
9966,35136
9967,35072
9968,35264
9969,35520
9970,35328
9971,35008
9972,34624
9973,34496
9974,34432
9975,34432
9976,34368
9977,34304
9978,34368
9979,34368
9980,34368
9981,34240
9982,34048
9983,33984
9984,33408
9985,33216
9986,33152
9987,33216
9988,33536
9989,33728
9990,33536
9991,33216
9992,32896
9993,32896
9994,33088
9995,32960
9996,32768
9997,32640
9998,32512
9999,32512
10000,32640
10001,32768
10002,33024
10003,33408
10004,33728
10005,33856
10006,33792
10007,33792
10008,33792
10009,33856
10010,33984
10011,34048
10012,34048
10013,34048
10014,34176
10015,34304
10016,34304
10017,34368
10018,34240
10019,34048
10020,33920
10021,33984
10022,34048
10023,34112
10024,34112
10025,33984
10026,33856
10027,33856
10028,33984
10029,33984
10030,33984
10031,33920
10032,33856
10033,33792
10034,33856
10035,33984
10036,34048
10037,34176
10038,34368
10039,34560
10040,34816
10041,34880
10042,34688
10043,34624
10044,34752
10045,35008
10046,35200
10047,35328
10048,35392
10049,35392
10050,35328
10051,35264
10052,35200
10053,34816
10054,34240
10055,33664
10056,33344
10057,33152
10058,32896
10059,32832
10060,32832
10061,33024
10062,33280
10063,33536
10064,33664
10065,33664
10066,33472
10067,33024
10068,32832
10069,33152
10070,33984
10071,35520
10072,38400
10073,38656
10074,44160
10075,47360
10076,49024
10077,48640
10078,46400
10079,43136
10080,39552
10081,36352
10082,33600
10083,31616
10084,30400
10085,29888
10086,29760
10087,29824
10088,29824
10089,30400
10090,30848
10091,31296
10092,31488
10093,31424
10094,31552
10095,31680
10096,31808
10097,31936
10098,32192
10099,32512
10100,32768
10101,32960
10102,33216
10103,33344
10104,33344
10105,33408
10106,33600
10107,33856
10108,34176
10109,34368
10110,34432
10111,34432
10112,34432
10113,34432
10114,34560
10115,34752
10116,34944
10117,35136
10118,35136
10119,35200
10120,35264
10121,35392
10122,35328
10123,35392
10124,35392
10125,35200
10126,35008
10127,34880
10128,34880
10129,34816
10130,34624
10131,34240
10132,33792
10133,33728
10134,33408
10135,33344
10136,33280
10137,33216
10138,33152
10139,33216
10140,33344
10141,33216
10142,32960
10143,32960
10144,33216
10145,33600
10146,33664
10147,33600
10148,33536
10149,33408
10150,33280
10151,33280
10152,33408
10153,33472
10154,33536
10155,33536
10156,33664
10157,33728
10158,33792
10159,33856
10160,33920
10161,33984
10162,33984
10163,34112
10164,34368
10165,34496
10166,34368
10167,34176
10168,34112
10169,34048
10170,34048
10171,34112
10172,34304
10173,34432
10174,34368
10175,34176
10176,33984
10177,33856
10178,33792
10179,33792
10180,33920
10181,34048
10182,34176
10183,34048
10184,34048
10185,34048
10186,34176
10187,34240
10188,34304
10189,34496
10190,34688
10191,34752
10192,34688
10193,34624
10194,34816
10195,35008
10196,35072
10197,35136
10198,35136
10199,35136
10200,35072
10201,34880
10202,34624
10203,34304
10204,33984
10205,33600
10206,33408
10207,33344
10208,33344
10209,33344
10210,33408
10211,33472
10212,33536
10213,33472
10214,33408
10215,33216
10216,32832
10217,32512
10218,32768
10219,33664
10220,35072
10221,37184
10222,40832
10223,41216
10224,46144
10225,48320
10226,48832
10227,47552
10228,44864
10229,41280
10230,37632
10231,34432
10232,32064
10233,30592
10234,29888
10235,29632
10236,29760
10237,29888
10238,29824
10239,30400
10240,30656
10241,30912
10242,31232
10243,31552
10244,31936
10245,32128
10246,32256
10247,32448
10248,32768
10249,33024
10250,33152
10251,33216
10252,33280
10253,33280
10254,33536
10255,33664
10256,33792
10257,33920
10258,34048
10259,34176
10260,34368
10261,34560
10262,34624
10263,34624
10264,34752
10265,34880
10266,34944
10267,35072
10268,35200
10269,35392
10270,35520
10271,35456
10272,35328
10273,35136
10274,35008
10275,34944
10276,34880
10277,34880
10278,34752
10279,34496
10280,34240
10281,34112
10282,33984
10283,33920
10284,33792
10285,33728
10286,33664
10287,33472
10288,33216
10289,33088
10290,33088
10291,33088
10292,33152
10293,33152
10294,33152
10295,33216
10296,33280
10297,33472
10298,33408
10299,33344
10300,33152
10301,33216
10302,33472
10303,33728
10304,33856
10305,33856
10306,33984
10307,34048
10308,34048
10309,34048
10310,34112
10311,34176
10312,34176
10313,34112
10314,34112
10315,34240
10316,34240
10317,34176
10318,34176
10319,34176
10320,34112
10321,34048
10322,34048
10323,34048
10324,34112
10325,34176
10326,34176
10327,34176
10328,34176
10329,34048
10330,33984
10331,33984
10332,34048
10333,34048
10334,34048
10335,34176
10336,34304
10337,34496
10338,34624
10339,34688
10340,34752
10341,34752
10342,34880
10343,34880
10344,35136
10345,35200
10346,35136
10347,35008
10348,34944
10349,34880
10350,34752
10351,34496
10352,34176
10353,33984
10354,33728
10355,33536
10356,33472
10357,33536
10358,33472
10359,33472
10360,33472
10361,33472
10362,33280
10363,32960
10364,32576
10365,32512
10366,32896
10367,33792
10368,35264
10369,37440
10370,40192
10371,43456
10372,46848
10373,48640
10374,48768
10375,46976
10376,43904
10377,40320
10378,36992
10379,34048
10380,31808
10381,30528
10382,29888
10383,29632
10384,29632
10385,29888
10386,30208
10387,30592
10388,30528
10389,31040
10390,31360
10391,31680
10392,31872
10393,32064
10394,32320
10395,32512
10396,32640
10397,32832
10398,32960
10399,33216
10400,33408
10401,33600
10402,33664
10403,33728
10404,33728
10405,33792
10406,33984
10407,34240
10408,34432
10409,34560
10410,34688
10411,34816
10412,34944
10413,35008
10414,35136
10415,35264
10416,35392
10417,35456
10418,35456
10419,35456
10420,35328
10421,35200
10422,35136
10423,35136
10424,35136
10425,34880
10426,34624
10427,34432
10428,34304
10429,34176
10430,34048
10431,33920
10432,33600
10433,33536
10434,33408
10435,33280
10436,33216
10437,33088
10438,33024
10439,33024
10440,33152
10441,33216
10442,33216
10443,33216
10444,33344
10445,33472
10446,33536
10447,33600
10448,33536
10449,33728
10450,33728
10451,33792
10452,33856
10453,33792
10454,33792
10455,33792
10456,33792
10457,33856
10458,33920
10459,33984
10460,34048
10461,34048
10462,34048
10463,34048
10464,34048
10465,34112
10466,34112
10467,34112
10468,34112
10469,34112
10470,34048
10471,34048
10472,34048
10473,34176
10474,34304
10475,34240
10476,34112
10477,33984
10478,33920
10479,33984
10480,33984
10481,34048
10482,34176
10483,34304
10484,34432
10485,34560
10486,34624
10487,34688
10488,34688
10489,34688
10490,34816
10491,34944
10492,35008
10493,35072
10494,35072
10495,35072
10496,34944
10497,34816
10498,34624
10499,34368
10500,33984
10501,33664
10502,33472
10503,33408
10504,33344
10505,33408
10506,33472
10507,33472
10508,33472
10509,33472
10510,33344
10511,33088
10512,32704
10513,32704
10514,33216
10515,34368
10516,36160
10517,38464
10518,41280
10519,44480
10520,47168
10521,48384
10522,47872
10523,45568
10524,42368
10525,38848
10526,35584
10527,32960
10528,31168
10529,30144
10530,29696
10531,29632
10532,29760
10533,29952
10534,30272
10535,30656
10536,31104
10537,31360
10538,31616
10539,31744
10540,31872
10541,32064
10542,32192
10543,32384
10544,32640
10545,32960
10546,33152
10547,33344
10548,33536
10549,33728
10550,33792
10551,33856
10552,33984
10553,34112
10554,34240
10555,34368
10556,34496
10557,34688
10558,34880
10559,35008
10560,35008
10561,35072
10562,35008
10563,35008
10564,35072
10565,35200
10566,35264
10567,35200
10568,35072
10569,35008
10570,34944
10571,34880
10572,34752
10573,34624
10574,34496
10575,34304
10576,34176
10577,34048
10578,33920
10579,33664
10580,33536
10581,33408
10582,33408
10583,33344
10584,33216
10585,33152
10586,33152
10587,33152
10588,33152
10589,33088
10590,33088
10591,33088
10592,33088
10593,33152
10594,33280
10595,33408
10596,33472
10597,33536
10598,33600
10599,33664
10600,33728
10601,33728
10602,33856
10603,33984
10604,33984
10605,34048
10606,34176
10607,34240
10608,34176
10609,34240
10610,34240
10611,34304
10612,34240
10613,34112
10614,34112
10615,34112
10616,34112
10617,34048
10618,34048
10619,34112
10620,34176
10621,34176
10622,34176
10623,34240
10624,34304
10625,34240
10626,34176
10627,34112
10628,34176
10629,34176
10630,34240
10631,34304
10632,34368
10633,34432
10634,34432
10635,34560
10636,34752
10637,34816
10638,34816
10639,34752
10640,34752
10641,34752
10642,34816
10643,34944
10644,35072
10645,35008
10646,34880
10647,34752
10648,34496
10649,34176
10650,33856
10651,33664
10652,33600
10653,33536
10654,33536
10655,33472
10656,33472
10657,33536
10658,33600
10659,33664
10660,33536
10661,33216
10662,32768
10663,32704
10664,33216
10665,34432
10666,36288
10667,38656
10668,41664
10669,44992
10670,47488
10671,48512
10672,47552
10673,44992
10674,41664
10675,38144
10676,34944
10677,32448
10678,30848
10679,30016
10680,29632
10681,29632
10682,29824
10683,30016
10684,30336
10685,30720
10686,31104
10687,31488
10688,31808
10689,32000
10690,32128
10691,32192
10692,32320
10693,32512
10694,32704
10695,32960
10696,33088
10697,33280
10698,33472
10699,33600
10700,33728
10701,33792
10702,33984
10703,34112
10704,34240
10705,34432
10706,34624
10707,34816
10708,34944
10709,35008
10710,35136
10711,35200
10712,35264
10713,35264
10714,35264
10715,35328
10716,35264
10717,35264
10718,35264
10719,35200
10720,35136
10721,35008
10722,34880
10723,34816
10724,34688
10725,34496
10726,34304
10727,34176
10728,34048
10729,33920
10730,33728
10731,33600
10732,33408
10733,33280
10734,33216
10735,33088
10736,33024
10737,33024
10738,33024
10739,33088
10740,33216
10741,33216
10742,33216
10743,33280
10744,33344
10745,33408
10746,33472
10747,33536
10748,33664
10749,33792
10750,33856
10751,33920
10752,33920
10753,33920
10754,33920
10755,33920
10756,34048
10757,34112
10758,34112
10759,34112
10760,34176
10761,34240
10762,34304
10763,34304
10764,34240
10765,34240
10766,34176
10767,34176
10768,34176
10769,34176
10770,34112
10771,34048
10772,34048
10773,33984
10774,33984
10775,33856
10776,33856
10777,33920
10778,34048
10779,34112
10780,34240
10781,34304
10782,34304
10783,34304
10784,34304
10785,34368
10786,34432
10787,34560
10788,34624
10789,34688
10790,34688
10791,34752
10792,34752
10793,34880
10794,35008
10795,35008
10796,34944
10797,34944
10798,34880
10799,34688
10800,34432
10801,34112
10802,33920
10803,33728
10804,33536
10805,33472
10806,33472
10807,33472
10808,33536
10809,33472
10810,33536
10811,33536
10812,33344
10813,33024
10814,32768
10815,32960
10816,33600
10817,34816
10818,36608
10819,38976
10820,41920
10821,45376
10822,47552
10823,48384
10824,47488
10825,44992
10826,41728
10827,38336
10828,35264
10829,32704
10830,31040
10831,30144
10832,29824
10833,29760
10834,29824
10835,30080
10836,30400
10837,30720
10838,31040
10839,31360
10840,31616
10841,31872
10842,32128
10843,32384
10844,32704
10845,32896
10846,32960
10847,33088
10848,33152
10849,33280
10850,33408
10851,33600
10852,33728
10853,33920
10854,34048
10855,34176
10856,34304
10857,34368
10858,34432
10859,34560
10860,34688
10861,34944
10862,35072
10863,35200
10864,35264
10865,35392
10866,35456
10867,35392
10868,35392
10869,35392
10870,35392
10871,35328
10872,35328
10873,35264
10874,35072
10875,34880
10876,34688
10877,34496
10878,34240
10879,33984
10880,33728
10881,33664
10882,33600
10883,33408
10884,33216
10885,33088
10886,33024
10887,32960
10888,32960
10889,32896
10890,32960
10891,33024
10892,33088
10893,33152
10894,33280
10895,33344
10896,33408
10897,33472
10898,33472
10899,33472
10900,33536
10901,33600
10902,33728
10903,33792
10904,33792
10905,33856
10906,33920
10907,33984
10908,33984
10909,33920
10910,33984
10911,34048
10912,34048
10913,34112
10914,34176
10915,34176
10916,34176
10917,34240
10918,34240
10919,34240
10920,34240
10921,34176
10922,34112
10923,34176
10924,34176
