,ECG
0,34688
1,34688
2,34688
3,34496
4,34048
5,33792
6,33792
7,33792
8,33536
9,33280
10,33152
11,33216
12,33280
13,33216
14,33152
15,33088
16,33088
17,33088
18,33280
19,33408
20,33408
21,33472
22,33600
23,33728
24,33792
25,33728
26,33664
27,33728
28,33792
29,33728
30,33728
31,33856
32,33856
33,33728
34,33664
35,33856
36,33920
37,33856
38,33856
39,33920
40,34048
41,34112
42,34048
43,34112
44,34176
45,34176
46,34048
47,34048
48,34048
49,34112
50,34112
51,34048
52,34048
53,34048
54,34048
55,33984
56,33984
57,33984
58,33920
59,33856
60,33856
61,34048
62,34048
63,33920
64,33920
65,33856
66,34048
67,34048
68,34112
69,34176
70,34176
71,34048
72,34048
73,34176
74,34112
75,34112
76,34176
77,34176
78,34176
79,34176
80,34112
81,34304
82,34432
83,34368
84,34368
85,34432
86,34624
87,34624
88,34496
89,34560
90,34624
91,34688
92,34752
93,34752
94,34880
95,34880
96,34816
97,34752
98,34752
99,34624
100,34304
101,34048
102,33856
103,33600
104,33408
105,33408
106,33536
107,33600
108,33664
109,33728
110,33728
111,33664
112,33344
113,33024
114,32896
115,33408
116,34176
117,35264
118,36800
119,39040
120,41856
121,44352
122,45952
123,46080
124,43712
125,43264
126,38656
127,35840
128,33536
129,31808
130,30848
131,30528
132,30464
133,30400
134,30528
135,30848
136,31296
137,31744
138,32000
139,32256
140,32512
141,32768
142,32896
143,33088
144,33344
145,33536
146,33600
147,33664
148,33664
149,33664
150,33664
151,33792
152,34048
153,34304
154,34368
155,34368
156,34368
157,34368
158,34304
159,34240
160,34304
161,34496
162,34624
163,34624
164,34752
165,34816
166,34816
167,34816
168,34880
169,34944
170,34880
171,34816
172,34752
173,34816
174,34752
175,34624
176,34496
177,34240
178,33984
179,33856
180,33728
181,33664
182,33472
183,33280
184,33152
185,33152
186,33216
187,33344
188,33344
189,33280
190,33216
191,33088
192,33024
193,33088
194,33216
195,33344
196,33408
197,33536
198,33728
199,33856
200,33792
201,33856
202,33920
203,33920
204,33856
205,33856
206,33920
207,33984
208,33920
209,33920
210,33920
211,33920
212,33920
213,33856
214,34048
215,33984
216,34048
217,33920
218,34048
219,34112
220,34048
221,33856
222,33728
223,33792
224,33856
225,33856
226,33856
227,33920
228,33984
229,33984
230,33984
231,33984
232,34048
233,33984
234,33984
235,34048
236,34112
237,33984
238,33920
239,33920
240,34112
241,34176
242,33984
243,33856
244,33856
245,33856
246,33984
247,34048
248,34048
249,33920
250,33920
251,33920
252,33984
253,34048
254,34048
255,34176
256,34304
257,34496
258,34624
259,34688
260,34688
261,34624
262,34496
263,34496
264,34624
265,34816
266,34880
267,34816
268,34816
269,34752
270,34624
271,34496
272,34368
273,34176
274,33920
275,33792
276,33536
277,33472
278,33408
279,33408
280,33600
281,33600
282,33536
283,33408
284,33344
285,33344
286,33280
287,33408
288,33792
289,35136
290,35264
291,38208
292,40640
293,43392
294,45568
295,46208
296,45184
297,42816
298,39936
299,36992
300,34240
301,32192
302,31040
303,30464
304,30336
305,30464
306,30784
307,31104
308,31296
309,31616
310,31936
311,32192
312,32384
313,32512
314,32768
315,33088
316,33216
317,33280
318,33408
319,33664
320,33664
321,33664
322,33600
323,33664
324,33728
325,33792
326,33856
327,34048
328,34240
329,34176
330,33984
331,34048
332,34112
333,34240
334,34496
335,34560
336,34624
337,34752
338,34944
339,35072
340,35072
341,34944
342,34688
343,34496
344,34432
345,34432
346,34368
347,34304
348,34304
349,34176
350,34048
351,33920
352,33920
353,33920
354,33856
355,33600
356,33408
357,33408
358,33344
359,33280
360,33216
361,33216
362,33216
363,33216
364,33280
365,33280
366,33408
367,33408
368,33472
369,33600
370,33728
371,33728
372,33728
373,33792
374,33856
375,33728
376,33600
377,33664
378,33728
379,33856
380,33984
381,34112
382,34112
383,33984
384,33856
385,33728
386,33792
387,33792
388,33728
389,33792
390,33920
391,33920
392,33920
393,33920
394,33920
395,33856
396,33856
397,33856
398,33920
399,33920
400,33792
401,33792
402,33856
403,33920
404,33984
405,33984
406,33984
407,33856
408,33792
409,33728
410,33728
411,33792
412,33792
413,33856
414,33856
415,33984
416,34048
417,33984
418,33984
419,34048
420,34176
421,34176
422,34112
423,34048
424,34048
425,33984
426,34112
427,34304
428,34432
429,34496
430,34560
431,34560
432,34560
433,34560
434,34688
435,34880
436,34944
437,34816
438,34752
439,34944
440,34880
441,35072
442,35008
443,34816
444,34624
445,34432
446,34176
447,33856
448,33792
449,33728
450,33600
451,33536
452,33536
453,33536
454,33536
455,33600
456,33600
457,33536
458,33280
459,33088
460,33216
461,33600
462,34432
463,35712
464,37568
465,39936
466,42752
467,45120
468,46272
469,45376
470,45184
471,41024
472,37952
473,35264
474,32896
475,31168
476,30336
477,30080
478,30208
479,30464
480,30848
481,31360
482,31680
483,31872
484,32192
485,32384
486,32704
487,32896
488,33088
489,33152
490,33280
491,33344
492,33408
493,33408
494,33472
495,33536
496,33600
497,33664
498,33792
499,33984
500,33920
501,34304
502,34432
503,34432
504,34240
505,34240
506,34432
507,34624
508,34688
509,34816
510,34944
511,35008
512,35008
513,34944
514,34816
515,34816
516,34816
517,34752
518,34688
519,34752
520,34816
521,34752
522,34560
523,34304
524,34112
525,33856
526,33664
527,33664
528,33600
529,33344
530,33344
531,33344
532,33280
533,33216
534,33152
535,33152
536,33216
537,33280
538,33280
539,33344
540,33536
541,33664
542,33664
543,33600
544,33600
545,33536
546,33408
547,33408
548,33600
549,33728
550,33792
551,33792
552,33856
553,33984
554,34048
555,34048
556,34112
557,34048
558,33920
559,33856
560,33920
561,33984
562,33984
563,33984
564,33984
565,34112
566,34048
567,33984
568,33984
569,34112
570,34176
571,34112
572,34048
573,33984
574,33856
575,33792
576,33792
577,33792
578,33792
579,33856
580,33856
581,33984
582,34048
583,34048
584,34048
585,34112
586,34176
587,34112
588,34048
589,33984
590,33984
591,33984
592,33920
593,33984
594,34176
595,34176
596,34048
597,33984
598,33984
599,34048
600,34176
601,34304
602,34432
603,34432
604,34432
605,34432
606,34624
607,34752
608,34752
609,34816
610,34880
611,35008
612,34944
613,34944
614,34944
615,34880
616,34624
617,34304
618,33984
619,33792
620,33600
621,33408
622,33344
623,33472
624,33536
625,33664
626,33728
627,33664
628,33472
629,33152
630,32960
631,33216
632,33728
633,34496
634,36096
635,37568
636,40064
637,42880
638,45056
639,45952
640,45376
641,43264
642,40320
643,37440
644,34944
645,32832
646,31360
647,30464
648,30208
649,30400
650,30400
651,30912
652,31360
653,31680
654,31872
655,32064
656,32448
657,32704
658,32832
659,32960
660,33152
661,33344
662,33344
663,33344
664,33536
665,33728
666,33920
667,33920
668,33984
669,34112
670,34112
671,33984
672,33984
673,34176
674,34304
675,34432
676,34432
677,34496
678,34560
679,34688
680,34688
681,34816
682,34816
683,34752
684,34688
685,34688
686,34752
687,34752
688,34752
689,34752
690,34752
691,34688
692,34496
693,34368
694,34368
695,34368
696,34240
697,33920
698,33728
699,33536
700,33280
701,33024
702,33024
703,33024
704,33024
705,33088
706,33216
707,33280
708,33280
709,33280
710,33408
711,33472
712,33472
713,33472
714,33536
715,33536
716,33600
717,33664
718,33600
719,33536
720,33600
721,33600
722,33600
723,33792
724,33984
725,33984
726,34112
727,34112
728,34112
729,34048
730,33856
731,33856
732,33856
733,33856
734,33856
735,33920
736,33920
737,33856
738,33856
739,33856
740,33984
741,33984
742,33920
743,33856
744,33856
745,33856
746,33792
747,33856
748,33984
749,33984
750,33920
751,33856
752,33856
753,33984
754,33984
755,33920
756,33856
757,33856
758,33792
759,33728
760,33792
761,33856
762,33920
763,33920
764,34048
765,34240
766,34432
767,34560
768,34688
769,34688
770,34688
771,34624
772,34624
773,34624
774,34752
775,34688
776,34688
777,34816
778,34880
779,34752
780,34624
781,34560
782,34368
783,34048
784,33856
785,33792
786,33728
787,33600
788,33536
789,33664
790,33728
791,33600
792,33600
793,33600
794,33472
795,33152
796,32896
797,33088
798,33856
799,34880
800,36544
801,38528
802,41216
803,44160
804,46016
805,46336
806,44992
807,42368
808,39232
809,36224
810,33664
811,31936
812,30976
813,30464
814,30336
815,30464
816,30784
817,31232
818,31616
819,32000
820,32192
821,32256
822,32256
823,32448
824,32704
825,32896
826,33024
827,33280
828,33472
829,33600
830,33600
831,33536
832,33600
833,33664
834,33728
835,33728
836,33856
837,33984
838,34112
839,34304
840,34368
841,34432
842,34496
843,34560
844,34688
845,34752
846,34752
847,34944
848,35072
849,35072
850,34816
851,34624
852,34624
853,34688
854,34688
855,34624
856,34560
857,34560
858,34496
859,34368
860,34304
861,34112
862,33792
863,33536
864,33408
865,33344
866,33344
867,33280
868,33216
869,33280
870,33344
871,33408
872,33344
873,33280
874,33280
875,33280
876,33280
877,33344
878,33344
879,33280
880,33344
881,33472
882,33536
883,33600
884,33664
885,33728
886,33856
887,33856
888,33728
889,33664
890,33664
891,33728
892,33792
893,33920
894,34048
895,33984
896,33920
897,33920
898,33920
899,33856
900,33728
901,33728
902,33792
903,33920
904,33920
905,33920
906,33984
907,34048
908,34048
909,33920
910,33792
911,33856
912,33984
913,34048
914,34048
915,34048
916,34048
917,33920
918,33856
919,33920
920,33984
921,33984
922,33920
923,33984
924,33984
925,33920
926,33984
927,34048
928,34240
929,34240
930,34240
931,34304
932,34496
933,34688
934,34688
935,34624
936,34688
937,34688
938,34752
939,34944
940,34944
941,34752
942,34624
943,34496
944,34368
945,33920
946,33472
947,33344
948,33344
949,33408
950,33408
951,33408
952,33536
953,33600
954,33664
955,33664
956,33536
957,33344
958,33024
959,33024
960,33472
961,34432
962,35776
963,37632
964,40064
965,42816
966,44992
967,45696
968,44864
969,42752
970,40000
971,37056
972,34432
973,32448
974,31168
975,30464
976,30208
977,30272
978,30528
979,30784
980,31168
981,31616
982,32000
983,32320
984,32512
985,32704
986,32896
987,33088
988,33152
989,33280
990,33472
991,33536
992,33536
993,33600
994,33728
995,33728
996,33728
997,33792
998,33984
999,34112
1000,34112
1001,34176
1002,34368
1003,34560
1004,34496
1005,34432
1006,34432
1007,34624
1008,34752
1009,34752
1010,34816
1011,34944
1012,34944
1013,34816
1014,34816
1015,34816
1016,34752
1017,34560
1018,34496
1019,34560
1020,34496
1021,34240
1022,33984
1023,33920
1024,33920
1025,33792
1026,33600
1027,33472
1028,33472
1029,33344
1030,33152
1031,33280
1032,33408
1033,33280
1034,33216
1035,33344
1036,33536
1037,33472
1038,33216
1039,33216
1040,33408
1041,33600
1042,33600
1043,33728
1044,33920
1045,33920
1046,33792
1047,33792
1048,33984
1049,34048
1050,33856
1051,33664
1052,33792
1053,33856
1054,33792
1055,33792
1056,34048
1057,34304
1058,34176
1059,33920
1060,33920
1061,34048
1062,34048
1063,33984
1064,34112
1065,34304
1066,34176
1067,33920
1068,33920
1069,34112
1070,34176
1071,34048
1072,33984
1073,34112
1074,34176
1075,34048
1076,33920
1077,34048
1078,34176
1079,34048
1080,34048
1081,34176
1082,34304
1083,34240
1084,34048
1085,34112
1086,34304
1087,34304
1088,34176
1089,34368
1090,34560
1091,34688
1092,34560
1093,34624
1094,34816
1095,34880
1096,34752
1097,34752
1098,35008
1099,35136
1100,35008
1101,34944
1102,35008
1103,35008
1104,34688
1105,34368
1106,34176
1107,33984
1108,33664
1109,33280
1110,33344
1111,33600
1112,33664
1113,33600
1114,33664
1115,33792
1116,33728
1117,33344
1118,33088
1119,33088
1120,33408
1121,33920
1122,35072
1123,36928
1124,39232
1125,41792
1126,44352
1127,46016
1128,46144
1129,44288
1130,41472
1131,38464
1132,35776
1133,33344
1134,31424
1135,30528
1136,30336
1137,30272
1138,30336
1139,30528
1140,30976
1141,31296
1142,31552
1143,31936
1144,32320
1145,32576
1146,32704
1147,32832
1148,33152
1149,33408
1150,33344
1151,33280
1152,33472
1153,33728
1154,33664
1155,33600
1156,33728
1157,33984
1158,34048
1159,33984
1160,33984
1161,34048
1162,34048
1163,34112
1164,34240
1165,34560
1166,34624
1167,34624
1168,34688
1169,34880
1170,34944
1171,34816
1172,34816
1173,34880
1174,34880
1175,34688
1176,34624
1177,34688
1178,34816
1179,34624
1180,34368
1181,34304
1182,34304
1183,34112
1184,33920
1185,33856
1186,33856
1187,33728
1188,33536
1189,33472
1190,33408
1191,33280
1192,33088
1193,33024
1194,33088
1195,33152
1196,33152
1197,33216
1198,33408
1199,33536
1200,33536
1201,33472
1202,33600
1203,33728
1204,33664
1205,33536
1206,33664
1207,33856
1208,33792
1209,33664
1210,33792
1211,34048
1212,33984
1213,33792
1214,33792
1215,33984
1216,33984
1217,33856
1218,33856
1219,34048
1220,34112
1221,33984
1222,33984
1223,34112
1224,34112
1225,33984
1226,33856
1227,34048
1228,34112
1229,33920
1230,33792
1231,33856
1232,34048
1233,34048
1234,34048
1235,34112
1236,34112
1237,33984
1238,33728
1239,33728
1240,33984
1241,33984
1242,33792
1243,33792
1244,34112
1245,34304
1246,34240
1247,34240
1248,34432
1249,34624
1250,34560
1251,34560
1252,34624
1253,34688
1254,34688
1255,34688
1256,34816
1257,34944
1258,34880
1259,34816
1260,34752
1261,34688
1262,34560
1263,34240
1264,33920
1265,33792
1266,33728
1267,33664
1268,33536
1269,33472
1270,33344
1271,33280
1272,33280
1273,33408
1274,33344
1275,33088
1276,32832
1277,32960
1278,33472
1279,34304
1280,35712
1281,37504
1282,39936
1283,42688
1284,45056
1285,46208
1286,45824
1287,43840
1288,40896
1289,37824
1290,35136
1291,32960
1292,31424
1293,30528
1294,30144
1295,30144
1296,30272
1297,30592
1298,31040
1299,31424
1300,31616
1301,31872
1302,32192
1303,32512
1304,32704
1305,32896
1306,33216
1307,33472
1308,33600
1309,33600
1310,33600
1311,33664
1312,33600
1313,33600
1314,33664
1315,33792
1316,33856
1317,33856
1318,33984
1319,34176
1320,34304
1321,34240
1322,34304
1323,34432
1324,34560
1325,34752
1326,34752
1327,34752
1328,34816
1329,34752
1330,34688
1331,34752
1332,34880
1333,34880
1334,34816
1335,34688
1336,34688
1337,34624
1338,34432
1339,34240
1340,34112
1341,33984
1342,33856
1343,33792
1344,33600
1345,33344
1346,33216
1347,33152
1348,33216
1349,33344
1350,33408
1351,33472
1352,33344
1353,33280
1354,33216
1355,33152
1356,33280
1357,33408
1358,33408
1359,33344
1360,33472
1361,33664
1362,33728
1363,33728
1364,33792
1365,33856
1366,33856
1367,33792
1368,33728
1369,33856
1370,33920
1371,33920
1372,33984
1373,34048
1374,34048
1375,33920
1376,33792
1377,33856
1378,33920
1379,33920
1380,33856
1381,33984
1382,34048
1383,34112
1384,34112
1385,34176
1386,34176
1387,34112
1388,33984
1389,33920
1390,33984
1391,33984
1392,33920
1393,33920
1394,33984
1395,33920
1396,33920
1397,33920
1398,34048
1399,34048
1400,33920
1401,33920
1402,34048
1403,34176
1404,34304
1405,34368
1406,34560
1407,34688
1408,34752
1409,34624
1410,34624
1411,34688
1412,34752
1413,34816
1414,34944
1415,35072
1416,35136
1417,34944
1418,34688
1419,34496
1420,34240
1421,33920
1422,33728
1423,33728
1424,33728
1425,33600
1426,33408
1427,33408
1428,33408
1429,33408
1430,33344
1431,33472
1432,33536
1433,33408
1434,33088
1435,32960
1436,33344
1437,34048
1438,35200
1439,36992
1440,39296
1441,41984
1442,44480
1443,46016
1444,46144
1445,44608
1446,41984
1447,38848
1448,36096
1449,33600
1450,31744
1451,30720
1452,30272
1453,30208
1454,30272
1455,30464
1456,30848
1457,31296
1458,31680
1459,32064
1460,32448
1461,32768
1462,32896
1463,32960
1464,33024
1465,33216
1466,33344
1467,33408
1468,33536
1469,33664
1470,33728
1471,33664
1472,33600
1473,33728
1474,33920
1475,34112
1476,34176
1477,34176
1478,34176
1479,34112
1480,34176
1481,34368
1482,34624
1483,34752
1484,34752
1485,34880
1486,35008
1487,35008
1488,34944
1489,34880
1490,34880
1491,34752
1492,34624
1493,34624
1494,34624
1495,34560
1496,34432
1497,34304
1498,34304
1499,34240
1500,33984
1501,33600
1502,33408
1503,33280
1504,33216
1505,33088
1506,33088
1507,33152
1508,33152
1509,33024
1510,33024
1511,33088
1512,33088
1513,33088
1514,33152
1515,33344
1516,33472
1517,33536
1518,33536
1519,33664
1520,33728
1521,33792
1522,33728
1523,33600
1524,33600
1525,33536
1526,33600
1527,33728
1528,33792
1529,33728
1530,33728
1531,33792
1532,33920
1533,33920
1534,33856
1535,33856
1536,33984
1537,33984
1538,33984
1539,33984
1540,34112
1541,33984
1542,33792
1543,33728
1544,33856
1545,33984
1546,33920
1547,33920
1548,33984
1549,33984
1550,33856
1551,33792
1552,33856
1553,33920
1554,33856
1555,33792
1556,33856
1557,33920
1558,33856
1559,33856
1560,33920
1561,34112
1562,34176
1563,34176
1564,34304
1565,34496
1566,34560
1567,34496
1568,34432
1569,34560
1570,34688
1571,34624
1572,34560
1573,34688
1574,34816
1575,34752
1576,34624
1577,34496
1578,34304
1579,33984
1580,33792
1581,33728
1582,33600
1583,33536
1584,33408
1585,33344
1586,33472
1587,33536
1588,33536
1589,33664
1590,33664
1591,33408
1592,33024
1593,32832
1594,33152
1595,33856
1596,34944
1597,36608
1598,38720
1599,41472
1600,44288
1601,46016
1602,46272
1603,44864
1604,42176
1605,38976
1606,36096
1607,33664
1608,31872
1609,30720
1610,30208
1611,30080
1612,30208
1613,30464
1614,30848
1615,31296
1616,31616
1617,31808
1618,32128
1619,32512
1620,32768
1621,32832
1622,32896
1623,33024
1624,33216
1625,33280
1626,33408
1627,33536
1628,33664
1629,33664
1630,33600
1631,33664
1632,33856
1633,33984
1634,33984
1635,33984
1636,34048
1637,34112
1638,34240
1639,34432
1640,34560
1641,34688
1642,34688
1643,34816
1644,34880
1645,34880
1646,34816
1647,34816
1648,34752
1649,34688
1650,34560
1651,34560
1652,34560
1653,34560
1654,34432
1655,34304
1656,34176
1657,34048
1658,33984
1659,33856
1660,33664
1661,33408
1662,33216
1663,33152
1664,33152
1665,33280
1666,33280
1667,33216
1668,33280
1669,33472
1670,33472
1671,33408
1672,33344
1673,33344
1674,33408
1675,33408
1676,33472
1677,33664
1678,33792
1679,33728
1680,33664
1681,33664
1682,33728
1683,33728
1684,33728
1685,33792
1686,33856
1687,33856
1688,33856
1689,33792
1690,33920
1691,33920
1692,33920
1693,33984
1694,34048
1695,33984
1696,33856
1697,33792
1698,33792
1699,33856
1700,33856
1701,33792
1702,33920
1703,33984
1704,33920
1705,33920
1706,33984
1707,34048
1708,34048
1709,34112
1710,33984
1711,33856
1712,33856
1713,33920
1714,34048
1715,34048
1716,33856
1717,33792
1718,33792
1719,33856
1720,33856
1721,33856
1722,33920
1723,34048
1724,34112
1725,34176
1726,34240
1727,34368
1728,34432
1729,34560
1730,34624
1731,34688
1732,34688
1733,34752
1734,34816
1735,34944
1736,34880
1737,34752
1738,34688
1739,34688
1740,34432
1741,34048
1742,33664
1743,33536
1744,33408
1745,33344
1746,33408
1747,33472
1748,33472
1749,33408
1750,33344
1751,33344
1752,33344
1753,33152
1754,32832
1755,32768
1756,33024
1757,33664
1758,34688
1759,36544
1760,36800
1761,41216
1762,43968
1763,45888
1764,46336
1765,45056
1766,42432
1767,39296
1768,36352
1769,33792
1770,31808
1771,30592
1772,30144
1773,30016
1774,30080
1775,30336
1776,30784
1777,31168
1778,31488
1779,31808
1780,32128
1781,32448
1782,32640
1783,32768
1784,32960
1785,33152
1786,33216
1787,33344
1788,33472
1789,33664
1790,33664
1791,33664
1792,33600
1793,33664
1794,33728
1795,33728
1796,33856
1797,34048
1798,34240
1799,34240
1800,34240
1801,34176
1802,34240
1803,34304
1804,34496
1805,34688
1806,34880
1807,34880
1808,34816
1809,34752
1810,34880
1811,34880
1812,34816
1813,34688
1814,34688
1815,34624
1816,34432
1817,34240
1818,34176
1819,34112
1820,33920
1821,33728
1822,33664
1823,33536
1824,33344
1825,33152
1826,33088
1827,33088
1828,33024
1829,33024
1830,33152
1831,33152
1832,33088
1833,33024
1834,33152
1835,33088
1836,33408
1837,33408
1838,33536
1839,33664
1840,33600
1841,33536
1842,33600
1843,33728
1844,33792
1845,33792
1846,33856
1847,33856
1848,33856
1849,33856
1850,33792
1851,33984
1852,33984
1853,33920
1854,33920
1855,33984
1856,33984
1857,33984
1858,33920
1859,33920
1860,33984
1861,33984
1862,34048
1863,34048
1864,34112
1865,34048
1866,33920
1867,33920
1868,33984
1869,34048
1870,33984
1871,33856
1872,33920
1873,33984
1874,34048
1875,34048
1876,34112
1877,34048
1878,33920
1879,33792
1880,33856
1881,33984
1882,33920
1883,33920
1884,33984
1885,34048
1886,34048
1887,33920
1888,33984
1889,34112
1890,34240
1891,34240
1892,34304
1893,34432
1894,34560
1895,34496
1896,34624
1897,34752
1898,34816
1899,34816
1900,34816
1901,34816
1902,34752
1903,34688
1904,34688
1905,34688
1906,34688
1907,34560
1908,34304
1909,34112
1910,34048
1911,33792
1912,33600
1913,33536
1914,33600
1915,33664
1916,33664
1917,33600
1918,33600
1919,33600
1920,33472
1921,33216
1922,33024
1923,33024
1924,33408
1925,34240
1926,35712
1927,37632
1928,40128
1929,42944
1930,45312
1931,46400
1932,45760
1933,43648
1934,40768
1935,37696
1936,34944
1937,32640
1938,31232
1939,30464
1940,30144
1941,30016
1942,30208
1943,30592
1944,31040
1945,31360
1946,31744
1947,32192
1948,32512
1949,32704
1950,32896
1951,33152
1952,33280
1953,33280
1954,33280
1955,33408
1956,33536
1957,33536
1958,33472
1959,33600
1960,33792
1961,33920
1962,33984
1963,34048
1964,34176
1965,34240
1966,34240
1967,34304
1968,34560
1969,34624
1970,34560
1971,34432
1972,34624
1973,34752
1974,34816
1975,34816
1976,34880
1977,34944
1978,34880
1979,34880
1980,34880
1981,34880
1982,34752
1983,34560
1984,34496
1985,34432
1986,34304
1987,34112
1988,33856
1989,33728
1990,33600
1991,33472
1992,33472
1993,33536
1994,33472
1995,33344
1996,33216
1997,33280
1998,33344
1999,33280
2000,33216
2001,33280
2002,33344
2003,33280
2004,33344
2005,33600
2006,33664
2007,33536
2008,33472
2009,33536
2010,33664
2011,33664
2012,33600
2013,33600
2014,33728
2015,33792
2016,33792
2017,33856
2018,33920
2019,33920
2020,33856
2021,33792
2022,33856
2023,33856
2024,33792
2025,33792
2026,33856
2027,33920
2028,33856
2029,33856
2030,33920
2031,33984
2032,33920
2033,33920
2034,33920
2035,33920
2036,33856
2037,33856
2038,33920
2039,33920
2040,33856
2041,33792
2042,33920
2043,34048
2044,34048
2045,34048
2046,33984
2047,33984
2048,33984
2049,33984
2050,34048
2051,34176
2052,34240
2053,34176
2054,34176
2055,34176
2056,34240
2057,34240
2058,34304
2059,34496
2060,34496
2061,34688
2062,34624
2063,34688
2064,34816
2065,34880
2066,34880
2067,35008
2068,35136
2069,35072
2070,34944
2071,34816
2072,34816
2073,34752
2074,34496
2075,34240
2076,34048
2077,33920
2078,33664
2079,33536
2080,33472
2081,33536
2082,33472
2083,33472
2084,33600
2085,33728
2086,33728
2087,33344
2088,32960
2089,32832
2090,33088
2091,33856
2092,35136
2093,36992
2094,39296
2095,41984
2096,44672
2097,46272
2098,46208
2099,44480
2100,41600
2101,38656
2102,35712
2103,33280
2104,31360
2105,30592
2106,30144
2107,30016
2108,30144
2109,30528
2110,30976
2111,31360
2112,31680
2113,32000
2114,32320
2115,32448
2116,32576
2117,32704
2118,32960
2119,33152
2120,33280
2121,33408
2122,33536
2123,33600
2124,33600
2125,33600
2126,33728
2127,33856
2128,33856
2129,33792
2130,33920
2131,34112
2132,34112
2133,34176
2134,34368
2135,34432
2136,34368
2137,34304
2138,34432
2139,34560
2140,34624
2141,34624
2142,34624
2143,34688
2144,34752
2145,34688
2146,34624
2147,34752
2148,34688
2149,34496
2150,34368
2151,34304
2152,34176
2153,33984
2154,33728
2155,33728
2156,33728
2157,33600
2158,33472
2159,33408
2160,33344
2161,33216
2162,33088
2163,33088
2164,33152
2165,33152
2166,33088
2167,33152
2168,33344
2169,33408
2170,33472
2171,33536
2172,33664
2173,33728
2174,33664
2175,33728
2176,33920
2177,34048
2178,33984
2179,33856
2180,33920
2181,33920
2182,33856
2183,33792
2184,33792
2185,33920
2186,33920
2187,33920
2188,33984
2189,34176
2190,34176
2191,34048
2192,33984
2193,34048
2194,33984
2195,33920
2196,33984
2197,34112
2198,34112
2199,33984
2200,33856
2201,33920
2202,33920
2203,33856
2204,33856
2205,33920
2206,33920
2207,33856
2208,33792
2209,33920
2210,33984
2211,34048
2212,33984
2213,34048
2214,34112
2215,34112
2216,34112
2217,34112
2218,34112
2219,34048
2220,33984
2221,34048
2222,34240
2223,34304
2224,34432
2225,34432
2226,34496
2227,34560
2228,34624
2229,34688
2230,34752
2231,34752
2232,34752
2233,34752
2234,34880
2235,34880
2236,34816
2237,34752
2238,34688
2239,34624
2240,34368
2241,33984
2242,33792
2243,33728
2244,33664
2245,33536
2246,33536
2247,33600
2248,33664
2249,33472
2250,33472
2251,33536
2252,33472
2253,33216
2254,32960
2255,33152
2256,33792
2257,34880
2258,36352
2259,38336
2260,40896
2261,43648
2262,45632
2263,46336
2264,45376
2265,42816
2266,39808
2267,36800
2268,34240
2269,31680
2270,31488
2271,30144
2272,29952
2273,30080
2274,30400
2275,30784
2276,31232
2277,31616
2278,31872
2279,32128
2280,32448
2281,32704
2282,32832
2283,32960
2284,33216
2285,33408
2286,33472
2287,33472
2288,33536
2289,33728
2290,33792
2291,33728
2292,33728
2293,33856
2294,33920
2295,34048
2296,34048
2297,34176
2298,34240
2299,34176
2300,34240
2301,34368
2302,34432
2303,34496
2304,34560
2305,34688
2306,34752
2307,34752
2308,34752
2309,34816
2310,34880
2311,34816
2312,34752
2313,34624
2314,34496
2315,34432
2316,34304
2317,34176
2318,34112
2319,33984
2320,33856
2321,33664
2322,33536
2323,33472
2324,33344
2325,33280
2326,33280
2327,33280
2328,33216
2329,33152
2330,33152
2331,33152
2332,33216
2333,33280
2334,33408
2335,33472
2336,33408
2337,33408
2338,33536
2339,33600
2340,33536
2341,33536
2342,33536
2343,33600
2344,33600
2345,33600
2346,33664
2347,33792
2348,33856
2349,33856
2350,33856
2351,33856
2352,33856
2353,33856
2354,33920
2355,33984
2356,34048
2357,33984
2358,33920
2359,34048
2360,33984
2361,33920
2362,33856
2363,33920
2364,33984
2365,33984
2366,33920
2367,33920
2368,33984
2369,33984
2370,33920
2371,33920
2372,33984
2373,33984
2374,33856
2375,33792
2376,33984
2377,33984
2378,33920
2379,33920
2380,33984
2381,34048
2382,33984
2383,33984
2384,34048
2385,34240
2386,34176
2387,34048
2388,34048
2389,34112
2390,34176
2391,34240
2392,34368
2393,34432
2394,34432
2395,34432
2396,34560
2397,34688
2398,34816
2399,34816
2400,34816
2401,34944
2402,35008
2403,35008
2404,34880
2405,34816
2406,34624
2407,34368
2408,34048
2409,33920
2410,33792
2411,33664
2412,33536
2413,33600
2414,33664
2415,33728
2416,33664
2417,33664
2418,33728
2419,33728
2420,33408
2421,33024
2422,32960
2423,33472
2424,34432
2425,35968
2426,38144
2427,40512
2428,43200
2429,45568
2430,46528
2431,45824
2432,43584
2433,40320
2434,36288
2435,35904
2436,32576
2437,31168
2438,30336
2439,30080
2440,30080
2441,30272
2442,30720
2443,31296
2444,31680
2445,32000
2446,32320
2447,32640
2448,32832
2449,32896
2450,32960
2451,33216
2452,33344
2453,33344
2454,33344
2455,33472
2456,33536
2457,33600
2458,33600
2459,33728
2460,33920
2461,33920
2462,33856
2463,33856
2464,34048
2465,34048
2466,34176
2467,34304
2468,34496
2469,34624
2470,34624
2471,34752
2472,34816
2473,34816
2474,34816
2475,34816
2476,34880
2477,34880
2478,34816
2479,34752
2480,34688
2481,34624
2482,34496
2483,34304
2484,34304
2485,34176
2486,33984
2487,33792
2488,33728
2489,33664
2490,33536
2491,33344
2492,33280
2493,33280
2494,33152
2495,33088
2496,33088
2497,33216
2498,33344
2499,33408
2500,33408
2501,33472
2502,33472
2503,33408
2504,33344
2505,33344
2506,33472
2507,33472
2508,33536
2509,33664
2510,33728
2511,33792
2512,33728
2513,33792
2514,33920
2515,33856
2516,33856
2517,33920
2518,33920
2519,33856
2520,33856
2521,33920
2522,34048
2523,34048
2524,33984
2525,33984
2526,34048
2527,34048
2528,33984
2529,33920
2530,33920
2531,33920
2532,33856
2533,33792
2534,33856
2535,33920
2536,33856
2537,33792
2538,33856
2539,33984
2540,33984
2541,33920
2542,33984
2543,34112
2544,34176
2545,34048
2546,33920
2547,33984
2548,34048
2549,34048
2550,34048
2551,34048
2552,34112
2553,34112
2554,34240
2555,34496
2556,34624
2557,34624
2558,34688
2559,34752
2560,34752
2561,34752
2562,34688
2563,34752
2564,34816
2565,34752
2566,34624
2567,34624
2568,34624
2569,34304
2570,34240
2571,33856
2572,33664
2573,33536
2574,33408
2575,33344
2576,33408
2577,33408
2578,33408
2579,33408
2580,33536
2581,33600
2582,33472
2583,33216
2584,33024
2585,33216
2586,33792
2587,34752
2588,36288
2589,38400
2590,40896
2591,43584
2592,45632
2593,46272
2594,45184
2595,42752
2596,39744
2597,36800
2598,34240
2599,32064
2600,30976
2601,30528
2602,30400
2603,30528
2604,30848
2605,31296
2606,31680
2607,32000
2608,32256
2609,32640
2610,32960
2611,33152
2612,33344
2613,33536
2614,33664
2615,33664
2616,33728
2617,33792
2618,33920
2619,34048
2620,34048
2621,34112
2622,34240
2623,34304
2624,34304
2625,34432
2626,34624
2627,34752
2628,34752
2629,34880
2630,34944
2631,35072
2632,35136
2633,35200
2634,35328
2635,35456
2636,35520
2637,35520
2638,35584
2639,35584
2640,35584
2641,35456
2642,35456
2643,35456
2644,35328
2645,35200
2646,35136
2647,35136
2648,35008
2649,34816
2650,34624
2651,34560
2652,34496
2653,34304
2654,34240
2655,34304
2656,34304
2657,34240
2658,34240
2659,34304
2660,34304
2661,34304
2662,34240
2663,34368
2664,34432
2665,34496
2666,34496
2667,34560
2668,34688
2669,34752
2670,34688
2671,34752
2672,34880
2673,34944
2674,34880
2675,34880
2676,35008
2677,35008
2678,35008
2679,34944
2680,35072
2681,35136
2682,35136
2683,35136
2684,35264
2685,35328
2686,35264
2687,35200
2688,35264
2689,35264
2690,35200
2691,35136
2692,35200
2693,35264
2694,35264
2695,35136
2696,35136
2697,35200
2698,35200
2699,35136
2700,35200
2701,35264
2702,35328
2703,35264
2704,35200
2705,35264
2706,35264
2707,35200
2708,35136
2709,35200
2710,35264
2711,35264
2712,35328
2713,35392
2714,35584
2715,35584
2716,35584
2717,35712
2718,35840
2719,35840
2720,35840
2721,35840
2722,35968
2723,36032
2724,36032
2725,36096
2726,36096
2727,36032
2728,35712
2729,35392
2730,35136
2731,34944
2732,34752
2733,34624
2734,34624
2735,34624
2736,34624
2737,34624
2738,34688
2739,34816
2740,34688
2741,34496
2742,34240
2743,34048
2744,34176
2745,34688
2746,35776
2747,37440
2748,39552
2749,42112
2750,44864
2751,46912
2752,47424
2753,46208
2754,43776
2755,40768
2756,37824
2757,35136
2758,33024
2759,31744
2760,31104
2761,30848
2762,30912
2763,31232
2764,31680
2765,32064
2766,32384
2767,32704
2768,33088
2769,33344
2770,33536
2771,33728
2772,33984
2773,34112
2774,34112
2775,34176
2776,34368
2777,34496
2778,34496
2779,34496
2780,34688
2781,34816
2782,34816
2783,34816
2784,35008
2785,35072
2786,35136
2787,35136
2788,35264
2789,35392
2790,35456
2791,35456
2792,35520
2793,35648
2794,35712
2795,35712
2796,35776
2797,35776
2798,35776
2799,35648
2800,35648
2801,35648
2802,35584
2803,35456
2804,35328
2805,35264
2806,35200
2807,35008
2808,34880
2809,34752
2810,34688
2811,34432
2812,34240
2813,34176
2814,34176
2815,34048
2816,33920
2817,33920
2818,33984
2819,33984
2820,33984
2821,34048
2822,34112
2823,34176
2824,34112
2825,34112
2826,34240
2827,34304
2828,34368
2829,34368
2830,34496
2831,34560
2832,34560
2833,34560
2834,34624
2835,34688
2836,34624
2837,34624
2838,34688
2839,34752
2840,34752
2841,34752
2842,34816
2843,34880
2844,34880
2845,34816
2846,34752
2847,34816
2848,34816
2849,34816
2850,34752
2851,34816
2852,34816
2853,34752
2854,34688
2855,34752
2856,34752
2857,34624
2858,34560
2859,34624
2860,34688
2861,34624
2862,34624
2863,34688
2864,34752
2865,34752
2866,34752
2867,34816
2868,34944
2869,35008
2870,35008
2871,35136
2872,35200
2873,35200
2874,35072
2875,35136
2876,35264
2877,35392
2878,35456
2879,35584
2880,35648
2881,35584
2882,35392
2883,35200
2884,35008
2885,34816
2886,34560
2887,34304
2888,34176
2889,34240
2890,34240
2891,34176
2892,34240
2893,34304
2894,34304
2895,34240
2896,34112
2897,33920
2898,33728
2899,33920
2900,34624
2901,35840
2902,37568
2903,39744
2904,42496
2905,45248
2906,46912
2907,46976
2908,45376
2909,42752
2910,39680
2911,36672
2912,34176
2913,32384
2914,31296
2915,30784
2916,30656
2917,30848
2918,31168
2919,31488
2920,31808
2921,32192
2922,32576
2923,32768
2924,32960
2925,33088
2926,33344
2927,33536
2928,33600
2929,33728
2930,33920
2931,33984
2932,33984
2933,34048
2934,34176
2935,34304
2936,34304
2937,34304
2938,34368
2939,34432
2940,34496
2941,34496
2942,34560
2943,34688
2944,34752
2945,34688
2946,34752
2947,34944
2948,35008
2949,35008
2950,34944
2951,35008
2952,35008
2953,34880
2954,34880
2955,34880
2956,34816
2957,34752
2958,34624
2959,34560
2960,34496
2961,34304
2962,34048
2963,33920
2964,33792
2965,33600
2966,33472
2967,33472
2968,33408
2969,33344
2970,33280
2971,33280
2972,33280
2973,33280
2974,33216
2975,33280
2976,33344
2977,33344
2978,33344
2979,33344
2980,33472
2981,33600
2982,33600
2983,33600
2984,33664
2985,33792
2986,33856
2987,33920
2988,33984
2989,33984
2990,33984
2991,33984
2992,34112
2993,34176
2994,34112
2995,34112
2996,34112
2997,34176
2998,34176
2999,34112
3000,34176
3001,34240
3002,34368
3003,34304
3004,34304
3005,34368
3006,34432
3007,34368
3008,34240
3009,34240
3010,34240
3011,34112
3012,34048
3013,34112
3014,34176
3015,34176
3016,34176
3017,34240
3018,34240
3019,34240
3020,34304
3021,34432
3022,34624
3023,34752
3024,34880
3025,34944
3026,35008
3027,35008
3028,35008
3029,35072
3030,35200
3031,35264
3032,35200
3033,35072
3034,34944
3035,34752
3036,34496
3037,34240
3038,34048
3039,33984
3040,33792
3041,33664
3042,33664
3043,33792
3044,33792
3045,33792
3046,33856
3047,33984
3048,33920
3049,33600
3050,33280
3051,33280
3052,33664
3053,34432
3054,35776
3055,37632
3056,40064
3057,42816
3058,45312
3059,46592
3060,46272
3061,44224
3062,41280
3063,38336
3064,35520
3065,33088
3066,31424
3067,30528
3068,30208
3069,30208
3070,30400
3071,30784
3072,31232
3073,31616
3074,31936
3075,32256
3076,32576
3077,32768
3078,32896
3079,33088
3080,33280
3081,33408
3082,33472
3083,33472
3084,33600
3085,33664
3086,33664
3087,33728
3088,33856
3089,34048
3090,34048
3091,34048
3092,34176
3093,34304
3094,34368
3095,34304
3096,34432
3097,34560
3098,34688
3099,34752
3100,34880
3101,34944
3102,35008
3103,34944
3104,34944
3105,35008
3106,35008
3107,34944
3108,34816
3109,34816
3110,34816
3111,34688
3112,34496
3113,34432
3114,34368
3115,34176
3116,33920
3117,33728
3118,33600
3119,33536
3120,33408
3121,33344
3122,33344
3123,33344
3124,33280
3125,33216
3126,33216
3127,33280
3128,33408
3129,33472
3130,33536
3131,33600
3132,33472
3133,33472
3134,33600
3135,33728
3136,33728
3137,33728
3138,33856
3139,33920
3140,33856
3141,33856
3142,33920
3143,33984
3144,33920
3145,33856
3146,33984
3147,34048
3148,33984
3149,33920
3150,34048
3151,34240
3152,34240
3153,34048
3154,33984
3155,34048
3156,34112
3157,34176
3158,34176
3159,34176
3160,34176
3161,34048
3162,33984
3163,34048
3164,34112
3165,34112
3166,34048
3167,34112
3168,34240
3169,34304
3170,34368
3171,34432
3172,34496
3173,34368
3174,34304
3175,34368
3176,34560
3177,34688
3178,34752
3179,34688
3180,34752
3181,34880
3182,34752
3183,34560
3184,34304
3185,33984
3186,33728
3187,33536
3188,33536
3189,33536
3190,33536
3191,33536
3192,33536
3193,33664
3194,33728
3195,33600
3196,33280
3197,33088
3198,33024
3199,33472
3200,34432
3201,35904
3202,37760
3203,40000
3204,42688
3205,44864
3206,45632
3207,44800
3208,42624
3209,39936
3210,37184
3211,34560
3212,32512
3213,31232
3214,30528
3215,30272
3216,30336
3217,30656
3218,31104
3219,31488
3220,31936
3221,32320
3222,32768
3223,33088
3224,33216
3225,33408
3226,33664
3227,33728
3228,33728
3229,33792
3230,33984
3231,34048
3232,33984
3233,33920
3234,33984
3235,33984
3236,33984
3237,33920
3238,34048
3239,34176
3240,34240
3241,34240
3242,34368
3243,34496
3244,34560
3245,34624
3246,34752
3247,34880
3248,34880
3249,34816
3250,34816
3251,34880
3252,34688
3253,34560
3254,34560
3255,34624
3256,34624
3257,34432
3258,34304
3259,34304
3260,34176
3261,33920
3262,33664
3263,33600
3264,33536
3265,33344
3266,33216
3267,33216
3268,33216
3269,33152
3270,33088
3271,33088
3272,33088
3273,33088
3274,33088
3275,33216
3276,33280
3277,33280
3278,33280
3279,33344
3280,33472
3281,33536
3282,33536
3283,33600
3284,33728
3285,33728
3286,33728
3287,33728
3288,33792
3289,33792
3290,33792
3291,33856
3292,33984
3293,33984
3294,33920
3295,33920
3296,33984
3297,34112
3298,34112
3299,34048
3300,34048
3301,34112
3302,34112
3303,34048
3304,34048
3305,34048
3306,34112
3307,34048
3308,33984
3309,34048
3310,34112
3311,34176
3312,34240
3313,34368
3314,34496
3315,34496
3316,34432
3317,34432
3318,34496
3319,34560
3320,34688
3321,34880
3322,34880
3323,34752
3324,34688
3325,34688
3326,34688
3327,34432
3328,34112
3329,33856
3330,33728
3331,33600
3332,33472
3333,33472
3334,33536
3335,33600
3336,33536
3337,33472
3338,33472
3339,33408
3340,33088
3341,32832
3342,33088
3343,33792
3344,34880
3345,36480
3346,38464
3347,40960
3348,43520
3349,45120
3350,45312
3351,44096
3352,41728
3353,38912
3354,36288
3355,33984
3356,32128
3357,30912
3358,30336
3359,30272
3360,30464
3361,30720
3362,31104
3363,31552
3364,31936
3365,32192
3366,32384
3367,32640
3368,32896
3369,33088
3370,33152
3371,33280
3372,33408
3373,33472
3374,33472
3375,33536
3376,33600
3377,33664
3378,33600
3379,33664
3380,33728
3381,33792
3382,33920
3383,34048
3384,34304
3385,34432
3386,34432
3387,34496
3388,34560
3389,34624
3390,34624
3391,34688
3392,34816
3393,35008
3394,35072
3395,35008
3396,35008
3397,34944
3398,34816
3399,34688
3400,34560
3401,34560
3402,34496
3403,34304
3404,34112
3405,34048
3406,33920
3407,33728
3408,33536
3409,33472
3410,33408
3411,33280
3412,33152
3413,33216
3414,33280
3415,33408
3416,33408
3417,33472
3418,33536
3419,33472
3420,33408
3421,33536
3422,33664
3423,33728
3424,33728
3425,33728
3426,33856
3427,33856
3428,33728
3429,33728
3430,33920
3431,33984
3432,33984
3433,33984
3434,34048
3435,34112
3436,34048
3437,33984
3438,34112
3439,34176
3440,34176
3441,34112
3442,34112
3443,34176
3444,34112
3445,33984
3446,33984
3447,34112
3448,34112
3449,34048
3450,33984
3451,34048
3452,34048
3453,34048
3454,34048
3455,34112
3456,34240
3457,34304
3458,34368
3459,34432
3460,34496
3461,34496
3462,34496
3463,34624
3464,34752
3465,34752
3466,34752
3467,34752
3468,34816
3469,34816
3470,34752
3471,34688
3472,34624
3473,34432
3474,34176
3475,34112
3476,34048
3477,33984
3478,33792
3479,33664
3480,33664
3481,33664
3482,33664
3483,33664
3484,33728
3485,33728
3486,33536
3487,33216
3488,33152
3489,33472
3490,34112
3491,35328
3492,36992
3493,39168
3494,41792
3495,44288
3496,45760
3497,45760
3498,44160
3499,41536
3500,38656
3501,35968
3502,33600
3503,31872
3504,30848
3505,30464
3506,30400
3507,30464
3508,30784
3509,31232
3510,31616
3511,31872
3512,32064
3513,32320
3514,32576
3515,32704
3516,32832
3517,33024
3518,33216
3519,33344
3520,33472
3521,33536
3522,33600
3523,33536
3524,33600
3525,33792
3526,33984
3527,34048
3528,34112
3529,34176
3530,34240
3531,34240
3532,34368
3533,34560
3534,34688
3535,34752
3536,34752
3537,34880
3538,35008
3539,35008
3540,34944
3541,35008
3542,35072
3543,35008
3544,34880
3545,34816
3546,34752
3547,34560
3548,34368
3549,34304
3550,34240
3551,34112
3552,33920
3553,33728
3554,33664
3555,33600
3556,33472
3557,33408
3558,33408
3559,33344
3560,33280
3561,33216
3562,33216
3563,33280
3564,33280
3565,33280
3566,33344
3567,33472
3568,33536
3569,33536
3570,33664
3571,33600
3572,33728
3573,33664
3574,33728
3575,33792
3576,33856
3577,33792
3578,33792
3579,33856
3580,33856
3581,33792
3582,33792
3583,33920
3584,34048
3585,33984
3586,33920
3587,33984
3588,34048
3589,34048
3590,33984
3591,34048
3592,34176
3593,34176
3594,34112
3595,34112
3596,34240
3597,34240
3598,34112
3599,33984
3600,33984
3601,33984
3602,33920
3603,33920
3604,34048
3605,34112
3606,34112
3607,34112
3608,34112
3609,34112
3610,34112
3611,34112
3612,34240
3613,34368
3614,34432
3615,34496
3616,34624
3617,34752
3618,34752
3619,34688
3620,34688
3621,34752
3622,34752
3623,34688
3624,34752
3625,34880
3626,34816
3627,34624
3628,34432
3629,34304
3630,33984
3631,33664
3632,33408
3633,33408
3634,33408
3635,33408
3636,33408
3637,33472
3638,33664
3639,33728
3640,33664
3641,33600
3642,33408
3643,33088
3644,33152
3645,33728
3646,34816
3647,36352
3648,38272
3649,40768
3650,43648
3651,45760
3652,46528
3653,45632
3654,43328
3655,40384
3656,37248
3657,34560
3658,32512
3659,31232
3660,30528
3661,30208
3662,30208
3663,30464
3664,30784
3665,31104
3666,31552
3667,32000
3668,32320
3669,32512
3670,32768
3671,33024
3672,33216
3673,33216
3674,33152
3675,33088
3676,33216
3677,33408
3678,33600
3679,33792
3680,33920
3681,33984
3682,34048
3683,34176
3684,34304
3685,34240
3686,34240
3687,34304
3688,34496
3689,34624
3690,34624
3691,34624
3692,34688
3693,34752
3694,34944
3695,35136
3696,35328
3697,35328
3698,35136
3699,35072
3700,35072
3701,35008
3702,34880
3703,34752
3704,34688
3705,34496
3706,34304
3707,34176
3708,34048
3709,33920
3710,33664
3711,33472
3712,33344
3713,33344
3714,33216
3715,33088
3716,33088
3717,33152
3718,33152
3719,33216
3720,33344
3721,33408
3722,33408
3723,33344
3724,33472
3725,33536
3726,33664
3727,33664
3728,33664
3729,33792
3730,33792
3731,33728
3732,33728
3733,33792
3734,33856
3735,33792
3736,33792
3737,33920
3738,33984
3739,33984
3740,33856
3741,33792
3742,33856
3743,33856
3744,33856
3745,33856
3746,34048
3747,33984
3748,33920
3749,33984
3750,34048
3751,34112
3752,34112
3753,34048
3754,34048
3755,33984
3756,33984
3757,33984
3758,34112
3759,34176
3760,34176
3761,34112
3762,34048
3763,34048
3764,34048
3765,34048
3766,34112
3767,34176
3768,34048
3769,33984
3770,33984
3771,34048
3772,34048
3773,33984
3774,34048
3775,34112
3776,34048
3777,33984
3778,33920
3779,34048
3780,34112
3781,34112
3782,34112
3783,34176
3784,34240
3785,34176
3786,33984
3787,34048
3788,34176
3789,34176
3790,34240
3791,34368
3792,34496
3793,34560
3794,34560
3795,34624
3796,34752
3797,34752
3798,34688
3799,34688
3800,34816
3801,34816
3802,34752
3803,34752
3804,34752
3805,34816
3806,34688
3807,34560
3808,34368
3809,34112
3810,33856
3811,33664
3812,33536
3813,33472
3814,33536
3815,33536
3816,33664
3817,33856
3818,33856
3819,33728
3820,33472
3821,33216
3822,33088
3823,33408
3824,34240
3825,35648
3826,37312
3827,39424
3828,42048
3829,44992
3830,46336
3831,46336
3832,44672
3833,41984
3834,38976
3835,36096
3836,33664
3837,31872
3838,30848
3839,30272
3840,30144
3841,30272
3842,30528
3843,30848
3844,31168
3845,31552
3846,31936
3847,32256
3848,32448
3849,32704
3850,32960
3851,33152
3852,33152
3853,33216
3854,33344
3855,33408
3856,33472
3857,33536
3858,33664
3859,33856
3860,33792
3861,33792
3862,33984
3863,34112
3864,34176
3865,34176
3866,34304
3867,34432
3868,34496
3869,34496
3870,34624
3871,34752
3872,34816
3873,34880
3874,34944
3875,35072
3876,35136
3877,35008
3878,35008
3879,35008
3880,35008
3881,34880
3882,34752
3883,34688
3884,34624
3885,34368
3886,34176
3887,33984
3888,33792
3889,33536
3890,33408
3891,33280
3892,33216
3893,33152
3894,33024
3895,32960
3896,33024
3897,33024
3898,33024
3899,33088
3900,33280
3901,33344
3902,33344
3903,33408
3904,33536
3905,33600
3906,33600
3907,33600
3908,33664
3909,33664
3910,33536
3911,33536
3912,33664
3913,33792
3914,33856
3915,33856
3916,33920
3917,34048
3918,34048
3919,34048
3920,34048
3921,34048
3922,33984
3923,33856
3924,33856
3925,33920
3926,33920
3927,33920
3928,33984
3929,34112
3930,34112
3931,33984
3932,33920
3933,34048
3934,34112
3935,34048
3936,34048
3937,34048
3938,34112
3939,34048
3940,34048
3941,34112
3942,34112
3943,34112
3944,33984
3945,34048
3946,34112
3947,34112
3948,34112
3949,34112
3950,34176
3951,34176
3952,34112
3953,34112
3954,34176
3955,34240
3956,34112
3957,33984
3958,34048
3959,34048
3960,33984
3961,33920
3962,33984
3963,34048
3964,34112
3965,34176
3966,34304
3967,34432
3968,34432
3969,34432
3970,34560
3971,34688
3972,34688
3973,34688
3974,34816
3975,34880
3976,34880
3977,34816
3978,34880
3979,35008
3980,35008
3981,34880
3982,34752
3983,34752
3984,34688
3985,34496
3986,34240
3987,34048
3988,33920
3989,33792
3990,33664
3991,33664
3992,33664
3993,33600
3994,33472
3995,33536
3996,33728
3997,33728
3998,33536
3999,33216
4000,33088
4001,33280
4002,33920
4003,35136
4004,36800
4005,38912
4006,41216
4007,43904
4008,45888
4009,46336
4010,45184
4011,42752
4012,39808
4013,36928
4014,34304
4015,32320
4016,31168
4017,30528
4018,30272
4019,30208
4020,30336
4021,30656
4022,31104
4023,31488
4024,31872
4025,32256
4026,32512
4027,32640
4028,32832
4029,33088
4030,33216
4031,33280
4032,33280
4033,33408
4034,33536
4035,33600
4036,33600
4037,33664
4038,33792
4039,33856
4040,33856
4041,33984
4042,34112
4043,34176
4044,34176
4045,34368
4046,34560
4047,34624
4048,34560
4049,34624
4050,34688
4051,34816
4052,34816
4053,34880
4054,35008
4055,35008
4056,34944
4057,34880
4058,34880
4059,34816
4060,34624
4061,34496
4062,34432
4063,34432
4064,34240
4065,34048
4066,33920
4067,33728
4068,33536
4069,33344
4070,33280
4071,33280
4072,33216
4073,33024
4074,32960
4075,33088
4076,33088
4077,33088
4078,33152
4079,33280
4080,33344
4081,33280
4082,33280
4083,33408
4084,33536
4085,33536
4086,33536
4087,33664
4088,33792
4089,33728
4090,33664
4091,33728
4092,33856
4093,33920
4094,33920
4095,33920
4096,33920
4097,33856
4098,33920
4099,33984
4100,34048
4101,34112
4102,34112
4103,34240
4104,34368
4105,34368
4106,34240
4107,34112
4108,34112
4109,34240
4110,34240
4111,34176
4112,34112
4113,34112
4114,34048
4115,34048
4116,34048
4117,34048
4118,33984
4119,33920
4120,33984
4121,34048
4122,33920
4123,33856
4124,33920
4125,34112
4126,34112
4127,34112
4128,34176
4129,34176
4130,34240
4131,34240
4132,34304
4133,34304
4134,34304
4135,34368
4136,34304
4137,34176
4138,33984
4139,33792
4140,33664
4141,33664
4142,33792
4143,33856
4144,33920
4145,33984
4146,34112
4147,34176
4148,34176
4149,34240
4150,34432
4151,34496
4152,34560
4153,34624
4154,34816
4155,35072
4156,35264
4157,35392
4158,35520
4159,35264
4160,35008
4161,34624
4162,34432
4163,34368
4164,34112
4165,33792
4166,33536
4167,33344
4168,33216
4169,33216
4170,33344
4171,33472
4172,33472
4173,33472
4174,33600
4175,33664
4176,33600
4177,33216
4178,32832
4179,32960
4180,33536
4181,34496
4182,35904
4183,37824
4184,40256
4185,43136
4186,45312
4187,46272
4188,45696
4189,43520
4190,40640
4191,37696
4192,35136
4193,33088
4194,31552
4195,30528
4196,30016
4197,29824
4198,29952
4199,30336
4200,30848
4201,31168
4202,31552
4203,32128
4204,32768
4205,32896
4206,32960
4207,32960
4208,33088
4209,33280
4210,33408
4211,33600
4212,33728
4213,33728
4214,33536
4215,33280
4216,33280
4217,33408
4218,33536
4219,33664
4220,33792
4221,34048
4222,34304
4223,34560
4224,34752
4225,34752
4226,34752
4227,34624
4228,34496
4229,34624
4230,34752
4231,34816
4232,34816
4233,34944
4234,35200
4235,35520
4236,35520
4237,35136
4238,34624
4239,34240
4240,34048
4241,33984
4242,33856
4243,33664
4244,33408
4245,33280
4246,33280
4247,33152
4248,33088
4249,33024
4250,33024
4251,32960
4252,32896
4253,32960
4254,33216
4255,33472
4256,33408
4257,33152
4258,33088
4259,32960
4260,32960
4261,33088
4262,33344
4263,33472
4264,33536
4265,33472
4266,33472
4267,33472
4268,33472
4269,33472
4270,33536
4271,33664
4272,33664
4273,33664
4274,33728
4275,33856
4276,33792
4277,33664
4278,33792
4279,34240
4280,34240
4281,34112
4282,33856
4283,33728
4284,33728
4285,33664
4286,33728
4287,33856
4288,33856
4289,33792
4290,33728
4291,33856
4292,33984
4293,33984
4294,33920
4295,33984
4296,33984
4297,34048
4298,33984
4299,34112
4300,34176
4301,34112
4302,34048
4303,34176
4304,34368
4305,34240
4306,33920
4307,33728
4308,33920
4309,34112
4310,34048
4311,33856
4312,33792
4313,33792
4314,33856
4315,33920
4316,33920
4317,33984
4318,34048
4319,33984
4320,34048
4321,34176
4322,34304
4323,34304
4324,34368
4325,34496
4326,34496
4327,34560
4328,34624
4329,34624
4330,34624
4331,34624
4332,34816
4333,35136
4334,35328
4335,35072
4336,34624
4337,34368
4338,34176
4339,33856
4340,33600
4341,33600
4342,33536
4343,33408
4344,33280
4345,33408
4346,33600
4347,33536
4348,33536
4349,33536
4350,33536
4351,33344
4352,32960
4353,32832
4354,33280
4355,34176
4356,35392
4357,37056
4358,39296
4359,41920
4360,44288
4361,45376
4362,45312
4363,43712
4364,41152
4365,38144
4366,35328
4367,33152
4368,31488
4369,30272
4370,30016
4371,30144
4372,30528
4373,30912
4374,31296
4375,31488
4376,31680
4377,31872
4378,32128
4379,32448
4380,32704
4381,32832
4382,32960
4383,33152
4384,33344
4385,33344
4386,33472
4387,33600
4388,33728
4389,33728
4390,33728
4391,33984
4392,34176
4393,34176
4394,33984
4395,33984
4396,34176
4397,34432
4398,34432
4399,34560
4400,34816
4401,35008
4402,35072
4403,34880
4404,34816
4405,34752
4406,34624
4407,34560
4408,34688
4409,34752
4410,34688
4411,34688
4412,34688
4413,34688
4414,34432
4415,34304
4416,34176
4417,34112
4418,33856
4419,33600
4420,33536
4421,33536
4422,33408
4423,33280
4424,33344
4425,33344
4426,33088
4427,32896
4428,32960
4429,33088
4430,33152
4431,33088
4432,33024
4433,33152
4434,33280
4435,33344
4436,33472
4437,33728
4438,33792
4439,33792
4440,33856
4441,33920
4442,33856
4443,33792
4444,33728
4445,33792
4446,33728
4447,33600
4448,33600
4449,33728
4450,33856
4451,33920
4452,33856
4453,33920
4454,34112
4455,34112
4456,34048
4457,34176
4458,34240
4459,34112
4460,33920
4461,33792
4462,33728
4463,33920
4464,33984
4465,34176
4466,34304
4467,34304
4468,34112
4469,33920
4470,33856
4471,33856
4472,33856
4473,33792
4474,33856
4475,33920
4476,33984
4477,33920
4478,33984
4479,34048
4480,34112
4481,34112
4482,34048
4483,33984
4484,33984
4485,33984
4486,34048
4487,34112
4488,34176
4489,34048
4490,33984
4491,34112
4492,34304
4493,34240
4494,34112
4495,34112
4496,34304
4497,34368
4498,34432
4499,34496
4500,34624
4501,34624
4502,34624
4503,34688
4504,35072
4505,35136
4506,35008
4507,34880
4508,34816
4509,34752
4510,34624
4511,34368
4512,34048
4513,33792
4514,33600
4515,33472
4516,33600
4517,33728
4518,33728
4519,33664
4520,33792
4521,34048
4522,33984
4523,33600
4524,33280
4525,33024
4526,32832
4527,33024
4528,33792
4529,35264
4530,37056
4531,39232
4532,41792
4533,44352
4534,45952
4535,45568
4536,43776
4537,41280
4538,38528
4539,35840
4540,33536
4541,31936
4542,30912
4543,30400
4544,30272
4545,30528
4546,30976
4547,31296
4548,31552
4549,31872
4550,32256
4551,32384
4552,32512
4553,32832
4554,33152
4555,33280
4556,33280
4557,33216
4558,33280
4559,33408
4560,33536
4561,33728
4562,33792
4563,33728
4564,33664
4565,33664
4566,33792
4567,33920
4568,34048
4569,34240
4570,34368
4571,34432
4572,34368
4573,34304
4574,34496
4575,34752
4576,34816
4577,34944
4578,35072
4579,35136
4580,35072
4581,34880
4582,34816
4583,34944
4584,34944
4585,34816
4586,34688
4587,34752
4588,34816
4589,34688
4590,34368
4591,34048
4592,33792
4593,33600
4594,33408
4595,33408
4596,33408
4597,33344
4598,33216
4599,33152
4600,33152
4601,33152
4602,33088
4603,33216
4604,33344
4605,33280
4606,33152
4607,33152
4608,33344
4609,33408
4610,33408
4611,33344
4612,33408
4613,33536
4614,33600
4615,33536
4616,33536
4617,33664
4618,33792
4619,33792
4620,33856
4621,33920
4622,33856
4623,33728
4624,33984
4625,34112
4626,34176
4627,34048
4628,33856
4629,33792
4630,33792
4631,33792
4632,33792
4633,33984
4634,34240
4635,34048
4636,33856
4637,33792
4638,33856
4639,33792
4640,33728
4641,33792
4642,33856
4643,33792
4644,33792
4645,33984
4646,34176
4647,34176
4648,34112
4649,34112
4650,34240
4651,34304
4652,34176
4653,34112
4654,33984
4655,33920
4656,33856
4657,33920
4658,34112
4659,34304
4660,34176
4661,33984
4662,33920
4663,33984
4664,33920
4665,33984
4666,34176
4667,34368
4668,34240
4669,34048
4670,34048
4671,34176
4672,34176
4673,34176
4674,34240
4675,34368
4676,34368
4677,34304
4678,34368
4679,34496
4680,34688
4681,34688
4682,34688
4683,34816
4684,34944
4685,35008
4686,35008
4687,34944
4688,34816
4689,34688
4690,34624
4691,34496
4692,34304
4693,33984
4694,33728
4695,33664
4696,33728
4697,33600
4698,33408
4699,33344
4700,33472
4701,33536
4702,33536
4703,33472
4704,33280
4705,33088
4706,32960
4707,33344
4708,34304
4709,35776
4710,37696
4711,40064
4712,42816
4713,45312
4714,46336
4715,45696
4716,43584
4717,40832
4718,38016
4719,35392
4720,33088
4721,31488
4722,30400
4723,30016
4724,30016
4725,30464
4726,30784
4727,30976
4728,31232
4729,31680
4730,32064
4731,32192
4732,32320
4733,32576
4734,32832
4735,32960
4736,33024
4737,33216
4738,33344
4739,33344
4740,33344
4741,33472
4742,33728
4743,33792
4744,33984
4745,34240
4746,34304
4747,34176
4748,34048
4749,34112
4750,34240
4751,34240
4752,34240
4753,34304
4754,34560
4755,34816
4756,34880
4757,34880
4758,35072
4759,35136
4760,35008
4761,35008
4762,35072
4763,35072
4764,34880
4765,34688
4766,34624
4767,34560
4768,34432
4769,34240
4770,34112
4771,33984
4772,33792
4773,33728
4774,33664
4775,33536
4776,33344
4777,33088
4778,33024
4779,33024
4780,33024
4781,33024
4782,33088
4783,33088
4784,33152
4785,33216
4786,33280
4787,33472
4788,33472
4789,33344
4790,33344
4791,33408
4792,33472
4793,33472
4794,33472
4795,33600
4796,33728
4797,33792
4798,33728
4799,33728
4800,33728
4801,33792
4802,33728
4803,33792
4804,33920
4805,33920
4806,33856
4807,33856
4808,33856
4809,33856
4810,33856
4811,33856
4812,33920
4813,34048
4814,33984
4815,33920
4816,33920
4817,33920
4818,33920
4819,33856
4820,33920
4821,34176
4822,34240
4823,34048
4824,33984
4825,33920
4826,33920
4827,33920
4828,33856
4829,33856
4830,33856
4831,33792
4832,33728
4833,33856
4834,33920
4835,33920
4836,33856
4837,33856
4838,33920
4839,33920
4840,33920
4841,33984
4842,34112
4843,34048
4844,33984
4845,34112
4846,34176
4847,34112
4848,34048
4849,33984
4850,34048
4851,34176
4852,34112
4853,33984
4854,34048
4855,34112
4856,34176
4857,34240
4858,34368
4859,34432
4860,34368
4861,34368
4862,34432
4863,34496
4864,34560
4865,34688
4866,34816
4867,34816
4868,34752
4869,34688
4870,34624
4871,34624
4872,34560
4873,34432
4874,34240
4875,34176
4876,34112
4877,34176
4878,34240
4879,33984
4880,33600
4881,33280
4882,33216
4883,33408
4884,33472
4885,33408
4886,33280
4887,33088
4888,32960
4889,33024
4890,33472
4891,34496
4892,36160
4893,38272
4894,40640
4895,43392
4896,45632
4897,46464
4898,45440
4899,43072
4900,40128
4901,37120
4902,34304
4903,32192
4904,30976
4905,30336
4906,30016
4907,30080
4908,30400
4909,30784
4910,31104
4911,31424
4912,31872
4913,32128
4914,32192
4915,32384
4916,32704
4917,33024
4918,33024
4919,33088
4920,33280
4921,33408
4922,33408
4923,33344
4924,33344
4925,33472
4926,33600
4927,33728
4928,33856
4929,34048
4930,34112
4931,34176
4932,34368
4933,34560
4934,34560
4935,34368
4936,34304
4937,34368
4938,34560
4939,34752
4940,34816
4941,34944
4942,35136
4943,35008
4944,34880
4945,34880
4946,35008
4947,35072
4948,34880
4949,34624
4950,34496
4951,34368
4952,34112
4953,33984
4954,33920
4955,33856
4956,33664
4957,33408
4958,33344
4959,33408
4960,33344
4961,33088
4962,33024
4963,32960
4964,32960
4965,32896
4966,33024
4967,33344
4968,33536
4969,33408
4970,33280
4971,33216
4972,33152
4973,33088
4974,33216
4975,33472
4976,33664
4977,33600
4978,33536
4979,33600
4980,33664
4981,33664
4982,33600
4983,33728
4984,33792
4985,33856
4986,33920
4987,34048
4988,34048
4989,33984
4990,33856
4991,33920
4992,34048
4993,34048
4994,33920
4995,33856
4996,33984
4997,34176
4998,34176
4999,34048
5000,33984
5001,33984
5002,33920
5003,33920
5004,33984
5005,33984
5006,33856
5007,33920
5008,34112
5009,34240
5010,34048
5011,33856
5012,33856
5013,33920
5014,34048
5015,33984
5016,33920
5017,33856
5018,33856
5019,33792
5020,33856
5021,33920
5022,33920
5023,33856
5024,33792
5025,33984
5026,34176
5027,34112
5028,34112
5029,34176
5030,34176
5031,34112
5032,34112
5033,34240
5034,34432
5035,34496
5036,34560
5037,34560
5038,34624
5039,34624
5040,34496
5041,34432
5042,34496
5043,34560
5044,34496
5045,34560
5046,34752
5047,34816
5048,34752
5049,34688
5050,34624
5051,34368
5052,34112
5053,33920
5054,33920
5055,33984
5056,33984
5057,33664
5058,33472
5059,33536
5060,33664
5061,33664
5062,33472
5063,33216
5064,32832
5065,32640
5066,33024
5067,33920
5068,35200
5069,36864
5070,39104
5071,41728
5072,44544
5073,46272
5074,46528
5075,44992
5076,42240
5077,39040
5078,36032
5079,33472
5080,31808
5081,30720
5082,30080
5083,29888
5084,30016
5085,30336
5086,30720
5087,31040
5088,31424
5089,31744
5090,32000
5091,32384
5092,32768
5093,33152
5094,33280
5095,33216
5096,33152
5097,33152
5098,33280
5099,33472
5100,33536
5101,33472
5102,33280
5103,33344
5104,33664
5105,33856
5106,34048
5107,34176
5108,34304
5109,34240
5110,34112
5111,34048
5112,34240
5113,34496
5114,34688
5115,34688
5116,34752
5117,34816
5118,34880
5119,34880
5120,35008
5121,35200
5122,35200
5123,34944
5124,34688
5125,34688
5126,34688
5127,34624
5128,34432
5129,34240
5130,34112
5131,33792
5132,33536
5133,33536
5134,33600
5135,33408
5136,33216
5137,33024
5138,32832
5139,32768
5140,32832
5141,33024
5142,33024
5143,33024
5144,33024
5145,33088
5146,33280
5147,33344
5148,33280
5149,33344
5150,33472
5151,33536
5152,33536
5153,33536
5154,33600
5155,33600
5156,33600
5157,33536
5158,33536
5159,33664
5160,33664
5161,33664
5162,33856
5163,34112
5164,34176
5165,33984
5166,33920
5167,33984
5168,33856
5169,33856
5170,33984
5171,34176
5172,34176
5173,33984
5174,33856
5175,33856
5176,34048
5177,34048
5178,33920
5179,33856
5180,33792
5181,33728
5182,33728
5183,33792
5184,33920
5185,33856
5186,33920
5187,34112
5188,34176
5189,34048
5190,33984
5191,33984
5192,33984
5193,33984
5194,33984
5195,34176
5196,34304
5197,34304
5198,34112
5199,33984
5200,34112
5201,34176
5202,34176
5203,34304
5204,34496
5205,34560
5206,34624
5207,34816
5208,34944
5209,34880
5210,34816
5211,34880
5212,35008
5213,35136
5214,35008
5215,34880
5216,34624
5217,34304
5218,33856
5219,33536
5220,33472
5221,33728
5222,33792
5223,33664
5224,33664
5225,33856
5226,33920
5227,33728
5228,33472
5229,33344
5230,33088
5231,32960
5232,33152
5233,33792
5234,34752
5235,36224
5236,38208
5237,40896
5238,43712
5239,45568
5240,45888
5241,44608
5242,42176
5243,39232
5244,36416
5245,34048
5246,32320
5247,31168
5248,30464
5249,30336
5250,30528
5251,30848
5252,31040
5253,31488
5254,32000
5255,32256
5256,32320
5257,32448
5258,32704
5259,32960
5260,33088
5261,33216
5262,33344
5263,33536
5264,33728
5265,33856
5266,33856
5267,33792
5268,33728
5269,33664
5270,33728
5271,33920
5272,34048
5273,34048
5274,34048
5275,34240
5276,34496
5277,34560
5278,34496
5279,34624
5280,34752
5281,34816
5282,34880
5283,35072
5284,35200
5285,35136
5286,34944
5287,34944
5288,34944
5289,34880
5290,34752
5291,34752
5292,34688
5293,34560
5294,34432
5295,34304
5296,34240
5297,34112
5298,33920
5299,33664
5300,33536
5301,33408
5302,33280
5303,33152
5304,33152
5305,33216
5306,33216
5307,33280
5308,33472
5309,33536
5310,33344
5311,33088
5312,32960
5313,32960
5314,33088
5315,33280
5316,33408
5317,33536
5318,33600
5319,33664
5320,33728
5321,33792
5322,33856
5323,33792
5324,33856
5325,33920
5326,34048
5327,33920
5328,33856
5329,33856
5330,33856
5331,33856
5332,33984
5333,34176
5334,34176
5335,33920
5336,33920
5337,34112
5338,34176
5339,34112
5340,33920
5341,33856
5342,33856
5343,33856
5344,33792
5345,33856
5346,33920
5347,33984
5348,34112
5349,34048
5350,33984
5351,33984
5352,34048
5353,34240
5354,34240
5355,33984
5356,33920
5357,34048
5358,34240
5359,34240
5360,34176
5361,34112
5362,34112
5363,34112
5364,34176
5365,34368
5366,34624
5367,34688
5368,34688
5369,34880
5370,34944
5371,34944
5372,34624
5373,34432
5374,34304
5375,34240
5376,34048
5377,33856
5378,33664
5379,33536
5380,33344
5381,33280
5382,33344
5383,33600
5384,33728
5385,33472
5386,33152
5387,32896
5388,32832
5389,33024
5390,33856
5391,35200
5392,36864
5393,38784
5394,41216
5395,43776
5396,45312
5397,45248
5398,43648
5399,41280
5400,38592
5401,37824
5402,33664
5403,31872
5404,30784
5405,30720
5406,30336
5407,30528
5408,30912
5409,31168
5410,31360
5411,31744
5412,32192
5413,32448
5414,32704
5415,32960
5416,32960
5417,33216
5418,33216
5419,33408
5420,33600
5421,33600
5422,33408
5423,33344
5424,33472
5425,33728
5426,33856
5427,33920
5428,34048
5429,34176
5430,34240
5431,34240
5432,34432
5433,34432
5434,34368
5435,34368
5436,34496
5437,34688
5438,34880
5439,34944
5440,35072
5441,35328
5442,35328
5443,35072
5444,34880
5445,34816
5446,34880
5447,34880
5448,34688
5449,34496
5450,34368
5451,34176
5452,34112
5453,33984
5454,33856
5455,33728
5456,33600
5457,33472
5458,33344
5459,33216
5460,33024
5461,33024
5462,33216
5463,33344
5464,33344
5465,33280
5466,33280
5467,33152
5468,32896
5469,32896
5470,33088
5471,33280
5472,33600
5473,33856
5474,33792
5475,33600
5476,33536
5477,33472
5478,33600
5479,33728
5480,33792
5481,33728
5482,34112
5483,34112
5484,34048
5485,34048
5486,34112
5487,34240
5488,34240
5489,34176
5490,34048
5491,33984
5492,33984
5493,33856
5494,33856
5495,34048
5496,34304
5497,34240
5498,34048
5499,33920
5500,33856
5501,33792
5502,33984
5503,34112
5504,34176
5505,34112
5506,33984
5507,33984
5508,34048
5509,34112
5510,34112
5511,34240
5512,34432
5513,34560
5514,34496
5515,34560
5516,34816
5517,35008
5518,34944
5519,34816
5520,34880
5521,34816
5522,34752
5523,34688
5524,34752
5525,34752
5526,34624
5527,34496
5528,34432
5529,34240
5530,34048
5531,33856
5532,33728
5533,33664
5534,33600
5535,33664
5536,33792
5537,33920
5538,33920
5539,33728
5540,33472
5541,33088
5542,32832
5543,32896
5544,33536
5545,34624
5546,36224
5547,38016
5548,40576
5549,43520
5550,45760
5551,46400
5552,45312
5553,43072
5554,40064
5555,37376
5556,34752
5557,32576
5558,31168
5559,30336
5560,30144
5561,30336
5562,30592
5563,30720
5564,30976
5565,31424
5566,31936
5567,32384
5568,32512
5569,32640
5570,32832
5571,33088
5572,33216
5573,33280
5574,33280
5575,33280
5576,33216
5577,33280
5578,33536
5579,33792
5580,33920
5581,33856
5582,34048
5583,34368
5584,34432
5585,34240
5586,34240
5587,34368
5588,34368
5589,34432
5590,34624
5591,34816
5592,34944
5593,34880
5594,34944
5595,35200
5596,35328
5597,35264
5598,35136
5599,35072
5600,34944
5601,34752
5602,34688
5603,34752
5604,34688
5605,34432
5606,34176
5607,34048
5608,33984
5609,33792
5610,33536
5611,33472
5612,33408
5613,33280
5614,33152
5615,33152
5616,33216
5617,33216
5618,33152
5619,33216
5620,33408
5621,33472
5622,33344
5623,33280
5624,33472
5625,33536
5626,33472
5627,33600
5628,33728
5629,33792
5630,33728
5631,33600
5632,33664
5633,33728
5634,33664
5635,33664
5636,33728
5637,33920
5638,33920
5639,33856
5640,33856
5641,34048
5642,34112
5643,33984
5644,33984
5645,34048
5646,34048
5647,33984
5648,34048
5649,34176
5650,34112
5651,34048
5652,33984
5653,33856
5654,33856
5655,33792
5656,33792
5657,33920
5658,34048
5659,34048
5660,34048
5661,34240
5662,34368
5663,34496
5664,34496
5665,34624
5666,34752
5667,34688
5668,34624
5669,34688
5670,34688
5671,34624
5672,34624
5673,34624
5674,34624
5675,34624
5676,34560
5677,34368
5678,34112
5679,33984
5680,33792
5681,33600
5682,33600
5683,33536
5684,33472
5685,33408
5686,33536
5687,33664
5688,33856
5689,33792
5690,33536
5691,33152
5692,33024
5693,33344
5694,33920
5695,35136
5696,36928
5697,39168
5698,41920
5699,44736
5700,46400
5701,46464
5702,44736
5703,41984
5704,38656
5705,36032
5706,33600
5707,31872
5708,30848
5709,30336
5710,30208
5711,30208
5712,30400
5713,30784
5714,31296
5715,31808
5716,32320
5717,32576
5718,32640
5719,32768
5720,32832
5721,32896
5722,33024
5723,33152
5724,33408
5725,33600
5726,33664
5727,33792
5728,33984
5729,34048
5730,33920
5731,33792
5732,33920
5733,34240
5734,34368
5735,34304
5736,34304
5737,34368
5738,34368
5739,34240
5740,34240
5741,34432
5742,34688
5743,34880
5744,34944
5745,35072
5746,35200
5747,35264
5748,35264
5749,35200
5750,35008
5751,34816
5752,34624
5753,34624
5754,34560
5755,34496
5756,34240
5757,34048
5758,33920
5759,33792
5760,33536
5761,33280
5762,33152
5763,33152
5764,33216
5765,33280
5766,33344
5767,33216
5768,33088
5769,33088
5770,33088
5771,33152
5772,33216
5773,33280
5774,33280
5775,33344
5776,33344
5777,33536
5778,33920
5779,34048
5780,34048
5781,33984
5782,33856
5783,33728
5784,33664
5785,33600
5786,33792
5787,33984
5788,33984
5789,33920
5790,33920
5791,33984
5792,33984
5793,33856
5794,33920
5795,34176
5796,34368
5797,34304
5798,34240
5799,34176
5800,34112
5801,33920
5802,33984
5803,33984
5804,33984
5805,33984
5806,34176
5807,34304
5808,34368
5809,34240
5810,34240
5811,34368
5812,34432
5813,34432
5814,34432
5815,34496
5816,34624
5817,34688
5818,34880
5819,35008
5820,35200
5821,35200
5822,34944
5823,34304
5824,33728
5825,33344
5826,33152
5827,33024
5828,33088
5829,33280
5830,33472
5831,33600
5832,33600
5833,33600
5834,33536
5835,33344
5836,33024
5837,32832
5838,32896
5839,33344
5840,34304
5841,35904
5842,38080
5843,40704
5844,43904
5845,46336
5846,47296
5847,46400
5848,43712
5849,40512
5850,36992
5851,34368
5852,32064
5853,30720
5854,30080
5855,30016
5856,30272
5857,30656
5858,30912
5859,31040
5860,31232
5861,31680
5862,32128
5863,32384
5864,32448
5865,32640
5866,32960
5867,33152
5868,33152
5869,33280
5870,33408
5871,33600
5872,33728
5873,33856
5874,33984
5875,34048
5876,33984
5877,33856
5878,33856
5879,33856
5880,33920
5881,33984
5882,34176
5883,34432
5884,34560
5885,34624
5886,34752
5887,34944
5888,34944
5889,34816
5890,34752
5891,34880
5892,34944
5893,34944
5894,35008
5895,35008
5896,34944
5897,34688
5898,34496
5899,34432
5900,34240
5901,33984
5902,33792
5903,33728
5904,33600
5905,33408
5906,33280
5907,33216
5908,33152
5909,33088
5910,33024
5911,33024
5912,33280
5913,33408
5914,33280
5915,33152
5916,33216
5917,33408
5918,33408
5919,33280
5920,33408
5921,33536
5922,33600
5923,33728
5924,33856
5925,33728
5926,33536
5927,33408
5928,33600
5929,33856
5930,33856
5931,33856
5932,34048
5933,34304
5934,34240
5935,34048
5936,33920
5937,33920
5938,33920
5939,33856
5940,33856
5941,34048
5942,34240
5943,34304
5944,34112
5945,33984
5946,34048
5947,33984
5948,33984
5949,34112
5950,34240
5951,34304
5952,34304
5953,34432
5954,34624
5955,34560
5956,34624
5957,34688
5958,34816
5959,34816
5960,34752
5961,34880
5962,34880
5963,34688
5964,34432
5965,34368
5966,34368
5967,34240
5968,33920
5969,33600
5970,33408
5971,33344
5972,33280
5973,33344
5974,33600
5975,33664
5976,33600
5977,33344
5978,33088
5979,32768
5980,32704
5981,33152
5982,34112
5983,35584
5984,37440
5985,39872
5986,42752
5987,45248
5988,46528
5989,46016
5990,43904
5991,41088
5992,38016
5993,35200
5994,32896
5995,31424
5996,30592
5997,30080
5998,30016
5999,30208
6000,30592
6001,30848
6002,31168
6003,31680
6004,32192
6005,32384
6006,32576
6007,32768
6008,33152
6009,33344
6010,33344
6011,33344
6012,33344
6013,33408
6014,33344
6015,33472
6016,33728
6017,33792
6018,33728
6019,33728
6020,33920
6021,34048
6022,34048
6023,34048
6024,34304
6025,34688
6026,34816
6027,34752
6028,34688
6029,34688
6030,34624
6031,34560
6032,34560
6033,34624
6034,34688
6035,34624
6036,34624
6037,34752
6038,34688
6039,34624
6040,34432
6041,34368
6042,34176
6043,33984
6044,33920
6045,33920
6046,33792
6047,33664
6048,33600
6049,33472
6050,33280
6051,33088
6052,33024
6053,33088
6054,33216
6055,33152
6056,33152
6057,33216
6058,33280
6059,33408
6060,33536
6061,33472
6062,33472
6063,33472
6064,33600
6065,33728
6066,33856
6067,33920
6068,33792
6069,33600
6070,33536
6071,33600
6072,33728
6073,33920
6074,34048
6075,33984
6076,33920
6077,33856
6078,33920
6079,34112
6080,34112
6081,34048
6082,33856
6083,33856
6084,33856
6085,33856
6086,33984
6087,34112
6088,34112
6089,34048
6090,33920
6091,33920
6092,33984
6093,34176
6094,34432
6095,34560
6096,34688
6097,34688
6098,34688
6099,34624
6100,34688
6101,34816
6102,34816
6103,34752
6104,34688
6105,34688
6106,34560
6107,34432
6108,34304
6109,34112
6110,33856
6111,33728
6112,33792
6113,33856
6114,33728
6115,33536
6116,33472
6117,33600
6118,33728
6119,33856
6120,33792
6121,33536
6122,33024
6123,32576
6124,32448
6125,32832
6126,33664
6127,35008
6128,36928
6129,39360
6130,42176
6131,44928
6132,46656
6133,46784
6134,45120
6135,42240
6136,38592
6137,36032
6138,33600
6139,31680
6140,30528
6141,30016
6142,29952
6143,30080
6144,30400
6145,30848
6146,31360
6147,31744
6148,31936
6149,32064
6150,32256
6151,32448
6152,32640
6153,32896
6154,33152
6155,33216
6156,33216
6157,33344
6158,33472
6159,33536
6160,33536
6161,33728
6162,33920
6163,34048
6164,33984
6165,33984
6166,34112
6167,34240
6168,34368
6169,34560
6170,34560
6171,34560
6172,34560
6173,34560
6174,34560
6175,34688
6176,34752
6177,34752
6178,34944
6179,35200
6180,35200
6181,34944
6182,34752
6183,34624
6184,34496
6185,34432
6186,34304
6187,34176
6188,33984
6189,33792
6190,33600
6191,33600
6192,33536
6193,33408
6194,33280
6195,33280
6196,33216
6197,33152
6198,33088
6199,33280
6200,33344
6201,33344
6202,33280
6203,33280
6204,33472
6205,33472
6206,33536
6207,33664
6208,33792
6209,33792
6210,33856
6211,33856
6212,33856
6213,33856
6214,33792
6215,33792
6216,33856
6217,33856
6218,33856
6219,33856
6220,33920
6221,33984
6222,33984
6223,33984
6224,34048
6225,34240
6226,34112
6227,33856
6228,33792
6229,34048
6230,34048
6231,34048
6232,34240
6233,34304
6234,34112
6235,33920
6236,33856
6237,33920
6238,33984
6239,34112
6240,34304
6241,34496
6242,34496
6243,34368
6244,34368
6245,34432
6246,34496
6247,34496
6248,34496
6249,34560
6250,34816
6251,34816
6252,34752
6253,34816
6254,34944
6255,34560
6256,34112
6257,33920
6258,33728
6259,33536
6260,33344
6261,33216
6262,33152
6263,33216
6264,33280
6265,33472
6266,33600
6267,33536
6268,33088
6269,32640
6270,32704
6271,33536
6272,34368
6273,35904
6274,38848
6275,40832
6276,43584
6277,45824
6278,46784
6279,46208
6280,43968
6281,40832
6282,37696
6283,34944
6284,32704
6285,31168
6286,30272
6287,30016
6288,30016
6289,30144
6290,30528
6291,31104
6292,31616
6293,31872
6294,32000
6295,32192
6296,32512
6297,32704
6298,32768
6299,32896
6300,32960
6301,33024
6302,33088
6303,33280
6304,33600
6305,33600
6306,33600
6307,33664
6308,33792
6309,33856
6310,33856
6311,33984
6312,34240
6313,34432
6314,34560
6315,34560
6316,34496
6317,34432
6318,34432
6319,34560
6320,34688
6321,35008
6322,35008
6323,34880
6324,34880
6325,34944
6326,34880
6327,34816
6328,34752
6329,34752
6330,34560
6331,34432
6332,34368
6333,34240
6334,34048
6335,33792
6336,33600
6337,33408
6338,33216
6339,33088
6340,33024
6341,33088
6342,33216
6343,33152
6344,33216
6345,33408
6346,33536
6347,33472
6348,33408
6349,33408
6350,33472
6351,33472
6352,33472
6353,33472
6354,33728
6355,33856
6356,33728
6357,33600
6358,33536
6359,33600
6360,33728
6361,33728
6362,33792
6363,33920
6364,33920
6365,33856
6366,33856
6367,33856
6368,33792
6369,33856
6370,33984
6371,34112
6372,34048
6373,34048
6374,34048
6375,34176
6376,34176
6377,34048
6378,33984
6379,34112
6380,34048
6381,33920
6382,33920
6383,33920
6384,33920
6385,33856
6386,33984
6387,34048
6388,34112
6389,34112
6390,34240
6391,34496
6392,34624
6393,34624
6394,34560
6395,34624
6396,34688
6397,34688
6398,34688
6399,34816
6400,34880
6401,34816
6402,34624
6403,34496
6404,34432
6405,34240
6406,34048
6407,33920
6408,33664
6409,33600
6410,33600
6411,33664
6412,33664
6413,33600
6414,33408
6415,33280
6416,33280
6417,33216
6418,32960
6419,32768
6420,33152
6421,33984
6422,35136
6423,36736
6424,40128
6425,41728
6426,44288
6427,45952
6428,46272
6429,44800
6430,42240
6431,39232
6432,36224
6433,33728
6434,31808
6435,30592
6436,29952
6437,29888
6438,30144
6439,30464
6440,30720
6441,31104
6442,31552
6443,31936
6444,32256
6445,32576
6446,32832
6447,33024
6448,33152
6449,33216
6450,33344
6451,33280
6452,33280
6453,33472
6454,33664
6455,33664
6456,33664
6457,33792
6458,34048
6459,34112
6460,34048
6461,34048
6462,34176
6463,34240
6464,34240
6465,34240
6466,34368
6467,34624
6468,34752
6469,34688
6470,34624
6471,34624
6472,34560
6473,34560
6474,34688
6475,34880
6476,34816
6477,34688
6478,34688
6479,34688
6480,34624
6481,34560
6482,34624
6483,34432
6484,33920
6485,33728
6486,33600
6487,33408
6488,33152
6489,32832
6490,32640
6491,32704
6492,32960
6493,33088
6494,33088
6495,33152
6496,33280
6497,33280
6498,33280
6499,33408
6500,33472
6501,33472
6502,33472
6503,33536
6504,33728
6505,33792
6506,33728
6507,33600
6508,33600
6509,33664
6510,33856
6511,34176
6512,34304
6513,34112
6514,33792
6515,33664
6516,33664
6517,33664
6518,33664
6519,33600
6520,33664
6521,33856
6522,33920
6523,33920
6524,34048
6525,34112
6526,34048
6527,33984
6528,34048
6529,34176
6530,34240
6531,34176
6532,34112
6533,34112
6534,34176
6535,34176
6536,34112
6537,34176
6538,34240
6539,34240
6540,34176
6541,34304
6542,34368
6543,34432
6544,34560
6545,34752
6546,34944
6547,34944
6548,34880
6549,35008
6550,35072
6551,34816
6552,34368
6553,34048
6554,33920
6555,33664
6556,33472
6557,33344
6558,33536
6559,33792
6560,33664
6561,33600
6562,33600
6563,33536
6564,33344
6565,33024
6566,32832
6567,33216
6568,33920
6569,34944
6570,36352
6571,38784
6572,40960
6573,43584
6574,45568
6575,45440
6576,44160
6577,41728
6578,38976
6579,36288
6580,33920
6581,32064
6582,31040
6583,30656
6584,30528
6585,30592
6586,30784
6587,31168
6588,31616
6589,32256
6590,32384
6591,32704
6592,32768
6593,32704
6594,32704
6595,32896
6596,33088
6597,33216
6598,33280
6599,33472
6600,33728
6601,33856
6602,33792
6603,33920
6604,34112
6605,34240
6606,34240
6607,34176
6608,34112
6609,34112
6610,34112
6611,34240
6612,34496
6613,34752
6614,34752
6615,34688
6616,34816
6617,35008
6618,35072
6619,35008
6620,35008
6621,35008
6622,34944
6623,34816
6624,34752
6625,34752
6626,34624
6627,34496
6628,34496
6629,34496
6630,34368
6631,34176
6632,33856
6633,33600
6634,33344
6635,33152
6636,33088
6637,33280
6638,33472
6639,33536
6640,33408
6641,33152
6642,32960
6643,32896
6644,32960
6645,33152
6646,33408
6647,33472
6648,33472
6649,33600
6650,33728
6651,33664
6652,33664
6653,33664
6654,33792
6655,33920
6656,33856
6657,33728
6658,33728
6659,33792
6660,33856
6661,33920
6662,33920
6663,33920
6664,33856
6665,33856
6666,33856
6667,33920
6668,33984
6669,34048
6670,34112
6671,34240
6672,34240
6673,34176
6674,34176
6675,34240
6676,34176
6677,33984
6678,33920
6679,33920
6680,33856
6681,33856
6682,33920
6683,33984
6684,34048
6685,34240
6686,34368
6687,34496
6688,34624
6689,34560
6690,34560
6691,34624
6692,34752
6693,34880
6694,35008
6695,35200
6696,35072
6697,34688
6698,34368
6699,34176
6700,34048
6701,33920
6702,33728
6703,33600
6704,33600
6705,33664
6706,33600
6707,33600
6708,33664
6709,33728
6710,33600
6711,33408
6712,33344
6713,33152
6714,32768
6715,32640
6716,33088
6717,34112
6718,35584
6719,37504
6720,40000
6721,43072
6722,45248
6723,46016
6724,45248
6725,43008
6726,40448
6727,37504
6728,34816
6729,32704
6730,31360
6731,30656
6732,30528
6733,30592
6734,30720
6735,30784
6736,30912
6737,31296
6738,31744
6739,32128
6740,32384
6741,32704
6742,32896
6743,32960
6744,33024
6745,33216
6746,33472
6747,33536
6748,33600
6749,33600
6750,33664
6751,33728
6752,33728
6753,33792
6754,34048
6755,34304
6756,34240
6757,34176
6758,34176
6759,34240
6760,34240
6761,34368
6762,34560
6763,34816
6764,34816
6765,34752
6766,34688
6767,34816
6768,34880
6769,34880
6770,34880
6771,35008
6772,35072
6773,35072
6774,34944
6775,34816
6776,34560
6777,34240
6778,33984
6779,33920
6780,33920
6781,33664
6782,33344
6783,33216
6784,33152
6785,33152
6786,33408
6787,33856
6788,33856
6789,33408
6790,33024
6791,32960
6792,33024
6793,33024
6794,33024
6795,33024
6796,33216
6797,33344
6798,33408
6799,33472
6800,33536
6801,33536
6802,33600
6803,33600
6804,33728
6805,33728
6806,33728
6807,33664
6808,33792
6809,33984
6810,34048
6811,34112
6812,34176
6813,34176
6814,34112
6815,33984
6816,33984
6817,34048
6818,34112
6819,34048
6820,34048
6821,34048
6822,33984
6823,33984
6824,34048
6825,34176
6826,34432
6827,34368
6828,34112
6829,33920
6830,33920
6831,33984
6832,34240
6833,34560
6834,34368
6835,34048
6836,33856
6837,33984
6838,34112
6839,34112
6840,34176
6841,34368
6842,34496
6843,34560
6844,34560
6845,34752
6846,34880
6847,35008
6848,35008
6849,35008
6850,35008
6851,34944
6852,34624
6853,34368
6854,34304
6855,34240
6856,34112
6857,33920
6858,33728
6859,33472
6860,33280
6861,33088
6862,33216
6863,33408
6864,33600
6865,33536
6866,33280
6867,33088
6868,33088
6869,33536
6870,34496
6871,36160
6872,37824
6873,39872
6874,42432
6875,44864
6876,45952
6877,45568
6878,43584
6879,40832
6880,37952
6881,35200
6882,32960
6883,31424
6884,30592
6885,30208
6886,30336
6887,30592
6888,30976
6889,31360
6890,31808
6891,32064
6892,32256
6893,32320
6894,32384
6895,32576
6896,32896
6897,33152
6898,33280
6899,33408
6900,33664
6901,33792
6902,33664
6903,33536
6904,33600
6905,33792
6906,33920
6907,33984
6908,34112
6909,34176
6910,34240
6911,34368
6912,34624
6913,34752
6914,34752
6915,34688
6916,34688
6917,34880
6918,35136
6919,35648
6920,36224
6921,36096
6922,35456
6923,34880
6924,34560
6925,34496
6926,34432
6927,34368
6928,34304
6929,34304
6930,34240
6931,34048
6932,33856
6933,33792
6934,33792
6935,33728
6936,33536
6937,33408
6938,33344
6939,33216
6940,33088
6941,33024
6942,33088
6943,33152
6944,33088
6945,33152
6946,33344
6947,33408
6948,33408
6949,33472
6950,33536
6951,33472
6952,33408
6953,33344
6954,33600
6955,33856
6956,34048
6957,33984
6958,34048
6959,34176
6960,33984
6961,33792
6962,33920
6963,34048
6964,33984
6965,33856
6966,33856
6967,33984
6968,34048
6969,34048
6970,33984
6971,33984
6972,33984
6973,33984
6974,34048
6975,34176
6976,34176
6977,34112
6978,34048
6979,33984
6980,33984
6981,33792
6982,33792
6983,33984
6984,34176
6985,34240
6986,34240
6987,34240
6988,34112
6989,33920
6990,33792
6991,33856
6992,33984
6993,33984
6994,33920
6995,34048
6996,34240
6997,34304
6998,34368
6999,34560
7000,34816
7001,34816
7002,34624
7003,34496
7004,34496
7005,34688
7006,34752
7007,34752
7008,34688
7009,34560
7010,34560
7011,34624
7012,34752
7013,34752
7014,34496
7015,34240
7016,33920
7017,33728
7018,33536
7019,33408
7020,33344
7021,33472
7022,33600
7023,33536
7024,33536
7025,33600
7026,33536
7027,33216
7028,32832
7029,32768
7030,33280
7031,34112
7032,35392
7033,37248
7034,39680
7035,42368
7036,44800
7037,45888
7038,45504
7039,43520
7040,40832
7041,38080
7042,35520
7043,33216
7044,31552
7045,30720
7046,30400
7047,30336
7048,30592
7049,30976
7050,31296
7051,31680
7052,32064
7053,32320
7054,32512
7055,32512
7056,32448
7057,32576
7058,32832
7059,33152
7060,33280
7061,33344
7062,33472
7063,33728
7064,33728
7065,33664
7066,33664
7067,33856
7068,34048
7069,34112
7070,34176
7071,34432
7072,34496
7073,34368
7074,34432
7075,34688
7076,34816
7077,34624
7078,34496
7079,34560
7080,34688
7081,34816
7082,34880
7083,35008
7084,35136
7085,35136
7086,35008
7087,35008
7088,35008
7089,34944
7090,34880
7091,34752
7092,34560
7093,34240
7094,33856
7095,33728
7096,33664
7097,33408
7098,33152
7099,33024
7100,33088
7101,33216
7102,33216
7103,33280
7104,33408
7105,33472
7106,33280
7107,33024
7108,33024
7109,33152
7110,33216
7111,33280
7112,33408
7113,33664
7114,33856
7115,33792
7116,33728
7117,33600
7118,33536
7119,33472
7120,33536
7121,33792
7122,33920
7123,33920
7124,33920
7125,33984
7126,33920
7127,33728
7128,33600
7129,33600
7130,33664
7131,33792
7132,33984
7133,34112
7134,34176
7135,34176
7136,34048
7137,33920
7138,33920
7139,33920
7140,33920
7141,33984
7142,34048
7143,34048
7144,33920
7145,33984
7146,33984
7147,33920
7148,33920
7149,33920
7150,33984
7151,34112
7152,34240
7153,34432
7154,34560
7155,34624
7156,34624
7157,34688
7158,34880
7159,35008
7160,35008
7161,34816
7162,34688
7163,34752
7164,34816
7165,34688
7166,34432
7167,33664
7168,33344
7169,33280
7170,33344
7171,33600
7172,33600
7173,33600
7174,33600
7175,33536
7176,33408
7177,33024
7178,32960
7179,32832
7180,33344
7181,34240
7182,34304
7183,37504
7184,39936
7185,42496
7186,44608
7187,45376
7188,44672
7189,42496
7190,42112
7191,39808
7192,34816
7193,32704
7194,31360
7195,30720
7196,30464
7197,30528
7198,30784
7199,31168
7200,31424
7201,31424
7202,31680
7203,32000
7204,32320
7205,32576
7206,32832
7207,33216
7208,33728
7209,33792
7210,33536
7211,33408
7212,33472
7213,33472
7214,33600
7215,33728
7216,33792
7217,33856
7218,33792
7219,33856
7220,33984
7221,34048
7222,34112
7223,34368
7224,34560
7225,34752
7226,34752
7227,34752
7228,34752
7229,34880
7230,34944
7231,34944
7232,35136
7233,35264
7234,35264
7235,35200
7236,35136
7237,35072
7238,34944
7239,34560
7240,34304
7241,34240
7242,34240
7243,34048
7244,33920
7245,33856
7246,33664
7247,33536
7248,33600
7249,33536
7250,33600
7251,33216
7252,33024
7253,32960
7254,33088
7255,33216
7256,33536
7257,33600
7258,33600
7259,33600
7260,33472
7261,33408
7262,33408
7263,33536
7264,33664
7265,33600
7266,33600
7267,33664
7268,33664
7269,33728
7270,33792
7271,33920
7272,33920
7273,33856
7274,34048
7275,34240
7276,34304
7277,34240
7278,34176
7279,34112
7280,33920
7281,33792
7282,33920
7283,34048
7284,34048
7285,33984
7286,33920
7287,33920
7288,33984
7289,33920
7290,33984
7291,34112
7292,34240
7293,34176
7294,34112
7295,34112
7296,34240
7297,34240
7298,34368
7299,34560
7300,34688
7301,34752
7302,34752
7303,34880
7304,34816
7305,34752
7306,34688
7307,34752
7308,34880
7309,34944
7310,34816
7311,34688
7312,34560
7313,34368
7314,33984
7315,33728
7316,33664
7317,33600
7318,33472
7319,33408
7320,33536
7321,33600
7322,33664
7323,33920
7324,34048
7325,33600
7326,32960
7327,32640
7328,33024
7329,34048
7330,35392
7331,37120
7332,39360
7333,42112
7334,44416
7335,45376
7336,44928
7337,43136
7338,40576
7339,37760
7340,35264
7341,33216
7342,31744
7343,30784
7344,30400
7345,30592
7346,31104
7347,31488
7348,31616
7349,31744
7350,32000
7351,32128
7352,32256
7353,32448
7354,32768
7355,32960
7356,33088
7357,33216
7358,33472
7359,33792
7360,33920
7361,33984
7362,34048
7363,33984
7364,33920
7365,33920
7366,34112
7367,34176
7368,34240
7369,34304
7370,34432
7371,34624
7372,34432
7373,34304
7374,34304
7375,34432
7376,34624
7377,34688
7378,34816
7379,35008
7380,35136
7381,35136
7382,35264
7383,35328
7384,35136
7385,34880
7386,34816
7387,35072
7388,35072
7389,34688
7390,34176
7391,33984
7392,33792
7393,33472
7394,33216
7395,33280
7396,33408
7397,33344
7398,33216
7399,33280
7400,33280
7401,33152
7402,32960
7403,32960
7404,33280
7405,33408
7406,33408
7407,33600
7408,33856
7409,33728
7410,33408
7411,33280
7412,33472
7413,33600
7414,33600
7415,33664
7416,33984
7417,34048
7418,33856
7419,33728
7420,33792
7421,33984
7422,34048
7423,34048
7424,34304
7425,34368
7426,33920
7427,33472
7428,33472
7429,33728
7430,33984
7431,34048
7432,33984
7433,34112
7434,34176
7435,34112
7436,34048
7437,34112
7438,34048
7439,33792
7440,33728
7441,33920
7442,34112
7443,34112
7444,33984
7445,34112
7446,34176
7447,34176
7448,34176
7449,34240
7450,34368
7451,34304
7452,34304
7453,34560
7454,34816
7455,34880
7456,34752
7457,34688
7458,34816
7459,34880
7460,34752
7461,34688
7462,34816
7463,34752
7464,34368
7465,34112
7466,34112
7467,34112
7468,33984
7469,33856
7470,33920
7471,33920
7472,33664
7473,33408
7474,33472
7475,33664
7476,33536
7477,33088
7478,32960
7479,33280
7480,33920
7481,34944
7482,36608
7483,38976
7484,41792
7485,44480
7486,46080
7487,46336
7488,44928
7489,42432
7490,39616
7491,36928
7492,34368
7493,32256
7494,30784
7495,30272
7496,30272
7497,30400
7498,30592
7499,31168
7500,31872
7501,32256
7502,32256
7503,32448
7504,32768
7505,32960
7506,33152
7507,33408
7508,33728
7509,33856
7510,33664
7511,33472
7512,33728
7513,33856
7514,33664
7515,33600
7516,33920
7517,34176
7518,34112
7519,34048
7520,34112
7521,34304
7522,34432
7523,34624
7524,34880
7525,35072
7526,35072
7527,35008
7528,35264
7529,35584
7530,35520
7531,35456
7532,35456
7533,35392
7534,35328
7535,35072
7536,34880
7537,34944
7538,35072
7539,34816
7540,34496
7541,34368
7542,34240
7543,34048
7544,33856
7545,33856
7546,33984
7547,33792
7548,33472
7549,33344
7550,33344
7551,33280
7552,33216
7553,33408
7554,33536
7555,33536
7556,33344
7557,33344
7558,33536
7559,33664
7560,33472
7561,33344
7562,33536
7563,33792
7564,33792
7565,33792
7566,33920
7567,34112
7568,34048
7569,33984
7570,34112
7571,34432
7572,34368
7573,34048
7574,33920
7575,34048
7576,34048
7577,33792
7578,33728
7579,33920
7580,34112
7581,34176
7582,34176
7583,34304
7584,34368
7585,34304
7586,34240
7587,34368
7588,34432
7589,34240
7590,34048
7591,34304
7592,34624
7593,34496
7594,34240
7595,34176
7596,34112
7597,33920
7598,33728
7599,33984
7600,34304
7601,34368
7602,34240
7603,34304
7604,34496
7605,34496
7606,34368
7607,34432
7608,34624
7609,34816
7610,34880
7611,34944
7612,35200
7613,35520
7614,35520
7615,35136
7616,34816
7617,34688
7618,34496
7619,34240
7620,34048
7621,33920
7622,33728
7623,33536
7624,33600
7625,33856
7626,33792
7627,33664
7628,33600
7629,33664
7630,33728
7631,33536
7632,33280
7633,33088
7634,33216
7635,33728
7636,34624
7637,36032
7638,38080
7639,40640
7640,43392
7641,45760
7642,46848
7643,46080
7644,43712
7645,40640
7646,37760
7647,35136
7648,32896
7649,31360
7650,30592
7651,30336
7652,30272
7653,30336
7654,30720
7655,31168
7656,31488
7657,31744
7658,32000
7659,32320
7660,32576
7661,32832
7662,33280
7663,33664
7664,33856
7665,33856
7666,33856
7667,33664
7668,33472
7669,33472
7670,33728
7671,33856
7672,33792
7673,33728
7674,33728
7675,33984
7676,34176
7677,34240
7678,34304
7679,34624
7680,35008
7681,35136
7682,35072
7683,35072
7684,35008
7685,35008
7686,34944
7687,35008
7688,35136
7689,35264
7690,35456
7691,35392
7692,35200
7693,35072
7694,34944
7695,34816
7696,34688
7697,34368
7698,34112
7699,34048
7700,34112
7701,33984
7702,33728
7703,33408
7704,33280
7705,33344
7706,33408
7707,33344
7708,33216
7709,33088
7710,33024
7711,33088
7712,33280
7713,33408
7714,33472
7715,33728
7716,33856
7717,33728
7718,33536
7719,33472
7720,33664
7721,33920
7722,33920
7723,33792
7724,33728
7725,33920
7726,34112
7727,34112
7728,34112
7729,34240
7730,34176
7731,33920
7732,33792
7733,33984
7734,34240
7735,34240
7736,34112
7737,34112
7738,34176
7739,34048
7740,34048
7741,34112
7742,34048
7743,33920
7744,33792
7745,33856
7746,34048
7747,34048
7748,33856
7749,33856
7750,33984
7751,34048
7752,33920
7753,33920
7754,34112
7755,34304
7756,34368
7757,34304
7758,34304
7759,34496
7760,34688
7761,34624
7762,34624
7763,34816
7764,34880
7765,34944
7766,34944
7767,34944
7768,34816
7769,34688
7770,34688
7771,34560
7772,34240
7773,33856
7774,33536
7775,33408
7776,33344
7777,33344
7778,33344
7779,33472
7780,33600
7781,33664
7782,33728
7783,33664
7784,33344
7785,32896
7786,32896
7787,33408
7788,34368
7789,35648
7790,37120
7791,39488
7792,42496
7793,45248
7794,46528
7795,46144
7796,44096
7797,41216
7798,38144
7799,35456
7800,33216
7801,31552
7802,30528
7803,30144
7804,30208
7805,30528
7806,30720
7807,31040
7808,31424
7809,31936
7810,32384
7811,32576
7812,32704
7813,32768
7814,32704
7815,32640
7816,32768
7817,32960
7818,33088
7819,33216
7820,33344
7821,33600
7822,33728
7823,33856
7824,33920
7825,33984
7826,34048
7827,34048
7828,34176
7829,34432
7830,34432
7831,34240
7832,34176
7833,34368
7834,34688
7835,34816
7836,34816
7837,34880
7838,35072
7839,35072
7840,35072
7841,35136
7842,35200
7843,35072
7844,34944
7845,34816
7846,34752
7847,34624
7848,34496
7849,34432
7850,34496
7851,34304
7852,34048
7853,33728
7854,33472
7855,33280
7856,33088
7857,33088
7858,33280
7859,33472
7860,33280
7861,33152
7862,33280
7863,33408
7864,33408
7865,33280
7866,33280
7867,33344
7868,33344
7869,33344
7870,33472
7871,33600
7872,33600
7873,33472
7874,33536
7875,33728
7876,33856
7877,33920
7878,33920
7879,33984
7880,34048
7881,33984
7882,33984
7883,33984
7884,34112
7885,34176
7886,34176
7887,34112
7888,34112
7889,33984
7890,33984
7891,34176
7892,34176
7893,33984
7894,33792
7895,33856
7896,34048
7897,34176
7898,34240
7899,34368
7900,34432
7901,34368
7902,34304
7903,34176
7904,34176
7905,34176
7906,34240
7907,34368
7908,34560
7909,34688
7910,34752
7911,34688
7912,34688
7913,34752
7914,34752
7915,34752
7916,34752
7917,34624
7918,34304
7919,33984
7920,33728
7921,33600
7922,33408
7923,33280
7924,33216
7925,33344
7926,33472
7927,33536
7928,33472
7929,33472
7930,33408
7931,33152
7932,33088
7933,33536
7934,34240
7935,35200
7936,36608
7937,38592
7938,41216
7939,44224
7940,45312
7941,45248
7942,43520
7943,40896
7944,38016
7945,35392
7946,33280
7947,31744
7948,30848
7949,30528
7950,30592
7951,30720
7952,30976
7953,31232
7954,31744
7955,32128
7956,32448
7957,32576
7958,32704
7959,32832
7960,32960
7961,33088
7962,33280
7963,33472
7964,33472
7965,33408
7966,33408
7967,33664
7968,33856
7969,33792
7970,33664
7971,33728
7972,33984
7973,34176
7974,34368
7975,34496
7976,34560
7977,34432
7978,34368
7979,34496
7980,34752
7981,34816
7982,34752
7983,34816
7984,34944
7985,34944
7986,35008
7987,35136
7988,35200
7989,35264
7990,35136
7991,34944
7992,34816
7993,34688
7994,34560
7995,34432
7996,34304
7997,34048
7998,33600
7999,33280
8000,33216
8001,33152
8002,33088
8003,33152
8004,33280
8005,33408
8006,33344
8007,33344
8008,33472
8009,33600
8010,33664
8011,33472
8012,33408
8013,33536
8014,33600
8015,33664
8016,33728
8017,33664
8018,33600
8019,33536
8020,33600
8021,33792
8022,33856
8023,33792
8024,33792
8025,33920
8026,34048
8027,34112
8028,34112
8029,34112
8030,34112
8031,34112
8032,34240
8033,34176
8034,33984
8035,33792
8036,33728
8037,33792
8038,34048
8039,34112
8040,34112
8041,34048
8042,34112
8043,34240
8044,34496
8045,34496
8046,34432
8047,34432
8048,34432
8049,34432
8050,34496
8051,34560
8052,34752
8053,34944
8054,35008
8055,34880
8056,34624
8057,34432
8058,34368
8059,34496
8060,34432
8061,34176
8062,33920
8063,33856
8064,33856
8065,33728
8066,33664
8067,33728
8068,33728
8069,33664
8070,33600
8071,33664
8072,33728
8073,33408
8074,32960
8075,32832
8076,33088
8077,33920
8078,35072
8079,36736
8080,38848
8081,41280
8082,43648
8083,45056
8084,45056
8085,43584
8086,41152
8087,38400
8088,35776
8089,33024
8090,31808
8091,30912
8092,30656
8093,30720
8094,30976
8095,31296
8096,31616
8097,31808
8098,31936
8099,32064
8100,32384
8101,32704
8102,32960
8103,33088
8104,33280
8105,33344
8106,33408
8107,33408
8108,33472
8109,33728
8110,33920
8111,34048
8112,34048
8113,34048
8114,34112
8115,34176
8116,34304
8117,34752
8118,35008
8119,34816
8120,34624
8121,34432
8122,34112
8123,33856
8124,33856
8125,34048
8126,34304
8127,34496
8128,34624
8129,34752
8130,34944
8131,34944
8132,34752
8133,34688
8134,34752
8135,34688
8136,34496
8137,34432
8138,34432
8139,34304
8140,33920
8141,33600
8142,33472
8143,33408
8144,33344
8145,33280
8146,33216
8147,33152
8148,33024
8149,32960
8150,33088
8151,33280
8152,33344
8153,33280
8154,33344
8155,33600
8156,33792
8157,33856
8158,33920
8159,33856
8160,33728
8161,33664
8162,33664
8163,33792
8164,33792
8165,33728
8166,33856
8167,34112
8168,34304
8169,34176
8170,33920
8171,33728
8172,33728
8173,33728
8174,33664
8175,33728
8176,33856
8177,33984
8178,34048
8179,34240
8180,34496
8181,34432
8182,34176
8183,34112
8184,33984
8185,33792
8186,33728
8187,33792
8188,34048
8189,34304
8190,34432
8191,34432
8192,34432
8193,34432
8194,34496
8195,34560
8196,34752
8197,34944
8198,35008
8199,35008
8200,35072
8201,35200
8202,35136
8203,34880
8204,34688
8205,34496
8206,34240
8207,33984
8208,33920
8209,33920
8210,33856
8211,33600
8212,33408
8213,33600
8214,33728
8215,33664
8216,33600
8217,33600
8218,33408
8219,33024
8220,32768
8221,33088
8222,33792
8223,34880
8224,37184
8225,38848
8226,41344
8227,44032
8228,45696
8229,45952
8230,44736
8231,42304
8232,39360
8233,36608
8234,34304
8235,32384
8236,30912
8237,30336
8238,30336
8239,30592
8240,30656
8241,30912
8242,31296
8243,31744
8244,32128
8245,32576
8246,32832
8247,32896
8248,32896
8249,32960
8250,33088
8251,33344
8252,33472
8253,33472
8254,33728
8255,33920
8256,34112
8257,33920
8258,33792
8259,33792
8260,33856
8261,33984
8262,34240
8263,34304
8264,34240
8265,34240
8266,34240
8267,34368
8268,34496
8269,34624
8270,34752
8271,34944
8272,35264
8273,35328
8274,35264
8275,35328
8276,35328
8277,35200
8278,34880
8279,34752
8280,34752
8281,34560
8282,34368
8283,34304
8284,34176
8285,33792
8286,33408
8287,33280
8288,33408
8289,33472
8290,33344
8291,33216
8292,33280
8293,33280
8294,33216
8295,33216
8296,33344
8297,33408
8298,33408
8299,33600
8300,33600
8301,33664
8302,33600
8303,33600
8304,33856
8305,33856
8306,33664
8307,33408
8308,33408
8309,33536
8310,33728
8311,33856
8312,33920
8313,34176
8314,34304
8315,34176
8316,33984
8317,33984
8318,34048
8319,34304
8320,34432
8321,34240
8322,34048
8323,33984
8324,33920
8325,34048
8326,34176
8327,34112
8328,33856
8329,33728
8330,33792
8331,33920
8332,33984
8333,34112
8334,34368
8335,34432
8336,34240
8337,34240
8338,34432
8339,34816
8340,34944
8341,34688
8342,34496
8343,34496
8344,34496
8345,34496
8346,34752
8347,34944
8348,34944
8349,34752
8350,34560
8351,34432
8352,34240
8353,33984
8354,33728
8355,33536
8356,33408
8357,33280
8358,33216
8359,33344
8360,33472
8361,33600
8362,33728
8363,33536
8364,33088
8365,32704
8366,32768
8367,33280
8368,34304
8369,35840
8370,37824
8371,40256
8372,43200
8373,45504
8374,46400
8375,45696
8376,43584
8377,40576
8378,37504
8379,34752
8380,32704
8381,31424
8382,30592
8383,30272
8384,30336
8385,30592
8386,30720
8387,31040
8388,31488
8389,31744
8390,31936
8391,32192
8392,32576
8393,32832
8394,32960
8395,32960
8396,33088
8397,33344
8398,33536
8399,33472
8400,33472
8401,33664
8402,33856
8403,33984
8404,33920
8405,33856
8406,33920
8407,33920
8408,33984
8409,34240
8410,34496
8411,34368
8412,34240
8413,34432
8414,34624
8415,34944
8416,35008
8417,35008
8418,35072
8419,34880
8420,34816
8421,34944
8422,35008
8423,34944
8424,34752
8425,34624
8426,34496
8427,34368
8428,34304
8429,34304
8430,34240
8431,34112
8432,33728
8433,33472
8434,33280
8435,33152
8436,33024
8437,32896
8438,32896
8439,33024
8440,33024
8441,33152
8442,33280
8443,33344
8444,33280
8445,33216
8446,33216
8447,33344
8448,33344
8449,33536
8450,33664
8451,33856
8452,33920
8453,33664
8454,33472
8455,33536
8456,33600
8457,33536
8458,33472
8459,33472
8460,33600
8461,33664
8462,33792
8463,33984
8464,34240
8465,34240
8466,34240
8467,34176
8468,34112
8469,34048
8470,33984
8471,33920
8472,33920
8473,34048
8474,34112
8475,34176
8476,34176
8477,33984
8478,33856
8479,33984
8480,34048
8481,34112
8482,34112
8483,34304
8484,34560
8485,34624
8486,34560
8487,34432
8488,34432
8489,34560
8490,34688
8491,34688
8492,34752
8493,34944
8494,34816
8495,34560
8496,34368
8497,34240
8498,34112
8499,33792
8500,33664
8501,33728
8502,33664
8503,33408
8504,33216
8505,33216
8506,33408
8507,33472
8508,33472
8509,33472
8510,33280
8511,33024
8512,32896
8513,33216
8514,34240
8515,35520
8516,37440
8517,40064
8518,42880
8519,45184
8520,46208
8521,45696
8522,43712
8523,40960
8524,36224
8525,34880
8526,32704
8527,31232
8528,30400
8529,30080
8530,30272
8531,30592
8532,30912
8533,31232
8534,31616
8535,31936
8536,32192
8537,32512
8538,32896
8539,33152
8540,33152
8541,33152
8542,33280
8543,33472
8544,33536
8545,33536
8546,33536
8547,33472
8548,33600
8549,33792
8550,33920
8551,33984
8552,33984
8553,33856
8554,33920
8555,34048
8556,34240
8557,34304
8558,34432
8559,34688
8560,34816
8561,34816
8562,34816
8563,34880
8564,35008
8565,35072
8566,35008
8567,35008
8568,35136
8569,34944
8570,34752
8571,34560
8572,34496
8573,34304
8574,34112
8575,33920
8576,33920
8577,33920
8578,33792
8579,33536
8580,33408
8581,33344
8582,33216
8583,33152
8584,33088
8585,33152
8586,33344
8587,33408
8588,33408
8589,33344
8590,33216
8591,33216
8592,33280
8593,33472
8594,33728
8595,33792
8596,33664
8597,33536
8598,33472
8599,33344
8600,33408
8601,33536
8602,33664
8603,33664
8604,33728
8605,33920
8606,33920
8607,33792
8608,33728
8609,33728
8610,33792
8611,33920
8612,33856
8613,33920
8614,33984
8615,33984
8616,33920
8617,33920
8618,33856
8619,33920
8620,33856
8621,33856
8622,34048
8623,34240
8624,34240
8625,34304
8626,34368
8627,34432
8628,34496
8629,34624
8630,34752
8631,34752
8632,34624
8633,34624
8634,34688
8635,34880
8636,35008
8637,34624
8638,33984
8639,33600
8640,33280
8641,33088
8642,33088
8643,33344
8644,33472
8645,33408
8646,33472
8647,33600
8648,33664
8649,33664
8650,33472
8651,33152
8652,33088
8653,33152
8654,33792
8655,35008
8656,36672
8657,38848
8658,41536
8659,44224
8660,45632
8661,45312
8662,43392
8663,40960
8664,38272
8665,35712
8666,33536
8667,32000
8668,31168
8669,30784
8670,30592
8671,30784
8672,31104
8673,31232
8674,31296
8675,31552
8676,32000
8677,32448
8678,32768
8679,32896
8680,33024
8681,33088
8682,33088
8683,33024
8684,33088
8685,33408
8686,33728
8687,33856
8688,33856
8689,33792
8690,33792
8691,33792
8692,33856
8693,33984
8694,34176
8695,34304
8696,34368
8697,34432
8698,34432
8699,34368
8700,34368
8701,34496
8702,34752
8703,34880
8704,34944
8705,35072
8706,35200
8707,35072
8708,34880
8709,34752
8710,34624
8711,34432
8712,34240
8713,34176
8714,34240
8715,34112
8716,33856
8717,33728
8718,33728
8719,33856
8720,33792
8721,33600
8722,33408
8723,33344
8724,33344
8725,33344
8726,33408
8727,33408
8728,33344
8729,33216
8730,33280
8731,33472
8732,33472
8733,33280
8734,33280
8735,33408
8736,33536
8737,33536
8738,33536
8739,33728
8740,33856
8741,33792
8742,33664
8743,33728
8744,33920
8745,33984
8746,33984
8747,33984
8748,33984
8749,33984
8750,33856
8751,33856
8752,33792
8753,33792
8754,33856
8755,34048
8756,34240
8757,34112
8758,33984
8759,34048
8760,34240
8761,34176
8762,34048
8763,33920
8764,34048
8765,34112
8766,34176
8767,34112
8768,34240
8769,34368
8770,34368
8771,34304
8772,34368
8773,34432
8774,34496
8775,34624
8776,34816
8777,34944
8778,34816
8779,34624
8780,34624
8781,34560
8782,34304
8783,33920
8784,33856
8785,33920
8786,33856
8787,33664
8788,33536
8789,33664
8790,33536
8791,33280
8792,33216
8793,33216
8794,32896
8795,32512
8796,32576
8797,33280
8798,34368
8799,35840
8800,37760
8801,40384
8802,43328
8803,45376
8804,45824
8805,44736
8806,42560
8807,39808
8808,37120
8809,34752
8810,32832
8811,31552
8812,30592
8813,30208
8814,30272
8815,30656
8816,31040
8817,31360
8818,31808
8819,32256
8820,32320
8821,32512
8822,32704
8823,32896
8824,32960
8825,33088
8826,33408
8827,33792
8828,33792
8829,33792
8830,33792
8831,33728
8832,33600
8833,33600
8834,33600
8835,33856
8836,34048
8837,34048
8838,34048
8839,34176
8840,34304
8841,34368
8842,34496
8843,34688
8844,34688
8845,34688
8846,34688
8847,34816
8848,34944
8849,34944
8850,34944
8851,35072
8852,35072
8853,34944
8854,34752
8855,34752
8856,34688
8857,34560
8858,34432
8859,34240
8860,34048
8861,33984
8862,34048
8863,33984
8864,33664
8865,33216
8866,32896
8867,32704
8868,32832
8869,33024
8870,33152
8871,33216
8872,33408
8873,33600
8874,33600
8875,33472
8876,33408
8877,33600
8878,33664
8879,33600
8880,33664
8881,33728
8882,33920
8883,33984
8884,34048
8885,34176
8886,34176
8887,33792
8888,33600
8889,33728
8890,33856
8891,33856
8892,33792
8893,33856
8894,33984
8895,33984
8896,33984
8897,34048
8898,34240
8899,34304
8900,34176
8901,34048
8902,34048
8903,34048
8904,34048
8905,34112
8906,34304
8907,34496
8908,34624
8909,34560
8910,34368
8911,34176
8912,34048
8913,34112
8914,34304
8915,34560
8916,34752
8917,34944
8918,35136
8919,35200
8920,35072
8921,34752
8922,34496
8923,34176
8924,33984
8925,33856
8926,33792
8927,33728
8928,33728
8929,33728
8930,33664
8931,33472
8932,33280
8933,33152
8934,33216
8935,33280
8936,33152
8937,32896
8938,32768
8939,33280
8940,34240
8941,35648
8942,37504
8943,39936
8944,42688
8945,45120
8946,46400
8947,46080
8948,44160
8949,41344
8950,38272
8951,35520
8952,33344
8953,31808
8954,30592
8955,29952
8956,29824
8957,29952
8958,30208
8959,30656
8960,31232
8961,31680
8962,32064
8963,32384
8964,32704
8965,32960
8966,33088
8967,33152
8968,33344
8969,33600
8970,33792
8971,33856
8972,33792
8973,33600
8974,33408
8975,33344
8976,33472
8977,33664
8978,33856
8979,34048
8980,34176
8981,34304
8982,34368
8983,34368
8984,34304
8985,34368
8986,34560
8987,34688
8988,34816
8989,35008
8990,35264
8991,35264
8992,35136
8993,34880
8994,34624
8995,34496
8996,34432
8997,34432
8998,34304
8999,34176
9000,34176
9001,34176
9002,33920
9003,33600
9004,33408
9005,33344
9006,33280
9007,33216
9008,33152
9009,33152
9010,33216
9011,33216
9012,33344
9013,33536
9014,33600
9015,33408
9016,33280
9017,33536
9018,33664
9019,33472
9020,33344
9021,33408
9022,33536
9023,33536
9024,33792
9025,33792
9026,33856
9027,33856
9028,33856
9029,33984
9030,34176
9031,34304
9032,34240
9033,34240
9034,34240
9035,34176
9036,34112
9037,33920
9038,33984
9039,34048
9040,33984
9041,33920
9042,33856
9043,33856
9044,33792
9045,33792
9046,33728
9047,33984
9048,34112
9049,34112
9050,34240
9051,34432
9052,34688
9053,34816
9054,34816
9055,34752
9056,34688
9057,34688
9058,34816
9059,35008
9060,34944
9061,34752
9062,34560
9063,34496
9064,34432
9065,34304
9066,34112
9067,34048
9068,33984
9069,33728
9070,33536
9071,33472
9072,33472
9073,33344
9074,33344
9075,33536
9076,33536
9077,33792
9078,33664
9079,33280
9080,33024
9081,33152
9082,33600
9083,34368
9084,35648
9085,37568
9086,39936
9087,42752
9088,45184
9089,46400
9090,45952
9091,44032
9092,41216
9093,38208
9094,35264
9095,32576
9096,32128
9097,30336
9098,30016
9099,29952
9100,30208
9101,30720
9102,31168
9103,31552
9104,31872
9105,32064
9106,32256
9107,32384
9108,32640
9109,32896
9110,33088
9111,33216
9112,33408
9113,33600
9114,33728
9115,33792
9116,33856
9117,33792
9118,33728
9119,33664
9120,33728
9121,33856
9122,33984
9123,33984
9124,33984
9125,34176
9126,34304
9127,34304
9128,34304
9129,34368
9130,34624
9131,34944
9132,35136
9133,35136
9134,35072
9135,34944
9136,34816
9137,34816
9138,34752
9139,34752
9140,34624
9141,34432
9142,34368
9143,34368
9144,34368
9145,34240
9146,34176
9147,34048
9148,33792
9149,33472
9150,33216
9151,33152
9152,33088
9153,32896
9154,32896
9155,32896
9156,32960
9157,32960
9158,33024
9159,33152
9160,33280
9161,33408
9162,33536
9163,33600
9164,33600
9165,33472
9166,33408
9167,33408
9168,33600
9169,33728
9170,33728
9171,33664
9172,33728
9173,33728
9174,33664
9175,33856
9176,34176
9177,34240
9178,34048
9179,33856
9180,33920
9181,33984
9182,33920
9183,33856
9184,33984
9185,34048
9186,33984
9187,33856
9188,33856
9189,33920
9190,33984
9191,33984
9192,34048
9193,34304
9194,34368
9195,34432
9196,34560
9197,34752
9198,34752
9199,34560
9200,34496
9201,34560
9202,34560
9203,34560
9204,34496
9205,34496
9206,34496
9207,34240
9208,34048
9209,34048
9210,34112
9211,33920
9212,33664
9213,33472
9214,33408
9215,33472
9216,33472
9217,33472
9218,33600
9219,33728
9220,33408
9221,32896
9222,32704
9223,33024
9224,33856
9225,35136
9226,36864
9227,39104
9228,41728
9229,44288
9230,45696
9231,45632
9232,43776
9233,40896
9234,38016
9235,35520
9236,33472
9237,31872
9238,30912
9239,30464
9240,30272
9241,30336
9242,30720
9243,31232
9244,31744
9245,32000
9246,32192
9247,32512
9248,32768
9249,32832
9250,32960
9251,33152
9252,33408
9253,33472
9254,33472
9255,33536
9256,33664
9257,33728
9258,33984
9259,34240
9260,34240
9261,34112
9262,33984
9263,33984
9264,34112
9265,34176
9266,34048
9267,34112
9268,34304
9269,34432
9270,34496
9271,34624
9272,34944
9273,35264
9274,35200
9275,35008
9276,34816
9277,34752
9278,34624
9279,34624
9280,34752
9281,34752
9282,34624
9283,34560
9284,34496
9285,34432
9286,34304
9287,34176
9288,33984
9289,33728
9290,33408
9291,33152
9292,33024
9293,33216
9294,33472
9295,33600
9296,33472
9297,33344
9298,33152
9299,33152
9300,33280
9301,33408
9302,33600
9303,33664
9304,33664
9305,33728
9306,33728
9307,33664
9308,33600
9309,33664
9310,33728
9311,33856
9312,33984
9313,34176
9314,34240
9315,34112
9316,33984
9317,34112
9318,34176
9319,34048
9320,33856
9321,33856
9322,33920
9323,33984
9324,33984
9325,33984
9326,34048
9327,34112
9328,34176
9329,34304
9330,34304
9331,34240
9332,34176
9333,34048
9334,34176
9335,34304
9336,34624
9337,34816
9338,34688
9339,34432
9340,34368
9341,34368
9342,34560
9343,34816
9344,34944
9345,34880
9346,34752
9347,34816
9348,34816
9349,34432
9350,33984
9351,33664
9352,33536
9353,33408
9354,33344
9355,33472
9356,33792
9357,33856
9358,33728
9359,33728
9360,33664
9361,33344
9362,32832
9363,32640
9364,33024
9365,33792
9366,34880
9367,36480
9368,38656
9369,41280
9370,43840
9371,45440
9372,45504
9373,44032
9374,41472
9375,38464
9376,36032
9377,33792
9378,32128
9379,31168
9380,30720
9381,30656
9382,30656
9383,30784
9384,31168
9385,31616
9386,31872
9387,32000
9388,32128
9389,32448
9390,32704
9391,32768
9392,32832
9393,32960
9394,33152
9395,33280
9396,33408
9397,33536
9398,33728
9399,33920
9400,34048
9401,34240
9402,34368
9403,34240
9404,34048
9405,34048
9406,34048
9407,34048
9408,34112
9409,34368
9410,34752
9411,34880
9412,34880
9413,34880
9414,34944
9415,34880
9416,34752
9417,34816
9418,34944
9419,34944
9420,34752
9421,34752
9422,34880
9423,34880
9424,34688
9425,34560
9426,34432
9427,34176
9428,33792
9429,33472
9430,33344
9431,33344
9432,33280
9433,33216
9434,33280
9435,33472
9436,33600
9437,33536
9438,33408
9439,33344
9440,33408
9441,33472
9442,33408
9443,33536
9444,33664
9445,33728
9446,33728
9447,33664
9448,33536
9449,33408
9450,33408
9451,33536
9452,33728
9453,33728
9454,33728
9455,33792
9456,34048
9457,34176
9458,34176
9459,34304
9460,34176
9461,34048
9462,33984
9463,34048
9464,34112
9465,33984
9466,33856
9467,33920
9468,34176
9469,34240
9470,34240
9471,34304
9472,34368
9473,34176
9474,33856
9475,33664
9476,33792
9477,33984
9478,33984
9479,33920
9480,34048
9481,34240
9482,34304
9483,34432
9484,34560
9485,34560
9486,34624
9487,34688
9488,34752
9489,34880
9490,34944
9491,34880
9492,34880
9493,35072
9494,35008
9495,34432
9496,33920
9497,33664
9498,33536
9499,33472
9500,33472
9501,33664
9502,33792
9503,33728
9504,33536
9505,33536
9506,33728
9507,33728
9508,33216
9509,32576
9510,32384
9511,32896
9512,33664
9513,34944
9514,36800
9515,39168
9516,41792
9517,44352
9518,45888
9519,45952
9520,44352
9521,41728
9522,38784
9523,35904
9524,33472
9525,31808
9526,30784
9527,30400
9528,30208
9529,30336
9530,30656
9531,31040
9532,31424
9533,31680
9534,32000
9535,32320
9536,32576
9537,32704
9538,32960
9539,33152
9540,33216
9541,33280
9542,33280
9543,33408
9544,33536
9545,33536
9546,33600
9547,33728
9548,33984
9549,34176
9550,34240
9551,34240
9552,34368
9553,34432
9554,34432
9555,34624
9556,34752
9557,34752
9558,34688
9559,34688
9560,34752
9561,34752
9562,34752
9563,34752
9564,34944
9565,35072
9566,35072
9567,35072
9568,35008
9569,34880
9570,34624
9571,34368
9572,34368
9573,34432
9574,34432
9575,34304
9576,34048
9577,33920
9578,33984
9579,33664
9580,33280
9581,33152
9582,33088
9583,32960
9584,32960
9585,33216
9586,33472
9587,33536
9588,33536
9589,33600
9590,33664
9591,33664
9592,33536
9593,33536
9594,33600
9595,33600
9596,33664
9597,33856
9598,34048
9599,33984
9600,33920
9601,33856
9602,33856
9603,33920
9604,33920
9605,33984
9606,34048
9607,33984
9608,33920
9609,33920
9610,34112
9611,34176
9612,34112
9613,34048
9614,34176
9615,34240
9616,34176
9617,34112
9618,33984
9619,33984
9620,33920
9621,33920
9622,34112
9623,34240
9624,34240
9625,34048
9626,33984
9627,33920
9628,33984
9629,33984
9630,34112
9631,34368
9632,34368
9633,34368
9634,34560
9635,34688
9636,34560
9637,34368
9638,34304
9639,34496
9640,34752
9641,34944
9642,34944
9643,34944
9644,34880
9645,34624
9646,34304
9647,34112
9648,34048
9649,33920
9650,33792
9651,33536
9652,33408
9653,33344
9654,33344
9655,33408
9656,33600
9657,33728
9658,33600
9659,33408
9660,33024
9661,32768
9662,32896
9663,33536
9664,34688
9665,36352
9666,38400
9667,41024
9668,43840
9669,45888
9670,46400
9671,45056
9672,42496
9673,39552
9674,36736
9675,34304
9676,32384
9677,31232
9678,30528
9679,30144
9680,30144
9681,30464
9682,30912
9683,31296
9684,31552
9685,31872
9686,32192
9687,32512
9688,32832
9689,33216
9690,33344
9691,33280
9692,33216
9693,33344
9694,33472
9695,33472
9696,33472
9697,33600
9698,33728
9699,33856
9700,34048
9701,34112
9702,34048
9703,33984
9704,33984
9705,34048
9706,34240
9707,34432
9708,34624
9709,34880
9710,35008
9711,35072
9712,35200
9713,35200
9714,35200
9715,35008
9716,34752
9717,34624
9718,34752
9719,34944
9720,34944
9721,34816
9722,34752
9723,34560
9724,34304
9725,34112
9726,34048
9727,33984
9728,33792
9729,33600
9730,33408
9731,33408
9732,33344
9733,33280
9734,33280
9735,33280
9736,33152
9737,33152
9738,33216
9739,33408
9740,33536
9741,33536
9742,33472
9743,33600
9744,33728
9745,33728
9746,33600
9747,33536
9748,33600
9749,33728
9750,33792
9751,33792
9752,33920
9753,33920
9754,33856
9755,33728
9756,33792
9757,33920
9758,33920
9759,33856
9760,33856
9761,33984
9762,34048
9763,34112
9764,34240
9765,34176
9766,33984
9767,33856
9768,33856
9769,33984
9770,33984
9771,33920
9772,33920
9773,33856
9774,33856
9775,33792
9776,33856
9777,33920
9778,33984
9779,33984
9780,33984
9781,34112
9782,34304
9783,34368
9784,34432
9785,34496
9786,34560
9787,34368
9788,34240
9789,34304
9790,34688
9791,34816
9792,34816
9793,34816
9794,34944
9795,34880
9796,34624
9797,34432
9798,34368
9799,34112
9800,33856
9801,33728
9802,33856
9803,33728
9804,33472
9805,33408
9806,33536
9807,33856
9808,34112
9809,34112
9810,33792
9811,33280
9812,32768
9813,32448
9814,32768
9815,33600
9816,34880
9817,36480
9818,38592
9819,41280
9820,43968
9821,45696
9822,45952
9823,44672
9824,42240
9825,39360
9826,36416
9827,33984
9828,32064
9829,30976
9830,30656
9831,30848
9832,31040
9833,30912
9834,30912
9835,31168
9836,31552
9837,31872
9838,32128
9839,32448
9840,32768
9841,32960
9842,33088
9843,33280
9844,33536
9845,33664
9846,33728
9847,33600
9848,33600
9849,33664
9850,33728
9851,33856
9852,34112
9853,34240
9854,34304
9855,34304
9856,34560
9857,34752
9858,34560
9859,34304
9860,34304
9861,34368
9862,34368
9863,34432
9864,34560
9865,34816
9866,34944
9867,35008
9868,35008
9869,35072
9870,34880
9871,34624
9872,34560
9873,34560
9874,34496
9875,34432
9876,34304
9877,34176
9878,34048
9879,33856
9880,33600
9881,33472
9882,33536
9883,33472
9884,33344
9885,33280
9886,33216
9887,33024
9888,32960
9889,32896
9890,33024
9891,33152
9892,33216
9893,33216
9894,33344
9895,33344
9896,33280
9897,33216
9898,33344
9899,33536
9900,33536
9901,33536
9902,33728
9903,33856
9904,33920
9905,33920
9906,33984
9907,33984
9908,33984
9909,34048
9910,34304
9911,34496
9912,34304
9913,33984
9914,33792
9915,33728
9916,33856
9917,34048
9918,34240
9919,34304
9920,34112
9921,33920
9922,33792
9923,33856
9924,33984
9925,34048
9926,34048
9927,34048
9928,34048
9929,33920
9930,33856
9931,34048
9932,34240
9933,34368
9934,34432
9935,34560
9936,34816
9937,34944
9938,34880
9939,34944
9940,34944
9941,34752
9942,34560
9943,34496
9944,34624
9945,34752
9946,34752
9947,34624
9948,34432
9949,34176
9950,34048
9951,33856
9952,33728
9953,33792
9954,33856
9955,33920
9956,33856
9957,33792
9958,33728
9959,33600
9960,33344
9961,33024
9962,32704
9963,32576
9964,32896
9965,33792
9966,35072
9967,36800
9968,39104
9969,41856
9970,44224
9971,45248
9972,44928
9973,43200
9974,40832
9975,38336
9976,35840
9977,33664
9978,32128
9979,30976
9980,30464
9981,30464
9982,30912
9983,31040
9984,31104
9985,31424
9986,31808
9987,32064
9988,32256
9989,32448
9990,32768
9991,32960
9992,33152
9993,33280
9994,33600
9995,33664
9996,33728
9997,33792
9998,33984
9999,34048
10000,34176
10001,34304
10002,34496
10003,34560
10004,34368
10005,34240
10006,34240
10007,34240
10008,34240
10009,34240
10010,34432
10011,34624
10012,34688
10013,34880
10014,35072
10015,35264
10016,35328
10017,35264
10018,35136
10019,35200
10020,35200
10021,34944
10022,34688
10023,34624
10024,34624
10025,34560
10026,34496
10027,34304
10028,34112
10029,33856
10030,33664
10031,33600
10032,33664
10033,33536
10034,33216
10035,33024
10036,33088
10037,33088
10038,33088
10039,33216
10040,33408
10041,33536
10042,33408
10043,33344
10044,33408
10045,33472
10046,33472
10047,33600
10048,33664
10049,33792
10050,33856
10051,33920
10052,34048
10053,34176
10054,34048
10055,33856
10056,33920
10057,34112
10058,34112
10059,33856
10060,33792
10061,33856
10062,33920
10063,34048
10064,34112
10065,34240
10066,34176
10067,34112
10068,34048
10069,34240
10070,34304
10071,34240
10072,34048
10073,33984
10074,33984
10075,33856
10076,33792
10077,33920
10078,34048
10079,34048
10080,34048
10081,34112
10082,34240
10083,34240
10084,34240
10085,34304
10086,34432
10087,34368
10088,34240
10089,34240
10090,34368
10091,34496
10092,34624
10093,34816
10094,34944
10095,34944
10096,34944
10097,34880
10098,34752
10099,34624
10100,34496
10101,34368
10102,34304
10103,34240
10104,33984
10105,33728
10106,33536
10107,33472
10108,33408
10109,33344
10110,33536
10111,33728
10112,33792
10113,33600
10114,33344
10115,33152
10116,33024
10117,33088
10118,33600
10119,34624
10120,36096
10121,37952
10122,40384
10123,43264
10124,45440
10125,46080
10126,44736
10127,42432
10128,39680
10129,36928
10130,34368
10131,32320
10132,31168
10133,30592
10134,30336
10135,30400
10136,30720
10137,31104
10138,31360
10139,31744
10140,32192
10141,32512
10142,32704
10143,32896
10144,33408
10145,33472
10146,33408
10147,33408
10148,33472
10149,33600
10150,33536
10151,33536
10152,33536
10153,33664
10154,33792
10155,33920
10156,34048
10157,34240
10158,34368
10159,34240
10160,34240
10161,34304
10162,34432
10163,34496
10164,34624
10165,34752
10166,34816
10167,34944
10168,35072
10169,35136
10170,35136
10171,35200
10172,35136
10173,35008
10174,34816
10175,34688
10176,34560
10177,34496
10178,34368
10179,34112
10180,33792
10181,33792
10182,33856
10183,33792
10184,33664
10185,33536
10186,33408
10187,33344
10188,33280
10189,33216
10190,33408
10191,33536
10192,33408
10193,33280
10194,33216
10195,33216
10196,33280
10197,33280
10198,33280
10199,33280
10200,33344
10201,33472
10202,33600
10203,33728
10204,33792
10205,33792
10206,33792
10207,33856
10208,33792
10209,33664
10210,33728
10211,33984
10212,34176
10213,34112
10214,34048
10215,34112
10216,34240
10217,34304
10218,34368
10219,34176
10220,33984
10221,33920
10222,33920
10223,33920
10224,33856
10225,33792
10226,33664
10227,33728
10228,33856
10229,33920
10230,33856
10231,33920
10232,34048
10233,34112
10234,33984
10235,33920
10236,34112
10237,34176
10238,34048
10239,33920
10240,34176
10241,34496
10242,34368
10243,34304
10244,34304
10245,34368
10246,34304
10247,34304
10248,34496
10249,34688
10250,34752
10251,34688
10252,34752
10253,34880
10254,34944
10255,34880
10256,34944
10257,34880
10258,34368
10259,33792
10260,33472
10261,33408
10262,33408
10263,33408
10264,33472
10265,33664
10266,33792
10267,33728
10268,33600
10269,33408
10270,33216
10271,32896
10272,32768
10273,33088
10274,33920
10275,35328
10276,37120
10277,39488
10278,42432
10279,44928
10280,46080
10281,45696
10282,43904
10283,41216
10284,38272
10285,35520
10286,33280
10287,31616
10288,30720
10289,30336
10290,30336
10291,30592
10292,30784
10293,31104
10294,31872
10295,32128
10296,32320
10297,32448
10298,32704
10299,33024
10300,33216
10301,33216
10302,33152
10303,33280
10304,33472
10305,33536
10306,33536
10307,33664
10308,33728
10309,33792
10310,33920
10311,34304
10312,34368
10313,34112
10314,33984
10315,34048
10316,34176
10317,34304
10318,34496
10319,34816
10320,34880
10321,34880
10322,34816
10323,34944
10324,35008
10325,34944
10326,34880
10327,35072
10328,35072
10329,34944
10330,34752
10331,34560
10332,34560
10333,34560
10334,34432
10335,34304
10336,34176
10337,33984
10338,33728
10339,33664
10340,33664
10341,33600
10342,33536
10343,33408
10344,33280
10345,33344
10346,33280
10347,33152
10348,33152
10349,33280
10350,33216
10351,33216
10352,33344
10353,33600
10354,33856
10355,33920
10356,33728
10357,33536
10358,33408
10359,33408
10360,33472
10361,33536
10362,33600
10363,33728
10364,33792
10365,33856
10366,33984
10367,33984
10368,33984
10369,34176
10370,34112
10371,34048
10372,33984
10373,34112
10374,34240
10375,34112
10376,34112
10377,34240
10378,34176
10379,33984
10380,33856
10381,33792
10382,33856
10383,33920
10384,33792
10385,33600
10386,33728
10387,33856
10388,33920
10389,33920
10390,33984
10391,34112
10392,34176
10393,34240
10394,34240
10395,34176
10396,34240
10397,34432
10398,34496
10399,34240
10400,34176
10401,34048
10402,34112
10403,34304
10404,34496
10405,34496
10406,34624
10407,34752
10408,34752
10409,34816
10410,34944
10411,34944
10412,34816
10413,34560
10414,34112
10415,33984
10416,33920
10417,33792
10418,33600
10419,33600
10420,33664
10421,33600
10422,33600
10423,33664
10424,33792
10425,33856
10426,33728
10427,33472
10428,33152
10429,33088
10430,33344
10431,34176
10432,35648
10433,37568
10434,39872
10435,42624
10436,44864
10437,45824
10438,45056
10439,42816
10440,40320
10441,37504
10442,34944
10443,32768
10444,30976
10445,30656
10446,30400
10447,30464
10448,30784
10449,31168
10450,31552
10451,31872
10452,32128
10453,32320
10454,32448
10455,32576
10456,32768
10457,33088
10458,33216
10459,33216
10460,33280
10461,33408
10462,33472
10463,33600
10464,33664
10465,33728
10466,33920
10467,33920
10468,33856
10469,33856
10470,33920
10471,34048
10472,34176
10473,34304
10474,34688
10475,34816
10476,34752
10477,34560
10478,34560
10479,34560
10480,34496
10481,34560
10482,34752
10483,34816
10484,34880
10485,34880
10486,34944
10487,35072
10488,34944
10489,34752
10490,34624
10491,34496
10492,34304
10493,34048
10494,33920
10495,33792
10496,33600
10497,33600
10498,33600
10499,33408
10500,33152
10501,32960
10502,32896
10503,32896
10504,32896
10505,32832
10506,32832
10507,33024
10508,33280
10509,33344
10510,33344
10511,33408
10512,33600
10513,33664
10514,33472
10515,33600
10516,33792
10517,33920
10518,33792
10519,33664
10520,33664
10521,33728
10522,33728
10523,33856
10524,34048
10525,34176
10526,33984
10527,33792
10528,33856
10529,33856
10530,33728
10531,33664
10532,33792
10533,33984
10534,34240
10535,34368
10536,34304
10537,34112
10538,33984
10539,33984
10540,33984
10541,33920
10542,33792
10543,33664
10544,33728
10545,33856
10546,33920
10547,33856
10548,33920
10549,34112
10550,34112
10551,34112
10552,34112
10553,34240
10554,34432
10555,34496
10556,34560
10557,34688
10558,34944
10559,34880
10560,34752
10561,34688
10562,34752
10563,34752
10564,34752
10565,34688
10566,34496
10567,34176
10568,33792
10569,33472
10570,33408
10571,33472
10572,33536
10573,33536
10574,33472
10575,33472
10576,33536
10577,33600
10578,33664
10579,33472
10580,33024
10581,32832
10582,33088
10583,33856
10584,35008
10585,36736
10586,38976
10587,41792
10588,44160
10589,45376
10590,45184
10591,43520
10592,41024
10593,38272
10594,35648
10595,33280
10596,31808
10597,30848
10598,30528
10599,30656
10600,30848
10601,31040
10602,31424
10603,31744
10604,32064
10605,32192
10606,32384
10607,32640
10608,32896
10609,33088
10610,33216
10611,33344
10612,33536
10613,33472
10614,33536
10615,33728
10616,33920
10617,33920
10618,33920
10619,33856
10620,34048
10621,34304
10622,34432
10623,34304
10624,34304
10625,34432
10626,34432
10627,34304
10628,34432
10629,34624
10630,34752
10631,34816
10632,35008
10633,35136
10634,35008
10635,34944
10636,35072
10637,35200
10638,35072
10639,34752
10640,34688
10641,34688
10642,34560
10643,34176
10644,33984
10645,33984
10646,34048
10647,33920
10648,33664
10649,33664
10650,33536
10651,33344
10652,33216
10653,33280
10654,33408
10655,33408
10656,33344
10657,33472
10658,33536
10659,33280
10660,33152
10661,33472
10662,33664
10663,33536
10664,33344
10665,33280
10666,33408
10667,33408
10668,33472
10669,33600
10670,33792
10671,34048
10672,33984
10673,33856
10674,33920
10675,33920
10676,33792
10677,33792
10678,33984
10679,34048
10680,34048
10681,34048
10682,34176
10683,34176
10684,33984
10685,33792
10686,33856
10687,34048
10688,33984
10689,33856
10690,33856
10691,33920
10692,33920
10693,33984
10694,34176
10695,34304
10696,34176
10697,33920
10698,33792
10699,33856
10700,33984
10701,33984
10702,33920
10703,33856
10704,33920
10705,33984
10706,34048
10707,34240
10708,34432
10709,34560
10710,34624
10711,34624
10712,34752
10713,34880
10714,34816
10715,34752
10716,34816
10717,34816
10718,34752
10719,34816
10720,35008
10721,35008
10722,34496
10723,33920
10724,33536
10725,33344
10726,33088
10727,33024
10728,33216
10729,33344
10730,33408
10731,33472
10732,33472
10733,33408
10734,33152
10735,32896
10736,33088
10737,33728
10738,34752
10739,36288
10740,38336
10741,40960
10742,43712
10743,45568
10744,46080
10745,44928
10746,42432
10747,39360
10748,36672
10749,34240
10750,32320
10751,30976
10752,30208
10753,30016
10754,30208
10755,30464
10756,30912
10757,31552
10758,32128
10759,32384
10760,32448
10761,32576
10762,32768
10763,32960
10764,33152
10765,33280
10766,33472
10767,33536
10768,33600
10769,33664
10770,33664
10771,33792
10772,33856
10773,33856
10774,33856
10775,33984
10776,34048
10777,34112
10778,34176
10779,34240
10780,34176
10781,34240
10782,34432
10783,34688
10784,34752
10785,34752
10786,34880
10787,35136
10788,35200
10789,35264
10790,35264
10791,35264
10792,35136
10793,35008
10794,34944
10795,34944
10796,34752
10797,34624
10798,34560
10799,34496
10800,34176
10801,33792
10802,33536
10803,33536
10804,33472
10805,33280
10806,33152
10807,33216
10808,33216
10809,33152
10810,33024
10811,33024
10812,33088
10813,33280
10814,33280
10815,33792
10816,33728
10817,33664
10818,33600
10819,33472
10820,33472
10821,33344
10822,33344
10823,33472
10824,33600
10825,33792
10826,33984
10827,34176
10828,34304
10829,34176
10830,33984
10831,33856
10832,33856
10833,33856
10834,33856
10835,34048
10836,34048
10837,34048
10838,34112
10839,34240
10840,34240
10841,34112
10842,33792
10843,33600
10844,33728
10845,33792
10846,33728
10847,33792
10848,33920
10849,33984
10850,34048
10851,34048
10852,34048
10853,34048
10854,33920
10855,33856
10856,33856
10857,33920
10858,33984
10859,34176
10860,34240
10861,34304
10862,34368
10863,34368
10864,34496
10865,34688
10866,34752
10867,34624
10868,34560
10869,34560
10870,34752
10871,34816
10872,34752
10873,34752
10874,34816
10875,34816
10876,34560
10877,34304
10878,34048
10879,33664
10880,33344
10881,33344
10882,33408
10883,33344
10884,33344
10885,33472
10886,33664
10887,33728
10888,33600
10889,33344
10890,33088
10891,32960
10892,33152
10893,33856
10894,35200
10895,36992
10896,39232
10897,42048
10898,44672
10899,46144
10900,46016
10901,44224
10902,41536
10903,38784
10904,36224
10905,33920
10906,32064
10907,30784
10908,30208
10909,30016
10910,30208
10911,30528
10912,30848
10913,31104
10914,31488
10915,32000
10916,32384
10917,32640
10918,32768
10919,32960
10920,33152
10921,33344
10922,33280
10923,33664
10924,33600
