,ECG
0,47232
1,44416
2,41024
3,37632
4,34624
5,32256
6,30720
7,30016
8,29760
9,29760
10,29952
11,30144
12,30400
13,30656
14,30912
15,31232
16,31616
17,31872
18,32064
19,32256
20,32640
21,32896
22,32832
23,32896
24,33088
25,33280
26,33280
27,33344
28,33536
29,33728
30,33856
31,33984
32,34176
33,34432
34,34624
35,34880
36,34944
37,35072
38,35136
39,35200
40,35264
41,35392
42,35392
43,35328
44,35264
45,35200
46,35264
47,35200
48,35200
49,35328
50,35264
51,35008
52,34752
53,34560
54,34368
55,34048
56,33728
57,33344
58,33152
59,32896
60,32832
61,32768
62,32832
63,32832
64,32704
65,32704
66,32832
67,32960
68,33088
69,33280
70,33408
71,33408
72,33344
73,33472
74,33536
75,33600
76,33664
77,33664
78,33664
79,33792
80,33856
81,33920
82,33920
83,33984
84,33920
85,33920
86,34048
87,34176
88,34176
89,34176
90,34240
91,34304
92,34368
93,34432
94,34496
95,34432
96,34240
97,34176
98,34304
99,34304
100,34112
101,33920
102,33920
103,34048
104,34176
105,34176
106,34112
107,34176
108,34240
109,34176
110,34176
111,34368
112,34560
113,34432
114,34368
115,34560
116,34752
117,34688
118,34624
119,34624
120,34624
121,34752
122,34880
123,35072
124,35264
125,35200
126,35072
127,34944
128,34880
129,34816
130,34688
131,34496
132,34368
133,34240
134,33920
135,33664
136,33600
137,33536
138,33600
139,33472
140,33472
141,33600
142,33600
143,33408
144,33088
145,32832
146,33088
147,33856
148,35264
149,37888
150,38144
151,42624
152,45760
153,47936
154,48448
155,47040
156,44288
157,40896
158,37312
159,34496
160,32192
161,30720
162,30016
163,29824
164,29888
165,30080
166,30464
167,30720
168,30912
169,31040
170,31232
171,31552
172,31808
173,32000
174,32256
175,32512
176,32640
177,32768
178,32960
179,33088
180,33152
181,33280
182,33536
183,33728
184,33920
185,34176
186,34496
187,34560
188,34368
189,34304
190,34496
191,34880
192,35072
193,35136
194,35264
195,35200
196,35328
197,35264
198,35328
199,35328
200,35392
201,35392
202,35392
203,35392
204,35328
205,35136
206,35008
207,34880
208,34688
209,34368
210,34240
211,33856
212,33728
213,33536
214,33344
215,33280
216,33088
217,32896
218,32832
219,32832
220,32896
221,33024
222,33024
223,33024
224,33024
225,33024
226,33088
227,33216
228,33344
229,33664
230,33920
231,33792
232,33600
233,33600
234,33664
235,33664
236,33728
237,33856
238,33920
239,34048
240,34176
241,34176
242,34112
243,34112
244,34112
245,34176
246,34176
247,34048
248,34048
249,34176
250,34240
251,34240
252,34240
253,34176
254,34176
255,34112
256,34112
257,34176
258,34240
259,34240
260,34112
261,34112
262,34112
263,33984
264,34048
265,34240
266,34368
267,34304
268,34240
269,34432
270,34368
271,34752
272,34816
273,34816
274,34880
275,34944
276,35072
277,35200
278,35264
279,35072
280,34880
281,34752
282,34752
283,34688
284,34368
285,34112
286,34048
287,34112
288,33920
289,33536
290,33408
291,33472
292,33472
293,33408
294,33408
295,33536
296,33536
297,33280
298,32832
299,32960
300,33536
301,34688
302,36288
303,38528
304,41408
305,44672
306,47168
307,48192
308,47360
309,44992
310,41728
311,38336
312,35264
313,32768
314,31104
315,30208
316,29952
317,29888
318,29952
319,30208
320,30592
321,30976
322,31232
323,31360
324,31424
325,31616
326,31744
327,32064
328,32384
329,32768
330,32704
331,32960
332,33088
333,33280
334,33472
335,33664
336,33856
337,33984
338,33984
339,33920
340,33984
341,34240
342,34432
343,34496
344,34688
345,34880
346,35072
347,35136
348,35264
349,35392
350,35520
351,35456
352,35520
353,35584
354,35584
355,35456
356,35392
357,35392
358,35264
359,35136
360,35072
361,34688
362,34368
363,34112
364,33792
365,33472
366,33344
367,33152
368,33024
369,33024
370,33024
371,33088
372,33088
373,33024
374,33024
375,33088
376,33088
377,33088
378,33152
379,33216
380,33280
381,33344
382,33600
383,33856
384,34048
385,34048
386,33856
387,33728
388,33600
389,33600
390,33664
391,33792
392,33856
393,33920
394,33984
395,34112
396,34112
397,34048
398,34112
399,34240
400,34304
401,34240
402,34176
403,34176
404,34304
405,34240
406,34304
407,34304
408,34368
409,34304
410,34304
411,34304
412,34304
413,34304
414,34304
415,34304
416,34304
417,34240
418,34304
419,34432
420,34496
421,34560
422,34624
423,34688
424,34816
425,34752
426,34816
427,34880
428,35008
429,35072
430,35072
431,35072
432,35008
433,34816
434,34368
435,34112
436,33856
437,33792
438,33728
439,33536
440,33536
441,33728
442,33728
443,33600
444,33600
445,33664
446,33472
447,32896
448,32640
449,32960
450,33856
451,35200
452,36928
453,39296
454,42432
455,45696
456,47744
457,48256
458,46848
459,44096
460,40576
461,37248
462,34432
463,32320
464,30528
465,30400
466,29824
467,29824
468,29888
469,30144
470,30464
471,30848
472,31168
473,31552
474,31872
475,31936
476,32000
477,32128
478,32384
479,32704
480,32640
481,32960
482,33216
483,33472
484,33664
485,33792
486,33856
487,33920
488,33984
489,34112
490,34240
491,34496
492,34688
493,34816
494,34944
495,35072
496,35200
497,35392
498,35520
499,35648
500,35648
501,35520
502,35392
503,35392
504,35392
505,35392
506,35200
507,35072
508,34944
509,34880
510,34752
511,34624
512,34432
513,34240
514,33984
515,33792
516,33600
517,33472
518,33280
519,33152
520,33216
521,33344
522,33280
523,33152
524,33216
525,33152
526,33088
527,33024
528,33152
529,33280
530,33344
531,33344
532,33472
533,33664
534,33792
535,33856
536,33856
537,33920
538,33984
539,34048
540,34112
541,34176
542,34240
543,34176
544,34112
545,34112
546,34112
547,34112
548,34048
549,34112
550,34176
551,34176
552,34176
553,34240
554,34304
555,34368
556,34304
557,34368
558,34432
559,34432
560,34240
561,34176
562,34432
563,34624
564,34496
565,34304
566,34368
567,34496
568,34432
569,34560
570,34496
571,34688
572,34624
573,34560
574,34752
575,34944
576,35200
577,35200
578,35200
579,35200
580,35072
581,34816
582,34560
583,34304
584,33856
585,33664
586,33600
587,33728
588,33728
589,33600
590,33600
591,33664
592,33728
593,33536
594,33280
595,32960
596,32896
597,33280
598,34176
599,35648
600,37504
601,40000
602,43200
603,46400
604,48256
605,48192
606,46208
607,43264
608,39808
609,36736
610,33920
611,31808
612,30528
613,29952
614,29696
615,29760
616,30080
617,30400
618,30656
619,30912
620,31296
621,31616
622,31808
623,32064
624,32320
625,32512
626,32512
627,32576
628,32768
629,33152
630,33152
631,33344
632,33600
633,33920
634,34176
635,34240
636,34176
637,34176
638,34240
639,34304
640,34496
641,34624
642,34752
643,34816
644,34944
645,35008
646,35200
647,35264
648,35328
649,35520
650,35584
651,35584
652,35584
653,35456
654,35200
655,34880
656,34752
657,34624
658,34624
659,34432
660,34176
661,33984
662,33792
663,33664
664,33472
665,33344
666,33280
667,33344
668,33344
669,33216
670,32960
671,32896
672,32896
673,32896
674,33024
675,33088
676,33216
677,33344
678,33344
679,33344
680,33408
681,33408
682,33472
683,33664
684,33856
685,33984
686,34048
687,34176
688,34240
689,34176
690,34112
691,34176
692,34240
693,34112
694,33984
695,34048
696,34240
697,34240
698,34048
699,33984
700,34112
701,34176
702,34112
703,34240
704,34368
705,34368
706,34240
707,34048
708,34048
709,34112
710,34240
711,34368
712,34496
713,34624
714,34688
715,34624
716,34688
717,34752
718,34688
719,34944
720,35136
721,35328
722,35136
723,34880
724,34752
725,34752
726,34688
727,34432
728,34176
729,34112
730,33984
731,33664
732,33536
733,33600
734,33728
735,33728
736,33600
737,33536
738,33472
739,33344
740,33024
741,32832
742,32960
743,33472
744,34496
745,36160
746,38400
747,41216
748,44480
749,47104
750,48320
751,47744
752,45376
753,42176
754,38784
755,35712
756,33152
757,31360
758,30400
759,29952
760,29824
761,29952
762,30208
763,30464
764,30656
765,30976
766,31296
767,31552
768,31808
769,32256
770,32704
771,32832
772,32640
773,32576
774,32768
775,33088
776,33280
777,33408
778,33536
779,33792
780,33984
781,34048
782,34176
783,34368
784,34432
785,34368
786,34432
787,34688
788,34880
789,34944
790,34944
791,35072
792,35264
793,35392
794,35456
795,35520
796,35520
797,35392
798,35200
799,35200
800,35136
801,34944
802,34752
803,34752
804,34688
805,34432
806,34112
807,33856
808,33664
809,33472
810,33280
811,33152
812,33152
813,33152
814,33088
815,33088
816,33152
817,33280
818,33408
819,33408
820,33408
821,33408
822,33408
823,33344
824,33472
825,33728
826,33792
827,33792
828,33920
829,33984
830,33920
831,33792
832,33728
833,33856
834,33920
835,33984
836,33984
837,34112
838,34176
839,34176
840,34176
841,34304
842,34432
843,34304
844,34176
845,34112
846,34176
847,34240
848,34304
849,34496
850,34496
851,34432
852,34304
853,34240
854,34304
855,34240
856,34240
857,34304
858,34368
859,34432
860,34432
861,34496
862,34688
863,34816
864,34880
865,34880
866,34944
867,35008
868,34944
869,34880
870,34880
871,34688
872,34368
873,34176
874,34048
875,33856
876,33728
877,33600
878,33472
879,33472
880,33472
881,33536
882,33536
883,33408
884,33152
885,32768
886,32640
887,33152
888,34112
889,35712
890,37760
891,40384
892,43712
893,46720
894,48192
895,47872
896,45888
897,42816
898,39424
899,36224
900,33536
901,31616
902,30464
903,29888
904,29824
905,29952
906,30144
907,30400
908,30656
909,30912
910,31104
911,31296
912,31552
913,31872
914,32128
915,32320
916,32512
917,32768
918,32960
919,33152
920,33280
921,33536
922,33792
923,33792
924,33856
925,34176
926,34432
927,34496
928,34432
929,34432
930,34496
931,34560
932,34624
933,34752
934,34880
935,35072
936,35136
937,35264
938,35456
939,35584
940,35520
941,35520
942,35392
943,35264
944,35072
945,34944
946,34816
947,34624
948,34432
949,34240
950,34176
951,34048
952,33856
953,33728
954,33600
955,33408
956,33152
957,33152
958,33344
959,33408
960,33152
961,32960
962,32960
963,33152
964,33152
965,33088
966,33216
967,33408
968,33472
969,33472
970,33536
971,33728
972,33920
973,34048
974,34176
975,34240
976,34240
977,34048
978,33920
979,33856
980,33856
981,33856
982,33920
983,34176
984,34432
985,34368
986,34304
987,34304
988,34240
989,34176
990,34112
991,34112
992,34112
993,34048
994,34048
995,34112
996,34240
997,34304
998,34304
999,34432
1000,34496
1001,34560
1002,34688
1003,34816
1004,34944
1005,34944
1006,34688
1007,34560
1008,34624
1009,34880
1010,35072
1011,35136
1012,35072
1013,35072
1014,34880
1015,34688
1016,34560
1017,34432
1018,34176
1019,33920
1020,33792
1021,33792
1022,33728
1023,33408
1024,33280
1025,33408
1026,33408
1027,33344
1028,33408
1029,33536
1030,33344
1031,33152
1032,33472
1033,34496
1034,36032
1035,38144
1036,40832
1037,44160
1038,46976
1039,48128
1040,47424
1041,45120
1042,41984
1043,38528
1044,35328
1045,32832
1046,31296
1047,30400
1048,29952
1049,29824
1050,29952
1051,30144
1052,30208
1053,30400
1054,30720
1055,31104
1056,31424
1057,31744
1058,32128
1059,32448
1060,32640
1061,32768
1062,33024
1063,33280
1064,33344
1065,33344
1066,33344
1067,33472
1068,33536
1069,33536
1070,33856
1071,34176
1072,34368
1073,34496
1074,34560
1075,34688
1076,34816
1077,34944
1078,35008
1079,35008
1080,35008
1081,35072
1082,35136
1083,35328
1084,35392
1085,35328
1086,35200
1087,35136
1088,35200
1089,35136
1090,35008
1091,34944
1092,34944
1093,34688
1094,34368
1095,34176
1096,34176
1097,34112
1098,33856
1099,33472
1100,33216
1101,33088
1102,32960
1103,33024
1104,33216
1105,33280
1106,33152
1107,33024
1108,33024
1109,33024
1110,32960
1111,33088
1112,33344
1113,33536
1114,33600
1115,33600
1116,33728
1117,33856
1118,33920
1119,33920
1120,33920
1121,34048
1122,34112
1123,34048
1124,33984
1125,33984
1126,34048
1127,34112
1128,34176
1129,34240
1130,34240
1131,34176
1132,34240
1133,34368
1134,34496
1135,34432
1136,34176
1137,34048
1138,34176
1139,34240
1140,34176
1141,34112
1142,34176
1143,34240
1144,34240
1145,34368
1146,34496
1147,34496
1148,34624
1149,34816
1150,34880
1151,34944
1152,34816
1153,34624
1154,34496
1155,34560
1156,34752
1157,34880
1158,34944
1159,35072
1160,35200
1161,35008
1162,34560
1163,34176
1164,33792
1165,33664
1166,33728
1167,33792
1168,33728
1169,33600
1170,33472
1171,33536
1172,33728
1173,33920
1174,33792
1175,33408
1176,32896
1177,32640
1178,32960
1179,33920
1180,35520
1181,37504
1182,40064
1183,43264
1184,46336
1185,47936
1186,47872
1187,46080
1188,43200
1189,39808
1190,36544
1191,33792
1192,31872
1193,30784
1194,30144
1195,30016
1196,30016
1197,30016
1198,30144
1199,30400
1200,30784
1201,31168
1202,31424
1203,31680
1204,32000
1205,32256
1206,32448
1207,32576
1208,32832
1209,33024
1210,33152
1211,33216
1212,33408
1213,33600
1214,33728
1215,33792
1216,33984
1217,34240
1218,34432
1219,34496
1220,34496
1221,34624
1222,34752
1223,34816
1224,34944
1225,35136
1226,35200
1227,35264
1228,35328
1229,35456
1230,35648
1231,35776
1232,35584
1233,35392
1234,35200
1235,35008
1236,34880
1237,34816
1238,34752
1239,34624
1240,34432
1241,34176
1242,33984
1243,33792
1244,33664
1245,33600
1246,33472
1247,33344
1248,33216
1249,33216
1250,33216
1251,33088
1252,32896
1253,32832
1254,32960
1255,33152
1256,33216
1257,33216
1258,33344
1259,33472
1260,33536
1261,33472
1262,33536
1263,33792
1264,33920
1265,34048
1266,34176
1267,34240
1268,34240
1269,34112
1270,34176
1271,34304
1272,34304
1273,34176
1274,34176
1275,34368
1276,34560
1277,34560
1278,34432
1279,34368
1280,34304
1281,34176
1282,34112
1283,34112
1284,34240
1285,34240
1286,34112
1287,34176
1288,34304
1289,34368
1290,34432
1291,34624
1292,34816
1293,34816
1294,34752
1295,34816
1296,34944
1297,34944
1298,34816
1299,34880
1300,35072
1301,35136
1302,35008
1303,34816
1304,34688
1305,34560
1306,34304
1307,33984
1308,33792
1309,33728
1310,33600
1311,33472
1312,33472
1313,33536
1314,33536
1315,33536
1316,33600
1317,33728
1318,33472
1319,32896
1320,32640
1321,33024
1322,33984
1323,35456
1324,37440
1325,39872
1326,42944
1327,46016
1328,47680
1329,47808
1330,46144
1331,43328
1332,40000
1333,36800
1334,34048
1335,32000
1336,30656
1337,29952
1338,29760
1339,29824
1340,30080
1341,30400
1342,30720
1343,30912
1344,31104
1345,31296
1346,31616
1347,31936
1348,32192
1349,32448
1350,32640
1351,32896
1352,33024
1353,33024
1354,33152
1355,33408
1356,33536
1357,33600
1358,33728
1359,33984
1360,34176
1361,34240
1362,34304
1363,34496
1364,34688
1365,34752
1366,34816
1367,34944
1368,35136
1369,35264
1370,35264
1371,35392
1372,35520
1373,35520
1374,35328
1375,35264
1376,35264
1377,35200
1378,35072
1379,35008
1380,34816
1381,34624
1382,34368
1383,34176
1384,34048
1385,33920
1386,33728
1387,33536
1388,33536
1389,33408
1390,33344
1391,33280
1392,33344
1393,33280
1394,33088
1395,32896
1396,32960
1397,33152
1398,33344
1399,33472
1400,33472
1401,33472
1402,33472
1403,33408
1404,33408
1405,33536
1406,33600
1407,33728
1408,33920
1409,34112
1410,34112
1411,34048
1412,34176
1413,34368
1414,34432
1415,34304
1416,34112
1417,34112
1418,34176
1419,34112
1420,34048
1421,34112
1422,34240
1423,34240
1424,34176
1425,34176
1426,34240
1427,34240
1428,34240
1429,34240
1430,34368
1431,34432
1432,34432
1433,34560
1434,34624
1435,34688
1436,34624
1437,34496
1438,34496
1439,34496
1440,34496
1441,34496
1442,34624
1443,34880
1444,35136
1445,35200
1446,35072
1447,34944
1448,34880
1449,34816
1450,34752
1451,34624
1452,34368
1453,34048
1454,33856
1455,33792
1456,33728
1457,33664
1458,33664
1459,33728
1460,33792
1461,33856
1462,33856
1463,33856
1464,33600
1465,33152
1466,32896
1467,33088
1468,33984
1469,35264
1470,36928
1471,39168
1472,42176
1473,45504
1474,47744
1475,48256
1476,46848
1477,44096
1478,40704
1479,37184
1480,34624
1481,32384
1482,30912
1483,30144
1484,29888
1485,29888
1486,30080
1487,30464
1488,30784
1489,31040
1490,31168
1491,31360
1492,31744
1493,32000
1494,32192
1495,32256
1496,32448
1497,32704
1498,32896
1499,33088
1500,33280
1501,33472
1502,33600
1503,33664
1504,33856
1505,34112
1506,34304
1507,34368
1508,34496
1509,34688
1510,34752
1511,34752
1512,34816
1513,34944
1514,35072
1515,35264
1516,35456
1517,35584
1518,35520
1519,35456
1520,35456
1521,35392
1522,35328
1523,35136
1524,35072
1525,35008
1526,34944
1527,34816
1528,34688
1529,34432
1530,34368
1531,34176
1532,33920
1533,33664
1534,33536
1535,33472
1536,33280
1537,33280
1538,33344
1539,33344
1540,33216
1541,33088
1542,33088
1543,33152
1544,33152
1545,33088
1546,33216
1547,33344
1548,33408
1549,33344
1550,33280
1551,33472
1552,33600
1553,33728
1554,33856
1555,34048
1556,34176
1557,34048
1558,33920
1559,33984
1560,34112
1561,34176
1562,34240
1563,34304
1564,34368
1565,34304
1566,34240
1567,34240
1568,34304
1569,34368
1570,34304
1571,34304
1572,34368
1573,34432
1574,34496
1575,34496
1576,34368
1577,34240
1578,34240
1579,34240
1580,34368
1581,34304
1582,34240
1583,34368
1584,34752
1585,34816
1586,34880
1587,34880
1588,34816
1589,34752
1590,34688
1591,34624
1592,34752
1593,34752
1594,34816
1595,34880
1596,34944
1597,34944
1598,34880
1599,34688
1600,34560
1601,34304
1602,33920
1603,33728
1604,33664
1605,33664
1606,33664
1607,33792
1608,33920
1609,33984
1610,33728
1611,33472
1612,33152
1613,32832
1614,32704
1615,33152
1616,34240
1617,35712
1618,37568
1619,40320
1620,40384
1621,46400
1622,48000
1623,47808
1624,46016
1625,43136
1626,39872
1627,36608
1628,33856
1629,31872
1630,30720
1631,30080
1632,29888
1633,29952
1634,30208
1635,30464
1636,30720
1637,31168
1638,31424
1639,31552
1640,31744
1641,32000
1642,32192
1643,32256
1644,32384
1645,32704
1646,32960
1647,33088
1648,33216
1649,33408
1650,33728
1651,33920
1652,33984
1653,34048
1654,34240
1655,34304
1656,34304
1657,34304
1658,34560
1659,34752
1660,34816
1661,34944
1662,35072
1663,35392
1664,35520
1665,35520
1666,35584
1667,35648
1668,35520
1669,35264
1670,35328
1671,35392
1672,35328
1673,35200
1674,35072
1675,34880
1676,34624
1677,34304
1678,33984
1679,33856
1680,33728
1681,33600
1682,33472
1683,33472
1684,33344
1685,33216
1686,33152
1687,33152
1688,33088
1689,33024
1690,33024
1691,32960
1692,33088
1693,33152
1694,33216
1695,33280
1696,33408
1697,33472
1698,33472
1699,33664
1700,33920
1701,34112
1702,34112
1703,34048
1704,33920
1705,33920
1706,33920
1707,34048
1708,34240
1709,34368
1710,34368
1711,34432
1712,34560
1713,34560
1714,34368
1715,34240
1716,34240
1717,34304
1718,34240
1719,34176
1720,34304
1721,34368
1722,34368
1723,34304
1724,34368
1725,34560
1726,34624
1727,34368
1728,34112
1729,34112
1730,34240
1731,34176
1732,34304
1733,34368
1734,34240
1735,33984
1736,33920
1737,34048
1738,34240
1739,34304
1740,34368
1741,34560
1742,34880
1743,35200
1744,35200
1745,34944
1746,34752
1747,34688
1748,34752
1749,34944
1750,35136
1751,35136
1752,35072
1753,35072
1754,34880
1755,34752
1756,34240
1757,34048
1758,34048
1759,33984
1760,33920
1761,33920
1762,33984
1763,34176
1764,34176
1765,33984
1766,33664
1767,33472
1768,33216
1769,32832
1770,32896
1771,33664
1772,34880
1773,36672
1774,39104
1775,42112
1776,45376
1777,47424
1778,47808
1779,46656
1780,44224
1781,40960
1782,37632
1783,34816
1784,32640
1785,31104
1786,30144
1787,29888
1788,29888
1789,30016
1790,30144
1791,30400
1792,30912
1793,31296
1794,31424
1795,31680
1796,32064
1797,32256
1798,32256
1799,32320
1800,32576
1801,32896
1802,33152
1803,33344
1804,33536
1805,33664
1806,33728
1807,33728
1808,33920
1809,34048
1810,34176
1811,34304
1812,34560
1813,34688
1814,34752
1815,34752
1816,35072
1817,35264
1818,35392
1819,35456
1820,35392
1821,35520
1822,35648
1823,35584
1824,35520
1825,35584
1826,35584
1827,35392
1828,35136
1829,35008
1830,34944
1831,34752
1832,34560
1833,34368
1834,34240
1835,34048
1836,33728
1837,33408
1838,33088
1839,32960
1840,32960
1841,32960
1842,33088
1843,33152
1844,33024
1845,33088
1846,33088
1847,33088
1848,33088
1849,33152
1850,33344
1851,33536
1852,33600
1853,33664
1854,33728
1855,33792
1856,33664
1857,33600
1858,33728
1859,33920
1860,34048
1861,34048
1862,34048
1863,34112
1864,34112
1865,34176
1866,34240
1867,34304
1868,34304
1869,34176
1870,34112
1871,34176
1872,34304
1873,34368
1874,34432
1875,34432
1876,34432
1877,34368
1878,34368
1879,34368
1880,34368
1881,34304
1882,34240
1883,34240
1884,34304
1885,34176
1886,34112
1887,34176
1888,34368
1889,34496
1890,34432
1891,34496
1892,34560
1893,34560
1894,34496
1895,34560
1896,34624
1897,34752
1898,34816
1899,34880
1900,35072
1901,35200
1902,35136
1903,35072
1904,35008
1905,34880
1906,34688
1907,34432
1908,34304
1909,34176
1910,33984
1911,33728
1912,33536
1913,33536
1914,33600
1915,33600
1916,33600
1917,33600
1918,33472
1919,33216
1920,32832
1921,32768
1922,33280
1923,34240
1924,35648
1925,37760
1926,40576
1927,43840
1928,46720
1929,48128
1930,47808
1931,45824
1932,42752
1933,39360
1934,36224
1935,33664
1936,31744
1937,30464
1938,29888
1939,29760
1940,29824
1941,30016
1942,30336
1943,30656
1944,30912
1945,31232
1946,31552
1947,31936
1948,32128
1949,32256
1950,32448
1951,32768
1952,32832
1953,32960
1954,33152
1955,33472
1956,33664
1957,33664
1958,33728
1959,33920
1960,33984
1961,34048
1962,34176
1963,34432
1964,34624
1965,34624
1966,34752
1967,34944
1968,35136
1969,35200
1970,35264
1971,35328
1972,35520
1973,35712
1974,35776
1975,35776
1976,35840
1977,35712
1978,35520
1979,35328
1980,35200
1981,35008
1982,34752
1983,34496
1984,34304
1985,34112
1986,33856
1987,33664
1988,33536
1989,33408
1990,33152
1991,33024
1992,33024
1993,33024
1994,32896
1995,32896
1996,32960
1997,33024
1998,33152
1999,33152
2000,33152
2001,33152
2002,33280
2003,33280
2004,33344
2005,33536
2006,33600
2007,33600
2008,33600
2009,33728
2010,33792
2011,33728
2012,33728
2013,33920
2014,34048
2015,34176
2016,34240
2017,34304
2018,34368
2019,34368
2020,34496
2021,34560
2022,34624
2023,34560
2024,34432
2025,34304
2026,34240
2027,34112
2028,34112
2029,34304
2030,34368
2031,34304
2032,34240
2033,34240
2034,34304
2035,34304
2036,34176
2037,34176
2038,34240
2039,34304
2040,34304
2041,34304
2042,34368
2043,34432
2044,34368
2045,34368
2046,34432
2047,34496
2048,34496
2049,34624
2050,34752
2051,34944
2052,34944
2053,34880
2054,34880
2055,35008
2056,35136
2057,35072
2058,35008
2059,35072
2060,35008
2061,34752
2062,34368
2063,34176
2064,33984
2065,33920
2066,33792
2067,33728
2068,33600
2069,33472
2070,33472
2071,33536
2072,33664
2073,33664
2074,33408
2075,33088
2076,33088
2077,33472
2078,34432
2079,35712
2080,37696
2081,40192
2082,43392
2083,46464
2084,48128
2085,47872
2086,46016
2087,43072
2088,39808
2089,36608
2090,33856
2091,31872
2092,30656
2093,30016
2094,29760
2095,29824
2096,30016
2097,30336
2098,30656
2099,30848
2100,31168
2101,31552
2102,31872
2103,32064
2104,32256
2105,32448
2106,32640
2107,32832
2108,32960
2109,33216
2110,33472
2111,33600
2112,33600
2113,33728
2114,33792
2115,33792
2116,33920
2117,34112
2118,34368
2119,34560
2120,34816
2121,35008
2122,35136
2123,35200
2124,35328
2125,35392
2126,35584
2127,35648
2128,35584
2129,35456
2130,35520
2131,35648
2132,35584
2133,35520
2134,35456
2135,35328
2136,35072
2137,34880
2138,34816
2139,34688
2140,34432
2141,34176
2142,33920
2143,33664
2144,33408
2145,33344
2146,33216
2147,33088
2148,32960
2149,32832
2150,32896
2151,33088
2152,33024
2153,32896
2154,32832
2155,33024
2156,33216
2157,33280
2158,33280
2159,33408
2160,33472
2161,33536
2162,33536
2163,33728
2164,33984
2165,34112
2166,33984
2167,33856
2168,33856
2169,33856
2170,33856
2171,33920
2172,34048
2173,34048
2174,34048
2175,34304
2176,34496
2177,34496
2178,34368
2179,34304
2180,34368
2181,34368
2182,34304
2183,34432
2184,34432
2185,34368
2186,34368
2187,34432
2188,34432
2189,34432
2190,34304
2191,34240
2192,34240
2193,34240
2194,34240
2195,34240
2196,34240
2197,34304
2198,34304
2199,34176
2200,34176
2201,34304
2202,34304
2203,34240
2204,34176
2205,34240
2206,34304
2207,34240
2208,34176
2209,34240
2210,34368
2211,34368
2212,34304
2213,34304
2214,34368
2215,34432
2216,34432
2217,34496
2218,34624
2219,34816
2220,35008
2221,35072
2222,34944
2223,34944
2224,35008
2225,35136
2226,35328
2227,35200
2228,35008
2229,34816
2230,34688
2231,34496
2232,34304
2233,34112
2234,33984
2235,33856
2236,33728
2237,33664
2238,33728
2239,33728
2240,33600
2241,33536
2242,33536
2243,33472
2244,33216
2245,32960
2246,33088
2247,33856
2248,35008
2249,36544
2250,38592
2251,41408
2252,44672
2253,47232
2254,48320
2255,47424
2256,45120
2257,41856
2258,38208
2259,35328
2260,32832
2261,31232
2262,30336
2263,29952
2264,29888
2265,29888
2266,30016
2267,30336
2268,30720
2269,31104
2270,31296
2271,31552
2272,31808
2273,32064
2274,32256
2275,32512
2276,32896
2277,33088
2278,33088
2279,33216
2280,33408
2281,33600
2282,33536
2283,33664
2284,33920
2285,34112
2286,34240
2287,34368
2288,34560
2289,34624
2290,34624
2291,34560
2292,34688
2293,34880
2294,35136
2295,35264
2296,35520
2297,35712
2298,35648
2299,35584
2300,35648
2301,35776
2302,35712
2303,35648
2304,35584
2305,35520
2306,35264
2307,34944
2308,34560
2309,34496
2310,34432
2311,34048
2312,33728
2313,33600
2314,33408
2315,33152
2316,32832
2317,32704
2318,32704
2319,32768
2320,32768
2321,32832
2322,32960
2323,33152
2324,33216
2325,33152
2326,33152
2327,33216
2328,33216
2329,33216
2330,33472
2331,33792
2332,33920
2333,33920
2334,33856
2335,33728
2336,33600
2337,33600
2338,33792
2339,33984
2340,33984
2341,34176
2342,34240
2343,34304
2344,34240
2345,34240
2346,34240
2347,34240
2348,34368
2349,34496
2350,34496
2351,34432
2352,34304
2353,34176
2354,34112
2355,34176
2356,34304
2357,34432
2358,34368
2359,34240
2360,34240
2361,34112
2362,34048
2363,34048
2364,34112
2365,34176
2366,34176
2367,34176
2368,34240
2369,34432
2370,34496
2371,34496
2372,34560
2373,34432
2374,34176
2375,34048
2376,34176
2377,34368
2378,34496
2379,34560
2380,34688
2381,34752
2382,34752
2383,34688
2384,34816
2385,34880
2386,34944
2387,35072
2388,35200
2389,35200
2390,35072
2391,34944
2392,34880
2393,34688
2394,34368
2395,34112
2396,33920
2397,33792
2398,33664
2399,33536
2400,33536
2401,33664
2402,33792
2403,33792
2404,33664
2405,33600
2406,33344
2407,32960
2408,32960
2409,33472
2410,34432
2411,35904
2412,37888
2413,40576
2414,45440
2415,46912
2416,48192
2417,47808
2418,45760
2419,42752
2420,39296
2421,36032
2422,33408
2423,31552
2424,30400
2425,29888
2426,29888
2427,30080
2428,30400
2429,30784
2430,30912
2431,31040
2432,31232
2433,31552
2434,31936
2435,32256
2436,32320
2437,32384
2438,32576
2439,32768
2440,33024
2441,33152
2442,33408
2443,33664
2444,33920
2445,33984
2446,33984
2447,34112
2448,34304
2449,34368
2450,34432
2451,34624
2452,34816
2453,34880
2454,34944
2455,35200
2456,35456
2457,35456
2458,35456
2459,35648
2460,35776
2461,35776
2462,35712
2463,35648
2464,35712
2465,35712
2466,35648
2467,35584
2468,35520
2469,35200
2470,34816
2471,34432
2472,34240
2473,34048
2474,33792
2475,33536
2476,33472
2477,33408
2478,33216
2479,32960
2480,32832
2481,32896
2482,32768
2483,32832
2484,32960
2485,33024
2486,32896
2487,32896
2488,32896
2489,33152
2490,33216
2491,33280
2492,33472
2493,33728
2494,33984
2495,33984
2496,33856
2497,33728
2498,33664
2499,33664
2500,33728
2501,33856
2502,33984
2503,34048
2504,34176
2505,34240
2506,34304
2507,34240
2508,34048
2509,33984
2510,34112
2511,34304
2512,34368
2513,34496
2514,34624
2515,34432
2516,34176
2517,34176
2518,34304
2519,34304
2520,34176
2521,34048
2522,34176
2523,34304
2524,34240
2525,34176
2526,34176
2527,34240
2528,34240
2529,34304
2530,34368
2531,34368
2532,34176
2533,34048
2534,34048
2535,34240
2536,34496
2537,34624
2538,34688
2539,34752
2540,34752
2541,34688
2542,34752
2543,34880
2544,35072
2545,35136
2546,35200
2547,35264
2548,35264
2549,35136
2550,34944
2551,34688
2552,34368
2553,34048
2554,33856
2555,33728
2556,33728
2557,33600
2558,33472
2559,33536
2560,33664
2561,33792
2562,33664
2563,33472
2564,33152
2565,32960
2566,32960
2567,33344
2568,34368
2569,35968
2570,38080
2571,40704
2572,43904
2573,46784
2574,48128
2575,47808
2576,45824
2577,42880
2578,39616
2579,35072
2580,33664
2581,31808
2582,30592
2583,29952
2584,29696
2585,29696
2586,29888
2587,30016
2588,30272
2589,30720
2590,31168
2591,31488
2592,31744
2593,32128
2594,32448
2595,32640
2596,32832
2597,33152
2598,33408
2599,33472
2600,33472
2601,33408
2602,33472
2603,33600
2604,33856
2605,34048
2606,34240
2607,34432
2608,34560
2609,34816
2610,34944
2611,35136
2612,35072
2613,35072
2614,35264
2615,35520
2616,35712
2617,35776
2618,35904
2619,36032
2620,35968
2621,35904
2622,35904
2623,35840
2624,35712
2625,35456
2626,35136
2627,34944
2628,34752
2629,34496
2630,34304
2631,34112
2632,33856
2633,33600
2634,33408
2635,33344
2636,33216
2637,33088
2638,32960
2639,32832
2640,32768
2641,32768
2642,32768
2643,32896
2644,33024
2645,33024
2646,33088
2647,33152
2648,33216
2649,33280
2650,33472
2651,33664
2652,33792
2653,33664
2654,33536
2655,33600
2656,33728
2657,33856
2658,33856
2659,34048
2660,34240
2661,34240
2662,34112
2663,34176
2664,34304
2665,34304
2666,34240
2667,34304
2668,34368
2669,34368
2670,34304
2671,34112
2672,34112
2673,34112
2674,34176
2675,34112
2676,34176
2677,34304
2678,34368
2679,34304
2680,34240
2681,34240
2682,34176
2683,34112
2684,34240
2685,34304
2686,34368
2687,34368
2688,34240
2689,34240
2690,34240
2691,34112
2692,34112
2693,34304
2694,34496
2695,34496
2696,34496
2697,34688
2698,34880
2699,34944
2700,34944
2701,34944
2702,35072
2703,35200
2704,35136
2705,35072
2706,35072
2707,35072
2708,34944
2709,34560
2710,34240
2711,33984
2712,33728
2713,33472
2714,33536
2715,33600
2716,33600
2717,33664
2718,33728
2719,33792
2720,33664
2721,33408
2722,33024
2723,32896
2724,33152
2725,33920
2726,35136
2727,36928
2728,39296
2729,42368
2730,45760
2731,48000
2732,48512
2733,47168
2734,44288
2735,40832
2736,37504
2737,34560
2738,32320
2739,30848
2740,30208
2741,29952
2742,29824
2743,29952
2744,30272
2745,30528
2746,30720
2747,31168
2748,31488
2749,31680
2750,31872
2751,32128
2752,32448
2753,32640
2754,32768
2755,32960
2756,33152
2757,33216
2758,33216
2759,33344
2760,33600
2761,33792
2762,33856
2763,33920
2764,34176
2765,34496
2766,34688
2767,34752
2768,34816
2769,34880
2770,34944
2771,35072
2772,35200
2773,35456
2774,35520
2775,35520
2776,35584
2777,35648
2778,35776
2779,35776
2780,35648
2781,35584
2782,35456
2783,35328
2784,35136
2785,35136
2786,34944
2787,34496
2788,34048
2789,33792
2790,33600
2791,33408
2792,33216
2793,33088
2794,33088
2795,33024
2796,33024
2797,33152
2798,33280
2799,33088
2800,32896
2801,32832
2802,32896
2803,33024
2804,33152
2805,33280
2806,33408
2807,33472
2808,33472
2809,33472
2810,33600
2811,33664
2812,33728
2813,33728
2814,33856
2815,33920
2816,33984
2817,33984
2818,34048
2819,34240
2820,34304
2821,34240
2822,34112
2823,34112
2824,34048
2825,34048
2826,34176
2827,34304
2828,34368
2829,34176
2830,34112
2831,34240
2832,34368
2833,34432
2834,34432
2835,34368
2836,34304
2837,34240
2838,34304
2839,34368
2840,34304
2841,34112
2842,33920
2843,33984
2844,34240
2845,34304
2846,34240
2847,34304
2848,34432
2849,34560
2850,34624
2851,34752
2852,34880
2853,34816
2854,34752
2855,34752
2856,34944
2857,35136
2858,35200
2859,35200
2860,35200
2861,35072
2862,34880
2863,34624
2864,34368
2865,34240
2866,34176
2867,33984
2868,33728
2869,33600
2870,33472
2871,33408
2872,33472
2873,33664
2874,33728
2875,33600
2876,33216
2877,32832
2878,32768
2879,33280
2880,34304
2881,35904
2882,38080
2883,40832
2884,44160
2885,47232
2886,48512
2887,47936
2888,45632
2889,42432
2890,39296
2891,36160
2892,33536
2893,31680
2894,30656
2895,30080
2896,29760
2897,29824
2898,30080
2899,30336
2900,30528
2901,30784
2902,31232
2903,31552
2904,31744
2905,31936
2906,32256
2907,32512
2908,32576
2909,32768
2910,32960
2911,33152
2912,33280
2913,33408
2914,33536
2915,33792
2916,34112
2917,34176
2918,34304
2919,34240
2920,34240
2921,34432
2922,34688
2923,34880
2924,35072
2925,35136
2926,35264
2927,35456
2928,35648
2929,35712
2930,35648
2931,35712
2932,35648
2933,35648
2934,35648
2935,35712
2936,35648
2937,35520
2938,35328
2939,35008
2940,34752
2941,34432
2942,34112
2943,33856
2944,33664
2945,33472
2946,33280
2947,33152
2948,33152
2949,32960
2950,32832
2951,32832
2952,32896
2953,32896
2954,32768
2955,32768
2956,32896
2957,33088
2958,33152
2959,33152
2960,33216
2961,33408
2962,33536
2963,33536
2964,33600
2965,33600
2966,33664
2967,33728
2968,33792
2969,33856
2970,33856
2971,33856
2972,33984
2973,34112
2974,34176
2975,34176
2976,34240
2977,34240
2978,34304
2979,34112
2980,34048
2981,34176
2982,34368
2983,34368
2984,34304
2985,34240
2986,34304
2987,34240
2988,34304
2989,34432
2990,34368
2991,34240
2992,34048
2993,34112
2994,34304
2995,34432
2996,34368
2997,34240
2998,34240
2999,34240
3000,34304
3001,34432
3002,34496
3003,34368
3004,34176
3005,33984
3006,33920
3007,33984
3008,34048
3009,34048
3010,34176
3011,34304
3012,34496
3013,34496
3014,34496
3015,34624
3016,34688
3017,34816
3018,34944
3019,35200
3020,35264
3021,35136
3022,35136
3023,35072
3024,35008
3025,34880
3026,34688
3027,34624
3028,34496
3029,34304
3030,34112
3031,33984
3032,33856
3033,33664
3034,33472
3035,33344
3036,33408
3037,33408
3038,33408
3039,33536
3040,33472
3041,33152
3042,32832
3043,33088
3044,33920
3045,35200
3046,36992
3047,39424
3048,42624
3049,46016
3050,48064
3051,48384
3052,47040
3053,44288
3054,40704
3055,37440
3056,34432
3057,32128
3058,30720
3059,29952
3060,29824
3061,29824
3062,29888
3063,30080
3064,30336
3065,30720
3066,30976
3067,31168
3068,31424
3069,31808
3070,32064
3071,32256
3072,32384
3073,32704
3074,33088
3075,33344
3076,33344
3077,33472
3078,33664
3079,33728
3080,33792
3081,34048
3082,34112
3083,34048
3084,34048
3085,34176
3086,34496
3087,34688
3088,34752
3089,34880
3090,35072
3091,35200
3092,35328
3093,35584
3094,35840
3095,35968
3096,35840
3097,35776
3098,35776
3099,35904
3100,35840
3101,35648
3102,35456
3103,35200
3104,34880
3105,34560
3106,34432
3107,34304
3108,34176
3109,33920
3110,33664
3111,33472
3112,33280
3113,33024
3114,32896
3115,32896
3116,33024
3117,33024
3118,32832
3119,32704
3120,32704
3121,32768
3122,32960
3123,33152
3124,33280
3125,33280
3126,33280
3127,33472
3128,33536
3129,33536
3130,33536
3131,33664
3132,33792
3133,33920
3134,34048
3135,34112
3136,34048
3137,33984
3138,33984
3139,34048
3140,34048
3141,34048
3142,33984
3143,33984
3144,34112
3145,34112
3146,34112
3147,34048
3148,34048
3149,34240
3150,34368
3151,34368
3152,34368
3153,34432
3154,34368
3155,34240
3156,34176
3157,34112
3158,34048
3159,34048
3160,34112
3161,34176
3162,34240
3163,34112
3164,34112
3165,34112
3166,34112
3167,33984
3168,33920
3169,34048
3170,34240
3171,34240
3172,34176
3173,34240
3174,34368
3175,34368
3176,34304
3177,34304
3178,34560
3179,34688
3180,34624
3181,34624
3182,34752
3183,34816
3184,34816
3185,34816
3186,34816
3187,34944
3188,34944
3189,35072
3190,35264
3191,35200
3192,35008
3193,34816
3194,34688
3195,34432
3196,34176
3197,33984
3198,33792
3199,33600
3200,33600
3201,33664
3202,33728
3203,33792
3204,33664
3205,33472
3206,33344
3207,33024
3208,32832
3209,32896
3210,33600
3211,34816
3212,36608
3213,38656
3214,41472
3215,44864
3216,47616
3217,48640
3218,47680
3219,45056
3220,41856
3221,38528
3222,35456
3223,32896
3224,31104
3225,30080
3226,29568
3227,29504
3228,29632
3229,29952
3230,30208
3231,30528
3232,30976
3233,31296
3234,31488
3235,31680
3236,32064
3237,32384
3238,32640
3239,32832
3240,33024
3241,33152
3242,33216
3243,33344
3244,33600
3245,33792
3246,33792
3247,33728
3248,33728
3249,33984
3250,34176
3251,34304
3252,34496
3253,34624
3254,34752
3255,34816
3256,34944
3257,35136
3258,35328
3259,35584
3260,35712
3261,35776
3262,35840
3263,35712
3264,35648
3265,35648
3266,35712
3267,35712
3268,35840
3269,35648
3270,35200
3271,34752
3272,34432
3273,34240
3274,34048
3275,33792
3276,33472
3277,33280
3278,33216
3279,33088
3280,33024
3281,33024
3282,33088
3283,33024
3284,32832
3285,32768
3286,32832
3287,33024
3288,33216
3289,33152
3290,33024
3291,32960
3292,32960
3293,33024
3294,33152
3295,33280
3296,33344
3297,33344
3298,33344
3299,33536
3300,33728
3301,33856
3302,33984
3303,34112
3304,34176
3305,34048
3306,34112
3307,34240
3308,34368
3309,34304
3310,34304
3311,34368
3312,34240
3313,34048
3314,33920
3315,33984
3316,34112
3317,34176
3318,34176
3319,34112
3320,34112
3321,33984
3322,33984
3323,34112
3324,34240
3325,34240
3326,34176
3327,34176
3328,34240
3329,34176
3330,34112
3331,34048
3332,34176
3333,34304
3334,34368
3335,34432
3336,34560
3337,34688
3338,34560
3339,34496
3340,34624
3341,34816
3342,34880
3343,34944
3344,35008
3345,35072
3346,35072
3347,34944
3348,34880
3349,34816
3350,34560
3351,34176
3352,33856
3353,33728
3354,33664
3355,33600
3356,33536
3357,33600
3358,33664
3359,33728
3360,33600
3361,33472
3362,33216
3363,32768
3364,32576
3365,32960
3366,33856
3367,35072
3368,36864
3369,39360
3370,42240
3371,45632
3372,47872
3373,48448
3374,47232
3375,44416
3376,41088
3377,37760
3378,34944
3379,32576
3380,30912
3381,30016
3382,29760
3383,29760
3384,29952
3385,30080
3386,30400
3387,30784
3388,31040
3389,31296
3390,31680
3391,32128
3392,32384
3393,32512
3394,32576
3395,32768
3396,32832
3397,32896
3398,33216
3399,33472
3400,33664
3401,33728
3402,33856
3403,34048
3404,34048
3405,34112
3406,34304
3407,34624
3408,34752
3409,34944
3410,35136
3411,35264
3412,35264
3413,35456
3414,35392
3415,35712
3416,35712
3417,35584
3418,35520
3419,35520
3420,35584
3421,35520
3422,35392
3423,35392
3424,35264
3425,35008
3426,34688
3427,34560
3428,34368
3429,34048
3430,33792
3431,33536
3432,33344
3433,33088
3434,32896
3435,32832
3436,32768
3437,32640
3438,32576
3439,32704
3440,32960
3441,32960
3442,33024
3443,33280
3444,33216
3445,33216
3446,33088
3447,33088
3448,33216
3449,33344
3450,33408
3451,33600
3452,33792
3453,33856
3454,33856
3455,33856
3456,33984
3457,34112
3458,34048
3459,33984
3460,34048
3461,34048
3462,34112
3463,34176
3464,34240
3465,34176
3466,34304
3467,34176
3468,34176
3469,34304
3470,34304
3471,34240
3472,34240
3473,34368
3474,34368
3475,34432
3476,34304
3477,34176
3478,34048
3479,34048
3480,33984
3481,33984
3482,34112
3483,34176
3484,34240
3485,34240
3486,34240
3487,34176
3488,34048
3489,34176
3490,34432
3491,34560
3492,34496
3493,34560
3494,34688
3495,34816
3496,34816
3497,34816
3498,34816
3499,34880
3500,35008
3501,35072
3502,35136
3503,35072
3504,35008
3505,34688
3506,34624
3507,34432
3508,34176
3509,33856
3510,33600
3511,33600
3512,33600
3513,33600
3514,33664
3515,33664
3516,33600
3517,33472
3518,33344
3519,33216
3520,32896
3521,32896
3522,33408
3523,34560
3524,36096
3525,38208
3526,40832
3527,44096
3528,47040
3529,48320
3530,47872
3531,45760
3532,42688
3533,39296
3534,36032
3535,33344
3536,31488
3537,30400
3538,29888
3539,29760
3540,29760
3541,29952
3542,30208
3543,30528
3544,30976
3545,31296
3546,31552
3547,31808
3548,32128
3549,32320
3550,32320
3551,32448
3552,32832
3553,33024
3554,32960
3555,33024
3556,33280
3557,33536
3558,33856
3559,34048
3560,34176
3561,34304
3562,34240
3563,34112
3564,34176
3565,34368
3566,34688
3567,34816
3568,34944
3569,35136
3570,35264
3571,35328
3572,35520
3573,35712
3574,35904
3575,35968
3576,35840
3577,35648
3578,35648
3579,35520
3580,35328
3581,35264
3582,35200
3583,35008
3584,34688
3585,34432
3586,34176
3587,33920
3588,33664
3589,33344
3590,33152
3591,33024
3592,32896
3593,32832
3594,32832
3595,32832
3596,32768
3597,32704
3598,32832
3599,32896
3600,32896
3601,32960
3602,33152
3603,33344
3604,33344
3605,33408
3606,33536
3607,33664
3608,33664
3609,33536
3610,33472
3611,33600
3612,33728
3613,33728
3614,33728
3615,33920
3616,34176
3617,34176
3618,34176
3619,34240
3620,34176
3621,34176
3622,34176
3623,34240
3624,34304
3625,34304
3626,34240
3627,34304
3628,34368
3629,34304
3630,34240
3631,34176
3632,34176
3633,34176
3634,34176
3635,34112
3636,34176
3637,34240
3638,34176
3639,34176
3640,34240
3641,34368
3642,34432
3643,34560
3644,34816
3645,35008
3646,34880
3647,34624
3648,34496
3649,34496
3650,34560
3651,34688
3652,34816
3653,34944
3654,34944
3655,35008
3656,34944
3657,34688
3658,34304
3659,33984
3660,33792
3661,33728
3662,33664
3663,33600
3664,33600
3665,33728
3666,33792
3667,33664
3668,33472
3669,33408
3670,33280
3671,33024
3672,32896
3673,33216
3674,34112
3675,35328
3676,37120
3677,39680
3678,42944
3679,46144
3680,48064
3681,48320
3682,46848
3683,44096
3684,40640
3685,37248
3686,34304
3687,32064
3688,30656
3689,29952
3690,29824
3691,30016
3692,30208
3693,30464
3694,30720
3695,30976
3696,31168
3697,31296
3698,31424
3699,31744
3700,32000
3701,32256
3702,32576
3703,32832
3704,33024
3705,33152
3706,33344
3707,33600
3708,33728
3709,33856
3710,33920
3711,33920
3712,33984
3713,33984
3714,34112
3715,34304
3716,34496
3717,34688
3718,34816
3719,34944
3720,35136
3721,35328
3722,35456
3723,35648
3724,35840
3725,35840
3726,35648
3727,35648
3728,35648
3729,35648
3730,35584
3731,35456
3732,35264
3733,35136
3734,34944
3735,34688
3736,34496
3737,34176
3738,33792
3739,33472
3740,33344
3741,33216
3742,33088
3743,32896
3744,32768
3745,32832
3746,32896
3747,32832
3748,32896
3749,32960
3750,32896
3751,32960
3752,33152
3753,33280
3754,33280
3755,33280
3756,33344
3757,33536
3758,33600
3759,33600
3760,33664
3761,33792
3762,33792
3763,33856
3764,33856
3765,33984
3766,34048
3767,34048
3768,33984
3769,34048
3770,34240
3771,34368
3772,34368
3773,34432
3774,34432
3775,34304
3776,34112
3777,34112
3778,34240
3779,34304
3780,34240
3781,34240
3782,34304
3783,34304
3784,34176
3785,34112
3786,34176
3787,34240
3788,34176
3789,34240
3790,34368
3791,34304
3792,34112
3793,34048
3794,34048
3795,34048
3796,34112
3797,34240
3798,34432
3799,34560
3800,34688
3801,34752
3802,34816
3803,34944
3804,34944
3805,34944
3806,35200
3807,35200
3808,35136
3809,35008
3810,34944
3811,34816
3812,34560
3813,34240
3814,33984
3815,33856
3816,33792
3817,33792
3818,33664
3819,33600
3820,33600
3821,33536
3822,33536
3823,33600
3824,33536
3825,33280
3826,32832
3827,32640
3828,33088
3829,33920
3830,35200
3831,37184
3832,39744
3833,43008
3834,46208
3835,48128
3836,48320
3837,46720
3838,43840
3839,40192
3840,37312
3841,34432
3842,32064
3843,30592
3844,29952
3845,29696
3846,29632
3847,29696
3848,30016
3849,30400
3850,30784
3851,31168
3852,31552
3853,31872
3854,32192
3855,32384
3856,32512
3857,32640
3858,32768
3859,32832
3860,32960
3861,33216
3862,33408
3863,33472
3864,33664
3865,33856
3866,34048
3867,34112
3868,34304
3869,34432
3870,34560
3871,34688
3872,34816
3873,34880
3874,35008
3875,35072
3876,35136
3877,35328
3878,35648
3879,35776
3880,35840
3881,35904
3882,35968
3883,35776
3884,35456
3885,35328
3886,35328
3887,35328
3888,35136
3889,34880
3890,34624
3891,34368
3892,34176
3893,33984
3894,33856
3895,33664
3896,33408
3897,33152
3898,32960
3899,32896
3900,32832
3901,32768
3902,32768
3903,32896
3904,33024
3905,33088
3906,33088
3907,33088
3908,33088
3909,33088
3910,33216
3911,33344
3912,33408
3913,33408
3914,33472
3915,33664
3916,33792
3917,33792
3918,33728
3919,33920
3920,34112
3921,34112
3922,34048
3923,34048
3924,34048
3925,34048
3926,34048
3927,34112
3928,34240
3929,34240
3930,34176
3931,34176
3932,34240
3933,34304
3934,34368
3935,34368
3936,34432
3937,34368
3938,34304
3939,34112
3940,34112
3941,34112
3942,34176
3943,34176
3944,34240
3945,34304
3946,34304
3947,34304
3948,34432
3949,34560
3950,34688
3951,34816
3952,34944
3953,34944
3954,34944
3955,34816
3956,34816
3957,35008
3958,35072
3959,35008
3960,34944
3961,34880
3962,34752
3963,34496
3964,34176
3965,34048
3966,33920
3967,33792
3968,33728
3969,33792
3970,33856
3971,33792
3972,33792
3973,33728
3974,33792
3975,33728
3976,33408
3977,32960
3978,32896
3979,33280
3980,34176
3981,35584
3982,37568
3983,40192
3984,43456
3985,46528
3986,48192
3987,48192
3988,46272
3989,43072
3990,40000
3991,36864
3992,34048
3993,31808
3994,30400
3995,29824
3996,29696
3997,29824
3998,30080
3999,30400
4000,30528
4001,30656
4002,30912
4003,31424
4004,31744
4005,31936
4006,32064
4007,32320
4008,32640
4009,32768
4010,32960
4011,33216
4012,33408
4013,33600
4014,33664
4015,33600
4016,33728
4017,33920
4018,34048
4019,34368
4020,34560
4021,34560
4022,34496
4023,34496
4024,34688
4025,34944
4026,35072
4027,35200
4028,35392
4029,35520
4030,35648
4031,35712
4032,35712
4033,35584
4034,35520
4035,35456
4036,35456
4037,35456
4038,35328
4039,35072
4040,34816
4041,34560
4042,34240
4043,33856
4044,33664
4045,33536
4046,33408
4047,33152
4048,33024
4049,33088
4050,33024
4051,32896
4052,32832
4053,32832
4054,32768
4055,32768
4056,32832
4057,32960
4058,33280
4059,33344
4060,33216
4061,33216
4062,33344
4063,33408
4064,33408
4065,33536
4066,33664
4067,33856
4068,33856
4069,33856
4070,33920
4071,33920
4072,33920
4073,33920
4074,34048
4075,34112
4076,34048
4077,34048
4078,34240
4079,34560
4080,34496
4081,34432
4082,34432
4083,34432
4084,34368
4085,34304
4086,34240
4087,34240
4088,34240
4089,34112
4090,34048
4091,33984
4092,33984
4093,33984
4094,33984
4095,34112
4096,34304
4097,34368
4098,34432
4099,34560
4100,34560
4101,34560
4102,34560
4103,34560
4104,34624
4105,34688
4106,34752
4107,34816
4108,34880
4109,34880
4110,34880
4111,35008
4112,35072
4113,35008
4114,34880
4115,34752
4116,34624
4117,34368
4118,34048
4119,33920
4120,33920
4121,33856
4122,33600
4123,33472
4124,33536
4125,33536
4126,33664
4127,33728
4128,33664
4129,33408
4130,32960
4131,32896
4132,33344
4133,34496
4134,36160
4135,38272
4136,41024
4137,44480
4138,47296
4139,48448
4140,47744
4141,45568
4142,42496
4143,39040
4144,35840
4145,33152
4146,31232
4147,30144
4148,29632
4149,29632
4150,29824
4151,30144
4152,30528
4153,30848
4154,31168
4155,31296
4156,31424
4157,31680
4158,32000
4159,32256
4160,32384
4161,32512
4162,32768
4163,33024
4164,33216
4165,33344
4166,33536
4167,33664
4168,33728
4169,33856
4170,34048
4171,34240
4172,34304
4173,34368
4174,34624
4175,34752
4176,34816
4177,34944
4178,35200
4179,35392
4180,35456
4181,35456
4182,35584
4183,35648
4184,35776
4185,35776
4186,35776
4187,35776
4188,35712
4189,35648
4190,35392
4191,35072
4192,34816
4193,34560
4194,34496
4195,34432
4196,34240
4197,33920
4198,33600
4199,33344
4200,33216
4201,33024
4202,32960
4203,32896
4204,32768
4205,32768
4206,32896
4207,32960
4208,32960
4209,32896
4210,32896
4211,32960
4212,33088
4213,33216
4214,33344
4215,33472
4216,33664
4217,33792
4218,33792
4219,33664
4220,33664
4221,33728
4222,33792
4223,33856
4224,34048
4225,34176
4226,34176
4227,34112
4228,34048
4229,33984
4230,33984
4231,33984
4232,34048
4233,34176
4234,34240
4235,34240
4236,34304
4237,34304
4238,34304
4239,34368
4240,34304
4241,34368
4242,34368
4243,34304
4244,34176
4245,34048
4246,33984
4247,33920
4248,33984
4249,34112
4250,34176
4251,34112
4252,34176
4253,34304
4254,34560
4255,34688
4256,34688
4257,34688
4258,34816
4259,34880
4260,34816
4261,34944
4262,35072
4263,35008
4264,34816
4265,34688
4266,34624
4267,34560
4268,34368
4269,34176
4270,33984
4271,33792
4272,33600
4273,33600
4274,33792
4275,33920
4276,33728
4277,33600
4278,33600
4279,33664
4280,33600
4281,33216
4282,32896
4283,32896
4284,33408
4285,34432
4286,35904
4287,37952
4288,40512
4289,44800
4290,46592
4291,48064
4292,47872
4293,45888
4294,42880
4295,39552
4296,36352
4297,33600
4298,31616
4299,30400
4300,29952
4301,29760
4302,29824
4303,30080
4304,30336
4305,30464
4306,30656
4307,30976
4308,31424
4309,31680
4310,31872
4311,32192
4312,32640
4313,32896
4314,32960
4315,33024
4316,33152
4317,33280
4318,33344
4319,33472
4320,33728
4321,33920
4322,33984
4323,33984
4324,34048
4325,34176
4326,34368
4327,34496
4328,34688
4329,34880
4330,35008
4331,35200
4332,35456
4333,35584
4334,35584
4335,35520
4336,35648
4337,35712
4338,35648
4339,35456
4340,35264
4341,35200
4342,35200
4343,35072
4344,34944
4345,34880
4346,34688
4347,34368
4348,34048
4349,33664
4350,33536
4351,33408
4352,33344
4353,33344
4354,33408
4355,33280
4356,33024
4357,32832
4358,32768
4359,32640
4360,32704
4361,32768
4362,32960
4363,33088
4364,33088
4365,33088
4366,33152
4367,33344
4368,33472
4369,33536
4370,33664
4371,33792
4372,33856
4373,33856
4374,34048
4375,34240
4376,34240
4377,34112
4378,34048
4379,34176
4380,34176
4381,34112
4382,34112
4383,34176
4384,34176
4385,34176
4386,34240
4387,34304
4388,34240
4389,34048
4390,34048
4391,34240
4392,34240
4393,34112
4394,34048
4395,34112
4396,34176
4397,34112
4398,33984
4399,34048
4400,34112
4401,34112
4402,34112
4403,34112
4404,34304
4405,34432
4406,34496
4407,34560
4408,34752
4409,34816
4410,34816
4411,34816
4412,34880
4413,34816
4414,34752
4415,34816
4416,34944
4417,35008
4418,35008
4419,34944
4420,34880
4421,34752
4422,34432
4423,34048
4424,33792
4425,33792
4426,33664
4427,33600
4428,33664
4429,33728
4430,33600
4431,33536
4432,33536
4433,33472
4434,33280
4435,32896
4436,32704
4437,33088
4438,34048
4439,35456
4440,37504
4441,40128
4442,43328
4443,46464
4444,48128
4445,48128
4446,46400
4447,43520
4448,40192
4449,36800
4450,34240
4451,32064
4452,30656
4453,29952
4454,29824
4455,29760
4456,29760
4457,29952
4458,30336
4459,30720
4460,31040
4461,31424
4462,31680
4463,31808
4464,31936
4465,32128
4466,32384
4467,32640
4468,32960
4469,33216
4470,33472
4471,33664
4472,33792
4473,33856
4474,33856
4475,33920
4476,33984
4477,34048
4478,34240
4479,34432
4480,34560
4481,34560
4482,34752
4483,35136
4484,35456
4485,35392
4486,35392
4487,35520
4488,35648
4489,35648
4490,35584
4491,35648
4492,35648
4493,35648
4494,35520
4495,35328
4496,35136
4497,34944
4498,34752
4499,34496
4500,34432
4501,34176
4502,33920
4503,33664
4504,33536
4505,33472
4506,33280
4507,33088
4508,32960
4509,32896
4510,32768
4511,32640
4512,32640
4513,32704
4514,32832
4515,32960
4516,33216
4517,33344
4518,33280
4519,33280
4520,33408
4521,33536
4522,33536
4523,33536
4524,33600
4525,33664
4526,33664
4527,33728
4528,33856
4529,34048
4530,34112
4531,34048
4532,34112
4533,34176
4534,34240
4535,34240
4536,34304
4537,34496
4538,34560
4539,34432
4540,34304
4541,34240
4542,34176
4543,34048
4544,33984
4545,34048
4546,34240
4547,34304
4548,34176
4549,34112
4550,34176
4551,34112
4552,34048
4553,34112
4554,34240
4555,34304
4556,34432
4557,34624
4558,34816
4559,34752
4560,34688
4561,34752
4562,34752
4563,34688
4564,34560
4565,34560
4566,34752
4567,34944
4568,35008
4569,34944
4570,34880
4571,34944
4572,34752
4573,34432
4574,34048
4575,33984
4576,33792
4577,33472
4578,33344
4579,33472
4580,33536
4581,33600
4582,33728
4583,33920
4584,33792
4585,33408
4586,32896
4587,32768
4588,33088
4589,33920
4590,35136
4591,37248
4592,39808
4593,43008
4594,46208
4595,48128
4596,48384
4597,46592
4598,43584
4599,40064
4600,36928
4601,34048
4602,31872
4603,30592
4604,30080
4605,30016
4606,30016
4607,30144
4608,30336
4609,30592
4610,30848
4611,31104
4612,31360
4613,31680
4614,31936
4615,32064
4616,32256
4617,32512
4618,32704
4619,32832
4620,32960
4621,33216
4622,33344
4623,33472
4624,33728
4625,33984
4626,34112
4627,34112
4628,34368
4629,34624
4630,34752
4631,34688
4632,34560
4633,34624
4634,34752
4635,34880
4636,34944
4637,35136
4638,35392
4639,35456
4640,35456
4641,35584
4642,35648
4643,35712
4644,35648
4645,35520
4646,35392
4647,35328
4648,35328
4649,35072
4650,34816
4651,34432
4652,34112
4653,33728
4654,33472
4655,33216
4656,32960
4657,32960
4658,32960
4659,32896
4660,32832
4661,32832
4662,32896
4663,32960
4664,32960
4665,32960
4666,33088
4667,33216
4668,33280
4669,33344
4670,33472
4671,33664
4672,33728
4673,33728
4674,33792
4675,33792
4676,33728
4677,33664
4678,33728
4679,33920
4680,33984
4681,33984
4682,34048
4683,34176
4684,34304
4685,34240
4686,34240
4687,34304
4688,34304
4689,34176
4690,34112
4691,34176
4692,34304
4693,34432
4694,34496
4695,34496
4696,34432
4697,34240
4698,34112
4699,34176
4700,34304
4701,34304
4702,34240
4703,34240
4704,34240
4705,34240
4706,34176
4707,34112
4708,34176
4709,34240
4710,34368
4711,34496
4712,34624
4713,34752
4714,34880
4715,35008
4716,34944
4717,34944
4718,34944
4719,34944
4720,35008
4721,35136
4722,35136
4723,35008
4724,34880
4725,34752
4726,34432
4727,34112
4728,33920
4729,33856
4730,33792
4731,33600
4732,33472
4733,33600
4734,33600
4735,33600
4736,33600
4737,33664
4738,33728
4739,33536
4740,33088
4741,33088
4742,33728
4743,34688
4744,36160
4745,38336
4746,41280
4747,44672
4748,47296
4749,48320
4750,47616
4751,45376
4752,42176
4753,38720
4754,35648
4755,33152
4756,31296
4757,30272
4758,29888
4759,29824
4760,29888
4761,30016
4762,30336
4763,30784
4764,31296
4765,31552
4766,31680
4767,31808
4768,31808
4769,31936
4770,32192
4771,32512
4772,32768
4773,32896
4774,33216
4775,33472
4776,33536
4777,33472
4778,33600
4779,33856
4780,33984
4781,34112
4782,34304
4783,34496
4784,34624
4785,34752
4786,34880
4787,34944
4788,35008
4789,35072
4790,35200
4791,35328
4792,35520
4793,35584
4794,35712
4795,35904
4796,35968
4797,35840
4798,35520
4799,35264
4800,35072
4801,34944
4802,34816
4803,34688
4804,34688
4805,34496
4806,34176
4807,33856
4808,33600
4809,33344
4810,33024
4811,32896
4812,32768
4813,32832
4814,32960
4815,33088
4816,33088
4817,33024
4818,32960
4819,32960
4820,33024
4821,33088
4822,33152
4823,33216
4824,33344
4825,33600
4826,33792
4827,33856
4828,33792
4829,33664
4830,33664
4831,33728
4832,33920
4833,33984
4834,34048
4835,34048
4836,33984
4837,34048
4838,34176
4839,34240
4840,34176
4841,34368
4842,34560
4843,34496
4844,34368
4845,34368
4846,34432
4847,34304
4848,34176
4849,34112
4850,34304
4851,34432
4852,34432
4853,34368
4854,34304
4855,34304
4856,34240
4857,34176
4858,34176
4859,34240
4860,34176
4861,34112
4862,34240
4863,34496
4864,34624
4865,34624
4866,34752
4867,34944
4868,35008
4869,34880
4870,34816
4871,34944
4872,35072
4873,35200
4874,35136
4875,35008
4876,34880
4877,34688
4878,34560
4879,34496
4880,34368
4881,34176
4882,33920
4883,33664
4884,33600
4885,33600
4886,33664
4887,33856
4888,33920
4889,33792
4890,33536
4891,33344
4892,33216
4893,33088
4894,33216
4895,33856
4896,35136
4897,36992
4898,39424
4899,42496
4900,45952
4901,48128
4902,48512
4903,47104
4904,44416
4905,41152
4906,37696
4907,34624
4908,32256
4909,30848
4910,30080
4911,29696
4912,29632
4913,29824
4914,30208
4915,30464
4916,30720
4917,31040
4918,31360
4919,31616
4920,31872
4921,32192
4922,32384
4923,32512
4924,32704
4925,33024
4926,33216
4927,33280
4928,33344
4929,33536
4930,33600
4931,33728
4932,33792
4933,33984
4934,34240
4935,34432
4936,34560
4937,34688
4938,34816
4939,34880
4940,34944
4941,35072
4942,35200
4943,35392
4944,35584
4945,35648
4946,35712
4947,35648
4948,35520
4949,35456
4950,35392
4951,35328
4952,35328
4953,35328
4954,35328
4955,35200
4956,34880
4957,34432
4958,34240
4959,34112
4960,33792
4961,33536
4962,33344
4963,33152
4964,32960
4965,32832
4966,32832
4967,32896
4968,32896
4969,32768
4970,32704
4971,32768
4972,32832
4973,32896
4974,33024
4975,33216
4976,33344
4977,33408
4978,33408
4979,33536
4980,33664
4981,33728
4982,33728
4983,33856
4984,34112
4985,34304
4986,34304
4987,34304
4988,34304
4989,34304
4990,34240
4991,34240
4992,34240
4993,34176
4994,33984
4995,33920
4996,33984
4997,34048
4998,34048
4999,34176
5000,34304
5001,34368
5002,34304
5003,34240
5004,34368
5005,34432
5006,34368
5007,34368
5008,34496
5009,34624
5010,34688
5011,34624
5012,34432
5013,34176
5014,34048
5015,33984
5016,33984
5017,34048
5018,34112
5019,34240
5020,34304
5021,34368
5022,34560
5023,34624
5024,34688
5025,34688
5026,34752
5027,34880
5028,34880
5029,35008
5030,35072
5031,35136
5032,35072
5033,35008
5034,34816
5035,34496
5036,34240
5037,34048
5038,33984
5039,33728
5040,33408
5041,33408
5042,33536
5043,33536
5044,33536
5045,33472
5046,33408
5047,33280
5048,33024
5049,32768
5050,32896
5051,33600
5052,34816
5053,36352
5054,38336
5055,41152
5056,44608
5057,47360
5058,48448
5059,47872
5060,45632
5061,42432
5062,38976
5063,35840
5064,33216
5065,31232
5066,30144
5067,29888
5068,29888
5069,29952
5070,30144
5071,30400
5072,30656
5073,30912
5074,31296
5075,31680
5076,31872
5077,32000
5078,32192
5079,32448
5080,32704
5081,32832
5082,32896
5083,33088
5084,33344
5085,33536
5086,33600
5087,33664
5088,33856
5089,34048
5090,34176
5091,34240
5092,34368
5093,34560
5094,34752
5095,34944
5096,35136
5097,35264
5098,35392
5099,35456
5100,35584
5101,35712
5102,35648
5103,35648
5104,35648
5105,35776
5106,35648
5107,35456
5108,35392
5109,35328
5110,35200
5111,35008
5112,34880
5113,34752
5114,34496
5115,34176
5116,33920
5117,33664
5118,33344
5119,33152
5120,33024
5121,33024
5122,32960
5123,32832
5124,32832
5125,32896
5126,32832
5127,32768
5128,32832
5129,33024
5130,33152
5131,33216
5132,33216
5133,33280
5134,33472
5135,33728
5136,33728
5137,33664
5138,33600
5139,33536
5140,33600
5141,33728
5142,33984
5143,33984
5144,33984
5145,33920
5146,33984
5147,34112
5148,34176
5149,34240
5150,34368
5151,34496
5152,34496
5153,34432
5154,34496
5155,34560
5156,34496
5157,34240
5158,34112
5159,34112
5160,34176
5161,34240
5162,34304
5163,34368
5164,34368
5165,34240
5166,34112
5167,34240
5168,34304
5169,34304
5170,34432
5171,34624
5172,34752
5173,34816
5174,34688
5175,34816
5176,35008
5177,35008
5178,34880
5179,34880
5180,35008
5181,35008
5182,35008
5183,35072
5184,35072
5185,34688
5186,34304
5187,33984
5188,33856
5189,33728
5190,33536
5191,33472
5192,33600
5193,33728
5194,33728
5195,33664
5196,33664
5197,33536
5198,33344
5199,33024
5200,32960
5201,33344
5202,34048
5203,35264
5204,37184
5205,39680
5206,42816
5207,46016
5208,48000
5209,48256
5210,46848
5211,44032
5212,40640
5213,37312
5214,34432
5215,32128
5216,30656
5217,29952
5218,29824
5219,29760
5220,29824
5221,30144
5222,30464
5223,31040
5224,31360
5225,31680
5226,32000
5227,32256
5228,32448
5229,32448
5230,32896
5231,32960
5232,33024
5233,32960
5234,33280
5235,33280
5236,33408
5237,33792
5238,33920
5239,34048
5240,34112
5241,34304
5242,34496
5243,34624
5244,34560
5245,34816
5246,35008
5247,35200
5248,35328
5249,35392
5250,35456
5251,35456
5252,35456
5253,35520
5254,35712
5255,35712
5256,35584
5257,35520
5258,35520
5259,35392
5260,35264
5261,35072
5262,34816
5263,34496
5264,34112
5265,33792
5266,33472
5267,33280
5268,33024
5269,32768
5270,32768
5271,32896
5272,32960
5273,32960
5274,32832
5275,32832
5276,32832
5277,32832
5278,32896
5279,33152
5280,33280
5281,33280
5282,33280
5283,33408
5284,33536
5285,33536
5286,33536
5287,33536
5288,33600
5289,33664
5290,33792
5291,33856
5292,33920
5293,33984
5294,33920
5295,34304
5296,34496
5297,34496
5298,34432
5299,34496
5300,34496
5301,34432
5302,34176
5303,34112
5304,34240
5305,34432
5306,34368
5307,34240
5308,34240
5309,34304
5310,34240
5311,34176
5312,34368
5313,34368
5314,34240
5315,34112
5316,34112
5317,34176
5318,34176
5319,34240
5320,34304
5321,34432
5322,34496
5323,34560
5324,34624
5325,34816
5326,34816
5327,34752
5328,34752
5329,34944
5330,35072
5331,35072
5332,35072
5333,35136
5334,35072
5335,34880
5336,34560
5337,34240
5338,33984
5339,33728
5340,33600
5341,33536
5342,33472
5343,33472
5344,33472
5345,33536
5346,33600
5347,33536
5348,33408
5349,33216
5350,33024
5351,32960
5352,33344
5353,34368
5354,35904
5355,37888
5356,40384
5357,43712
5358,46848
5359,48448
5360,48128
5361,45952
5362,43008
5363,39424
5364,36288
5365,33472
5366,31552
5367,30400
5368,29824
5369,29632
5370,29824
5371,30080
5372,30400
5373,30592
5374,30912
5375,31232
5376,31488
5377,31616
5378,31744
5379,32064
5380,32320
5381,32512
5382,32704
5383,32960
5384,33152
5385,33216
5386,33280
5387,33600
5388,33856
5389,33856
5390,33920
5391,34048
5392,34176
5393,34240
5394,34432
5395,34688
5396,34880
5397,35008
5398,35136
5399,35264
5400,35328
5401,35456
5402,35520
5403,35584
5404,35648
5405,35648
5406,35520
5407,35520
5408,35520
5409,35584
5410,35520
5411,35392
5412,35264
5413,34944
5414,34496
5415,34304
5416,34112
5417,33792
5418,33408
5419,33152
5420,33152
5421,33216
5422,33152
5423,32896
5424,32704
5425,32640
5426,32640
5427,32640
5428,32704
5429,32960
5430,33216
5431,33280
5432,33280
5433,33408
5434,33536
5435,33536
5436,33792
5437,33920
5438,33920
5439,33856
5440,33728
5441,33728
5442,33920
5443,33920
5444,33792
5445,33792
5446,33920
5447,34048
5448,34112
5449,34176
5450,34240
5451,34368
5452,34304
5453,34176
5454,34240
5455,34304
5456,34304
5457,34304
5458,34368
5459,34368
5460,34304
5461,34304
5462,34432
5463,34496
5464,34432
5465,34304
5466,34240
5467,34176
5468,34048
5469,34048
5470,34112
5471,34240
5472,34304
5473,34240
5474,34304
5475,34368
5476,34560
5477,34624
5478,34624
5479,34752
5480,34816
5481,34816
5482,34752
5483,34816
5484,34880
5485,34880
5486,34880
5487,34944
5488,35008
5489,34944
5490,34752
5491,34560
5492,34432
5493,34240
5494,33856
5495,33600
5496,33600
5497,33600
5498,33536
5499,33536
5500,33600
5501,33600
5502,33408
5503,33280
5504,33088
5505,32960
5506,33216
5507,33792
5508,34944
5509,36800
5510,39168
5511,42048
5512,45632
5513,48064
5514,48576
5515,47424
5516,44800
5517,41472
5518,38016
5519,34816
5520,32384
5521,30848
5522,30016
5523,29632
5524,29696
5525,29952
5526,30080
5527,30208
5528,30464
5529,30912
5530,31360
5531,31616
5532,31872
5533,32128
5534,32320
5535,32384
5536,32448
5537,32704
5538,32960
5539,33088
5540,33152
5541,33344
5542,33600
5543,33728
5544,33792
5545,33984
5546,34240
5547,34496
5548,34752
5549,34880
5550,34880
5551,34880
5552,34752
5553,34688
5554,34944
5555,35264
5556,35456
5557,35456
5558,35584
5559,35712
5560,35712
5561,35648
5562,35584
5563,35648
5564,35520
5565,35264
5566,35072
5567,34944
5568,34688
5569,34368
5570,34112
5571,33984
5572,33920
5573,33664
5574,33408
5575,33280
5576,33088
5577,32768
5578,32640
5579,32704
5580,32768
5581,32704
5582,32768
5583,32960
5584,33088
5585,33152
5586,33152
5587,33152
5588,33152
5589,33280
5590,33344
5591,33600
5592,33920
5593,33920
5594,33728
5595,33664
5596,33792
5597,33920
5598,34048
5599,34176
5600,34240
5601,34304
5602,34240
5603,34176
5604,34176
5605,34176
5606,33984
5607,34048
5608,34112
5609,34176
5610,34176
5611,34240
5612,34304
5613,34368
5614,34304
5615,34240
5616,34304
5617,34432
5618,34368
5619,34368
5620,34368
5621,34432
5622,34432
5623,34432
5624,34432
5625,34432
5626,34368
5627,34240
5628,34048
5629,34112
5630,34304
5631,34432
5632,34624
5633,34752
5634,34816
5635,34688
5636,34688
5637,34688
5638,34880
5639,35072
5640,35136
5641,35136
5642,35136
5643,35072
5644,34816
5645,34560
5646,34368
5647,34240
5648,33920
5649,33792
5650,33664
5651,33664
5652,33600
5653,33536
5654,33536
5655,33664
5656,33664
5657,33536
5658,33280
5659,33024
5660,32960
5661,33344
5662,34240
5663,35648
5664,37504
5665,39872
5666,43072
5667,46400
5668,48192
5669,48128
5670,46528
5671,43840
5672,40448
5673,37056
5674,34112
5675,31936
5676,30656
5677,30080
5678,29888
5679,29888
5680,30080
5681,30272
5682,30400
5683,30656
5684,31040
5685,31424
5686,31744
5687,32000
5688,32256
5689,32384
5690,32640
5691,32896
5692,32960
5693,33024
5694,33088
5695,33152
5696,33408
5697,33600
5698,33728
5699,33920
5700,34112
5701,34240
5702,34304
5703,34432
5704,34624
5705,34880
5706,35008
5707,35072
5708,35264
5709,35392
5710,35392
5711,35392
5712,35520
5713,35584
5714,35584
5715,35648
5716,35648
5717,35712
5718,35648
5719,35520
5720,35328
5721,35136
5722,34880
5723,34496
5724,34240
5725,33984
5726,33728
5727,33472
5728,33216
5729,33152
5730,33088
5731,32960
5732,32832
5733,32768
5734,32768
5735,32832
5736,32832
5737,32832
5738,32960
5739,33024
5740,33024
5741,33088
5742,33280
5743,33344
5744,33344
5745,33408
5746,33472
5747,33536
5748,33600
5749,33728
5750,33920
5751,33984
5752,33920
5753,33856
5754,33792
5755,33856
5756,33920
5757,33984
5758,34176
5759,34304
5760,34240
5761,34240
5762,34368
5763,34496
5764,34368
5765,34176
5766,34304
5767,34432
5768,34304
5769,34176
5770,34176
5771,34240
5772,34240
5773,34176
5774,34240
5775,34304
5776,34432
5777,34496
5778,34624
5779,34816
5780,35008
5781,35008
5782,34816
5783,34752
5784,34816
5785,34944
5786,35008
5787,35136
5788,35136
5789,34944
5790,34752
5791,34560
5792,34368
5793,34176
5794,33920
5795,33664
5796,33600
5797,33536
5798,33536
5799,33536
5800,33600
5801,33600
5802,33600
5803,33536
5804,33472
5805,33152
5806,32768
5807,32768
5808,33408
5809,34816
5810,36480
5811,38656
5812,41280
5813,44864
5814,47104
5815,47936
5816,46976
5817,44608
5818,41664
5819,37952
5820,35584
5821,33152
5822,31424
5823,30336
5824,29888
5825,29888
5826,30080
5827,30336
5828,30592
5829,30848
5830,31168
5831,31488
5832,31744
5833,32000
5834,32256
5835,32384
5836,32640
5837,32896
5838,33152
5839,33216
5840,33280
5841,33472
5842,33664
5843,33664
5844,33664
5845,33792
5846,33984
5847,34176
5848,34304
5849,34496
5850,34688
5851,34816
5852,34816
5853,34880
5854,35136
5855,35392
5856,35456
5857,35392
5858,35392
5859,35520
5860,35648
5861,35712
5862,35776
5863,35840
5864,35648
5865,35264
5866,34944
5867,34752
5868,34624
5869,34432
5870,34240
5871,34112
5872,33984
5873,33856
5874,33664
5875,33536
5876,33344
5877,33216
5878,33088
5879,32896
5880,32832
5881,32832
5882,32832
5883,32832
5884,32960
5885,33088
5886,33152
5887,33280
5888,33408
5889,33408
5890,33472
5891,33472
5892,33472
5893,33472
5894,33536
5895,33600
5896,33856
5897,34112
5898,34176
5899,34112
5900,34048
5901,34112
5902,34048
5903,33984
5904,33984
5905,34048
5906,34112
5907,34112
5908,34240
5909,34304
5910,34304
5911,34304
5912,34304
5913,34368
5914,34432
5915,34304
5916,34368
5917,34432
5918,34368
5919,34368
5920,34240
5921,34176
5922,34176
5923,34048
5924,34048
5925,34176
5926,34240
5927,34240
5928,34240
5929,34368
5930,34624
5931,34752
5932,34880
5933,34880
5934,34880
5935,34816
5936,34752
5937,34816
5938,35072
5939,35392
5940,35328
5941,35008
5942,34816
5943,34560
5944,34240
5945,33984
5946,33856
5947,33920
5948,33920
5949,33856
5950,33856
5951,33920
5952,33792
5953,33664
5954,33664
5955,33664
5956,33536
5957,33216
5958,32960
5959,33088
5960,33600
5961,34368
5962,35776
5963,37952
5964,40960
5965,44096
5966,47168
5967,48640
5968,48384
5969,45568
5970,42816
5971,39680
5972,36480
5973,33664
5974,31616
5975,30464
5976,29952
5977,29888
5978,29888
5979,29952
5980,30144
5981,30336
5982,30528
5983,30912
5984,31488
5985,31808
5986,32128
5987,32320
5988,32576
5989,32704
5990,32768
5991,32896
5992,33088
5993,33344
5994,33472
5995,33600
5996,33728
5997,33984
5998,34048
5999,34048
6000,34112
6001,34368
6002,34560
6003,34752
6004,34880
6005,35008
6006,35072
6007,35200
6008,35328
6009,35520
6010,35712
6011,35840
6012,35904
6013,35840
6014,35712
6015,35456
6016,35328
6017,35328
6018,35328
6019,35136
6020,34944
6021,35008
6022,34944
6023,34496
6024,34048
6025,33792
6026,33600
6027,33408
6028,33280
6029,33152
6030,33088
6031,33088
6032,33024
6033,32960
6034,32832
6035,32704
6036,32640
6037,32768
6038,33024
6039,33280
6040,33280
6041,33216
6042,33344
6043,33472
6044,33600
6045,33664
6046,33856
6047,33984
6048,33920
6049,33920
6050,33984
6051,33984
6052,33920
6053,33664
6054,33664
6055,33856
6056,34048
6057,34112
6058,34176
6059,34176
6060,34176
6061,34176
6062,34240
6063,34368
6064,34560
6065,34496
6066,34432
6067,34432
6068,34560
6069,34624
6070,34496
6071,34368
6072,34240
6073,34048
6074,33856
6075,33856
6076,34048
6077,34176
6078,34240
6079,34368
6080,34560
6081,34688
6082,34688
6083,34816
6084,34880
6085,34816
6086,34752
6087,34816
6088,35072
6089,35456
6090,35520
6091,35328
6092,35200
6093,35008
6094,34624
6095,34176
6096,33920
6097,33792
6098,33600
6099,33472
6100,33408
6101,33600
6102,33728
6103,33664
6104,33664
6105,33728
6106,33728
6107,33600
6108,33472
6109,33280
6110,33280
6111,33536
6112,34368
6113,35776
6114,37760
6115,40320
6116,43648
6117,46912
6118,48640
6119,47936
6120,46144
6121,43264
6122,39808
6123,36480
6124,33664
6125,31680
6126,30592
6127,30016
6128,29824
6129,29888
6130,30080
6131,30336
6132,30528
6133,30656
6134,30976
6135,31168
6136,31488
6137,31744
6138,32128
6139,32512
6140,32704
6141,32896
6142,33152
6143,33344
6144,33472
6145,33664
6146,34048
6147,34112
6148,33984
6149,33856
6150,33920
6151,34048
6152,34176
6153,34240
6154,34432
6155,34752
6156,35008
6157,35200
6158,35328
6159,35648
6160,35840
6161,35840
6162,35968
6163,35840
6164,35648
6165,35456
6166,35392
6167,35456
6168,35456
6169,35392
6170,35264
6171,35136
6172,34944
6173,34624
6174,34240
6175,33984
6176,33792
6177,33664
6178,33536
6179,33344
6180,33152
6181,32896
6182,32704
6183,32704
6184,32768
6185,32832
6186,32768
6187,32832
6188,33088
6189,33280
6190,33344
6191,33280
6192,33280
6193,33280
6194,33344
6195,33344
6196,33472
6197,33728
6198,33728
6199,33728
6200,33920
6201,34048
6202,34048
6203,34048
6204,33984
6205,33984
6206,33920
6207,33920
6208,33984
6209,34240
6210,34304
6211,34368
6212,34304
6213,34368
6214,34496
6215,34432
6216,34304
6217,34240
6218,34304
6219,34368
6220,34432
6221,34432
6222,34368
6223,34240
6224,34112
6225,34176
6226,34368
6227,34368
6228,34304
6229,34176
6230,34112
6231,34048
6232,33984
6233,34048
6234,34368
6235,34688
6236,34816
6237,34816
6238,34816
6239,34816
6240,34816
6241,34816
6242,34816
6243,34816
6244,34816
6245,34880
6246,34880
6247,35008
6248,35072
6249,35136
6250,35008
6251,34688
6252,34304
6253,33920
6254,33664
6255,33664
6256,33728
6257,33856
6258,33792
6259,33728
6260,33600
6261,33472
6262,33344
6263,33344
6264,33216
6265,32960
6266,32960
6267,33536
6268,34560
6269,36736
6270,38016
6271,40512
6272,43648
6273,46592
6274,47936
6275,47552
6276,45504
6277,42688
6278,39360
6279,36160
6280,33536
6281,31744
6282,30592
6283,30016
6284,29952
6285,30208
6286,30400
6287,30336
6288,30464
6289,30848
6290,31168
6291,31488
6292,31808
6293,32064
6294,32256
6295,32512
6296,32768
6297,32896
6298,32960
6299,33216
6300,33472
6301,33664
6302,33792
6303,33920
6304,33984
6305,33920
6306,33984
6307,34048
6308,34176
6309,34368
6310,34624
6311,34752
6312,34944
6313,35136
6314,35328
6315,35328
6316,35392
6317,35456
6318,35584
6319,35648
6320,35584
6321,35776
6322,35840
6323,35584
6324,35264
6325,35264
6326,35584
6327,35520
6328,34944
6329,34432
6330,34112
6331,33920
6332,33536
6333,33408
6334,33408
6335,33280
6336,33088
6337,32960
6338,32960
6339,32960
6340,32832
6341,32768
6342,32832
6343,33024
6344,33088
6345,33088
6346,33280
6347,33472
6348,33472
6349,33472
6350,33600
6351,33728
6352,33792
6353,33728
6354,33600
6355,33664
6356,33856
6357,33920
6358,33920
6359,34048
6360,34048
6361,33984
6362,33984
6363,34112
6364,34368
6365,34368
6366,34304
6367,34496
6368,34752
6369,34624
6370,34368
6371,34240
6372,34112
6373,34048
6374,34176
6375,34432
6376,34624
6377,34624
6378,34304
6379,34048
6380,33984
6381,34112
6382,34240
6383,34368
6384,34560
6385,34752
6386,34752
6387,34688
6388,34624
6389,34624
6390,34688
6391,34880
6392,35136
6393,35328
6394,35200
6395,35072
6396,35008
6397,35008
6398,35008
6399,34496
6400,34112
6401,33856
6402,33728
6403,33664
6404,33728
6405,33920
6406,33920
6407,33664
6408,33600
6409,33728
6410,33792
6411,33600
6412,33408
6413,33216
6414,33216
6415,33664
6416,34624
6417,36352
6418,38656
6419,42944
6420,44736
6421,47232
6422,48128
6423,46976
6424,44480
6425,41536
6426,38464
6427,35456
6428,32960
6429,31232
6430,30336
6431,30080
6432,30080
6433,30208
6434,30464
6435,30720
6436,30976
6437,31296
6438,31616
6439,31936
6440,32128
6441,32320
6442,32640
6443,33088
6444,33216
6445,33088
6446,33088
6447,33280
6448,33408
6449,33536
6450,33600
6451,33792
6452,33920
6453,34048
6454,34304
6455,34496
6456,34688
6457,34752
6458,34688
6459,34816
6460,35072
6461,35264
6462,35392
6463,35520
6464,35584
6465,35648
6466,35584
6467,35584
6468,35648
6469,35712
6470,35648
6471,35648
6472,35456
6473,35136
6474,34816
6475,34624
6476,34560
6477,34368
6478,34048
6479,33792
6480,33600
6481,33472
6482,33344
6483,33216
6484,33088
6485,32960
6486,32960
6487,33024
6488,33088
6489,33152
6490,33152
6491,33152
6492,33152
6493,33152
6494,33152
6495,33152
6496,33280
6497,33472
6498,33600
6499,33664
6500,33920
6501,33984
6502,33920
6503,33728
6504,33728
6505,33856
6506,33984
6507,34048
6508,33984
6509,33984
6510,34048
6511,34240
6512,34240
6513,34176
6514,34176
6515,34240
6516,34240
6517,34240
6518,34432
6519,34560
6520,34496
6521,34432
6522,34368
6523,34368
6524,34432
6525,34368
6526,34368
6527,34240
6528,34304
6529,34496
6530,34624
6531,34752
6532,34816
6533,34752
6534,34880
6535,34944
6536,34880
6537,34752
6538,34752
6539,34880
6540,35008
6541,35136
6542,35264
6543,35264
6544,35136
6545,34880
6546,34496
6547,34304
6548,34048
6549,33856
6550,33728
6551,33600
6552,33600
6553,33536
6554,33472
6555,33472
6556,33472
6557,33472
6558,33408
6559,33344
6560,33152
6561,33024
6562,33408
6563,34368
6564,35840
6565,37952
6566,40576
6567,43968
6568,47104
6569,48768
6570,48320
6571,46336
6572,43200
6573,39744
6574,36352
6575,33536
6576,31552
6577,30336
6578,29760
6579,29696
6580,29888
6581,30080
6582,30208
6583,30400
6584,30720
6585,31104
6586,31360
6587,31488
6588,31808
6589,32128
6590,32384
6591,32512
6592,32576
6593,32896
6594,33152
6595,33344
6596,33472
6597,33536
6598,33600
6599,33728
6600,33792
6601,34048
6602,34240
6603,34368
6604,34496
6605,34688
6606,34816
6607,34816
6608,34752
6609,34944
6610,35136
6611,35264
6612,35328
6613,35520
6614,35712
6615,35712
6616,35648
6617,35584
6618,35456
6619,35392
6620,35264
6621,35136
6622,35008
6623,34816
6624,34688
6625,34496
6626,34176
6627,33792
6628,33408
6629,33152
6630,33024
6631,33024
6632,32896
6633,32768
6634,32896
6635,32960
6636,32896
6637,32896
6638,32896
6639,32960
6640,33024
6641,33088
6642,33152
6643,33280
6644,33408
6645,33600
6646,33856
6647,34048
6648,33792
6649,33600
6650,33536
6651,33600
6652,33792
6653,33856
6654,33856
6655,33984
6656,34176
6657,34112
6658,34048
6659,34048
6660,34176
6661,34304
6662,34304
6663,34368
6664,34368
6665,34240
6666,34176
6667,34176
6668,34240
6669,34368
6670,34304
6671,34368
6672,34496
6673,34496
6674,34368
6675,34368
6676,34560
6677,34816
6678,34816
6679,34816
6680,34880
6681,34880
6682,34880
6683,34752
6684,34816
6685,34944
6686,34944
6687,34816
6688,34752
6689,34816
6690,34752
6691,34496
6692,34240
6693,33984
6694,33728
6695,33472
6696,33472
6697,33536
6698,33664
6699,33600
6700,33600
6701,33536
6702,33344
6703,33152
6704,32960
6705,32832
6706,33152
6707,33920
6708,35072
6709,36864
6710,39168
6711,42112
6712,45440
6713,47936
6714,48704
6715,47680
6716,45056
6717,41728
6718,38336
6719,35264
6720,32512
6721,30912
6722,30016
6723,29632
6724,29504
6725,29696
6726,30080
6727,30336
6728,30592
6729,30848
6730,31168
6731,31424
6732,31616
6733,31872
6734,32128
6735,32512
6736,32768
6737,32896
6738,32960
6739,33152
6740,33344
6741,33408
6742,33536
6743,33792
6744,33984
6745,33984
6746,34048
6747,34304
6748,34560
6749,34752
6750,34816
6751,34880
6752,34944
6753,34944
6754,35008
6755,35328
6756,35584
6757,35584
6758,35456
6759,35456
6760,35584
6761,35520
6762,35328
6763,35264
6764,35264
6765,35200
6766,35008
6767,34816
6768,34624
6769,34432
6770,34176
6771,33984
6772,33856
6773,33536
6774,33216
6775,33024
6776,32896
6777,32768
6778,32640
6779,32704
6780,32832
6781,32832
6782,32832
6783,32832
6784,32960
6785,33152
6786,33280
6787,33408
6788,33728
6789,33920
6790,33728
6791,33536
6792,33408
6793,33536
6794,33600
6795,33664
6796,33856
6797,33984
6798,34048
6799,33984
6800,34048
6801,34112
6802,34176
6803,34176
6804,34240
6805,34304
6806,34304
6807,34304
6808,34432
6809,34496
6810,34432
6811,34240
6812,34112
6813,34176
6814,34368
6815,34304
6816,34112
6817,34048
6818,34240
6819,34304
6820,34240
6821,34240
6822,34368
6823,34496
6824,34432
6825,34368
6826,34304
6827,34304
6828,34304
6829,34368
6830,34560
6831,34752
6832,34752
6833,34688
6834,34752
6835,34816
6836,34752
6837,34624
6838,34816
6839,35072
6840,35200
6841,35264
6842,35200
6843,35136
6844,34944
6845,34560
6846,34176
6847,33920
6848,33792
6849,33728
6850,33600
6851,33536
6852,33600
6853,33600
6854,33536
6855,33664
6856,33792
6857,33600
6858,33216
6859,32960
6860,33216
6861,33856
6862,34944
6863,36672
6864,38912
6865,41728
6866,44992
6867,47552
6868,48576
6869,47808
6870,45248
6871,41920
6872,38464
6873,35328
6874,32768
6875,31040
6876,30144
6877,29760
6878,29696
6879,29760
6880,29952
6881,30272
6882,30592
6883,30848
6884,31232
6885,31680
6886,31936
6887,32064
6888,32192
6889,32384
6890,32512
6891,32640
6892,32704
6893,32960
6894,33152
6895,33408
6896,33536
6897,33728
6898,33856
6899,33984
6900,34048
6901,34304
6902,34560
6903,34752
6904,34816
6905,34816
6906,34880
6907,34880
6908,34880
6909,35136
6910,35328
6911,35456
6912,35520
6913,35584
6914,35712
6915,35712
6916,35520
6917,35328
6918,35264
6919,35136
6920,34944
6921,34752
6922,34688
6923,34560
6924,34304
6925,34112
6926,33984
6927,33792
6928,33536
6929,33280
6930,33152
6931,33152
6932,33024
6933,32960
6934,32960
6935,33024
6936,32960
6937,32960
6938,33088
6939,33280
6940,33408
6941,33280
6942,33152
6943,33280
6944,33472
6945,33600
6946,33728
6947,33920
6948,33984
6949,33920
6950,33856
6951,33920
6952,33920
6953,33984
6954,34048
6955,34240
6956,34304
6957,34304
6958,34176
6959,34176
6960,34240
6961,34240
6962,34432
6963,34560
6964,34496
6965,34368
6966,34176
6967,34112
6968,34176
6969,34240
6970,34304
6971,34304
6972,34368
6973,34368
6974,34304
6975,34240
6976,34240
6977,34240
6978,34176
6979,34176
6980,34304
6981,34560
6982,34688
6983,34688
6984,34752
6985,34816
6986,34752
6987,34560
6988,34560
6989,34816
6990,35008
6991,35072
6992,35008
6993,35008
6994,35072
6995,35072
6996,34880
6997,34560
6998,34304
6999,34048
7000,33856
7001,33792
7002,33728
7003,33536
7004,33408
7005,33408
7006,33536
7007,33600
7008,33536
7009,33472
7010,33216
7011,32896
7012,32896
7013,33408
7014,34688
7015,36352
7016,38400
7017,41024
7018,44160
7019,46656
7020,47488
7021,46592
7022,44544
7023,41728
7024,38592
7025,35584
7026,33088
7027,31424
7028,30464
7029,29952
7030,29888
7031,30144
7032,30400
7033,30784
7034,31040
7035,31232
7036,31424
7037,31552
7038,31744
7039,32000
7040,32320
7041,32576
7042,33024
7043,33088
7044,33024
7045,33344
7046,33600
7047,33792
7048,33792
7049,33856
7050,33984
7051,34112
7052,34240
7053,34368
7054,34624
7055,34944
7056,35072
7057,34944
7058,34880
7059,34944
7060,35072
7061,35264
7062,35456
7063,35584
7064,35584
7065,35456
7066,35264
7067,35136
7068,35072
7069,35072
7070,35072
7071,35072
7072,34880
7073,34688
7074,34624
7075,34240
7076,34048
7077,33856
7078,33792
7079,33408
7080,33408
7081,33344
7082,33088
7083,32960
7084,32960
7085,33088
7086,33152
7087,33152
7088,33344
7089,33408
7090,33216
7091,33088
7092,33152
7093,33216
7094,33344
7095,33408
7096,33536
7097,33664
7098,33728
7099,33792
7100,33856
7101,33984
7102,34048
7103,33984
7104,33920
7105,34048
7106,34176
7107,34304
7108,34304
7109,34304
7110,34304
7111,34240
7112,34304
7113,34368
7114,34368
7115,34368
7116,34368
7117,34432
7118,34560
7119,34496
7120,34304
7121,34240
7122,34304
7123,34304
7124,34240
7125,34304
7126,34368
7127,34368
7128,34240
7129,34240
7130,34432
7131,34560
7132,34496
7133,34496
7134,34688
7135,34816
7136,34816
7137,34816
7138,34944
7139,35072
7140,35008
7141,35072
7142,35264
7143,35200
7144,35008
7145,34880
7146,34688
7147,34496
7148,34240
7149,33984
7150,33856
7151,33792
7152,33728
7153,33600
7154,33536
7155,33664
7156,33664
7157,33664
7158,33600
7159,33472
7160,33280
7161,32896
7162,32768
7163,33152
7164,34048
7165,35392
7166,37376
7167,40000
7168,43200
7169,46208
7170,47808
7171,47808
7172,46016
7173,43072
7174,39808
7175,36800
7176,34112
7177,32064
7178,30784
7179,30144
7180,29952
7181,29888
7182,29952
7183,30208
7184,30592
7185,30912
7186,31232
7187,31616
7188,31936
7189,32192
7190,32448
7191,32704
7192,32896
7193,33088
7194,33216
7195,33280
7196,33408
7197,33536
7198,33600
7199,33664
7200,33792
7201,33984
7202,34176
7203,34240
7204,34304
7205,34432
7206,34560
7207,34688
7208,34688
7209,34944
7210,35264
7211,35328
7212,35328
7213,35392
7214,35456
7215,35392
7216,35392
7217,35520
7218,35584
7219,35328
7220,35200
7221,35136
7222,35072
7223,34944
7224,34816
7225,34624
7226,34496
7227,34304
7228,34048
7229,33856
7230,33728
7231,33536
7232,33216
7233,33088
7234,33024
7235,32960
7236,32768
7237,32768
7238,32832
7239,32896
7240,32832
7241,32896
7242,33216
7243,33472
7244,33536
7245,33536
7246,33664
7247,33728
7248,33728
7249,33664
7250,33664
7251,33728
7252,33792
7253,33856
7254,33984
7255,34176
7256,34240
7257,34176
7258,34112
7259,34176
7260,34304
7261,34304
7262,34176
7263,34240
7264,34432
7265,34432
7266,34240
7267,34304
7268,34368
7269,34368
7270,34368
7271,34496
7272,34624
7273,34560
7274,34432
7275,34368
7276,34432
7277,34304
7278,34176
7279,34048
7280,34048
7281,34048
7282,34112
7283,34176
7284,34240
7285,34176
7286,34240
7287,34368
7288,34432
7289,34496
7290,34496
7291,34496
7292,34624
7293,34880
7294,35008
7295,34944
7296,34752
7297,34752
7298,34624
7299,34560
7300,34752
7301,35008
7302,35008
7303,34816
7304,34752
7305,34752
7306,34624
7307,34368
7308,34176
7309,34112
7310,34048
7311,33856
7312,33600
7313,33536
7314,33600
7315,33600
7316,33664
7317,33664
7318,33472
7319,33216
7320,32896
7321,32768
7322,33088
7323,33856
7324,35136
7325,37056
7326,39680
7327,42816
7328,46272
7329,48384
7330,48768
7331,47360
7332,44544
7333,41088
7334,37504
7335,34624
7336,32128
7337,30592
7338,29888
7339,29632
7340,29696
7341,29824
7342,30080
7343,30528
7344,30784
7345,31104
7346,31488
7347,31808
7348,32064
7349,32192
7350,32256
7351,32384
7352,32448
7353,32640
7354,32896
7355,33152
7356,33344
7357,33472
7358,33536
7359,33792
7360,34048
7361,34112
7362,34176
7363,34368
7364,34560
7365,34624
7366,34752
7367,34944
7368,35008
7369,35008
7370,35072
7371,35328
7372,35520
7373,35520
7374,35456
7375,35328
7376,35328
7377,35328
7378,35328
7379,35328
7380,35392
7381,35328
7382,35200
7383,34944
7384,34816
7385,34688
7386,34368
7387,34112
7388,33984
7389,33792
7390,33472
7391,33216
7392,33024
7393,32960
7394,32960
7395,32960
7396,33024
7397,33152
7398,33152
7399,33024
7400,32960
7401,33088
7402,33216
7403,33344
7404,33408
7405,33472
7406,33536
7407,33536
7408,33536
7409,33664
7410,33920
7411,34112
7412,34176
7413,34176
7414,34048
7415,33920
7416,33920
7417,34048
7418,34240
7419,34240
7420,34112
7421,34048
7422,34112
7423,34112
7424,34048
7425,34176
7426,34304
7427,34432
7428,34432
7429,34432
7430,34496
7431,34560
7432,34560
7433,34496
7434,34432
7435,34240
7436,34048
7437,34048
7438,34176
7439,34240
7440,34112
7441,34048
7442,34048
7443,34176
7444,34240
7445,34176
7446,34176
7447,34368
7448,34368
7449,34240
7450,34112
7451,34176
7452,34240
7453,34304
7454,34432
7455,34560
7456,34560
7457,34688
7458,34816
7459,34880
7460,34816
7461,34688
7462,34624
7463,34752
7464,34944
7465,35072
7466,35072
7467,35200
7468,35264
7469,35136
7470,34944
7471,34688
7472,34368
7473,33984
7474,33664
7475,33472
7476,33536
7477,33472
7478,33472
7479,33600
7480,33856
7481,33920
7482,33856
7483,33600
7484,33344
7485,33024
7486,32896
7487,33344
7488,34368
7489,35712
7490,37568
7491,40128
7492,43456
7493,46784
7494,48448
7495,48384
7496,46528
7497,43520
7498,40064
7499,36672
7500,33856
7501,31872
7502,30720
7503,30080
7504,29824
7505,29888
7506,30016
7507,30144
7508,30464
7509,30912
7510,31360
7511,31680
7512,31872
7513,32000
7514,32192
7515,32320
7516,32320
7517,32512
7518,32896
7519,33152
7520,33408
7521,33536
7522,33664
7523,33728
7524,33728
7525,33856
7526,34112
7527,34304
7528,34368
7529,34368
7530,34496
7531,34688
7532,34816
7533,35008
7534,35200
7535,35328
7536,35328
7537,35264
7538,35392
7539,35520
7540,35584
7541,35520
7542,35456
7543,35456
7544,35392
7545,35264
7546,35200
7547,35200
7548,35072
7549,34816
7550,34688
7551,34496
7552,34112
7553,33792
7554,33600
7555,33536
7556,33472
7557,33216
7558,33024
7559,32960
7560,32896
7561,32896
7562,32832
7563,32896
7564,33024
7565,33088
7566,33088
7567,33152
7568,33408
7569,33600
7570,33728
7571,33792
7572,33920
7573,33856
7574,33920
7575,33984
7576,33984
7577,33984
7578,33920
7579,33920
7580,33856
7581,33920
7582,34048
7583,33984
7584,33856
7585,33920
7586,33920
7587,33984
7588,34112
7589,34240
7590,34304
7591,34304
7592,34432
7593,34496
7594,34560
7595,34560
7596,34624
7597,34752
7598,34560
7599,34240
7600,34112
7601,34304
7602,34368
7603,34112
7604,33984
7605,34048
7606,34048
7607,33984
7608,33984
7609,34112
7610,34240
7611,34240
7612,34304
7613,34496
7614,34560
7615,34432
7616,34368
7617,34432
7618,34560
7619,34688
7620,34752
7621,34880
7622,35008
7623,35136
7624,35264
7625,35392
7626,35456
7627,35264
7628,35008
7629,34944
7630,34752
7631,34624
7632,34368
7633,34048
7634,33856
7635,33728
7636,33600
7637,33472
7638,33536
7639,33664
7640,33728
7641,33664
7642,33600
7643,33536
7644,33280
7645,32960
7646,33088
7647,33792
7648,34688
7649,36096
7650,38080
7651,40768
7652,44096
7653,46720
7654,47680
7655,46848
7656,44736
7657,41856
7658,38464
7659,35456
7660,33216
7661,31360
7662,30272
7663,29888
7664,29952
7665,30080
7666,30336
7667,30720
7668,31104
7669,31360
7670,31552
7671,31936
7672,32256
7673,32448
7674,32576
7675,32768
7676,32896
7677,33024
7678,33152
7679,33280
7680,33536
7681,33664
7682,33600
7683,33664
7684,33920
7685,33984
7686,33920
7687,34048
7688,34432
7689,34624
7690,34560
7691,34560
7692,34752
7693,34944
7694,35072
7695,35200
7696,35520
7697,35776
7698,35776
7699,35648
7700,35648
7701,35520
7702,35328
7703,35136
7704,35008
7705,35072
7706,35072
7707,35008
7708,34816
7709,34624
7710,34496
7711,34176
7712,33984
7713,33920
7714,33856
7715,33600
7716,33344
7717,33344
7718,33216
7719,32896
7720,32768
7721,32768
7722,32832
7723,33024
7724,33024
7725,33152
7726,33280
7727,33408
7728,33472
7729,33664
7730,33792
7731,33920
7732,33920
7733,33792
7734,33792
7735,33920
7736,33984
7737,33920
7738,34048
7739,34112
7740,34048
7741,33920
7742,33920
7743,34112
7744,34240
7745,34240
7746,34304
7747,34432
7748,34496
7749,34560
7750,34560
7751,34432
7752,34176
7753,34112
7754,34176
7755,34304
7756,34304
7757,34176
7758,34048
7759,34048
7760,33984
7761,33920
7762,33984
7763,34112
7764,34304
7765,34432
7766,34432
7767,34432
7768,34432
7769,34368
7770,34432
7771,34496
7772,34560
7773,34624
7774,34624
7775,34624
7776,34752
7777,34880
7778,34880
7779,35008
7780,35136
7781,35200
7782,35136
7783,35008
7784,35008
7785,34944
7786,34624
7787,34176
7788,33984
7789,33920
7790,33792
7791,33664
7792,33664
7793,33728
7794,33792
7795,33664
7796,33600
7797,33600
7798,33472
7799,33152
7800,32832
7801,32896
7802,33408
7803,34368
7804,36096
7805,38336
7806,41152
7807,44352
7808,46848
7809,47808
7810,47040
7811,44928
7812,41920
7813,38720
7814,35328
7815,33344
7816,31616
7817,30528
7818,30016
7819,29888
7820,29952
7821,30144
7822,30592
7823,31040
7824,31296
7825,31360
7826,31552
7827,31872
7828,32128
7829,32320
7830,32512
7831,32768
7832,32896
7833,33024
7834,33216
7835,33472
7836,33600
7837,33600
7838,33728
7839,33920
7840,33984
7841,34048
7842,34112
7843,34368
7844,34688
7845,34752
7846,34752
7847,34880
7848,35008
7849,35008
7850,35200
7851,35392
7852,35392
7853,35328
7854,35328
7855,35392
7856,35456
7857,35328
7858,35200
7859,35264
7860,35456
7861,35392
7862,35072
7863,34880
7864,34688
7865,34240
7866,33856
7867,33664
7868,33664
7869,33472
7870,33216
7871,33024
7872,33024
7873,33088
7874,33152
7875,33280
7876,33280
7877,33152
7878,33024
7879,32960
7880,33024
7881,33152
7882,33408
7883,33664
7884,33792
7885,33728
7886,33536
7887,33344
7888,33280
7889,33472
7890,33536
7891,33600
7892,33792
7893,33984
7894,34048
7895,34048
7896,34048
7897,34176
7898,34304
7899,34368
7900,34304
7901,34304
7902,34368
7903,34368
7904,34368
7905,34368
7906,34368
7907,34176
7908,33984
7909,33984
7910,34112
7911,34240
7912,34304
7913,34304
7914,34304
7915,34304
7916,34176
7917,34112
7918,34304
7919,34304
7920,34048
7921,33984
7922,34048
7923,34112
7924,34176
7925,34240
7926,34432
7927,34560
7928,34624
7929,34688
7930,34816
7931,34880
7932,34816
7933,34880
7934,35136
7935,35328
7936,35392
7937,35136
7938,34944
7939,34880
7940,34752
7941,34496
7942,34304
7943,34240
7944,33984
7945,33664
7946,33600
7947,33664
7948,33600
7949,33472
7950,33600
7951,33792
7952,33792
7953,33536
7954,33152
7955,32832
7956,32768
7957,33216
7958,34176
7959,35712
7960,37632
7961,40064
7962,43136
7963,46464
7964,48576
7965,48384
7966,46528
7967,43712
7968,40448
7969,37120
7970,34112
7971,31872
7972,30592
7973,30016
7974,29632
7975,29568
7976,29888
7977,30144
7978,30336
7979,30656
7980,31104
7981,31616
7982,31872
7983,32000
7984,32192
7985,32448
7986,32576
7987,32640
7988,32832
7989,33024
7990,33152
7991,33216
7992,33408
7993,33664
7994,33728
7995,33792
7996,33920
7997,34176
7998,34432
7999,34560
8000,34624
8001,34816
8002,35008
8003,35072
8004,35136
8005,35328
8006,35520
8007,35584
8008,35520
8009,35456
8010,35520
8011,35456
8012,35392
8013,35392
8014,35456
8015,35328
8016,35072
8017,34944
8018,35008
8019,34880
8020,34560
8021,34240
8022,33920
8023,33728
8024,33472
8025,33216
8026,33152
8027,33088
8028,32960
8029,32832
8030,32896
8031,33024
8032,33024
8033,33024
8034,33088
8035,33216
8036,33280
8037,33280
8038,33280
8039,33280
8040,33216
8041,33280
8042,33408
8043,33600
8044,33664
8045,33600
8046,33472
8047,33536
8048,33728
8049,33856
8050,33984
8051,34048
8052,34176
8053,34240
8054,34240
8055,34240
8056,34304
8057,34304
8058,34176
8059,34304
8060,34496
8061,34368
8062,34112
8063,33984
8064,34176
8065,34304
8066,34368
8067,34304
8068,34304
8069,34240
8070,34112
8071,33984
8072,34048
8073,34240
8074,34240
8075,34176
8076,34240
8077,34368
8078,34432
8079,34432
8080,34560
8081,34560
8082,34432
8083,34432
8084,34624
8085,34752
8086,34816
8087,34752
8088,34752
8089,34944
8090,34944
8091,34880
8092,35008
8093,35200
8094,35264
8095,35008
8096,34752
8097,34560
8098,34432
8099,34112
8100,33920
8101,33920
8102,33920
8103,33792
8104,33600
8105,33536
8106,33536
8107,33600
8108,33600
8109,33600
8110,33472
8111,33152
8112,32896
8113,33280
8114,34688
8115,35712
8116,37312
8117,39680
8118,42944
8119,46336
8120,48320
8121,48448
8122,46848
8123,44032
8124,40512
8125,37056
8126,34176
8127,32128
8128,30720
8129,29824
8130,29760
8131,30016
8132,30336
8133,30464
8134,30592
8135,30976
8136,31232
8137,31424
8138,31808
8139,32320
8140,32512
8141,32448
8142,32448
8143,32704
8144,32896
8145,32896
8146,33088
8147,33344
8148,33600
8149,33536
8150,33600
8151,33856
8152,34176
8153,34304
8154,34368
8155,34560
8156,34752
8157,34816
8158,34880
8159,35008
8160,35200
8161,35392
8162,35392
8163,35264
8164,35200
8165,35200
8166,35200
8167,35264
8168,35456
8169,35520
8170,35392
8171,35200
8172,35200
8173,35136
8174,34944
8175,34688
8176,34496
8177,34304
8178,34048
8179,33792
8180,33600
8181,33472
8182,33280
8183,33024
8184,32896
8185,33024
8186,32960
8187,32768
8188,32832
8189,33152
8190,33152
8191,33024
8192,32960
8193,33088
8194,33152
8195,33216
8196,33344
8197,33600
8198,33664
8199,33664
8200,33728
8201,33856
8202,33920
8203,33856
8204,33856
8205,33920
8206,34112
8207,34112
8208,34176
8209,34176
8210,34240
8211,34240
8212,34368
8213,34432
8214,34496
8215,34432
8216,34240
8217,34112
8218,34240
8219,34304
8220,34240
8221,34176
8222,34240
8223,34240
8224,34176
8225,34112
8226,34240
8227,34304
8228,34304
8229,34176
8230,34112
8231,34240
8232,34304
8233,34368
8234,34624
8235,34816
8236,34944
8237,34880
8238,34816
8239,34816
8240,34752
8241,34688
8242,34752
8243,35008
8244,35264
8245,35328
8246,35264
8247,35200
8248,34944
8249,34432
8250,34048
8251,33856
8252,33792
8253,33664
8254,33536
8255,33536
8256,33728
8257,33856
8258,33920
8259,33920
8260,33792
8261,33536
8262,33088
8263,32704
8264,32896
8265,33344
8266,34304
8267,35840
8268,37888
8269,40512
8270,43456
8271,46080
8272,47296
8273,46848
8274,44864
8275,41920
8276,38848
8277,36032
8278,33536
8279,31360
8280,30976
8281,30592
8282,30336
8283,30208
8284,30336
8285,30656
8286,30848
8287,30976
8288,31232
8289,31680
8290,32064
8291,32320
8292,32384
8293,32640
8294,32960
8295,33152
8296,33152
8297,33152
8298,33280
8299,33472
8300,33664
8301,33856
8302,34048
8303,34112
8304,34240
8305,34432
8306,34496
8307,34432
8308,34560
8309,34688
8310,34816
8311,34944
8312,35072
8313,35200
8314,35328
8315,35392
8316,35328
8317,35328
8318,35456
8319,35584
8320,35584
8321,35456
8322,35456
8323,35328
8324,35008
8325,34752
8326,34624
8327,34496
8328,34240
8329,33920
8330,33792
8331,33792
8332,33664
8333,33472
8334,33280
8335,33280
8336,33152
8337,33088
8338,33024
8339,33088
8340,33024
8341,32960
8342,33024
8343,33280
8344,33408
8345,33280
8346,33152
8347,33216
8348,33408
8349,33472
8350,33536
8351,33600
8352,33728
8353,33856
8354,33920
8355,33984
8356,34112
8357,34112
8358,34048
8359,34048
8360,34240
8361,34368
8362,34240
8363,34176
8364,34240
8365,34304
8366,34240
8367,34240
8368,34432
8369,34560
8370,34624
8371,34560
8372,34560
8373,34496
8374,34304
8375,34176
8376,34240
8377,34368
8378,34368
8379,34176
8380,34176
8381,34368
8382,34432
8383,34304
8384,34496
8385,34688
8386,34880
8387,34880
8388,34752
8389,34752
8390,34944
8391,35008
8392,35072
8393,35136
8394,35136
8395,35072
8396,34880
8397,34752
8398,34560
8399,34240
8400,33920
8401,33792
8402,33728
8403,33536
8404,33536
8405,33600
8406,33728
8407,33664
8408,33600
8409,33664
8410,33536
8411,33216
8412,32704
8413,32768
8414,34112
8415,34816
8416,36352
8417,38528
8418,41280
8419,44544
8420,47104
8421,48000
8422,47232
8423,44800
8424,41600
8425,38208
8426,35200
8427,32896
8428,31360
8429,30400
8430,30080
8431,30144
8432,30208
8433,30336
8434,30592
8435,30976
8436,31296
8437,31424
8438,31616
8439,31872
8440,32128
8441,32320
8442,32576
8443,32832
8444,33024
8445,33024
8446,33088
8447,33344
8448,33600
8449,33728
8450,33728
8451,33792
8452,33984
8453,34176
8454,34368
8455,34560
8456,34816
8457,34752
8458,34624
8459,34688
8460,34880
8461,35136
8462,35264
8463,35328
8464,35392
8465,35456
8466,35520
8467,35584
8468,35712
8469,35648
8470,35392
8471,35200
8472,35008
8473,34816
8474,34624
8475,34368
8476,34240
8477,34112
8478,33984
8479,33856
8480,33728
8481,33600
8482,33344
8483,33088
8484,33024
8485,33088
8486,33216
8487,33152
8488,33088
8489,33152
8490,33088
8491,33024
8492,33024
8493,33088
8494,33152
8495,33088
8496,33152
8497,33472
8498,33792
8499,33856
8500,33792
8501,33792
8502,33856
8503,33984
8504,34048
8505,34112
8506,34112
8507,33984
8508,33856
8509,33984
8510,34304
8511,34304
8512,34112
8513,34112
8514,34240
8515,34368
8516,34240
8517,34240
8518,34496
8519,34752
8520,34688
8521,34624
8522,34624
8523,34624
8524,34304
8525,34112
8526,34176
8527,34368
8528,34368
8529,34176
8530,34048
8531,34176
8532,34304
8533,34432
8534,34496
8535,34624
8536,34752
8537,34688
8538,34816
8539,34880
8540,34752
8541,34560
8542,34560
8543,34752
8544,34944
8545,35008
8546,35136
8547,35200
8548,35072
8549,34496
8550,34240
8551,34048
8552,33984
8553,33920
8554,33664
8555,33664
8556,33728
8557,33664
8558,33664
8559,33856
8560,33984
8561,33856
8562,33472
8563,33024
8564,32832
8565,32896
8566,33408
8567,34496
8568,36224
8569,38464
8570,41152
8571,44416
8572,47360
8573,48640
8574,48128
8575,45824
8576,42624
8577,39232
8578,36096
8579,33024
8580,31360
8581,30336
8582,29824
8583,29696
8584,29824
8585,30080
8586,30272
8587,30400
8588,30656
8589,31040
8590,31424
8591,31680
8592,31936
8593,32256
8594,32512
8595,32640
8596,32832
8597,33152
8598,33344
8599,33280
8600,33280
8601,33408
8602,33728
8603,33920
8604,34048
8605,34112
8606,34240
8607,34432
8608,34496
8609,34688
8610,34880
8611,34880
8612,34752
8613,34880
8614,35136
8615,35328
8616,35520
8617,35712
8618,35776
8619,35712
8620,35520
8621,35520
8622,35456
8623,35392
8624,35200
8625,34944
8626,34816
8627,34752
8628,34624
8629,34304
8630,34048
8631,33984
8632,33792
8633,33472
8634,33280
8635,33216
8636,33088
8637,32832
8638,32768
8639,32960
8640,33024
8641,32896
8642,33088
8643,33280
8644,33280
8645,33216
8646,33216
8647,33280
8648,33408
8649,33472
8650,33536
8651,33728
8652,33856
8653,33856
8654,33856
8655,33920
8656,34048
8657,34048
8658,33984
8659,33984
8660,34112
8661,34112
8662,34112
8663,34240
8664,34432
8665,34560
8666,34496
8667,34368
8668,34368
8669,34432
8670,34368
8671,34240
8672,34304
8673,34304
8674,34240
8675,34112
8676,34112
8677,34112
8678,34048
8679,34048
8680,34176
8681,34304
8682,34368
8683,34240
8684,34176
8685,34304
8686,34432
8687,34432
8688,34560
8689,34688
8690,34816
8691,34752
8692,34752
8693,34880
8694,34944
8695,34816
8696,34688
8697,34880
8698,35008
8699,35072
8700,35072
8701,35008
8702,35008
8703,34880
8704,34624
8705,34304
8706,34112
8707,33920
8708,33728
8709,33664
8710,33728
8711,33728
8712,33728
8713,33664
8714,33664
8715,33664
8716,33408
8717,33088
8718,32832
8719,33024
8720,33728
8721,34752
8722,36352
8723,38592
8724,41408
8725,44672
8726,47296
8727,48320
8728,47488
8729,44992
8730,41856
8731,38528
8732,35584
8733,33216
8734,31552
8735,30656
8736,30080
8737,29696
8738,29696
8739,30080
8740,30592
8741,30848
8742,31040
8743,31424
8744,31680
8745,31744
8746,31936
8747,32256
8748,32704
8749,32896
8750,32896
8751,33088
8752,33344
8753,33408
8754,33408
8755,33728
8756,34048
8757,34048
8758,33856
8759,33920
8760,34112
8761,34176
8762,34176
8763,34304
8764,34496
8765,34816
8766,34944
8767,35072
8768,35264
8769,35520
8770,35584
8771,35456
8772,35584
8773,35776
8774,35776
8775,35648
8776,35456
8777,35328
8778,35200
8779,34944
8780,34752
8781,34624
8782,34304
8783,33984
8784,33792
8785,33728
8786,33728
8787,33472
8788,33216
8789,33088
8790,33088
8791,32896
8792,32896
8793,33024
8794,33152
8795,33280
8796,33408
8797,33472
8798,33408
8799,33280
8800,33088
8801,33088
8802,33216
8803,33280
8804,33280
8805,33280
8806,33408
8807,33664
8808,33792
8809,33856
8810,33984
8811,33984
8812,33920
8813,33920
8814,34176
8815,34304
8816,34240
8817,34240
8818,34496
8819,34560
8820,34368
8821,34304
8822,34432
8823,34560
8824,34624
8825,34432
8826,34304
8827,34240
8828,34112
8829,34048
8830,34048
8831,34176
8832,34240
8833,34176
8834,34112
8835,34304
8836,34432
8837,34432
8838,34432
8839,34688
8840,34816
8841,34688
8842,34560
8843,34624
8844,34752
8845,34752
8846,34816
8847,35136
8848,35392
8849,35264
8850,35008
8851,34944
8852,35008
8853,34944
8854,34560
8855,34240
8856,34176
8857,34112
8858,33856
8859,33856
8860,33920
8861,33792
8862,33536
8863,33600
8864,33664
8865,33536
8866,33408
8867,33344
8868,32960
8869,33088
8870,33664
8871,34880
8872,36672
8873,38784
8874,41408
8875,44480
8876,46848
8877,47424
8878,46400
8879,43712
8880,43264
8881,37952
8882,35072
8883,32832
8884,31424
8885,30720
8886,30400
8887,30272
8888,30400
8889,30464
8890,30528
8891,30720
8892,31104
8893,31616
8894,31808
8895,32000
8896,32256
8897,32448
8898,32576
8899,32768
8900,33024
8901,33280
8902,33408
8903,33536
8904,33472
8905,34048
8906,34176
8907,34048
8908,34048
8909,34368
8910,34432
8911,34368
8912,34432
8913,34688
8914,34752
8915,34752
8916,34752
8917,34880
8918,35136
8919,35136
8920,35264
8921,35456
8922,35648
8923,35584
8924,35456
8925,35456
8926,35456
8927,35264
8928,35072
8929,35072
8930,35200
8931,35200
8932,34752
8933,34240
8934,34112
8935,33600
8936,33408
8937,33216
8938,33088
8939,33024
8940,32896
8941,32768
8942,32896
8943,33024
8944,33024
8945,32896
8946,33024
8947,33216
8948,33344
8949,33344
8950,33600
8951,33856
8952,33792
8953,33536
8954,33536
8955,33728
8956,33856
8957,33664
8958,33600
8959,33792
8960,33984
8961,33984
8962,33984
8963,34112
8964,34112
8965,34304
8966,34240
8967,34368
8968,34496
8969,34368
8970,34304
8971,34432
8972,34688
8973,34944
8974,34816
8975,34496
8976,34304
8977,34240
8978,34112
8979,34112
8980,34240
8981,34304
8982,34240
8983,34240
8984,34368
8985,34496
8986,34432
8987,34432
8988,34624
8989,34880
8990,34816
8991,34816
8992,34944
8993,35008
8994,34752
8995,34496
8996,34560
8997,34816
8998,34880
8999,34880
9000,34880
9001,35008
9002,35072
9003,34880
9004,34624
9005,34368
9006,34048
9007,33664
9008,33536
9009,33600
9010,33600
9011,33536
9012,33600
9013,33664
9014,33856
9015,33728
9016,33408
9017,33024
9018,32704
9019,32704
9020,33216
9021,34304
9022,35840
9023,37824
9024,40448
9025,43648
9026,46720
9027,48128
9028,47744
9029,45824
9030,42944
9031,39680
9032,36416
9033,33792
9034,31936
9035,30784
9036,30208
9037,29952
9038,29952
9039,30016
9040,30080
9041,30208
9042,30464
9043,30848
9044,31296
9045,31616
9046,31936
9047,32192
9048,32384
9049,32576
9050,32768
9051,33216
9052,33472
9053,33472
9054,33472
9055,33664
9056,33856
9057,33920
9058,33856
9059,33920
9060,34048
9061,34048
9062,34240
9063,34432
9064,34624
9065,34816
9066,34880
9067,35008
9068,35200
9069,35392
9070,35520
9071,35712
9072,35840
9073,35904
9074,35968
9075,35776
9076,35648
9077,35456
9078,35136
9079,34816
9080,34624
9081,34496
9082,34304
9083,34112
9084,34048
9085,33920
9086,33664
9087,33408
9088,33216
9089,33152
9090,33024
9091,32896
9092,32896
9093,33088
9094,33152
9095,33152
9096,33152
9097,33280
9098,33344
9099,33280
9100,33280
9101,33280
9102,33280
9103,33280
9104,33344
9105,33600
9106,33792
9107,33792
9108,33728
9109,33920
9110,33984
9111,33920
9112,33984
9113,34176
9114,34240
9115,34304
9116,34304
9117,34304
9118,34368
9119,34304
9120,34368
9121,34368
9122,34304
9123,34112
9124,33984
9125,34112
9126,34304
9127,34368
9128,34304
9129,34240
9130,34368
9131,34432
9132,34368
9133,34240
9134,34240
9135,34432
9136,34496
9137,34304
9138,34304
9139,34432
9140,34304
9141,34112
9142,34112
9143,34048
9144,33920
9145,33920
9146,34112
9147,34368
9148,34432
9149,34432
9150,34624
9151,34944
9152,35072
9153,35008
9154,34944
9155,34944
9156,35008
9157,34944
9158,34880
9159,34944
9160,35008
9161,35008
9162,35008
9163,35072
9164,34880
9165,34496
9166,34176
9167,33856
9168,33664
9169,33408
9170,33344
9171,33536
9172,33728
9173,33792
9174,33856
9175,33920
9176,33984
9177,33792
9178,33280
9179,32896
9180,32960
9181,33536
9182,34496
9183,35904
9184,37888
9185,40640
9186,43968
9187,47104
9188,48768
9189,48576
9190,46400
9191,43136
9192,39680
9193,36416
9194,33664
9195,31808
9196,30784
9197,30080
9198,29760
9199,29568
9200,29760
9201,30208
9202,30528
9203,30656
9204,30976
9205,31424
9206,31744
9207,31936
9208,32256
9209,32640
9210,32832
9211,32896
9212,32960
9213,33216
9214,33408
9215,33408
9216,33536
9217,33856
9218,34176
9219,34240
9220,34240
9221,34240
9222,34368
9223,34432
9224,34496
9225,34688
9226,34944
9227,35008
9228,35072
9229,35200
9230,35456
9231,35712
9232,35776
9233,35840
9234,35904
9235,35904
9236,35648
9237,35456
9238,35328
9239,35392
9240,35264
9241,35008
9242,34816
9243,34624
9244,34368
9245,34048
9246,33920
9247,33792
9248,33472
9249,33088
9250,33024
9251,32960
9252,32896
9253,32832
9254,33024
9255,33280
9256,33216
9257,33088
9258,33024
9259,33088
9260,33088
9261,33024
9262,33152
9263,33472
9264,33664
9265,33536
9266,33472
9267,33600
9268,33856
9269,33856
9270,33856
9271,33984
9272,34176
9273,34240
9274,34240
9275,34176
9276,34240
9277,34176
9278,34304
9279,34432
9280,34432
9281,34304
9282,34112
9283,34112
9284,34304
9285,34496
9286,34432
9287,34304
9288,34432
9289,34432
9290,34240
9291,34048
9292,34112
9293,34240
9294,34240
9295,34176
9296,34240
9297,34432
9298,34496
9299,34432
9300,34432
9301,34432
9302,34496
9303,34368
9304,34304
9305,34368
9306,34368
9307,34304
9308,34240
9309,34176
9310,34240
9311,34240
9312,34176
9313,34112
9314,34176
9315,34112
9316,34112
9317,34176
9318,34304
9319,34432
9320,34560
9321,34752
9322,34944
9323,34880
9324,34752
9325,34816
9326,34944
9327,35072
9328,34944
9329,34944
9330,35136
9331,35136
9332,35008
9333,34880
9334,34944
9335,34944
9336,34880
9337,34816
9338,34688
9339,34368
9340,33984
9341,33728
9342,33664
9343,33728
9344,33728
9345,33728
9346,33920
9347,34112
9348,34048
9349,33792
9350,33600
9351,33472
9352,33088
9353,32896
9354,33472
9355,34688
9356,36416
9357,38592
9358,41408
9359,44800
9360,47488
9361,48384
9362,47424
9363,45120
9364,41984
9365,38656
9366,35520
9367,33024
9368,31232
9369,30464
9370,30016
9371,29888
9372,30016
9373,30144
9374,30464
9375,30848
9376,31232
9377,31424
9378,31488
9379,31744
9380,32064
9381,32256
9382,32384
9383,32512
9384,32768
9385,33088
9386,33152
9387,33280
9388,33536
9389,33792
9390,33856
9391,33856
9392,33984
9393,34112
9394,34048
9395,34048
9396,34240
9397,34496
9398,34688
9399,34880
9400,35072
9401,35264
9402,35264
9403,35264
9404,35328
9405,35456
9406,35520
9407,35584
9408,35584
9409,35584
9410,35456
9411,35136
9412,35008
9413,35072
9414,35008
9415,34816
9416,34560
9417,34368
9418,34304
9419,34048
9420,33728
9421,33408
9422,33280
9423,33152
9424,32896
9425,32896
9426,33088
9427,33088
9428,32960
9429,33088
9430,33216
9431,33152
9432,33024
9433,33152
9434,33408
9435,33472
9436,33408
9437,33344
9438,33536
9439,33664
9440,33664
9441,33600
9442,33664
9443,33792
9444,33920
9445,33920
9446,33984
9447,34176
9448,34176
9449,34112
9450,34176
9451,34432
9452,34496
9453,34432
9454,34368
9455,34560
9456,34688
9457,34688
9458,34496
9459,34304
9460,34176
9461,34048
9462,34048
9463,34176
9464,34240
9465,34176
9466,34176
9467,34368
9468,34496
9469,34368
9470,34240
9471,34240
9472,34368
9473,34304
9474,34176
9475,34176
9476,34240
9477,34304
9478,34240
9479,34304
9480,34304
9481,34176
9482,33984
9483,34048
9484,34368
9485,34560
9486,34624
9487,34688
9488,34816
9489,34944
9490,34944
9491,35008
9492,35072
9493,35136
9494,35008
9495,34944
9496,35136
9497,35392
9498,35200
9499,34816
9500,34560
9501,34432
9502,34176
9503,33792
9504,33664
9505,33600
9506,33600
9507,33536
9508,33664
9509,33856
9510,33920
9511,33792
9512,33664
9513,33600
9514,33344
9515,33088
9516,33216
9517,34048
9518,35328
9519,37056
9520,39424
9521,42432
9522,45632
9523,47296
9524,47296
9525,45696
9526,43200
9527,40128
9528,36992
9529,34368
9530,32448
9531,31232
9532,30528
9533,30208
9534,30144
9535,30272
9536,30400
9537,30656
9538,31104
9539,31616
9540,31808
9541,31936
9542,32256
9543,32576
9544,32512
9545,32512
9546,32704
9547,32960
9548,33152
9549,33280
9550,33472
9551,33792
9552,33984
9553,33984
9554,33984
9555,34048
9556,34112
9557,34176
9558,34368
9559,34688
9560,35008
9561,35200
9562,35200
9563,35136
9564,35264
9565,35328
9566,35392
9567,35584
9568,35648
9569,35648
9570,35648
9571,35712
9572,35648
9573,35392
9574,35200
9575,35072
9576,35008
9577,34816
9578,34624
9579,34496
9580,34432
9581,34240
9582,33920
9583,33728
9584,33600
9585,33344
9586,32960
9587,32896
9588,32960
9589,32960
9590,32960
9591,32960
9592,33088
9593,33152
9594,33024
9595,33024
9596,33216
9597,33472
9598,33600
9599,33536
9600,33536
9601,33600
9602,33664
9603,33536
9604,33600
9605,33856
9606,34048
9607,34112
9608,34304
9609,34368
9610,34368
9611,34368
9612,34368
9613,34368
9614,34304
9615,34304
9616,34176
9617,34240
9618,34368
9619,34304
9620,34176
9621,34304
9622,34432
9623,34496
9624,34432
9625,34432
9626,34560
9627,34624
9628,34496
9629,34368
9630,34432
9631,34368
9632,34176
9633,34176
9634,34176
9635,34176
9636,34048
9637,34112
9638,34240
9639,34304
9640,34112
9641,34112
9642,34240
9643,34432
9644,34496
9645,34624
9646,34816
9647,35008
9648,35008
9649,34880
9650,34816
9651,34752
9652,34752
9653,34816
9654,35008
9655,35200
9656,35200
9657,35008
9658,34752
9659,34624
9660,34432
9661,34176
9662,34048
9663,33984
9664,33920
9665,33856
9666,33856
9667,33856
9668,33792
9669,33664
9670,33472
9671,33472
9672,33408
9673,33088
9674,32704
9675,32896
9676,33728
9677,34944
9678,36544
9679,38976
9680,41856
9681,45056
9682,47680
9683,48576
9684,47744
9685,45312
9686,42048
9687,38528
9688,35328
9689,32640
9690,31104
9691,30080
9692,29696
9693,29696
9694,29824
9695,30016
9696,30336
9697,30720
9698,31104
9699,31424
9700,31680
9701,32064
9702,32384
9703,32448
9704,32512
9705,32704
9706,32896
9707,33024
9708,33216
9709,33536
9710,33728
9711,33664
9712,33664
9713,33728
9714,33856
9715,33984
9716,34112
9717,34368
9718,34560
9719,34688
9720,34816
9721,35072
9722,35392
9723,35392
9724,35328
9725,35328
9726,35520
9727,35712
9728,35712
9729,35648
9730,35648
9731,35776
9732,35584
9733,35392
9734,35328
9735,35328
9736,35008
9737,34752
9738,34560
9739,34432
9740,34112
9741,33920
9742,33792
9743,33600
9744,33280
9745,33024
9746,32896
9747,32896
9748,32896
9749,32896
9750,32960
9751,33152
9752,33216
9753,33088
9754,33024
9755,33088
9756,33216
9757,33216
9758,33280
9759,33408
9760,33472
9761,33536
9762,33600
9763,33856
9764,34048
9765,33920
9766,33792
9767,33920
9768,34048
9769,33984
9770,33856
9771,33984
9772,34240
9773,34496
9774,34496
9775,34496
9776,34432
9777,34240
9778,34112
9779,34112
9780,34240
9781,34432
9782,34496
9783,34432
9784,34496
9785,34560
9786,34496
9787,34368
9788,34304
9789,34240
9790,34240
9791,34112
9792,34176
9793,34304
9794,34304
9795,34176
9796,34176
9797,34368
9798,34432
9799,34304
9800,34176
9801,34240
9802,34240
9803,34176
9804,34176
9805,34304
9806,34496
9807,34496
9808,34496
9809,34688
9810,34752
9811,34688
9812,34688
9813,34816
9814,35008
9815,34944
9816,34944
9817,34944
9818,35072
9819,35072
9820,35008
9821,35072
9822,35200
9823,35072
9824,34752
9825,34368
9826,34176
9827,34048
9828,33856
9829,33664
9830,33600
9831,33536
9832,33536
9833,33664
9834,33920
9835,33920
9836,33664
9837,33408
9838,33088
9839,32896
9840,33088
9841,33856
9842,35328
9843,37312
9844,39616
9845,42432
9846,45824
9847,48128
9848,48640
9849,46976
9850,44480
9851,41152
9852,37760
9853,34752
9854,32128
9855,31040
9856,30272
9857,30016
9858,30016
9859,30144
9860,30272
9861,30336
9862,30400
9863,30784
9864,31296
9865,31616
9866,31744
9867,32000
9868,32320
9869,32448
9870,32512
9871,32768
9872,33152
9873,33344
9874,33280
9875,33408
9876,33664
9877,33856
9878,33920
9879,34048
9880,34240
9881,34304
9882,34240
9883,34304
9884,34688
9885,35008
9886,35072
9887,35072
9888,35264
9889,35456
9890,35456
9891,35520
9892,35712
9893,35840
9894,35840
9895,35648
9896,35520
9897,35456
9898,35328
9899,35136
9900,35072
9901,35008
9902,34880
9903,34560
9904,34304
9905,34176
9906,33984
9907,33600
9908,33408
9909,33344
9910,33216
9911,32960
9912,32832
9913,32832
9914,32832
9915,32768
9916,32640
9917,32832
9918,33088
9919,33088
9920,33152
9921,33280
9922,33408
9923,33408
9924,33408
9925,33536
9926,33792
9927,33920
9928,33984
9929,33920
9930,33856
9931,33984
9932,33920
9933,33984
9934,34112
9935,34112
9936,33984
9937,34048
9938,34240
9939,34432
9940,34368
9941,34240
9942,34368
9943,34496
9944,34496
9945,34432
9946,34496
9947,34560
9948,34432
9949,34304
9950,34304
9951,34432
9952,34368
9953,34176
9954,34112
9955,34368
9956,34560
9957,34432
9958,34176
9959,34112
9960,34176
9961,34112
9962,33984
9963,34112
9964,34240
9965,34240
9966,34240
9967,34368
9968,34432
9969,34304
9970,34112
9971,34176
9972,34304
9973,34304
9974,34368
9975,34432
9976,34560
9977,34624
9978,34624
9979,34624
9980,34880
9981,35072
9982,34944
9983,34816
9984,34944
9985,35136
9986,35072
9987,34944
9988,35008
9989,35136
9990,35072
9991,34880
9992,34496
9993,34240
9994,33920
9995,33664
9996,33600
9997,33664
9998,33600
9999,33664
10000,33792
10001,33984
10002,34048
10003,33856
10004,33664
10005,33408
10006,33024
10007,32960
10008,33408
10009,34432
10010,35968
10011,37952
10012,40576
10013,43840
10014,46720
10015,47872
10016,47360
10017,45376
10018,42496
10019,38528
10020,36224
10021,33792
10022,32000
10023,30720
10024,30080
10025,29888
10026,30080
10027,30336
10028,30528
10029,30720
10030,31104
10031,31424
10032,31616
10033,31936
10034,32256
10035,32384
10036,32512
10037,32640
10038,32960
10039,33216
10040,33216
10041,33280
10042,33536
10043,33856
10044,33920
10045,33920
10046,34048
10047,34112
10048,34176
10049,34240
10050,34304
10051,34496
10052,34688
10053,34752
10054,35008
10055,35392
10056,35648
10057,35712
10058,35712
10059,35584
10060,35520
10061,35328
10062,35264
10063,35520
10064,35648
10065,35392
10066,35200
10067,35136
10068,35008
10069,34816
10070,34496
10071,34304
10072,34304
10073,34176
10074,33856
10075,33728
10076,33600
10077,33408
10078,33152
10079,33024
10080,33024
10081,33024
10082,32960
10083,32960
10084,33088
10085,33152
10086,33088
10087,33024
10088,33152
10089,33216
10090,33088
10091,33152
10092,33472
10093,33664
10094,33600
10095,33536
10096,33792
10097,34112
10098,34176
10099,34112
10100,33984
10101,34112
10102,34112
10103,34112
10104,34048
10105,34176
10106,34240
10107,34304
10108,34304
10109,34432
10110,34432
10111,34304
10112,34240
10113,34496
10114,34688
10115,34624
10116,34496
10117,34368
10118,34176
10119,34112
10120,34176
10121,34304
10122,34304
10123,34176
10124,34176
10125,34304
10126,34368
10127,34240
10128,34112
10129,34112
10130,34304
10131,34432
10132,34496
10133,34560
10134,34624
10135,34688
10136,34624
10137,34624
10138,34752
10139,34752
10140,34752
10141,34880
10142,35008
10143,35072
10144,35008
10145,35008
10146,35008
10147,35072
10148,35072
10149,34944
10150,34688
10151,34496
10152,34176
10153,33792
10154,33728
10155,33728
10156,33728
10157,33536
10158,33408
10159,33536
10160,33664
10161,33664
10162,33600
10163,33472
10164,33152
10165,33024
10166,33344
10167,34240
10168,35712
10169,38400
10170,40192
10171,43392
10172,46464
10173,48000
10174,47680
10175,45824
10176,43072
10177,39808
10178,36480
10179,33856
10180,31936
10181,30656
10182,30016
10183,29888
10184,30144
10185,30336
10186,30528
10187,30784
10188,31104
10189,31360
10190,31552
10191,31808
10192,32192
10193,32448
10194,32640
10195,32704
10196,32832
10197,33088
10198,33280
10199,33472
10200,33728
10201,33856
10202,33920
10203,33856
10204,33920
10205,34048
10206,34176
10207,34368
10208,34560
10209,34752
10210,34752
10211,34816
10212,34944
10213,35072
10214,35200
10215,35264
10216,35456
10217,35648
10218,35712
10219,35584
10220,35456
10221,35520
10222,35648
10223,35520
10224,35264
10225,35072
10226,34944
10227,34752
10228,34496
10229,34368
10230,34240
10231,34112
10232,33856
10233,33536
10234,33280
10235,33088
10236,32960
10237,32832
10238,32896
10239,32960
10240,32960
10241,32960
10242,33152
10243,33216
10244,33152
10245,33088
10246,33152
10247,33280
10248,33280
10249,33216
10250,33408
10251,33664
10252,33792
10253,33792
10254,33856
10255,33920
10256,33984
10257,33920
10258,33984
10259,34112
10260,34112
10261,33984
10262,33920
10263,34112
10264,34304
10265,34432
10266,34368
10267,34304
10268,34368
10269,34368
10270,34304
10271,34432
10272,34496
10273,34496
10274,34368
10275,34304
10276,34304
10277,34304
10278,34176
10279,34240
10280,34304
10281,34368
10282,34432
10283,34368
10284,34304
10285,34240
10286,34176
10287,33984
10288,34112
10289,34304
10290,34240
10291,34112
10292,34176
10293,34304
10294,34304
10295,34176
10296,34240
10297,34368
10298,34432
10299,34432
10300,34624
10301,34816
10302,34880
10303,34880
10304,34944
10305,35008
10306,35136
10307,35136
10308,35200
10309,35200
10310,35008
10311,34752
10312,34688
10313,34624
10314,34432
10315,34048
10316,33728
10317,33664
10318,33728
10319,33728
10320,33664
10321,33728
10322,33792
10323,33792
10324,33664
10325,33600
10326,33408
10327,33088
10328,32832
10329,33280
10330,34240
10331,35584
10332,37376
10333,39808
10334,44032
10335,46336
10336,48320
10337,48576
10338,47040
10339,44160
10340,40640
10341,37184
10342,34240
10343,32000
10344,30592
10345,30016
10346,29824
10347,29888
10348,29952
10349,30080
10350,30336
10351,30720
10352,31104
10353,31424
10354,31744
10355,32064
10356,32320
10357,32448
10358,32576
10359,32832
10360,33024
10361,33088
10362,33152
10363,33344
10364,33536
10365,33600
10366,33600
10367,33792
10368,33984
10369,34176
10370,34368
10371,34560
10372,34624
10373,34560
10374,34624
10375,34816
10376,35136
10377,35328
10378,35456
10379,35648
10380,35712
10381,35712
10382,35584
10383,35584
10384,35712
10385,35648
10386,35456
10387,35264
10388,35264
10389,35136
10390,34944
10391,34880
10392,34752
10393,34496
10394,33856
10395,33600
10396,33472
10397,33344
10398,33152
10399,32960
10400,33024
10401,33088
10402,33088
10403,32960
10404,33024
10405,33216
10406,33280
10407,33088
10408,32896
10409,32960
10410,33088
10411,33280
10412,33536
10413,33728
10414,33664
10415,33472
10416,33408
10417,33664
10418,33920
10419,34048
10420,33920
10421,33856
10422,33920
10423,33920
10424,34112
10425,34304
10426,34496
10427,34432
10428,34176
10429,34112
10430,34240
10431,34304
10432,34176
10433,34176
10434,34368
10435,34368
10436,34176
10437,34048
10438,34112
10439,34176
10440,34112
10441,34112
10442,34176
10443,34240
10444,34176
10445,34112
10446,34240
10447,34304
10448,34240
10449,34112
10450,34048
10451,34112
10452,34176
10453,34176
10454,34304
10455,34368
10456,34432
10457,34432
10458,34368
10459,34432
10460,34560
10461,34624
10462,34688
10463,34752
10464,34816
10465,34752
10466,34688
10467,34816
10468,35008
10469,35072
10470,35008
10471,35072
10472,35136
10473,34944
10474,34560
10475,34368
10476,34112
10477,33920
10478,33728
10479,33664
10480,33728
10481,33728
10482,33600
10483,33472
10484,33664
10485,33664
10486,33600
10487,33344
10488,33088
10489,32896
10490,33088
10491,33920
10492,35328
10493,37312
10494,39680
10495,42432
10496,45632
10497,47552
10498,47744
10499,44800
10500,43392
10501,40512
10502,37312
10503,34432
10504,32192
10505,31040
10506,30464
10507,30208
10508,30080
10509,30208
10510,30464
10511,30720
10512,31040
10513,31360
10514,31552
10515,31488
10516,31616
10517,31872
10518,32192
10519,32448
10520,32704
10521,32896
10522,33216
10523,33344
10524,33408
10525,33600
10526,33856
10527,34048
10528,34176
10529,34240
10530,34304
10531,34368
10532,34432
10533,34560
10534,34752
10535,34880
10536,34944
10537,35072
10538,35264
10539,35456
10540,35520
10541,35456
10542,35520
10543,35584
10544,35520
10545,35456
10546,35392
10547,35328
10548,35264
10549,35136
10550,35008
10551,34944
10552,34752
10553,34368
10554,34112
10555,33984
10556,33792
10557,33536
10558,33344
10559,33472
10560,33536
10561,33344
10562,33024
10563,32832
10564,32768
10565,32576
10566,32448
10567,32576
10568,32832
10569,33024
10570,33152
10571,33344
10572,33536
10573,33472
10574,33408
10575,33536
10576,33728
10577,33728
10578,33664
10579,33664
10580,33856
10581,33984
10582,33984
10583,34048
10584,34176
10585,34176
10586,33984
10587,33984
10588,34112
10589,34240
10590,34304
10591,34368
10592,34368
10593,34432
10594,34368
10595,34304
10596,34432
10597,34560
10598,34560
10599,34368
10600,34304
10601,34304
10602,34176
10603,34112
10604,34240
10605,34432
10606,34496
10607,34496
10608,34432
10609,34368
10610,34240
10611,34176
10612,34304
10613,34624
10614,34816
10615,34752
10616,34752
10617,34880
10618,35008
10619,35072
10620,35008
10621,35008
10622,35136
10623,35072
10624,34880
10625,34816
10626,34752
10627,34432
10628,34048
10629,33856
10630,33856
10631,33792
10632,33600
10633,33536
10634,33728
10635,33856
10636,33728
10637,33472
10638,33280
10639,33024
10640,32704
10641,32768
10642,33536
10643,34816
10644,36544
10645,38592
10646,41344
10647,44672
10648,47040
10649,47616
10650,46464
10651,44352
10652,41344
10653,38080
10654,35072
10655,32768
10656,31232
10657,30272
10658,29952
10659,30016
10660,30208
10661,30400
10662,30656
10663,31040
10664,31424
10665,31744
10666,32064
10667,32320
10668,32512
10669,32448
10670,32448
10671,32640
10672,32960
10673,33152
10674,33344
10675,33600
10676,33856
10677,33792
10678,33728
10679,33792
10680,33920
10681,34048
10682,34176
10683,34496
10684,34752
10685,34816
10686,35008
10687,35328
10688,35456
10689,35392
10690,35392
10691,35392
10692,35456
10693,35392
10694,35328
10695,35456
10696,35520
10697,35392
10698,35200
10699,35136
10700,35072
10701,34944
10702,34688
10703,34432
10704,34304
10705,33984
10706,33728
10707,33536
10708,33408
10709,33472
10710,33472
10711,33408
10712,33216
10713,33088
10714,32832
10715,32768
10716,32832
10717,32896
10718,32832
10719,32896
10720,33152
10721,33408
10722,33408
10723,33408
10724,33600
10725,33536
10726,33856
10727,33984
10728,34048
10729,34112
10730,34240
10731,34176
10732,34112
10733,34240
10734,34176
10735,33920
10736,33792
10737,33920
10738,34112
10739,34176
10740,34240
10741,34368
10742,34368
10743,34240
10744,34176
10745,34304
10746,34496
10747,34560
10748,34560
10749,34496
10750,34560
10751,34560
10752,34560
10753,34496
10754,34368
10755,34112
10756,33920
10757,33920
10758,34048
10759,34176
10760,34112
10761,34112
10762,34368
10763,34624
10764,34624
10765,34560
10766,34688
10767,34752
10768,34688
10769,34624
10770,34752
10771,35072
10772,35328
10773,35392
10774,35392
10775,35200
10776,35008
10777,34752
10778,34688
10779,34624
10780,34368
10781,34048
10782,33856
10783,33792
10784,33792
10785,33728
10786,33728
10787,33856
10788,33856
10789,33728
10790,33728
10791,33856
10792,33600
10793,33024
10794,32576
10795,32896
10796,33792
10797,35136
10798,36992
10799,39680
10800,40000
10801,45888
10802,47872
10803,48192
10804,46848
10805,44224
10806,40960
10807,37696
10808,34688
10809,32448
10810,30848
10811,30016
10812,29888
10813,30016
10814,30144
10815,30272
10816,30656
10817,30976
10818,31104
10819,31232
10820,31552
10821,32064
10822,32320
10823,32448
10824,32576
10825,32832
10826,33088
10827,33152
10828,33216
10829,33408
10830,33536
10831,33472
10832,33664
10833,33984
10834,34176
10835,34240
10836,34176
10837,34304
10838,34560
10839,34752
10840,34816
10841,34944
10842,35136
10843,35200
10844,35200
10845,35328
10846,35584
10847,35712
10848,35776
10849,35712
10850,35648
10851,35520
10852,35328
10853,35200
10854,35072
10855,35008
10856,34944
10857,34752
10858,34496
10859,34112
10860,33728
10861,33472
10862,33408
10863,33408
10864,33280
10865,33024
10866,32960
10867,32960
10868,32832
10869,32832
10870,32832
10871,32896
10872,32896
10873,32832
10874,33024
10875,33280
10876,33472
10877,33408
10878,33280
10879,33344
10880,33344
10881,33408
10882,33472
10883,33600
10884,33600
10885,33536
10886,33600
10887,33856
10888,34048
10889,34176
10890,34304
10891,34496
10892,34432
10893,34240
10894,34176
10895,34304
10896,34432
10897,34496
10898,34304
10899,34304
10900,34368
10901,34368
10902,34240
10903,34240
10904,34304
10905,34368
10906,34304
10907,34304
10908,34432
10909,34368
10910,34240
10911,34112
10912,34368
10913,34624
10914,34624
10915,34368
10916,34176
10917,34112
10918,33984
10919,33792
10920,33984
10921,34176
10922,34176
10923,34176
10924,34176
