,ECG
0,-74
1,-81
2,-85
3,-86
4,-84
5,-77
6,-71
7,-69
8,-72
9,-79
10,-91
11,-100
12,-105
13,-106
14,-101
15,-94
16,-90
17,-89
18,-89
19,-90
20,-92
21,-93
22,-94
23,-92
24,-93
25,-96
26,-97
27,-98
28,-99
29,-93
30,-87
31,-82
32,-79
33,-80
34,-83
35,-88
36,-91
37,-88
38,-82
39,-78
40,-75
41,-77
42,-85
43,-94
44,-100
45,-107
46,-107
47,-104
48,-98
49,-90
50,-87
51,-88
52,-90
53,-93
54,-93
55,-90
56,-87
57,-87
58,-88
59,-90
60,-92
61,-92
62,-90
63,-87
64,-82
65,-82
66,-86
67,-91
68,-93
69,-91
70,-86
71,-76
72,-67
73,-62
74,-61
75,-64
76,-68
77,-69
78,-69
79,-68
80,-64
81,-57
82,-52
83,-52
84,-55
85,-58
86,-63
87,-65
88,-63
89,-55
90,-45
91,-38
92,-35
93,-35
94,-38
95,-40
96,-39
97,-34
98,-28
99,-19
100,-17
101,-20
102,-26
103,-32
104,-36
105,-38
106,-37
107,-34
108,-31
109,-29
110,-28
111,-26
112,-27
113,-27
114,-28
115,-30
116,-31
117,-31
118,-29
119,-26
120,-21
121,-17
122,-14
123,-12
124,-14
125,-18
126,-22
127,-26
128,-24
129,-20
130,-12
131,-5
132,0
133,4
134,1
135,2
136,6
137,12
138,23
139,31
140,34
141,32
142,23
143,12
144,5
145,4
146,6
147,13
148,21
149,24
150,22
151,19
152,16
153,15
154,17
155,21
156,23
157,22
158,14
159,3
160,-6
161,-16
162,-22
163,-20
164,-15
165,-12
166,-11
167,-14
168,-17
169,-17
170,-17
171,-13
172,-9
173,-6
174,-6
175,-7
176,-10
177,-13
178,-14
179,-9
180,-3
181,1
182,4
183,3
184,0
185,-4
186,-4
187,-1
188,7
189,24
190,49
191,84
192,127
193,176
194,234
195,299
196,371
197,453
198,539
199,623
200,699
201,762
202,815
203,800
204,754
205,675
206,568
207,440
208,303
209,171
210,56
211,-30
212,-86
213,-112
214,-118
215,-111
216,-100
217,-95
218,-96
219,-96
220,-96
221,-96
222,-96
223,-94
224,-91
225,-93
226,-96
227,-97
228,-95
229,-91
230,-87
231,-84
232,-81
233,-81
234,-84
235,-88
236,-88
237,-85
238,-75
239,-68
240,-65
241,-64
242,-67
243,-74
244,-78
245,-81
246,-80
247,-77
248,-73
249,-71
250,-73
251,-78
252,-83
253,-81
254,-75
255,-69
256,-59
257,-53
258,-52
259,-55
260,-61
261,-66
262,-69
263,-69
264,-64
265,-58
266,-56
267,-58
268,-61
269,-64
270,-61
271,-54
272,-34
273,-26
274,-24
275,-27
276,-33
277,-40
278,-43
279,-39
280,-30
281,-19
282,-9
283,-3
284,-2
285,-1
286,-3
287,-7
288,-8
289,-6
290,-5
291,-5
292,-7
293,-9
294,-8
295,-4
296,2
297,13
298,22
299,27
300,31
301,30
302,28
303,31
304,37
305,47
306,67
307,72
308,72
309,69
310,66
311,65
312,66
313,72
314,76
315,75
316,70
317,61
318,53
319,49
320,49
321,55
322,61
323,65
324,67
325,65
326,60
327,56
328,53
329,51
330,50
331,46
332,43
333,36
334,26
335,19
336,15
337,12
338,9
339,4
340,-2
341,-22
342,-33
343,-42
344,-49
345,-52
346,-55
347,-58
348,-65
349,-76
350,-84
351,-89
352,-92
353,-94
354,-95
355,-97
356,-102
357,-110
358,-120
359,-131
360,-140
361,-142
362,-140
363,-140
364,-133
365,-127
366,-125
367,-123
368,-125
369,-129
370,-132
371,-134
372,-136
373,-136
374,-136
375,-138
376,-146
377,-151
378,-152
379,-150
380,-145
381,-140
382,-138
383,-139
384,-141
385,-144
386,-146
387,-145
388,-144
389,-140
390,-137
391,-136
392,-138
393,-140
394,-141
395,-138
396,-133
397,-123
398,-115
399,-110
400,-109
401,-110
402,-114
403,-117
404,-117
405,-118
406,-116
407,-115
408,-117
409,-120
410,-127
411,-124
412,-119
413,-111
414,-103
415,-97
416,-100
417,-105
418,-114
419,-124
420,-131
421,-135
422,-136
423,-136
424,-138
425,-144
426,-148
427,-150
428,-149
429,-144
430,-137
431,-130
432,-126
433,-128
434,-135
435,-141
436,-144
437,-143
438,-137
439,-126
440,-116
441,-112
442,-116
443,-122
444,-133
445,-136
446,-134
447,-128
448,-122
449,-119
450,-119
451,-121
452,-123
453,-125
454,-124
455,-121
456,-120
457,-120
458,-122
459,-124
460,-125
461,-123
462,-120
463,-114
464,-110
465,-109
466,-113
467,-119
468,-125
469,-128
470,-127
471,-123
472,-116
473,-112
474,-110
475,-111
476,-114
477,-119
478,-120
479,-116
480,-112
481,-111
482,-113
483,-115
484,-115
485,-114
486,-112
487,-110
488,-108
489,-108
490,-112
491,-118
492,-125
493,-130
494,-132
495,-129
496,-120
497,-112
498,-111
499,-110
500,-112
501,-117
502,-122
503,-123
504,-120
505,-120
506,-114
507,-110
508,-109
509,-109
510,-115
511,-124
512,-130
513,-127
514,-121
515,-114
516,-108
517,-106
518,-109
519,-113
520,-115
521,-116
522,-115
523,-114
524,-113
525,-114
526,-117
527,-122
528,-126
529,-127
530,-126
531,-123
532,-120
533,-119
534,-120
535,-122
536,-123
537,-124
538,-123
539,-120
540,-117
541,-112
542,-110
543,-110
544,-112
545,-117
546,-122
547,-127
548,-143
549,-150
550,-159
551,-168
552,-173
553,-174
554,-171
555,-167
556,-163
557,-160
558,-159
559,-160
560,-161
561,-162
562,-161
563,-159
564,-156
565,-153
566,-154
567,-156
568,-156
569,-153
570,-147
571,-142
572,-138
573,-135
574,-135
575,-137
576,-140
577,-138
578,-133
579,-114
580,-82
581,-42
582,55
583,112
584,173
585,240
586,314
587,395
588,476
589,549
590,607
591,639
592,640
593,613
594,559
595,475
596,370
597,253
598,131
599,17
600,-81
601,-159
602,-209
603,-234
604,-237
605,-228
606,-216
607,-210
608,-209
609,-209
610,-210
611,-209
612,-204
613,-196
614,-186
615,-178
616,-172
617,-175
618,-178
619,-179
620,-177
621,-170
622,-164
623,-158
624,-157
625,-159
626,-163
627,-167
628,-167
629,-166
630,-166
631,-165
632,-162
633,-162
634,-164
635,-164
636,-160
637,-154
638,-144
639,-137
640,-131
641,-128
642,-130
643,-134
644,-136
645,-138
646,-135
647,-135
648,-127
649,-120
650,-115
651,-114
652,-119
653,-119
654,-115
655,-108
656,-100
657,-93
658,-89
659,-90
660,-95
661,-99
662,-100
663,-95
664,-87
665,-80
666,-76
667,-76
668,-78
669,-81
670,-83
671,-82
672,-77
673,-70
674,-65
675,-61
676,-60
677,-63
678,-64
679,-63
680,-58
681,-52
682,-47
683,-40
684,-34
685,-31
686,-28
687,-24
688,-20
689,-17
690,-13
691,-10
692,-7
693,-4
694,1
695,9
696,16
697,23
698,29
699,33
700,35
701,33
702,29
703,32
704,35
705,40
706,47
707,54
708,56
709,52
710,45
711,37
712,32
713,31
714,34
715,36
716,35
717,30
718,21
719,8
720,-3
721,-15
722,-16
723,-17
724,-20
725,-29
726,-40
727,-49
728,-56
729,-61
730,-66
731,-70
732,-76
733,-86
734,-101
735,-115
736,-125
737,-133
738,-135
739,-133
740,-133
741,-136
742,-142
743,-150
744,-159
745,-166
746,-171
747,-172
748,-170
749,-168
750,-169
751,-170
752,-172
753,-173
754,-173
755,-165
756,-163
757,-164
758,-165
759,-169
760,-174
761,-174
762,-173
763,-169
764,-163
765,-161
766,-162
767,-166
768,-173
769,-178
770,-177
771,-173
772,-166
773,-161
774,-160
775,-161
776,-165
777,-168
778,-167
779,-163
780,-154
781,-145
782,-139
783,-136
784,-138
785,-143
786,-146
787,-149
788,-150
789,-147
790,-146
791,-145
792,-144
793,-142
794,-142
795,-140
796,-139
797,-138
798,-137
799,-138
800,-141
801,-144
802,-145
803,-142
804,-138
805,-134
806,-129
807,-126
808,-127
809,-133
810,-140
811,-143
812,-142
813,-138
814,-127
815,-116
816,-111
817,-111
818,-114
819,-118
820,-123
821,-123
822,-118
823,-110
824,-100
825,-99
826,-100
827,-100
828,-100
829,-97
830,-92
831,-92
832,-93
833,-94
834,-95
835,-96
836,-92
837,-88
838,-84
839,-83
840,-85
841,-89
842,-95
843,-104
844,-109
845,-109
846,-107
847,-103
848,-97
849,-94
850,-95
851,-99
852,-102
853,-104
854,-105
855,-103
856,-100
857,-96
858,-97
859,-99
860,-101
861,-101
862,-99
863,-93
864,-87
865,-83
866,-83
867,-84
868,-87
869,-88
870,-85
871,-80
872,-74
873,-69
874,-67
875,-67
876,-70
877,-74
878,-75
879,-70
880,-64
881,-58
882,-53
883,-52
884,-57
885,-63
886,-68
887,-72
888,-70
889,-64
890,-59
891,-55
892,-59
893,-63
894,-67
895,-70
896,-70
897,-68
898,-68
899,-69
900,-71
901,-74
902,-76
903,-76
904,-72
905,-67
906,-63
907,-61
908,-61
909,-63
910,-66
911,-68
912,-66
913,-61
914,-56
915,-53
916,-52
917,-53
918,-57
919,-59
920,-59
921,-56
922,-54
923,-51
924,-49
925,-50
926,-53
927,-55
928,-52
929,-46
930,-43
931,-43
932,-43
933,-46
934,-50
935,-53
936,-51
937,-47
938,-37
939,-26
940,-18
941,-14
942,-15
943,-20
944,-25
945,-30
946,-34
947,-38
948,-42
949,-51
950,-64
951,-77
952,-90
953,-97
954,-98
955,-93
956,-82
957,-72
958,-62
959,-56
960,-54
961,-56
962,-57
963,-60
964,-59
965,-62
966,-68
967,-73
968,-77
969,-76
970,-72
971,-65
972,-55
973,-46
974,-42
975,-43
976,-43
977,-41
978,-31
979,-5
980,36
981,88
982,150
983,217
984,286
985,359
986,438
987,520
988,601
989,675
990,730
991,758
992,752
993,710
994,634
995,530
996,281
997,158
998,46
999,-44
1000,-114
1001,-158
1002,-181
1003,-185
1004,-178
1005,-167
1006,-154
1007,-146
1008,-142
1009,-140
1010,-140
1011,-144
1012,-145
1013,-142
1014,-141
1015,-141
1016,-139
1017,-140
1018,-143
1019,-149
1020,-151
1021,-148
1022,-145
1023,-144
1024,-140
1025,-135
1026,-136
1027,-135
1028,-131
1029,-131
1030,-134
1031,-140
1032,-148
1033,-157
1034,-162
1035,-159
1036,-151
1037,-144
1038,-135
1039,-131
1040,-138
1041,-152
1042,-168
1043,-183
1044,-192
1045,-193
1046,-182
1047,-165
1048,-150
1049,-139
1050,-134
1051,-134
1052,-136
1053,-135
1054,-132
1055,-125
1056,-118
1057,-113
1058,-112
1059,-114
1060,-118
1061,-122
1062,-121
1063,-115
1064,-108
1065,-94
1066,-92
1067,-90
1068,-88
1069,-86
1070,-80
1071,-70
1072,-64
1073,-60
1074,-60
1075,-58
1076,-60
1077,-62
1078,-61
1079,-57
1080,-45
1081,-32
1082,-23
1083,-14
1084,-9
1085,-9
1086,-7
1087,-2
1088,3
1089,14
1090,26
1091,37
1092,44
1093,47
1094,45
1095,46
1096,50
1097,55
1098,64
1099,75
1100,87
1101,89
1102,88
1103,90
1104,93
1105,97
1106,102
1107,106
1108,103
1109,95
1110,89
1111,82
1112,74
1113,71
1114,70
1115,68
1116,61
1117,51
1118,41
1119,33
1120,24
1121,20
1122,19
1123,17
1124,10
1125,2
1126,-10
1127,-24
1128,-34
1129,-43
1130,-49
1131,-53
1132,-57
1133,-63
1134,-79
1135,-86
1136,-88
1137,-89
1138,-87
1139,-81
1140,-81
1141,-84
1142,-90
1143,-97
1144,-102
1145,-106
1146,-108
1147,-105
1148,-101
1149,-102
1150,-105
1151,-108
1152,-109
1153,-108
1154,-109
1155,-108
1156,-104
1157,-101
1158,-103
1159,-107
1160,-112
1161,-116
1162,-116
1163,-112
1164,-107
1165,-106
1166,-106
1167,-108
1168,-118
1169,-126
1170,-132
1171,-130
1172,-123
1173,-117
1174,-110
1175,-105
1176,-104
1177,-102
1178,-100
1179,-100
1180,-99
1181,-98
1182,-97
1183,-94
1184,-92
1185,-89
1186,-83
1187,-74
1188,-65
1189,-57
1190,-51
1191,-51
1192,-52
1193,-54
1194,-53
1195,-46
1196,-37
1197,-27
1198,-19
1199,-15
1200,-16
1201,-21
1202,-25
1203,-19
1204,-8
1205,2
1206,13
1207,19
1208,20
1209,15
1210,8
1211,0
1212,-4
1213,-5
1214,-4
1215,-4
1216,-4
1217,-7
1218,-13
1219,-20
1220,-24
1221,-27
1222,-26
1223,-23
1224,-22
1225,-23
1226,-26
1227,-31
1228,-37
1229,-38
1230,-34
1231,-29
1232,-21
1233,-16
1234,-18
1235,-24
1236,-30
1237,-34
1238,-27
1239,-15
1240,-5
1241,0
1242,-1
1243,-8
1244,-15
1245,-19
1246,-19
1247,-13
1248,-4
1249,0
1250,4
1251,3
1252,-3
1253,-6
1254,-7
1255,-5
1256,0
1257,4
1258,6
1259,4
1260,1
1261,-3
1262,-4
1263,-2
1264,1
1265,5
1266,6
1267,2
1268,-2
1269,-9
1270,-17
1271,-21
1272,-16
1273,-12
1274,-9
1275,-11
1276,-13
1277,-18
1278,-21
1279,-21
1280,-22
1281,-27
1282,-31
1283,-34
1284,-41
1285,-48
1286,-55
1287,-60
1288,-62
1289,-63
1290,-65
1291,-70
1292,-76
1293,-84
1294,-88
1295,-87
1296,-84
1297,-81
1298,-76
1299,-73
1300,-71
1301,-72
1302,-77
1303,-80
1304,-79
1305,-77
1306,-71
1307,-72
1308,-77
1309,-86
1310,-95
1311,-100
1312,-101
1313,-99
1314,-94
1315,-89
1316,-89
1317,-93
1318,-101
1319,-108
1320,-112
1321,-111
1322,-107
1323,-101
1324,-97
1325,-98
1326,-100
1327,-104
1328,-105
1329,-102
1330,-97
1331,-90
1332,-83
1333,-79
1334,-79
1335,-79
1336,-82
1337,-81
1338,-78
1339,-74
1340,-69
1341,-70
1342,-77
1343,-78
1344,-76
1345,-69
1346,-56
1347,-45
1348,-36
1349,-35
1350,-38
1351,-41
1352,-44
1353,-43
1354,-34
1355,-24
1356,-19
1357,-18
1358,-18
1359,-22
1360,-33
1361,-47
1362,-62
1363,-69
1364,-69
1365,-65
1366,-63
1367,-62
1368,-65
1369,-71
1370,-78
1371,-81
1372,-81
1373,-80
1374,-77
1375,-76
1376,-82
1377,-88
1378,-93
1379,-93
1380,-90
1381,-86
1382,-83
1383,-82
1384,-84
1385,-85
1386,-86
1387,-80
1388,-67
1389,-52
1390,-42
1391,-30
1392,-16
1393,2
1394,31
1395,73
1396,128
1397,194
1398,268
1399,348
1400,430
1401,510
1402,586
1403,659
1404,722
1405,763
1406,775
1407,753
1408,696
1409,603
1410,484
1411,229
1412,117
1413,25
1414,-43
1415,-91
1416,-120
1417,-135
1418,-137
1419,-133
1420,-128
1421,-121
1422,-115
1423,-114
1424,-116
1425,-125
1426,-137
1427,-144
1428,-144
1429,-138
1430,-129
1431,-120
1432,-113
1433,-112
1434,-114
1435,-118
1436,-119
1437,-119
1438,-114
1439,-107
1440,-103
1441,-104
1442,-106
1443,-112
1444,-119
1445,-124
1446,-128
1447,-126
1448,-127
1449,-130
1450,-133
1451,-136
1452,-137
1453,-134
1454,-130
1455,-129
1456,-128
1457,-130
1458,-133
1459,-136
1460,-137
1461,-138
1462,-132
1463,-123
1464,-118
1465,-116
1466,-116
1467,-122
1468,-126
1469,-128
1470,-128
1471,-124
1472,-114
1473,-106
1474,-99
1475,-98
1476,-101
1477,-104
1478,-106
1479,-107
1480,-93
1481,-88
1482,-86
1483,-86
1484,-89
1485,-94
1486,-96
1487,-94
1488,-89
1489,-84
1490,-83
1491,-86
1492,-88
1493,-92
1494,-93
1495,-87
1496,-79
1497,-70
1498,-64
1499,-61
1500,-61
1501,-64
1502,-69
1503,-72
1504,-71
1505,-63
1506,-51
1507,-43
1508,-37
1509,-33
1510,-35
1511,-39
1512,-39
1513,-37
1514,-32
1515,-24
1516,-24
1517,-30
1518,-40
1519,-47
1520,-48
1521,-45
1522,-38
1523,-28
1524,-18
1525,-12
1526,-8
1527,-9
1528,-12
1529,-12
1530,-13
1531,-17
1532,-21
1533,-28
1534,-34
1535,-39
1536,-42
1537,-44
1538,-44
1539,-45
1540,-49
1541,-55
1542,-65
1543,-78
1544,-89
1545,-98
1546,-104
1547,-107
1548,-107
1549,-107
1550,-116
1551,-125
1552,-134
1553,-141
1554,-148
1555,-151
1556,-153
1557,-157
1558,-163
1559,-169
1560,-172
1561,-174
1562,-172
1563,-167
1564,-160
1565,-152
1566,-149
1567,-151
1568,-156
1569,-162
1570,-168
1571,-171
1572,-170
1573,-169
1574,-167
1575,-165
1576,-165
1577,-162
1578,-156
1579,-152
1580,-148
1581,-146
1582,-145
1583,-147
1584,-150
1585,-153
1586,-151
1587,-145
1588,-136
1589,-129
1590,-126
1591,-129
1592,-139
1593,-148
1594,-156
1595,-161
1596,-161
1597,-154
1598,-148
1599,-140
1600,-134
1601,-136
1602,-138
1603,-140
1604,-141
1605,-136
1606,-129
1607,-122
1608,-117
1609,-117
1610,-121
1611,-122
1612,-122
1613,-120
1614,-113
1615,-105
1616,-101
1617,-102
1618,-106
1619,-116
1620,-117
1621,-114
1622,-108
1623,-100
1624,-92
1625,-87
1626,-86
1627,-86
1628,-84
1629,-80
1630,-77
1631,-77
1632,-79
1633,-85
1634,-94
1635,-100
1636,-102
1637,-102
1638,-98
1639,-90
1640,-83
1641,-80
1642,-84
1643,-84
1644,-91
1645,-98
1646,-104
1647,-103
1648,-98
1649,-93
1650,-91
1651,-92
1652,-96
1653,-101
1654,-104
1655,-106
1656,-101
1657,-99
1658,-100
1659,-103
1660,-109
1661,-113
1662,-114
1663,-114
1664,-110
1665,-101
1666,-97
1667,-95
1668,-96
1669,-99
1670,-104
1671,-105
1672,-106
1673,-105
1674,-105
1675,-109
1676,-116
1677,-123
1678,-132
1679,-138
1680,-141
1681,-139
1682,-136
1683,-134
1684,-135
1685,-136
1686,-136
1687,-134
1688,-130
1689,-122
1690,-114
1691,-110
1692,-111
1693,-114
1694,-114
1695,-113
1696,-109
1697,-103
1698,-99
1699,-100
1700,-104
1701,-111
1702,-115
1703,-115
1704,-113
1705,-109
1706,-104
1707,-101
1708,-102
1709,-105
1710,-108
1711,-109
1712,-108
1713,-102
1714,-94
1715,-86
1716,-81
1717,-81
1718,-84
1719,-87
1720,-92
1721,-97
1722,-101
1723,-103
1724,-108
1725,-115
1726,-115
1727,-114
1728,-111
1729,-105
1730,-100
1731,-97
1732,-98
1733,-102
1734,-105
1735,-105
1736,-104
1737,-98
1738,-91
1739,-86
1740,-85
1741,-88
1742,-92
1743,-96
1744,-98
1745,-96
1746,-90
1747,-83
1748,-78
1749,-73
1750,-72
1751,-75
1752,-75
1753,-74
1754,-71
1755,-63
1756,-55
1757,-46
1758,-40
1759,-40
1760,-44
1761,-56
1762,-63
1763,-66
1764,-70
1765,-72
1766,-72
1767,-71
1768,-70
1769,-70
1770,-69
1771,-66
1772,-60
1773,-53
1774,-47
1775,-45
1776,-44
1777,-43
1778,-42
1779,-44
1780,-46
1781,-49
1782,-54
1783,-60
1784,-66
1785,-66
1786,-71
1787,-76
1788,-79
1789,-79
1790,-79
1791,-79
1792,-80
1793,-83
1794,-85
1795,-86
1796,-83
1797,-81
1798,-78
1799,-77
1800,-78
1801,-81
1802,-82
1803,-81
1804,-76
1805,-70
1806,-63
1807,-57
1808,-55
1809,-57
1810,-60
1811,-63
1812,-64
1813,-60
1814,-46
1815,-22
1816,7
1817,44
1818,91
1819,149
1820,214
1821,288
1822,373
1823,461
1824,549
1825,631
1826,698
1827,743
1828,760
1829,748
1830,707
1831,520
1832,392
1833,255
1834,122
1835,6
1836,-82
1837,-142
1838,-176
1839,-188
1840,-186
1841,-180
1842,-174
1843,-169
1844,-163
1845,-158
1846,-153
1847,-147
1848,-145
1849,-145
1850,-148
1851,-152
1852,-155
1853,-156
1854,-152
1855,-147
1856,-143
1857,-139
1858,-137
1859,-136
1860,-136
1861,-137
1862,-136
1863,-131
1864,-126
1865,-124
1866,-125
1867,-129
1868,-135
1869,-137
1870,-134
1871,-132
1872,-128
1873,-123
1874,-121
1875,-124
1876,-123
1877,-120
1878,-115
1879,-112
1880,-113
1881,-114
1882,-120
1883,-131
1884,-137
1885,-132
1886,-127
1887,-118
1888,-104
1889,-98
1890,-103
1891,-114
1892,-127
1893,-137
1894,-141
1895,-136
1896,-121
1897,-101
1898,-84
1899,-72
1900,-63
1901,-55
1902,-51
1903,-45
1904,-36
1905,-27
1906,-19
1907,-13
1908,-14
1909,-20
1910,-24
1911,-28
1912,-29
1913,-25
1914,-23
1915,-24
1916,-23
1917,-26
1918,-30
1919,-29
1920,-23
1921,-13
1922,0
1923,9
1924,14
1925,14
1926,9
1927,9
1928,2
1929,0
1930,0
1931,1
1932,5
1933,5
1934,3
1935,-2
1936,-15
1937,-17
1938,-15
1939,-10
1940,-4
1941,-2
1942,-3
1943,-5
1944,-8
1945,-10
1946,-10
1947,-6
1948,-1
1949,3
1950,4
1951,1
1952,-7
1953,-16
1954,-24
1955,-32
1956,-32
1957,-28
1958,-23
1959,-17
1960,-12
1961,-7
1962,-4
1963,-5
1964,-10
1965,-17
1966,-29
1967,-42
1968,-54
1969,-64
1970,-72
1971,-72
1972,-69
1973,-68
1974,-70
1975,-76
1976,-83
1977,-89
1978,-91
1979,-90
1980,-89
1981,-87
1982,-87
1983,-89
1984,-94
1985,-103
1986,-107
1987,-107
1988,-104
1989,-100
1990,-95
1991,-95
1992,-99
1993,-106
1994,-111
1995,-112
1996,-110
1997,-107
1998,-100
1999,-96
2000,-96
2001,-99
2002,-103
2003,-104
2004,-102
2005,-92
2006,-83
2007,-79
2008,-78
2009,-74
2010,-72
2011,-73
2012,-72
2013,-71
2014,-67
2015,-66
2016,-69
2017,-73
2018,-74
2019,-80
2020,-81
2021,-75
2022,-74
2023,-74
2024,-71
2025,-72
2026,-76
2027,-82
2028,-90
2029,-92
2030,-90
2031,-90
2032,-85
2033,-77
2034,-75
2035,-73
2036,-68
2037,-65
2038,-63
2039,-63
2040,-67
2041,-73
2042,-84
2043,-96
2044,-105
2045,-111
2046,-111
2047,-107
2048,-104
2049,-104
2050,-106
2051,-111
2052,-116
2053,-120
2054,-124
2055,-128
2056,-131
2057,-136
2058,-142
2059,-148
2060,-153
2061,-156
2062,-154
2063,-148
2064,-141
2065,-136
2066,-135
2067,-137
2068,-146
2069,-146
2070,-154
2071,-159
2072,-163
2073,-164
2074,-162
2075,-160
2076,-154
2077,-149
2078,-145
2079,-139
2080,-132
2081,-126
2082,-121
2083,-120
2084,-123
2085,-124
2086,-124
2087,-121
2088,-112
2089,-104
2090,-99
2091,-94
2092,-91
2093,-91
2094,-91
2095,-89
2096,-83
2097,-72
2098,-62
2099,-52
2100,-45
2101,-44
2102,-45
2103,-45
2104,-44
2105,-41
2106,-40
2107,-45
2108,-52
2109,-57
2110,-59
2111,-56
2112,-51
2113,-39
2114,-29
2115,-20
2116,-16
2117,-20
2118,-31
2119,-41
2120,-50
2121,-55
2122,-55
2123,-52
2124,-50
2125,-48
2126,-50
2127,-51
2128,-52
2129,-53
2130,-51
2131,-48
2132,-45
2133,-42
2134,-40
2135,-43
2136,-47
2137,-48
2138,-46
2139,-43
2140,-40
2141,-37
2142,-36
2143,-39
2144,-37
2145,-36
2146,-35
2147,-32
2148,-30
2149,-30
2150,-32
2151,-38
2152,-40
2153,-36
2154,-32
2155,-25
2156,-14
2157,-7
2158,-4
2159,-6
2160,-13
2161,-19
2162,-21
2163,-24
2164,-22
2165,-17
2166,-16
2167,-18
2168,-18
2169,-19
2170,-16
2171,-10
2172,-1
2173,6
2174,11
2175,10
2176,1
2177,-2
2178,-1
2179,1
2180,3
2181,1
2182,-3
2183,-12
2184,-25
2185,-36
2186,-44
2187,-48
2188,-45
2189,-46
2190,-49
2191,-55
2192,-65
2193,-74
2194,-77
2195,-77
2196,-73
2197,-65
2198,-60
2199,-60
2200,-64
2201,-72
2202,-82
2203,-88
2204,-92
2205,-90
2206,-89
2207,-91
2208,-92
2209,-96
2210,-100
2211,-99
2212,-99
2213,-88
2214,-75
2215,-59
2216,-40
2217,-11
2218,19
2219,57
2220,106
2221,164
2222,231
2223,310
2224,395
2225,478
2226,556
2227,623
2228,669
2229,691
2230,682
2231,636
2232,554
2233,443
2234,312
2235,174
2236,41
2237,-74
2238,-161
2239,-216
2240,-248
2241,-261
2242,-261
2243,-256
2244,-251
2245,-248
2246,-244
2247,-237
2248,-236
2249,-240
2250,-248
2251,-260
2252,-269
2253,-273
2254,-273
2255,-267
2256,-258
2257,-251
2258,-246
2259,-245
2260,-247
2261,-250
2262,-255
2263,-255
2264,-253
2265,-253
2266,-255
2267,-259
2268,-259
2269,-261
2270,-261
2271,-255
2272,-243
2273,-230
2274,-219
2275,-212
2276,-209
2277,-211
2278,-213
2279,-214
2280,-209
2281,-201
2282,-184
2283,-176
2284,-173
2285,-173
2286,-170
2287,-163
2288,-154
2289,-145
2290,-136
2291,-132
2292,-128
2293,-125
2294,-120
2295,-109
2296,-96
2297,-85
2298,-75
2299,-71
2300,-76
2301,-86
2302,-94
2303,-99
2304,-97
2305,-88
2306,-78
2307,-66
2308,-61
2309,-61
2310,-64
2311,-66
2312,-69
2313,-69
2314,-67
2315,-64
2316,-61
2317,-60
2318,-56
2319,-48
2320,-37
2321,-21
2322,-4
2323,7
2324,14
2325,15
2326,13
2327,11
2328,14
2329,20
2330,29
2331,39
2332,49
2333,55
2334,56
2335,55
2336,55
2337,58
2338,63
2339,68
2340,72
2341,73
2342,68
2343,64
2344,62
2345,61
2346,63
2347,69
2348,75
2349,77
2350,73
2351,52
2352,43
2353,34
2354,34
2355,28
2356,25
2357,18
2358,9
2359,0
2360,-8
2361,-15
2362,-20
2363,-22
2364,-20
2365,-21
2366,-27
2367,-38
2368,-51
2369,-63
2370,-74
2371,-81
2372,-86
2373,-93
2374,-101
2375,-111
2376,-123
2377,-137
2378,-152
2379,-162
2380,-169
2381,-170
2382,-169
2383,-172
2384,-178
2385,-185
2386,-187
2387,-189
2388,-186
2389,-184
2390,-183
2391,-182
2392,-186
2393,-193
2394,-197
2395,-196
2396,-189
2397,-179
2398,-173
2399,-170
2400,-171
2401,-178
2402,-187
2403,-191
2404,-193
2405,-190
2406,-184
2407,-179
2408,-179
2409,-183
2410,-193
2411,-202
2412,-207
2413,-206
2414,-200
2415,-190
2416,-182
2417,-178
2418,-177
2419,-178
2420,-179
2421,-176
2422,-165
2423,-159
2424,-153
2425,-153
2426,-157
2427,-160
2428,-159
2429,-155
2430,-148
2431,-139
2432,-132
2433,-130
2434,-132
2435,-135
2436,-138
2437,-141
2438,-141
2439,-138
2440,-136
2441,-137
2442,-141
2443,-144
2444,-145
2445,-144
2446,-137
2447,-127
2448,-118
2449,-110
2450,-110
2451,-118
2452,-126
2453,-129
2454,-128
2455,-122
2456,-114
2457,-110
2458,-116
2459,-122
2460,-126
2461,-126
2462,-124
2463,-117
2464,-108
2465,-104
2466,-106
2467,-110
2468,-115
2469,-118
2470,-115
2471,-108
2472,-101
2473,-96
2474,-95
2475,-96
2476,-97
2477,-99
2478,-97
2479,-91
2480,-84
2481,-78
2482,-72
2483,-71
2484,-72
2485,-73
2486,-74
2487,-74
2488,-71
2489,-67
2490,-62
2491,-61
2492,-70
2493,-75
2494,-79
2495,-81
2496,-81
2497,-81
2498,-84
2499,-91
2500,-98
2501,-104
2502,-111
2503,-117
2504,-117
2505,-113
2506,-108
2507,-104
2508,-101
2509,-102
2510,-106
2511,-108
2512,-105
2513,-99
2514,-90
2515,-84
2516,-81
2517,-81
2518,-86
2519,-95
2520,-97
2521,-100
2522,-98
2523,-92
2524,-86
2525,-82
2526,-82
2527,-85
2528,-89
2529,-88
2530,-85
2531,-80
2532,-79
2533,-80
2534,-83
2535,-87
2536,-91
2537,-92
2538,-91
2539,-88
2540,-88
2541,-89
2542,-91
2543,-96
2544,-101
2545,-104
2546,-105
2547,-100
2548,-92
2549,-87
2550,-88
2551,-93
2552,-102
2553,-112
2554,-119
2555,-122
2556,-124
2557,-125
2558,-124
2559,-124
2560,-127
2561,-133
2562,-137
2563,-129
2564,-124
2565,-118
2566,-115
2567,-119
2568,-123
2569,-122
2570,-120
2571,-116
2572,-111
2573,-108
2574,-106
2575,-107
2576,-111
2577,-114
2578,-112
2579,-107
2580,-102
2581,-96
2582,-95
2583,-102
2584,-113
2585,-126
2586,-135
2587,-141
2588,-142
2589,-142
2590,-143
2591,-147
2592,-157
2593,-169
2594,-180
2595,-189
2596,-197
2597,-200
2598,-200
2599,-201
2600,-203
2601,-204
2602,-203
2603,-198
2604,-192
2605,-186
2606,-182
2607,-182
2608,-185
2609,-187
2610,-189
2611,-188
2612,-183
2613,-175
2614,-165
2615,-152
2616,-135
2617,-113
2618,-80
2619,-35
2620,19
2621,86
2622,161
2623,240
2624,328
2625,417
2626,505
2627,591
2628,666
2629,719
2630,744
2631,736
2632,687
2633,480
2634,342
2635,204
2636,75
2637,-30
2638,-30
2639,-102
2640,-145
2641,-170
2642,-177
2643,-173
2644,-167
2645,-164
2646,-156
2647,-148
2648,-137
2649,-122
2650,-108
2651,-101
2652,-100
2653,-103
2654,-104
2655,-99
2656,-95
2657,-90
2658,-82
2659,-78
2660,-75
2661,-74
2662,-74
2663,-74
2664,-70
2665,-62
2666,-54
2667,-47
2668,-45
2669,-47
2670,-46
2671,-43
2672,-41
2673,-39
2674,-34
2675,-32
2676,-29
2677,-24
2678,-17
2679,-11
2680,-5
2681,-1
2682,1
2683,0
2684,-6
2685,-11
2686,-13
2687,-15
2688,-16
2689,-13
2690,-9
2691,-5
2692,-3
2693,-2
2694,0
2695,1
2696,5
2697,12
2698,18
2699,21
2700,22
2701,20
2702,17
2703,9
2704,8
2705,10
2706,12
2707,14
2708,15
2709,15
2710,14
2711,16
2712,21
2713,27
2714,32
2715,34
2716,33
2717,31
2718,30
2719,31
2720,37
2721,45
2722,56
2723,65
2724,71
2725,73
2726,75
2727,74
2728,74
2729,76
2730,81
2731,86
2732,91
2733,96
2734,103
2735,107
2736,110
2737,116
2738,114
2739,109
2740,103
2741,97
2742,91
2743,88
2744,89
2745,94
2746,97
2747,101
2748,105
2749,103
2750,97
2751,90
2752,84
2753,79
2754,77
2755,77
2756,77
2757,72
2758,63
2759,56
2760,50
2761,44
2762,43
2763,44
2764,41
2765,34
2766,24
2767,7
2768,-10
2769,-26
2770,-36
2771,-40
2772,-41
2773,-43
2774,-50
2775,-61
2776,-74
2777,-84
2778,-88
2779,-91
2780,-91
2781,-91
2782,-93
2783,-97
2784,-103
2785,-113
2786,-121
2787,-130
2788,-133
2789,-135
2790,-136
2791,-137
2792,-138
2793,-140
2794,-143
2795,-142
2796,-139
2797,-133
2798,-130
2799,-129
2800,-130
2801,-133
2802,-140
2803,-144
2804,-143
2805,-139
2806,-136
2807,-130
2808,-129
2809,-132
2810,-136
2811,-139
2812,-138
2813,-135
2814,-132
2815,-128
2816,-124
2817,-122
2818,-120
2819,-117
2820,-114
2821,-109
2822,-106
2823,-106
2824,-110
2825,-117
2826,-128
2827,-139
2828,-145
2829,-147
2830,-146
2831,-141
2832,-135
2833,-132
2834,-132
2835,-134
2836,-135
2837,-134
2838,-129
2839,-123
2840,-119
2841,-120
2842,-134
2843,-143
2844,-149
2845,-149
2846,-146
2847,-143
2848,-143
2849,-143
2850,-149
2851,-157
2852,-163
2853,-165
2854,-162
2855,-152
2856,-142
2857,-136
2858,-134
2859,-137
2860,-140
2861,-140
2862,-141
2863,-139
2864,-136
2865,-134
2866,-134
2867,-137
2868,-143
2869,-150
2870,-154
2871,-156
2872,-155
2873,-151
2874,-151
2875,-159
2876,-164
2877,-168
2878,-167
2879,-165
2880,-162
2881,-157
2882,-153
2883,-152
2884,-152
2885,-153
2886,-152
2887,-149
2888,-146
2889,-143
2890,-146
2891,-151
2892,-157
2893,-161
2894,-163
2895,-162
2896,-157
2897,-152
2898,-149
2899,-150
2900,-154
2901,-156
2902,-154
2903,-148
2904,-136
2905,-124
2906,-116
2907,-113
2908,-113
2909,-129
2910,-138
2911,-141
2912,-137
2913,-129
2914,-122
2915,-117
2916,-117
2917,-120
2918,-122
2919,-122
2920,-120
2921,-118
2922,-113
2923,-113
2924,-110
2925,-109
2926,-112
2927,-116
2928,-118
2929,-117
2930,-113
2931,-107
2932,-102
2933,-99
2934,-100
2935,-105
2936,-112
2937,-114
2938,-110
2939,-103
2940,-94
2941,-86
2942,-83
2943,-84
2944,-92
2945,-95
2946,-97
2947,-97
2948,-93
2949,-92
2950,-97
2951,-104
2952,-111
2953,-117
2954,-119
2955,-119
2956,-118
2957,-118
2958,-122
2959,-128
2960,-134
2961,-138
2962,-139
2963,-136
2964,-128
2965,-118
2966,-111
2967,-109
2968,-111
2969,-114
2970,-119
2971,-123
2972,-123
2973,-121
2974,-122
2975,-125
2976,-125
2977,-123
2978,-118
2979,-112
2980,-105
2981,-101
2982,-100
2983,-102
2984,-104
2985,-106
2986,-99
2987,-81
2988,-51
2989,-14
2990,31
2991,82
2992,138
2993,202
2994,277
2995,359
2996,444
2997,528
2998,603
2999,655
3000,678
3001,668
3002,628
3003,553
3004,452
3005,335
3006,213
3007,90
3008,-19
3009,-106
3010,-168
3011,-203
3012,-217
3013,-198
3014,-187
3015,-179
3016,-171
3017,-166
3018,-161
3019,-156
3020,-151
3021,-147
3022,-145
3023,-143
3024,-144
3025,-145
3026,-145
3027,-143
3028,-138
3029,-131
3030,-124
3031,-121
3032,-121
3033,-126
3034,-131
3035,-134
3036,-135
3037,-133
3038,-125
3039,-117
3040,-112
3041,-113
3042,-121
3043,-130
3044,-137
3045,-142
3046,-141
3047,-131
3048,-128
3049,-126
3050,-129
3051,-134
3052,-136
3053,-133
3054,-124
3055,-114
3056,-106
3057,-101
3058,-102
3059,-107
3060,-113
3061,-116
3062,-115
3063,-110
3064,-103
3065,-103
3066,-95
3067,-89
3068,-88
3069,-91
3070,-93
3071,-95
3072,-94
3073,-89
3074,-84
3075,-82
3076,-79
3077,-79
3078,-80
3079,-77
3080,-73
3081,-68
3082,-63
3083,-63
3084,-66
3085,-71
3086,-75
3087,-73
3088,-65
3089,-56
3090,-45
3091,-38
3092,-32
3093,-30
3094,-28
3095,-27
3096,-24
3097,-20
3098,-18
3099,-15
3100,-14
3101,-15
3102,-17
3103,-16
3104,-10
3105,-2
3106,5
3107,11
3108,16
3109,15
3110,11
3111,5
3112,1
3113,0
3114,5
3115,11
3116,15
3117,16
3118,14
3119,8
3120,0
3121,-6
3122,-16
3123,-27
3124,-38
3125,-48
3126,-59
3127,-67
3128,-71
3129,-72
3130,-75
3131,-80
3132,-89
3133,-101
3134,-113
3135,-126
3136,-134
3137,-141
3138,-147
3139,-151
3140,-158
3141,-168
3142,-179
3143,-191
3144,-203
3145,-211
3146,-215
3147,-217
3148,-217
3149,-218
3150,-220
3151,-228
3152,-232
3153,-233
3154,-232
3155,-231
3156,-227
3157,-223
3158,-222
3159,-224
3160,-224
3161,-224
3162,-222
3163,-219
3164,-216
3165,-215
3166,-217
3167,-222
3168,-225
3169,-225
3170,-222
3171,-214
3172,-202
3173,-191
3174,-182
3175,-178
3176,-178
3177,-178
3178,-175
3179,-170
3180,-161
3181,-151
3182,-145
3183,-140
3184,-138
3185,-136
3186,-133
3187,-126
3188,-119
3189,-114
3190,-110
3191,-109
3192,-109
3193,-111
3194,-110
3195,-104
3196,-95
3197,-87
3198,-81
3199,-78
3200,-78
3201,-81
3202,-84
3203,-84
3204,-79
3205,-74
3206,-70
3207,-70
3208,-68
3209,-68
3210,-71
3211,-77
3212,-83
3213,-84
3214,-80
3215,-79
3216,-76
3217,-73
3218,-71
3219,-72
3220,-73
3221,-71
3222,-72
3223,-75
3224,-79
3225,-82
3226,-87
3227,-90
3228,-88
3229,-86
3230,-82
3231,-76
3232,-70
3233,-69
3234,-71
3235,-74
3236,-75
3237,-75
3238,-72
3239,-68
3240,-65
3241,-63
3242,-66
3243,-71
3244,-80
3245,-87
3246,-92
3247,-91
3248,-83
3249,-74
3250,-70
3251,-72
3252,-79
3253,-85
3254,-95
3255,-110
3256,-114
3257,-118
3258,-121
3259,-123
3260,-125
3261,-126
3262,-124
3263,-117
3264,-109
3265,-104
3266,-104
3267,-106
3268,-110
3269,-112
3270,-111
3271,-107
3272,-101
3273,-94
3274,-89
3275,-85
3276,-84
3277,-84
3278,-82
3279,-77
3280,-69
3281,-61
3282,-56
3283,-53
3284,-56
3285,-61
3286,-64
3287,-65
3288,-65
3289,-59
3290,-51
3291,-55
3292,-67
3293,-82
3294,-96
3295,-105
3296,-110
3297,-109
3298,-108
3299,-109
3300,-111
3301,-116
3302,-121
3303,-122
3304,-121
3305,-117
3306,-112
3307,-110
3308,-111
3309,-115
3310,-120
3311,-123
3312,-122
3313,-115
3314,-108
3315,-100
3316,-95
3317,-95
3318,-97
3319,-100
3320,-98
3321,-93
3322,-86
3323,-78
3324,-63
3325,-50
3326,-30
3327,0
3328,44
3329,102
3330,171
3331,244
3332,323
3333,401
3334,473
3335,543
3336,607
3337,655
3338,682
3339,679
3340,646
3341,578
3342,476
3343,354
3344,230
3345,110
3346,5
3347,-72
3348,-126
3349,-161
3350,-161
3351,-175
3352,-178
3353,-172
3354,-163
3355,-152
3356,-139
3357,-128
3358,-120
3359,-120
3360,-125
3361,-127
3362,-124
3363,-118
3364,-112
3365,-108
3366,-105
3367,-106
3368,-108
3369,-109
3370,-108
3371,-105
3372,-99
3373,-95
3374,-94
3375,-98
3376,-105
3377,-112
3378,-115
3379,-115
3380,-111
3381,-105
3382,-102
3383,-100
3384,-101
3385,-104
3386,-108
3387,-108
3388,-104
3389,-99
3390,-93
3391,-89
3392,-89
3393,-90
3394,-92
3395,-88
3396,-79
3397,-69
3398,-61
3399,-52
3400,-50
3401,-52
3402,-52
3403,-48
3404,-43
3405,-34
3406,-25
3407,-18
3408,-15
3409,-16
3410,-20
3411,-21
3412,-21
3413,-19
3414,-15
3415,-11
3416,-11
3417,-12
3418,-14
3419,-13
3420,-10
3421,-5
3422,1
3423,5
3424,4
3425,0
3426,-7
3427,-12
3428,-13
3429,1
3430,14
3431,25
3432,33
3433,36
3434,36
3435,34
3436,34
3437,37
3438,44
3439,52
3440,59
3441,63
3442,66
3443,67
3444,68
3445,71
3446,77
3447,85
3448,93
3449,98
3450,99
3451,96
3452,92
3453,86
3454,83
3455,82
3456,82
3457,82
3458,82
3459,78
3460,73
3461,67
3462,64
3463,61
3464,58
3465,53
3466,46
3467,36
3468,27
3469,19
3470,11
3471,5
3472,0
3473,-6
3474,-18
3475,-33
3476,-44
3477,-53
3478,-58
3479,-58
3480,-58
3481,-61
3482,-68
3483,-81
3484,-95
3485,-107
3486,-116
3487,-118
3488,-116
3489,-114
3490,-114
3491,-117
3492,-117
3493,-128
3494,-139
3495,-146
3496,-149
3497,-148
3498,-142
3499,-134
3500,-128
3501,-128
3502,-131
3503,-133
3504,-133
3505,-131
3506,-130
3507,-130
3508,-135
3509,-140
3510,-145
3511,-149
3512,-149
3513,-145
3514,-137
3515,-128
3516,-124
3517,-123
3518,-127
3519,-130
3520,-132
3521,-130
3522,-124
3523,-114
3524,-108
3525,-102
3526,-98
3527,-96
3528,-97
3529,-97
3530,-92
3531,-87
3532,-85
3533,-86
3534,-92
3535,-111
3536,-116
3537,-115
3538,-111
3539,-105
3540,-101
3541,-99
3542,-102
3543,-105
3544,-107
3545,-105
3546,-99
3547,-89
3548,-81
3549,-75
3550,-77
3551,-82
3552,-89
3553,-94
3554,-96
3555,-93
3556,-88
3557,-82
3558,-78
3559,-78
3560,-83
3561,-87
3562,-89
3563,-89
3564,-85
3565,-80
3566,-75
3567,-74
3568,-75
3569,-75
3570,-74
3571,-71
3572,-66
3573,-64
3574,-64
3575,-67
3576,-71
3577,-74
3578,-76
3579,-75
3580,-73
3581,-74
3582,-78
3583,-82
3584,-86
3585,-92
3586,-93
3587,-90
3588,-85
3589,-80
3590,-76
3591,-77
3592,-78
3593,-81
3594,-81
3595,-77
3596,-69
3597,-61
3598,-54
3599,-49
3600,-49
3601,-53
3602,-59
3603,-65
3604,-67
3605,-63
3606,-57
3607,-52
3608,-47
3609,-44
3610,-43
3611,-38
3612,-33
3613,-25
3614,-13
3615,-6
3616,-2
3617,-1
3618,-1
3619,-2
3620,-1
3621,-3
3622,-5
3623,-10
3624,-16
3625,-25
3626,-34
3627,-46
3628,-54
3629,-57
3630,-60
3631,-63
3632,-67
3633,-73
3634,-73
3635,-77
3636,-79
3637,-79
3638,-74
3639,-67
3640,-54
3641,-49
3642,-50
3643,-52
3644,-52
3645,-53
3646,-52
3647,-50
3648,-49
3649,-50
3650,-53
3651,-59
3652,-65
3653,-69
3654,-69
3655,-64
3656,-53
3657,-42
3658,-30
3659,-19
3660,-3
3661,21
3662,56
3663,104
3664,164
3665,229
3666,299
3667,371
3668,442
3669,511
3670,580
3671,641
3672,690
3673,718
3674,717
3675,609
3676,504
3677,381
3678,254
3679,130
3680,27
3681,-51
3682,-105
3683,-137
3684,-154
3685,-159
3686,-156
3687,-153
3688,-149
3689,-143
3690,-138
3691,-134
3692,-133
3693,-132
3694,-131
3695,-130
3696,-127
3697,-118
3698,-110
3699,-105
3700,-103
3701,-104
3702,-107
3703,-110
3704,-111
3705,-110
3706,-105
3707,-100
3708,-98
3709,-98
3710,-108
3711,-109
3712,-107
3713,-103
3714,-98
3715,-93
3716,-92
3717,-95
3718,-98
3719,-100
3720,-99
3721,-93
3722,-88
3723,-82
3724,-82
3725,-86
3726,-90
3727,-93
3728,-91
3729,-83
3730,-70
3731,-57
3732,-50
3733,-48
3734,-50
3735,-53
3736,-56
3737,-52
3738,-43
3739,-34
3740,-28
3741,-27
3742,-33
3743,-42
3744,-50
3745,-54
3746,-47
3747,-41
3748,-34
3749,-31
3750,-33
3751,-36
3752,-37
3753,-37
3754,-31
3755,-24
3756,-19
3757,-15
3758,-12
3759,-13
3760,-11
3761,-8
3762,-1
3763,8
3764,18
3765,26
3766,30
3767,28
3768,24
3769,22
3770,24
3771,28
3772,37
3773,46
3774,53
3775,56
3776,56
3777,56
3778,56
3779,56
3780,61
3781,73
3782,74
3783,72
3784,66
3785,57
3786,52
3787,49
3788,50
3789,53
3790,55
3791,53
3792,47
3793,38
3794,33
3795,32
3796,33
3797,38
3798,43
3799,43
3800,37
3801,29
3802,18
3803,10
3804,4
3805,0
3806,-2
3807,-6
3808,-14
3809,-22
3810,-32
3811,-43
3812,-52
3813,-59
3814,-65
3815,-71
3816,-88
3817,-96
3818,-101
3819,-104
3820,-104
3821,-101
3822,-99
3823,-100
3824,-105
3825,-113
3826,-122
3827,-129
3828,-133
3829,-130
3830,-123
3831,-115
3832,-112
3833,-112
3834,-118
3835,-126
3836,-133
3837,-137
3838,-138
3839,-136
3840,-133
3841,-133
3842,-135
3843,-138
3844,-139
3845,-137
3846,-131
3847,-122
3848,-116
3849,-113
3850,-124
3851,-132
3852,-136
3853,-135
3854,-126
3855,-116
3856,-108
3857,-105
3858,-108
3859,-118
3860,-127
3861,-132
3862,-134
3863,-130
3864,-122
3865,-114
3866,-110
3867,-112
3868,-115
3869,-117
3870,-119
3871,-119
3872,-116
3873,-115
3874,-117
3875,-120
3876,-124
3877,-125
3878,-124
3879,-120
3880,-112
3881,-105
3882,-101
3883,-100
3884,-104
3885,-104
3886,-101
3887,-95
3888,-88
3889,-84
3890,-85
3891,-87
3892,-92
3893,-97
3894,-100
3895,-100
3896,-92
3897,-81
3898,-74
3899,-72
3900,-71
3901,-74
3902,-79
3903,-79
3904,-77
3905,-76
3906,-75
3907,-76
3908,-79
3909,-86
3910,-97
3911,-103
3912,-104
3913,-100
3914,-91
3915,-81
3916,-74
3917,-77
3918,-85
3919,-85
3920,-94
3921,-102
3922,-106
3923,-105
3924,-102
3925,-99
3926,-94
3927,-92
3928,-90
3929,-85
3930,-79
3931,-76
3932,-73
3933,-73
3934,-78
3935,-83
3936,-84
3937,-80
3938,-73
3939,-66
3940,-58
3941,-52
3942,-53
3943,-62
3944,-68
3945,-70
3946,-70
3947,-66
3948,-57
3949,-48
3950,-41
3951,-39
3952,-38
3953,-37
3954,-37
3955,-33
3956,-31
3957,-32
3958,-32
3959,-34
3960,-35
3961,-34
3962,-33
3963,-28
3964,-23
3965,-20
3966,-17
3967,-17
3968,-21
3969,-25
3970,-28
3971,-29
3972,-29
3973,-31
3974,-36
3975,-40
3976,-45
3977,-51
3978,-56
3979,-55
3980,-53
3981,-49
3982,-45
3983,-43
3984,-46
3985,-50
3986,-52
3987,-52
3988,-38
3989,-34
3990,-31
3991,-33
3992,-41
3993,-47
3994,-53
3995,-54
3996,-48
3997,-37
3998,-31
3999,-26
4000,-25
4001,-30
4002,-34
4003,-35
4004,-32
4005,-17
4006,9
4007,45
4008,92
4009,146
4010,205
4011,273
4012,353
4013,435
4014,518
4015,597
4016,663
4017,710
4018,731
4019,720
4020,680
4021,610
4022,513
4023,278
4024,155
4025,44
4026,-42
4027,-103
4028,-139
4029,-151
4030,-149
4031,-140
4032,-134
4033,-131
4034,-130
4035,-129
4036,-129
4037,-126
4038,-123
4039,-119
4040,-114
4041,-112
4042,-114
4043,-116
4044,-117
4045,-116
4046,-114
4047,-112
4048,-107
4049,-107
4050,-110
4051,-114
4052,-117
4053,-119
4054,-119
4055,-115
4056,-109
4057,-106
4058,-118
4059,-127
4060,-135
4061,-135
4062,-137
4063,-132
4064,-123
4065,-112
4066,-103
4067,-98
4068,-96
4069,-96
4070,-95
4071,-91
4072,-85
4073,-79
4074,-75
4075,-76
4076,-80
4077,-84
4078,-85
4079,-81
4080,-76
4081,-68
4082,-58
4083,-51
4084,-49
4085,-50
4086,-51
4087,-53
4088,-53
4089,-52
4090,-49
4091,-46
4092,-46
4093,-47
4094,-47
4095,-44
4096,-36
4097,-26
4098,-18
4099,-13
4100,-14
4101,-17
4102,-20
4103,-23
4104,-25
4105,-23
4106,-23
4107,-23
4108,-25
4109,-28
4110,-33
4111,-34
4112,-32
4113,-25
4114,-16
4115,-11
4116,-9
4117,-9
4118,-10
4119,-11
4120,-4
4121,6
4122,20
4123,35
4124,47
4125,53
4126,53
4127,46
4128,40
4129,38
4130,40
4131,46
4132,49
4133,48
4134,45
4135,42
4136,39
4137,40
4138,43
4139,48
4140,52
4141,53
4142,49
4143,41
4144,34
4145,26
4146,21
4147,17
4148,15
4149,11
4150,5
4151,-3
4152,-13
4153,-22
4154,-32
4155,-41
4156,-46
4157,-51
4158,-60
4159,-70
4160,-81
4161,-92
4162,-99
4163,-104
4164,-107
4165,-112
4166,-117
4167,-123
4168,-132
4169,-138
4170,-142
4171,-144
4172,-142
4173,-139
4174,-140
4175,-143
4176,-148
4177,-154
4178,-155
4179,-150
4180,-142
4181,-131
4182,-125
4183,-126
4184,-128
4185,-132
4186,-137
4187,-140
4188,-138
4189,-133
4190,-128
4191,-125
4192,-126
4193,-130
4194,-135
4195,-136
4196,-133
4197,-128
4198,-122
4199,-118
4200,-121
4201,-123
4202,-124
4203,-124
4204,-122
4205,-118
4206,-113
4207,-107
4208,-104
4209,-105
4210,-108
4211,-113
4212,-118
4213,-119
4214,-117
4215,-114
4216,-111
4217,-109
4218,-109
4219,-110
4220,-110
4221,-110
4222,-108
4223,-105
4224,-104
4225,-103
4226,-104
4227,-108
4228,-109
4229,-105
4230,-99
4231,-92
4232,-84
4233,-82
4234,-84
4235,-97
4236,-101
4237,-102
4238,-98
4239,-92
4240,-84
4241,-80
4242,-82
4243,-83
4244,-84
4245,-85
4246,-82
4247,-80
4248,-82
4249,-85
4250,-92
4251,-100
4252,-104
4253,-106
4254,-105
4255,-99
4256,-88
4257,-82
4258,-80
4259,-83
4260,-87
4261,-91
4262,-92
4263,-90
4264,-87
4265,-83
4266,-82
4267,-84
4268,-87
4269,-92
4270,-94
4271,-90
4272,-86
4273,-82
4274,-79
4275,-78
4276,-79
4277,-78
4278,-73
4279,-67
4280,-60
4281,-54
4282,-55
4283,-59
4284,-68
4285,-74
4286,-76
4287,-76
4288,-72
4289,-67
4290,-65
4291,-70
4292,-79
4293,-83
4294,-82
4295,-78
4296,-68
4297,-56
4298,-47
4299,-47
4300,-54
4301,-66
4302,-76
4303,-80
4304,-78
4305,-63
4306,-61
4307,-67
4308,-77
4309,-87
4310,-97
4311,-101
4312,-95
4313,-85
4314,-75
4315,-69
4316,-69
4317,-73
4318,-77
4319,-81
4320,-80
4321,-73
4322,-67
4323,-63
4324,-60
4325,-63
4326,-70
4327,-75
4328,-76
4329,-74
4330,-65
4331,-54
4332,-40
4333,-28
4334,-23
4335,-26
4336,-31
4337,-38
4338,-45
4339,-53
4340,-57
4341,-60
4342,-61
4343,-61
4344,-60
4345,-60
4346,-57
4347,-54
4348,-50
4349,-48
4350,-52
4351,-59
4352,-65
4353,-72
4354,-76
4355,-76
4356,-74
4357,-73
4358,-73
4359,-73
4360,-73
4361,-72
4362,-72
4363,-70
4364,-70
4365,-73
4366,-79
4367,-86
4368,-94
4369,-102
4370,-111
4371,-119
4372,-122
4373,-119
4374,-116
4375,-110
4376,-109
4377,-110
4378,-111
4379,-112
4380,-114
4381,-114
4382,-116
4383,-118
4384,-121
4385,-131
4386,-142
4387,-147
4388,-150
4389,-144
4390,-129
4391,-115
4392,-100
4393,-80
4394,-52
4395,-16
4396,30
4397,86
4398,151
4399,222
4400,299
4401,375
4402,443
4403,504
4404,558
4405,595
4406,614
4407,607
4408,568
4409,494
4410,259
4411,128
4412,0
4413,-109
4414,-190
4415,-238
4416,-262
4417,-271
4418,-267
4419,-259
4420,-257
4421,-256
4422,-253
4423,-253
4424,-255
4425,-261
4426,-268
4427,-272
4428,-275
4429,-274
4430,-267
4431,-259
4432,-256
4433,-252
4434,-253
4435,-258
4436,-262
4437,-262
4438,-259
4439,-250
4440,-240
4441,-230
4442,-223
4443,-226
4444,-229
4445,-235
4446,-235
4447,-232
4448,-230
4449,-228
4450,-224
4451,-222
4452,-219
4453,-214
4454,-207
4455,-196
4456,-188
4457,-185
4458,-184
4459,-189
4460,-194
4461,-196
4462,-194
4463,-187
4464,-178
4465,-167
4466,-155
4467,-145
4468,-137
4469,-128
4470,-122
4471,-116
4472,-109
4473,-104
4474,-103
4475,-101
4476,-100
4477,-100
4478,-99
4479,-84
4480,-71
4481,-65
4482,-63
4483,-63
4484,-64
4485,-68
4486,-70
4487,-67
4488,-67
4489,-61
4490,-54
4491,-47
4492,-41
4493,-37
4494,-36
4495,-32
4496,-20
4497,0
4498,15
4499,24
4500,31
4501,33
4502,30
4503,29
4504,33
4505,46
4506,61
4507,78
4508,96
4509,109
4510,114
4511,119
4512,124
4513,129
4514,138
4515,150
4516,158
4517,159
4518,157
4519,161
4520,165
4521,171
4522,177
4523,179
4524,178
4525,174
4526,166
4527,160
4528,156
4529,153
4530,154
4531,157
4532,156
4533,151
4534,141
4535,128
4536,112
4537,98
4538,89
4539,83
4540,74
4541,65
4542,57
4543,45
4544,33
4545,25
4546,22
4547,21
4548,21
4549,20
4550,2
4551,-13
4552,-29
4553,-39
4554,-44
4555,-47
4556,-45
4557,-48
4558,-53
4559,-60
4560,-69
4561,-76
4562,-78
4563,-77
4564,-74
4565,-72
4566,-73
4567,-79
4568,-87
4569,-96
4570,-101
4571,-102
4572,-98
4573,-92
4574,-88
4575,-86
4576,-88
4577,-92
4578,-96
4579,-102
4580,-104
4581,-102
4582,-99
4583,-97
4584,-96
4585,-100
4586,-113
4587,-116
4588,-118
4589,-117
4590,-118
4591,-118
4592,-117
4593,-119
4594,-119
4595,-115
4596,-111
4597,-109
4598,-108
4599,-111
4600,-120
4601,-130
4602,-136
4603,-137
4604,-134
4605,-128
4606,-122
4607,-118
4608,-120
4609,-126
4610,-134
4611,-141
4612,-146
4613,-146
4614,-142
4615,-135
4616,-129
4617,-126
4618,-122
4619,-119
4620,-117
4621,-112
4622,-108
4623,-107
4624,-107
4625,-110
4626,-113
4627,-112
4628,-110
4629,-106
4630,-106
4631,-99
4632,-96
4633,-95
4634,-95
4635,-96
4636,-98
4637,-98
4638,-99
4639,-97
4640,-97
4641,-101
4642,-110
4643,-118
4644,-124
4645,-127
4646,-129
4647,-128
4648,-128
4649,-129
4650,-130
4651,-132
4652,-133
4653,-133
4654,-130
4655,-124
4656,-112
4657,-111
4658,-113
4659,-118
4660,-125
4661,-129
4662,-129
4663,-124
4664,-117
4665,-112
4666,-108
4667,-108
4668,-111
4669,-113
4670,-113
4671,-111
4672,-108
4673,-104
4674,-101
4675,-103
4676,-108
4677,-111
4678,-113
4679,-112
4680,-112
4681,-110
4682,-110
4683,-114
4684,-121
4685,-124
4686,-124
4687,-120
4688,-111
4689,-100
4690,-93
4691,-101
4692,-111
4693,-119
4694,-126
4695,-126
4696,-119
4697,-110
4698,-102
4699,-100
4700,-102
4701,-108
4702,-117
4703,-121
4704,-119
4705,-113
4706,-106
4707,-100
4708,-97
4709,-97
4710,-101
4711,-104
4712,-105
4713,-103
4714,-98
4715,-92
4716,-87
4717,-86
4718,-88
4719,-91
4720,-97
4721,-99
4722,-102
4723,-102
4724,-101
4725,-98
4726,-95
4727,-81
4728,-72
4729,-64
4730,-61
4731,-62
4732,-67
4733,-76
4734,-87
4735,-93
4736,-95
4737,-89
4738,-77
4739,-66
4740,-60
4741,-54
4742,-56
4743,-62
4744,-65
4745,-70
4746,-71
4747,-65
4748,-60
4749,-58
4750,-56
4751,-59
4752,-62
4753,-62
4754,-60
4755,-57
4756,-54
4757,-56
4758,-63
4759,-71
4760,-81
4761,-89
4762,-93
4763,-89
4764,-85
4765,-84
4766,-85
4767,-88
4768,-94
4769,-96
4770,-95
4771,-89
4772,-89
4773,-84
4774,-83
4775,-81
4776,-81
4777,-84
4778,-85
4779,-82
4780,-76
4781,-68
4782,-61
4783,-57
4784,-57
4785,-60
4786,-60
4787,-47
4788,-21
4789,16
4790,69
4791,129
4792,192
4793,257
4794,324
4795,395
4796,469
4797,541
4798,653
4799,675
4800,671
4801,639
4802,577
4803,494
4804,392
4805,281
4806,168
4807,60
4808,-36
4809,-109
4810,-159
4811,-186
4812,-188
4813,-177
4814,-163
4815,-149
4816,-141
4817,-140
4818,-142
4819,-145
4820,-151
4821,-153
4822,-152
4823,-152
4824,-150
4825,-149
4826,-148
4827,-145
4828,-141
4829,-136
4830,-127
4831,-119
4832,-116
4833,-121
4834,-133
4835,-141
4836,-146
4837,-145
4838,-140
4839,-131
4840,-121
4841,-117
4842,-118
4843,-121
4844,-123
4845,-122
4846,-119
4847,-113
4848,-108
4849,-104
4850,-106
4851,-108
4852,-112
4853,-115
4854,-114
4855,-110
4856,-106
4857,-102
4858,-98
4859,-95
4860,-95
4861,-91
4862,-86
4863,-80
4864,-71
4865,-65
4866,-65
4867,-67
4868,-74
4869,-74
4870,-73
4871,-71
4872,-65
4873,-61
4874,-60
4875,-61
4876,-68
4877,-74
4878,-77
4879,-76
4880,-71
4881,-66
4882,-63
4883,-62
4884,-62
4885,-61
4886,-59
4887,-53
4888,-46
4889,-37
4890,-32
4891,-31
4892,-32
4893,-36
4894,-37
4895,-34
4896,-26
4897,-16
4898,-7
4899,-3
4900,-1
4901,-1
4902,-1
4903,7
4904,16
4905,27
4906,33
4907,34
4908,32
4909,29
4910,26
4911,28
4912,32
4913,37
4914,37
4915,42
4916,41
4917,38
4918,32
4919,28
4920,26
4921,29
4922,34
4923,37
4924,35
4925,30
4926,23
4927,13
4928,1
4929,-4
4930,-7
4931,-10
4932,-15
4933,-20
4934,-28
4935,-39
4936,-47
4937,-53
4938,-60
4939,-62
4940,-64
4941,-65
4942,-66
4943,-70
4944,-72
4945,-78
4946,-85
4947,-90
4948,-99
4949,-113
4950,-126
4951,-135
4952,-140
4953,-138
4954,-130
4955,-120
4956,-111
4957,-108
4958,-110
4959,-118
4960,-128
4961,-137
4962,-139
4963,-134
4964,-126
4965,-117
4966,-111
4967,-112
4968,-117
4969,-122
4970,-125
4971,-122
4972,-116
4973,-107
4974,-94
4975,-97
4976,-102
4977,-106
4978,-109
4979,-108
4980,-103
4981,-98
4982,-96
4983,-98
4984,-103
4985,-109
4986,-112
4987,-111
4988,-105
4989,-99
4990,-94
4991,-95
4992,-98
4993,-102
4994,-106
4995,-108
4996,-105
4997,-98
4998,-92
4999,-89
5000,-91
5001,-97
5002,-106
5003,-113
5004,-116
5005,-114
5006,-113
5007,-112
5008,-111
5009,-118
5010,-122
5011,-123
5012,-121
5013,-114
5014,-107
5015,-102
5016,-100
5017,-101
5018,-103
5019,-104
5020,-101
5021,-95
5022,-85
5023,-74
5024,-69
5025,-67
5026,-69
5027,-74
5028,-76
5029,-76
5030,-74
5031,-73
5032,-72
5033,-72
5034,-73
5035,-73
5036,-71
5037,-65
5038,-59
5039,-54
5040,-51
5041,-55
5042,-63
5043,-74
5044,-84
5045,-82
5046,-76
5047,-70
5048,-67
5049,-69
5050,-77
5051,-85
5052,-92
5053,-99
5054,-100
5055,-96
5056,-93
5057,-93
5058,-92
5059,-93
5060,-99
5061,-106
5062,-110
5063,-112
5064,-111
5065,-109
5066,-107
5067,-107
5068,-107
5069,-107
5070,-104
5071,-99
5072,-94
5073,-87
5074,-82
5075,-80
5076,-82
5077,-86
5078,-87
5079,-81
5080,-73
5081,-68
5082,-66
5083,-67
5084,-70
5085,-74
5086,-74
5087,-73
5088,-70
5089,-64
5090,-62
5091,-63
5092,-68
5093,-75
5094,-80
5095,-80
5096,-75
5097,-69
5098,-63
5099,-61
5100,-64
5101,-70
5102,-78
5103,-82
5104,-84
5105,-83
5106,-81
5107,-79
5108,-80
5109,-86
5110,-92
5111,-95
5112,-95
5113,-91
5114,-74
5115,-71
5116,-72
5117,-77
5118,-83
5119,-87
5120,-90
5121,-87
5122,-79
5123,-74
5124,-68
5125,-66
5126,-67
5127,-72
5128,-74
5129,-74
5130,-73
5131,-68
5132,-62
5133,-59
5134,-58
5135,-61
5136,-66
5137,-68
5138,-67
5139,-64
5140,-60
5141,-58
5142,-62
5143,-69
5144,-76
5145,-82
5146,-84
5147,-85
5148,-83
5149,-82
5150,-84
5151,-89
5152,-92
5153,-90
5154,-86
5155,-79
5156,-72
5157,-68
5158,-69
5159,-74
5160,-80
5161,-83
5162,-81
5163,-75
5164,-68
5165,-62
5166,-57
5167,-56
5168,-55
5169,-54
5170,-53
5171,-54
5172,-51
5173,-50
5174,-50
5175,-51
5176,-56
5177,-61
5178,-61
5179,-59
5180,-53
5181,-45
5182,-42
5183,-44
5184,-58
5185,-69
5186,-75
5187,-77
5188,-74
5189,-66
5190,-62
5191,-62
5192,-65
5193,-73
5194,-84
5195,-91
5196,-93
5197,-94
5198,-91
5199,-91
5200,-88
5201,-85
5202,-82
5203,-79
5204,-75
5205,-69
5206,-62
5207,-57
5208,-55
5209,-54
5210,-56
5211,-52
5212,-36
5213,-8
5214,33
5215,87
5216,148
5217,211
5218,280
5219,419
5220,490
5221,559
5222,620
5223,660
5224,673
5225,660
5226,616
5227,540
5228,437
5229,322
5230,204
5231,91
5232,-7
5233,-86
5234,-142
5235,-176
5236,-189
5237,-183
5238,-171
5239,-162
5240,-154
5241,-149
5242,-146
5243,-147
5244,-150
5245,-153
5246,-156
5247,-155
5248,-152
5249,-150
5250,-146
5251,-144
5252,-144
5253,-140
5254,-138
5255,-133
5256,-130
5257,-128
5258,-124
5259,-122
5260,-121
5261,-121
5262,-120
5263,-119
5264,-115
5265,-115
5266,-116
5267,-120
5268,-126
5269,-132
5270,-134
5271,-134
5272,-130
5273,-125
5274,-120
5275,-117
5276,-118
5277,-119
5278,-119
5279,-116
5280,-109
5281,-101
5282,-95
5283,-86
5284,-77
5285,-74
5286,-74
5287,-75
5288,-82
5289,-89
5290,-95
5291,-101
5292,-108
5293,-114
5294,-111
5295,-105
5296,-99
5297,-92
5298,-84
5299,-78
5300,-76
5301,-76
5302,-75
5303,-74
5304,-69
5305,-61
5306,-52
5307,-46
5308,-44
5309,-47
5310,-50
5311,-53
5312,-53
5313,-50
5314,-44
5315,-41
5316,-38
5317,-35
5318,-34
5319,-33
5320,-30
5321,-24
5322,-14
5323,5
5324,9
5325,9
5326,8
5327,9
5328,14
5329,19
5330,23
5331,26
5332,25
5333,22
5334,17
5335,13
5336,10
5337,12
5338,17
5339,22
5340,22
5341,22
5342,16
5343,6
5344,-2
5345,-9
5346,-14
5347,-16
5348,-15
5349,-14
5350,-16
5351,-22
5352,-31
5353,-38
5354,-43
5355,-43
5356,-37
5357,-30
5358,-30
5359,-36
5360,-47
5361,-60
5362,-72
5363,-80
5364,-86
5365,-89
5366,-89
5367,-92
5368,-98
5369,-103
5370,-109
5371,-111
5372,-112
5373,-115
5374,-119
5375,-124
5376,-132
5377,-141
5378,-143
5379,-142
5380,-138
5381,-129
5382,-120
5383,-116
5384,-117
5385,-125
5386,-135
5387,-142
5388,-147
5389,-148
5390,-143
5391,-139
5392,-138
5393,-141
5394,-148
5395,-151
5396,-149
5397,-144
5398,-137
5399,-133
5400,-133
5401,-135
5402,-139
5403,-140
5404,-139
5405,-135
5406,-128
5407,-123
5408,-120
5409,-117
5410,-119
5411,-123
5412,-125
5413,-123
5414,-122
5415,-119
5416,-117
5417,-118
5418,-120
5419,-120
5420,-119
5421,-116
5422,-112
5423,-108
5424,-100
5425,-96
5426,-95
5427,-96
5428,-98
5429,-101
5430,-100
5431,-98
5432,-98
5433,-100
5434,-102
5435,-101
5436,-97
5437,-92
5438,-85
5439,-79
5440,-75
5441,-74
5442,-78
5443,-84
5444,-93
5445,-103
5446,-108
5447,-109
5448,-110
5449,-111
5450,-113
5451,-114
5452,-114
5453,-114
5454,-110
5455,-103
5456,-97
5457,-91
5458,-91
5459,-94
5460,-102
5461,-110
5462,-116
5463,-117
5464,-110
5465,-107
5466,-107
5467,-111
5468,-115
5469,-118
5470,-119
5471,-117
5472,-112
5473,-108
5474,-106
5475,-109
5476,-112
5477,-114
5478,-111
5479,-105
5480,-100
5481,-96
5482,-97
5483,-97
5484,-105
5485,-115
5486,-125
5487,-132
5488,-133
5489,-126
5490,-117
5491,-109
5492,-103
5493,-101
5494,-100
5495,-102
5496,-103
5497,-102
5498,-102
5499,-106
5500,-112
5501,-123
5502,-131
5503,-135
5504,-136
5505,-135
5506,-133
5507,-129
5508,-127
5509,-126
5510,-125
5511,-123
5512,-123
5513,-122
5514,-119
5515,-116
5516,-116
5517,-119
5518,-121
5519,-122
5520,-122
5521,-117
5522,-111
5523,-105
5524,-99
5525,-94
5526,-95
5527,-99
5528,-103
5529,-106
5530,-109
5531,-112
5532,-111
5533,-103
5534,-100
5535,-95
5536,-89
5537,-86
5538,-86
5539,-87
5540,-93
5541,-101
5542,-112
5543,-121
5544,-127
5545,-130
5546,-126
5547,-115
5548,-104
5549,-94
5550,-88
5551,-90
5552,-94
5553,-100
5554,-106
5555,-109
5556,-108
5557,-108
5558,-106
5559,-106
5560,-107
5561,-110
5562,-111
5563,-108
5564,-99
5565,-92
5566,-87
5567,-83
5568,-91
5569,-97
5570,-99
5571,-98
5572,-94
5573,-90
5574,-85
5575,-83
5576,-86
5577,-88
5578,-88
5579,-88
5580,-85
5581,-82
5582,-80
5583,-81
5584,-85
5585,-91
5586,-97
5587,-100
5588,-100
5589,-96
5590,-92
5591,-90
5592,-88
5593,-87
5594,-85
5595,-86
5596,-83
5597,-80
5598,-77
5599,-75
5600,-73
5601,-73
5602,-73
5603,-70
5604,-65
5605,-58
5606,-55
5607,-50
5608,-46
5609,-44
5610,-42
5611,-39
5612,-36
5613,-34
5614,-33
5615,-34
5616,-36
5617,-36
5618,-35
5619,-34
5620,-31
5621,-26
5622,-20
5623,-13
5624,-10
5625,-10
5626,-12
5627,-18
5628,-24
5629,-32
5630,-34
5631,-35
5632,-37
5633,-40
5634,-43
5635,-49
5636,-56
5637,-71
5638,-71
5639,-67
5640,-64
5641,-60
5642,-59
5643,-62
5644,-66
5645,-67
5646,-66
5647,-63
5648,-58
5649,-56
5650,-55
5651,-59
5652,-64
5653,-66
5654,-64
5655,-60
5656,-51
5657,-41
5658,-34
5659,-29
5660,-21
5661,-7
5662,18
5663,57
5664,110
5665,175
5666,245
5667,319
5668,397
5669,473
5670,548
5671,620
5672,726
5673,742
5674,727
5675,673
5676,583
5677,466
5678,338
5679,211
5680,94
5681,0
5682,-69
5683,-115
5684,-142
5685,-153
5686,-153
5687,-151
5688,-146
5689,-141
5690,-137
5691,-136
5692,-139
5693,-144
5694,-149
5695,-152
5696,-154
5697,-151
5698,-147
5699,-143
5700,-139
5701,-139
5702,-142
5703,-144
5704,-144
5705,-142
5706,-137
5707,-139
5708,-142
5709,-146
5710,-151
5711,-152
5712,-149
5713,-143
5714,-135
5715,-126
5716,-121
5717,-120
5718,-122
5719,-126
5720,-124
5721,-122
5722,-118
5723,-112
5724,-106
5725,-102
5726,-99
5727,-98
5728,-95
5729,-91
5730,-86
5731,-81
5732,-76
5733,-71
5734,-66
5735,-62
5736,-58
5737,-53
5738,-50
5739,-50
5740,-51
5741,-61
5742,-65
5743,-68
5744,-68
5745,-68
5746,-66
5747,-64
5748,-62
5749,-59
5750,-59
5751,-59
5752,-58
5753,-57
5754,-55
5755,-52
5756,-51
5757,-49
5758,-45
5759,-44
5760,-44
5761,-38
5762,-32
5763,-24
5764,-13
5765,-6
5766,0
5767,1
5768,1
5769,-1
5770,-3
5771,0
5772,3
5773,9
5774,17
5775,21
5776,24
5777,23
5778,25
5779,30
5780,36
5781,44
5782,47
5783,45
5784,41
5785,33
5786,26
5787,23
5788,24
5789,26
5790,31
5791,35
5792,35
5793,33
5794,29
5795,28
5796,29
5797,33
5798,38
5799,41
5800,41
5801,36
5802,27
5803,16
5804,7
5805,3
5806,1
5807,1
5808,1
5809,0
5810,-5
5811,-28
5812,-39
5813,-48
5814,-56
5815,-65
5816,-72
5817,-78
5818,-87
5819,-92
5820,-96
5821,-99
5822,-99
5823,-100
5824,-101
5825,-104
5826,-109
5827,-115
5828,-116
5829,-115
5830,-114
5831,-112
5832,-110
5833,-109
5834,-113
5835,-119
5836,-123
5837,-125
5838,-121
5839,-113
5840,-105
5841,-100
5842,-98
5843,-100
5844,-103
5845,-105
5846,-105
5847,-102
5848,-100
5849,-101
5850,-104
5851,-110
5852,-115
5853,-114
5854,-111
5855,-103
5856,-93
5857,-85
5858,-81
5859,-83
5860,-88
5861,-93
5862,-96
5863,-95
5864,-88
5865,-80
5866,-75
5867,-76
5868,-78
5869,-82
5870,-89
5871,-92
5872,-89
5873,-83
5874,-76
5875,-71
5876,-69
5877,-68
5878,-70
5879,-70
5880,-67
5881,-65
5882,-67
5883,-72
5884,-79
5885,-85
5886,-87
5887,-86
5888,-83
5889,-78
5890,-76
5891,-78
5892,-83
5893,-86
5894,-88
5895,-85
5896,-77
5897,-67
5898,-58
5899,-53
5900,-53
5901,-56
5902,-58
5903,-59
5904,-59
5905,-55
5906,-51
5907,-51
5908,-54
5909,-62
5910,-62
5911,-68
5912,-71
5913,-73
5914,-73
5915,-69
5916,-72
5917,-77
5918,-83
5919,-86
5920,-85
5921,-81
5922,-71
5923,-60
5924,-54
5925,-51
5926,-51
5927,-56
5928,-63
5929,-67
5930,-68
5931,-66
5932,-62
5933,-59
5934,-60
5935,-61
5936,-64
5937,-64
5938,-61
5939,-55
5940,-45
5941,-37
5942,-33
5943,-34
5944,-38
5945,-42
5946,-44
5947,-42
5948,-37
5949,-33
5950,-33
5951,-38
5952,-45
5953,-48
5954,-47
5955,-38
5956,-28
5957,-22
5958,-19
5959,-21
5960,-25
5961,-31
5962,-35
5963,-37
5964,-35
5965,-32
5966,-28
5967,-31
5968,-36
5969,-45
5970,-50
5971,-52
5972,-51
5973,-48
5974,-46
5975,-44
5976,-43
5977,-43
5978,-44
5979,-44
5980,-41
5981,-37
5982,-34
5983,-34
5984,-36
5985,-37
5986,-34
5987,-29
5988,-24
5989,-21
5990,-20
5991,-23
5992,-28
5993,-36
5994,-44
5995,-47
5996,-42
5997,-33
5998,-27
5999,-22
6000,-21
6001,-26
6002,-34
6003,-42
6004,-46
6005,-49
6006,-49
6007,-47
6008,-41
6009,-40
6010,-43
6011,-46
6012,-47
6013,-47
6014,-45
6015,-42
6016,-40
6017,-40
6018,-41
6019,-40
6020,-36
6021,-30
6022,-22
6023,-18
6024,-19
6025,-24
6026,-33
6027,-44
6028,-49
6029,-49
6030,-47
6031,-43
6032,-37
6033,-33
6034,-34
6035,-39
6036,-40
6037,-38
6038,-36
6039,-31
6040,-25
6041,-25
6042,-27
6043,-31
6044,-30
6045,-24
6046,-19
6047,-10
6048,-2
6049,-1
6050,-5
6051,-19
6052,-19
6053,-26
6054,-24
6055,-18
6056,-8
6057,-2
6058,0
6059,-3
6060,-11
6061,-22
6062,-27
6063,-30
6064,-28
6065,-23
6066,-15
6067,-10
6068,-8
6069,-8
6070,-8
6071,-9
6072,-8
6073,-8
6074,-9
6075,-13
6076,-21
6077,-31
6078,-39
6079,-44
6080,-43
6081,-39
6082,-34
6083,-32
6084,-33
6085,-38
6086,-48
6087,-49
6088,-46
6089,-38
6090,-30
6091,-23
6092,-21
6093,-22
6094,-24
6095,-26
6096,-28
6097,-28
6098,-25
6099,-24
6100,-24
6101,-24
6102,-24
6103,-16
6104,0
6105,29
6106,72
6107,125
6108,184
6109,246
6110,312
6111,382
6112,451
6113,520
6114,585
6115,637
6116,670
6117,677
6118,655
6119,519
6120,412
6121,295
6122,176
6123,63
6124,-31
6125,-103
6126,-152
6127,-174
6128,-178
6129,-169
6130,-153
6131,-140
6132,-129
6133,-122
6134,-120
6135,-120
6136,-121
6137,-119
6138,-116
6139,-112
6140,-109
6141,-109
6142,-114
6143,-121
6144,-127
6145,-130
6146,-128
6147,-121
6148,-112
6149,-106
6150,-108
6151,-113
6152,-121
6153,-127
6154,-124
6155,-114
6156,-105
6157,-101
6158,-101
6159,-104
6160,-111
6161,-115
6162,-113
6163,-109
6164,-102
6165,-97
6166,-96
6167,-97
6168,-101
6169,-103
6170,-102
6171,-97
6172,-88
6173,-80
6174,-75
6175,-71
6176,-72
6177,-74
6178,-75
6179,-74
6180,-72
6181,-69
6182,-67
6183,-67
6184,-67
6185,-69
6186,-71
6187,-68
6188,-55
6189,-50
6190,-45
6191,-43
6192,-43
6193,-45
6194,-45
6195,-48
6196,-47
6197,-46
6198,-42
6199,-37
6200,-34
6201,-33
6202,-34
6203,-34
6204,-33
6205,-29
6206,-25
6207,-21
6208,-17
6209,-16
6210,-16
6211,-16
6212,-14
6213,-11
6214,-4
6215,2
6216,8
6217,9
6218,7
6219,4
6220,3
6221,8
6222,15
6223,38
6224,44
6225,46
6226,45
6227,38
6228,33
6229,34
6230,37
6231,40
6232,46
6233,47
6234,41
6235,32
6236,24
6237,16
6238,11
6239,7
6240,5
6241,2
6242,-2
6243,-9
6244,-14
6245,-19
6246,-24
6247,-27
6248,-28
6249,-30
6250,-33
6251,-40
6252,-47
6253,-53
6254,-57
6255,-61
6256,-64
6257,-77
6258,-88
6259,-101
6260,-116
6261,-128
6262,-138
6263,-142
6264,-141
6265,-141
6266,-142
6267,-144
6268,-149
6269,-155
6270,-158
6271,-161
6272,-162
6273,-164
6274,-168
6275,-175
6276,-182
6277,-191
6278,-200
6279,-203
6280,-202
6281,-198
6282,-194
6283,-192
6284,-191
6285,-190
6286,-190
6287,-189
6288,-184
6289,-178
6290,-176
6291,-174
6292,-173
6293,-174
6294,-174
6295,-170
6296,-161
6297,-152
6298,-146
6299,-143
6300,-142
6301,-145
6302,-150
6303,-151
6304,-150
6305,-151
6306,-149
6307,-146
6308,-144
6309,-145
6310,-148
6311,-153
6312,-159
6313,-162
6314,-166
6315,-169
6316,-175
6317,-181
6318,-188
6319,-192
6320,-192
6321,-190
6322,-184
6323,-178
6324,-173
6325,-169
6326,-177
6327,-183
6328,-188
6329,-188
6330,-184
6331,-178
6332,-172
6333,-167
6334,-164
6335,-162
6336,-159
6337,-159
6338,-157
6339,-155
6340,-150
6341,-145
6342,-143
6343,-140
6344,-140
6345,-140
6346,-140
6347,-142
6348,-146
6349,-151
6350,-156
6351,-162
6352,-166
6353,-168
6354,-170
6355,-168
6356,-167
6357,-167
6358,-170
6359,-177
6360,-180
6361,-185
6362,-185
6363,-185
6364,-185
6365,-188
6366,-190
6367,-192
6368,-194
6369,-194
6370,-190
6371,-182
6372,-171
6373,-164
6374,-159
6375,-158
6376,-163
6377,-167
6378,-171
6379,-171
6380,-169
6381,-164
6382,-159
6383,-152
6384,-147
6385,-147
6386,-147
6387,-146
6388,-142
6389,-135
6390,-127
6391,-118
6392,-111
6393,-110
6394,-120
6395,-124
6396,-125
6397,-120
6398,-114
6399,-107
6400,-102
6401,-102
6402,-104
6403,-105
6404,-108
6405,-109
6406,-107
6407,-107
6408,-108
6409,-110
6410,-115
6411,-118
6412,-117
6413,-111
6414,-99
6415,-87
6416,-78
6417,-75
6418,-76
6419,-80
6420,-84
6421,-83
6422,-78
6423,-70
6424,-64
6425,-58
6426,-56
6427,-58
6428,-62
6429,-61
6430,-54
6431,-46
6432,-40
6433,-38
6434,-38
6435,-39
6436,-38
6437,-35
6438,-32
6439,-29
6440,-28
6441,-32
6442,-42
6443,-54
6444,-65
6445,-74
6446,-77
6447,-75
6448,-72
6449,-71
6450,-75
6451,-81
6452,-86
6453,-93
6454,-95
6455,-91
6456,-87
6457,-84
6458,-81
6459,-80
6460,-82
6461,-84
6462,-86
6463,-84
6464,-73
6465,-68
6466,-67
6467,-69
6468,-72
6469,-76
6470,-79
6471,-80
6472,-78
6473,-78
6474,-79
6475,-84
6476,-93
6477,-103
6478,-113
6479,-113
6480,-119
6481,-119
6482,-119
6483,-117
6484,-111
6485,-106
6486,-106
6487,-105
6488,-105
6489,-108
6490,-110
6491,-113
6492,-119
6493,-128
6494,-137
6495,-144
6496,-144
6497,-138
6498,-131
6499,-116
6500,-114
6501,-116
6502,-120
6503,-121
6504,-118
6505,-110
6506,-97
6507,-82
6508,-61
6509,-35
6510,-3
6511,39
6512,93
6513,159
6514,239
6515,327
6516,415
6517,497
6518,565
6519,611
6520,631
6521,625
6522,588
6523,519
6524,421
6525,305
6526,178
6527,52
6528,-60
6529,-150
6530,-216
6531,-255
6532,-274
6533,-280
6534,-278
6535,-280
6536,-277
6537,-269
6538,-261
6539,-252
6540,-245
6541,-243
6542,-246
6543,-253
6544,-258
6545,-259
6546,-253
6547,-243
6548,-232
6549,-222
6550,-217
6551,-216
6552,-219
6553,-223
6554,-226
6555,-223
6556,-217
6557,-211
6558,-209
6559,-212
6560,-221
6561,-230
6562,-236
6563,-236
6564,-229
6565,-221
6566,-212
6567,-208
6568,-207
6569,-217
6570,-222
6571,-224
6572,-219
6573,-212
6574,-203
6575,-197
6576,-195
6577,-194
6578,-189
6579,-182
6580,-175
6581,-168
6582,-161
6583,-157
6584,-156
6585,-158
6586,-157
6587,-155
6588,-151
6589,-145
6590,-137
6591,-132
6592,-132
6593,-136
6594,-138
6595,-137
6596,-136
6597,-129
6598,-118
6599,-110
6600,-104
6601,-98
6602,-95
6603,-79
6604,-68
6605,-54
6606,-41
6607,-34
6608,-34
6609,-34
6610,-37
6611,-38
6612,-35
6613,-30
6614,-25
6615,-19
6616,-18
6617,-17
6618,-12
6619,-7
6620,0
6621,0
6622,11
6623,21
6624,27
6625,30
6626,28
6627,20
6628,12
6629,7
6630,5
6631,8
6632,14
6633,23
6634,31
6635,35
6636,33
6637,31
6638,21
6639,18
6640,17
6641,15
6642,11
6643,10
6644,7
6645,1
6646,-3
6647,-4
6648,-5
6649,-6
6650,-10
6651,-15
6652,-22
6653,-28
6654,-34
6655,-35
6656,-38
6657,-43
6658,-52
6659,-64
6660,-78
6661,-92
6662,-104
6663,-111
6664,-114
6665,-115
6666,-120
6667,-127
6668,-137
6669,-150
6670,-164
6671,-173
6672,-173
6673,-170
6674,-170
6675,-170
6676,-174
6677,-181
6678,-185
6679,-186
6680,-184
6681,-180
6682,-177
6683,-175
6684,-179
6685,-187
6686,-193
6687,-198
6688,-201
6689,-204
6690,-205
6691,-207
6692,-213
6693,-221
6694,-230
6695,-237
6696,-239
6697,-235
6698,-230
6699,-226
6700,-224
6701,-227
6702,-230
6703,-231
6704,-234
6705,-233
6706,-227
6707,-220
6708,-220
6709,-226
6710,-237
6711,-245
6712,-251
6713,-252
6714,-247
6715,-243
6716,-238
6717,-230
6718,-227
6719,-227
6720,-226
6721,-226
6722,-227
6723,-228
6724,-228
6725,-230
6726,-234
6727,-238
6728,-240
6729,-239
6730,-235
6731,-231
6732,-228
6733,-227
6734,-229
6735,-234
6736,-239
6737,-238
6738,-233
6739,-225
6740,-217
6741,-207
6742,-201
6743,-202
6744,-200
6745,-198
6746,-195
6747,-191
6748,-187
6749,-185
6750,-189
6751,-196
6752,-197
6753,-193
6754,-189
6755,-182
6756,-173
6757,-168
6758,-168
6759,-171
6760,-175
6761,-176
6762,-177
6763,-177
6764,-172
6765,-164
6766,-157
6767,-154
6768,-152
6769,-153
6770,-152
6771,-148
6772,-141
6773,-131
6774,-121
6775,-116
6776,-111
6777,-111
6778,-113
6779,-113
6780,-111
6781,-106
6782,-102
6783,-98
6784,-97
6785,-98
6786,-97
6787,-94
6788,-91
6789,-88
6790,-85
6791,-84
6792,-85
6793,-90
6794,-95
6795,-100
6796,-103
6797,-104
6798,-100
6799,-101
6800,-102
6801,-104
6802,-109
6803,-111
6804,-105
6805,-102
6806,-94
6807,-81
6808,-74
6809,-70
6810,-69
6811,-77
6812,-76
6813,-76
6814,-72
6815,-70
6816,-73
6817,-76
6818,-83
6819,-88
6820,-89
6821,-87
6822,-81
6823,-72
6824,-67
6825,-65
6826,-66
6827,-71
6828,-73
6829,-75
6830,-75
6831,-71
6832,-67
6833,-66
6834,-67
6835,-70
6836,-71
6837,-67
6838,-59
6839,-50
6840,-43
6841,-42
6842,-42
6843,-45
6844,-52
6845,-57
6846,-60
6847,-58
6848,-59
6849,-64
6850,-70
6851,-80
6852,-89
6853,-89
6854,-84
6855,-82
6856,-80
6857,-79
6858,-85
6859,-97
6860,-111
6861,-124
6862,-134
6863,-140
6864,-143
6865,-142
6866,-143
6867,-145
6868,-145
6869,-145
6870,-142
6871,-138
6872,-131
6873,-126
6874,-124
6875,-125
6876,-130
6877,-136
6878,-142
6879,-146
6880,-145
6881,-139
6882,-125
6883,-118
6884,-115
6885,-114
6886,-113
6887,-113
6888,-114
6889,-112
6890,-108
6891,-98
6892,-80
6893,-51
6894,-9
6895,45
6896,112
6897,189
6898,275
6899,361
6900,440
6901,513
6902,577
6903,624
6904,651
6905,653
6906,653
6907,627
6908,570
6909,483
6910,369
6911,244
6912,116
6913,-3
6914,-98
6915,-163
6916,-201
6917,-218
6918,-212
6919,-204
6920,-197
6921,-193
6922,-187
6923,-182
6924,-178
6925,-175
6926,-175
6927,-177
6928,-177
6929,-175
6930,-171
6931,-163
6932,-153
6933,-146
6934,-142
6935,-140
6936,-139
6937,-137
6938,-131
6939,-124
6940,-115
6941,-109
6942,-108
6943,-109
6944,-110
6945,-111
6946,-107
6947,-98
6948,-87
6949,-78
6950,-71
6951,-69
6952,-78
6953,-78
6954,-75
6955,-67
6956,-55
6957,-45
6958,-35
6959,-30
6960,-28
6961,-27
6962,-26
6963,-25
6964,-22
6965,-18
6966,-14
6967,-10
6968,-7
6969,-5
6970,0
6971,7
6972,14
6973,22
6974,30
6975,36
6976,37
6977,33
6978,29
6979,26
6980,23
6981,24
6982,25
6983,24
6984,21
6985,18
6986,9
6987,9
6988,13
6989,21
6990,30
6991,36
6992,38
6993,36
6994,32
6995,33
6996,38
6997,46
6998,56
6999,67
7000,75
7001,83
7002,91
7003,99
7004,109
7005,117
7006,122
7007,124
7008,118
7009,108
7010,97
7011,87
7012,84
7013,88
7014,95
7015,101
7016,103
7017,98
7018,88
7019,79
7020,72
7021,74
7022,80
7023,83
7024,80
7025,72
7026,59
7027,46
7028,37
7029,35
7030,36
7031,42
7032,46
7033,44
7034,38
7035,27
7036,15
7037,5
7038,-4
7039,-10
7040,-16
7041,-21
7042,-28
7043,-35
7044,-43
7045,-47
7046,-47
7047,-45
7048,-45
7049,-45
7050,-51
7051,-63
7052,-79
7053,-97
7054,-113
7055,-129
7056,-130
7057,-127
7058,-126
7059,-129
7060,-136
7061,-143
7062,-148
7063,-149
7064,-147
7065,-144
7066,-140
7067,-138
7068,-137
7069,-138
7070,-140
7071,-142
7072,-142
7073,-138
7074,-135
7075,-133
7076,-132
7077,-131
7078,-131
7079,-129
7080,-126
7081,-121
7082,-114
7083,-106
7084,-99
7085,-93
7086,-90
7087,-92
7088,-93
7089,-92
7090,-90
7091,-90
7092,-91
7093,-92
7094,-92
7095,-91
7096,-88
7097,-82
7098,-75
7099,-69
7100,-65
7101,-67
7102,-72
7103,-77
7104,-80
7105,-77
7106,-69
7107,-62
7108,-57
7109,-55
7110,-57
7111,-61
7112,-65
7113,-65
7114,-60
7115,-52
7116,-45
7117,-39
7118,-39
7119,-45
7120,-52
7121,-56
7122,-56
7123,-53
7124,-40
7125,-37
7126,-37
7127,-41
7128,-44
7129,-44
7130,-43
7131,-40
7132,-36
7133,-32
7134,-31
7135,-32
7136,-32
7137,-31
7138,-27
7139,-22
7140,-19
7141,-16
7142,-16
7143,-21
7144,-25
7145,-27
7146,-26
7147,-21
7148,-15
7149,-7
7150,-1
7151,1
7152,-1
7153,-10
7154,-21
7155,-30
7156,-40
7157,-50
7158,-67
7159,-76
7160,-80
7161,-80
7162,-78
7163,-75
7164,-74
7165,-74
7166,-75
7167,-77
7168,-81
7169,-82
7170,-79
7171,-70
7172,-63
7173,-62
7174,-64
7175,-69
7176,-76
7177,-77
7178,-67
7179,-44
7180,-14
7181,10
7182,26
7183,27
7184,8
7185,-24
7186,-57
7187,-83
7188,-96
7189,-97
7190,-97
7191,-88
7192,-77
7193,-71
7194,-80
7195,-82
7196,-85
7197,-84
7198,-78
7199,-75
7200,-76
7201,-80
7202,-86
7203,-92
7204,-96
7205,-95
7206,-89
7207,-82
7208,-79
7209,-74
7210,-74
7211,-73
7212,-69
7213,-64
7214,-60
7215,-57
7216,-58
7217,-62
7218,-68
7219,-73
7220,-74
7221,-70
7222,-63
7223,-50
7224,-44
7225,-46
7226,-54
7227,-65
7228,-79
7229,-94
7230,-93
7231,-86
7232,-78
7233,-74
7234,-71
7235,-73
7236,-76
7237,-73
7238,-67
7239,-58
7240,-49
7241,-40
7242,-29
7243,-17
7244,-6
7245,1
7246,5
7247,3
7248,-2
7249,-13
7250,-28
7251,-42
7252,-53
7253,-61
7254,-64
7255,-65
7256,-66
7257,-71
7258,-80
7259,-89
7260,-97
7261,-104
7262,-107
7263,-99
7264,-94
7265,-92
7266,-92
7267,-97
7268,-105
7269,-114
7270,-120
7271,-119
7272,-114
7273,-107
7274,-98
7275,-92
7276,-88
7277,-87
7278,-87
7279,-87
7280,-85
7281,-84
7282,-82
7283,-80
7284,-74
7285,-66
7286,-48
7287,-17
7288,29
7289,89
7290,154
7291,223
7292,297
7293,377
7294,458
7295,542
7296,624
7297,749
7298,776
7299,773
7300,731
7301,643
7302,523
7303,387
7304,244
7305,105
7306,-12
7307,-103
7308,-162
7309,-193
7310,-203
7311,-195
7312,-181
7313,-168
7314,-153
7315,-137
7316,-126
7317,-118
7318,-115
7319,-116
7320,-115
7321,-112
7322,-105
7323,-95
7324,-83
7325,-72
7326,-69
7327,-70
7328,-73
7329,-76
7330,-81
7331,-84
7332,-86
7333,-89
7334,-94
7335,-98
7336,-101
7337,-100
7338,-97
7339,-89
7340,-79
7341,-73
7342,-71
7343,-73
7344,-78
7345,-80
7346,-78
7347,-72
7348,-63
7349,-54
7350,-49
7351,-51
7352,-59
7353,-66
7354,-71
7355,-70
7356,-63
7357,-53
7358,-46
7359,-40
7360,-39
7361,-42
7362,-46
7363,-48
7364,-46
7365,-41
7366,-34
7367,-27
7368,-20
7369,-19
7370,-14
7371,-5
7372,7
7373,20
7374,27
7375,32
7376,31
7377,23
7378,13
7379,5
7380,-1
7381,-3
7382,-2
7383,0
7384,2
7385,2
7386,0
7387,1
7388,7
7389,16
7390,30
7391,43
7392,56
7393,68
7394,76
7395,82
7396,87
7397,89
7398,86
7399,81
7400,75
7401,68
7402,61
7403,58
7404,65
7405,74
7406,86
7407,98
7408,103
7409,105
7410,102
7411,99
7412,96
7413,95
7414,93
7415,94
7416,93
7417,91
7418,86
7419,82
7420,79
7421,77
7422,81
7423,85
7424,87
7425,86
7426,79
7427,67
7428,55
7429,42
7430,29
7431,22
7432,15
7433,9
7434,3
7435,-5
7436,-15
7437,-23
7438,-34
7439,-40
7440,-48
7441,-57
7442,-68
7443,-79
7444,-87
7445,-92
7446,-93
7447,-90
7448,-88
7449,-87
7450,-90
7451,-97
7452,-105
7453,-108
7454,-106
7455,-98
7456,-90
7457,-84
7458,-82
7459,-84
7460,-93
7461,-107
7462,-119
7463,-128
7464,-133
7465,-136
7466,-136
7467,-140
7468,-146
7469,-150
7470,-152
7471,-148
7472,-130
7473,-122
7474,-119
7475,-119
7476,-123
7477,-130
7478,-138
7479,-143
7480,-142
7481,-134
7482,-124
7483,-114
7484,-109
7485,-111
7486,-115
7487,-121
7488,-127
7489,-128
7490,-126
7491,-124
7492,-125
7493,-125
7494,-127
7495,-126
7496,-123
7497,-115
7498,-105
7499,-95
7500,-92
7501,-90
7502,-92
7503,-96
7504,-98
7505,-95
7506,-87
7507,-74
7508,-66
7509,-76
7510,-92
7511,-112
7512,-127
7513,-134
7514,-132
7515,-124
7516,-111
7517,-104
7518,-102
7519,-107
7520,-114
7521,-120
7522,-120
7523,-115
7524,-107
7525,-100
7526,-94
7527,-91
7528,-90
7529,-85
7530,-80
7531,-75
7532,-74
7533,-79
7534,-89
7535,-101
7536,-114
7537,-121
7538,-121
7539,-116
7540,-106
7541,-93
7542,-85
7543,-84
7544,-88
7545,-91
7546,-94
7547,-96
7548,-95
7549,-91
7550,-84
7551,-73
7552,-64
7553,-61
7554,-65
7555,-72
7556,-83
7557,-97
7558,-112
7559,-122
7560,-127
7561,-127
7562,-123
7563,-116
7564,-111
7565,-110
7566,-109
7567,-108
7568,-109
7569,-111
7570,-112
7571,-110
7572,-104
7573,-95
7574,-87
7575,-81
7576,-78
7577,-80
7578,-83
7579,-87
7580,-90
7581,-93
7582,-99
7583,-105
7584,-112
7585,-117
7586,-119
7587,-118
7588,-111
7589,-104
7590,-97
7591,-91
7592,-87
7593,-85
7594,-83
7595,-79
7596,-73
7597,-65
7598,-55
7599,-47
7600,-42
7601,-37
7602,-32
7603,-23
7604,-11
7605,3
7606,16
7607,22
7608,15
7609,-2
7610,-26
7611,-51
7612,-81
7613,-79
7614,-69
7615,-54
7616,-40
7617,-40
7618,-30
7619,-26
7620,-25
7621,-26
7622,-27
7623,-29
7624,-33
7625,-40
7626,-51
7627,-64
7628,-73
7629,-78
7630,-81
7631,-79
7632,-75
7633,-72
7634,-71
7635,-71
7636,-75
7637,-78
7638,-79
7639,-78
7640,-71
7641,-60
7642,-49
7643,-38
7644,-27
7645,-18
7646,-14
7647,-13
7648,-32
7649,-48
7650,-64
7651,-79
7652,-88
7653,-91
7654,-87
7655,-79
7656,-65
7657,-49
7658,-29
7659,-5
7660,26
7661,69
7662,123
7663,188
7664,265
7665,351
7666,435
7667,515
7668,584
7669,639
7670,671
7671,682
7672,670
7673,631
7674,564
7675,466
7676,346
7677,215
7678,84
7679,-28
7680,-112
7681,-165
7682,-191
7683,-182
7684,-173
7685,-171
7686,-172
7687,-170
7688,-167
7689,-160
7690,-152
7691,-148
7692,-148
7693,-150
7694,-153
7695,-154
7696,-150
7697,-142
7698,-131
7699,-120
7700,-112
7701,-108
7702,-109
7703,-113
7704,-119
7705,-127
7706,-135
7707,-146
7708,-158
7709,-168
7710,-179
7711,-185
7712,-186
7713,-185
7714,-182
7715,-177
7716,-180
7717,-185
7718,-189
7719,-193
7720,-192
7721,-186
7722,-171
7723,-158
7724,-152
7725,-153
7726,-162
7727,-176
7728,-190
7729,-197
7730,-197
7731,-190
7732,-175
7733,-157
7734,-139
7735,-126
7736,-122
7737,-119
7738,-117
7739,-118
7740,-120
7741,-124
7742,-129
7743,-131
7744,-131
7745,-126
7746,-112
7747,-90
7748,-64
7749,-41
7750,-11
7751,-10
7752,-23
7753,-41
7754,-60
7755,-80
7756,-95
7757,-106
7758,-112
7759,-112
7760,-114
7761,-112
7762,-108
7763,-94
7764,-79
7765,-65
7766,-49
7767,-36
7768,-27
7769,-18
7770,-10
7771,-4
7772,3
7773,10
7774,14
7775,15
7776,15
7777,15
7778,19
7779,25
7780,40
7781,62
7782,83
7783,90
7784,91
7785,66
7786,47
7787,29
7788,17
7789,11
7790,9
7791,9
7792,9
7793,6
7794,-2
7795,-7
7796,-9
7797,-8
7798,-6
7799,-5
7800,-7
7801,-12
7802,-19
7803,-29
7804,-38
7805,-44
7806,-46
7807,-50
7808,-54
7809,-58
7810,-65
7811,-73
7812,-82
7813,-85
7814,-81
7815,-79
7816,-82
7817,-94
7818,-104
7819,-116
7820,-121
7821,-122
7822,-122
7823,-125
7824,-128
7825,-137
7826,-154
7827,-173
7828,-185
7829,-185
7830,-176
7831,-164
7832,-154
7833,-153
7834,-161
7835,-179
7836,-201
7837,-222
7838,-235
7839,-236
7840,-226
7841,-209
7842,-196
7843,-188
7844,-186
7845,-188
7846,-189
7847,-189
7848,-187
7849,-181
7850,-174
7851,-168
7852,-161
7853,-144
7854,-137
7855,-129
7856,-124
7857,-122
7858,-125
7859,-133
7860,-143
7861,-152
7862,-158
7863,-159
7864,-154
7865,-148
7866,-145
7867,-143
7868,-140
7869,-140
7870,-140
7871,-138
7872,-137
7873,-133
7874,-130
7875,-129
7876,-129
7877,-132
7878,-137
7879,-138
7880,-136
7881,-134
7882,-131
7883,-129
7884,-132
7885,-136
7886,-140
7887,-138
7888,-128
7889,-113
7890,-95
7891,-79
7892,-74
7893,-83
7894,-97
7895,-118
7896,-136
7897,-147
7898,-153
7899,-151
7900,-144
7901,-144
7902,-139
7903,-134
7904,-131
7905,-130
7906,-128
7907,-120
7908,-113
7909,-107
7910,-104
7911,-106
7912,-109
7913,-111
7914,-113
7915,-113
7916,-111
7917,-112
7918,-115
7919,-121
7920,-131
7921,-141
7922,-147
7923,-151
7924,-149
7925,-147
7926,-145
7927,-145
7928,-145
7929,-144
7930,-143
7931,-141
7932,-138
7933,-134
7934,-133
7935,-134
7936,-138
7937,-140
7938,-139
7939,-137
7940,-134
7941,-131
7942,-130
7943,-132
7944,-135
7945,-135
7946,-132
7947,-128
7948,-119
7949,-108
7950,-100
7951,-96
7952,-94
7953,-93
7954,-92
7955,-89
7956,-84
7957,-72
7958,-71
7959,-73
7960,-74
7961,-77
7962,-74
7963,-66
7964,-57
7965,-50
7966,-45
7967,-45
7968,-51
7969,-56
7970,-62
7971,-63
7972,-58
7973,-51
7974,-41
7975,-34
7976,-34
7977,-37
7978,-41
7979,-47
7980,-50
7981,-48
7982,-49
7983,-52
7984,-56
7985,-65
7986,-76
7987,-87
7988,-94
7989,-97
7990,-96
7991,-93
7992,-87
7993,-87
7994,-88
7995,-82
7996,-71
7997,-56
7998,-43
7999,-34
8000,-34
8001,-42
8002,-55
8003,-69
8004,-79
8005,-85
8006,-86
8007,-84
8008,-78
8009,-75
8010,-76
8011,-77
8012,-77
8013,-69
8014,-49
8015,-20
8016,18
8017,67
8018,123
8019,188
8020,260
8021,338
8022,423
8023,509
8024,592
8025,668
8026,753
8027,755
8028,727
8029,665
8030,573
8031,455
8032,326
8033,196
8034,74
8035,-27
8036,-102
8037,-153
8038,-178
8039,-181
8040,-175
8041,-168
8042,-163
8043,-157
8044,-157
8045,-153
8046,-148
8047,-142
8048,-138
8049,-137
8050,-137
8051,-140
8052,-146
8053,-154
8054,-159
8055,-158
8056,-153
8057,-146
8058,-138
8059,-132
8060,-133
8061,-136
8062,-143
8063,-142
8064,-138
8065,-133
8066,-127
8067,-125
8068,-130
8069,-136
8070,-141
8071,-144
8072,-142
8073,-136
8074,-129
8075,-123
8076,-123
8077,-124
8078,-127
8079,-130
8080,-132
8081,-130
8082,-125
8083,-121
8084,-119
8085,-119
8086,-123
8087,-126
8088,-128
8089,-128
8090,-126
8091,-123
8092,-119
8093,-114
8094,-107
8095,-99
8096,-81
8097,-73
8098,-70
8099,-70
8100,-76
8101,-83
8102,-91
8103,-96
8104,-95
8105,-88
8106,-79
8107,-71
8108,-62
8109,-57
8110,-58
8111,-61
8112,-63
8113,-63
8114,-57
8115,-51
8116,-45
8117,-38
8118,-34
8119,-29
8120,-25
8121,-19
8122,-12
8123,-2
8124,5
8125,11
8126,16
8127,18
8128,18
8129,22
8130,27
8131,40
8132,45
8133,48
8134,47
8135,43
8136,42
8137,44
8138,49
8139,55
8140,59
8141,61
8142,61
8143,58
8144,55
8145,51
8146,47
8147,44
8148,41
8149,38
8150,32
8151,24
8152,18
8153,13
8154,14
8155,16
8156,17
8157,17
8158,13
8159,4
8160,-8
8161,-22
8162,-35
8163,-46
8164,-53
8165,-57
8166,-70
8167,-80
8168,-89
8169,-98
8170,-108
8171,-112
8172,-113
8173,-110
8174,-110
8175,-115
8176,-128
8177,-142
8178,-153
8179,-157
8180,-153
8181,-146
8182,-141
8183,-138
8184,-140
8185,-149
8186,-149
8187,-158
8188,-167
8189,-172
8190,-168
8191,-160
8192,-156
8193,-153
8194,-155
8195,-159
8196,-157
8197,-153
8198,-148
8199,-141
8200,-139
8201,-145
8202,-152
8203,-156
8204,-155
8205,-149
8206,-141
8207,-129
8208,-123
8209,-126
8210,-135
8211,-145
8212,-156
8213,-165
8214,-165
8215,-160
8216,-153
8217,-146
8218,-144
8219,-143
8220,-143
8221,-144
8222,-142
8223,-134
8224,-125
8225,-119
8226,-115
8227,-115
8228,-118
8229,-123
8230,-127
8231,-129
8232,-127
8233,-128
8234,-128
8235,-127
8236,-130
8237,-129
8238,-125
8239,-118
8240,-112
8241,-108
8242,-106
8243,-107
8244,-111
8245,-113
8246,-113
8247,-114
8248,-114
8249,-113
8250,-114
8251,-116
8252,-121
8253,-122
8254,-120
8255,-115
8256,-107
8257,-100
8258,-95
8259,-93
8260,-94
8261,-96
8262,-94
8263,-90
8264,-82
8265,-72
8266,-61
8267,-55
8268,-54
8269,-56
8270,-55
8271,-38
8272,-23
8273,-13
8274,-10
8275,-19
8276,-37
8277,-58
8278,-78
8279,-90
8280,-90
8281,-82
8282,-69
8283,-57
8284,-54
8285,-55
8286,-56
8287,-55
8288,-52
8289,-46
8290,-40
8291,-40
8292,-43
8293,-52
8294,-66
8295,-78
8296,-86
8297,-87
8298,-83
8299,-80
8300,-77
8301,-77
8302,-76
8303,-75
8304,-72
8305,-67
8306,-54
8307,-48
8308,-48
8309,-48
8310,-51
8311,-52
8312,-51
8313,-48
8314,-43
8315,-37
8316,-31
8317,-25
8318,-23
8319,-23
8320,-24
8321,-28
8322,-31
8323,-37
8324,-45
8325,-51
8326,-53
8327,-53
8328,-53
8329,-47
8330,-40
8331,-34
8332,-25
8333,-19
8334,-16
8335,-14
8336,-15
8337,-18
8338,-17
8339,-12
8340,-8
8341,-4
8342,-2
8343,-12
8344,-27
8345,-47
8346,-65
8347,-80
8348,-91
8349,-96
8350,-99
8351,-101
8352,-101
8353,-98
8354,-93
8355,-84
8356,-70
8357,-57
8358,-43
8359,-36
8360,-37
8361,-42
8362,-40
8363,-30
8364,-17
8365,-4
8366,4
8367,2
8368,-10
8369,-33
8370,-56
8371,-77
8372,-85
8373,-82
8374,-68
8375,-51
8376,-38
8377,-16
8378,5
8379,41
8380,93
8381,158
8382,234
8383,314
8384,398
8385,478
8386,557
8387,634
8388,703
8389,756
8390,783
8391,779
8392,735
8393,649
8394,527
8395,389
8396,248
8397,118
8398,10
8399,-67
8400,-118
8401,-145
8402,-155
8403,-150
8404,-137
8405,-127
8406,-117
8407,-106
8408,-99
8409,-97
8410,-98
8411,-97
8412,-82
8413,-76
8414,-69
8415,-70
8416,-79
8417,-91
8418,-102
8419,-112
8420,-115
8421,-110
8422,-99
8423,-89
8424,-85
8425,-85
8426,-89
8427,-97
8428,-104
8429,-105
8430,-99
8431,-83
8432,-59
8433,-31
8434,-10
8435,-5
8436,-16
8437,-39
8438,-72
8439,-109
8440,-138
8441,-157
8442,-166
8443,-166
8444,-159
8445,-147
8446,-134
8447,-106
8448,-91
8449,-80
8450,-74
8451,-70
8452,-64
8453,-55
8454,-40
8455,-22
8456,-7
8457,2
8458,6
8459,0
8460,-8
8461,-17
8462,-24
8463,-24
8464,-22
8465,-23
8466,-24
8467,-28
8468,-35
8469,-36
8470,-36
8471,-31
8472,-26
8473,-16
8474,-5
8475,3
8476,11
8477,19
8478,28
8479,43
8480,62
8481,83
8482,101
8483,114
8484,111
8485,98
8486,83
8487,71
8488,62
8489,60
8490,63
8491,69
8492,76
8493,84
8494,92
8495,103
8496,112
8497,122
8498,133
8499,142
8500,146
8501,145
8502,138
8503,128
8504,119
8505,109
8506,100
8507,95
8508,91
8509,87
8510,86
8511,84
8512,83
8513,84
8514,85
8515,89
8516,90
8517,79
8518,70
8519,61
8520,54
8521,50
8522,49
8523,52
8524,53
8525,52
8526,45
8527,32
8528,19
8529,11
8530,4
8531,1
8532,-1
8533,-8
8534,-17
8535,-26
8536,-34
8537,-44
8538,-51
8539,-57
8540,-61
8541,-64
8542,-73
8543,-84
8544,-96
8545,-103
8546,-104
8547,-100
8548,-93
8549,-88
8550,-89
8551,-91
8552,-95
8553,-105
8554,-106
8555,-106
8556,-104
8557,-103
8558,-105
8559,-108
8560,-113
8561,-116
8562,-117
8563,-114
8564,-111
8565,-110
8566,-111
8567,-117
8568,-125
8569,-132
8570,-136
8571,-136
8572,-133
8573,-131
8574,-131
8575,-132
8576,-134
8577,-138
8578,-140
8579,-140
8580,-137
8581,-134
8582,-131
8583,-131
8584,-136
8585,-143
8586,-148
8587,-151
8588,-150
8589,-149
8590,-147
8591,-149
8592,-153
8593,-157
8594,-161
8595,-166
8596,-167
8597,-166
8598,-166
8599,-167
8600,-172
8601,-178
8602,-183
8603,-185
8604,-186
8605,-180
8606,-171
8607,-164
8608,-161
8609,-162
8610,-166
8611,-173
8612,-179
8613,-179
8614,-183
8615,-182
8616,-179
8617,-178
8618,-174
8619,-171
8620,-168
8621,-164
8622,-156
8623,-138
8624,-131
8625,-127
8626,-127
8627,-130
8628,-133
8629,-134
8630,-130
8631,-123
8632,-115
8633,-108
8634,-101
8635,-100
8636,-101
8637,-101
8638,-99
8639,-95
8640,-90
8641,-84
8642,-80
8643,-78
8644,-80
8645,-79
8646,-75
8647,-70
8648,-62
8649,-52
8650,-47
8651,-46
8652,-49
8653,-53
8654,-57
8655,-58
8656,-56
8657,-46
8658,-44
8659,-43
8660,-44
8661,-45
8662,-43
8663,-39
8664,-31
8665,-24
8666,-20
8667,-18
8668,-17
8669,-21
8670,-25
8671,-26
8672,-28
8673,-26
8674,-23
8675,-21
8676,-19
8677,-22
8678,-26
8679,-25
8680,-23
8681,-22
8682,-18
8683,-14
8684,-14
8685,-15
8686,-16
8687,-19
8688,-21
8689,-23
8690,-24
8691,-26
8692,-32
8693,-33
8694,-32
8695,-29
8696,-24
8697,-18
8698,-14
8699,-16
8700,-22
8701,-31
8702,-42
8703,-50
8704,-50
8705,-46
8706,-42
8707,-35
8708,-32
8709,-31
8710,-32
8711,-36
8712,-40
8713,-42
8714,-44
8715,-47
8716,-49
8717,-54
8718,-60
8719,-64
8720,-67
8721,-69
8722,-66
8723,-62
8724,-59
8725,-52
8726,-52
8727,-52
8728,-49
8729,-43
8730,-37
8731,-26
8732,-9
8733,15
8734,49
8735,95
8736,156
8737,229
8738,307
8739,381
8740,451
8741,517
8742,577
8743,627
8744,661
8745,676
8746,667
8747,621
8748,537
8749,425
8750,289
8751,150
8752,28
8753,-63
8754,-124
8755,-124
8756,-160
8757,-178
8758,-180
8759,-174
8760,-174
8761,-174
8762,-171
8763,-170
8764,-169
8765,-170
8766,-173
8767,-178
8768,-180
8769,-178
8770,-168
8771,-158
8772,-149
8773,-143
8774,-142
8775,-149
8776,-158
8777,-168
8778,-175
8779,-178
8780,-173
8781,-166
8782,-161
8783,-160
8784,-163
8785,-168
8786,-174
8787,-176
8788,-176
8789,-174
8790,-171
8791,-170
8792,-170
8793,-176
8794,-194
8795,-198
8796,-199
8797,-195
8798,-190
8799,-188
8800,-190
8801,-194
8802,-201
8803,-208
8804,-213
8805,-215
8806,-214
8807,-209
8808,-203
8809,-200
8810,-196
8811,-194
8812,-192
8813,-189
8814,-185
8815,-180
8816,-177
8817,-175
8818,-175
8819,-173
8820,-172
8821,-167
8822,-160
8823,-154
8824,-148
8825,-145
8826,-149
8827,-155
8828,-164
8829,-160
8830,-152
8831,-142
8832,-131
8833,-126
8834,-126
8835,-128
8836,-130
8837,-131
8838,-125
8839,-116
8840,-108
8841,-102
8842,-100
8843,-104
8844,-111
8845,-115
8846,-113
8847,-106
8848,-96
8849,-86
8850,-76
8851,-74
8852,-78
8853,-81
8854,-78
8855,-71
8856,-57
8857,-38
8858,-20
8859,-9
8860,-6
8861,-12
8862,-30
8863,-38
8864,-39
8865,-38
8866,-37
8867,-38
8868,-39
8869,-40
8870,-41
8871,-36
8872,-32
8873,-29
8874,-28
8875,-30
8876,-38
8877,-49
8878,-59
8879,-67
8880,-72
8881,-75
8882,-78
8883,-84
8884,-92
8885,-102
8886,-113
8887,-121
8888,-128
8889,-130
8890,-128
8891,-126
8892,-124
8893,-123
8894,-129
8895,-140
8896,-151
8897,-151
8898,-150
8899,-145
8900,-138
8901,-133
8902,-137
8903,-149
8904,-161
8905,-172
8906,-180
8907,-179
8908,-171
8909,-163
8910,-158
8911,-158
8912,-160
8913,-163
8914,-163
8915,-160
8916,-156
8917,-154
8918,-155
8919,-159
8920,-164
8921,-166
8922,-162
8923,-154
8924,-145
8925,-138
8926,-133
8927,-130
8928,-130
8929,-129
8930,-126
8931,-109
8932,-101
8933,-94
8934,-92
8935,-94
8936,-96
8937,-97
8938,-95
8939,-90
8940,-85
8941,-81
8942,-78
8943,-79
8944,-80
8945,-83
8946,-91
8947,-98
8948,-101
8949,-104
8950,-107
8951,-107
8952,-105
8953,-102
8954,-99
8955,-94
8956,-87
8957,-85
8958,-85
8959,-86
8960,-88
8961,-92
8962,-94
8963,-95
8964,-93
8965,-100
8966,-102
8967,-105
8968,-113
8969,-119
8970,-120
8971,-119
8972,-115
8973,-106
8974,-99
8975,-95
8976,-93
8977,-96
8978,-95
8979,-93
8980,-94
8981,-94
8982,-94
8983,-96
8984,-99
8985,-102
8986,-105
8987,-105
8988,-104
8989,-99
8990,-92
8991,-89
8992,-88
8993,-89
8994,-93
8995,-95
8996,-95
8997,-93
8998,-88
8999,-83
9000,-81
9001,-80
9002,-79
9003,-76
9004,-72
9005,-69
9006,-65
9007,-64
9008,-67
9009,-71
9010,-74
9011,-74
9012,-67
9013,-59
9014,-49
9015,-41
9016,-37
9017,-38
9018,-43
9019,-49
9020,-54
9021,-57
9022,-55
9023,-53
9024,-52
9025,-51
9026,-49
9027,-51
9028,-52
9029,-53
9030,-53
9031,-52
9032,-50
9033,-48
9034,-42
9035,-45
9036,-52
9037,-58
9038,-62
9039,-62
9040,-61
9041,-55
9042,-48
9043,-42
9044,-37
9045,-35
9046,-35
9047,-39
9048,-46
9049,-56
9050,-64
9051,-70
9052,-81
9053,-91
9054,-98
9055,-101
9056,-96
9057,-89
9058,-83
9059,-80
9060,-81
9061,-84
9062,-86
9063,-86
9064,-85
9065,-81
9066,-79
9067,-78
9068,-80
9069,-82
9070,-80
9071,-76
9072,-68
9073,-61
9074,-54
9075,-48
9076,-37
9077,-22
9078,1
9079,38
9080,86
9081,141
9082,204
9083,273
9084,349
9085,425
9086,502
9087,582
9088,657
9089,714
9090,748
9091,755
9092,728
9093,660
9094,560
9095,439
9096,310
9097,184
9098,74
9099,-9
9100,-73
9101,-120
9102,-151
9103,-166
9104,-165
9105,-156
9106,-141
9107,-126
9108,-116
9109,-112
9110,-115
9111,-120
9112,-123
9113,-123
9114,-117
9115,-111
9116,-108
9117,-109
9118,-112
9119,-118
9120,-123
9121,-125
9122,-125
9123,-119
9124,-115
9125,-117
9126,-120
9127,-121
9128,-122
9129,-122
9130,-120
9131,-119
9132,-118
9133,-118
9134,-119
9135,-120
9136,-120
9137,-112
9138,-103
9139,-99
9140,-100
9141,-102
9142,-105
9143,-107
9144,-107
9145,-104
9146,-99
9147,-91
9148,-82
9149,-75
9150,-71
9151,-68
9152,-63
9153,-57
9154,-44
9155,-31
9156,-20
9157,-13
9158,-10
9159,-12
9160,-19
9161,-25
9162,-31
9163,-30
9164,-22
9165,-15
9166,-8
9167,-4
9168,-6
9169,-9
9170,-12
9171,-15
9172,-11
9173,-5
9174,0
9175,4
9176,7
9177,7
9178,8
9179,12
9180,17
9181,17
9182,21
9183,27
9184,30
9185,28
9186,28
9187,29
9188,35
9189,48
9190,62
9191,74
9192,83
9193,84
9194,77
9195,71
9196,67
9197,66
9198,70
9199,81
9200,90
9201,94
9202,93
9203,89
9204,84
9205,81
9206,77
9207,77
9208,74
9209,68
9210,60
9211,53
9212,49
9213,45
9214,44
9215,45
9216,45
9217,41
9218,35
9219,29
9220,24
9221,21
9222,18
9223,17
9224,16
9225,8
9226,-3
9227,-15
9228,-28
9229,-39
9230,-48
9231,-53
9232,-59
9233,-65
9234,-73
9235,-82
9236,-91
9237,-98
9238,-103
9239,-102
9240,-101
9241,-99
9242,-99
9243,-102
9244,-104
9245,-106
9246,-105
9247,-102
9248,-98
9249,-96
9250,-94
9251,-95
9252,-97
9253,-101
9254,-107
9255,-112
9256,-116
9257,-120
9258,-122
9259,-126
9260,-129
9261,-132
9262,-133
9263,-132
9264,-129
9265,-126
9266,-124
9267,-120
9268,-116
9269,-116
9270,-115
9271,-112
9272,-106
9273,-100
9274,-98
9275,-103
9276,-108
9277,-113
9278,-113
9279,-109
9280,-106
9281,-100
9282,-97
9283,-98
9284,-104
9285,-116
9286,-126
9287,-129
9288,-127
9289,-122
9290,-115
9291,-114
9292,-112
9293,-112
9294,-112
9295,-112
9296,-109
9297,-103
9298,-95
9299,-89
9300,-89
9301,-92
9302,-99
9303,-108
9304,-111
9305,-108
9306,-103
9307,-98
9308,-93
9309,-92
9310,-94
9311,-96
9312,-96
9313,-94
9314,-92
9315,-91
9316,-90
9317,-92
9318,-94
9319,-95
9320,-96
9321,-96
9322,-97
9323,-96
9324,-96
9325,-95
9326,-92
9327,-89
9328,-87
9329,-85
9330,-81
9331,-78
9332,-76
9333,-74
9334,-76
9335,-80
9336,-83
9337,-83
9338,-84
9339,-84
9340,-81
9341,-74
9342,-68
9343,-67
9344,-76
9345,-82
9346,-87
9347,-88
9348,-86
9349,-86
9350,-86
9351,-85
9352,-85
9353,-86
9354,-86
9355,-84
9356,-80
9357,-79
9358,-80
9359,-85
9360,-95
9361,-103
9362,-110
9363,-112
9364,-110
9365,-104
9366,-97
9367,-89
9368,-82
9369,-82
9370,-85
9371,-88
9372,-89
9373,-89
9374,-87
9375,-87
9376,-88
9377,-89
9378,-87
9379,-85
9380,-80
9381,-73
9382,-64
9383,-56
9384,-52
9385,-53
9386,-59
9387,-65
9388,-71
9389,-74
9390,-75
9391,-75
9392,-73
9393,-66
9394,-60
9395,-52
9396,-45
9397,-40
9398,-35
9399,-32
9400,-33
9401,-38
9402,-45
9403,-51
9404,-52
9405,-50
9406,-48
9407,-45
9408,-47
9409,-53
9410,-64
9411,-76
9412,-88
9413,-93
9414,-89
9415,-85
9416,-84
9417,-86
9418,-90
9419,-92
9420,-92
9421,-89
9422,-86
9423,-82
9424,-81
9425,-84
9426,-88
9427,-92
9428,-95
9429,-97
9430,-97
9431,-96
9432,-91
9433,-89
9434,-83
9435,-75
9436,-68
9437,-61
9438,-55
9439,-52
9440,-52
9441,-48
9442,-37
9443,-16
9444,19
9445,69
9446,133
9447,283
9448,366
9449,448
9450,526
9451,602
9452,667
9453,714
9454,738
9455,733
9456,698
9457,628
9458,525
9459,399
9460,265
9461,132
9462,14
9463,-76
9464,-140
9465,-180
9466,-180
9467,-201
9468,-206
9469,-203
9470,-197
9471,-193
9472,-186
9473,-178
9474,-170
9475,-165
9476,-163
9477,-163
9478,-162
9479,-161
9480,-156
9481,-149
9482,-142
9483,-143
9484,-145
9485,-148
9486,-148
9487,-145
9488,-139
9489,-133
9490,-128
9491,-128
9492,-131
9493,-137
9494,-142
9495,-142
9496,-138
9497,-131
9498,-123
9499,-116
9500,-115
9501,-117
9502,-122
9503,-128
9504,-131
9505,-129
9506,-123
9507,-115
9508,-108
9509,-104
9510,-103
9511,-103
9512,-103
9513,-102
9514,-98
9515,-88
9516,-86
9517,-89
9518,-94
9519,-98
9520,-99
9521,-97
9522,-91
9523,-84
9524,-79
9525,-77
9526,-80
9527,-85
9528,-88
9529,-88
9530,-83
9531,-75
9532,-69
9533,-64
9534,-62
9535,-63
9536,-66
9537,-64
9538,-61
9539,-54
9540,-44
9541,-34
9542,-30
9543,-32
9544,-38
9545,-46
9546,-45
9547,-38
9548,-25
9549,8
9550,17
9551,23
9552,24
9553,22
9554,23
9555,28
9556,34
9557,44
9558,48
9559,48
9560,43
9561,36
9562,32
9563,32
9564,35
9565,37
9566,38
9567,37
9568,33
9569,29
9570,27
9571,26
9572,24
9573,22
9574,19
9575,14
9576,6
9577,-2
9578,-8
9579,-10
9580,-9
9581,-7
9582,-6
9583,-19
9584,-32
9585,-46
9586,-60
9587,-69
9588,-76
9589,-81
9590,-85
9591,-91
9592,-100
9593,-110
9594,-118
9595,-124
9596,-128
9597,-131
9598,-133
9599,-135
9600,-138
9601,-141
9602,-143
9603,-144
9604,-147
9605,-153
9606,-160
9607,-172
9608,-172
9609,-190
9610,-208
9611,-223
9612,-233
9613,-236
9614,-232
9615,-226
9616,-218
9617,-213
9618,-207
9619,-207
9620,-208
9621,-206
9622,-203
9623,-201
9624,-198
9625,-199
9626,-203
9627,-206
9628,-211
9629,-211
9630,-208
9631,-204
9632,-197
9633,-191
9634,-189
9635,-187
9636,-186
9637,-187
9638,-187
9639,-184
9640,-181
9641,-179
9642,-180
9643,-183
9644,-184
9645,-184
9646,-182
9647,-175
9648,-166
9649,-159
9650,-159
9651,-164
9652,-174
9653,-177
9654,-176
9655,-170
9656,-161
9657,-149
9658,-139
9659,-132
9660,-127
9661,-125
9662,-123
9663,-117
9664,-113
9665,-114
9666,-119
9667,-124
9668,-128
9669,-133
9670,-138
9671,-142
9672,-139
9673,-133
9674,-128
9675,-124
9676,-124
9677,-127
9678,-132
9679,-135
9680,-136
9681,-134
9682,-131
9683,-130
9684,-128
9685,-129
9686,-138
9687,-139
9688,-134
9689,-131
9690,-130
9691,-131
9692,-136
9693,-143
9694,-148
9695,-152
9696,-151
9697,-147
9698,-143
9699,-139
9700,-138
9701,-140
9702,-143
9703,-141
9704,-137
9705,-130
9706,-120
9707,-111
9708,-110
9709,-112
9710,-120
9711,-129
9712,-135
9713,-136
9714,-131
9715,-122
9716,-116
9717,-112
9718,-111
9719,-114
9720,-119
9721,-115
9722,-108
9723,-100
9724,-93
9725,-91
9726,-93
9727,-97
9728,-101
9729,-102
9730,-103
9731,-103
9732,-103
9733,-103
9734,-105
9735,-109
9736,-112
9737,-112
9738,-112
9739,-111
9740,-109
9741,-108
9742,-109
9743,-112
9744,-111
9745,-109
9746,-105
9747,-98
9748,-90
9749,-84
9750,-84
9751,-81
9752,-81
9753,-82
9754,-83
9755,-81
9756,-77
9757,-76
9758,-76
9759,-77
9760,-81
9761,-84
9762,-85
9763,-86
9764,-84
9765,-82
9766,-80
9767,-79
9768,-81
9769,-85
9770,-86
9771,-85
9772,-84
9773,-83
9774,-84
9775,-87
9776,-93
9777,-103
9778,-114
9779,-120
9780,-123
9781,-122
9782,-117
9783,-113
9784,-111
9785,-110
9786,-111
9787,-112
9788,-111
9789,-104
9790,-100
9791,-98
9792,-99
9793,-104
9794,-110
9795,-113
9796,-113
9797,-109
9798,-103
9799,-97
9800,-97
9801,-100
9802,-107
9803,-112
9804,-114
9805,-111
9806,-104
9807,-96
9808,-91
9809,-89
9810,-91
9811,-94
9812,-96
9813,-95
9814,-88
9815,-78
9816,-71
9817,-65
9818,-62
9819,-62
9820,-64
9821,-63
9822,-60
9823,-56
9824,-51
9825,-54
9826,-62
9827,-73
9828,-82
9829,-90
9830,-96
9831,-100
9832,-100
9833,-100
9834,-103
9835,-105
9836,-105
9837,-105
9838,-101
9839,-95
9840,-93
9841,-93
9842,-94
9843,-98
9844,-101
9845,-101
9846,-99
9847,-91
9848,-84
9849,-77
9850,-74
9851,-74
9852,-76
9853,-75
9854,-72
9855,-69
9856,-65
9857,-59
9858,-43
9859,-27
9860,-1
9861,36
9862,91
9863,160
9864,235
9865,315
9866,397
9867,479
9868,558
9869,628
9870,687
9871,728
9872,744
9873,733
9874,689
9875,612
9876,502
9877,376
9878,247
9879,121
9880,14
9881,-66
9882,-122
9883,-155
9884,-169
9885,-167
9886,-158
9887,-146
9888,-132
9889,-119
9890,-108
9891,-107
9892,-112
9893,-112
9894,-116
9895,-118
9896,-114
9897,-104
9898,-95
9899,-87
9900,-84
9901,-88
9902,-94
9903,-98
9904,-97
9905,-92
9906,-87
9907,-83
9908,-80
9909,-82
9910,-89
9911,-98
9912,-105
9913,-107
9914,-106
9915,-103
9916,-96
9917,-91
9918,-88
9919,-87
9920,-86
9921,-88
9922,-90
9923,-90
9924,-88
9925,-87
9926,-90
9927,-95
9928,-95
9929,-93
9930,-87
9931,-81
9932,-74
9933,-67
9934,-64
9935,-60
9936,-57
9937,-53
9938,-47
9939,-37
9940,-28
9941,-25
9942,-24
9943,-30
9944,-36
9945,-39
9946,-38
9947,-34
9948,-26
9949,-21
9950,-18
9951,-20
9952,-22
9953,-24
9954,-22
9955,-19
9956,-12
9957,-5
9958,0
9959,-1
9960,-6
9961,-4
9962,1
9963,14
9964,27
9965,40
9966,49
9967,53
9968,52
9969,52
9970,53
9971,56
9972,64
9973,73
9974,80
9975,84
9976,84
9977,82
9978,81
9979,80
9980,82
9981,87
9982,92
9983,93
9984,94
9985,91
9986,85
9987,80
9988,76
9989,78
9990,82
9991,84
9992,85
9993,83
9994,74
9995,71
9996,66
9997,64
9998,62
9999,58
10000,54
10001,48
10002,38
10003,32
10004,28
10005,26
10006,26
10007,23
10008,17
10009,10
10010,1
10011,-7
10012,-16
10013,-23
10014,-31
10015,-38
10016,-47
10017,-57
10018,-67
10019,-74
10020,-76
10021,-77
10022,-74
10023,-68
10024,-67
10025,-70
10026,-74
10027,-81
10028,-89
10029,-89
10030,-88
10031,-86
10032,-89
10033,-93
10034,-97
10035,-97
10036,-99
10037,-97
10038,-90
10039,-83
10040,-76
10041,-75
10042,-81
10043,-91
10044,-101
10045,-109
10046,-111
10047,-105
10048,-95
10049,-85
10050,-81
10051,-83
10052,-88
10053,-96
10054,-102
10055,-106
10056,-105
10057,-101
10058,-97
10059,-95
10060,-94
10061,-96
10062,-97
10063,-95
10064,-86
10065,-82
10066,-81
10067,-83
10068,-85
10069,-87
10070,-88
10071,-86
10072,-78
10073,-70
10074,-65
10075,-61
10076,-63
10077,-71
10078,-79
10079,-85
10080,-87
10081,-86
10082,-84
10083,-82
10084,-82
10085,-84
10086,-88
10087,-91
10088,-91
10089,-90
10090,-87
10091,-83
10092,-82
10093,-84
10094,-87
10095,-89
10096,-89
10097,-80
10098,-75
10099,-75
10100,-77
10101,-82
10102,-85
10103,-86
10104,-85
10105,-81
10106,-77
10107,-73
10108,-72
10109,-72
10110,-77
10111,-82
10112,-83
10113,-81
10114,-77
10115,-73
10116,-71
10117,-72
10118,-75
10119,-77
10120,-77
10121,-77
10122,-76
10123,-73
10124,-71
10125,-74
10126,-80
10127,-87
10128,-94
10129,-99
10130,-101
10131,-97
10132,-97
10133,-99
10134,-103
10135,-107
10136,-109
10137,-107
10138,-102
10139,-96
10140,-93
10141,-93
10142,-99
10143,-109
10144,-119
10145,-127
10146,-130
10147,-128
10148,-127
10149,-124
10150,-123
10151,-126
10152,-128
10153,-129
10154,-128
10155,-124
10156,-116
10157,-112
10158,-110
10159,-110
10160,-113
10161,-115
10162,-116
10163,-115
10164,-112
10165,-111
10166,-113
10167,-117
10168,-123
10169,-127
10170,-128
10171,-127
10172,-124
10173,-121
10174,-118
10175,-116
10176,-116
10177,-116
10178,-119
10179,-121
10180,-122
10181,-123
10182,-123
10183,-124
10184,-124
10185,-125
10186,-128
10187,-130
10188,-131
10189,-133
10190,-135
10191,-136
10192,-137
10193,-139
10194,-142
10195,-144
10196,-144
10197,-140
10198,-134
10199,-121
10200,-117
10201,-118
10202,-120
10203,-122
10204,-121
10205,-117
10206,-111
10207,-104
10208,-100
10209,-97
10210,-98
10211,-100
10212,-101
10213,-100
10214,-97
10215,-92
10216,-87
10217,-83
10218,-84
10219,-83
10220,-82
10221,-81
10222,-79
10223,-77
10224,-78
10225,-81
10226,-86
10227,-96
10228,-106
10229,-114
10230,-120
10231,-123
10232,-123
10233,-125
10234,-135
10235,-139
10236,-142
10237,-141
10238,-138
10239,-135
10240,-130
10241,-130
10242,-134
10243,-139
10244,-144
10245,-150
10246,-153
10247,-152
10248,-150
10249,-150
10250,-151
10251,-153
10252,-155
10253,-156
10254,-153
10255,-146
10256,-136
10257,-127
10258,-118
10259,-107
10260,-88
10261,-58
10262,-16
10263,40
10264,105
10265,175
10266,250
10267,403
10268,472
10269,530
10270,573
10271,593
10272,585
10273,544
10274,467
10275,360
10276,238
10277,111
10278,-6
10279,-107
10280,-186
10281,-243
10282,-279
10283,-301
10284,-311
10285,-317
10286,-320
10287,-319
10288,-312
10289,-303
10290,-295
10291,-289
10292,-287
10293,-287
10294,-286
10295,-281
10296,-273
10297,-261
10298,-248
10299,-235
10300,-226
10301,-217
10302,-216
10303,-214
10304,-208
10305,-199
10306,-191
10307,-185
10308,-180
10309,-181
10310,-185
10311,-191
10312,-193
10313,-191
10314,-185
10315,-178
10316,-168
10317,-160
10318,-156
10319,-156
10320,-151
10321,-145
10322,-140
10323,-136
10324,-131
10325,-127
10326,-130
10327,-137
10328,-144
10329,-151
10330,-154
10331,-152
10332,-148
10333,-142
10334,-131
10335,-130
10336,-127
10337,-127
10338,-126
10339,-124
10340,-123
10341,-124
10342,-126
10343,-127
10344,-127
10345,-125
10346,-120
10347,-113
10348,-106
10349,-101
10350,-98
10351,-98
10352,-98
10353,-100
10354,-101
10355,-98
10356,-91
10357,-82
10358,-71
10359,-58
10360,-44
10361,-30
10362,-17
10363,-3
10364,6
10365,10
10366,11
10367,10
10368,7
10369,9
10370,15
10371,24
10372,33
10373,41
10374,47
10375,49
10376,46
10377,43
10378,41
10379,40
10380,42
10381,47
10382,51
10383,53
10384,53
10385,52
10386,48
10387,44
10388,39
10389,36
10390,32
10391,29
10392,26
10393,25
10394,24
10395,26
10396,31
10397,37
10398,44
10399,45
10400,42
10401,26
10402,17
10403,9
10404,3
10405,0
10406,-5
10407,-12
10408,-19
10409,-27
10410,-34
10411,-39
10412,-41
10413,-43
10414,-44
10415,-48
10416,-56
10417,-69
10418,-82
10419,-91
10420,-95
10421,-92
10422,-85
10423,-79
10424,-77
10425,-77
10426,-82
10427,-88
10428,-98
10429,-108
10430,-112
10431,-115
10432,-119
10433,-122
10434,-129
10435,-133
10436,-133
10437,-131
10438,-128
10439,-128
10440,-128
10441,-131
10442,-138
10443,-147
10444,-153
10445,-155
10446,-153
10447,-148
10448,-140
10449,-133
10450,-129
10451,-128
10452,-127
10453,-125
10454,-121
10455,-115
10456,-108
10457,-102
10458,-97
10459,-97
10460,-97
10461,-96
10462,-96
10463,-94
10464,-89
10465,-82
10466,-78
10467,-75
10468,-75
10469,-79
10470,-79
10471,-76
10472,-70
10473,-63
10474,-57
10475,-55
10476,-58
10477,-63
10478,-69
10479,-74
10480,-73
10481,-68
10482,-63
10483,-58
10484,-55
10485,-56
10486,-57
10487,-58
10488,-57
10489,-57
10490,-57
10491,-60
10492,-66
10493,-72
10494,-77
10495,-81
10496,-79
10497,-74
10498,-67
10499,-61
10500,-58
10501,-59
10502,-64
10503,-68
10504,-64
10505,-57
10506,-51
10507,-46
10508,-47
10509,-53
10510,-62
10511,-71
10512,-79
10513,-82
10514,-80
10515,-76
10516,-70
10517,-68
10518,-67
10519,-67
10520,-67
10521,-67
10522,-62
10523,-58
10524,-53
10525,-51
10526,-51
10527,-53
10528,-55
10529,-56
10530,-59
10531,-60
10532,-64
10533,-69
10534,-75
10535,-80
10536,-83
10537,-80
10538,-77
10539,-74
10540,-72
10541,-75
10542,-83
10543,-93
10544,-102
10545,-106
10546,-105
10547,-101
10548,-94
10549,-88
10550,-85
10551,-85
10552,-85
10553,-85
10554,-84
10555,-81
10556,-77
10557,-74
10558,-73
10559,-75
10560,-79
10561,-78
10562,-75
10563,-68
10564,-59
10565,-52
10566,-51
10567,-57
10568,-66
10569,-78
10570,-77
10571,-69
10572,-56
10573,-45
10574,-38
10575,-38
10576,-45
10577,-55
10578,-65
10579,-68
10580,-65
10581,-62
10582,-57
10583,-53
10584,-52
10585,-55
10586,-59
10587,-62
10588,-62
10589,-61
10590,-61
10591,-63
10592,-69
10593,-75
10594,-81
10595,-84
10596,-83
10597,-79
10598,-73
10599,-70
10600,-70
10601,-72
10602,-76
10603,-75
10604,-75
10605,-71
10606,-64
10607,-58
10608,-54
10609,-53
10610,-54
10611,-59
10612,-63
10613,-64
10614,-62
10615,-59
10616,-59
10617,-62
10618,-67
10619,-72
10620,-73
10621,-71
10622,-67
10623,-59
10624,-53
10625,-52
10626,-56
10627,-65
10628,-76
10629,-84
10630,-89
10631,-85
10632,-80
10633,-77
10634,-73
10635,-68
10636,-67
10637,-64
10638,-65
10639,-68
10640,-74
10641,-82
10642,-88
10643,-95
10644,-102
10645,-102
10646,-101
10647,-102
10648,-104
10649,-106
10650,-108
10651,-110
10652,-111
10653,-111
10654,-106
10655,-99
10656,-95
10657,-90
10658,-90
10659,-95
10660,-101
10661,-109
10662,-113
10663,-115
10664,-117
10665,-115
10666,-110
10667,-104
10668,-99
10669,-93
10670,-85
10671,-74
10672,-31
10673,-1
10674,37
10675,85
10676,141
10677,204
10678,276
10679,354
10680,434
10681,512
10682,581
10683,635
10684,662
10685,661
10686,635
10687,580
10688,495
10689,390
10690,272
10691,151
10692,34
10693,-65
10694,-141
10695,-190
10696,-215
10697,-215
10698,-201
10699,-185
10700,-173
10701,-165
10702,-160
10703,-156
10704,-156
10705,-153
10706,-144
10707,-144
10708,-143
10709,-144
10710,-147
10711,-149
10712,-148
10713,-143
10714,-137
10715,-130
10716,-124
10717,-119
10718,-116
10719,-113
10720,-111
10721,-108
10722,-107
10723,-107
10724,-110
10725,-117
10726,-124
10727,-129
10728,-132
10729,-130
10730,-125
10731,-115
10732,-103
10733,-95
10734,-91
10735,-91
10736,-95
10737,-98
10738,-99
10739,-98
10740,-93
10741,-91
10742,-89
10743,-86
10744,-84
10745,-80
10746,-80
10747,-71
10748,-63
10749,-55
10750,-47
10751,-43
10752,-42
10753,-39
10754,-37
10755,-30
10756,-24
10757,-20
10758,-18
10759,-21
10760,-27
10761,-33
10762,-36
10763,-37
10764,-33
10765,-25
10766,-18
10767,-13
10768,-10
10769,-7
10770,-5
10771,-4
10772,2
10773,6
10774,9
10775,10
10776,6
10777,4
10778,6
10779,14
10780,25
10781,35
10782,43
10783,50
10784,52
10785,51
10786,52
10787,54
10788,58
10789,65
10790,72
10791,76
10792,75
10793,71
10794,64
10795,56
10796,52
10797,50
10798,51
10799,54
10800,54
10801,54
10802,52
10803,49
10804,45
10805,43
10806,43
10807,42
10808,39
10809,21
10810,10
10811,0
10812,-11
10813,-17
10814,-24
10815,-29
10816,-36
10817,-45
10818,-52
10819,-56
10820,-60
10821,-61
10822,-58
10823,-58
10824,-61
10825,-69
10826,-79
10827,-89
10828,-98
10829,-105
10830,-108
10831,-111
10832,-116
10833,-125
10834,-136
10835,-146
10836,-150
10837,-151
10838,-147
10839,-140
10840,-138
10841,-140
10842,-146
10843,-165
10844,-168
10845,-167
10846,-159
10847,-148
10848,-142
10849,-139
10850,-142
10851,-152
10852,-159
10853,-161
10854,-160
10855,-153
10856,-145
10857,-139
10858,-136
10859,-136
10860,-138
10861,-138
10862,-138
10863,-135
10864,-129
10865,-124
10866,-123
10867,-125
10868,-131
10869,-135
10870,-137
10871,-136
10872,-130
10873,-123
10874,-118
10875,-115
10876,-114
10877,-117
10878,-118
10879,-119
10880,-120
10881,-120
10882,-125
10883,-131
10884,-138
10885,-142
10886,-143
10887,-140
10888,-140
10889,-136
10890,-129
10891,-124
10892,-122
10893,-125
10894,-128
10895,-132
10896,-135
10897,-134
10898,-130
10899,-125
10900,-122
10901,-123
10902,-125
10903,-127
10904,-126
10905,-122
10906,-118
10907,-114
10908,-113
10909,-116
10910,-123
10911,-130
10912,-135
10913,-131
10914,-122
10915,-115
10916,-111
10917,-113
10918,-116
10919,-119
10920,-118
10921,-113
10922,-106
10923,-98
10924,-93
10925,-91
10926,-95
10927,-99
10928,-103
10929,-104
10930,-100
10931,-95
10932,-91
10933,-88
10934,-90
10935,-95
10936,-100
10937,-101
10938,-101
10939,-98
10940,-96
10941,-93
10942,-92
10943,-96
10944,-100
10945,-101
10946,-97
10947,-92
10948,-88
10949,-87
10950,-91
10951,-94
10952,-97
10953,-97
10954,-95
10955,-92
10956,-88
10957,-83
10958,-79
10959,-76
10960,-73
10961,-69
10962,-66
10963,-61
10964,-59
10965,-59
10966,-62
10967,-68
10968,-73
10969,-75
10970,-75
10971,-71
10972,-64
10973,-60
10974,-56
10975,-55
10976,-58
10977,-61
10978,-64
10979,-63
10980,-59
10981,-55
10982,-52
10983,-53
10984,-57
10985,-61
10986,-64
10987,-64
10988,-60
10989,-54
10990,-49
10991,-44
10992,-44
10993,-48
10994,-53
10995,-55
10996,-54
10997,-50
10998,-46
10999,-44
11000,-44
11001,-48
11002,-56
11003,-62
11004,-64
11005,-64
11006,-61
11007,-57
11008,-56
11009,-57
11010,-60
11011,-64
11012,-67
11013,-68
11014,-67
11015,-65
11016,-64
11017,-65
11018,-67
11019,-67
11020,-64
11021,-59
11022,-55
11023,-50
11024,-47
11025,-49
11026,-50
11027,-50
11028,-51
11029,-52
11030,-50
11031,-50
11032,-48
11033,-46
11034,-45
11035,-46
11036,-48
11037,-49
11038,-46
11039,-40
11040,-34
11041,-30
11042,-27
11043,-26
11044,-27
11045,-28
11046,-27
11047,-25
11048,-22
11049,-22
11050,-26
11051,-31
11052,-35
11053,-34
11054,-29
11055,-22
11056,-12
11057,-6
11058,-3
11059,-6
11060,-13
11061,-19
11062,-25
11063,-28
11064,-30
11065,-33
11066,-38
11067,-45
11068,-53
11069,-58
11070,-59
11071,-59
11072,-57
11073,-53
11074,-50
11075,-51
11076,-55
11077,-60
11078,-64
11079,-66
11080,-66
11081,-63
11082,-55
11083,-53
11084,-51
11085,-52
11086,-52
11087,-55
11088,-55
11089,-55
11090,-54
11091,-52
11092,-50
11093,-47
11094,-39
11095,-26
11096,-6
11097,25
11098,65
11099,111
11100,166
11101,224
11102,287
11103,359
11104,437
11105,518
11106,598
11107,668
11108,718
11109,742
11110,737
11111,701
11112,636
11113,544
11114,434
11115,195
11116,81
11117,-14
11118,-88
11119,-137
11120,-161
11121,-164
11122,-153
11123,-142
11124,-133
11125,-127
11126,-126
11127,-129
11128,-129
11129,-131
11130,-131
11131,-131
11132,-131
11133,-132
11134,-134
11135,-137
11136,-138
11137,-136
11138,-130
11139,-121
11140,-111
11141,-105
11142,-102
11143,-102
11144,-102
11145,-101
11146,-103
11147,-104
11148,-106
11149,-111
11150,-111
11151,-108
11152,-102
11153,-97
11154,-92
11155,-89
11156,-90
11157,-100
11158,-112
11159,-124
11160,-129
11161,-127
11162,-121
11163,-110
11164,-100
11165,-95
11166,-95
11167,-94
11168,-96
11169,-96
11170,-91
11171,-84
11172,-73
11173,-73
11174,-64
11175,-58
11176,-56
11177,-56
11178,-59
11179,-60
11180,-55
11181,-51
11182,-48
11183,-46
11184,-47
11185,-56
11186,-62
11187,-66
11188,-67
11189,-66
11190,-66
11191,-66
11192,-66
11193,-67
11194,-66
11195,-56
11196,-46
11197,-32
11198,-22
11199,-18
11200,-17
11201,-19
11202,-20
11203,-14
11204,1
11205,26
11206,54
11207,75
11208,85
11209,82
11210,66
11211,46
11212,27
11213,16
11214,12
11215,13
11216,17
11217,23
11218,28
11219,30
11220,35
11221,40
11222,43
11223,45
11224,41
11225,34
11226,25
11227,16
11228,10
11229,6
11230,4
11231,2
11232,0
11233,-6
11234,-14
11235,-21
11236,-28
11237,-32
11238,-33
11239,-34
11240,-36
11241,-43
11242,-50
11243,-57
11244,-61
11245,-61
11246,-60
11247,-58
11248,-60
11249,-69
11250,-82
11251,-102
11252,-125
11253,-152
11254,-156
11255,-155
11256,-152
11257,-157
11258,-162
11259,-169
11260,-176
11261,-178
11262,-173
11263,-163
11264,-147
11265,-135
11266,-134
11267,-144
11268,-160
11269,-180
11270,-195
11271,-201
11272,-200
11273,-194
11274,-188
11275,-183
11276,-182
11277,-183
11278,-188
11279,-187
11280,-182
11281,-177
11282,-174
11283,-174
11284,-176
11285,-172
11286,-164
11287,-123
11288,-98
11289,-80
11290,-79
11291,-95
11292,-122
11293,-155
11294,-186
11295,-208
11296,-217
11297,-216
11298,-209
11299,-201
11300,-191
11301,-187
11302,-186
11303,-184
11304,-178
11305,-173
11306,-171
11307,-170
11308,-170
11309,-175
11310,-181
11311,-184
11312,-183
11313,-181
11314,-175
11315,-175
11316,-169
11317,-166
11318,-167
11319,-169
11320,-172
11321,-173
11322,-168
11323,-162
11324,-156
11325,-155
11326,-156
11327,-158
11328,-159
11329,-157
11330,-154
11331,-150
11332,-149
11333,-149
11334,-152
11335,-156
11336,-156
11337,-152
11338,-144
11339,-134
11340,-125
11341,-119
11342,-119
11343,-123
11344,-124
11345,-123
11346,-122
11347,-117
11348,-113
11349,-115
11350,-120
11351,-123
11352,-128
11353,-128
11354,-128
11355,-126
11356,-129
11357,-137
11358,-145
11359,-153
11360,-159
11361,-158
11362,-153
11363,-144
11364,-133
11365,-122
11366,-113
11367,-107
11368,-105
11369,-105
11370,-106
11371,-108
11372,-107
11373,-102
11374,-98
11375,-91
11376,-87
11377,-87
11378,-88
11379,-88
11380,-86
11381,-84
11382,-79
11383,-74
11384,-71
11385,-74
11386,-82
11387,-87
11388,-91
11389,-93
11390,-88
11391,-80
11392,-79
11393,-80
11394,-85
11395,-94
11396,-106
11397,-118
11398,-127
11399,-133
11400,-137
11401,-139
11402,-139
11403,-135
11404,-126
11405,-116
11406,-105
11407,-95
11408,-86
11409,-81
11410,-77
11411,-74
11412,-72
11413,-71
11414,-69
11415,-69
11416,-70
11417,-76
11418,-82
11419,-89
11420,-94
11421,-100
11422,-104
11423,-107
11424,-113
11425,-132
11426,-143
11427,-157
11428,-168
11429,-175
11430,-181
11431,-187
11432,-197
11433,-208
11434,-220
11435,-231
11436,-239
11437,-244
11438,-248
11439,-252
11440,-254
11441,-254
11442,-254
11443,-252
11444,-243
11445,-229
11446,-209
11447,-186
11448,-167
11449,-153
11450,-144
11451,-136
11452,-130
11453,-124
11454,-116
11455,-105
11456,-93
11457,-93
11458,-86
11459,-86
11460,-99
11461,-106
11462,-110
11463,-109
11464,-104
11465,-101
11466,-99
11467,-98
11468,-104
11469,-113
11470,-117
11471,-114
11472,-104
11473,-89
11474,-74
11475,-65
11476,-63
11477,-71
11478,-86
11479,-100
11480,-113
11481,-125
11482,-129
11483,-132
11484,-139
11485,-147
11486,-155
11487,-166
11488,-174
11489,-178
11490,-178
11491,-176
11492,-175
11493,-178
11494,-181
11495,-180
11496,-177
11497,-173
11498,-173
11499,-178
11500,-190
11501,-206
11502,-222
11503,-237
11504,-245
11505,-246
11506,-242
11507,-239
11508,-243
11509,-255
11510,-270
11511,-284
11512,-295
11513,-300
11514,-299
11515,-293
11516,-282
11517,-273
11518,-268
11519,-265
11520,-265
11521,-263
11522,-258
11523,-253
11524,-252
11525,-252
11526,-256
11527,-258
11528,-249
11529,-237
11530,-220
11531,-197
11532,-168
11533,-133
11534,-91
11535,-38
11536,26
11537,100
11538,182
11539,272
11540,362
11541,447
11542,525
11543,592
11544,641
11545,663
11546,654
11547,610
11548,531
11549,417
11550,284
11551,147
11552,19
11553,-88
11554,-163
11555,-205
11556,-224
11557,-226
11558,-218
11559,-211
11560,-208
11561,-208
11562,-208
11563,-207
11564,-209
11565,-212
11566,-217
11567,-225
11568,-230
11569,-229
11570,-231
11571,-231
11572,-229
11573,-229
11574,-230
11575,-232
11576,-235
11577,-236
11578,-233
11579,-229
11580,-223
11581,-218
11582,-218
11583,-219
11584,-219
11585,-218
11586,-216
11587,-214
11588,-209
11589,-204
11590,-202
11591,-205
11592,-211
11593,-219
11594,-223
11595,-219
11596,-212
11597,-205
11598,-203
11599,-206
11600,-206
11601,-218
11602,-232
11603,-244
11604,-250
11605,-250
11606,-244
11607,-234
11608,-222
11609,-210
11610,-200
11611,-193
11612,-190
11613,-189
11614,-186
11615,-186
11616,-187
11617,-187
11618,-185
11619,-180
11620,-171
11621,-161
11622,-151
11623,-146
11624,-144
11625,-143
11626,-143
11627,-146
11628,-146
11629,-144
11630,-126
11631,-116
11632,-108
11633,-103
11634,-102
11635,-103
11636,-101
11637,-98
11638,-92
11639,-85
11640,-81
11641,-76
11642,-74
11643,-74
11644,-76
11645,-79
11646,-75
11647,-65
11648,-50
11649,-34
11650,-20
11651,-13
11652,-11
11653,-12
11654,-13
11655,-10
11656,-6
11657,-3
11658,6
11659,16
11660,23
11661,27
11662,28
11663,28
11664,27
11665,28
11666,33
11667,37
11668,38
11669,40
11670,41
11671,39
11672,38
11673,38
11674,42
11675,47
11676,52
11677,54
11678,55
11679,52
11680,44
11681,33
11682,22
11683,10
11684,-2
11685,-11
11686,-14
11687,-12
11688,-10
11689,-13
11690,-19
11691,-31
11692,-46
11693,-59
11694,-67
11695,-64
11696,-50
11697,-31
11698,-6
11699,-12
11700,-27
11701,-42
11702,-53
11703,-59
11704,-57
11705,-50
11706,-42
11707,-29
11708,-21
11709,-16
11710,-11
11711,-3
11712,6
11713,13
11714,15
11715,12
11716,3
11717,-8
11718,-17
11719,-20
11720,-19
11721,-13
11722,-2
11723,8
11724,17
11725,21
11726,19
11727,16
11728,17
11729,20
11730,25
11731,33
11732,36
11733,30
11734,23
11735,19
11736,20
11737,25
11738,34
11739,45
11740,50
11741,50
11742,51
11743,49
11744,45
11745,43
11746,44
11747,50
11748,59
11749,67
11750,72
11751,72
11752,71
11753,72
11754,76
11755,82
11756,88
11757,94
11758,96
11759,95
11760,90
11761,88
11762,89
11763,91
11764,95
11765,101
11766,104
11767,97
11768,91
11769,86
11770,84
11771,85
11772,91
11773,95
11774,101
11775,108
11776,110
11777,111
11778,115
11779,119
11780,124
11781,126
11782,125
11783,124
11784,120
11785,114
11786,111
11787,109
11788,107
11789,108
11790,111
11791,113
11792,114
11793,113
11794,110
11795,112
11796,116
11797,120
11798,124
11799,128
11800,128
11801,125
11802,122
11803,123
11804,128
11805,137
11806,148
11807,157
11808,161
11809,158
11810,152
11811,145
11812,139
11813,137
11814,138
11815,140
11816,142
11817,144
11818,144
11819,143
11820,139
11821,133
11822,127
11823,118
11824,107
11825,96
11826,87
11827,82
11828,80
11829,83
11830,91
11831,100
11832,105
11833,107
11834,107
11835,100
11836,102
11837,104
11838,106
11839,108
11840,105
11841,102
11842,99
11843,95
11844,97
11845,101
11846,106
11847,111
11848,113
11849,113
11850,109
11851,103
11852,101
11853,104
11854,109
11855,119
11856,127
11857,129
11858,127
11859,124
11860,117
11861,112
11862,111
11863,113
11864,117
11865,121
11866,121
11867,122
11868,118
11869,112
11870,109
11871,108
11872,108
11873,108
11874,106
11875,103
11876,101
11877,102
11878,107
11879,111
11880,114
11881,115
11882,113
11883,108
11884,108
11885,102
11886,98
11887,100
11888,107
11889,118
11890,132
11891,140
11892,139
11893,131
11894,122
11895,112
11896,111
11897,115
11898,122
11899,131
11900,138
11901,140
11902,141
11903,142
11904,144
11905,155
11906,156
11907,154
11908,145
11909,132
11910,124
11911,126
11912,137
11913,147
11914,154
11915,152
11916,140
11917,125
11918,127
11919,157
11920,210
11921,282
11922,359
11923,404
11924,394
11925,330
11926,234
11927,130
11928,34
11929,-24
11930,-42
11931,-33
11932,-18
11933,-10
11934,-12
11935,-31
11936,-55
11937,-62
11938,-52
11939,-12
11940,6
11941,19
11942,24
11943,24
11944,25
11945,29
11946,40
11947,58
11948,80
11949,109
11950,146
11951,189
11952,242
11953,304
11954,375
11955,458
11956,543
11957,624
11958,697
11959,751
11960,781
11961,787
11962,769
11963,723
11964,645
11965,534
11966,402
11967,261
11968,118
11969,-11
11970,-114
11971,-189
11972,-235
11973,-258
11974,-278
11975,-290
11976,-304
11977,-315
11978,-319
11979,-325
11980,-328
11981,-331
11982,-339
11983,-347
11984,-352
11985,-358
11986,-360
11987,-353
11988,-344
11989,-336
11990,-330
11991,-329
11992,-331
11993,-331
11994,-330
11995,-324
11996,-312
11997,-300
11998,-287
11999,-275
12000,-271
12001,-269
12002,-268
12003,-267
12004,-266
12005,-268
12006,-269
12007,-270
12008,-274
12009,-272
12010,-267
12011,-263
12012,-257
12013,-252
12014,-250
12015,-253
12016,-254
12017,-255
12018,-251
12019,-243
12020,-232
12021,-221
12022,-209
12023,-201
12024,-197
12025,-196
12026,-196
12027,-199
12028,-201
12029,-201
12030,-200
12031,-195
12032,-191
12033,-189
12034,-188
12035,-190
12036,-193
12037,-196
12038,-199
12039,-198
12040,-196
12041,-196
12042,-197
12043,-200
12044,-212
12045,-215
12046,-216
12047,-214
12048,-211
12049,-209
12050,-210
12051,-214
12052,-217
12053,-221
12054,-223
12055,-221
12056,-217
12057,-212
12058,-207
12059,-202
12060,-195
12061,-186
12062,-174
12063,-157
12064,-139
12065,-124
12066,-114
12067,-109
12068,-107
12069,-107
12070,-105
12071,-100
12072,-93
12073,-80
12074,-66
12075,-54
12076,-45
12077,-30
12078,-26
12079,-21
12080,-15
12081,-10
12082,-7
12083,-8
12084,-11
12085,-13
12086,-15
12087,-14
12088,-9
12089,0
12090,10
12091,14
12092,11
12093,0
12094,-16
12095,-33
12096,-50
12097,-60
12098,-66
12099,-68
12100,-65
12101,-59
12102,-57
12103,-57
12104,-62
12105,-69
12106,-79
12107,-90
12108,-101
12109,-106
12110,-104
12111,-86
12112,-77
12113,-75
12114,-80
12115,-92
12116,-107
12117,-124
12118,-135
12119,-137
12120,-133
12121,-123
12122,-112
12123,-108
12124,-108
12125,-112
12126,-117
12127,-122
12128,-125
12129,-125
12130,-122
12131,-119
12132,-117
12133,-112
12134,-108
12135,-106
12136,-105
12137,-104
12138,-102
12139,-104
12140,-109
12141,-115
12142,-121
12143,-127
12144,-127
12145,-109
12146,-99
12147,-91
12148,-82
12149,-70
12150,-63
12151,-60
12152,-59
12153,-63
12154,-71
12155,-85
12156,-101
12157,-118
12158,-137
12159,-157
12160,-165
12161,-165
12162,-164
12163,-158
12164,-147
12165,-138
12166,-132
12167,-129
12168,-130
12169,-130
12170,-132
12171,-134
12172,-137
12173,-136
12174,-134
12175,-130
12176,-125
12177,-119
12178,-112
12179,-103
12180,-92
12181,-92
12182,-98
12183,-108
12184,-120
12185,-133
12186,-141
12187,-141
12188,-139
12189,-134
12190,-129
12191,-129
12192,-131
12193,-138
12194,-149
12195,-158
12196,-164
12197,-169
12198,-172
12199,-174
12200,-180
12201,-189
12202,-199
12203,-210
12204,-220
12205,-230
12206,-239
12207,-245
12208,-253
12209,-264
12210,-276
12211,-288
12212,-297
12213,-304
12214,-308
12215,-316
12216,-321
12217,-329
12218,-336
12219,-340
12220,-338
12221,-330
12222,-315
12223,-298
12224,-280
12225,-270
12226,-271
12227,-277
12228,-288
12229,-299
12230,-304
12231,-305
12232,-301
12233,-294
12234,-288
12235,-278
12236,-266
12237,-255
12238,-242
12239,-223
12240,-204
12241,-187
12242,-173
12243,-165
12244,-157
12245,-148
12246,-139
12247,-127
12248,-117
12249,-103
12250,-100
12251,-98
12252,-94
12253,-88
12254,-78
12255,-65
12256,-52
12257,-41
12258,-34
12259,-32
12260,-30
12261,-28
12262,-26
12263,-24
12264,-20
12265,-19
12266,-19
12267,-21
12268,-23
12269,-22
12270,-14
12271,-3
12272,10
12273,17
12274,16
12275,7
12276,-10
12277,-32
12278,-54
12279,-71
12280,-83
12281,-90
12282,-92
12283,-94
12284,-98
12285,-99
12286,-97
12287,-95
12288,-90
12289,-87
12290,-87
12291,-90
12292,-94
12293,-95
12294,-91
12295,-82
12296,-68
12297,-56
12298,-48
12299,-47
12300,-51
12301,-56
12302,-55
12303,-44
12304,-23
12305,0
12306,18
12307,29
12308,33
12309,35
12310,47
12311,47
12312,77
12313,126
12314,194
12315,276
12316,367
12317,457
12318,607
12319,664
12320,706
12321,729
12322,726
12323,692
12324,625
12325,524
12326,406
12327,279
12328,156
12329,48
12330,-33
12331,-89
12332,-121
12333,-135
12334,-138
12335,-134
12336,-130
12337,-126
12338,-120
12339,-114
12340,-114
12341,-116
12342,-121
12343,-129
12344,-135
12345,-137
12346,-136
12347,-130
12348,-124
12349,-119
12350,-120
12351,-124
12352,-143
12353,-154
12354,-164
12355,-174
12356,-183
12357,-191
12358,-203
12359,-213
12360,-224
12361,-235
12362,-241
12363,-241
12364,-239
12365,-238
12366,-236
12367,-235
12368,-237
12369,-238
12370,-241
12371,-241
12372,-237
12373,-232
12374,-221
12375,-206
12376,-190
12377,-173
12378,-161
12379,-160
12380,-170
12381,-187
12382,-210
12383,-232
12384,-250
12385,-259
12386,-244
12387,-226
12388,-203
12389,-186
12390,-178
12391,-175
12392,-179
12393,-187
12394,-196
12395,-203
12396,-204
12397,-203
12398,-200
12399,-196
12400,-192
12401,-189
12402,-187
12403,-181
12404,-172
12405,-160
12406,-149
12407,-141
12408,-136
12409,-135
12410,-132
12411,-126
12412,-117
12413,-106
12414,-94
12415,-83
12416,-73
12417,-62
12418,-51
12419,-37
12420,2
12421,26
12422,46
12423,61
12424,73
12425,81
12426,85
12427,92
12428,101
12429,111
12430,120
12431,126
12432,131
12433,136
12434,143
12435,154
12436,167
12437,179
12438,189
12439,191
12440,183
12441,167
12442,142
12443,117
12444,95
12445,76
12446,64
12447,56
12448,49
12449,42
12450,36
12451,29
12452,22
12453,22
12454,18
12455,15
12456,14
12457,12
12458,12
12459,9
12460,3
12461,-3
12462,-10
12463,-19
12464,-29
12465,-36
12466,-42
12467,-48
12468,-52
12469,-54
12470,-53
12471,-54
12472,-59
12473,-64
12474,-71
12475,-83
12476,-94
12477,-100
12478,-100
12479,-99
12480,-98
12481,-92
12482,-85
12483,-80
12484,-78
12485,-74
12486,-73
12487,-72
12488,-70
12489,-72
12490,-86
12491,-96
12492,-101
12493,-101
12494,-98
12495,-92
12496,-86
12497,-83
12498,-85
12499,-88
12500,-93
12501,-99
12502,-100
12503,-99
12504,-95
12505,-89
12506,-87
12507,-89
12508,-95
12509,-100
12510,-102
12511,-100
12512,-95
12513,-85
12514,-72
12515,-63
12516,-62
12517,-68
12518,-84
12519,-104
12520,-123
12521,-138
12522,-147
12523,-153
12524,-155
12525,-156
12526,-163
12527,-174
12528,-185
12529,-193
12530,-203
12531,-214
12532,-222
12533,-232
12534,-242
12535,-246
12536,-246
12537,-244
12538,-240
12539,-235
12540,-232
12541,-231
12542,-238
12543,-249
12544,-259
12545,-268
12546,-278
12547,-286
12548,-291
12549,-295
12550,-300
12551,-302
12552,-301
12553,-298
12554,-292
12555,-283
12556,-273
12557,-261
12558,-259
12559,-257
12560,-253
12561,-247
12562,-240
12563,-229
12564,-221
12565,-212
12566,-206
12567,-204
12568,-199
12569,-193
12570,-186
12571,-177
12572,-167
12573,-160
12574,-152
12575,-146
12576,-140
12577,-132
12578,-123
12579,-112
12580,-100
12581,-94
12582,-93
12583,-95
12584,-101
12585,-108
12586,-111
12587,-109
12588,-104
12589,-97
12590,-92
12591,-92
12592,-97
12593,-101
12594,-100
12595,-100
12596,-93
12597,-79
12598,-64
12599,-53
12600,-48
12601,-48
12602,-55
12603,-65
12604,-74
12605,-82
12606,-86
12607,-86
12608,-84
12609,-81
12610,-80
12611,-81
12612,-78
12613,-73
12614,-70
12615,-71
12616,-75
12617,-81
12618,-84
12619,-85
12620,-81
12621,-73
12622,-60
12623,-48
12624,-37
12625,-32
12626,-35
12627,-38
12628,-36
12629,-28
12630,-20
12631,-13
12632,-9
12633,-11
12634,-17
12635,-25
12636,-32
12637,-35
12638,-35
12639,-35
12640,-34
12641,-32
12642,-34
12643,-36
12644,-32
12645,-25
12646,-11
12647,8
12648,23
12649,32
12650,36
12651,31
12652,26
12653,22
12654,21
12655,22
12656,25
12657,24
12658,18
12659,6
12660,-17
12661,-18
12662,-12
12663,-3
12664,6
12665,10
12666,13
12667,19
12668,32
12669,60
12670,105
12671,166
12672,240
12673,317
12674,397
12675,480
12676,560
12677,638
12678,711
12679,767
12680,796
12681,792
12682,750
12683,670
12684,558
12685,424
12686,285
12687,154
12688,37
12689,-57
12690,-128
12691,-175
12692,-204
12693,-215
12694,-208
12695,-199
12696,-189
12697,-181
12698,-179
12699,-181
12700,-187
12701,-193
12702,-196
12703,-198
12704,-194
12705,-184
12706,-170
12707,-157
12708,-146
12709,-144
12710,-150
12711,-160
12712,-174
12713,-188
12714,-198
12715,-203
12716,-205
12717,-202
12718,-196
12719,-190
12720,-185
12721,-181
12722,-175
12723,-167
12724,-162
12725,-162
12726,-164
12727,-171
12728,-191
12729,-199
12730,-205
12731,-208
12732,-210
12733,-211
12734,-211
12735,-213
12736,-214
12737,-211
12738,-211
12739,-207
12740,-203
12741,-197
12742,-194
12743,-191
12744,-186
12745,-180
12746,-172
12747,-159
12748,-142
12749,-127
12750,-115
12751,-107
12752,-106
12753,-108
12754,-111
12755,-114
12756,-116
12757,-118
12758,-121
12759,-124
12760,-127
12761,-128
12762,-126
12763,-109
12764,-95
12765,-81
12766,-73
