,ECG
0,-49
1,-76
2,-100
3,-118
4,-130
5,-122
6,-94
7,-59
8,-17
9,14
10,19
11,3
12,-29
13,-79
14,-129
15,-157
16,-158
17,-128
18,-69
19,6
20,70
21,109
22,96
23,46
24,-23
25,-90
26,-136
27,-159
28,-161
29,-140
30,-110
31,-96
32,-96
33,-99
34,-108
35,-123
36,-125
37,-105
38,-68
39,-20
40,27
41,56
42,58
43,32
44,-7
45,-48
46,-78
47,-88
48,-71
49,-33
50,20
51,65
52,83
53,71
54,40
55,0
56,-107
57,-150
58,-173
59,-183
60,-173
61,-149
62,-132
63,-125
64,-118
65,-113
66,-112
67,-119
68,-122
69,-113
70,-100
71,-83
72,-60
73,-38
74,-25
75,-17
76,-18
77,-29
78,-44
79,-59
80,-76
81,-85
82,-68
83,-27
84,35
85,114
86,177
87,199
88,174
89,101
90,-96
91,-183
92,-230
93,-222
94,-182
95,-124
96,-60
97,-14
98,7
99,5
100,-8
101,-26
102,-52
103,-84
104,-109
105,-119
106,-114
107,-97
108,-77
109,-58
110,-43
111,-36
112,-28
113,-14
114,-8
115,-19
116,-36
117,-36
118,-59
119,-90
120,-122
121,-147
122,-160
123,-158
124,-119
125,-89
126,-68
127,-56
128,-46
129,-41
130,-50
131,-66
132,-87
133,-105
134,-118
135,-117
136,-100
137,-80
138,-68
139,-61
140,-62
141,-69
142,-73
143,-68
144,-54
145,-35
146,-15
147,4
148,19
149,24
150,30
151,39
152,48
153,65
154,81
155,85
156,72
157,43
158,-49
159,-103
160,-144
161,-161
162,-167
163,-167
164,-156
165,-147
166,-146
167,-140
168,-123
169,-99
170,-82
171,-71
172,-61
173,-60
174,-70
175,-81
176,-92
177,-102
178,-99
179,-85
180,-63
181,-36
182,-17
183,-11
184,-10
185,-23
186,-44
187,-65
188,-88
189,-96
190,-77
191,-49
192,6
193,18
194,6
195,-17
196,-42
197,-69
198,-91
199,-100
200,-100
201,-99
202,-102
203,-109
204,-117
205,-131
206,-152
207,-165
208,-167
209,-163
210,-146
211,-117
212,-85
213,-46
214,0
215,33
216,43
217,28
218,-9
219,-58
220,-108
221,-142
222,-141
223,-108
224,-51
225,117
226,201
227,284
228,378
229,477
230,574
231,673
232,764
233,824
234,849
235,833
236,770
237,670
238,544
239,403
240,273
241,159
242,66
243,1
244,-45
245,-85
246,-116
247,-142
248,-171
249,-196
250,-216
251,-225
252,-218
253,-198
254,-167
255,-135
256,-116
257,-109
258,-103
259,-103
260,-103
261,-126
262,-137
263,-153
264,-171
265,-190
266,-199
267,-198
268,-189
269,-161
270,-116
271,-86
272,-81
273,-92
274,-120
275,-160
276,-197
277,-219
278,-220
279,-207
280,-189
281,-170
282,-159
283,-155
284,-149
285,-138
286,-137
287,-143
288,-153
289,-161
290,-162
291,-156
292,-139
293,-110
294,-88
295,-66
296,-79
297,-110
298,-140
299,-160
300,-164
301,-149
302,-123
303,-87
304,-54
305,-40
306,-32
307,-25
308,-25
309,-29
310,-35
311,-51
312,-74
313,-105
314,-146
315,-188
316,-211
317,-215
318,-187
319,-131
320,-74
321,-33
322,-10
323,-8
324,-29
325,-65
326,-98
327,-112
328,-102
329,-29
330,8
331,21
332,18
333,7
334,-7
335,-22
336,-33
337,-35
338,-33
339,-37
340,-46
341,-59
342,-77
343,-88
344,-78
345,-54
346,-23
347,7
348,29
349,36
350,31
351,14
352,-8
353,-28
354,-39
355,-37
356,-17
357,15
358,43
359,60
360,66
361,59
362,47
363,28
364,24
365,23
366,16
367,0
368,-16
369,-44
370,-79
371,-105
372,-120
373,-130
374,-132
375,-133
376,-136
377,-138
378,-142
379,-154
380,-163
381,-166
382,-166
383,-156
384,-130
385,-105
386,-91
387,-87
388,-92
389,-101
390,-114
391,-139
392,-170
393,-195
394,-216
395,-234
396,-236
397,-210
398,-183
399,-151
400,-129
401,-129
402,-126
403,-141
404,-165
405,-184
406,-201
407,-210
408,-208
409,-205
410,-203
411,-200
412,-192
413,-182
414,-169
415,-146
416,-127
417,-118
418,-116
419,-122
420,-136
421,-147
422,-155
423,-147
424,-119
425,-82
426,-45
427,-14
428,0
429,1
430,-11
431,-47
432,-146
433,-187
434,-209
435,-204
436,-185
437,-158
438,-131
439,-113
440,-106
441,-110
442,-124
443,-132
444,-127
445,-112
446,-95
447,-82
448,-77
449,-77
450,-80
451,-83
452,-79
453,-66
454,-55
455,-50
456,-51
457,-64
458,-87
459,-101
460,-96
461,-72
462,-22
463,39
464,86
465,103
466,43
467,-16
468,-77
469,-131
470,-167
471,-184
472,-191
473,-187
474,-176
475,-164
476,-144
477,-109
478,-75
479,-50
480,-38
481,-44
482,-60
483,-78
484,-90
485,-92
486,-83
487,-64
488,-45
489,-34
490,-36
491,-53
492,-77
493,-98
494,-114
495,-116
496,-97
497,-70
498,-46
499,-28
500,-26
501,-59
502,-76
503,-81
504,-79
505,-79
506,-76
507,-72
508,-81
509,-94
510,-98
511,-104
512,-111
513,-118
514,-123
515,-126
516,-128
517,-126
518,-111
519,-87
520,-67
521,-53
522,-45
523,-53
524,-70
525,-87
526,-100
527,-108
528,-109
529,-105
530,-92
531,-68
532,-37
533,-15
534,-9
535,-29
536,-57
537,-88
538,-112
539,-122
540,-119
541,-107
542,-83
543,-56
544,-56
545,-40
546,-28
547,-13
548,-5
549,-11
550,-30
551,-52
552,-75
553,-99
554,-115
555,-121
556,-119
557,-113
558,-100
559,-82
560,-70
561,-60
562,-41
563,-11
564,27
565,81
566,139
567,182
568,193
569,162
570,9
571,-87
572,-172
573,-220
574,-230
575,-207
576,-162
577,-110
578,-70
579,-50
580,-48
581,-53
582,-61
583,-71
584,-80
585,-81
586,-73
587,-54
588,-35
589,-14
590,4
591,14
592,12
593,1
594,-11
595,-20
596,-22
597,-5
598,25
599,54
600,78
601,88
602,74
603,41
604,-47
605,-76
606,-82
607,-70
608,-47
609,-28
610,-23
611,-22
612,-30
613,-49
614,-63
615,-68
616,-67
617,-63
618,-54
619,-49
620,-51
621,-58
622,-59
623,-52
624,-42
625,-26
626,-2
627,22
628,37
629,39
630,34
631,26
632,23
633,32
634,64
635,103
636,128
637,134
638,87
639,29
640,-29
641,-75
642,-99
643,-103
644,-90
645,-65
646,-48
647,-48
648,-50
649,-49
650,-49
651,-49
652,-49
653,-45
654,-42
655,-42
656,-45
657,-49
658,-50
659,-46
660,-43
661,-35
662,-17
663,9
664,38
665,71
666,100
667,112
668,103
669,75
670,31
671,-21
672,-120
673,-134
674,-122
675,-87
676,-40
677,18
678,82
679,141
680,195
681,243
682,286
683,339
684,406
685,488
686,488
687,579
688,663
689,724
690,763
691,772
692,742
693,678
694,587
695,480
696,369
697,266
698,180
699,102
700,38
701,-1
702,-27
703,-48
704,-73
705,-109
706,-150
707,-189
708,-235
709,-230
710,-218
711,-193
712,-158
713,-133
714,-119
715,-114
716,-112
717,-105
718,-97
719,-89
720,-82
721,-77
722,-74
723,-74
724,-73
725,-70
726,-61
727,-48
728,-41
729,-50
730,-73
731,-100
732,-118
733,-116
734,-88
735,-42
736,8
737,39
738,46
739,25
740,-28
741,-147
742,-171
743,-168
744,-138
745,-95
746,-60
747,-50
748,-64
749,-88
750,-116
751,-145
752,-162
753,-160
754,-144
755,-117
756,-81
757,-38
758,-3
759,13
760,15
761,9
762,-3
763,-14
764,-20
765,-20
766,-11
767,3
768,9
769,6
770,-5
771,-24
772,-39
773,-37
774,-22
775,10
776,23
777,25
778,21
779,7
780,-13
781,-36
782,-51
783,-61
784,-65
785,-56
786,-35
787,1
788,54
789,111
790,155
791,173
792,168
793,144
794,105
795,60
796,16
797,-17
798,-33
799,-35
800,-20
801,8
802,38
803,62
804,89
805,109
806,110
807,100
808,84
809,60
810,64
811,72
812,82
813,94
814,99
815,102
816,109
817,117
818,120
819,114
820,96
821,69
822,33
823,-10
824,-52
825,-80
826,-97
827,-102
828,-102
829,-95
830,-86
831,-86
832,-97
833,-110
834,-118
835,-116
836,-102
837,-74
838,-36
839,-7
840,3
841,-8
842,-43
843,-109
844,-116
845,-101
846,-66
847,-35
848,-28
849,-47
850,-94
851,-152
852,-206
853,-244
854,-256
855,-238
856,-212
857,-185
858,-159
859,-141
860,-133
861,-132
862,-138
863,-145
864,-154
865,-168
866,-183
867,-192
868,-192
869,-188
870,-177
871,-160
872,-142
873,-132
874,-126
875,-122
876,-122
877,-101
878,-77
879,-43
880,2
881,39
882,44
883,14
884,-38
885,-103
886,-168
887,-210
888,-224
889,-214
890,-192
891,-163
892,-132
893,-117
894,-124
895,-129
896,-122
897,-108
898,-90
899,-69
900,-60
901,-64
902,-74
903,-92
904,-113
905,-125
906,-125
907,-106
908,-69
909,-38
910,-17
911,-2
912,-14
913,-37
914,-73
915,-107
916,-136
917,-165
918,-181
919,-178
920,-168
921,-140
922,-97
923,-59
924,-40
925,-49
926,-75
927,-105
928,-134
929,-151
930,-147
931,-126
932,-98
933,-76
934,-66
935,-61
936,-56
937,-45
938,-13
939,24
940,42
941,36
942,1
943,-63
944,-144
945,-217
946,-264
947,-232
948,-174
949,-115
950,-79
951,-68
952,-71
953,-86
954,-103
955,-112
956,-117
957,-121
958,-125
959,-129
960,-135
961,-149
962,-160
963,-159
964,-147
965,-128
966,-98
967,-67
968,-45
969,-31
970,-31
971,-21
972,-21
973,-22
974,-23
975,-34
976,-56
977,-86
978,-118
979,-152
980,-182
981,-196
982,-171
983,-134
984,-90
985,-51
986,-32
987,-28
988,-36
989,-48
990,-59
991,-62
992,-60
993,-54
994,-51
995,-57
996,-72
997,-91
998,-105
999,-108
1000,-104
1001,-95
1002,-86
1003,-82
1004,-89
1005,-103
1006,-114
1007,-118
1008,-118
1009,-108
1010,-83
1011,-52
1012,-17
1013,16
1014,31
1015,-2
1016,-50
1017,-108
1018,-165
1019,-212
1020,-237
1021,-239
1022,-227
1023,-205
1024,-179
1025,-161
1026,-143
1027,-120
1028,-100
1029,-89
1030,-78
1031,-66
1032,-55
1033,-34
1034,0
1035,29
1036,44
1037,39
1038,16
1039,-24
1040,-80
1041,-137
1042,-175
1043,-191
1044,-191
1045,-173
1046,-141
1047,-109
1048,-82
1049,-48
1050,21
1051,20
1052,0
1053,-35
1054,-81
1055,-128
1056,-164
1057,-176
1058,-162
1059,-134
1060,-95
1061,-53
1062,-29
1063,-33
1064,-43
1065,-57
1066,-79
1067,-105
1068,-127
1069,-141
1070,-153
1071,-163
1072,-164
1073,-161
1074,-156
1075,-145
1076,-128
1077,-112
1078,-98
1079,-83
1080,-67
1081,-53
1082,-40
1083,-29
1084,-35
1085,-39
1086,-41
1087,-31
1088,-23
1089,-31
1090,-49
1091,-75
1092,-110
1093,-136
1094,-140
1095,-115
1096,-52
1097,48
1098,168
1099,298
1100,409
1101,484
1102,537
1103,579
1104,601
1105,609
1106,607
1107,595
1108,568
1109,519
1110,444
1111,349
1112,242
1113,242
1114,131
1115,27
1116,-58
1117,-127
1118,-181
1119,-225
1120,-210
1121,-177
1122,-134
1123,-94
1124,-72
1125,-73
1126,-99
1127,-134
1128,-172
1129,-205
1130,-226
1131,-236
1132,-239
1133,-236
1134,-232
1135,-224
1136,-216
1137,-210
1138,-202
1139,-198
1140,-204
1141,-209
1142,-205
1143,-186
1144,-155
1145,-128
1146,-114
1147,-115
1148,-133
1149,-163
1150,-195
1151,-219
1152,-228
1153,-219
1154,-202
1155,-182
1156,-163
1157,-133
1158,-98
1159,-73
1160,-63
1161,-74
1162,-103
1163,-129
1164,-144
1165,-141
1166,-112
1167,-65
1168,-26
1169,-9
1170,-24
1171,-73
1172,-135
1173,-191
1174,-222
1175,-214
1176,-173
1177,-115
1178,-47
1179,7
1180,26
1181,15
1182,-11
1183,-58
1184,-112
1185,-149
1186,-166
1187,-158
1188,-100
1189,-82
1190,-84
1191,-103
1192,-125
1193,-138
1194,-145
1195,-141
1196,-123
1197,-103
1198,-86
1199,-71
1200,-67
1201,-65
1202,-49
1203,-33
1204,-24
1205,-19
1206,-16
1207,-12
1208,-7
1209,5
1210,29
1211,61
1212,87
1213,114
1214,132
1215,120
1216,89
1217,58
1218,33
1219,21
1220,23
1221,45
1222,52
1223,37
1224,12
1225,-20
1226,-62
1227,-93
1228,-100
1229,-89
1230,-63
1231,-29
1232,3
1233,25
1234,40
1235,44
1236,41
1237,29
1238,9
1239,-13
1240,-33
1241,-52
1242,-65
1243,-78
1244,-95
1245,-112
1246,-125
1247,-133
1248,-135
1249,-131
1250,-127
1251,-120
1252,-113
1253,-110
1254,-114
1255,-127
1256,-127
1257,-150
1258,-145
1259,-127
1260,-88
1261,-47
1262,-27
1263,-28
1264,-49
1265,-86
1266,-139
1267,-195
1268,-230
1269,-244
1270,-246
1271,-235
1272,-216
1273,-206
1274,-210
1275,-216
1276,-218
1277,-216
1278,-218
1279,-220
1280,-220
1281,-218
1282,-214
1283,-204
1284,-197
1285,-197
1286,-200
1287,-201
1288,-198
1289,-184
1290,-156
1291,-81
1292,-34
1293,-3
1294,4
1295,-13
1296,-58
1297,-115
1298,-171
1299,-218
1300,-248
1301,-263
1302,-265
1303,-254
1304,-235
1305,-219
1306,-199
1307,-178
1308,-159
1309,-143
1310,-137
1311,-139
1312,-150
1313,-166
1314,-180
1315,-186
1316,-182
1317,-168
1318,-149
1319,-125
1320,-98
1321,-85
1322,-90
1323,-101
1324,-109
1325,-88
1326,-45
1327,-3
1328,29
1329,48
1330,35
1331,-8
1332,-74
1333,-144
1334,-201
1335,-238
1336,-257
1337,-252
1338,-240
1339,-234
1340,-219
1341,-190
1342,-160
1343,-130
1344,-95
1345,-70
1346,-66
1347,-74
1348,-83
1349,-90
1350,-86
1351,-67
1352,-39
1353,-18
1354,-16
1355,-30
1356,-53
1357,-79
1358,-94
1359,-69
1360,-52
1361,-45
1362,-60
1363,-98
1364,-150
1365,-203
1366,-234
1367,-240
1368,-224
1369,-184
1370,-137
1371,-100
1372,-76
1373,-67
1374,-85
1375,-116
1376,-146
1377,-166
1378,-163
1379,-134
1380,-88
1381,-38
1382,2
1383,17
1384,6
1385,-25
1386,-71
1387,-120
1388,-156
1389,-177
1390,-184
1391,-182
1392,-173
1393,-156
1394,-105
1395,-59
1396,-12
1397,-12
1398,23
1399,49
1400,60
1401,50
1402,14
1403,-42
1404,-99
1405,-141
1406,-164
1407,-154
1408,-112
1409,-64
1410,-28
1411,-10
1412,-20
1413,-53
1414,-99
1415,-138
1416,-157
1417,-160
1418,-152
1419,-141
1420,-135
1421,-136
1422,-143
1423,-148
1424,-146
1425,-132
1426,-113
1427,-100
1428,-90
1429,-68
1430,-41
1431,0
1432,37
1433,52
1434,48
1435,21
1436,-22
1437,-73
1438,-122
1439,-151
1440,-154
1441,-137
1442,-104
1443,-58
1444,-17
1445,11
1446,32
1447,38
1448,26
1449,0
1450,-36
1451,-74
1452,-108
1453,-125
1454,-116
1455,-90
1456,-50
1457,-8
1458,16
1459,17
1460,-4
1461,-46
1462,-94
1463,-174
1464,-177
1465,-158
1466,-131
1467,-96
1468,-58
1469,-33
1470,-17
1471,-12
1472,-14
1473,-18
1474,-27
1475,-40
1476,-54
1477,-69
1478,-80
1479,-84
1480,-85
1481,-81
1482,-70
1483,-52
1484,-29
1485,-1
1486,29
1487,52
1488,63
1489,59
1490,46
1491,25
1492,1
1493,-5
1494,15
1495,46
1496,67
1497,80
1498,40
1499,-11
1500,-73
1501,-126
1502,-162
1503,-178
1504,-170
1505,-145
1506,-122
1507,-108
1508,-94
1509,-81
1510,-72
1511,-73
1512,-84
1513,-94
1514,-103
1515,-110
1516,-109
1517,-103
1518,-92
1519,-80
1520,-73
1521,-67
1522,-60
1523,-55
1524,-46
1525,-23
1526,4
1527,22
1528,26
1529,15
1530,-6
1531,-26
1532,-29
1533,73
1534,166
1535,257
1536,340
1537,404
1538,445
1539,445
1540,483
1541,532
1542,599
1543,678
1544,755
1545,810
1546,831
1547,800
1548,720
1549,607
1550,472
1551,326
1552,188
1553,63
1554,-42
1555,-118
1556,-162
1557,-180
1558,-178
1559,-165
1560,-152
1561,-142
1562,-134
1563,-131
1564,-130
1565,-131
1566,-134
1567,-127
1568,-107
1569,-48
1570,-17
1571,-3
1572,-2
1573,-20
1574,-60
1575,-108
1576,-148
1577,-181
1578,-195
1579,-196
1580,-195
1581,-188
1582,-180
1583,-178
1584,-173
1585,-167
1586,-164
1587,-157
1588,-142
1589,-127
1590,-111
1591,-93
1592,-76
1593,-68
1594,-65
1595,-69
1596,-80
1597,-93
1598,-97
1599,-90
1600,-70
1601,-38
1602,4
1603,-4
1604,-38
1605,-81
1606,-115
1607,-129
1608,-105
1609,-43
1610,29
1611,89
1612,120
1613,110
1614,68
1615,10
1616,-51
1617,-102
1618,-131
1619,-146
1620,-149
1621,-144
1622,-138
1623,-129
1624,-112
1625,-84
1626,-50
1627,-22
1628,-4
1629,6
1630,8
1631,8
1632,4
1633,-4
1634,-11
1635,-19
1636,-28
1637,-31
1638,-30
1639,-16
1640,13
1641,46
1642,92
1643,141
1644,171
1645,182
1646,178
1647,146
1648,91
1649,31
1650,-23
1651,-61
1652,-77
1653,-73
1654,-52
1655,-18
1656,14
1657,38
1658,59
1659,67
1660,62
1661,54
1662,50
1663,50
1664,55
1665,67
1666,85
1667,111
1668,132
1669,136
1670,132
1671,105
1672,92
1673,84
1674,75
1675,59
1676,36
1677,8
1678,-29
1679,-72
1680,-104
1681,-113
1682,-113
1683,-100
1684,-67
1685,-32
1686,-19
1687,-26
1688,-51
1689,-87
1690,-120
1691,-142
1692,-144
1693,-120
1694,-78
1695,-35
1696,-11
1697,-16
1698,-47
1699,-89
1700,-137
1701,-181
1702,-206
1703,-209
1704,-198
1705,-136
1706,-108
1707,-100
1708,-105
1709,-116
1710,-130
1711,-147
1712,-161
1713,-160
1714,-148
1715,-138
1716,-131
1717,-132
1718,-139
1719,-152
1720,-161
1721,-160
1722,-148
1723,-132
1724,-119
1725,-111
1726,-108
1727,-113
1728,-123
1729,-126
1730,-114
1731,-101
1732,-89
1733,-77
1734,-77
1735,-94
1736,-118
1737,-145
1738,-162
1739,-157
1740,-141
1741,-119
1742,-105
1743,-97
1744,-82
1745,-69
1746,-61
1747,-47
1748,-37
1749,-39
1750,-48
1751,-68
1752,-92
1753,-110
1754,-120
1755,-126
1756,-128
1757,-128
1758,-131
1759,-136
1760,-145
1761,-155
1762,-161
1763,-160
1764,-149
1765,-125
1766,-91
1767,-51
1768,-16
1769,-1
1770,-5
1771,-28
1772,-64
1773,-111
1774,-108
1775,-88
1776,-63
1777,-49
1778,-49
1779,-69
1780,-110
1781,-151
1782,-175
1783,-177
1784,-158
1785,-126
1786,-84
1787,-49
1788,-34
1789,-37
1790,-51
1791,-74
1792,-105
1793,-136
1794,-158
1795,-172
1796,-182
1797,-186
1798,-183
1799,-174
1800,-160
1801,-137
1802,-108
1803,-82
1804,-64
1805,-54
1806,-49
1807,-48
1808,-62
1809,-74
1810,-87
1811,-105
1812,-124
1813,-136
1814,-137
1815,-126
1816,-99
1817,-71
1818,-54
1819,-50
1820,-62
1821,-81
1822,-108
1823,-136
1824,-136
1825,-150
1826,-144
1827,-126
1828,-89
1829,-39
1830,-3
1831,16
1832,25
1833,13
1834,-19
1835,-63
1836,-113
1837,-150
1838,-171
1839,-181
1840,-176
1841,-164
1842,-154
1843,-145
1844,-137
1845,-121
1846,-102
1847,-95
1848,-96
1849,-101
1850,-103
1851,-99
1852,-80
1853,-48
1854,-27
1855,-24
1856,-37
1857,-62
1858,-95
1859,-128
1860,-149
1861,-148
1862,-137
1863,-129
1864,-126
1865,-127
1866,-144
1867,-160
1868,-157
1869,-145
1870,-131
1871,-120
1872,-114
1873,-111
1874,-109
1875,-105
1876,-89
1877,-76
1878,-63
1879,-50
1880,-43
1881,-48
1882,-57
1883,-61
1884,-59
1885,-45
1886,-22
1887,-15
1888,-28
1889,-54
1890,-94
1891,-137
1892,-169
1893,-188
1894,-190
1895,-174
1896,-156
1897,-139
1898,-126
1899,-123
1900,-116
1901,-91
1902,-62
1903,-31
1904,-11
1905,-12
1906,-30
1907,-56
1908,-83
1909,-105
1910,-129
1911,-128
1912,-124
1913,-117
1914,-111
1915,-105
1916,-94
1917,-78
1918,-60
1919,-36
1920,-19
1921,-15
1922,-12
1923,-10
1924,-5
1925,0
1926,0
1927,-8
1928,-17
1929,-30
1930,-37
1931,-40
1932,-42
1933,-41
1934,-35
1935,-27
1936,-20
1937,-26
1938,-49
1939,-81
1940,-114
1941,-140
1942,-156
1943,-172
1944,-166
1945,-156
1946,-146
1947,-134
1948,-129
1949,-128
1950,-124
1951,-112
1952,-100
1953,-92
1954,-86
1955,-85
1956,-91
1957,-99
1958,-107
1959,-114
1960,-117
1961,-120
1962,-117
1963,-108
1964,-97
1965,-81
1966,-81
1967,-49
1968,0
1969,67
1970,160
1971,269
1972,370
1973,455
1974,527
1975,580
1976,620
1977,657
1978,727
1979,752
1980,757
1981,735
1982,670
1983,557
1984,417
1985,276
1986,141
1987,22
1988,-68
1989,-128
1990,-163
1991,-176
1992,-171
1993,-155
1994,-139
1995,-120
1996,-92
1997,-59
1998,-37
1999,-33
2000,-47
2001,-82
2002,-133
2003,-190
2004,-238
2005,-268
2006,-273
2007,-245
2008,-197
2009,-139
2010,-93
2011,-77
2012,-107
2013,-145
2014,-177
2015,-191
2016,-192
2017,-185
2018,-171
2019,-164
2020,-163
2021,-169
2022,-180
2023,-175
2024,-149
2025,-119
2026,-95
2027,-78
2028,-79
2029,-98
2030,-122
2031,-145
2032,-164
2033,-174
2034,-172
2035,-156
2036,-128
2037,-101
2038,-82
2039,-66
2040,-49
2041,-32
2042,-10
2043,15
2044,29
2045,10
2046,-25
2047,-77
2048,-132
2049,-172
2050,-179
2051,-158
2052,-120
2053,-70
2054,-31
2055,-22
2056,-30
2057,-42
2058,-63
2059,-85
2060,-97
2061,-100
2062,-95
2063,-85
2064,-78
2065,-75
2066,-79
2067,-86
2068,-89
2069,-90
2070,-90
2071,-84
2072,-67
2073,-49
2074,-32
2075,-14
2076,-3
2077,0
2078,4
2079,11
2080,10
2081,14
2082,25
2083,40
2084,62
2085,89
2086,108
2087,122
2088,132
2089,129
2090,115
2091,95
2092,75
2093,59
2094,47
2095,35
2096,25
2097,11
2098,-10
2099,-21
2100,-17
2101,-3
2102,22
2103,53
2104,76
2105,89
2106,80
2107,52
2108,52
2109,12
2110,-30
2111,-66
2112,-89
2113,-98
2114,-92
2115,-92
2116,-97
2117,-98
2118,-96
2119,-88
2120,-70
2121,-46
2122,-34
2123,-38
2124,-53
2125,-78
2126,-105
2127,-126
2128,-135
2129,-132
2130,-126
2131,-120
2132,-119
2133,-125
2134,-141
2135,-159
2136,-166
2137,-156
2138,-133
2139,-104
2140,-75
2141,-54
2142,-52
2143,-67
2144,-97
2145,-138
2146,-181
2147,-239
2148,-246
2149,-238
2150,-225
2151,-214
2152,-209
2153,-209
2154,-209
2155,-202
2156,-187
2157,-157
2158,-116
2159,-76
2160,-49
2161,-43
2162,-56
2163,-83
2164,-113
2165,-131
2166,-122
2167,-99
2168,-73
2169,-54
2170,-58
2171,-87
2172,-128
2173,-171
2174,-192
2175,-181
2176,-154
2177,-119
2178,-85
2179,-70
2180,-92
2181,-115
2182,-130
2183,-129
2184,-117
2185,-101
2186,-83
2187,-68
2188,-61
2189,-60
2190,-65
2191,-74
2192,-89
2193,-106
2194,-125
2195,-140
2196,-151
2197,-162
2198,-160
2199,-140
2200,-104
2201,-53
2202,5
2203,56
2204,84
2205,80
2206,48
2207,-7
2208,-75
2209,-136
2210,-173
2211,-187
2212,-185
2213,-166
2214,-130
2215,-124
2216,-122
2217,-120
2218,-113
2219,-101
2220,-80
2221,-52
2222,-35
2223,-26
2224,-21
2225,-30
2226,-54
2227,-83
2228,-113
2229,-139
2230,-155
2231,-158
2232,-149
2233,-133
2234,-114
2235,-95
2236,-80
2237,-70
2238,-57
2239,-40
2240,-15
2241,17
2242,40
2243,39
2244,20
2245,-15
2246,-61
2247,-108
2248,-152
2249,-140
2250,-140
2251,-120
2252,-95
2253,-69
2254,-61
2255,-65
2256,-67
2257,-66
2258,-63
2259,-55
2260,-41
2261,-27
2262,-18
2263,-15
2264,-18
2265,-27
2266,-39
2267,-48
2268,-50
2269,-49
2270,-45
2271,-40
2272,-37
2273,-34
2274,-33
2275,-33
2276,-32
2277,-31
2278,-31
2279,-31
2280,-36
2281,-45
2282,-25
2283,-13
2284,4
2285,25
2286,26
2287,14
2288,-6
2289,-36
2290,-67
2291,-100
2292,-124
2293,-132
2294,-134
2295,-137
2296,-125
2297,-109
2298,-102
2299,-90
2300,-68
2301,-50
2302,-32
2303,-20
2304,-15
2305,-16
2306,-21
2307,-28
2308,-26
2309,-21
2310,-22
2311,-24
2312,-27
2313,-34
2314,-38
2315,-37
2316,-29
2317,-28
2318,-34
2319,-39
2320,-44
2321,-46
2322,-35
2323,-9
2324,11
2325,15
2326,0
2327,-33
2328,-69
2329,-98
2330,-108
2331,-97
2332,-73
2333,-45
2334,-22
2335,-15
2336,-28
2337,-54
2338,-74
2339,-83
2340,-82
2341,-67
2342,-45
2343,-25
2344,-9
2345,3
2346,9
2347,5
2348,-5
2349,-19
2350,-33
2351,-39
2352,-33
2353,-16
2354,13
2355,66
2356,135
2357,191
2358,222
2359,226
2360,193
2361,127
2362,42
2363,-49
2364,-121
2365,-164
2366,-180
2367,-162
2368,-120
2369,-85
2370,-61
2371,-40
2372,-39
2373,-59
2374,-87
2375,-116
2376,-140
2377,-151
2378,-150
2379,-139
2380,-119
2381,-101
2382,-88
2383,-54
2384,-46
2385,-39
2386,-34
2387,-33
2388,-32
2389,-21
2390,-1
2391,33
2392,84
2393,84
2394,140
2395,195
2396,247
2397,289
2398,328
2399,376
2400,439
2401,513
2402,594
2403,670
2404,732
2405,767
2406,769
2407,745
2408,705
2409,643
2410,563
2411,467
2412,351
2413,219
2414,87
2415,-31
2416,-118
2417,-165
2418,-175
2419,-118
2420,-86
2421,-62
2422,-49
2423,-48
2424,-46
2425,-44
2426,-59
2427,-86
2428,-113
2429,-142
2430,-167
2431,-179
2432,-186
2433,-190
2434,-191
2435,-194
2436,-199
2437,-207
2438,-217
2439,-213
2440,-193
2441,-168
2442,-144
2443,-122
2444,-110
2445,-104
2446,-92
2447,-79
2448,-75
2449,-71
2450,-72
2451,-89
2452,-114
2453,-140
2454,-158
2455,-143
2456,-121
2457,-100
2458,-90
2459,-96
2460,-107
2461,-120
2462,-140
2463,-148
2464,-135
2465,-109
2466,-78
2467,-40
2468,-11
2469,-4
2470,-16
2471,-38
2472,-69
2473,-103
2474,-134
2475,-146
2476,-130
2477,-92
2478,-47
2479,-2
2480,26
2481,23
2482,-4
2483,-39
2484,-73
2485,-99
2486,-113
2487,-114
2488,-81
2489,-60
2490,-33
2491,-11
2492,-10
2493,-19
2494,-37
2495,-63
2496,-93
2497,-124
2498,-145
2499,-146
2500,-133
2501,-113
2502,-88
2503,-67
2504,-56
2505,-42
2506,-27
2507,-7
2508,14
2509,37
2510,56
2511,65
2512,63
2513,48
2514,25
2515,-1
2516,-21
2517,-31
2518,-28
2519,-18
2520,-3
2521,16
2522,17
2523,13
2524,10
2525,12
2526,11
2527,11
2528,22
2529,22
2530,9
2531,-4
2532,-22
2533,-36
2534,-45
2535,-45
2536,-57
2537,-65
2538,-72
2539,-87
2540,-100
2541,-114
2542,-136
2543,-154
2544,-159
2545,-159
2546,-146
2547,-121
2548,-96
2549,-74
2550,-48
2551,-31
2552,-37
2553,-67
2554,-105
2555,-146
2556,-215
2557,-224
2558,-214
2559,-197
2560,-168
2561,-131
2562,-110
2563,-112
2564,-130
2565,-165
2566,-216
2567,-275
2568,-328
2569,-365
2570,-382
2571,-381
2572,-360
2573,-333
2574,-309
2575,-281
2576,-251
2577,-224
2578,-201
2579,-191
2580,-196
2581,-209
2582,-225
2583,-236
2584,-233
2585,-218
2586,-194
2587,-170
2588,-159
2589,-158
2590,-179
2591,-191
2592,-187
2593,-170
2594,-157
2595,-156
2596,-163
2597,-175
2598,-186
2599,-188
2600,-177
2601,-147
2602,-115
2603,-98
2604,-93
2605,-106
2606,-142
2607,-186
2608,-220
2609,-243
2610,-252
2611,-253
2612,-246
2613,-232
2614,-220
2615,-208
2616,-184
2617,-150
2618,-112
2619,-79
2620,-63
2621,-72
2622,-103
2623,-149
2624,-239
2625,-263
2626,-266
2627,-250
2628,-224
2629,-201
2630,-183
2631,-175
2632,-170
2633,-160
2634,-140
2635,-109
2636,-74
2637,-55
2638,-52
2639,-68
2640,-102
2641,-142
2642,-174
2643,-196
2644,-194
2645,-170
2646,-143
2647,-113
2648,-91
2649,-91
2650,-94
2651,-85
2652,-74
2653,-57
2654,-38
2655,-32
2656,-47
2657,-80
2658,-183
2659,-220
2660,-242
2661,-237
2662,-203
2663,-167
2664,-140
2665,-124
2666,-127
2667,-145
2668,-162
2669,-173
2670,-169
2671,-156
2672,-147
2673,-139
2674,-130
2675,-129
2676,-128
2677,-128
2678,-125
2679,-126
2680,-128
2681,-131
2682,-135
2683,-141
2684,-146
2685,-149
2686,-147
2687,-137
2688,-125
2689,-115
2690,-112
2691,-114
2692,-109
2693,-83
2694,-65
2695,-45
2696,-27
2697,-10
2698,2
2699,1
2700,-7
2701,-24
2702,-55
2703,-84
2704,-100
2705,-112
2706,-112
2707,-100
2708,-91
2709,-90
2710,-98
2711,-114
2712,-131
2713,-148
2714,-168
2715,-173
2716,-163
2717,-154
2718,-141
2719,-122
2720,-109
2721,-103
2722,-98
2723,-95
2724,-90
2725,-83
2726,-75
2727,-62
2728,-63
2729,-66
2730,-72
2731,-75
2732,-73
2733,-64
2734,-57
2735,-47
2736,-37
2737,-31
2738,-17
2739,1
2740,9
2741,10
2742,0
2743,-26
2744,-60
2745,-90
2746,-111
2747,-110
2748,-97
2749,-87
2750,-75
2751,-74
2752,-94
2753,-112
2754,-127
2755,-145
2756,-154
2757,-155
2758,-156
2759,-150
2760,-139
2761,-123
2762,-96
2763,-67
2764,-40
2765,-13
2766,14
2767,44
2768,79
2769,122
2770,175
2771,230
2772,292
2773,368
2774,456
2775,550
2776,644
2777,725
2778,777
2779,790
2780,765
2781,710
2782,626
2783,520
2784,407
2785,298
2786,185
2787,74
2788,-20
2789,-105
2790,-183
2791,-234
2792,-254
2793,-255
2794,-227
2795,-209
2796,-192
2797,-178
2798,-168
2799,-159
2800,-154
2801,-153
2802,-152
2803,-146
2804,-131
2805,-117
2806,-106
2807,-93
2808,-80
2809,-77
2810,-83
2811,-90
2812,-104
2813,-128
2814,-155
2815,-179
2816,-198
2817,-212
2818,-220
2819,-220
2820,-211
2821,-192
2822,-171
2823,-142
2824,-111
2825,-89
2826,-80
2827,-74
2828,-74
2829,-101
2830,-114
2831,-123
2832,-125
2833,-116
2834,-104
2835,-98
2836,-90
2837,-82
2838,-72
2839,-50
2840,-25
2841,1
2842,22
2843,20
2844,-8
2845,-53
2846,-114
2847,-174
2848,-216
2849,-234
2850,-224
2851,-191
2852,-145
2853,-93
2854,-43
2855,-15
2856,-8
2857,-15
2858,-40
2859,-73
2860,-103
2861,-121
2862,-105
2863,-81
2864,-48
2865,-19
2866,-2
2867,8
2868,20
2869,24
2870,27
2871,35
2872,41
2873,48
2874,62
2875,68
2876,61
2877,44
2878,17
2879,-6
2880,-20
2881,-21
2882,-6
2883,22
2884,46
2885,61
2886,66
2887,57
2888,46
2889,46
2890,58
2891,87
2892,124
2893,150
2894,166
2895,177
2896,166
2897,142
2898,114
2899,84
2900,52
2901,19
2902,-6
2903,-24
2904,-31
2905,-22
2906,2
2907,33
2908,57
2909,69
2910,74
2911,75
2912,61
2913,30
2914,-13
2915,-59
2916,-103
2917,-143
2918,-173
2919,-182
2920,-175
2921,-152
2922,-111
2923,-70
2924,-46
2925,-38
2926,-45
2927,-67
2928,-99
2929,-136
2930,-165
2931,-166
2932,-145
2933,-116
2934,-103
2935,-110
2936,-126
2937,-155
2938,-191
2939,-220
2940,-232
2941,-223
2942,-194
2943,-150
2944,-104
2945,-72
2946,-60
2947,-62
2948,-77
2949,-107
2950,-144
2951,-180
2952,-209
2953,-227
2954,-234
2955,-227
2956,-210
2957,-189
2958,-164
2959,-143
2960,-127
2961,-109
2962,-109
2963,-90
2964,-64
2965,-24
2966,29
2967,15
2968,-18
2969,-69
2970,-127
2971,-177
2972,-207
2973,-213
2974,-207
2975,-194
2976,-176
2977,-163
2978,-166
2979,-164
2980,-150
2981,-133
2982,-116
2983,-101
2984,-88
2985,-77
2986,-72
2987,-77
2988,-89
2989,-103
2990,-118
2991,-129
2992,-128
2993,-109
2994,-79
2995,-42
2996,-9
2997,9
2998,8
2999,-10
3000,-40
3001,-104
3002,-135
3003,-158
3004,-172
3005,-179
3006,-178
3007,-170
3008,-159
3009,-139
3010,-115
3011,-96
3012,-82
3013,-72
3014,-58
3015,-41
3016,-24
3017,-11
3018,-10
3019,-26
3020,-55
3021,-91
3022,-125
3023,-148
3024,-154
3025,-137
3026,-105
3027,-73
3028,-50
3029,-44
3030,-58
3031,-85
3032,-105
3033,-112
3034,-108
3035,-94
3036,-63
3037,-68
3038,-87
3039,-110
3040,-133
3041,-151
3042,-153
3043,-135
3044,-106
3045,-73
3046,-43
3047,-29
3048,-35
3049,-53
3050,-76
3051,-101
3052,-123
3053,-132
3054,-127
3055,-113
3056,-87
3057,-57
3058,-35
3059,-34
3060,-45
3061,-62
3062,-82
3063,-100
3064,-109
3065,-107
3066,-98
3067,-89
3068,-80
3069,-77
3070,-100
3071,-116
3072,-118
3073,-107
3074,-82
3075,-49
3076,-22
3077,-12
3078,-11
3079,-19
3080,-30
3081,-33
3082,-35
3083,-45
3084,-54
3085,-62
3086,-77
3087,-93
3088,-108
3089,-119
3090,-121
3091,-119
3092,-121
3093,-122
3094,-131
3095,-149
3096,-157
3097,-149
3098,-135
3099,-118
3100,-95
3101,-73
3102,-53
3103,-38
3104,-29
3105,-31
3106,-36
3107,-42
3108,-46
3109,-41
3110,-25
3111,-3
3112,13
3113,21
3114,17
3115,0
3116,-28
3117,-60
3118,-85
3119,-102
3120,-117
3121,-127
3122,-131
3123,-131
3124,-131
3125,-127
3126,-120
3127,-108
3128,-90
3129,-65
3130,-28
3131,22
3132,69
3133,97
3134,104
3135,82
3136,28
3137,-45
3138,-121
3139,-224
3140,-236
3141,-216
3142,-169
3143,-112
3144,-54
3145,1
3146,37
3147,48
3148,44
3149,37
3150,33
3151,41
3152,73
3153,133
3154,212
3155,304
3156,405
3157,504
3158,597
3159,682
3160,754
3161,801
3162,811
3163,778
3164,701
3165,588
3166,457
3167,325
3168,205
3169,105
3170,22
3171,-50
3172,-112
3173,-212
3174,-243
3175,-261
3176,-263
3177,-250
3178,-227
3179,-203
3180,-189
3181,-183
3182,-175
3183,-161
3184,-137
3185,-103
3186,-65
3187,-40
3188,-35
3189,-45
3190,-68
3191,-107
3192,-147
3193,-180
3194,-202
3195,-212
3196,-209
3197,-197
3198,-184
3199,-180
3200,-178
3201,-173
3202,-171
3203,-175
3204,-176
3205,-173
3206,-166
3207,-152
3208,-109
3209,-91
3210,-71
3211,-47
3212,-26
3213,-1
3214,16
3215,9
3216,-13
3217,-47
3218,-87
3219,-120
3220,-141
3221,-145
3222,-133
3223,-116
3224,-102
3225,-86
3226,-77
3227,-77
3228,-66
3229,-45
3230,-30
3231,-25
3232,-27
3233,-40
3234,-57
3235,-72
3236,-80
3237,-83
3238,-87
3239,-88
3240,-85
3241,-83
3242,-79
3243,-68
3244,-58
3245,-56
3246,-56
3247,-54
3248,-49
3249,-40
3250,-23
3251,9
3252,42
3253,56
3254,54
3255,40
3256,13
3257,-16
3258,-37
3259,-44
3260,-39
3261,-21
3262,9
3263,50
3264,103
3265,158
3266,205
3267,234
3268,235
3269,207
3270,151
3271,78
3272,5
3273,-45
3274,-71
3275,-75
3276,-41
3277,-26
3278,-10
3279,10
3280,29
3281,47
3282,64
3283,78
3284,84
3285,82
3286,66
3287,43
3288,19
3289,-2
3290,-17
3291,-25
3292,-27
3293,-23
3294,-23
3295,-26
3296,-30
3297,-33
3298,-31
3299,-21
3300,-10
3301,-3
3302,-8
3303,-32
3304,-67
3305,-101
3306,-128
3307,-133
3308,-112
3309,-82
3310,-57
3311,-57
3312,-85
3313,-115
3314,-142
3315,-160
3316,-165
3317,-167
3318,-170
3319,-171
3320,-177
3321,-188
3322,-192
3323,-191
3324,-190
3325,-189
3326,-192
3327,-200
3328,-208
3329,-212
3330,-208
3331,-194
3332,-173
3333,-146
3334,-114
3335,-90
3336,-86
3337,-94
3338,-117
3339,-148
3340,-177
3341,-197
3342,-199
3343,-182
3344,-134
3345,-119
3346,-121
3347,-138
3348,-161
3349,-183
3350,-195
3351,-194
3352,-185
3353,-154
3354,-109
3355,-74
3356,-45
3357,-23
3358,-25
3359,-49
3360,-90
3361,-139
3362,-182
3363,-213
3364,-230
3365,-224
3366,-208
3367,-193
3368,-171
3369,-147
3370,-132
3371,-119
3372,-111
3373,-107
3374,-106
3375,-103
3376,-101
3377,-95
3378,-76
3379,-73
3380,-79
3381,-94
3382,-112
3383,-135
3384,-153
3385,-158
3386,-151
3387,-151
3388,-139
3389,-122
3390,-100
3391,-86
3392,-78
3393,-74
3394,-77
3395,-88
3396,-107
3397,-132
3398,-155
3399,-175
3400,-184
3401,-177
3402,-159
3403,-138
3404,-118
3405,-101
3406,-92
3407,-85
3408,-79
3409,-78
3410,-84
3411,-95
3412,-113
3413,-134
3414,-174
3415,-181
3416,-174
3417,-159
3418,-136
3419,-113
3420,-103
3421,-102
3422,-100
3423,-96
3424,-85
3425,-68
3426,-56
3427,-55
3428,-69
3429,-97
3430,-130
3431,-161
3432,-185
3433,-192
3434,-176
3435,-146
3436,-115
3437,-90
3438,-76
3439,-75
3440,-78
3441,-81
3442,-83
3443,-82
3444,-79
3445,-80
3446,-82
3447,-89
3448,-115
3449,-125
3450,-135
3451,-144
3452,-149
3453,-145
3454,-133
3455,-114
3456,-95
3457,-76
3458,-61
3459,-57
3460,-61
3461,-76
3462,-96
3463,-115
3464,-127
3465,-127
3466,-120
3467,-111
3468,-102
3469,-94
3470,-94
3471,-97
3472,-99
3473,-95
3474,-85
3475,-74
3476,-57
3477,-45
3478,-44
3479,-51
3480,-63
3481,-71
3482,-63
3483,-46
3484,-22
3485,-5
3486,0
3487,1
3488,-9
3489,-38
3490,-71
3491,-97
3492,-116
3493,-126
3494,-124
3495,-114
3496,-99
3497,-82
3498,-67
3499,-48
3500,-36
3501,-41
3502,-48
3503,-52
3504,-60
3505,-65
3506,-65
3507,-61
3508,-58
3509,-62
3510,-70
3511,-86
3512,-112
3513,-142
3514,-163
3515,-165
3516,-145
3517,-118
3518,-90
3519,-71
3520,-63
3521,-58
3522,-58
3523,-57
3524,-47
3525,-29
3526,-15
3527,-8
3528,-13
3529,-36
3530,-69
3531,-69
3532,-101
3533,-124
3534,-127
3535,-121
3536,-112
3537,-97
3538,-82
3539,-75
3540,-62
3541,-35
3542,-8
3543,12
3544,17
3545,0
3546,-35
3547,-80
3548,-117
3549,-131
3550,-98
3551,-68
3552,-49
3553,-47
3554,-53
3555,-57
3556,-45
3557,-8
3558,54
3559,137
3560,235
3561,340
3562,442
3563,535
3564,620
3565,700
3566,775
3567,835
3568,883
3569,889
3570,834
3571,721
3572,563
3573,380
3574,202
3575,43
3576,-80
3577,-159
3578,-206
3579,-232
3580,-237
3581,-239
3582,-240
3583,-202
3584,-177
3585,-156
3586,-145
3587,-144
3588,-142
3589,-137
3590,-134
3591,-132
3592,-137
3593,-152
3594,-173
3595,-199
3596,-219
3597,-226
3598,-213
3599,-184
3600,-149
3601,-115
3602,-85
3603,-66
3604,-66
3605,-87
3606,-116
3607,-143
3608,-157
3609,-153
3610,-123
3611,-82
3612,-52
3613,-34
3614,-26
3615,-36
3616,-61
3617,-78
3618,-64
3619,-51
3620,-46
3621,-45
3622,-60
3623,-93
3624,-126
3625,-147
3626,-167
3627,-183
3628,-186
3629,-181
3630,-172
3631,-159
3632,-142
3633,-126
3634,-112
3635,-106
3636,-102
3637,-98
3638,-88
3639,-75
3640,-62
3641,-46
3642,-24
3643,0
3644,32
3645,70
3646,100
3647,114
3648,109
3649,81
3650,35
3651,-23
3652,-114
3653,-117
3654,-100
3655,-68
3656,-31
3657,-9
3658,-3
3659,-7
3660,-17
3661,-28
3662,-35
3663,-31
3664,-11
3665,16
3666,44
3667,69
3668,91
3669,104
3670,104
3671,90
3672,71
3673,71
3674,47
3675,23
3676,3
3677,-7
3678,-10
3679,-6
3680,8
3681,25
3682,40
3683,62
3684,88
3685,106
3686,145
3687,159
3688,161
3689,164
3690,162
3691,148
3692,128
3693,98
3694,66
3695,30
3696,-14
3697,-53
3698,-74
3699,-86
3700,-89
3701,-83
3702,-82
3703,-86
3704,-85
3705,-82
3706,-78
3707,-69
3708,-61
3709,-62
3710,-66
3711,-73
3712,-85
3713,-105
3714,-121
3715,-126
3716,-131
3717,-136
3718,-138
3719,-131
3720,-103
3721,-81
3722,-63
3723,-60
3724,-69
3725,-77
3726,-82
3727,-88
3728,-91
3729,-92
3730,-105
3731,-134
3732,-170
3733,-208
3734,-242
3735,-263
3736,-267
3737,-253
3738,-232
3739,-216
3740,-199
3741,-182
3742,-167
3743,-145
3744,-119
3745,-104
3746,-98
3747,-99
3748,-108
3749,-122
3750,-138
3751,-155
3752,-165
3753,-170
3754,-172
3755,-150
3756,-133
3757,-110
3758,-89
3759,-79
3760,-79
3761,-86
3762,-98
3763,-110
3764,-120
3765,-124
3766,-117
3767,-108
3768,-104
3769,-107
3770,-121
3771,-140
3772,-151
3773,-148
3774,-135
3775,-107
3776,-74
3777,-53
3778,-50
3779,-66
3780,-94
3781,-122
3782,-138
3783,-133
3784,-117
3785,-98
3786,-81
3787,-72
3788,-83
3789,-145
3790,-169
3791,-181
3792,-187
3793,-176
3794,-145
3795,-109
3796,-70
3797,-28
3798,-2
3799,-2
3800,-24
3801,-63
3802,-110
3803,-153
3804,-183
3805,-187
3806,-173
3807,-155
3808,-138
3809,-131
3810,-137
3811,-147
3812,-156
3813,-155
3814,-140
3815,-140
3816,-111
3817,-70
3818,-26
3819,4
3820,20
3821,13
3822,-19
3823,-123
3824,-174
3825,-212
3826,-231
3827,-234
3828,-220
3829,-199
3830,-178
3831,-158
3832,-143
3833,-134
3834,-123
3835,-112
3836,-101
3837,-92
3838,-89
3839,-90
3840,-95
3841,-98
3842,-98
3843,-94
3844,-86
3845,-71
3846,-59
3847,-56
3848,-59
3849,-70
3850,-85
3851,-99
3852,-106
3853,-103
3854,-90
3855,-76
3856,-64
3857,-56
3858,-61
3859,-65
3860,-66
3861,-64
3862,-60
3863,-58
3864,-57
3865,-60
3866,-65
3867,-67
3868,-60
3869,-45
3870,-20
3871,12
3872,31
3873,27
3874,6
3875,-27
3876,-69
3877,-106
3878,-130
3879,-131
3880,-116
3881,-100
3882,-84
3883,-74
3884,-82
3885,-102
3886,-117
3887,-125
3888,-124
3889,-111
3890,-90
3891,-60
3892,-10
3893,-1
3894,-8
3895,-29
3896,-59
3897,-90
3898,-115
3899,-128
3900,-130
3901,-121
3902,-108
3903,-90
3904,-72
3905,-53
3906,-41
3907,-33
3908,-29
3909,-29
3910,-34
3911,-45
3912,-55
3913,-60
3914,-61
3915,-55
3916,-45
3917,-33
3918,-23
3919,-18
3920,-14
3921,-14
3922,-19
3923,-24
3924,-16
3925,2
3926,71
3927,97
3928,101
3929,85
3930,44
3931,-11
3932,-65
3933,-108
3934,-133
3935,-130
3936,-111
3937,-91
3938,-73
3939,-66
3940,-67
3941,-69
3942,-71
3943,-71
3944,-65
3945,-56
3946,-49
3947,-44
3948,-39
3949,-37
3950,-35
3951,-36
3952,-36
3953,-36
3954,-36
3955,-34
3956,-31
3957,-31
3958,-27
3959,-27
3960,-28
3961,-20
3962,-10
3963,15
3964,59
3965,117
3966,193
3967,273
3968,336
3969,391
3970,445
3971,497
3972,555
3973,618
3974,681
3975,740
3976,776
3977,777
3978,740
3979,655
3980,521
3981,372
3982,225
3983,86
3984,-28
3985,-109
3986,-162
3987,-185
3988,-184
3989,-174
3990,-167
3991,-165
3992,-166
3993,-168
3994,-169
3995,-175
3996,-174
3997,-171
3998,-165
3999,-156
4000,-149
4001,-145
4002,-140
4003,-133
4004,-124
4005,-112
4006,-102
4007,-90
4008,-72
4009,-52
4010,-30
4011,0
4012,24
4013,28
4014,15
4015,-15
4016,-63
4017,-121
4018,-179
4019,-224
4020,-245
4021,-247
4022,-236
4023,-211
4024,-183
4025,-160
4026,-135
4027,-107
4028,-86
4029,-73
4030,-79
4031,-86
4032,-90
4033,-94
4034,-97
4035,-97
4036,-94
4037,-89
4038,-79
4039,-65
4040,-53
4041,-43
4042,-38
4043,-43
4044,-52
4045,-66
4046,-85
4047,-94
4048,-87
4049,-71
4050,-45
4051,-13
4052,21
4053,51
4054,65
4055,59
4056,38
4057,3
4058,-30
4059,-59
4060,-80
4061,-90
4062,-88
4063,-66
4064,-55
4065,-52
4066,-48
4067,-37
4068,-26
4069,-11
4070,-1
4071,0
4072,1
4073,4
4074,11
4075,22
4076,31
4077,39
4078,46
4079,52
4080,54
4081,53
4082,52
4083,55
4084,61
4085,73
4086,91
4087,109
4088,133
4089,161
4090,185
4091,203
4092,213
4093,208
4094,191
4095,161
4096,114
4097,10
4098,-28
4099,-47
4100,-47
4101,-50
4102,-46
4103,-33
4104,-21
4105,-22
4106,-33
4107,-49
4108,-69
4109,-80
4110,-71
4111,-44
4112,-9
4113,18
4114,36
4115,31
4116,0
4117,-42
4118,-88
4119,-122
4120,-128
4121,-113
4122,-91
4123,-68
4124,-57
4125,-63
4126,-77
4127,-101
4128,-124
4129,-129
4130,-128
4131,-131
4132,-137
4133,-193
4134,-228
4135,-254
4136,-266
4137,-263
4138,-249
4139,-229
4140,-201
4141,-176
4142,-161
4143,-151
4144,-146
4145,-146
4146,-152
4147,-157
4148,-159
4149,-156
4150,-144
4151,-125
4152,-109
4153,-101
4154,-103
4155,-115
4156,-132
4157,-150
4158,-165
4159,-169
4160,-165
4161,-159
4162,-153
4163,-140
4164,-126
4165,-103
4166,-70
4167,-38
4168,-30
4169,-56
4170,-93
4171,-128
4172,-144
4173,-139
4174,-112
4175,-75
4176,-45
4177,-29
4178,-37
4179,-71
4180,-111
4181,-142
4182,-164
4183,-166
4184,-152
4185,-132
4186,-112
4187,-92
4188,-75
4189,-59
4190,-46
4191,-40
4192,-46
4193,-62
4194,-91
4195,-129
4196,-165
4197,-185
4198,-184
4199,-157
4200,-111
4201,-67
4202,-36
4203,-63
4204,-111
4205,-159
4206,-201
4207,-224
4208,-222
4209,-206
4210,-179
4211,-150
4212,-131
4213,-119
4214,-111
4215,-104
4216,-99
4217,-92
4218,-83
4219,-75
4220,-70
4221,-63
4222,-55
4223,-59
4224,-72
4225,-86
4226,-98
4227,-100
4228,-93
4229,-79
4230,-59
4231,-47
4232,-50
4233,-59
4234,-67
4235,-80
4236,-81
4237,-38
4238,-27
4239,-23
4240,-38
4241,-66
4242,-66
4243,-99
4244,-130
4245,-144
4246,-139
4247,-130
4248,-119
4249,-102
4250,-96
4251,-101
4252,-109
4253,-122
4254,-138
4255,-154
4256,-166
4257,-170
4258,-168
4259,-161
4260,-150
4261,-133
4262,-109
4263,-83
4264,-52
4265,-22
4266,2
4267,9
4268,-1
4269,-27
4270,-61
4271,-96
4272,-123
4273,-137
4274,-121
4275,-102
4276,-77
4277,-52
4278,-43
4279,-52
4280,-65
4281,-83
4282,-100
4283,-107
4284,-98
4285,-81
4286,-66
4287,-58
4288,-57
4289,-67
4290,-88
4291,-108
4292,-112
4293,-109
4294,-106
4295,-108
4296,-112
4297,-115
4298,-114
4299,-101
4300,-70
4301,-35
4302,-5
4303,12
4304,16
4305,4
4306,-26
4307,-83
4308,-82
4309,-62
4310,-22
4311,22
4312,48
4313,43
4314,14
4315,-33
4316,-93
4317,-151
4318,-188
4319,-200
4320,-192
4321,-175
4322,-153
4323,-136
4324,-126
4325,-113
4326,-96
4327,-77
4328,-65
4329,-54
4330,-45
4331,-39
4332,-33
4333,-25
4334,-21
4335,-21
4336,-24
4337,-34
4338,-47
4339,-64
4340,-81
4341,-103
4342,-111
4343,-118
4344,-122
4345,-124
4346,-118
4347,-105
4348,-90
4349,-66
4350,-40
4351,-16
4352,12
4353,39
4354,44
4355,22
4356,-15
4357,-66
4358,-120
4359,-169
4360,-202
4361,-211
4362,-199
4363,-179
4364,-147
4365,-111
4366,-85
4367,-56
4368,-10
4369,54
4370,130
4371,220
4372,316
4373,413
4374,503
4375,575
4376,670
4377,692
4378,695
4379,677
4380,646
4381,603
4382,542
4383,460
4384,460
4385,366
4386,258
4387,131
4388,2
4389,-113
4390,-212
4391,-278
4392,-307
4393,-294
4394,-248
4395,-196
4396,-156
4397,-138
4398,-142
4399,-171
4400,-204
4401,-236
4402,-253
4403,-253
4404,-242
4405,-220
4406,-188
4407,-155
4408,-124
4409,-100
4410,-86
4411,-100
4412,-127
4413,-157
4414,-184
4415,-203
4416,-206
4417,-199
4418,-185
4419,-167
4420,-152
4421,-143
4422,-140
4423,-139
4424,-140
4425,-141
4426,-145
4427,-148
4428,-146
4429,-140
4430,-129
4431,-107
4432,-74
4433,-46
4434,-21
4435,0
4436,6
4437,-10
4438,-35
4439,-68
4440,-95
4441,-108
4442,-115
4443,-107
4444,-93
4445,-114
4446,-133
4447,-161
4448,-182
4449,-182
4450,-167
4451,-137
4452,-101
4453,-75
4454,-54
4455,-42
4456,-44
4457,-51
4458,-55
4459,-58
4460,-58
4461,-62
4462,-70
4463,-79
4464,-92
4465,-107
4466,-113
4467,-109
4468,-96
4469,-69
4470,-30
4471,0
4472,15
4473,15
4474,1
4475,-20
4476,-38
4477,-52
4478,-53
4479,-23
4480,-5
4481,3
4482,-3
4483,-14
4484,-19
4485,-15
4486,0
4487,28
4488,55
4489,72
4490,79
4491,71
4492,50
4493,22
4494,1
4495,-3
4496,-2
4497,1
4498,4
4499,2
4500,-7
4501,-21
4502,-30
4503,-32
4504,-22
4505,-1
4506,21
4507,46
4508,62
4509,64
4510,54
4511,33
4512,4
4513,-28
4514,-96
4515,-114
4516,-117
4517,-110
4518,-91
4519,-65
4520,-48
4521,-44
4522,-45
4523,-56
4524,-67
4525,-80
4526,-80
4527,-93
4528,-94
4529,-91
4530,-99
4531,-113
4532,-131
4533,-152
4534,-174
4535,-192
4536,-204
4537,-210
4538,-214
4539,-216
4540,-210
4541,-201
4542,-193
4543,-186
4544,-180
4545,-179
4546,-186
4547,-201
4548,-214
4549,-217
4550,-205
4551,-189
4552,-169
4553,-149
4554,-136
4555,-133
4556,-134
4557,-133
4558,-123
4559,-105
4560,-74
4561,-32
4562,-6
4563,-8
4564,-29
4565,-65
4566,-106
4567,-139
4568,-157
4569,-154
4570,-141
4571,-134
4572,-139
4573,-156
4574,-192
4575,-230
4576,-249
4577,-250
4578,-236
4579,-212
4580,-190
4581,-173
4582,-153
4583,-150
4584,-147
4585,-142
4586,-133
4587,-122
4588,-113
4589,-104
4590,-99
4591,-100
4592,-104
4593,-108
4594,-112
4595,-114
4596,-111
4597,-107
4598,-101
4599,-93
4600,-83
4601,-79
4602,-80
4603,-85
4604,-93
4605,-96
4606,-87
4607,-80
4608,-80
4609,-89
4610,-107
4611,-133
4612,-161
4613,-187
4614,-203
4615,-204
4616,-167
4617,-128
4618,-87
4619,-45
4620,0
4621,37
4622,56
4623,48
4624,14
4625,-34
4626,-85
4627,-127
4628,-157
4629,-173
4630,-175
4631,-169
4632,-163
4633,-156
4634,-144
4635,-128
4636,-107
4637,-83
4638,-61
4639,-50
4640,-51
4641,-60
4642,-77
4643,-98
4644,-111
4645,-111
4646,-95
4647,-57
4648,-9
4649,25
4650,26
4651,-8
4652,-56
4653,-107
4654,-144
4655,-157
4656,-155
4657,-143
4658,-124
4659,-109
4660,-103
4661,-93
4662,-78
4663,-64
4664,-52
4665,-49
4666,-54
4667,-67
4668,-83
4669,-83
4670,-96
4671,-100
4672,-96
4673,-86
4674,-71
4675,-54
4676,-41
4677,-28
4678,-20
4679,-15
4680,-13
4681,-17
4682,-24
4683,-26
4684,-31
4685,-37
4686,-42
4687,-48
4688,-49
4689,-46
4690,-41
4691,-34
4692,-28
4693,-25
4694,-29
4695,-44
4696,-65
4697,-84
4698,-91
4699,-83
4700,-54
4701,-8
4702,35
4703,60
4704,66
4705,52
4706,22
4707,-12
4708,-48
4709,-75
4710,-84
4711,-88
4712,-91
4713,-90
4714,-91
4715,-97
4716,-98
4717,-92
4718,-82
4719,-71
4720,-61
4721,-52
4722,-39
4723,-29
4724,-16
4725,-2
4726,6
4727,11
4728,13
4729,13
4730,16
4731,17
4732,10
4733,0
4734,-11
4735,-24
4736,-33
4737,-32
4738,-24
4739,-4
4740,21
4741,38
4742,45
4743,44
4744,34
4745,12
4746,-19
4747,-50
4748,-78
4749,-104
4750,-124
4751,-133
4752,-132
4753,-129
4754,-116
4755,-107
4756,-108
4757,-113
4758,-110
4759,-104
4760,-98
4761,-95
4762,-92
4763,-86
4764,-81
4765,-77
4766,-65
4767,-45
4768,-15
4769,26
4770,79
4771,139
4772,207
4773,279
4774,357
4775,441
4776,524
4777,605
4778,688
4779,766
4780,834
4781,894
4782,933
4783,923
4784,858
4785,738
4786,571
4787,375
4788,-14
4789,-151
4790,-239
4791,-281
4792,-284
4793,-265
4794,-246
4795,-230
4796,-210
4797,-191
4798,-176
4799,-166
4800,-153
4801,-135
4802,-115
4803,-92
4804,-72
4805,-64
4806,-68
4807,-82
4808,-102
4809,-120
4810,-128
4811,-128
4812,-126
4813,-122
4814,-121
4815,-121
4816,-124
4817,-129
4818,-131
4819,-126
4820,-119
4821,-114
4822,-125
4823,-140
4824,-159
4825,-173
4826,-173
4827,-168
4828,-162
4829,-155
4830,-149
4831,-141
4832,-124
4833,-93
4834,-51
4835,-12
4836,4
4837,-1
4838,-26
4839,-65
4840,-108
4841,-143
4842,-158
4843,-151
4844,-130
4845,-104
4846,-74
4847,-56
4848,-53
4849,-52
4850,-47
4851,-44
4852,-38
4853,-31
4854,-24
4855,-17
4856,-22
4857,-36
4858,-53
4859,-74
4860,-89
4861,-99
4862,-102
4863,-93
4864,-73
4865,-45
4866,-15
4867,9
4868,19
4869,18
4870,12
4871,4
4872,-1
4873,3
4874,23
4875,50
4876,70
4877,80
4878,71
4879,52
4880,31
4881,18
4882,22
4883,46
4884,71
4885,89
4886,99
4887,93
4888,74
4889,57
4890,46
4891,53
4892,61
4893,67
4894,70
4895,62
4896,46
4897,36
4898,34
4899,36
4900,46
4901,63
4902,82
4903,95
4904,94
4905,80
4906,56
4907,25
4908,-4
4909,-26
4910,-38
4911,-42
4912,-40
4913,-36
4914,-35
4915,-44
4916,-57
4917,-67
4918,-74
4919,-77
4920,-68
4921,-51
4922,-24
4923,11
4924,56
4925,48
4926,14
4927,-43
4928,-110
4929,-175
4930,-224
4931,-249
4932,-251
4933,-234
4934,-204
4935,-178
4936,-161
4937,-142
4938,-124
4939,-110
4940,-99
4941,-94
4942,-97
4943,-111
4944,-133
4945,-159
4946,-183
4947,-202
4948,-209
4949,-199
4950,-186
4951,-173
4952,-162
4953,-162
4954,-159
4955,-162
4956,-167
4957,-172
4958,-172
4959,-152
4960,-131
4961,-105
4962,-80
4963,-59
4964,-45
4965,-48
4966,-62
4967,-84
4968,-104
4969,-115
4970,-108
4971,-87
4972,-69
4973,-62
4974,-67
4975,-90
4976,-133
4977,-181
4978,-218
4979,-238
4980,-236
4981,-217
4982,-183
4983,-150
4984,-132
4985,-124
4986,-120
4987,-124
4988,-132
4989,-134
4990,-126
4991,-108
4992,-90
4993,-79
4994,-88
4995,-105
4996,-121
4997,-132
4998,-133
4999,-125
5000,-112
5001,-98
5002,-87
5003,-84
5004,-83
5005,-79
5006,-68
5007,-50
5008,-34
5009,-27
5010,-29
5011,-40
5012,-58
5013,-80
5014,-99
5015,-111
5016,-113
5017,-113
5018,-109
5019,-102
5020,-91
5021,-79
5022,-56
5023,-28
5024,-11
5025,-13
5026,-31
5027,-60
5028,-121
5029,-134
5030,-128
5031,-106
5032,-80
5033,-50
5034,-24
5035,-9
5036,0
5037,0
5038,-12
5039,-34
5040,-64
5041,-98
5042,-126
5043,-144
5044,-152
5045,-149
5046,-139
5047,-126
5048,-107
5049,-87
5050,-56
5051,-25
5052,-5
5053,7
5054,9
5055,-8
5056,-39
5057,-71
5058,-99
5059,-121
5060,-131
5061,-112
5062,-94
5063,-78
5064,-66
5065,-64
5066,-75
5067,-97
5068,-120
5069,-141
5070,-158
5071,-160
5072,-152
5073,-140
5074,-117
5075,-92
5076,-69
5077,-42
5078,-13
5079,3
5080,4
5081,-13
5082,-43
5083,-76
5084,-106
5085,-126
5086,-132
5087,-126
5088,-112
5089,-97
5090,-83
5091,-76
5092,-76
5093,-77
5094,-80
5095,-80
5096,-80
5097,-95
5098,-93
5099,-83
5100,-60
5101,-27
5102,12
5103,56
5104,89
5105,97
5106,79
5107,35
5108,-27
5109,-94
5110,-153
5111,-195
5112,-212
5113,-206
5114,-180
5115,-139
5116,-96
5117,-59
5118,-32
5119,-21
5120,-26
5121,-44
5122,-72
5123,-103
5124,-127
5125,-140
5126,-140
5127,-128
5128,-117
5129,-108
5130,-96
5131,-74
5132,17
5133,77
5134,128
5135,147
5136,124
5137,66
5138,-8
5139,-86
5140,-146
5141,-169
5142,-158
5143,-134
5144,-110
5145,-92
5146,-91
5147,-110
5148,-128
5149,-128
5150,-111
5151,-78
5152,-32
5153,7
5154,21
5155,11
5156,-15
5157,-51
5158,-86
5159,-113
5160,-123
5161,-117
5162,-106
5163,-97
5164,-89
5165,-104
5166,-109
5167,-111
5168,-110
5169,-105
5170,-102
5171,-102
5172,-100
5173,-96
5174,-86
5175,-72
5176,-54
5177,-34
5178,-16
5179,-4
5180,2
5181,1
5182,-2
5183,-7
5184,-13
5185,-20
5186,-22
5187,-23
5188,-18
5189,-4
5190,21
5191,62
5192,111
5193,168
5194,232
5195,306
5196,384
5197,465
5198,553
5199,713
5200,770
5201,795
5202,779
5203,725
5204,639
5205,532
5206,424
5207,325
5208,219
5209,113
5210,12
5211,-81
5212,-160
5213,-223
5214,-264
5215,-273
5216,-258
5217,-230
5218,-195
5219,-170
5220,-164
5221,-169
5222,-165
5223,-153
5224,-127
5225,-94
5226,-65
5227,-50
5228,-56
5229,-86
5230,-130
5231,-178
5232,-218
5233,-235
5234,-212
5235,-177
5236,-140
5237,-110
5238,-110
5239,-91
5240,-84
5241,-90
5242,-108
5243,-135
5244,-167
5245,-193
5246,-207
5247,-206
5248,-187
5249,-158
5250,-125
5251,-100
5252,-90
5253,-91
5254,-97
5255,-103
5256,-101
5257,-87
5258,-77
5259,-73
5260,-79
5261,-93
5262,-112
5263,-130
5264,-139
5265,-132
5266,-117
5267,-100
5268,-87
5269,-88
5270,-102
5271,-107
5272,-104
5273,-95
5274,-85
5275,-72
5276,-63
5277,-53
5278,-41
5279,-19
5280,7
5281,26
5282,30
5283,23
5284,6
5285,-20
5286,-49
5287,-70
5288,-80
5289,-75
5290,-61
5291,-48
5292,-34
5293,-20
5294,-6
5295,13
5296,45
5297,75
5298,86
5299,80
5300,56
5301,22
5302,-14
5303,-66
5304,-61
5305,-43
5306,-14
5307,19
5308,43
5309,48
5310,47
5311,45
5312,40
5313,40
5314,48
5315,64
5316,78
5317,89
5318,92
5319,84
5320,67
5321,48
5322,33
5323,21
5324,13
5325,7
5326,1
5327,-7
5328,-20
5329,-32
5330,-37
5331,-34
5332,-23
5333,-7
5334,9
5335,19
5336,16
5337,1
5338,-31
5339,-37
5340,-27
5341,-2
5342,17
5343,13
5344,-11
5345,-56
5346,-115
5347,-177
5348,-225
5349,-246
5350,-239
5351,-216
5352,-178
5353,-134
5354,-104
5355,-87
5356,-76
5357,-77
5358,-94
5359,-122
5360,-157
5361,-190
5362,-217
5363,-233
5364,-236
5365,-230
5366,-220
5367,-206
5368,-196
5369,-190
5370,-186
5371,-186
5372,-186
5373,-176
5374,-165
5375,-152
5376,-136
5377,-124
5378,-118
5379,-117
5380,-117
5381,-117
5382,-127
5383,-144
5384,-157
5385,-165
5386,-166
5387,-155
5388,-138
5389,-127
5390,-126
5391,-133
5392,-147
5393,-165
5394,-188
5395,-205
5396,-205
5397,-200
5398,-192
5399,-172
5400,-151
5401,-134
5402,-112
5403,-86
5404,-69
5405,-64
5406,-73
5407,-91
5408,-117
5409,-167
5410,-175
5411,-168
5412,-151
5413,-135
5414,-116
5415,-103
5416,-104
5417,-113
5418,-122
5419,-136
5420,-149
5421,-156
5422,-159
5423,-158
5424,-157
5425,-162
5426,-167
5427,-169
5428,-167
5429,-156
5430,-138
5431,-121
5432,-99
5433,-74
5434,-58
5435,-51
5436,-43
5437,-48
5438,-68
5439,-96
5440,-128
5441,-155
5442,-177
5443,-185
5444,-167
5445,-151
5446,-132
5447,-114
5448,-112
5449,-118
5450,-121
5451,-123
5452,-121
5453,-121
5454,-124
5455,-126
5456,-128
5457,-128
5458,-119
5459,-104
5460,-87
5461,-70
5462,-57
5463,-56
5464,-63
5465,-82
5466,-105
5467,-128
5468,-147
5469,-162
5470,-175
5471,-179
5472,-170
5473,-148
5474,-116
5475,-78
5476,-50
5477,-43
5478,-82
5479,-114
5480,-144
5481,-169
5482,-179
5483,-175
5484,-167
5485,-160
5486,-157
5487,-159
5488,-163
5489,-161
5490,-152
5491,-141
5492,-133
5493,-125
5494,-118
5495,-112
5496,-110
5497,-107
5498,-101
5499,-91
5500,-79
5501,-69
5502,-61
5503,-58
5504,-55
5505,-50
5506,-44
5507,-33
5508,-19
5509,-6
5510,0
5511,-6
5512,-24
5513,-85
5514,-116
5515,-142
5516,-153
5517,-153
5518,-137
5519,-109
5520,-79
5521,-58
5522,-58
5523,-45
5524,-39
5525,-44
5526,-47
5527,-45
5528,-48
5529,-56
5530,-60
5531,-68
5532,-81
5533,-97
5534,-109
5535,-109
5536,-102
5537,-96
5538,-83
5539,-76
5540,-85
5541,-94
5542,-95
5543,-94
5544,-92
5545,-90
5546,-90
5547,-90
5548,-90
5549,-98
5550,-94
5551,-84
5552,-67
5553,-45
5554,-23
5555,-9
5556,-7
5557,-16
5558,-30
5559,-48
5560,-68
5561,-88
5562,-102
5563,-109
5564,-118
5565,-121
5566,-115
5567,-104
5568,-88
5569,-61
5570,-30
5571,-14
5572,-13
5573,-27
5574,-51
5575,-79
5576,-106
5577,-125
5578,-129
5579,-120
5580,-103
5581,-77
5582,-49
5583,-19
5584,-11
5585,-6
5586,-9
5587,-17
5588,-26
5589,-32
5590,-36
5591,-44
5592,-56
5593,-65
5594,-70
5595,-67
5596,-53
5597,-29
5598,-7
5599,9
5600,14
5601,5
5602,-12
5603,-43
5604,-80
5605,-106
5606,-124
5607,-132
5608,-136
5609,-135
5610,-131
5611,-127
5612,-124
5613,-115
5614,-95
5615,-73
5616,-43
5617,-9
5618,19
5619,7
5620,-20
5621,-54
5622,-84
5623,-105
5624,-110
5625,-103
5626,-92
5627,-74
5628,-53
5629,-32
5630,2
5631,55
5632,122
5633,201
5634,290
5635,388
5636,490
5637,584
5638,669
5639,739
5640,787
5641,804
5642,795
5643,758
5644,690
5645,592
5646,475
5647,346
5648,213
5649,83
5650,-23
5651,-94
5652,-135
5653,-121
5654,-104
5655,-98
5656,-106
5657,-125
5658,-151
5659,-179
5660,-199
5661,-209
5662,-208
5663,-202
5664,-202
5665,-191
5666,-175
5667,-157
5668,-133
5669,-104
5670,-78
5671,-69
5672,-77
5673,-95
5674,-124
5675,-157
5676,-187
5677,-206
5678,-208
5679,-201
5680,-187
5681,-168
5682,-147
5683,-132
5684,-112
5685,-84
5686,-39
5687,-40
5688,-53
5689,-72
5690,-93
5691,-107
5692,-97
5693,-76
5694,-61
5695,-42
5696,-22
5697,-9
5698,2
5699,10
5700,5
5701,-16
5702,-55
5703,-111
5704,-170
5705,-227
5706,-270
5707,-280
5708,-257
5709,-224
5710,-186
5711,-156
5712,-145
5713,-142
5714,-130
5715,-113
5716,-90
5717,-61
5718,-37
5719,-26
5720,-25
5721,-32
5722,-63
5723,-64
5724,-50
5725,-20
5726,15
5727,46
5728,67
5729,72
5730,54
5731,24
5732,-6
5733,-33
5734,-47
5735,-43
5736,-24
5737,-2
5738,13
5739,22
5740,23
5741,17
5742,1
5743,-15
5744,-18
5745,-9
5746,10
5747,38
5748,68
5749,90
5750,94
5751,85
5752,66
5753,47
5754,31
5755,23
5756,48
5757,66
5758,76
5759,81
5760,76
5761,60
5762,41
5763,32
5764,38
5765,49
5766,56
5767,62
5768,66
5769,56
5770,33
5771,6
5772,-10
5773,-15
5774,-7
5775,20
5776,60
5777,81
5778,74
5779,47
5780,-1
5781,-61
5782,-123
5783,-168
5784,-187
5785,-185
5786,-175
5787,-153
5788,-128
5789,-112
5790,-96
5791,-73
5792,-78
5793,-95
5794,-117
5795,-140
5796,-163
5797,-180
5798,-186
5799,-184
5800,-182
5801,-180
5802,-183
5803,-190
5804,-198
5805,-203
5806,-199
5807,-199
5808,-189
5809,-178
5810,-162
5811,-141
5812,-120
5813,-100
5814,-84
5815,-80
5816,-91
5817,-113
5818,-142
5819,-176
5820,-205
5821,-218
5822,-208
5823,-181
5824,-135
5825,-41
5826,-23
5827,-30
5828,-60
5829,-103
5830,-151
5831,-190
5832,-209
5833,-211
5834,-200
5835,-177
5836,-156
5837,-147
5838,-145
5839,-143
5840,-144
5841,-141
5842,-132
5843,-120
5844,-105
5845,-93
5846,-87
5847,-87
5848,-93
5849,-104
5850,-114
5851,-121
5852,-122
5853,-120
5854,-118
5855,-119
5856,-120
5857,-123
5858,-126
5859,-129
5860,-127
5861,-124
5862,-120
5863,-114
5864,-110
5865,-108
5866,-104
5867,-100
5868,-97
5869,-96
5870,-95
5871,-93
5872,-91
5873,-89
5874,-88
5875,-86
5876,-88
5877,-92
5878,-98
5879,-105
5880,-111
5881,-114
5882,-113
5883,-110
5884,-107
5885,-104
5886,-102
5887,-101
5888,-103
5889,-104
5890,-105
5891,-104
5892,-102
5893,-99
5894,-98
5895,-93
5896,-93
5897,-93
5898,-93
5899,-95
5900,-98
5901,-99
5902,-99
5903,-95
5904,-87
5905,-81
5906,-81
5907,-86
5908,-93
5909,-101
5910,-103
5911,-94
5912,-72
5913,-50
5914,-32
5915,-17
5916,-12
5917,-23
5918,-50
5919,-82
5920,-113
5921,-143
5922,-165
5923,-173
5924,-166
5925,-151
5926,-129
5927,-98
5928,-68
5929,-56
5930,-77
5931,-99
5932,-121
5933,-138
5934,-149
5935,-156
5936,-160
5937,-164
5938,-164
5939,-159
5940,-154
5941,-145
5942,-122
5943,-95
5944,-76
5945,-69
5946,-72
5947,-86
5948,-107
5949,-107
5950,-131
5951,-146
5952,-147
5953,-134
5954,-105
5955,-59
5956,-19
5957,-1
5958,-6
5959,-27
5960,-60
5961,-102
5962,-143
5963,-169
5964,-174
5965,-148
5966,-121
5967,-102
5968,-97
5969,-102
5970,-113
5971,-135
5972,-159
5973,-179
5974,-186
5975,-179
5976,-157
5977,-129
5978,-103
5979,-86
5980,-78
5981,-83
5982,-96
5983,-109
5984,-121
5985,-130
5986,-134
5987,-132
5988,-123
5989,-112
5990,-102
5991,-88
5992,-72
5993,-61
5994,-58
5995,-60
5996,-68
5997,-78
5998,-88
5999,-90
6000,-82
6001,-74
6002,-69
6003,-69
6004,-74
6005,-84
6006,-93
6007,-92
6008,-77
6009,-53
6010,-19
6011,12
6012,29
6013,22
6014,-5
6015,-48
6016,-94
6017,-135
6018,-166
6019,-181
6020,-184
6021,-177
6022,-162
6023,-143
6024,-126
6025,-106
6026,-84
6027,-66
6028,-60
6029,-72
6030,-97
6031,-129
6032,-158
6033,-176
6034,-179
6035,-167
6036,-153
6037,-142
6038,-132
6039,-127
6040,-123
6041,-118
6042,-115
6043,-109
6044,-101
6045,-85
6046,-59
6047,-20
6048,29
6049,93
6050,163
6051,239
6052,321
6053,408
6054,493
6055,579
6056,657
6057,716
6058,748
6059,748
6060,714
6061,641
6062,532
6063,401
6064,263
6065,130
6066,13
6067,-79
6068,-181
6069,-197
6070,-198
6071,-193
6072,-186
6073,-182
6074,-178
6075,-175
6076,-174
6077,-175
6078,-176
6079,-176
6080,-174
6081,-173
6082,-172
6083,-172
6084,-170
6085,-169
6086,-169
6087,-168
6088,-166
6089,-162
6090,-157
6091,-157
6092,-150
6093,-143
6094,-136
6095,-128
6096,-121
6097,-115
6098,-112
6099,-113
6100,-119
6101,-131
6102,-146
6103,-176
6104,-191
6105,-197
6106,-191
6107,-172
6108,-144
6109,-107
6110,-72
6111,-55
6112,-53
6113,-58
6114,-70
6115,-90
6116,-112
6117,-127
6118,-133
6119,-133
6120,-121
6121,-99
6122,-78
6123,-58
6124,-42
6125,-40
6126,-59
6127,-94
6128,-134
6129,-168
6130,-188
6131,-191
6132,-175
6133,-151
6134,-127
6135,-95
6136,-61
6137,-35
6138,-39
6139,-58
6140,-90
6141,-128
6142,-162
6143,-185
6144,-194
6145,-184
6146,-163
6147,-135
6148,-112
6149,-97
6150,-86
6151,-76
6152,-66
6153,-56
6154,-49
6155,-44
6156,-37
6157,-26
6158,-11
6159,13
6160,48
6161,86
6162,119
6163,138
6164,142
6165,124
6166,84
6167,38
6168,-1
6169,-29
6170,-38
6171,-20
6172,42
6173,62
6174,73
6175,70
6176,51
6177,22
6178,0
6179,-13
6180,-19
6181,-17
6182,-2
6183,16
6184,30
6185,45
6186,65
6187,74
6188,65
6189,46
6190,20
6191,-14
6192,-56
6193,-97
6194,-126
6195,-144
6196,-154
6197,-156
6198,-150
6199,-147
6200,-148
6201,-145
6202,-141
6203,-136
6204,-124
6205,-100
6206,-94
6207,-94
6208,-101
6209,-117
6210,-138
6211,-157
6212,-174
6213,-186
6214,-191
6215,-189
6216,-186
6217,-185
6218,-184
6219,-179
6220,-174
6221,-172
6222,-168
6223,-162
6224,-158
6225,-155
6226,-155
6227,-161
6228,-170
6229,-180
6230,-187
6231,-192
6232,-194
6233,-194
6234,-192
6235,-189
6236,-184
6237,-179
6238,-175
6239,-172
6240,-160
6241,-147
6242,-132
6243,-119
6244,-108
6245,-100
6246,-97
6247,-99
6248,-99
6249,-101
6250,-107
6251,-111
6252,-114
6253,-117
6254,-116
6255,-113
6256,-110
6257,-108
6258,-114
6259,-126
6260,-135
6261,-138
6262,-134
6263,-109
6264,-66
6265,-26
6266,-1
6267,4
6268,-17
6269,-62
6270,-119
6271,-169
6272,-198
6273,-205
6274,-165
6275,-136
6276,-120
6277,-114
6278,-114
6279,-115
6280,-120
6281,-123
6282,-118
6283,-110
6284,-99
6285,-87
6286,-84
6287,-91
6288,-102
6289,-112
6290,-123
6291,-128
6292,-129
6293,-127
6294,-126
6295,-125
6296,-119
6297,-111
6298,-99
6299,-84
6300,-76
6301,-77
6302,-87
6303,-110
6304,-139
6305,-163
6306,-179
6307,-165
6308,-145
6309,-124
6310,-110
6311,-111
6312,-111
6313,-104
6314,-95
6315,-84
6316,-72
6317,-66
6318,-67
6319,-79
6320,-100
6321,-123
6322,-142
6323,-155
6324,-157
6325,-151
6326,-140
6327,-123
6328,-108
6329,-99
6330,-93
6331,-90
6332,-87
6333,-80
6334,-67
6335,-52
6336,-45
6337,-43
6338,-47
6339,-58
6340,-73
6341,-106
6342,-115
6343,-113
6344,-99
6345,-71
6346,-30
6347,12
6348,40
6349,44
6350,23
6351,-16
6352,-70
6353,-124
6354,-163
6355,-179
6356,-178
6357,-168
6358,-152
6359,-137
6360,-133
6361,-132
6362,-125
6363,-116
6364,-106
6365,-98
6366,-93
6367,-87
6368,-80
6369,-74
6370,-68
6371,-63
6372,-60
6373,-61
6374,-61
6375,-58
6376,-54
6377,-56
6378,-60
6379,-62
6380,-66
6381,-71
6382,-65
6383,-50
6384,-25
6385,8
6386,37
6387,46
6388,32
6389,-1
6390,-50
6391,-100
6392,-145
6393,-174
6394,-179
6395,-169
6396,-149
6397,-122
6398,-99
6399,-85
6400,-72
6401,-63
6402,-58
6403,-58
6404,-61
6405,-63
6406,-65
6407,-66
6408,-63
6409,-51
6410,-42
6411,-36
6412,-35
6413,-34
6414,-35
6415,-40
6416,-43
6417,-44
6418,-44
6419,-40
6420,-33
6421,-20
6422,-1
6423,10
6424,16
6425,14
6426,4
6427,-13
6428,-32
6429,-50
6430,-60
6431,-58
6432,-44
6433,-14
6434,22
6435,42
6436,41
6437,23
6438,-14
6439,-64
6440,-114
6441,-158
6442,-182
6443,-165
6444,-137
6445,-103
6446,-80
6447,-68
6448,-60
6449,-60
6450,-67
6451,-75
6452,-83
6453,-83
6454,-69
6455,-43
6456,-14
6457,9
6458,26
6459,33
6460,37
6461,45
6462,63
6463,102
6464,160
6465,231
6466,320
6467,417
6468,512
6469,601
6470,683
6471,749
6472,789
6473,798
6474,776
6475,719
6476,620
6477,489
6478,213
6479,90
6480,-3
6481,-62
6482,-93
6483,-106
6484,-113
6485,-119
6486,-132
6487,-152
6488,-173
6489,-186
6490,-188
6491,-185
6492,-181
6493,-178
6494,-175
6495,-170
6496,-159
6497,-138
6498,-103
6499,-70
6500,-54
6501,-50
6502,-59
6503,-85
6504,-115
6505,-145
6506,-165
6507,-177
6508,-184
6509,-191
6510,-194
6511,-200
6512,-204
6513,-195
6514,-187
6515,-175
6516,-164
6517,-157
6518,-157
6519,-153
6520,-152
6521,-148
6522,-136
6523,-114
6524,-85
6525,-50
6526,-18
6527,-1
6528,-2
6529,-20
6530,-49
6531,-79
6532,-104
6533,-117
6534,-122
6535,-121
6536,-121
6537,-120
6538,-125
6539,-136
6540,-140
6541,-127
6542,-103
6543,-68
6544,-24
6545,8
6546,14
6547,1
6548,-67
6549,-104
6550,-131
6551,-132
6552,-105
6553,-68
6554,-34
6555,-5
6556,2
6557,-12
6558,-27
6559,-43
6560,-56
6561,-63
6562,-65
6563,-61
6564,-51
6565,-45
6566,-41
6567,-35
6568,-29
6569,-22
6570,-11
6571,-3
6572,5
6573,15
6574,26
6575,39
6576,48
6577,50
6578,47
6579,44
6580,42
6581,43
6582,46
6583,54
6584,68
6585,90
6586,124
6587,160
6588,182
6589,186
6590,172
6591,136
6592,85
6593,29
6594,-17
6595,-40
6596,-42
6597,-32
6598,-10
6599,9
6600,14
6601,10
6602,6
6603,1
6604,-5
6605,-10
6606,-12
6607,-10
6608,-4
6609,-1
6610,2
6611,2
6612,-6
6613,-20
6614,-41
6615,-67
6616,-119
6617,-138
6618,-145
6619,-146
6620,-146
6621,-140
6622,-133
6623,-127
6624,-122
6625,-122
6626,-127
6627,-131
6628,-135
6629,-138
6630,-136
6631,-135
6632,-137
6633,-141
6634,-145
6635,-144
6636,-134
6637,-114
6638,-76
6639,-34
6640,-10
6641,-6
6642,-28
6643,-75
6644,-132
6645,-185
6646,-219
6647,-229
6648,-221
6649,-202
6650,-178
6651,-166
6652,-170
6653,-173
6654,-173
6655,-166
6656,-154
6657,-139
6658,-125
6659,-114
6660,-114
6661,-107
6662,-108
6663,-111
6664,-112
6665,-109
6666,-101
6667,-90
6668,-81
6669,-77
6670,-81
6671,-91
6672,-104
6673,-116
6674,-125
6675,-126
6676,-116
6677,-105
6678,-95
6679,-84
6680,-71
6681,-55
6682,-31
6683,-1
6684,26
6685,26
6686,-4
6687,-46
6688,-90
6689,-127
6690,-146
6691,-141
6692,-120
6693,-96
6694,-81
6695,-78
6696,-90
6697,-106
6698,-117
6699,-120
6700,-113
6701,-107
6702,-103
6703,-101
6704,-100
6705,-105
6706,-111
6707,-112
6708,-104
6709,-95
6710,-89
6711,-85
6712,-87
6713,-92
6714,-97
6715,-100
6716,-100
6717,-97
6718,-94
6719,-86
6720,-84
6721,-83
6722,-77
6723,-70
6724,-66
6725,-65
6726,-66
6727,-65
6728,-63
6729,-51
6730,-31
6731,-11
6732,6
6733,21
6734,20
6735,-3
6736,-36
6737,-76
6738,-113
6739,-138
6740,-153
6741,-154
6742,-141
6743,-125
6744,-105
6745,-82
6746,-67
6747,-59
6748,-51
6749,-49
6750,-52
6751,-57
6752,-64
6753,-72
6754,-69
6755,-61
6756,-51
6757,-38
6758,-26
6759,-17
6760,-16
6761,-22
6762,-33
6763,-46
6764,-54
6765,-55
6766,-50
6767,-40
6768,-31
6769,-22
6770,-24
6771,-34
6772,-50
6773,-65
6774,-76
6775,-80
6776,-77
6777,-71
6778,-64
6779,-61
6780,-64
6781,-65
6782,-67
6783,-66
6784,-52
6785,-32
6786,-23
6787,-23
6788,-53
6789,-76
6790,-102
6791,-125
6792,-135
6793,-131
6794,-117
6795,-92
6796,-61
6797,-37
6798,-21
6799,-14
6800,-19
6801,-33
6802,-33
6803,-51
6804,-66
6805,-72
6806,-68
6807,-60
6808,-52
6809,-50
6810,-58
6811,-77
6812,-101
6813,-120
6814,-127
6815,-122
6816,-105
6817,-82
6818,-62
6819,-50
6820,-42
6821,-46
6822,-71
6823,-80
6824,-83
6825,-79
6826,-73
6827,-66
6828,-65
6829,-72
6830,-76
6831,-67
6832,-50
6833,-19
6834,21
6835,54
6836,62
6837,43
6838,2
6839,-49
6840,-101
6841,-140
6842,-157
6843,-153
6844,-139
6845,-121
6846,-106
6847,-104
6848,-111
6849,-115
6850,-118
6851,-115
6852,-109
6853,-104
6854,-99
6855,-93
6856,-88
6857,-74
6858,-72
6859,-69
6860,-68
6861,-70
6862,-74
6863,-77
6864,-76
6865,-71
6866,-66
6867,-64
6868,-63
6869,-67
6870,-80
6871,-90
6872,-97
6873,-99
6874,-91
6875,-70
6876,-37
6877,4
6878,55
6879,112
6880,177
6881,249
6882,333
6883,423
6884,512
6885,599
6886,676
6887,733
6888,762
6889,763
6890,668
6891,567
6892,443
6893,313
6894,180
6895,53
6896,-50
6897,-127
6898,-179
6899,-209
6900,-223
6901,-223
6902,-215
6903,-200
6904,-172
6905,-136
6906,-105
6907,-90
6908,-87
6909,-97
6910,-113
6911,-126
6912,-140
6913,-146
6914,-147
6915,-154
6916,-171
6917,-192
6918,-214
6919,-231
6920,-233
6921,-222
6922,-200
6923,-175
6924,-180
6925,-190
6926,-202
6927,-208
6928,-205
6929,-192
6930,-176
6931,-162
6932,-156
6933,-154
6934,-158
6935,-165
6936,-169
6937,-171
6938,-170
6939,-169
6940,-160
6941,-141
6942,-109
6943,-60
6944,-60
6945,-3
6946,42
6947,59
6948,44
6949,0
6950,-61
6951,-128
6952,-184
6953,-215
6954,-223
6955,-209
6956,-178
6957,-146
6958,-110
6959,-102
6960,-93
6961,-82
6962,-75
6963,-72
6964,-67
6965,-62
6966,-58
6967,-58
6968,-64
6969,-72
6970,-82
6971,-89
6972,-87
6973,-78
6974,-65
6975,-52
6976,-37
6977,-21
6978,-7
6979,7
6980,22
6981,31
6982,37
6983,38
6984,33
6985,23
6986,10
6987,0
6988,-6
6989,-5
6990,3
6991,20
6992,41
6993,86
6994,106
6995,121
6996,136
6997,143
6998,132
6999,111
7000,82
7001,47
7002,16
7003,-3
7004,-10
7005,0
7006,17
7007,39
7008,63
7009,75
7010,69
7011,57
7012,45
7013,35
7014,27
7015,25
7016,26
7017,26
7018,22
7019,18
7020,14
7021,13
7022,18
7023,22
7024,21
7025,13
7026,-4
7027,-61
7028,-87
7029,-105
7030,-112
7031,-109
7032,-103
7033,-101
7034,-106
7035,-116
7036,-127
7037,-133
7038,-133
7039,-128
7040,-115
7041,-97
7042,-82
7043,-75
7044,-80
7045,-95
7046,-118
7047,-142
7048,-164
7049,-174
7050,-172
7051,-166
7052,-161
7053,-153
7054,-146
7055,-141
7056,-132
7057,-113
7058,-97
7059,-90
7060,-90
7061,-100
7062,-151
7063,-178
7064,-196
7065,-202
7066,-203
7067,-200
7068,-190
7069,-184
7070,-177
7071,-164
7072,-148
7073,-137
7074,-131
7075,-129
7076,-132
7077,-135
7078,-129
7079,-124
7080,-117
7081,-106
7082,-94
7083,-87
7084,-88
7085,-95
7086,-106
7087,-106
7088,-117
7089,-125
7090,-125
7091,-114
7092,-101
7093,-98
7094,-104
7095,-115
7096,-138
7097,-184
7098,-189
7099,-179
7100,-160
7101,-140
7102,-123
7103,-112
7104,-113
7105,-116
7106,-113
7107,-110
7108,-110
7109,-117
7110,-129
7111,-144
7112,-159
7113,-169
7114,-169
7115,-160
7116,-146
7117,-131
7118,-117
7119,-105
7120,-96
7121,-87
7122,-85
7123,-91
7124,-99
7125,-108
7126,-118
7127,-128
7128,-131
7129,-125
7130,-115
7131,-109
7132,-106
7133,-114
7134,-123
7135,-129
7136,-130
7137,-125
7138,-118
7139,-101
7140,-76
7141,-63
7142,-69
7143,-84
7144,-111
7145,-146
7146,-180
7147,-204
7148,-207
7149,-191
7150,-165
7151,-132
7152,-101
7153,-87
7154,-86
7155,-92
7156,-102
7157,-114
7158,-127
7159,-135
7160,-139
7161,-142
7162,-143
7163,-139
7164,-136
7165,-131
7166,-118
7167,-116
7168,-117
7169,-120
7170,-123
7171,-124
7172,-121
7173,-114
7174,-106
7175,-101
7176,-101
7177,-102
7178,-103
7179,-97
7180,-90
7181,-81
7182,-73
7183,-69
7184,-73
7185,-81
7186,-85
7187,-79
7188,-59
7189,-27
7190,11
7191,43
7192,50
7193,27
7194,-17
7195,-73
7196,-134
7197,-183
7198,-209
7199,-210
7200,-174
7201,-150
7202,-132
7203,-124
7204,-118
7205,-110
7206,-100
7207,-91
7208,-86
7209,-82
7210,-80
7211,-79
7212,-79
7213,-76
7214,-71
7215,-65
7216,-56
7217,-48
7218,-43
7219,-43
7220,-47
7221,-52
7222,-57
7223,-58
7224,-59
7225,-59
7226,-57
7227,-53
7228,-49
7229,-49
7230,-45
7231,-43
7232,-46
7233,-50
7234,-53
7235,-53
7236,-54
7237,-52
7238,-48
7239,-45
7240,-44
7241,-47
7242,-53
7243,-63
7244,-67
7245,-58
7246,-39
7247,-13
7248,18
7249,38
7250,37
7251,14
7252,-28
7253,-80
7254,-129
7255,-163
7256,-174
7257,-165
7258,-145
7259,-118
7260,-94
7261,-81
7262,-75
7263,-71
7264,-70
7265,-69
7266,-70
7267,-73
7268,-73
7269,-74
7270,-71
7271,-67
7272,-61
7273,-54
7274,-46
7275,-30
7276,-2
7277,35
7278,83
7279,144
7280,214
7281,292
7282,380
7283,470
7284,562
7285,653
7286,735
7287,799
7288,838
7289,835
7290,790
7291,706
7292,591
7293,455
7294,323
7295,207
7296,108
7297,25
7298,-39
7299,-90
7300,-135
7301,-176
7302,-207
7303,-228
7304,-238
7305,-226
7306,-206
7307,-189
7308,-179
7309,-168
7310,-158
7311,-153
7312,-149
7313,-146
7314,-141
7315,-141
7316,-142
7317,-144
7318,-146
7319,-146
7320,-142
7321,-131
7322,-113
7323,-92
7324,-72
7325,-64
7326,-70
7327,-88
7328,-114
7329,-143
7330,-166
7331,-183
7332,-189
7333,-186
7334,-179
7335,-167
7336,-154
7337,-147
7338,-135
7339,-132
7340,-129
7341,-127
7342,-124
7343,-122
7344,-119
7345,-114
7346,-108
7347,-103
7348,-98
7349,-93
7350,-89
7351,-84
7352,-79
7353,-76
7354,-73
7355,-70
7356,-67
7357,-65
7358,-63
7359,-56
7360,-42
7361,-24
7362,2
7363,31
7364,46
7365,46
7366,31
7367,4
7368,-28
7369,-59
7370,-81
7371,-84
7372,-84
7373,-59
7374,-36
7375,-15
7376,-1
7377,14
7378,28
7379,37
7380,41
7381,38
7382,33
7383,27
7384,23
7385,23
7386,26
7387,31
7388,40
7389,46
7390,49
7391,55
7392,62
7393,69
7394,77
7395,82
7396,85
7397,85
7398,83
7399,81
7400,82
7401,82
7402,85
7403,88
7404,91
7405,93
7406,93
7407,95
7408,94
7409,91
7410,90
7411,87
7412,84
7413,84
7414,81
7415,80
7416,80
7417,74
7418,67
7419,60
7420,49
7421,38
7422,31
7423,27
7424,24
7425,22
7426,14
7427,4
7428,-8
7429,-24
7430,-37
7431,-47
7432,-53
7433,-56
7434,-57
7435,-59
7436,-62
7437,-71
7438,-86
7439,-95
7440,-94
7441,-65
7442,-37
7443,-19
7444,-17
7445,-31
7446,-58
7447,-92
7448,-127
7449,-156
7450,-168
7451,-164
7452,-156
7453,-146
7454,-133
7455,-127
7456,-126
7457,-124
7458,-119
7459,-114
7460,-111
7461,-109
7462,-104
7463,-98
7464,-92
7465,-87
7466,-82
7467,-79
7468,-80
7469,-81
7470,-82
7471,-83
7472,-82
7473,-79
7474,-75
7475,-69
7476,-65
7477,-63
7478,-63
7479,-63
7480,-56
7481,-44
7482,-28
7483,-4
7484,19
7485,26
7486,19
7487,2
7488,-23
7489,-51
7490,-75
7491,-89
7492,-87
7493,-79
7494,-71
7495,-60
7496,-54
7497,-59
7498,-63
7499,-61
7500,-56
7501,-52
7502,-50
7503,-46
7504,-43
7505,-43
7506,-44
7507,-43
7508,-40
7509,-34
7510,-11
7511,6
7512,20
7513,20
7514,29
7515,36
7516,33
7517,18
7518,-3
7519,-29
7520,-53
7521,-68
7522,-69
7523,-58
7524,-30
7525,6
7526,35
7527,46
7528,37
7529,8
7530,-31
7531,-74
7532,-110
7533,-125
7534,-123
7535,-112
7536,-93
7537,-72
7538,-61
7539,-59
7540,-57
7541,-55
7542,-56
7543,-59
7544,-61
7545,-61
7546,-59
7547,-55
7548,-49
7549,-43
7550,-40
7551,-38
7552,-38
7553,-40
7554,-40
7555,-38
7556,-33
7557,-28
7558,-20
7559,-14
7560,-12
7561,-14
7562,-20
7563,-26
7564,-30
7565,-32
7566,-31
7567,-29
7568,-27
7569,-26
7570,-26
7571,-25
7572,-22
7573,-20
7574,-18
7575,-14
7576,-15
7577,-18
7578,-21
7579,-29
7580,-29
7581,-24
7582,-18
7583,-13
7584,-12
7585,-14
7586,-17
7587,-24
7588,-29
7589,-28
7590,-24
7591,-18
7592,-10
7593,-4
7594,-3
7595,-5
7596,-7
7597,-9
7598,-11
7599,-11
7600,-11
7601,-10
7602,-11
7603,-17
7604,-25
7605,-28
7606,-24
7607,-13
7608,6
7609,33
7610,53
7611,56
7612,47
7613,-4
7614,-32
7615,-50
7616,-56
7617,-51
7618,-41
7619,-32
7620,-27
7621,-32
7622,-42
7623,-49
7624,-52
7625,-56
7626,-59
7627,-60
7628,-60
7629,-59
7630,-54
7631,-49
7632,-46
7633,-43
7634,-43
7635,-46
7636,-52
7637,-57
7638,-57
7639,-53
7640,-45
7641,-36
7642,-32
7643,-32
7644,-34
7645,-38
7646,-39
7647,-36
7648,-24
7649,-3
7650,26
7651,66
7652,116
7653,174
7654,240
7655,314
7656,314
7657,395
7658,479
7659,559
7660,635
7661,697
7662,739
7663,756
7664,743
7665,700
7666,624
7667,517
7668,391
7669,258
7670,128
7671,13
7672,-71
7673,-129
7674,-159
7675,-166
7676,-158
7677,-149
7678,-144
7679,-143
7680,-144
7681,-145
7682,-145
7683,-144
7684,-141
7685,-140
7686,-138
7687,-136
7688,-135
7689,-133
7690,-131
7691,-129
7692,-128
7693,-129
7694,-130
7695,-130
7696,-130
7697,-130
7698,-130
7699,-129
7700,-127
7701,-128
7702,-130
7703,-132
7704,-134
7705,-134
7706,-133
7707,-130
7708,-126
7709,-124
7710,-120
7711,-115
7712,-111
7713,-110
7714,-109
7715,-109
7716,-109
7717,-111
7718,-113
7719,-113
7720,-111
7721,-106
7722,-98
7723,-90
7724,-83
7725,-77
7726,-77
7727,-80
7728,-84
7729,-88
7730,-88
7731,-83
7732,-76
7733,-71
7734,-66
7735,-67
7736,-72
7737,-79
7738,-86
7739,-88
7740,-85
7741,-78
7742,-71
7743,-66
7744,-64
7745,-64
7746,-65
7747,-65
7748,-63
7749,-59
7750,-57
7751,-52
7752,-46
7753,-45
7754,-42
7755,-36
7756,-27
7757,-19
7758,-13
7759,-7
7760,-4
7761,-4
7762,-3
7763,0
7764,2
7765,4
7766,6
7767,10
7768,15
7769,18
7770,19
7771,21
7772,22
7773,21
7774,18
7775,14
7776,11
7777,7
7778,4
7779,4
7780,4
7781,3
7782,0
7783,-3
7784,-9
7785,-16
7786,-31
7787,-36
7788,-41
7789,-45
7790,-48
7791,-52
7792,-58
7793,-65
7794,-72
7795,-81
7796,-89
7797,-98
7798,-98
7799,-107
7800,-117
7801,-128
7802,-138
7803,-148
7804,-156
7805,-162
7806,-166
7807,-167
7808,-168
7809,-171
7810,-176
7811,-180
7812,-187
7813,-197
7814,-203
7815,-209
7816,-213
7817,-217
7818,-221
7819,-226
7820,-229
7821,-235
7822,-233
7823,-232
7824,-230
7825,-228
7826,-231
7827,-237
7828,-243
7829,-251
7830,-258
7831,-260
7832,-262
7833,-260
7834,-256
7835,-254
7836,-251
7837,-248
7838,-246
7839,-242
7840,-235
7841,-227
7842,-218
7843,-212
7844,-208
7845,-205
7846,-204
7847,-205
7848,-206
7849,-206
7850,-206
7851,-207
7852,-208
7853,-207
7854,-206
7855,-197
7856,-187
7857,-179
7858,-172
7859,-167
7860,-165
7861,-167
7862,-169
7863,-172
7864,-173
7865,-174
7866,-176
7867,-178
7868,-178
7869,-178
7870,-176
7871,-170
7872,-163
7873,-156
7874,-153
7875,-151
7876,-154
7877,-160
7878,-166
7879,-172
7880,-175
7881,-174
7882,-171
7883,-167
7884,-163
7885,-161
7886,-163
7887,-164
7888,-161
7889,-144
7890,-135
7891,-129
7892,-128
7893,-131
7894,-137
7895,-145
7896,-151
7897,-156
7898,-159
7899,-161
7900,-163
7901,-166
7902,-170
7903,-174
7904,-174
7905,-171
7906,-166
7907,-161
7908,-157
7909,-155
7910,-154
7911,-153
7912,-150
7913,-147
7914,-145
7915,-140
7916,-136
7917,-133
7918,-132
7919,-131
7920,-131
7921,-131
7922,-130
7923,-126
7924,-127
7925,-130
7926,-135
7927,-140
7928,-146
7929,-149
7930,-146
7931,-140
7932,-136
7933,-130
7934,-124
7935,-122
7936,-122
7937,-125
7938,-127
7939,-128
7940,-128
7941,-127
7942,-127
7943,-128
7944,-127
7945,-131
7946,-134
7947,-132
7948,-128
7949,-125
7950,-120
7951,-118
7952,-119
7953,-122
7954,-128
7955,-132
7956,-130
7957,-125
7958,-109
7959,-101
7960,-101
7961,-106
7962,-111
7963,-116
7964,-117
7965,-117
7966,-112
7967,-107
7968,-105
7969,-101
7970,-97
7971,-97
7972,-97
7973,-94
7974,-89
7975,-86
7976,-82
7977,-82
7978,-83
7979,-85
7980,-86
7981,-84
7982,-81
7983,-76
7984,-71
7985,-68
7986,-68
7987,-71
7988,-78
7989,-87
7990,-99
7991,-109
7992,-132
7993,-140
7994,-142
7995,-140
7996,-136
7997,-130
7998,-125
7999,-124
8000,-124
8001,-123
8002,-122
8003,-119
8004,-113
8005,-105
8006,-97
8007,-93
8008,-92
8009,-94
8010,-98
8011,-101
8012,-102
8013,-100
8014,-96
8015,-90
8016,-80
8017,-71
8018,-57
8019,-37
8020,-7
8021,32
8022,87
8023,153
8024,227
8025,306
8026,473
8027,554
8028,628
8029,692
8030,737
8031,754
8032,740
8033,690
8034,604
8035,486
8036,349
8037,211
8038,80
8039,-31
8040,-115
8041,-169
8042,-198
8043,-209
8044,-206
8045,-199
8046,-193
8047,-189
8048,-185
8049,-180
8050,-176
8051,-173
8052,-170
8053,-167
8054,-167
8055,-165
8056,-162
8057,-161
8058,-160
8059,-161
8060,-166
8061,-170
8062,-172
8063,-173
8064,-172
8065,-171
8066,-170
8067,-169
8068,-169
8069,-170
8070,-173
8071,-173
8072,-171
8073,-168
8074,-162
8075,-159
8076,-156
8077,-155
8078,-156
8079,-156
8080,-153
8081,-152
8082,-152
8083,-149
8084,-146
8085,-143
8086,-141
8087,-141
8088,-140
8089,-137
8090,-133
8091,-128
8092,-121
8093,-116
8094,-114
8095,-112
8096,-112
8097,-110
8098,-106
8099,-102
8100,-97
8101,-96
8102,-98
8103,-101
8104,-105
8105,-107
8106,-107
8107,-104
8108,-99
8109,-92
8110,-84
8111,-80
8112,-80
8113,-84
8114,-89
8115,-95
8116,-97
8117,-95
8118,-89
8119,-78
8120,-68
8121,-61
8122,-56
8123,-56
8124,-60
8125,-62
8126,-63
8127,-60
8128,-55
8129,-42
8130,-34
8131,-29
8132,-25
8133,-22
8134,-18
8135,-14
8136,-13
8137,-12
8138,-12
8139,-10
8140,-10
8141,-7
8142,-3
8143,-1
8144,0
8145,2
8146,4
8147,8
8148,12
8149,15
8150,16
8151,15
8152,14
8153,12
8154,12
8155,11
8156,10
8157,8
8158,5
8159,0
8160,-6
8161,-14
8162,-32
8163,-38
8164,-45
8165,-53
8166,-63
8167,-75
8168,-88
8169,-98
8170,-107
8171,-114
8172,-117
8173,-121
8174,-123
8175,-126
8176,-135
8177,-146
8178,-155
8179,-164
8180,-171
8181,-172
8182,-174
8183,-176
8184,-177
8185,-180
8186,-187
8187,-193
8188,-199
8189,-202
8190,-201
8191,-198
8192,-195
8193,-193
8194,-193
8195,-196
8196,-196
8197,-194
8198,-188
8199,-180
8200,-170
8201,-161
8202,-158
8203,-159
8204,-161
8205,-168
8206,-173
8207,-175
8208,-176
8209,-174
8210,-170
8211,-165
8212,-160
8213,-156
8214,-154
8215,-156
8216,-156
8217,-157
8218,-158
8219,-160
8220,-160
8221,-158
8222,-152
8223,-146
8224,-138
8225,-138
8226,-134
8227,-133
8228,-134
8229,-136
8230,-139
8231,-139
8232,-135
8233,-129
8234,-120
8235,-114
8236,-111
8237,-110
8238,-107
8239,-107
8240,-107
8241,-109
8242,-113
8243,-118
8244,-124
8245,-129
8246,-132
8247,-132
8248,-129
8249,-122
8250,-116
8251,-112
8252,-109
8253,-109
8254,-111
8255,-111
8256,-109
8257,-107
8258,-106
8259,-105
8260,-104
8261,-104
8262,-102
8263,-91
8264,-84
8265,-78
8266,-76
8267,-78
8268,-83
8269,-89
8270,-95
8271,-95
8272,-93
8273,-90
8274,-87
8275,-84
8276,-83
8277,-83
8278,-85
8279,-86
8280,-88
8281,-88
8282,-86
8283,-84
8284,-84
8285,-84
8286,-87
8287,-87
8288,-86
8289,-87
8290,-87
8291,-86
8292,-89
8293,-92
8294,-95
8295,-98
8296,-99
8297,-90
8298,-79
8299,-70
8300,-64
8301,-65
8302,-72
8303,-78
8304,-84
8305,-89
8306,-90
8307,-88
8308,-85
8309,-80
8310,-78
8311,-78
8312,-75
8313,-73
8314,-71
8315,-66
8316,-62
8317,-62
8318,-62
8319,-63
8320,-64
8321,-65
8322,-65
8323,-63
8324,-58
8325,-56
8326,-56
8327,-56
8328,-56
8329,-56
8330,-54
8331,-47
8332,-41
8333,-35
8334,-33
8335,-32
8336,-34
8337,-32
8338,-25
8339,-17
8340,-13
8341,-11
8342,-12
8343,-15
8344,-21
8345,-27
8346,-30
8347,-28
8348,-24
8349,-18
8350,-13
8351,-14
8352,-21
8353,-28
8354,-33
8355,-33
8356,-31
8357,-28
8358,-23
8359,-17
8360,-9
8361,-5
8362,-3
8363,0
8364,1
8365,2
8366,0
8367,0
8368,-5
8369,-16
8370,-30
8371,-44
8372,-51
8373,-53
8374,-54
8375,-48
8376,-42
8377,-40
8378,-41
8379,-45
8380,-48
8381,-48
8382,-46
8383,-43
8384,-36
8385,-30
8386,-29
8387,-29
8388,-30
8389,-32
8390,-30
8391,-24
8392,-17
8393,-12
8394,-11
8395,-13
8396,-13
8397,-15
8398,-15
8399,24
8400,63
8401,118
8402,182
8403,252
8404,327
8405,410
8406,496
8407,584
8408,666
8409,737
8410,791
8411,817
8412,811
8413,772
8414,704
8415,609
8416,490
8417,359
8418,225
8419,100
8420,-1
8421,-74
8422,-120
8423,-139
8424,-137
8425,-124
8426,-111
8427,-101
8428,-95
8429,-92
8430,-87
8431,-80
8432,-71
8433,-71
8434,-76
8435,-82
8436,-87
8437,-93
8438,-94
8439,-89
8440,-84
8441,-80
8442,-78
8443,-77
8444,-78
8445,-80
8446,-80
8447,-77
8448,-74
8449,-71
8450,-67
8451,-63
8452,-63
8453,-64
8454,-65
8455,-65
8456,-65
8457,-67
8458,-66
8459,-65
8460,-69
8461,-66
8462,-62
8463,-59
8464,-55
8465,-43
8466,-38
8467,-34
8468,-30
8469,-25
8470,-24
8471,-24
8472,-22
8473,-21
8474,-25
8475,-26
8476,-26
8477,-26
8478,-26
8479,-25
8480,-23
8481,-20
8482,-16
8483,-13
8484,-13
8485,-13
8486,-13
8487,-13
8488,-9
8489,-3
8490,3
8491,9
8492,11
8493,7
8494,3
8495,-3
8496,-9
8497,-8
8498,0
8499,6
8500,9
8501,12
8502,17
8503,22
8504,32
8505,42
8506,50
8507,54
8508,55
8509,55
8510,51
8511,48
8512,47
8513,48
8514,53
8515,59
8516,64
8517,69
8518,69
8519,69
8520,70
8521,74
8522,79
8523,88
8524,98
8525,102
8526,106
8527,106
8528,103
8529,99
8530,94
8531,91
8532,90
8533,90
8534,88
8535,81
8536,73
8537,68
8538,64
8539,60
8540,58
8541,52
8542,45
8543,37
8544,29
8545,23
8546,19
8547,17
8548,11
8549,5
8550,-4
8551,-17
8552,-33
8553,-49
8554,-65
8555,-74
8556,-79
8557,-84
8558,-89
8559,-93
8560,-100
8561,-107
8562,-110
8563,-109
8564,-107
8565,-104
8566,-101
8567,-101
8568,-105
8569,-110
8570,-114
8571,-117
8572,-117
8573,-114
8574,-113
8575,-112
8576,-113
8577,-115
8578,-113
8579,-109
8580,-105
8581,-100
8582,-97
8583,-94
8584,-95
8585,-98
8586,-101
8587,-102
8588,-103
8589,-100
8590,-95
8591,-89
8592,-82
8593,-81
8594,-83
8595,-85
8596,-87
8597,-88
8598,-88
8599,-88
8600,-86
8601,-87
8602,-88
8603,-87
8604,-88
8605,-86
8606,-81
8607,-75
8608,-70
8609,-69
8610,-70
8611,-70
8612,-69
8613,-66
8614,-59
8615,-52
8616,-46
8617,-44
8618,-47
8619,-52
8620,-58
8621,-63
8622,-66
8623,-65
8624,-61
8625,-56
8626,-53
8627,-52
8628,-52
8629,-54
8630,-57
8631,-59
8632,-60
8633,-60
8634,-57
8635,-54
8636,-50
8637,-46
8638,-40
8639,-36
8640,-36
8641,-40
8642,-43
8643,-50
8644,-57
8645,-62
8646,-59
8647,-52
8648,-44
8649,-40
8650,-38
8651,-38
8652,-42
8653,-54
8654,-66
8655,-74
8656,-81
8657,-85
8658,-83
8659,-81
8660,-78
8661,-78
8662,-81
8663,-83
8664,-82
8665,-80
8666,-76
8667,-74
8668,-80
8669,-86
8670,-91
8671,-94
8672,-95
8673,-95
8674,-93
8675,-87
8676,-82
8677,-84
8678,-85
8679,-88
8680,-90
8681,-92
8682,-91
8683,-92
8684,-94
8685,-98
8686,-101
8687,-102
8688,-101
8689,-99
8690,-92
8691,-85
8692,-78
8693,-75
8694,-75
8695,-77
8696,-78
8697,-78
8698,-77
8699,-73
8700,-69
8701,-66
8702,-70
8703,-75
8704,-80
8705,-82
8706,-83
8707,-85
8708,-88
8709,-90
8710,-91
8711,-92
8712,-92
8713,-92
8714,-89
8715,-85
8716,-81
8717,-79
8718,-81
8719,-86
8720,-91
8721,-91
8722,-89
8723,-83
8724,-79
8725,-78
8726,-78
8727,-78
8728,-82
8729,-85
8730,-80
8731,-74
8732,-70
8733,-63
8734,-61
8735,-69
8736,-75
8737,-78
8738,-75
8739,-72
8740,-68
8741,-61
8742,-57
8743,-56
8744,-51
8745,-45
8746,-37
8747,-27
8748,-21
8749,-16
8750,-16
8751,-23
8752,-33
8753,-44
8754,-56
8755,-66
8756,-71
8757,-74
8758,-76
8759,-79
8760,-82
8761,-82
8762,-84
8763,-86
8764,-86
8765,-84
8766,-82
8767,-82
8768,-82
8769,-84
8770,-86
8771,-85
8772,-84
8773,-82
8774,-80
8775,-77
8776,-75
8777,-74
8778,-75
8779,-74
8780,-71
8781,-67
8782,-60
8783,-54
8784,-49
8785,-38
8786,-17
8787,15
8788,61
8789,117
8790,181
8791,251
8792,323
8793,398
8794,398
8795,476
8796,550
8797,621
8798,681
8799,724
8800,739
8801,720
8802,585
8803,470
8804,343
8805,216
8806,97
8807,-4
8808,-80
8809,-131
8810,-162
8811,-175
8812,-174
8813,-165
8814,-155
8815,-144
8816,-132
8817,-124
8818,-121
8819,-121
8820,-124
8821,-125
8822,-126
8823,-122
8824,-114
8825,-107
8826,-101
8827,-98
8828,-99
8829,-104
8830,-107
8831,-109
8832,-110
8833,-109
8834,-105
8835,-101
8836,-94
8837,-92
8838,-92
8839,-96
8840,-97
8841,-96
8842,-97
8843,-100
8844,-100
8845,-99
8846,-95
8847,-88
8848,-80
8849,-72
8850,-69
8851,-70
8852,-72
8853,-78
8854,-85
8855,-88
8856,-87
8857,-84
8858,-78
8859,-72
8860,-67
8861,-64
8862,-66
8863,-65
8864,-63
8865,-60
8866,-58
8867,-55
8868,-55
8869,-59
8870,-69
8871,-73
8872,-75
8873,-74
8874,-70
8875,-64
8876,-58
8877,-52
8878,-47
8879,-41
8880,-34
8881,-24
8882,-15
8883,-7
8884,-3
8885,-1
8886,-5
8887,-10
8888,-12
8889,-12
8890,-11
8891,-6
8892,2
8893,8
8894,15
8895,23
8896,30
8897,38
8898,47
8899,54
8900,59
8901,61
8902,61
8903,62
8904,63
8905,70
8906,78
8907,82
8908,84
8909,83
8910,78
8911,73
8912,69
8913,68
8914,70
8915,72
8916,74
8917,76
8918,75
8919,73
8920,73
8921,75
8922,80
8923,85
8924,85
8925,83
8926,77
8927,69
8928,59
8929,49
8930,44
8931,39
8932,33
8933,26
8934,19
8935,7
8936,-5
8937,-18
8938,-24
8939,-28
8940,-29
8941,-27
8942,-25
8943,-29
8944,-39
8945,-52
8946,-66
8947,-79
8948,-92
8949,-100
8950,-104
8951,-107
8952,-110
8953,-111
8954,-112
8955,-115
8956,-116
8957,-114
8958,-114
8959,-114
8960,-114
8961,-117
8962,-120
8963,-121
8964,-122
8965,-120
8966,-118
8967,-119
8968,-119
8969,-122
8970,-128
8971,-132
8972,-130
8973,-127
8974,-121
8975,-117
8976,-117
8977,-122
8978,-126
8979,-125
8980,-123
8981,-119
8982,-111
8983,-105
8984,-107
8985,-115
8986,-127
8987,-139
8988,-148
8989,-152
8990,-149
8991,-141
8992,-137
8993,-134
8994,-132
8995,-131
8996,-131
8997,-131
8998,-129
8999,-127
9000,-123
9001,-121
9002,-121
9003,-122
9004,-127
9005,-127
9006,-127
9007,-127
9008,-125
9009,-122
9010,-121
9011,-118
9012,-118
9013,-117
9014,-117
9015,-116
9016,-113
9017,-110
9018,-110
9019,-111
9020,-109
9021,-112
9022,-113
9023,-111
9024,-109
9025,-111
9026,-113
9027,-116
9028,-119
9029,-124
9030,-128
9031,-126
9032,-121
9033,-116
9034,-113
9035,-113
9036,-119
9037,-129
9038,-145
9039,-147
9040,-147
9041,-145
9042,-143
9043,-143
9044,-147
9045,-151
9046,-155
9047,-154
9048,-151
9049,-147
9050,-144
9051,-142
9052,-143
9053,-146
9054,-147
9055,-148
9056,-147
9057,-144
9058,-142
9059,-142
9060,-143
9061,-146
9062,-148
9063,-149
9064,-146
9065,-141
9066,-137
9067,-135
9068,-136
9069,-139
9070,-143
9071,-147
9072,-144
9073,-138
9074,-132
9075,-125
9076,-121
9077,-124
9078,-124
9079,-128
9080,-134
9081,-138
9082,-138
9083,-137
9084,-136
9085,-134
9086,-137
9087,-143
9088,-147
9089,-151
9090,-156
9091,-157
9092,-158
9093,-159
9094,-158
9095,-157
9096,-153
9097,-149
9098,-142
9099,-133
9100,-123
9101,-117
9102,-113
9103,-112
9104,-111
9105,-109
9106,-99
9107,-91
9108,-88
9109,-88
9110,-92
9111,-99
9112,-109
9113,-119
9114,-128
9115,-132
9116,-137
9117,-143
9118,-147
9119,-150
9120,-153
9121,-152
9122,-148
9123,-144
9124,-139
9125,-136
9126,-135
9127,-137
9128,-142
9129,-148
9130,-151
9131,-152
9132,-152
9133,-150
9134,-152
9135,-152
9136,-152
9137,-150
9138,-148
9139,-142
9140,-125
9141,-118
9142,-112
9143,-105
9144,-92
9145,-69
9146,-36
9147,10
9148,69
9149,136
9150,209
9151,289
9152,366
9153,441
9154,511
9155,567
9156,604
9157,617
9158,603
9159,561
9160,489
9161,391
9162,278
9163,160
9164,46
9165,-51
9166,-125
9167,-178
9168,-210
9169,-225
9170,-228
9171,-224
9172,-220
9173,-214
9174,-195
9175,-187
9176,-182
9177,-182
9178,-181
9179,-183
9180,-182
9181,-179
9182,-175
9183,-175
9184,-176
9185,-178
9186,-181
9187,-184
9188,-186
9189,-184
9190,-180
9191,-177
9192,-175
9193,-175
9194,-175
9195,-175
9196,-173
9197,-168
9198,-162
9199,-157
9200,-153
9201,-150
9202,-148
9203,-146
9204,-143
9205,-140
9206,-134
9207,-126
9208,-118
9209,-107
9210,-105
9211,-104
9212,-106
9213,-108
9214,-113
9215,-120
9216,-126
9217,-131
9218,-134
9219,-133
9220,-133
9221,-129
9222,-124
9223,-117
9224,-113
9225,-110
9226,-108
9227,-108
9228,-107
9229,-102
9230,-97
9231,-91
9232,-85
9233,-85
9234,-87
9235,-91
9236,-94
9237,-96
9238,-94
9239,-91
9240,-85
9241,-74
9242,-61
9243,-45
9244,-43
9245,-42
9246,-42
9247,-42
9248,-39
9249,-35
9250,-30
9251,-27
9252,-24
9253,-25
9254,-27
9255,-29
9256,-24
9257,-14
9258,-2
9259,9
9260,17
9261,21
9262,23
9263,24
9264,26
9265,28
9266,32
9267,35
9268,38
9269,40
9270,39
9271,40
9272,42
9273,46
9274,51
9275,53
9276,54
9277,45
9278,40
9279,38
9280,38
9281,39
9282,41
9283,39
9284,32
9285,24
9286,14
9287,4
9288,-4
9289,-7
9290,-8
9291,-10
9292,-13
9293,-20
9294,-30
9295,-42
9296,-54
9297,-64
9298,-72
9299,-80
9300,-87
9301,-92
9302,-98
9303,-108
9304,-115
9305,-123
9306,-130
9307,-134
9308,-136
9309,-138
9310,-141
9311,-146
9312,-151
9313,-157
9314,-163
9315,-167
9316,-173
9317,-180
9318,-183
9319,-186
9320,-187
9321,-185
9322,-183
9323,-177
9324,-170
9325,-166
9326,-166
9327,-167
9328,-171
9329,-175
9330,-177
9331,-176
9332,-173
9333,-171
9334,-171
9335,-169
9336,-167
9337,-166
9338,-164
9339,-158
9340,-149
9341,-139
9342,-132
9343,-127
9344,-128
9345,-128
9346,-128
9347,-127
9348,-124
9349,-122
9350,-122
9351,-125
9352,-130
9353,-131
9354,-133
9355,-130
9356,-121
9357,-115
9358,-111
9359,-111
9360,-114
9361,-118
9362,-123
9363,-123
9364,-125
9365,-126
9366,-122
9367,-117
9368,-113
9369,-110
9370,-109
9371,-108
9372,-103
9373,-98
9374,-94
9375,-90
9376,-88
9377,-88
9378,-88
9379,-87
9380,-87
9381,-85
9382,-84
9383,-83
9384,-85
9385,-89
9386,-92
9387,-95
9388,-96
9389,-97
9390,-94
9391,-92
9392,-92
9393,-92
9394,-93
9395,-96
9396,-98
9397,-101
9398,-104
9399,-105
9400,-104
9401,-102
9402,-102
9403,-102
9404,-105
9405,-107
9406,-105
9407,-103
9408,-102
9409,-102
9410,-104
9411,-106
9412,-108
9413,-111
9414,-114
9415,-110
9416,-105
9417,-98
9418,-96
9419,-96
9420,-96
9421,-96
9422,-93
9423,-86
9424,-79
9425,-75
9426,-71
9427,-69
9428,-71
9429,-75
9430,-81
9431,-84
9432,-87
9433,-90
9434,-91
9435,-91
9436,-90
9437,-89
9438,-88
9439,-84
9440,-81
9441,-83
9442,-85
9443,-90
9444,-95
9445,-97
9446,-93
9447,-81
9448,-72
9449,-68
9450,-65
9451,-63
9452,-65
9453,-65
9454,-63
9455,-61
9456,-56
9457,-50
9458,-48
9459,-48
9460,-48
9461,-50
9462,-52
9463,-54
9464,-57
9465,-57
9466,-58
9467,-63
9468,-63
9469,-64
9470,-64
9471,-62
9472,-59
9473,-55
9474,-50
9475,-49
9476,-48
9477,-47
9478,-49
9479,-48
9480,-43
9481,-39
9482,-37
9483,-42
9484,-51
9485,-60
9486,-68
9487,-75
9488,-76
9489,-73
9490,-68
9491,-65
9492,-64
9493,-67
9494,-73
9495,-78
9496,-81
9497,-82
9498,-81
9499,-79
9500,-77
9501,-77
9502,-78
9503,-81
9504,-82
9505,-82
9506,-82
9507,-80
9508,-77
9509,-71
9510,-69
9511,-68
9512,-68
9513,-69
9514,-69
9515,-66
9516,-58
9517,-41
9518,20
9519,66
9520,120
9521,182
9522,251
9523,328
9524,413
9525,498
9526,579
9527,649
9528,701
9529,726
9530,722
9531,687
9532,619
9533,520
9534,400
9535,273
9536,147
9537,33
9538,-59
9539,-123
9540,-162
9541,-179
9542,-180
9543,-175
9544,-171
9545,-169
9546,-165
9547,-163
9548,-162
9549,-161
9550,-159
9551,-156
9552,-151
9553,-145
9554,-142
9555,-140
9556,-139
9557,-139
9558,-144
9559,-149
9560,-153
9561,-154
9562,-151
9563,-145
9564,-138
9565,-131
9566,-127
9567,-127
9568,-128
9569,-133
9570,-136
9571,-139
9572,-138
9573,-135
9574,-130
9575,-125
9576,-121
9577,-116
9578,-114
9579,-111
9580,-107
9581,-103
9582,-97
9583,-93
9584,-91
9585,-94
9586,-97
9587,-95
9588,-89
9589,-83
9590,-75
9591,-69
9592,-69
9593,-72
9594,-77
9595,-81
9596,-83
9597,-80
9598,-78
9599,-75
9600,-75
9601,-78
9602,-81
9603,-81
9604,-80
9605,-73
9606,-64
9607,-55
9608,-50
9609,-50
9610,-53
9611,-56
9612,-59
9613,-58
9614,-54
9615,-50
9616,-45
9617,-42
9618,-43
9619,-45
9620,-46
9621,-38
9622,-30
9623,-22
9624,-13
9625,-7
9626,-3
9627,2
9628,7
9629,11
9630,17
9631,25
9632,31
9633,34
9634,37
9635,37
9636,39
9637,40
9638,44
9639,52
9640,59
9641,63
9642,65
9643,66
9644,65
9645,62
9646,60
9647,60
9648,61
9649,63
9650,63
9651,63
9652,63
9653,60
9654,55
9655,50
9656,46
9657,43
9658,39
9659,32
9660,23
9661,14
9662,6
9663,2
9664,1
9665,-2
9666,-8
9667,-17
9668,-29
9669,-44
9670,-59
9671,-72
9672,-81
9673,-88
9674,-95
9675,-101
9676,-108
9677,-118
9678,-127
9679,-131
9680,-132
9681,-130
9682,-129
9683,-127
9684,-126
9685,-128
9686,-132
9687,-132
9688,-131
9689,-128
9690,-124
9691,-118
9692,-120
9693,-125
9694,-132
9695,-138
9696,-142
9697,-144
9698,-141
9699,-137
9700,-134
9701,-131
9702,-127
9703,-124
9704,-122
9705,-119
9706,-116
9707,-114
9708,-112
9709,-112
9710,-113
9711,-115
9712,-117
9713,-117
9714,-114
9715,-110
9716,-107
9717,-105
9718,-105
9719,-106
9720,-105
9721,-105
9722,-105
9723,-102
9724,-100
9725,-103
9726,-107
9727,-113
9728,-119
9729,-120
9730,-115
9731,-110
9732,-105
9733,-101
9734,-97
9735,-96
9736,-95
9737,-92
9738,-88
9739,-83
9740,-77
9741,-71
9742,-67
9743,-66
9744,-65
9745,-64
9746,-63
9747,-61
9748,-61
9749,-63
9750,-67
9751,-75
9752,-81
9753,-87
9754,-90
9755,-89
9756,-84
9757,-77
9758,-68
9759,-70
9760,-73
9761,-75
9762,-74
9763,-68
9764,-62
9765,-54
9766,-50
9767,-51
9768,-55
9769,-62
9770,-70
9771,-77
9772,-83
9773,-86
9774,-88
9775,-89
9776,-90
9777,-86
9778,-80
9779,-73
9780,-67
9781,-61
9782,-58
9783,-58
9784,-62
9785,-66
9786,-68
9787,-67
9788,-64
9789,-64
9790,-58
9791,-52
9792,-48
9793,-49
9794,-56
9795,-63
9796,-71
9797,-75
9798,-77
9799,-78
9800,-76
9801,-73
9802,-71
9803,-69
9804,-67
9805,-63
9806,-57
9807,-53
9808,-53
9809,-54
9810,-59
9811,-67
9812,-72
9813,-73
9814,-73
9815,-69
9816,-66
9817,-63
9818,-64
9819,-70
9820,-78
9821,-83
9822,-84
9823,-81
9824,-75
9825,-69
9826,-66
9827,-66
9828,-65
9829,-64
9830,-64
9831,-64
9832,-62
9833,-62
9834,-64
9835,-67
9836,-69
9837,-69
9838,-67
9839,-61
9840,-54
9841,-49
9842,-47
9843,-47
9844,-49
9845,-51
9846,-52
9847,-52
9848,-51
9849,-47
9850,-45
9851,-45
9852,-47
9853,-51
9854,-56
9855,-58
9856,-61
9857,-64
9858,-65
9859,-66
9860,-68
9861,-66
9862,-59
9863,-51
9864,-43
9865,-37
9866,-33
9867,-34
9868,-36
9869,-37
9870,-34
9871,-30
9872,-26
9873,-23
9874,-21
9875,-24
9876,-28
9877,-35
9878,-43
9879,-51
9880,-56
9881,-58
9882,-59
9883,-60
9884,-64
9885,-70
9886,-74
9887,-79
9888,-82
9889,-84
9890,-82
9891,-78
9892,-76
9893,-76
9894,-76
9895,-79
9896,-83
9897,-81
9898,-80
9899,-79
9900,-79
9901,-80
9902,-82
9903,-84
9904,-82
9905,-75
9906,-67
9907,-58
9908,-48
9909,-36
9910,-19
9911,10
9912,51
9913,105
9914,170
9915,243
9916,319
9917,399
9918,476
9919,552
9920,623
9921,682
9922,723
9923,740
9924,723
9925,672
9926,586
9927,472
9928,343
9929,343
9930,-12
9931,-90
9932,-90
9933,-143
9934,-173
9935,-184
9936,-181
9937,-170
9938,-155
9939,-143
9940,-131
9941,-125
9942,-125
9943,-131
9944,-141
9945,-151
9946,-159
9947,-162
9948,-162
9949,-158
9950,-156
9951,-156
9952,-158
9953,-160
9954,-162
9955,-162
9956,-158
9957,-153
9958,-149
9959,-145
9960,-144
9961,-143
9962,-143
9963,-137
9964,-127
9965,-111
9966,-107
9967,-107
9968,-113
9969,-120
9970,-127
9971,-130
9972,-131
9973,-128
9974,-121
9975,-115
9976,-110
9977,-106
9978,-99
9979,-88
9980,-78
9981,-70
9982,-62
9983,-62
9984,-67
9985,-75
9986,-86
9987,-96
9988,-103
9989,-106
9990,-103
9991,-98
9992,-93
9993,-89
9994,-85
9995,-83
9996,-79
9997,-76
9998,-73
9999,-70
10000,-62
10001,-58
10002,-53
10003,-48
10004,-42
10005,-31
10006,-22
10007,-14
10008,-7
10009,-1
10010,3
10011,7
10012,10
10013,14
10014,16
10015,14
10016,13
10017,14
10018,14
10019,18
10020,27
10021,40
10022,52
10023,61
10024,69
10025,73
10026,71
10027,69
10028,69
10029,72
10030,75
10031,77
10032,78
10033,77
10034,74
10035,68
10036,67
10037,70
10038,76
10039,85
10040,92
10041,96
10042,96
10043,95
10044,92
10045,89
10046,86
10047,82
10048,81
10049,78
10050,73
10051,68
10052,63
10053,55
10054,47
10055,41
10056,33
10057,24
10058,13
10059,2
10060,-7
10061,-17
10062,-25
10063,-30
10064,-35
10065,-40
10066,-48
10067,-57
10068,-64
10069,-70
10070,-80
10071,-82
10072,-83
10073,-86
10074,-86
10075,-92
10076,-102
10077,-112
10078,-121
10079,-127
10080,-128
10081,-126
10082,-121
10083,-116
10084,-112
10085,-107
10086,-104
10087,-102
10088,-99
10089,-96
10090,-95
10091,-95
10092,-99
10093,-103
10094,-106
10095,-110
10096,-111
10097,-111
10098,-108
10099,-103
10100,-97
10101,-94
10102,-93
10103,-94
10104,-96
10105,-100
10106,-100
10107,-98
10108,-98
10109,-100
10110,-100
10111,-100
10112,-100
10113,-98
10114,-94
10115,-89
10116,-88
10117,-90
10118,-95
10119,-100
10120,-107
10121,-109
10122,-104
10123,-95
10124,-88
10125,-83
10126,-84
10127,-90
10128,-93
10129,-97
10130,-97
10131,-92
10132,-85
10133,-77
10134,-67
10135,-66
10136,-66
10137,-68
10138,-72
10139,-70
10140,-68
10141,-65
10142,-64
10143,-65
10144,-66
10145,-66
10146,-68
10147,-69
10148,-65
10149,-64
10150,-63
10151,-62
10152,-62
10153,-63
10154,-62
10155,-60
10156,-57
10157,-53
10158,-53
10159,-54
10160,-56
10161,-58
10162,-59
10163,-56
10164,-56
10165,-57
10166,-57
10167,-58
10168,-60
10169,-62
10170,-63
10171,-61
10172,-59
10173,-58
10174,-55
10175,-58
10176,-61
10177,-61
10178,-62
10179,-59
10180,-54
10181,-50
10182,-46
10183,-44
10184,-45
10185,-46
10186,-48
10187,-49
10188,-47
10189,-44
10190,-41
10191,-39
10192,-38
10193,-40
10194,-40
10195,-39
10196,-39
10197,-40
10198,-40
10199,-42
10200,-48
10201,-55
10202,-60
10203,-65
10204,-66
10205,-65
10206,-62
10207,-59
10208,-57
10209,-56
10210,-53
10211,-52
10212,-49
10213,-45
10214,-45
10215,-46
10216,-46
10217,-47
10218,-50
10219,-53
10220,-53
10221,-52
10222,-48
10223,-42
10224,-34
10225,-27
10226,-25
10227,-27
10228,-31
10229,-36
10230,-43
10231,-48
10232,-49
10233,-51
10234,-52
10235,-52
10236,-51
10237,-49
10238,-47
10239,-44
10240,-39
10241,-38
10242,-40
10243,-39
10244,-41
10245,-42
10246,-40
10247,-36
10248,-35
10249,-36
10250,-38
10251,-43
10252,-47
10253,-47
10254,-46
10255,-47
10256,-48
10257,-51
10258,-54
10259,-57
10260,-60
10261,-62
10262,-61
10263,-57
10264,-52
10265,-46
10266,-40
10267,-36
10268,-33
10269,-32
10270,-29
10271,-27
10272,-27
10273,-25
10274,-22
10275,-18
10276,-15
10277,-14
10278,-14
10279,-15
10280,-14
10281,-13
10282,-13
10283,-13
10284,-14
10285,-12
10286,-12
10287,-11
10288,-5
10289,4
10290,14
10291,23
10292,30
10293,31
10294,26
10295,17
10296,7
10297,-4
10298,-15
10299,-26
10300,-35
10301,-45
10302,-56
10303,-64
10304,-68
10305,-68
10306,-65
10307,-59
10308,-53
10309,-49
10310,-47
10311,-45
10312,-45
10313,-45
10314,-43
10315,-46
10316,-49
10317,-53
10318,-58
10319,-60
10320,-60
10321,-51
10322,-41
10323,-32
10324,-26
10325,-20
10326,-16
10327,-12
10328,0
10329,25
10330,62
10331,109
10332,165
10333,226
10334,291
10335,359
10336,434
10337,515
10338,600
10339,682
10340,750
10341,791
10342,799
10343,769
10344,701
10345,602
10346,479
10347,347
10348,216
10349,-4
10350,-79
10351,-129
10352,-155
10353,-160
10354,-151
10355,-137
10356,-124
10357,-119
10358,-119
10359,-117
10360,-122
10361,-129
10362,-134
10363,-135
10364,-134
10365,-129
10366,-123
10367,-119
10368,-114
10369,-114
10370,-116
10371,-118
10372,-119
10373,-119
10374,-114
10375,-111
10376,-113
10377,-116
10378,-116
10379,-117
10380,-116
10381,-111
10382,-105
10383,-95
10384,-97
10385,-100
10386,-106
10387,-111
10388,-110
10389,-102
10390,-96
10391,-93
10392,-90
10393,-89
10394,-91
10395,-92
10396,-89
10397,-84
10398,-79
10399,-75
10400,-73
10401,-75
10402,-79
10403,-83
10404,-85
10405,-84
10406,-83
10407,-81
10408,-81
10409,-85
10410,-87
10411,-86
10412,-86
10413,-85
10414,-81
10415,-76
10416,-74
10417,-72
10418,-73
10419,-72
10420,-69
10421,-62
10422,-52
10423,-43
10424,-38
10425,-35
10426,-35
10427,-36
10428,-35
10429,-31
10430,-26
10431,-18
10432,-13
10433,-8
10434,-8
10435,-10
10436,-11
10437,-9
10438,-4
10439,3
10440,12
10441,18
10442,20
10443,21
10444,20
10445,21
10446,23
10447,28
10448,35
10449,39
10450,41
10451,41
10452,40
10453,41
10454,44
10455,48
10456,49
10457,48
10458,46
10459,41
10460,38
10461,36
10462,37
10463,41
10464,46
10465,49
10466,51
10467,50
10468,46
10469,38
10470,30
10471,22
10472,15
10473,6
10474,-1
10475,-8
10476,-15
10477,-23
10478,-32
10479,-39
10480,-44
10481,-48
10482,-51
10483,-53
10484,-57
10485,-62
10486,-71
10487,-76
10488,-81
10489,-87
10490,-93
10491,-98
10492,-106
10493,-113
10494,-118
10495,-121
10496,-122
10497,-122
10498,-124
10499,-125
10500,-125
10501,-127
10502,-131
10503,-131
10504,-132
10505,-131
10506,-129
10507,-127
10508,-128
10509,-128
10510,-128
10511,-127
10512,-123
10513,-119
10514,-117
10515,-115
10516,-112
10517,-113
10518,-119
10519,-125
10520,-125
10521,-123
10522,-121
10523,-117
10524,-115
10525,-116
10526,-117
10527,-117
10528,-118
10529,-117
10530,-114
10531,-108
10532,-103
10533,-101
10534,-102
10535,-104
10536,-104
10537,-106
10538,-106
10539,-101
10540,-93
10541,-85
10542,-80
10543,-77
10544,-76
10545,-77
10546,-77
10547,-76
10548,-73
10549,-73
10550,-72
10551,-72
10552,-73
10553,-76
10554,-77
10555,-73
10556,-70
10557,-68
10558,-65
10559,-65
10560,-67
10561,-69
10562,-71
10563,-74
10564,-78
10565,-82
10566,-86
10567,-92
10568,-98
10569,-101
10570,-100
10571,-97
10572,-93
10573,-91
10574,-86
10575,-84
10576,-84
10577,-82
10578,-80
10579,-78
10580,-76
10581,-73
10582,-73
10583,-78
10584,-85
10585,-92
10586,-97
10587,-100
10588,-100
10589,-92
10590,-90
10591,-86
10592,-85
10593,-86
10594,-88
10595,-90
10596,-92
10597,-93
10598,-94
10599,-95
10600,-96
10601,-96
10602,-95
10603,-90
10604,-82
10605,-77
10606,-70
10607,-65
10608,-64
10609,-68
10610,-71
10611,-74
10612,-75
10613,-73
10614,-69
10615,-66
10616,-64
10617,-66
10618,-70
10619,-74
10620,-77
10621,-75
10622,-69
10623,-64
10624,-60
10625,-60
10626,-64
10627,-68
10628,-70
10629,-68
10630,-65
10631,-59
10632,-56
10633,-58
10634,-65
10635,-71
10636,-79
10637,-84
10638,-84
10639,-81
10640,-77
10641,-71
10642,-68
10643,-68
10644,-65
10645,-65
10646,-67
10647,-67
10648,-66
10649,-67
10650,-67
10651,-68
10652,-70
10653,-74
10654,-77
10655,-79
10656,-80
10657,-76
10658,-73
10659,-66
10660,-64
10661,-63
10662,-62
10663,-60
10664,-58
10665,-57
10666,-57
10667,-57
10668,-56
10669,-56
10670,-55
10671,-52
10672,-48
10673,-45
10674,-45
10675,-48
10676,-52
10677,-58
10678,-62
10679,-62
10680,-58
10681,-51
10682,-45
10683,-41
10684,-39
10685,-40
10686,-43
10687,-44
10688,-42
10689,-39
10690,-37
10691,-37
10692,-42
10693,-62
10694,-73
10695,-81
10696,-86
10697,-91
10698,-95
10699,-99
10700,-104
10701,-106
10702,-108
10703,-107
10704,-102
10705,-97
10706,-91
10707,-86
10708,-83
10709,-83
10710,-83
10711,-82
10712,-79
10713,-76
10714,-75
10715,-76
10716,-77
10717,-82
10718,-85
10719,-86
10720,-84
10721,-80
10722,-73
10723,-65
10724,-57
10725,-48
10726,-35
10727,14
10728,57
10729,112
10730,178
10731,251
10732,329
10733,408
10734,487
10735,561
10736,629
10737,681
10738,708
10739,709
10740,679
10741,615
10742,518
10743,401
10744,276
10745,155
10746,46
10747,-39
10748,-99
10749,-139
10750,-160
10751,-166
10752,-165
10753,-159
10754,-153
10755,-145
10756,-134
10757,-126
10758,-122
10759,-121
10760,-122
10761,-127
10762,-128
10763,-126
10764,-123
10765,-120
10766,-119
10767,-118
10768,-117
10769,-118
10770,-117
10771,-112
10772,-110
10773,-106
10774,-103
10775,-102
10776,-105
10777,-106
10778,-107
10779,-105
10780,-105
10781,-105
10782,-106
10783,-107
10784,-111
10785,-111
10786,-112
10787,-111
10788,-108
10789,-102
10790,-92
10791,-84
10792,-79
10793,-78
10794,-80
10795,-81
10796,-78
10797,-72
10798,-67
10799,-62
10800,-60
10801,-58
10802,-59
10803,-58
10804,-57
10805,-55
10806,-50
10807,-46
10808,-42
10809,-41
10810,-40
10811,-41
10812,-45
10813,-46
10814,-47
10815,-46
10816,-45
10817,-41
10818,-38
10819,-34
10820,-30
10821,-24
10822,-17
10823,-10
10824,-4
10825,1
10826,4
10827,4
10828,4
10829,5
10830,11
10831,18
10832,24
10833,29
10834,33
10835,36
10836,37
10837,40
10838,44
10839,52
10840,62
10841,70
10842,76
10843,80
10844,82
10845,84
10846,87
10847,91
10848,96
10849,99
10850,101
10851,102
10852,100
10853,98
10854,94
10855,93
10856,95
10857,98
10858,100
10859,100
10860,95
10861,89
10862,85
10863,82
10864,85
10865,84
10866,83
10867,78
10868,71
10869,64
10870,56
10871,46
10872,36
10873,27
10874,15
10875,3
10876,-9
10877,-20
10878,-29
10879,-33
10880,-35
10881,-37
10882,-40
10883,-44
10884,-49
10885,-53
10886,-55
10887,-58
10888,-60
10889,-61
10890,-64
10891,-70
10892,-76
10893,-83
10894,-88
10895,-88
10896,-84
10897,-81
10898,-74
10899,-74
10900,-75
10901,-77
10902,-78
10903,-75
10904,-70
10905,-62
10906,-54
10907,-50
10908,-52
10909,-58
10910,-66
10911,-76
10912,-83
10913,-86
10914,-84
10915,-81
10916,-78
10917,-76
10918,-75
10919,-77
10920,-81
10921,-83
10922,-83
10923,-83
10924,-82
10925,-82
10926,-83
10927,-83
10928,-86
10929,-88
10930,-90
10931,-89
10932,-86
10933,-82
10934,-80
10935,-77
10936,-72
10937,-66
10938,-59
10939,-51
10940,-50
10941,-49
10942,-46
10943,-44
10944,-45
10945,-47
10946,-53
10947,-60
10948,-66
10949,-75
10950,-82
10951,-82
10952,-80
10953,-75
10954,-66
10955,-61
10956,-61
10957,-65
10958,-74
10959,-84
10960,-93
10961,-102
10962,-109
10963,-110
10964,-108
10965,-106
10966,-103
10967,-102
10968,-104
10969,-105
10970,-103
10971,-98
10972,-92
10973,-88
10974,-83
10975,-80
10976,-78
10977,-80
10978,-80
10979,-80
10980,-79
10981,-78
10982,-76
10983,-72
10984,-67
10985,-63
10986,-60
10987,-61
10988,-64
10989,-69
10990,-73
10991,-76
10992,-77
10993,-78
10994,-77
10995,-69
10996,-62
10997,-59
10998,-59
10999,-65
11000,-86
11001,-100
11002,-112
11003,-116
11004,-119
11005,-115
11006,-106
11007,-101
11008,-98
11009,-97
11010,-98
11011,-97
11012,-95
11013,-91
11014,-86
11015,-84
11016,-86
11017,-88
11018,-91
11019,-92
11020,-91
11021,-88
11022,-81
11023,-72
11024,-66
11025,-61
11026,-56
11027,-55
11028,-54
11029,-50
11030,-45
11031,-41
11032,-38
11033,-38
11034,-40
11035,-43
11036,-49
11037,-53
11038,-56
11039,-56
11040,-56
11041,-57
11042,-56
11043,-52
11044,-47
11045,-39
11046,-33
11047,-29
11048,-29
11049,-32
11050,-39
11051,-44
11052,-51
11053,-55
11054,-56
11055,-56
11056,-56
11057,-62
11058,-73
11059,-84
11060,-93
11061,-100
11062,-102
11063,-100
11064,-96
11065,-92
11066,-91
11067,-92
11068,-96
11069,-96
11070,-98
11071,-96
11072,-92
11073,-89
11074,-89
11075,-94
11076,-102
11077,-110
11078,-116
11079,-120
11080,-119
11081,-111
11082,-103
11083,-94
11084,-84
11085,-81
11086,-83
11087,-86
11088,-88
11089,-82
11090,-64
11091,-37
11092,0
11093,48
11094,101
11095,159
11096,225
11097,296
11098,371
11099,449
11100,526
11101,594
11102,642
11103,660
11104,625
11105,556
11106,460
11107,344
11108,217
11109,93
11110,-18
11111,-103
11112,-159
11113,-187
11114,-191
11115,-181
11116,-170
11117,-166
11118,-168
11119,-173
11120,-180
11121,-187
11122,-193
11123,-194
11124,-191
11125,-188
11126,-186
11127,-185
11128,-184
11129,-182
11130,-180
11131,-175
11132,-174
11133,-176
11134,-178
11135,-180
11136,-182
11137,-185
11138,-187
11139,-185
11140,-184
11141,-187
11142,-190
11143,-194
11144,-196
11145,-196
11146,-192
11147,-186
11148,-179
11149,-172
11150,-165
11151,-160
11152,-156
11153,-152
11154,-148
11155,-142
11156,-136
11157,-133
11158,-129
11159,-126
11160,-125
11161,-120
11162,-113
11163,-106
11164,-95
11165,-89
11166,-88
11167,-91
11168,-98
11169,-107
11170,-114
11171,-117
11172,-116
11173,-107
11174,-106
11175,-107
11176,-113
11177,-121
11178,-125
11179,-124
11180,-118
11181,-111
11182,-104
11183,-99
11184,-96
11185,-96
11186,-97
11187,-95
11188,-89
11189,-84
11190,-77
11191,-69
11192,-63
11193,-59
11194,-53
11195,-46
11196,-39
11197,-29
11198,-21
11199,-15
11200,-9
11201,-3
11202,0
11203,5
11204,10
11205,16
11206,22
11207,23
11208,22
11209,21
11210,20
11211,20
11212,20
11213,23
11214,27
11215,30
11216,29
11217,28
11218,25
11219,22
11220,23
11221,23
11222,24
11223,26
11224,27
11225,25
11226,22
11227,17
11228,9
11229,2
11230,-2
11231,-5
11232,-10
11233,-17
11234,-25
11235,-33
11236,-39
11237,-45
11238,-50
11239,-53
11240,-57
11241,-64
11242,-87
11243,-100
11244,-111
11245,-120
11246,-124
11247,-126
11248,-126
11249,-129
11250,-134
11251,-139
11252,-145
11253,-148
11254,-148
11255,-147
11256,-148
11257,-151
11258,-157
11259,-166
11260,-175
11261,-181
11262,-183
11263,-180
11264,-173
11265,-166
11266,-159
11267,-158
11268,-162
11269,-165
11270,-168
11271,-171
11272,-167
11273,-159
11274,-151
11275,-145
11276,-146
11277,-153
11278,-158
11279,-161
11280,-161
11281,-158
11282,-153
11283,-148
11284,-143
11285,-140
11286,-136
11287,-133
11288,-129
11289,-123
11290,-116
11291,-112
11292,-112
11293,-112
11294,-113
11295,-115
11296,-109
11297,-105
11298,-101
11299,-98
11300,-96
11301,-95
11302,-94
11303,-93
11304,-90
11305,-82
11306,-77
11307,-73
11308,-68
11309,-67
11310,-69
11311,-68
11312,-65
11313,-61
11314,-58
11315,-58
11316,-59
11317,-65
11318,-70
11319,-69
11320,-63
11321,-56
11322,-47
11323,-37
11324,-30
11325,-28
11326,-31
11327,-35
11328,-35
11329,-34
11330,-29
11331,-23
11332,-16
11333,-14
11334,-15
11335,-17
11336,-18
11337,-17
11338,-17
11339,-12
11340,-5
11341,-1
11342,3
11343,7
11344,10
11345,13
11346,12
11347,10
11348,4
11349,-2
11350,-7
11351,-8
11352,-7
11353,0
11354,0
11355,7
11356,11
11357,13
11358,14
11359,16
11360,16
11361,15
11362,14
11363,16
11364,15
11365,11
11366,7
11367,2
11368,-3
11369,-5
11370,0
11371,9
11372,20
11373,29
11374,35
11375,36
11376,32
11377,23
11378,13
11379,10
11380,19
11381,29
11382,38
11383,45
11384,46
11385,45
11386,42
11387,44
11388,50
11389,58
11390,67
11391,75
11392,80
11393,83
11394,84
11395,86
11396,88
11397,92
11398,96
11399,101
11400,105
11401,107
11402,111
11403,118
11404,126
11405,136
11406,149
11407,161
11408,168
11409,171
11410,173
11411,176
11412,177
11413,180
11414,188
11415,201
11416,202
11417,200
11418,196
11419,188
11420,183
11421,183
11422,185
11423,184
11424,184
11425,184
11426,183
11427,183
11428,186
11429,190
11430,199
11431,208
11432,215
11433,221
11434,224
11435,226
11436,227
11437,230
11438,236
11439,245
11440,253
11441,260
11442,268
11443,276
11444,283
11445,289
11446,296
11447,303
11448,307
11449,311
11450,319
11451,326
11452,343
11453,370
11454,411
11455,462
11456,522
11457,586
11458,653
11459,725
11460,805
11461,890
11462,975
11463,1054
11464,1118
11465,1155
11466,1160
11467,1131
11468,1068
11469,972
11470,854
11471,727
11472,602
11473,483
11474,382
11475,306
11476,255
11477,228
11478,224
11479,233
11480,246
11481,257
11482,264
11483,272
11484,272
11485,273
11486,273
11487,273
11488,275
11489,276
11490,275
11491,273
11492,271
11493,271
11494,274
11495,280
11496,280
11497,284
11498,285
11499,281
11500,271
11501,257
11502,243
11503,229
11504,223
11505,224
11506,230
11507,237
11508,242
11509,241
11510,236
11511,230
11512,220
11513,213
11514,214
11515,219
11516,225
11517,230
11518,229
11519,227
11520,224
11521,221
11522,221
11523,218
11524,213
11525,210
11526,206
11527,200
11528,196
11529,195
11530,196
11531,197
11532,196
11533,194
11534,192
11535,191
11536,191
11537,192
11538,193
11539,193
11540,194
11541,192
11542,188
11543,184
11544,184
11545,185
11546,188
11547,190
11548,192
11549,194
11550,194
11551,193
11552,192
11553,192
11554,191
11555,195
11556,195
11557,195
11558,192
11559,189
11560,189
11561,190
11562,193
11563,197
11564,200
11565,201
11566,199
11567,193
11568,188
11569,183
11570,180
11571,180
11572,180
11573,182
11574,183
11575,182
11576,181
11577,179
11578,177
11579,176
11580,178
11581,178
11582,177
11583,174
11584,168
11585,160
11586,149
11587,140
11588,130
11589,110
11590,100
11591,89
11592,76
11593,66
11594,58
11595,52
11596,48
11597,43
11598,36
11599,26
11600,14
11601,0
11602,-12
11603,-23
11604,-32
11605,-39
11606,-47
11607,-56
11608,-65
11609,-75
11610,-86
11611,-93
11612,-99
11613,-104
11614,-109
11615,-114
11616,-121
11617,-131
11618,-138
11619,-141
11620,-143
11621,-145
11622,-145
11623,-150
11624,-157
11625,-168
11626,-177
11627,-184
11628,-189
11629,-190
11630,-188
11631,-189
11632,-191
11633,-194
11634,-197
11635,-202
11636,-206
11637,-210
11638,-210
11639,-212
11640,-213
11641,-215
11642,-215
11643,-216
11644,-215
11645,-214
11646,-212
11647,-210
11648,-207
11649,-205
11650,-206
11651,-207
11652,-209
11653,-214
11654,-215
11655,-218
11656,-221
11657,-221
11658,-222
11659,-224
11660,-223
11661,-222
11662,-218
11663,-212
11664,-208
11665,-205
11666,-208
11667,-210
11668,-211
11669,-213
11670,-212
11671,-207
11672,-204
11673,-201
11674,-199
11675,-200
11676,-202
11677,-205
11678,-206
11679,-206
11680,-204
11681,-201
11682,-198
11683,-199
11684,-199
11685,-199
11686,-200
11687,-202
11688,-204
11689,-205
11690,-206
11691,-209
11692,-215
11693,-225
11694,-231
11695,-235
11696,-237
11697,-241
11698,-243
11699,-245
11700,-246
11701,-248
11702,-250
11703,-252
11704,-251
11705,-247
11706,-245
11707,-242
11708,-240
11709,-241
11710,-242
11711,-243
11712,-243
11713,-239
11714,-235
11715,-233
11716,-232
11717,-233
11718,-235
11719,-237
11720,-236
11721,-234
11722,-230
11723,-226
11724,-224
11725,-226
11726,-231
11727,-237
11728,-240
11729,-238
11730,-235
11731,-231
11732,-229
11733,-231
11734,-232
11735,-233
11736,-233
11737,-232
11738,-228
11739,-225
11740,-224
11741,-225
11742,-230
11743,-235
11744,-237
11745,-239
11746,-238
11747,-234
11748,-232
11749,-233
11750,-233
11751,-232
11752,-233
11753,-231
11754,-229
11755,-223
11756,-218
11757,-218
11758,-221
11759,-224
11760,-228
11761,-232
11762,-232
11763,-223
11764,-218
11765,-215
11766,-213
11767,-213
11768,-214
11769,-214
11770,-212
11771,-207
11772,-202
11773,-196
11774,-191
11775,-189
11776,-189
11777,-190
11778,-189
11779,-189
11780,-188
11781,-188
11782,-187
11783,-189
11784,-194
11785,-200
11786,-209
11787,-219
11788,-227
11789,-233
11790,-238
11791,-240
11792,-244
11793,-248
11794,-253
11795,-256
11796,-256
11797,-251
11798,-247
11799,-236
11800,-235
11801,-236
11802,-240
11803,-242
11804,-244
11805,-244
11806,-243
11807,-240
11808,-240
11809,-242
11810,-241
11811,-237
11812,-230
11813,-221
11814,-211
11815,-202
11816,-193
11817,-183
11818,-168
11819,-144
11820,-108
11821,-58
11822,4
11823,76
11824,153
11825,233
11826,311
11827,382
11828,447
11829,497
11830,530
11831,541
11832,526
11833,482
11834,298
11835,177
11836,52
11837,-65
11838,-165
11839,-237
11840,-284
11841,-308
11842,-315
11843,-311
11844,-306
11845,-302
11846,-296
11847,-288
11848,-282
11849,-277
11850,-275
11851,-277
11852,-281
11853,-284
11854,-285
11855,-283
11856,-281
11857,-280
11858,-278
11859,-279
11860,-281
11861,-282
11862,-280
11863,-277
11864,-273
11865,-270
11866,-269
11867,-271
11868,-275
11869,-282
11870,-279
11871,-273
11872,-267
11873,-261
11874,-256
11875,-253
11876,-253
11877,-252
11878,-249
11879,-244
11880,-239
11881,-236
11882,-235
11883,-237
11884,-242
11885,-244
11886,-244
11887,-243
11888,-240
11889,-236
11890,-231
11891,-229
11892,-227
11893,-228
11894,-226
11895,-221
11896,-214
11897,-209
11898,-206
11899,-205
11900,-206
11901,-209
11902,-211
11903,-210
11904,-209
11905,-206
11906,-203
11907,-202
11908,-202
11909,-204
11910,-202
11911,-199
11912,-195
11913,-189
11914,-185
11915,-185
11916,-186
11917,-188
11918,-188
11919,-186
11920,-182
11921,-174
11922,-163
11923,-163
11924,-153
11925,-144
11926,-137
11927,-134
11928,-131
11929,-128
11930,-125
11931,-121
11932,-118
11933,-116
11934,-111
11935,-108
11936,-105
11937,-101
11938,-92
11939,-88
11940,-85
11941,-85
11942,-87
11943,-90
11944,-92
11945,-92
11946,-89
11947,-88
11948,-86
11949,-84
11950,-85
11951,-89
11952,-93
11953,-99
11954,-105
11955,-109
11956,-111
11957,-114
11958,-116
11959,-121
11960,-128
11961,-135
11962,-141
11963,-147
11964,-154
11965,-162
11966,-168
11967,-176
11968,-185
11969,-194
11970,-202
11971,-207
11972,-213
11973,-215
11974,-219
11975,-228
11976,-237
11977,-244
11978,-248
11979,-250
11980,-247
11981,-243
11982,-239
11983,-236
11984,-239
11985,-243
11986,-248
11987,-254
11988,-259
11989,-263
11990,-265
11991,-266
11992,-269
11993,-272
11994,-273
11995,-273
11996,-270
11997,-266
11998,-263
11999,-261
12000,-257
12001,-253
12002,-248
12003,-246
12004,-242
12005,-237
12006,-234
12007,-234
12008,-235
12009,-238
12010,-238
12011,-235
12012,-231
12013,-227
12014,-227
12015,-227
12016,-225
12017,-225
12018,-223
12019,-217
12020,-210
12021,-202
12022,-194
12023,-189
12024,-186
12025,-184
12026,-184
12027,-182
12028,-178
12029,-173
12030,-168
12031,-162
12032,-157
12033,-154
12034,-152
12035,-151
12036,-150
12037,-149
12038,-146
12039,-143
12040,-142
12041,-142
12042,-140
12043,-139
12044,-137
12045,-133
12046,-130
12047,-129
12048,-127
12049,-126
12050,-127
12051,-127
12052,-128
12053,-127
12054,-125
12055,-125
12056,-126
12057,-128
12058,-131
12059,-133
12060,-131
12061,-128
12062,-124
12063,-119
12064,-116
12065,-116
12066,-114
12067,-116
12068,-121
12069,-126
12070,-129
12071,-130
12072,-128
12073,-126
12074,-124
12075,-123
12076,-127
12077,-127
12078,-126
12079,-124
12080,-121
12081,-117
12082,-114
12083,-112
12084,-113
12085,-114
12086,-114
12087,-113
12088,-111
12089,-107
12090,-104
12091,-103
12092,-103
12093,-103
12094,-103
12095,-102
12096,-99
12097,-96
12098,-95
12099,-94
12100,-95
12101,-97
12102,-99
12103,-100
12104,-96
12105,-90
12106,-85
12107,-82
12108,-80
12109,-82
12110,-90
12111,-92
12112,-94
12113,-93
12114,-88
12115,-83
12116,-79
12117,-78
12118,-75
12119,-72
12120,-69
12121,-65
12122,-60
12123,-57
12124,-58
12125,-62
12126,-68
12127,-75
12128,-82
12129,-86
12130,-87
12131,-89
12132,-93
12133,-101
12134,-109
12135,-118
12136,-122
12137,-125
12138,-127
12139,-126
12140,-124
12141,-122
12142,-122
12143,-123
12144,-123
12145,-122
12146,-121
12147,-117
12148,-116
12149,-116
12150,-116
12151,-113
12152,-112
12153,-111
12154,-108
12155,-106
12156,-103
12157,-102
12158,-101
12159,-97
12160,-93
12161,-89
12162,-81
12163,-69
12164,-51
12165,-26
12166,8
12167,51
12168,105
12169,168
12170,241
12171,323
12172,407
12173,484
12174,554
12175,609
12176,642
12177,651
12178,594
12179,524
12180,426
12181,310
12182,186
12183,65
12184,-42
12185,-123
12186,-176
12187,-204
12188,-212
12189,-206
12190,-199
12191,-195
12192,-195
12193,-195
12194,-194
12195,-191
12196,-188
12197,-185
12198,-184
12199,-185
12200,-186
12201,-185
12202,-184
12203,-180
12204,-176
12205,-173
12206,-170
12207,-170
12208,-168
12209,-170
12210,-171
12211,-172
12212,-171
12213,-169
12214,-163
12215,-163
12216,-165
12217,-168
12218,-171
12219,-171
12220,-169
12221,-165
12222,-160
12223,-155
12224,-154
12225,-157
12226,-160
12227,-160
12228,-156
12229,-148
12230,-139
12231,-131
12232,-128
12233,-131
12234,-135
12235,-140
12236,-145
12237,-144
12238,-138
12239,-131
12240,-121
12241,-115
12242,-115
12243,-117
12244,-117
12245,-117
12246,-112
12247,-104
12248,-107
12249,-113
12250,-124
12251,-135
12252,-147
12253,-154
12254,-149
12255,-139
12256,-130
12257,-125
12258,-124
12259,-128
12260,-134
12261,-137
12262,-132
12263,-127
12264,-124
12265,-119
12266,-112
12267,-111
12268,-115
12269,-115
12270,-111
12271,-102
12272,-90
12273,-79
12274,-70
12275,-65
12276,-61
12277,-56
12278,-47
12279,-40
12280,-31
12281,-15
12282,-10
12283,-6
12284,-3
12285,-1
12286,1
12287,5
12288,9
12289,11
12290,11
12291,9
12292,7
12293,4
12294,2
12295,3
12296,7
12297,10
12298,11
12299,11
12300,7
12301,1
12302,-4
12303,-10
12304,-14
12305,-18
12306,-23
12307,-28
12308,-36
12309,-48
12310,-59
12311,-68
12312,-77
12313,-85
12314,-91
12315,-99
12316,-117
12317,-127
12318,-133
12319,-137
12320,-138
12321,-136
12322,-137
12323,-141
12324,-145
12325,-152
12326,-158
12327,-164
12328,-167
12329,-170
12330,-172
12331,-177
12332,-183
12333,-192
12334,-203
12335,-211
12336,-216
12337,-220
12338,-222
12339,-224
12340,-227
12341,-229
12342,-234
12343,-239
12344,-242
12345,-245
12346,-245
12347,-245
12348,-247
12349,-251
12350,-255
12351,-259
12352,-263
12353,-264
12354,-262
12355,-260
12356,-256
12357,-253
12358,-254
12359,-256
12360,-257
12361,-258
12362,-258
12363,-254
12364,-252
12365,-250
12366,-248
12367,-249
12368,-250
12369,-250
12370,-251
12371,-246
12372,-239
12373,-233
12374,-228
12375,-224
12376,-223
12377,-223
12378,-223
12379,-220
12380,-217
12381,-212
12382,-208
12383,-203
12384,-201
12385,-203
12386,-201
12387,-197
12388,-191
12389,-184
12390,-175
12391,-172
12392,-178
12393,-190
12394,-205
12395,-220
12396,-231
12397,-237
12398,-233
12399,-229
12400,-226
12401,-220
12402,-214
12403,-212
12404,-210
12405,-208
12406,-208
12407,-208
12408,-211
12409,-216
12410,-222
12411,-228
12412,-226
12413,-217
12414,-209
12415,-202
12416,-196
12417,-195
12418,-198
12419,-199
12420,-198
12421,-194
12422,-185
12423,-173
12424,-163
12425,-159
12426,-159
12427,-162
12428,-168
12429,-179
12430,-191
12431,-202
12432,-213
12433,-219
12434,-219
12435,-214
12436,-205
12437,-194
12438,-185
12439,-178
12440,-174
12441,-174
12442,-177
12443,-179
12444,-179
12445,-178
12446,-172
12447,-166
12448,-162
12449,-161
12450,-162
12451,-164
12452,-165
12453,-164
12454,-153
12455,-144
12456,-137
12457,-130
12458,-127
12459,-128
12460,-128
12461,-127
12462,-128
12463,-127
12464,-126
12465,-126
12466,-127
12467,-129
12468,-132
12469,-134
12470,-135
12471,-133
12472,-130
12473,-129
12474,-131
12475,-134
12476,-136
12477,-137
12478,-137
12479,-133
12480,-127
12481,-121
12482,-117
12483,-114
12484,-115
12485,-117
12486,-118
12487,-118
12488,-118
12489,-119
12490,-122
12491,-125
12492,-125
12493,-128
12494,-129
12495,-129
12496,-127
12497,-124
12498,-123
12499,-122
12500,-124
12501,-125
12502,-124
12503,-123
12504,-121
12505,-118
12506,-118
12507,-119
12508,-124
12509,-133
12510,-144
12511,-155
12512,-164
12513,-171
12514,-176
12515,-179
12516,-182
12517,-184
12518,-185
12519,-185
12520,-185
12521,-185
12522,-184
12523,-183
12524,-185
12525,-186
12526,-187
12527,-187
12528,-185
12529,-182
12530,-179
12531,-178
12532,-178
12533,-178
12534,-180
12535,-181
12536,-180
12537,-177
12538,-172
12539,-166
12540,-159
12541,-147
12542,-127
12543,-99
12544,-58
12545,-5
12546,58
12547,130
12548,206
12549,287
12550,370
12551,449
12552,525
12553,592
12554,640
12555,664
12556,659
12557,551
12558,449
12559,321
12560,188
12561,59
12562,-54
12563,-142
12564,-205
12565,-247
12566,-267
12567,-275
12568,-277
12569,-277
12570,-274
12571,-269
12572,-262
12573,-256
12574,-250
12575,-247
12576,-247
12577,-246
12578,-241
12579,-235
12580,-227
12581,-220
12582,-212
12583,-208
12584,-207
12585,-206
12586,-201
12587,-197
12588,-191
12589,-184
12590,-177
12591,-174
12592,-174
12593,-174
12594,-174
12595,-173
12596,-170
12597,-165
12598,-162
12599,-161
12600,-161
12601,-161
12602,-160
12603,-159
12604,-156
12605,-152
12606,-150
12607,-151
12608,-153
12609,-157
12610,-160
12611,-161
12612,-162
12613,-161
12614,-161
12615,-164
12616,-166
12617,-169
12618,-171
12619,-170
12620,-165
12621,-160
12622,-156
12623,-153
12624,-155
12625,-162
12626,-164
12627,-163
12628,-158
12629,-153
12630,-146
12631,-139
12632,-135
12633,-133
12634,-133
12635,-131
12636,-128
12637,-126
12638,-125
12639,-124
12640,-122
12641,-119
12642,-118
12643,-117
12644,-113
12645,-109
12646,-105
12647,-100
12648,-96
12649,-95
12650,-94
12651,-93
12652,-91
12653,-86
12654,-80
12655,-73
12656,-66
12657,-63
12658,-62
12659,-62
12660,-64
12661,-59
12662,-53
12663,-47
12664,-42
12665,-40
12666,-41
12667,-45
12668,-49
12669,-53
12670,-54
12671,-52
12672,-50
12673,-49
12674,-50
12675,-53
12676,-57
12677,-61
12678,-63
12679,-64
12680,-62
12681,-62
12682,-64
12683,-69
12684,-77
12685,-85
12686,-92
12687,-97
12688,-100
12689,-101
12690,-104
12691,-108
12692,-113
12693,-122
12694,-132
12695,-144
12696,-149
12697,-154
12698,-158
12699,-162
12700,-167
12701,-170
12702,-170
12703,-168
12704,-164
12705,-162
12706,-162
12707,-169
12708,-180
12709,-195
12710,-206
12711,-214
12712,-219
12713,-215
12714,-207
12715,-203
12716,-201
12717,-203
12718,-209
12719,-215
12720,-219
12721,-219
12722,-213
12723,-209
12724,-205
12725,-202
12726,-204
12727,-212
12728,-217
12729,-216
12730,-212
12731,-209
12732,-207
12733,-207
12734,-210
12735,-211
12736,-210
12737,-208
12738,-204
12739,-197
12740,-192
12741,-188
12742,-188
12743,-188
12744,-186
12745,-183
12746,-177
12747,-172
12748,-167
12749,-165
12750,-161
12751,-159
12752,-157
12753,-152
12754,-149
12755,-147
12756,-145
12757,-145
12758,-146
12759,-145
12760,-146
12761,-145
12762,-144
12763,-147
12764,-150
12765,-158
12766,-167
