,ECG
0,-1
1,-3
2,-5
3,-8
4,-11
5,-11
6,-12
7,-15
8,-14
9,-14
10,-11
11,-7
12,0
13,8
14,14
15,17
16,16
17,8
18,0
19,-10
20,-18
21,-20
22,-18
23,-14
24,-6
25,0
26,4
27,7
28,8
29,8
30,10
31,10
32,9
33,11
34,11
35,8
36,7
37,2
38,1
39,2
40,3
41,4
42,6
43,5
44,5
45,9
46,9
47,12
48,16
49,20
50,23
51,25
52,27
53,32
54,35
55,39
56,42
57,42
58,39
59,38
60,36
61,35
62,34
63,32
64,31
65,28
66,20
67,10
68,1
69,-4
70,-6
71,-4
72,1
73,7
74,14
75,18
76,22
77,23
78,22
79,22
80,25
81,26
82,26
83,25
84,23
85,17
86,13
87,10
88,9
89,11
90,14
91,19
92,25
93,29
94,31
95,33
96,34
97,34
98,36
99,38
100,38
101,39
102,39
103,39
104,42
105,45
106,49
107,53
108,58
109,63
110,70
111,74
112,73
113,73
114,73
115,72
116,71
117,77
118,82
119,86
120,92
121,92
122,96
123,96
124,94
125,87
126,78
127,67
128,54
129,45
130,37
131,28
132,19
133,15
134,8
135,2
136,-3
137,-11
138,-15
139,-16
140,-15
141,-13
142,-11
143,-8
144,-5
145,-3
146,-3
147,-2
148,-1
149,0
150,0
151,1
152,6
153,7
154,7
155,5
156,3
157,1
158,-1
159,-2
160,-2
161,0
162,6
163,13
164,18
165,21
166,18
167,14
168,12
169,16
170,30
171,61
172,105
173,164
174,231
175,306
176,384
177,457
178,511
179,543
180,554
181,545
182,513
183,456
184,375
185,271
186,149
187,13
188,-250
189,-351
190,-413
191,-431
192,-407
193,-357
194,-297
195,-233
196,-174
197,-125
198,-86
199,-56
200,-35
201,-21
202,-12
203,-5
204,0
205,5
206,10
207,12
208,12
209,12
210,13
211,16
212,24
213,30
214,38
215,48
216,54
217,56
218,59
219,56
220,47
221,42
222,35
223,30
224,34
225,42
226,50
227,55
228,59
229,59
230,52
231,43
232,39
233,33
234,30
235,33
236,37
237,38
238,40
239,42
240,46
241,49
242,50
243,51
244,54
245,55
246,57
247,61
248,64
249,65
250,64
251,61
252,58
253,55
254,52
255,50
256,51
257,52
258,58
259,65
260,71
261,75
262,78
263,78
264,83
265,85
266,84
267,83
268,81
269,79
270,79
271,81
272,87
273,93
274,97
275,104
276,109
277,111
278,113
279,118
280,123
281,128
282,133
283,141
284,150
285,153
286,154
287,156
288,157
289,158
290,160
291,163
292,168
293,171
294,175
295,187
296,188
297,189
298,188
299,183
300,177
301,170
302,165
303,163
304,165
305,168
306,171
307,173
308,173
309,174
310,172
311,167
312,164
313,160
314,151
315,138
316,128
317,117
318,103
319,91
320,86
321,83
322,78
323,74
324,73
325,70
326,64
327,54
328,45
329,37
330,18
331,14
332,7
333,-1
334,-6
335,-11
336,-19
337,-22
338,-24
339,-26
340,-28
341,-31
342,-37
343,-43
344,-48
345,-51
346,-52
347,-51
348,-51
349,-47
350,-41
351,-39
352,-37
353,-33
354,-30
355,-27
356,-22
357,-19
358,-16
359,-14
360,-13
361,-11
362,-12
363,-14
364,-16
365,-24
366,-26
367,-24
368,-23
369,-23
370,-21
371,-18
372,-15
373,-14
374,-13
375,-13
376,-18
377,-21
378,-22
379,-24
380,-26
381,-27
382,-25
383,-22
384,-17
385,-15
386,-15
387,-14
388,-13
389,-14
390,-15
391,-16
392,-17
393,-17
394,-14
395,-9
396,-2
397,5
398,8
399,11
400,10
401,-2
402,-7
403,-11
404,-14
405,-11
406,-11
407,-7
408,-2
409,4
410,10
411,14
412,17
413,20
414,21
415,21
416,19
417,16
418,12
419,8
420,4
421,3
422,3
423,4
424,10
425,19
426,24
427,25
428,24
429,19
430,15
431,10
432,9
433,15
434,19
435,24
436,30
437,30
438,29
439,27
440,27
441,30
442,33
443,36
444,42
445,45
446,49
447,53
448,56
449,61
450,66
451,70
452,75
453,77
454,76
455,74
456,74
457,74
458,75
459,80
460,86
461,95
462,102
463,108
464,112
465,111
466,107
467,102
468,96
469,89
470,85
471,81
472,78
473,73
474,66
475,56
476,45
477,33
478,23
479,17
480,12
481,10
482,12
483,16
484,18
485,20
486,21
487,20
488,22
489,22
490,22
491,22
492,19
493,17
494,17
495,15
496,11
497,11
498,11
499,12
500,15
501,20
502,24
503,25
504,23
505,19
506,14
507,6
508,9
509,13
510,18
511,25
512,29
513,37
514,50
515,72
516,108
517,155
518,214
519,285
520,366
521,445
522,514
523,562
524,585
525,582
526,559
527,506
528,426
529,323
530,201
531,65
532,-71
533,-197
534,-302
535,-375
536,-408
537,-400
538,-362
539,-312
540,-258
541,-201
542,-102
543,-64
544,-30
545,-4
546,12
547,26
548,26
549,35
550,40
551,40
552,37
553,33
554,31
555,32
556,35
557,40
558,48
559,57
560,64
561,69
562,71
563,70
564,66
565,63
566,58
567,51
568,46
569,42
570,41
571,41
572,42
573,44
574,47
575,48
576,50
577,55
578,62
579,67
580,70
581,69
582,66
583,64
584,62
585,60
586,58
587,57
588,60
589,65
590,71
591,77
592,83
593,88
594,92
595,97
596,99
597,100
598,98
599,98
600,95
601,96
602,94
603,93
604,92
605,92
606,92
607,93
608,94
609,97
610,102
611,109
612,117
613,124
614,136
615,138
616,139
617,143
618,145
619,143
620,142
621,142
622,142
623,142
624,141
625,141
626,143
627,144
628,149
629,154
630,159
631,165
632,169
633,173
634,178
635,181
636,181
637,185
638,188
639,194
640,200
641,204
642,207
643,207
644,205
645,205
646,205
647,205
648,206
649,206
650,211
651,214
652,212
653,210
654,207
655,202
656,194
657,182
658,169
659,155
660,141
661,127
662,115
663,103
664,92
665,85
666,83
667,81
668,80
669,75
670,70
671,61
672,50
673,37
674,25
675,17
676,15
677,13
678,12
679,13
680,11
681,4
682,-2
683,-4
684,-6
685,-8
686,-1
687,4
688,4
689,3
690,3
691,0
692,-7
693,-17
694,-25
695,-28
696,-32
697,-31
698,-25
699,-18
700,-11
701,-6
702,-3
703,-2
704,0
705,0
706,0
707,-3
708,-3
709,-2
710,-3
711,-4
712,-3
713,-1
714,-1
715,-1
716,0
717,-1
718,-5
719,-9
720,-11
721,-13
722,-12
723,-3
724,1
725,2
726,2
727,3
728,4
729,8
730,16
731,22
732,29
733,32
734,30
735,26
736,22
737,17
738,18
739,20
740,24
741,28
742,29
743,28
744,30
745,31
746,31
747,34
748,35
749,35
750,33
751,29
752,26
753,20
754,17
755,16
756,16
757,18
758,23
759,26
760,29
761,31
762,34
763,38
764,42
765,43
766,41
767,42
768,44
769,43
770,44
771,46
772,44
773,39
774,32
775,25
776,19
777,11
778,6
779,8
780,10
781,14
782,21
783,26
784,32
785,37
786,41
787,44
788,48
789,48
790,47
791,47
792,50
793,62
794,71
795,86
796,98
797,107
798,114
799,115
800,110
801,102
802,96
803,90
804,85
805,81
806,81
807,81
808,80
809,83
810,91
811,97
812,103
813,110
814,112
815,109
816,101
817,88
818,72
819,57
820,42
821,32
822,24
823,14
824,7
825,0
826,-6
827,-10
828,-13
829,-12
830,-9
831,-5
832,-5
833,0
834,3
835,9
836,14
837,16
838,19
839,20
840,16
841,16
842,14
843,12
844,12
845,12
846,12
847,12
848,12
849,11
850,11
851,8
852,9
853,11
854,9
855,4
856,0
857,-1
858,5
859,25
860,61
861,112
862,174
863,241
864,315
865,392
866,519
867,560
868,580
869,576
870,550
871,499
872,422
873,322
874,200
875,66
876,-67
877,-197
878,-311
879,-390
880,-427
881,-423
882,-387
883,-333
884,-272
885,-211
886,-157
887,-111
888,-73
889,-43
890,-21
891,-7
892,3
893,6
894,5
895,4
896,6
897,9
898,13
899,17
900,19
901,20
902,19
903,15
904,13
905,12
906,15
907,20
908,26
909,31
910,37
911,43
912,48
913,58
914,69
915,76
916,85
917,89
918,86
919,78
920,65
921,51
922,40
923,32
924,27
925,28
926,29
927,31
928,34
929,37
930,38
931,40
932,42
933,44
934,46
935,48
936,51
937,60
938,66
939,72
940,76
941,79
942,81
943,80
944,79
945,78
946,75
947,73
948,74
949,76
950,78
951,81
952,85
953,91
954,95
955,100
956,106
957,116
958,130
959,148
960,166
961,178
962,185
963,185
964,180
965,171
966,160
967,151
968,148
969,151
970,155
971,159
972,161
973,164
974,171
975,171
976,179
977,189
978,199
979,210
980,218
981,222
982,220
983,219
984,218
985,218
986,221
987,224
988,226
989,227
990,223
991,219
992,213
993,206
994,200
995,198
996,197
997,196
998,196
999,196
1000,195
1001,192
1002,188
1003,182
1004,177
1005,172
1006,167
1007,161
1008,153
1009,144
1010,122
1011,110
1012,99
1013,92
1014,84
1015,76
1016,73
1017,68
1018,63
1019,60
1020,56
1021,50
1022,46
1023,39
1024,28
1025,19
1026,13
1027,8
1028,9
1029,10
1030,13
1031,17
1032,16
1033,13
1034,8
1035,0
1036,-7
1037,-12
1038,-15
1039,-15
1040,-12
1041,-9
1042,-5
1043,-1
1044,0
1045,-1
1046,-4
1047,-5
1048,-7
1049,-5
1050,-2
1051,2
1052,9
1053,16
1054,23
1055,27
1056,26
1057,24
1058,21
1059,14
1060,7
1061,3
1062,1
1063,1
1064,2
1065,6
1066,10
1067,16
1068,21
1069,27
1070,28
1071,26
1072,22
1073,17
1074,14
1075,9
1076,7
1077,13
1078,19
1079,24
1080,30
1081,34
1082,29
1083,23
1084,18
1085,14
1086,12
1087,14
1088,19
1089,25
1090,30
1091,34
1092,39
1093,39
1094,38
1095,38
1096,38
1097,38
1098,40
1099,42
1100,44
1101,46
1102,47
1103,50
1104,53
1105,53
1106,52
1107,53
1108,54
1109,54
1110,55
1111,58
1112,57
1113,56
1114,53
1115,50
1116,47
1117,44
1118,44
1119,46
1120,49
1121,50
1122,51
1123,52
1124,49
1125,45
1126,41
1127,38
1128,36
1129,37
1130,40
1131,45
1132,48
1133,48
1134,46
1135,41
1136,35
1137,27
1138,19
1139,15
1140,16
1141,19
1142,24
1143,28
1144,32
1145,35
1146,36
1147,36
1148,37
1149,37
1150,34
1151,35
1152,37
1153,38
1154,39
1155,41
1156,43
1157,46
1158,53
1159,57
1160,59
1161,62
1162,61
1163,60
1164,60
1165,59
1166,56
1167,53
1168,49
1169,46
1170,41
1171,37
1172,35
1173,37
1174,41
1175,44
1176,45
1177,44
1178,41
1179,40
1180,41
1181,44
1182,48
1183,53
1184,60
1185,66
1186,70
1187,71
1188,74
1189,79
1190,88
1191,96
1192,103
1193,108
1194,113
1195,116
1196,113
1197,108
1198,104
1199,100
1200,97
1201,94
1202,94
1203,95
1204,96
1205,98
1206,102
1207,108
1208,114
1209,122
1210,128
1211,131
1212,132
1213,132
1214,132
1215,129
1216,126
1217,122
1218,117
1219,109
1220,99
1221,88
1222,78
1223,68
1224,61
1225,56
1226,53
1227,54
1228,55
1229,57
1230,58
1231,59
1232,56
1233,49
1234,41
1235,33
1236,25
1237,21
1238,20
1239,22
1240,25
1241,29
1242,32
1243,35
1244,37
1245,36
1246,33
1247,31
1248,29
1249,26
1250,24
1251,22
1252,22
1253,24
1254,27
1255,28
1256,29
1257,29
1258,32
1259,32
1260,32
1261,66
1262,103
1263,208
1264,278
1265,356
1266,437
1267,508
1268,564
1269,597
1270,605
1271,589
1272,550
1273,488
1274,400
1275,293
1276,172
1277,43
1278,-88
1279,-209
1280,-308
1281,-374
1282,-396
1283,-376
1284,-329
1285,-265
1286,-200
1287,-139
1288,-83
1289,-42
1290,-17
1291,-3
1292,0
1293,-1
1294,-2
1295,-3
1296,-1
1297,14
1298,19
1299,25
1300,27
1301,24
1302,20
1303,17
1304,16
1305,19
1306,24
1307,31
1308,38
1309,44
1310,46
1311,47
1312,48
1313,47
1314,46
1315,46
1316,45
1317,46
1318,46
1319,43
1320,37
1321,35
1322,34
1323,35
1324,40
1325,46
1326,55
1327,62
1328,67
1329,66
1330,63
1331,56
1332,43
1333,40
1334,40
1335,44
1336,49
1337,54
1338,57
1339,59
1340,58
1341,57
1342,59
1343,61
1344,63
1345,66
1346,70
1347,72
1348,72
1349,73
1350,75
1351,78
1352,81
1353,85
1354,88
1355,89
1356,88
1357,88
1358,90
1359,88
1360,87
1361,88
1362,88
1363,89
1364,93
1365,101
1366,109
1367,118
1368,132
1369,137
1370,140
1371,145
1372,151
1373,156
1374,159
1375,163
1376,167
1377,168
1378,170
1379,173
1380,178
1381,182
1382,189
1383,199
1384,203
1385,206
1386,206
1387,203
1388,199
1389,194
1390,189
1391,188
1392,189
1393,189
1394,192
1395,195
1396,191
1397,185
1398,179
1399,172
1400,168
1401,166
1402,166
1403,166
1404,167
1405,167
1406,167
1407,166
1408,162
1409,156
1410,147
1411,137
1412,124
1413,112
1414,100
1415,90
1416,80
1417,72
1418,63
1419,54
1420,45
1421,38
1422,34
1423,30
1424,26
1425,22
1426,19
1427,13
1428,5
1429,-1
1430,-7
1431,-10
1432,-11
1433,-13
1434,-12
1435,-9
1436,-9
1437,-8
1438,-7
1439,-8
1440,-11
1441,-15
1442,-17
1443,-17
1444,-16
1445,-10
1446,-4
1447,-2
1448,-1
1449,-4
1450,-9
1451,-11
1452,-16
1453,-20
1454,-19
1455,-14
1456,-8
1457,-6
1458,-5
1459,-4
1460,-6
1461,-9
1462,-9
1463,-6
1464,-5
1465,-3
1466,0
1467,0
1468,-5
1469,-9
1470,-10
1471,-10
1472,-8
1473,-4
1474,0
1475,2
1476,6
1477,8
1478,8
1479,10
1480,12
1481,12
1482,11
1483,9
1484,5
1485,5
1486,6
1487,9
1488,12
1489,15
1490,16
1491,16
1492,12
1493,8
1494,6
1495,4
1496,3
1497,5
1498,6
1499,7
1500,8
1501,8
1502,8
1503,9
1504,8
1505,8
1506,10
1507,14
1508,16
1509,17
1510,18
1511,20
1512,21
1513,20
1514,21
1515,22
1516,23
1517,25
1518,27
1519,25
1520,24
1521,25
1522,30
1523,36
1524,41
1525,44
1526,45
1527,43
1528,34
1529,23
1530,15
1531,9
1532,8
1533,15
1534,25
1535,35
1536,43
1537,48
1538,49
1539,45
1540,39
1541,38
1542,41
1543,47
1544,47
1545,58
1546,71
1547,83
1548,97
1549,97
1550,96
1551,90
1552,82
1553,79
1554,76
1555,72
1556,72
1557,70
1558,68
1559,70
1560,68
1561,67
1562,68
1563,66
1564,63
1565,60
1566,55
1567,44
1568,32
1569,18
1570,4
1571,-7
1572,-15
1573,-18
1574,-15
1575,-10
1576,-4
1577,-1
1578,0
1579,1
1580,-1
1581,-4
1582,-9
1583,-13
1584,-15
1585,-16
1586,-16
1587,-15
1588,-11
1589,-6
1590,0
1591,4
1592,9
1593,12
1594,10
1595,10
1596,10
1597,7
1598,3
1599,5
1600,9
1601,9
1602,6
1603,2
1604,-3
1605,-4
1606,4
1607,31
1608,73
1609,128
1610,194
1611,271
1612,351
1613,428
1614,494
1615,541
1616,562
1617,562
1618,536
1619,484
1620,307
1621,187
1622,57
1623,-77
1624,-205
1625,-315
1626,-396
1627,-437
1628,-435
1629,-400
1630,-345
1631,-280
1632,-216
1633,-158
1634,-111
1635,-74
1636,-46
1637,-27
1638,-15
1639,-6
1640,-2
1641,-1
1642,0
1643,2
1644,5
1645,5
1646,7
1647,11
1648,17
1649,20
1650,21
1651,24
1652,25
1653,23
1654,20
1655,20
1656,16
1657,16
1658,19
1659,23
1660,25
1661,30
1662,36
1663,39
1664,38
1665,37
1666,39
1667,39
1668,38
1669,41
1670,48
1671,52
1672,56
1673,60
1674,63
1675,63
1676,60
1677,57
1678,56
1679,53
1680,49
1681,50
1682,52
1683,52
1684,53
1685,54
1686,54
1687,54
1688,50
1689,49
1690,48
1691,50
1692,58
1693,63
1694,73
1695,81
1696,87
1697,94
1698,103
1699,108
1700,113
1701,114
1702,111
1703,109
1704,105
1705,100
1706,98
1707,98
1708,98
1709,104
1710,111
1711,117
1712,124
1713,131
1714,140
1715,148
1716,154
1717,160
1718,166
1719,171
1720,173
1721,175
1722,177
1723,178
1724,181
1725,180
1726,181
1727,181
1728,182
1729,187
1730,190
1731,195
1732,199
1733,202
1734,203
1735,203
1736,201
1737,199
1738,199
1739,201
1740,204
1741,205
1742,206
1743,204
1744,200
1745,198
1746,195
1747,191
1748,187
1749,182
1750,175
1751,167
1752,157
1753,143
1754,132
1755,123
1756,111
1757,101
1758,93
1759,82
1760,73
1761,67
1762,63
1763,57
1764,54
1765,51
1766,45
1767,34
1768,20
1769,10
1770,0
1771,-6
1772,-10
1773,-9
1774,-6
1775,-3
1776,-1
1777,-1
1778,-2
1779,-5
1780,-8
1781,-8
1782,-6
1783,-3
1784,-2
1785,-2
1786,-3
1787,-4
1788,-7
1789,-10
1790,-10
1791,-8
1792,-6
1793,-4
1794,-2
1795,-1
1796,1
1797,3
1798,0
1799,0
1800,-2
1801,-6
1802,-8
1803,-11
1804,-14
1805,-17
1806,-17
1807,-15
1808,-13
1809,-12
1810,-6
1811,0
1812,4
1813,7
1814,12
1815,18
1816,22
1817,26
1818,29
1819,30
1820,28
1821,27
1822,24
1823,21
1824,19
1825,17
1826,16
1827,16
1828,16
1829,17
1830,22
1831,28
1832,36
1833,47
1834,55
1835,58
1836,54
1837,47
1838,38
1839,29
1840,24
1841,21
1842,19
1843,21
1844,23
1845,23
1846,25
1847,26
1848,27
1849,30
1850,34
1851,38
1852,42
1853,43
1854,43
1855,42
1856,38
1857,37
1858,41
1859,45
1860,48
1861,51
1862,53
1863,52
1864,47
1865,41
1866,37
1867,35
1868,32
1869,32
1870,35
1871,37
1872,40
1873,43
1874,47
1875,49
1876,49
1877,53
1878,61
1879,69
1880,80
1881,91
1882,101
1883,111
1884,117
1885,118
1886,117
1887,113
1888,104
1889,97
1890,90
1891,83
1892,78
1893,77
1894,77
1895,80
1896,83
1897,83
1898,80
1899,76
1900,73
1901,70
1902,64
1903,59
1904,52
1905,33
1906,25
1907,18
1908,11
1909,4
1910,1
1911,1
1912,-2
1913,-6
1914,-6
1915,-6
1916,-7
1917,-5
1918,-2
1919,0
1920,0
1921,1
1922,3
1923,2
1924,0
1925,1
1926,4
1927,5
1928,8
1929,11
1930,12
1931,11
1932,9
1933,6
1934,3
1935,0
1936,-2
1937,0
1938,0
1939,-3
1940,-6
1941,-8
1942,2
1943,27
1944,68
1945,125
1946,191
1947,265
1948,349
1949,429
1950,497
1951,544
1952,565
1953,560
1954,533
1955,483
1956,409
1957,315
1958,204
1959,79
1960,-50
1961,-173
1962,-283
1963,-363
1964,-406
1965,-407
1966,-374
1967,-322
1968,-264
1969,-205
1970,-205
1971,-153
1972,-110
1973,-75
1974,-48
1975,-31
1976,-22
1977,-17
1978,-11
1979,-5
1980,0
1981,5
1982,11
1983,15
1984,15
1985,13
1986,12
1987,12
1988,11
1989,14
1990,18
1991,20
1992,22
1993,26
1994,29
1995,33
1996,35
1997,36
1998,38
1999,37
2000,31
2001,27
2002,23
2003,19
2004,19
2005,23
2006,28
2007,35
2008,41
2009,44
2010,45
2011,46
2012,46
2013,49
2014,53
2015,55
2016,56
2017,57
2018,59
2019,61
2020,62
2021,65
2022,68
2023,69
2024,67
2025,64
2026,61
2027,59
2028,61
2029,65
2030,71
2031,76
2032,78
2033,81
2034,84
2035,86
2036,92
2037,98
2038,104
2039,112
2040,117
2041,118
2042,120
2043,120
2044,119
2045,121
2046,124
2047,128
2048,133
2049,142
2050,148
2051,149
2052,150
2053,153
2054,155
2055,159
2056,165
2057,171
2058,179
2059,184
2060,189
2061,193
2062,197
2063,199
2064,202
2065,206
2066,211
2067,216
2068,221
2069,224
2070,229
2071,233
2072,235
2073,237
2074,236
2075,232
2076,226
2077,220
2078,215
2079,211
2080,208
2081,207
2082,207
2083,208
2084,205
2085,199
2086,181
2087,172
2088,165
2089,159
2090,154
2091,150
2092,146
2093,142
2094,137
2095,128
2096,117
2097,108
2098,98
2099,88
2100,79
2101,70
2102,62
2103,54
2104,47
2105,40
2106,37
2107,33
2108,31
2109,29
2110,24
2111,19
2112,12
2113,12
2114,4
2115,-1
2116,-4
2117,-7
2118,-4
2119,2
2120,5
2121,7
2122,8
2123,2
2124,-2
2125,-7
2126,-8
2127,-8
2128,-7
2129,-5
2130,-4
2131,-3
2132,-1
2133,0
2134,3
2135,7
2136,9
2137,11
2138,14
2139,14
2140,11
2141,10
2142,11
2143,12
2144,14
2145,15
2146,16
2147,16
2148,16
2149,14
2150,15
2151,15
2152,17
2153,18
2154,19
2155,19
2156,22
2157,24
2158,20
2159,17
2160,13
2161,9
2162,5
2163,2
2164,1
2165,4
2166,11
2167,16
2168,20
2169,21
2170,21
2171,22
2172,22
2173,22
2174,24
2175,29
2176,35
2177,40
2178,42
2179,44
2180,41
2181,36
2182,34
2183,33
2184,31
2185,28
2186,28
2187,29
2188,28
2189,28
2190,30
2191,30
2192,30
2193,29
2194,27
2195,26
2196,26
2197,28
2198,31
2199,33
2200,35
2201,34
2202,31
2203,27
2204,25
2205,23
2206,24
2207,25
2208,28
2209,33
2210,37
2211,39
2212,39
2213,37
2214,35
2215,33
2216,34
2217,36
2218,39
2219,45
2220,50
2221,56
2222,62
2223,65
2224,70
2225,73
2226,75
2227,76
2228,79
2229,80
2230,84
2231,84
2232,84
2233,87
2234,87
2235,88
2236,89
2237,92
2238,95
2239,96
2240,98
2241,100
2242,99
2243,99
2244,99
2245,99
2246,98
2247,93
2248,87
2249,82
2250,73
2251,60
2252,48
2253,36
2254,24
2255,24
2256,13
2257,8
2258,6
2259,8
2260,9
2261,14
2262,17
2263,18
2264,18
2265,17
2266,15
2267,13
2268,13
2269,14
2270,14
2271,14
2272,14
2273,13
2274,10
2275,9
2276,8
2277,5
2278,5
2279,8
2280,12
2281,16
2282,17
2283,18
2284,19
2285,18
2286,14
2287,9
2288,4
2289,3
2290,11
2291,33
2292,74
2293,126
2294,188
2295,261
2296,343
2297,423
2298,494
2299,546
2300,577
2301,583
2302,530
2303,468
2304,380
2305,271
2306,145
2307,9
2308,-125
2309,-246
2310,-342
2311,-396
2312,-409
2313,-382
2314,-329
2315,-267
2316,-204
2317,-145
2318,-99
2319,-65
2320,-40
2321,-22
2322,-12
2323,-3
2324,6
2325,14
2326,21
2327,26
2328,27
2329,27
2330,25
2331,21
2332,18
2333,16
2334,18
2335,22
2336,29
2337,35
2338,40
2339,43
2340,44
2341,45
2342,43
2343,41
2344,42
2345,43
2346,45
2347,49
2348,51
2349,52
2350,54
2351,54
2352,51
2353,46
2354,41
2355,40
2356,43
2357,47
2358,52
2359,55
2360,54
2361,52
2362,47
2363,43
2364,42
2365,45
2366,55
2367,67
2368,80
2369,88
2370,93
2371,93
2372,89
2373,85
2374,79
2375,70
2376,68
2377,69
2378,72
2379,77
2380,86
2381,94
2382,101
2383,107
2384,112
2385,114
2386,115
2387,118
2388,122
2389,123
2390,123
2391,122
2392,122
2393,119
2394,118
2395,121
2396,123
2397,123
2398,126
2399,130
2400,134
2401,141
2402,147
2403,155
2404,163
2405,173
2406,180
2407,188
2408,193
2409,196
2410,196
2411,198
2412,203
2413,205
2414,207
2415,208
2416,208
2417,209
2418,210
2419,209
2420,210
2421,211
2422,210
2423,210
2424,208
2425,207
2426,207
2427,206
2428,205
2429,208
2430,209
2431,206
2432,203
2433,198
2434,189
2435,179
2436,167
2437,155
2438,144
2439,136
2440,128
2441,120
2442,113
2443,106
2444,98
2445,89
2446,81
2447,73
2448,64
2449,62
2450,63
2451,61
2452,56
2453,51
2454,42
2455,30
2456,17
2457,9
2458,0
2459,-7
2460,-12
2461,-13
2462,-12
2463,-9
2464,-6
2465,-1
2466,-1
2467,-1
2468,0
2469,0
2470,-2
2471,-3
2472,-4
2473,-4
2474,-6
2475,-10
2476,-13
2477,-15
2478,-17
2479,-13
2480,-6
2481,-1
2482,1
2483,3
2484,-4
2485,-9
2486,-12
2487,-10
2488,-4
2489,3
2490,13
2491,21
2492,25
2493,27
2494,23
2495,16
2496,12
2497,10
2498,8
2499,11
2500,15
2501,19
2502,21
2503,21
2504,17
2505,13
2506,10
2507,9
2508,12
2509,14
2510,16
2511,18
2512,21
2513,21
2514,23
2515,21
2516,20
2517,21
2518,23
2519,24
2520,22
2521,20
2522,18
2523,17
2524,17
2525,15
2526,11
2527,11
2528,13
2529,14
2530,18
2531,22
2532,26
2533,29
2534,31
2535,31
2536,30
2537,29
2538,29
2539,29
2540,33
2541,38
2542,43
2543,47
2544,48
2545,43
2546,39
2547,34
2548,28
2549,26
2550,27
2551,28
2552,31
2553,33
2554,35
2555,36
2556,34
2557,33
2558,31
2559,27
2560,26
2561,26
2562,26
2563,28
2564,33
2565,37
2566,45
2567,49
2568,51
2569,51
2570,48
2571,46
2572,44
2573,43
2574,45
2575,50
2576,54
2577,58
2578,59
2579,55
2580,51
2581,49
2582,47
2583,50
2584,54
2585,60
2586,66
2587,74
2588,81
2589,87
2590,92
2591,97
2592,106
2593,108
2594,109
2595,110
2596,110
2597,109
2598,108
2599,107
2600,105
2601,102
2602,102
2603,105
2604,108
2605,114
2606,117
2607,117
2608,113
2609,104
2610,93
2611,81
2612,69
2613,60
2614,53
2615,48
2616,45
2617,44
2618,41
2619,36
2620,29
2621,22
2622,16
2623,7
2624,2
2625,5
2626,8
2627,21
2628,27
2629,34
2630,34
2631,30
2632,25
2633,18
2634,9
2635,6
2636,4
2637,3
2638,6
2639,12
2640,17
2641,24
2642,26
2643,27
2644,28
2645,27
2646,21
2647,13
2648,5
2649,0
2650,3
2651,21
2652,53
2653,100
2654,161
2655,229
2656,304
2657,385
2658,460
2659,520
2660,559
2661,577
2662,571
2663,545
2664,422
2665,325
2666,209
2667,77
2668,-56
2669,-185
2670,-295
2671,-370
2672,-400
2673,-388
2674,-345
2675,-288
2676,-226
2677,-167
2678,-114
2679,-72
2680,-42
2681,-19
2682,-19
2683,-4
2684,4
2685,8
2686,12
2687,16
2688,18
2689,21
2690,24
2691,26
2692,26
2693,28
2694,30
2695,30
2696,29
2697,28
2698,28
2699,29
2700,29
2701,31
2702,37
2703,42
2704,48
2705,53
2706,56
2707,60
2708,63
2709,64
2710,65
2711,64
2712,60
2713,56
2714,53
2715,52
2716,54
2717,56
2718,59
2719,65
2720,69
2721,72
2722,75
2723,79
2724,81
2725,82
2726,81
2727,76
2728,73
2729,70
2730,65
2731,66
2732,69
2733,72
2734,77
2735,80
2736,81
2737,79
2738,77
2739,79
2740,80
2741,78
2742,78
2743,80
2744,82
2745,85
2746,90
2747,97
2748,104
2749,110
2750,116
2751,119
2752,120
2753,119
2754,119
2755,121
2756,122
2757,128
2758,133
2759,138
2760,144
2761,151
2762,155
2763,157
2764,160
2765,162
2766,164
2767,168
2768,173
2769,181
2770,188
2771,192
2772,203
2773,203
2774,201
2775,202
2776,206
2777,213
2778,221
2779,229
2780,237
2781,238
2782,233
2783,230
2784,222
2785,210
2786,201
2787,200
2788,202
2789,204
2790,203
2791,206
2792,207
2793,202
2794,193
2795,185
2796,176
2797,164
2798,155
2799,148
2800,141
2801,132
2802,124
2803,116
2804,109
2805,99
2806,88
2807,80
2808,68
2809,64
2810,61
2811,58
2812,54
2813,49
2814,44
2815,38
2816,32
2817,26
2818,20
2819,14
2820,10
2821,6
2822,3
2823,1
2824,1
2825,2
2826,2
2827,2
2828,2
2829,1
2830,-1
2831,-4
2832,-7
2833,-7
2834,-7
2835,-6
2836,-4
2837,-3
2838,-4
2839,-2
2840,-1
2841,0
2842,5
2843,11
2844,24
2845,27
2846,30
2847,27
2848,19
2849,9
2850,0
2851,-10
2852,-18
2853,-21
2854,-19
2855,-12
2856,-3
2857,4
2858,10
2859,14
2860,13
2861,10
2862,6
2863,5
2864,6
2865,10
2866,12
2867,16
2868,20
2869,20
2870,19
2871,20
2872,22
2873,23
2874,25
2875,25
2876,27
2877,28
2878,22
2879,22
2880,19
2881,12
2882,10
2883,11
2884,13
2885,17
2886,24
2887,30
2888,34
2889,38
2890,40
2891,40
2892,38
2893,34
2894,30
2895,29
2896,27
2897,25
2898,24
2899,24
2900,24
2901,24
2902,23
2903,20
2904,18
2905,17
2906,19
2907,23
2908,28
2909,32
2910,34
2911,35
2912,32
2913,27
2914,21
2915,16
2916,16
2917,16
2918,18
2919,19
2920,21
2921,21
2922,24
2923,21
2924,17
2925,17
2926,17
2927,15
2928,16
2929,18
2930,21
2931,25
2932,28
2933,28
2934,29
2935,27
2936,25
2937,27
2938,31
2939,34
2940,36
2941,38
2942,38
2943,37
2944,32
2945,26
2946,25
2947,26
2948,28
2949,32
2950,44
2951,45
2952,43
2953,42
2954,41
2955,38
2956,36
2957,36
2958,33
2959,31
2960,30
2961,29
2962,28
2963,27
2964,26
2965,28
2966,28
2967,32
2968,32
2969,33
2970,33
2971,32
2972,34
2973,36
2974,37
2975,41
2976,44
2977,49
2978,52
2979,54
2980,56
2981,59
2982,62
2983,66
2984,71
2985,79
2986,98
2987,107
2988,115
2989,120
2990,123
2991,122
2992,118
2993,115
2994,109
2995,102
2996,98
2997,95
2998,91
2999,91
3000,92
3001,97
3002,101
3003,101
3004,99
3005,95
3006,87
3007,77
3008,70
3009,61
3010,52
3011,44
3012,34
3013,26
3014,21
3015,16
3016,14
3017,17
3018,22
3019,26
3020,30
3021,31
3022,28
3023,21
3024,18
3025,15
3026,13
3027,13
3028,14
3029,15
3030,17
3031,19
3032,20
3033,21
3034,23
3035,27
3036,28
3037,24
3038,21
3039,21
3040,18
3041,16
3042,12
3043,8
3044,13
3045,26
3046,52
3047,92
3048,146
3049,207
3050,279
3051,359
3052,438
3053,507
3054,556
3055,582
3056,583
3057,564
3058,453
3059,365
3060,255
3061,128
3062,-5
3063,-134
3064,-252
3065,-343
3066,-394
3067,-405
3068,-381
3069,-335
3070,-280
3071,-221
3072,-165
3073,-115
3074,-72
3075,-37
3076,-11
3077,3
3078,12
3079,14
3080,13
3081,14
3082,19
3083,25
3084,29
3085,33
3086,34
3087,33
3088,31
3089,29
3090,26
3091,26
3092,31
3093,35
3094,53
3095,58
3096,60
3097,61
3098,62
3099,62
3100,62
3101,61
3102,62
3103,62
3104,60
3105,62
3106,66
3107,69
3108,69
3109,72
3110,77
3111,81
3112,83
3113,80
3114,75
3115,73
3116,72
3117,72
3118,77
3119,82
3120,84
3121,86
3122,86
3123,85
3124,83
3125,77
3126,77
3127,79
3128,82
3129,85
3130,88
3131,93
3132,94
3133,93
3134,95
3135,96
3136,95
3137,95
3138,97
3139,99
3140,101
3141,104
3142,109
3143,115
3144,121
3145,126
3146,129
3147,131
3148,132
3149,133
3150,138
3151,146
3152,152
3153,159
3154,164
3155,168
3156,171
3157,174
3158,176
3159,181
3160,185
3161,187
3162,190
3163,190
3164,187
3165,187
3166,188
3167,196
3168,203
3169,208
3170,212
3171,216
3172,217
3173,219
3174,220
3175,220
3176,223
3177,226
3178,228
3179,229
3180,228
3181,223
3182,218
3183,215
3184,213
3185,210
3186,209
3187,207
3188,204
3189,198
3190,188
3191,176
3192,165
3193,157
3194,154
3195,150
3196,146
3197,141
3198,137
3199,132
3200,125
3201,116
3202,108
3203,92
3204,85
3205,76
3206,67
3207,59
3208,52
3209,47
3210,43
3211,38
3212,35
3213,32
3214,26
3215,23
3216,20
3217,11
3218,6
3219,5
3220,5
3221,4
3222,2
3223,0
3224,0
3225,1
3226,1
3227,1
3228,2
3229,1
3230,2
3231,5
3232,5
3233,2
3234,0
3235,-2
3236,-1
3237,0
3238,-1
3239,-4
3240,-3
3241,-3
3242,-3
3243,-4
3244,-5
3245,-5
3246,-5
3247,-3
3248,-2
3249,-2
3250,-2
3251,0
3252,6
3253,9
3254,11
3255,11
3256,11
3257,11
3258,10
3259,11
3260,13
3261,15
3262,17
3263,23
3264,27
3265,31
3266,33
3267,35
3268,34
3269,32
3270,30
3271,29
3272,27
3273,27
3274,30
3275,39
3276,42
3277,43
3278,43
3279,41
3280,35
3281,33
3282,30
3283,29
3284,29
3285,32
3286,33
3287,33
3288,33
3289,30
3290,28
3291,29
3292,31
3293,33
3294,37
3295,41
3296,40
3297,39
3298,37
3299,35
3300,40
3301,44
3302,47
3303,50
3304,52
3305,51
3306,53
3307,54
3308,56
3309,59
3310,64
3311,73
3312,74
3313,74
3314,77
3315,82
3316,91
3317,102
3318,109
3319,115
3320,118
3321,116
3322,114
3323,106
3324,100
3325,98
3326,96
3327,96
3328,100
3329,97
3330,93
3331,88
3332,83
3333,76
3334,70
3335,64
3336,59
3337,55
3338,48
3339,42
3340,33
3341,22
3342,15
3343,13
3344,10
3345,5
3346,1
3347,1
3348,1
3349,1
3350,2
3351,5
3352,7
3353,8
3354,8
3355,5
3356,3
3357,6
3358,6
3359,8
3360,9
3361,7
3362,3
3363,1
3364,-2
3365,-3
3366,-1
3367,1
3368,5
3369,8
3370,10
3371,13
3372,13
3373,9
3374,7
3375,4
3376,3
3377,10
3378,32
3379,69
3380,117
3381,176
3382,316
3383,389
3384,457
3385,511
3386,543
3387,550
3388,537
3389,499
3390,440
3391,355
3392,251
3393,251
3394,134
3395,6
3396,-121
3397,-241
3398,-341
3399,-409
3400,-439
3401,-427
3402,-387
3403,-333
3404,-271
3405,-211
3406,-155
3407,-107
3408,-70
3409,-39
3410,-15
3411,0
3412,8
3413,12
3414,11
3415,9
3416,7
3417,6
3418,10
3419,20
3420,27
3421,33
3422,35
3423,36
3424,34
3425,30
3426,28
3427,26
3428,25
3429,27
3430,28
3431,30
3432,33
3433,37
3434,42
3435,49
3436,53
3437,56
3438,58
3439,59
3440,56
3441,57
3442,57
3443,57
3444,57
3445,59
3446,59
3447,56
3448,52
3449,47
3450,44
3451,41
3452,42
3453,44
3454,49
3455,53
3456,57
3457,58
3458,61
3459,67
3460,71
3461,75
3462,77
3463,79
3464,80
3465,81
3466,85
3467,93
3468,101
3469,108
3470,113
3471,115
3472,113
3473,109
3474,105
3475,104
3476,101
3477,101
3478,101
3479,101
3480,103
3481,106
3482,111
3483,120
3484,133
3485,145
3486,155
3487,163
3488,165
3489,165
3490,167
3491,169
3492,173
3493,175
3494,177
3495,178
3496,177
3497,175
3498,174
3499,176
3500,180
3501,184
3502,190
3503,195
3504,195
3505,195
3506,197
3507,200
3508,207
3509,212
3510,215
3511,218
3512,216
3513,210
3514,207
3515,203
3516,199
3517,198
3518,198
3519,196
3520,192
3521,182
3522,168
3523,155
3524,143
3525,126
3526,120
3527,116
3528,108
3529,99
3530,90
3531,77
3532,62
3533,51
3534,41
3535,41
3536,31
3537,24
3538,15
3539,7
3540,2
3541,0
3542,1
3543,2
3544,3
3545,3
3546,5
3547,8
3548,5
3549,3
3550,3
3551,0
3552,-3
3553,-7
3554,-13
3555,-19
3556,-25
3557,-30
3558,-30
3559,-30
3560,-32
3561,-33
3562,-27
3563,-23
3564,-20
3565,-19
3566,-19
3567,-21
3568,-24
3569,-26
3570,-26
3571,-26
3572,-22
3573,-14
3574,-6
3575,0
3576,5
3577,9
3578,9
3579,7
3580,4
3581,2
3582,-1
3583,-8
3584,-11
3585,-14
3586,-18
3587,-19
3588,-13
3589,-6
3590,-1
3591,4
3592,10
3593,12
3594,13
3595,13
3596,13
3597,10
3598,12
3599,14
3600,12
3601,10
3602,8
3603,6
3604,7
3605,9
3606,14
3607,20
3608,25
3609,31
3610,34
3611,34
3612,33
3613,28
3614,22
3615,20
3616,22
3617,27
3618,33
3619,37
3620,38
3621,33
3622,25
3623,17
3624,9
3625,4
3626,2
3627,3
3628,9
3629,13
3630,17
3631,23
3632,29
3633,32
3634,37
3635,39
3636,42
3637,41
3638,38
3639,37
3640,37
3641,40
3642,44
3643,47
3644,53
3645,59
3646,64
3647,63
3648,58
3649,50
3650,45
3651,42
3652,42
3653,46
3654,50
3655,54
3656,61
3657,65
3658,65
3659,63
3660,62
3661,64
3662,67
3663,73
3664,77
3665,85
3666,88
3667,91
3668,94
3669,101
3670,106
3671,111
3672,117
3673,120
3674,120
3675,121
3676,118
3677,118
3678,113
3679,106
3680,96
3681,84
3682,73
3683,60
3684,46
3685,33
3686,22
3687,12
3688,8
3689,3
3690,0
3691,0
3692,2
3693,5
3694,9
3695,14
3696,20
3697,24
3698,28
3699,33
3700,36
3701,35
3702,31
3703,27
3704,23
3705,16
3706,8
3707,1
3708,-3
3709,-5
3710,-3
3711,1
3712,5
3713,9
3714,12
3715,14
3716,15
3717,15
3718,13
3719,12
3720,12
3721,15
3722,24
3723,46
3724,82
3725,130
3726,187
3727,251
3728,320
3729,394
3730,462
3731,515
3732,549
3733,559
3734,548
3735,518
3736,470
3737,314
3738,211
3739,92
3740,-33
3741,-158
3742,-269
3743,-352
3744,-396
3745,-398
3746,-366
3747,-314
3748,-255
3749,-193
3750,-138
3751,-94
3752,-62
3753,-38
3754,-22
3755,-13
3756,-4
3757,3
3758,9
3759,15
3760,22
3761,25
3762,26
3763,23
3764,22
3765,21
3766,22
3767,25
3768,29
3769,34
3770,37
3771,37
3772,37
3773,33
3774,30
3775,28
3776,30
3777,32
3778,35
3779,37
3780,39
3781,38
3782,38
3783,38
3784,40
3785,42
3786,43
3787,47
3788,53
3789,59
3790,65
3791,72
3792,79
3793,83
3794,81
3795,75
3796,67
3797,57
3798,48
3799,41
3800,40
3801,40
3802,43
3803,47
3804,51
3805,54
3806,56
3807,58
3808,69
3809,75
3810,80
3811,85
3812,86
3813,85
3814,84
3815,80
3816,78
3817,79
3818,82
3819,82
3820,87
3821,94
3822,99
3823,104
3824,109
3825,113
3826,116
3827,118
3828,119
3829,121
3830,123
3831,126
3832,130
3833,136
3834,145
3835,156
3836,167
3837,176
3838,185
3839,189
3840,197
3841,204
3842,207
3843,210
3844,213
3845,210
3846,207
3847,202
3848,195
3849,188
3850,184
3851,184
3852,185
3853,189
3854,195
3855,202
3856,205
3857,206
3858,206
3859,205
3860,200
3861,193
3862,188
3863,185
3864,180
3865,176
3866,171
3867,165
3868,159
3869,151
3870,147
3871,143
3872,138
3873,132
3874,127
3875,122
3876,115
3877,106
3878,96
3879,72
3880,58
3881,47
3882,36
3883,29
3884,25
3885,26
3886,28
3887,31
3888,33
3889,33
3890,30
3891,25
3892,18
3893,10
3894,1
3895,-4
3896,-10
3897,-16
3898,-20
3899,-25
3900,-29
3901,-33
3902,-37
3903,-38
3904,-39
3905,-41
3906,-37
3907,-30
3908,-22
3909,-15
3910,-9
3911,-3
3912,0
3913,1
3914,1
3915,-4
3916,-9
3917,-14
3918,-18
3919,-23
3920,-26
3921,-28
3922,-28
3923,-24
3924,-19
3925,-12
3926,-7
3927,-4
3928,-2
3929,-3
3930,-5
3931,-6
3932,-2
3933,2
3934,6
3935,13
3936,16
3937,15
3938,12
3939,7
3940,3
3941,0
3942,0
3943,1
3944,5
3945,8
3946,10
3947,16
3948,22
3949,27
3950,32
3951,35
3952,31
3953,27
3954,22
3955,18
3956,15
3957,15
3958,15
3959,14
3960,10
3961,5
3962,5
3963,1
3964,-2
3965,-5
3966,-4
3967,-1
3968,3
3969,8
3970,16
3971,25
3972,33
3973,41
3974,45
3975,44
3976,39
3977,29
3978,19
3979,12
3980,6
3981,3
3982,3
3983,4
3984,7
3985,8
3986,9
3987,13
3988,16
3989,20
3990,22
3991,22
3992,24
3993,28
3994,28
3995,29
3996,28
3997,26
3998,23
3999,22
4000,19
4001,18
4002,18
4003,19
4004,25
4005,33
4006,37
4007,41
4008,45
4009,48
4010,48
4011,44
4012,38
4013,33
4014,26
4015,19
4016,16
4017,15
4018,15
4019,15
4020,16
4021,18
4022,19
4023,22
4024,28
4025,34
4026,39
4027,48
4028,55
4029,61
4030,66
4031,71
4032,75
4033,78
4034,82
4035,87
4036,92
4037,96
4038,99
4039,103
4040,105
4041,104
4042,102
4043,100
4044,98
4045,96
4046,94
4047,93
4048,92
4049,92
4050,92
4051,92
4052,92
4053,93
4054,92
4055,91
4056,89
4057,85
4058,75
4059,70
4060,62
4061,54
4062,44
4063,32
4064,19
4065,7
4066,-3
4067,-10
4068,-15
4069,-16
4070,-13
4071,-11
4072,-6
4073,-2
4074,1
4075,3
4076,5
4077,5
4078,6
4079,4
4080,3
4081,3
4082,4
4083,4
4084,5
4085,5
4086,5
4087,5
4088,3
4089,0
4090,1
4091,2
4092,0
4093,-2
4094,-4
4095,1
4096,16
4097,47
4098,94
4099,152
4100,216
4101,289
4102,365
4103,435
4104,435
4105,498
4106,549
4107,581
4108,591
4109,579
4110,541
4111,474
4112,379
4113,260
4114,125
4115,-15
4116,-154
4117,-277
4118,-370
4119,-424
4120,-437
4121,-411
4122,-359
4123,-295
4124,-227
4125,-163
4126,-109
4127,-67
4128,-39
4129,-20
4130,-6
4131,-6
4132,-4
4133,-2
4134,1
4135,7
4136,13
4137,18
4138,20
4139,21
4140,22
4141,24
4142,25
4143,28
4144,32
4145,36
4146,40
4147,46
4148,51
4149,55
4150,58
4151,59
4152,59
4153,57
4154,56
4155,52
4156,51
4157,55
4158,59
4159,63
4160,67
4161,68
4162,65
4163,61
4164,55
4165,46
4166,44
4167,48
4168,55
4169,59
4170,60
4171,61
4172,59
4173,54
4174,52
4175,51
4176,51
4177,55
4178,60
4179,67
4180,73
4181,76
4182,79
4183,81
4184,79
4185,79
4186,80
4187,84
4188,85
4189,89
4190,93
4191,97
4192,102
4193,106
4194,109
4195,114
4196,116
4197,119
4198,124
4199,126
4200,124
4201,121
4202,121
4203,123
4204,126
4205,128
4206,136
4207,148
4208,158
4209,172
4210,187
4211,200
4212,211
4213,218
4214,218
4215,214
4216,203
4217,186
4218,176
4219,171
4220,166
4221,167
4222,175
4223,180
4224,185
4225,188
4226,190
4227,191
4228,191
4229,190
4230,190
4231,192
4232,191
4233,190
4234,190
4235,189
4236,188
4237,185
4238,180
4239,177
4240,173
4241,169
4242,166
4243,162
4244,156
4245,150
4246,150
4247,142
4248,135
4249,127
4250,116
4251,106
4252,97
4253,86
4254,75
4255,65
4256,56
4257,48
4258,41
4259,37
4260,34
4261,27
4262,24
4263,24
4264,25
4265,27
4266,29
4267,25
4268,18
4269,7
4270,-6
4271,-22
4272,-37
4273,-51
4274,-60
4275,-59
4276,-56
4277,-53
4278,-51
4279,-48
4280,-45
4281,-42
4282,-42
4283,-43
4284,-42
4285,-40
4286,-39
4287,-35
4288,-32
4289,-30
4290,-28
4291,-28
4292,-26
4293,-22
4294,-20
4295,-16
4296,-9
4297,-2
4298,1
4299,4
4300,5
4301,3
4302,0
4303,-3
4304,-3
4305,-3
4306,-3
4307,0
4308,4
4309,9
4310,9
4311,10
4312,9
4313,6
4314,2
4315,-1
4316,-6
4317,-13
4318,-21
4319,-27
4320,-33
4321,-37
4322,-41
4323,-42
4324,-40
4325,-39
4326,-37
4327,-33
4328,-29
4329,-27
4330,-24
4331,-21
4332,-19
4333,-14
4334,-12
4335,-11
4336,-7
4337,-3
4338,-1
4339,1
4340,2
4341,2
4342,2
4343,2
4344,7
4345,9
4346,14
4347,18
4348,22
4349,26
4350,30
4351,30
4352,30
4353,28
4354,21
4355,14
4356,6
4357,-3
4358,-11
4359,-17
4360,-15
4361,-10
4362,-3
4363,5
4364,12
4365,17
4366,21
4367,20
4368,18
4369,14
4370,6
4371,0
4372,-2
4373,-8
4374,-11
4375,-14
4376,-17
4377,-20
4378,-16
4379,-12
4380,-6
4381,0
4382,6
4383,11
4384,13
4385,18
4386,25
4387,29
4388,29
4389,31
4390,33
4391,35
4392,33
4393,30
4394,26
4395,23
4396,19
4397,17
4398,19
4399,23
4400,26
4401,29
4402,34
4403,37
4404,41
4405,45
4406,47
4407,48
4408,48
4409,48
4410,51
4411,54
4412,59
4413,63
4414,66
4415,71
4416,73
4417,73
4418,75
4419,77
4420,80
4421,86
4422,89
4423,89
4424,89
4425,88
4426,88
4427,87
4428,88
4429,90
4430,94
4431,98
4432,102
4433,105
4434,105
4435,101
4436,96
4437,88
4438,82
4439,76
4440,71
4441,67
4442,62
4443,55
4444,48
4445,37
4446,27
4447,19
4448,9
4449,0
4450,-1
4451,3
4452,13
4453,23
4454,35
4455,47
4456,51
4457,48
4458,43
4459,33
4460,21
4461,11
4462,5
4463,2
4464,3
4465,1
4466,2
4467,7
4468,6
4469,4
4470,6
4471,8
4472,6
4473,5
4474,6
4475,6
4476,3
4477,1
4478,7
4479,28
4480,58
4481,101
4482,157
4483,220
4484,287
4485,362
4486,435
4487,537
4488,556
4489,552
4490,528
4491,480
4492,405
4493,310
4494,194
4495,64
4496,-72
4497,-206
4498,-324
4499,-411
4500,-454
4501,-455
4502,-422
4503,-366
4504,-300
4505,-236
4506,-178
4507,-128
4508,-86
4509,-48
4510,-19
4511,0
4512,15
4513,21
4514,18
4515,12
4516,7
4517,1
4518,0
4519,1
4520,7
4521,16
4522,24
4523,28
4524,27
4525,26
4526,24
4527,22
4528,19
4529,16
4530,13
4531,13
4532,11
4533,11
4534,12
4535,13
4536,16
4537,21
4538,24
4539,24
4540,19
4541,13
4542,7
4543,3
4544,1
4545,2
4546,8
4547,20
4548,34
4549,44
4550,50
4551,57
4552,60
4553,57
4554,54
4555,51
4556,48
4557,45
4558,46
4559,50
4560,55
4561,65
4562,69
4563,71
4564,69
4565,66
4566,66
4567,65
4568,69
4569,78
4570,87
4571,98
4572,108
4573,116
4574,121
4575,124
4576,124
4577,129
4578,137
4579,145
4580,155
4581,157
4582,146
4583,130
4584,112
4585,95
4586,85
4587,85
4588,92
4589,105
4590,120
4591,128
4592,135
4593,141
4594,146
4595,154
4596,168
4597,193
4598,204
4599,216
4600,229
4601,246
4602,263
4603,273
4604,277
4605,272
4606,240
4607,171
4608,98
4609,41
4610,4
4611,4
4612,39
4613,101
4614,178
4615,247
4616,299
4617,336
4618,345
4619,332
4620,331
4621,341
4622,347
4623,348
4624,347
4625,345
4626,347
4627,344
4628,337
4629,328
4630,313
4631,293
4632,266
4633,220
4634,202
4635,182
4636,167
4637,162
4638,167
4639,186
4640,218
4641,261
4642,303
4643,330
4644,336
4645,313
4646,267
4647,210
4648,155
4649,117
4650,105
4651,109
4652,114
4653,119
4654,119
4655,123
4656,124
4657,124
4658,133
4659,146
4660,156
4661,157
4662,160
4663,166
4664,170
4665,181
4666,204
4667,228
4668,232
4669,197
4670,169
4671,146
4672,134
4673,134
4674,135
4675,144
4676,149
4677,148
4678,147
4679,140
4680,129
4681,124
4682,130
4683,144
4684,162
4685,181
4686,195
4687,198
4688,187
4689,167
4690,137
4691,97
4692,57
4693,24
4694,5
4695,12
4696,43
4697,83
4698,119
4699,146
4700,160
4701,166
4702,160
4703,145
4704,134
4705,122
4706,99
4707,100
4708,94
4709,87
4710,86
4711,89
4712,98
4713,108
4714,117
4715,133
4716,151
4717,165
4718,178
4719,187
4720,186
4721,178
4722,163
4723,148
4724,131
4725,114
4726,96
4727,79
4728,67
4729,57
4730,51
4731,55
4732,65
4733,73
4734,80
4735,82
4736,86
4737,83
4738,77
4739,76
4740,76
4741,79
4742,105
4743,114
4744,111
4745,97
4746,84
4747,78
4748,73
4749,72
4750,88
4751,102
4752,109
4753,118
4754,122
4755,114
4756,104
4757,96
4758,99
4759,112
4760,123
4761,129
4762,138
4763,142
4764,131
4765,119
4766,109
4767,93
4768,77
4769,69
4770,65
4771,64
4772,59
4773,48
4774,39
4775,29
4776,16
4777,4
4778,-3
4779,-5
4780,-4
4781,-4
4782,-11
4783,-20
4784,-27
4785,-35
4786,-42
4787,-42
4788,-37
4789,-25
4790,-11
4791,-12
4792,-16
4793,-23
4794,-38
4795,-44
4796,-41
4797,-39
4798,-28
4799,-12
4800,0
4801,12
4802,13
4803,-3
4804,-14
4805,-22
4806,-35
4807,-46
4808,-62
4809,-81
4810,-86
4811,-84
4812,-71
4813,-39
4814,76
4815,76
4816,147
4817,231
4818,320
4819,390
4820,433
4821,454
4822,450
4823,420
4824,374
4825,316
4826,249
4827,166
4828,64
4829,-45
4830,-162
4831,-285
4832,-393
4833,-468
4834,-502
4835,-495
4836,-455
4837,-398
4838,-333
4839,-269
4840,-214
4841,-164
4842,-123
4843,-96
4844,-80
4845,-76
4846,-79
4847,-82
4848,-85
4849,-84
4850,-77
4851,-61
4852,-54
4853,-52
4854,-56
4855,-61
4856,-63
4857,-60
4858,-51
4859,-40
4860,-27
4861,-25
4862,-30
4863,-40
4864,-56
4865,-69
4866,-74
4867,-67
4868,-51
4869,-39
4870,-28
4871,-23
4872,-26
4873,-34
4874,-39
4875,-39
4876,-32
4877,-27
4878,-22
4879,-14
4880,-8
4881,-9
4882,-7
4883,-7
4884,-10
4885,-16
4886,-21
4887,-46
4888,-54
4889,-58
4890,-54
4891,-46
4892,-44
4893,-37
4894,-29
4895,-32
4896,-39
4897,-38
4898,-37
4899,-33
4900,-23
4901,-11
4902,0
4903,9
4904,8
4905,3
4906,0
4907,-8
4908,-13
4909,-7
4910,5
4911,15
4912,30
4913,44
4914,50
4915,50
4916,44
4917,36
4918,35
4919,38
4920,42
4921,49
4922,54
4923,40
4924,31
4925,19
4926,17
4927,20
4928,30
4929,50
4930,68
4931,83
4932,96
4933,104
4934,106
4935,107
4936,107
4937,104
4938,99
4939,92
4940,91
4941,93
4942,86
4943,78
4944,77
4945,79
4946,83
4947,87
4948,88
4949,87
4950,82
4951,77
4952,73
4953,64
4954,55
4955,52
4956,49
4957,49
4958,38
4959,24
4960,-15
4961,-34
4962,-49
4963,-60
4964,-72
4965,-88
4966,-102
4967,-115
4968,-129
4969,-139
4970,-144
4971,-150
4972,-163
4973,-180
4974,-204
4975,-231
4976,-254
4977,-268
4978,-273
4979,-268
4980,-258
4981,-252
4982,-258
4983,-280
4984,-315
4985,-350
4986,-376
4987,-392
4988,-392
4989,-379
4990,-364
4991,-354
4992,-357
4993,-370
4994,-387
4995,-403
4996,-413
4997,-398
4998,-387
4999,-374
5000,-362
5001,-364
5002,-372
5003,-382
5004,-388
5005,-396
5006,-415
5007,-430
5008,-438
5009,-446
5010,-440
5011,-418
5012,-394
5013,-380
5014,-375
5015,-376
5016,-383
5017,-400
5018,-421
5019,-425
5020,-418
5021,-415
5022,-407
5023,-403
5024,-403
5025,-405
5026,-402
5027,-393
5028,-377
5029,-359
5030,-347
5031,-341
5032,-352
5033,-367
5034,-375
5035,-374
5036,-366
5037,-353
5038,-335
5039,-316
5040,-297
5041,-285
5042,-290
5043,-302
5044,-315
5045,-323
5046,-322
5047,-313
5048,-296
5049,-273
5050,-252
5051,-237
5052,-227
5053,-233
5054,-248
5055,-267
5056,-273
5057,-266
5058,-254
5059,-239
5060,-224
5061,-215
5062,-215
5063,-215
5064,-208
5065,-198
5066,-180
5067,-162
5068,-134
5069,-144
5070,-165
5071,-186
5072,-198
5073,-197
5074,-184
5075,-165
5076,-153
5077,-159
5078,-174
5079,-193
5080,-205
5081,-204
5082,-192
5083,-169
5084,-138
5085,-111
5086,-91
5087,-74
5088,-70
5089,-81
5090,-103
5091,-131
5092,-150
5093,-158
5094,-153
5095,-121
5096,-70
5097,-13
5098,42
5099,81
5100,81
5101,97
5102,93
5103,69
5104,33
5105,13
5106,-2
5107,-12
5108,-24
5109,-23
5110,-10
5111,8
5112,32
5113,61
5114,87
5115,111
5116,119
5117,102
5118,75
5119,46
5120,12
5121,-12
5122,-23
5123,-21
5124,-6
5125,17
5126,34
5127,35
5128,10
5129,-38
5130,-90
5131,-117
5132,-124
5133,-104
5134,-56
5135,20
5136,122
5137,207
5138,238
5139,211
5140,182
5141,164
5142,165
5143,177
5144,199
5145,224
5146,247
5147,262
5148,251
5149,205
5150,146
5151,100
5152,60
5153,23
5154,13
5155,44
5156,112
5157,191
5158,235
5159,248
5160,258
5161,266
5162,279
5163,327
5164,412
5165,521
5166,625
5167,679
5168,657
5169,577
5170,453
5171,329
5172,239
5173,167
5174,86
5175,-134
5176,-253
5177,-356
5178,-424
5179,-449
5180,-411
5181,-291
5182,-107
5183,94
5184,256
5185,338
5186,347
5187,292
5188,192
5189,86
5190,7
5191,-27
5192,-15
5193,48
5194,152
5195,243
5196,282
5197,290
5198,293
5199,287
5200,271
5201,244
5202,194
5203,133
5204,71
5205,12
5206,-8
5207,17
5208,70
5209,138
5210,215
5211,308
5212,318
5213,298
5214,266
5215,264
5216,258
5217,221
5218,179
5219,125
5220,52
5221,10
5222,13
5223,51
5224,124
5225,196
5226,242
5227,259
5228,231
5229,151
5230,82
5231,77
5232,131
5233,254
5234,412
5235,521
5236,562
5237,551
5238,480
5239,374
5240,306
5241,301
5242,301
5243,350
5244,456
5245,550
5246,581
5247,534
5248,237
5249,95
5250,3
5251,-26
5252,48
5253,232
5254,427
5255,550
5256,607
5257,594
5258,505
5259,368
5260,224
5261,111
5262,61
5263,64
5264,113
5265,198
5266,262
5267,274
5268,267
5269,263
5270,255
5271,236
5272,217
5273,222
5274,244
5275,274
5276,306
5277,324
5278,313
5279,297
5280,296
5281,316
5282,353
5283,389
5284,416
5285,520
5286,553
5287,571
5288,581
5289,555
5290,544
5291,571
5292,568
5293,543
5294,523
5295,495
5296,462
5297,417
5298,328
5299,224
5300,157
5301,130
5302,156
5303,228
5304,289
5305,335
5306,381
5307,396
5308,378
5309,350
5310,311
5311,276
5312,270
5313,278
5314,280
5315,289
5316,328
5317,379
5318,426
5319,470
5320,472
5321,319
5322,204
5323,116
5324,97
5325,160
5326,286
5327,432
5328,516
5329,484
5330,375
5331,209
5332,45
5333,-28
5334,-14
5335,74
5336,221
5337,362
5338,447
5339,463
5340,441
5341,419
5342,403
5343,400
5344,422
5345,454
5346,443
5347,413
5348,412
5349,400
5350,365
5351,328
5352,288
5353,251
5354,191
5355,108
5356,73
5357,106
5358,215
5359,315
5360,378
5361,381
5362,374
5363,359
5364,344
5365,333
5366,318
5367,348
5368,407
5369,429
5370,419
5371,377
5372,323
5373,305
5374,299
5375,301
5376,359
5377,439
5378,488
5379,512
5380,514
5381,495
5382,456
5383,399
5384,399
5385,383
5386,420
5387,439
5388,454
5389,501
5390,531
5391,526
5392,506
5393,493
5394,475
5395,443
5396,468
5397,492
5398,521
5399,570
5400,618
5401,647
5402,654
5403,625
5404,577
5405,516
5406,455
5407,441
5408,457
5409,490
5410,558
5411,630
5412,674
5413,669
5414,616
5415,537
5416,459
5417,393
5418,344
5419,332
5420,357
5421,408
5422,455
5423,469
5424,444
5425,425
5426,458
5427,525
5428,593
5429,675
5430,773
5431,742
5432,691
5433,628
5434,573
5435,530
5436,537
5437,591
5438,618
5439,617
5440,620
5441,613
5442,584
5443,545
5444,524
5445,534
5446,552
5447,564
5448,577
5449,582
5450,576
5451,585
5452,605
5453,627
5454,636
5455,604
5456,580
5457,595
5458,598
5459,597
5460,626
5461,667
5462,701
5463,699
5464,663
5465,618
5466,524
5467,539
5468,592
5469,625
5470,628
5471,615
5472,596
5473,583
5474,593
5475,636
5476,692
5477,726
5478,723
5479,671
5480,582
5481,493
5482,425
5483,384
5484,372
5485,397
5486,449
5487,498
5488,539
5489,581
5490,614
5491,623
5492,597
5493,562
5494,529
5495,492
5496,468
5497,484
5498,523
5499,542
5500,549
5501,549
5502,485
5503,464
5504,470
5505,491
5506,519
5507,556
5508,598
5509,617
5510,612
5511,612
5512,620
5513,643
5514,692
5515,746
5516,811
5517,883
5518,932
5519,966
5520,993
5521,995
5522,972
5523,927
5524,852
5525,766
5526,766
5527,655
5528,511
5529,376
5530,255
5531,148
5532,87
5533,77
5534,106
5535,160
5536,238
5537,335
5538,425
5539,569
5540,592
5541,572
5542,539
5543,497
5544,443
5545,388
5546,344
5547,332
5548,338
5549,332
5550,339
5551,367
5552,380
5553,397
5554,428
5555,447
5556,438
5557,418
5558,405
5559,396
5560,385
5561,384
5562,416
5563,456
5564,479
5565,493
5566,491
5567,451
5568,391
5569,348
5570,325
5571,310
5572,310
5573,335
5574,384
5575,425
5576,442
5577,449
5578,434
5579,428
5580,425
5581,396
5582,362
5583,364
5584,374
5585,391
5586,433
5587,477
5588,518
5589,542
5590,533
5591,506
5592,447
5593,360
5594,297
5595,275
5596,259
5597,242
5598,245
5599,257
5600,279
5601,318
5602,350
5603,386
5604,422
5605,444
5606,449
5607,428
5608,389
5609,340
5610,262
5611,269
5612,286
5613,300
5614,326
5615,369
5616,424
5617,456
5618,451
5619,437
5620,422
5621,407
5622,402
5623,402
5624,421
5625,433
5626,433
5627,448
5628,457
5629,446
5630,437
5631,446
5632,473
5633,512
5634,507
5635,475
5636,476
5637,479
5638,468
5639,466
5640,458
5641,447
5642,449
5643,452
5644,457
5645,463
5646,447
5647,459
5648,457
5649,424
5650,401
5651,382
5652,378
5653,399
5654,408
5655,395
5656,388
5657,378
5658,368
5659,371
5660,374
5661,368
5662,369
5663,369
5664,353
5665,354
5666,341
5667,333
5668,342
5669,342
5670,350
5671,371
5672,391
5673,397
5674,384
5675,357
5676,340
5677,336
5678,319
5679,310
5680,305
5681,282
5682,226
5683,182
5684,156
5685,152
5686,147
5687,160
5688,174
5689,159
5690,152
5691,142
5692,121
5693,127
5694,143
5695,172
5696,241
5697,302
5698,324
5699,325
5700,300
5701,250
5702,204
5703,157
5704,114
5705,104
5706,121
5707,156
5708,199
5709,219
5710,227
5711,237
5712,238
5713,233
5714,223
5715,200
5716,191
5717,201
5718,172
5719,137
5720,108
5721,62
5722,10
5723,-5
5724,12
5725,52
5726,113
5727,184
5728,240
5729,269
5730,280
5731,280
5732,274
5733,256
5734,249
5735,266
5736,283
5737,283
5738,272
5739,255
5740,235
5741,227
5742,233
5743,235
5744,239
5745,280
5746,346
5747,401
5748,453
5749,490
5750,514
5751,530
5752,524
5753,501
5754,480
5755,451
5756,447
5757,442
5758,418
5759,378
5760,340
5761,321
5762,299
5763,277
5764,258
5765,212
5766,151
5767,87
5768,21
5769,-27
5770,-67
5771,-95
5772,-90
5773,-78
5774,-90
5775,-97
5776,-98
5777,-107
5778,-90
5779,-60
5780,-40
5781,-22
5782,-29
5783,-39
5784,-42
5785,-91
5786,-149
5787,-171
5788,-204
5789,-242
5790,-254
5791,-267
5792,-256
5793,-247
5794,-222
5795,-198
5796,-217
5797,-238
5798,-243
5799,-276
5800,-319
5801,-341
5802,-366
5803,-387
5804,-401
5805,-425
5806,-451
5807,-466
5808,-475
5809,-479
5810,-475
5811,-475
5812,-468
5813,-476
5814,-497
5815,-515
5816,-526
5817,-524
5818,-520
5819,-518
5820,-508
5821,-513
5822,-550
5823,-602
5824,-649
5825,-695
5826,-722
5827,-728
5828,-728
5829,-725
5830,-702
5831,-651
5832,-623
5833,-614
5834,-605
5835,-607
5836,-623
5837,-642
5838,-660
5839,-671
5840,-670
5841,-661
5842,-633
5843,-592
5844,-575
5845,-566
5846,-548
5847,-526
5848,-516
5849,-523
5850,-531
5851,-534
5852,-541
5853,-540
5854,-532
5855,-530
5856,-538
5857,-564
5858,-596
5859,-609
5860,-613
5861,-616
5862,-609
5863,-584
5864,-488
5865,-420
5866,-343
5867,-264
5868,-190
5869,-126
5870,-71
5871,-42
5872,-42
5873,-61
5874,-97
5875,-156
5876,-234
5877,-325
5878,-422
5879,-518
5880,-602
5881,-666
5882,-713
5883,-743
5884,-753
5885,-745
5886,-719
5887,-681
5888,-627
5889,-560
5890,-501
5891,-461
5892,-425
5893,-400
5894,-389
5895,-382
5896,-380
5897,-388
5898,-382
5899,-372
5900,-359
5901,-321
5902,-295
5903,-269
5904,-246
5905,-244
5906,-259
5907,-283
5908,-302
5909,-295
5910,-280
5911,-269
5912,-244
5913,-213
5914,-202
5915,-206
5916,-201
5917,-186
5918,-175
5919,-149
5920,-105
5921,-71
5922,-58
5923,-55
5924,-60
5925,-74
5926,-87
5927,-98
5928,-103
5929,-105
5930,-108
5931,-106
5932,-101
5933,-94
5934,-89
5935,-93
5936,-91
5937,-77
5938,-44
5939,-12
5940,17
5941,46
5942,60
5943,58
5944,42
5945,24
5946,17
5947,33
5948,63
5949,109
5950,150
5951,165
5952,159
5953,159
5954,139
5955,113
5956,92
5957,75
5958,68
5959,83
5960,100
5961,112
5962,134
5963,154
5964,159
5965,156
5966,156
5967,153
5968,156
5969,168
5970,176
5971,185
5972,209
5973,238
5974,242
5975,244
5976,240
5977,235
5978,226
5979,212
5980,211
5981,221
5982,240
5983,273
5984,313
5985,340
5986,362
5987,372
5988,366
5989,355
5990,341
5991,312
5992,284
5993,275
5994,273
5995,288
5996,324
5997,368
5998,408
5999,432
6000,437
6001,423
6002,381
6003,327
6004,281
6005,244
6006,225
6007,230
6008,244
6009,261
6010,257
6011,247
6012,227
6013,199
6014,186
6015,188
6016,189
6017,203
6018,231
6019,244
6020,233
6021,209
6022,179
6023,144
6024,117
6025,115
6026,128
6027,148
6028,169
6029,184
6030,176
6031,146
6032,112
6033,86
6034,69
6035,68
6036,97
6037,140
6038,174
6039,192
6040,204
6041,203
6042,180
6043,150
6044,126
6045,109
6046,109
6047,122
6048,121
6049,113
6050,106
6051,96
6052,92
6053,99
6054,110
6055,126
6056,145
6057,148
6058,145
6059,139
6060,121
6061,108
6062,108
6063,118
6064,134
6065,147
6066,157
6067,163
6068,173
6069,176
6070,176
6071,181
6072,183
6073,187
6074,196
6075,204
6076,212
6077,226
6078,240
6079,243
6080,237
6081,230
6082,233
6083,233
6084,235
6085,243
6086,235
6087,219
6088,207
6089,188
6090,171
6091,172
6092,183
6093,200
6094,223
6095,223
6096,231
6097,235
6098,236
6099,223
6100,214
6101,219
6102,224
6103,235
6104,254
6105,273
6106,292
6107,311
6108,322
6109,327
6110,327
6111,320
6112,307
6113,295
6114,281
6115,269
6116,271
6117,284
6118,285
6119,282
6120,280
6121,280
6122,286
6123,293
6124,299
6125,297
6126,293
6127,285
6128,273
6129,267
6130,265
6131,270
6132,277
6133,274
6134,265
6135,258
6136,248
6137,238
6138,241
6139,249
6140,250
6141,242
6142,227
6143,208
6144,191
6145,178
6146,169
6147,155
6148,135
6149,109
6150,76
6151,41
6152,15
6153,27
6154,57
6155,95
6156,131
6157,150
6158,151
6159,155
6160,161
6161,150
6162,126
6163,106
6164,81
6165,47
6166,15
6167,-3
6168,-2
6169,14
6170,41
6171,82
6172,122
6173,142
6174,137
6175,125
6176,105
6177,87
6178,73
6179,61
6180,60
6181,68
6182,67
6183,52
6184,39
6185,39
6186,46
6187,68
6188,171
6189,233
6190,293
6191,358
6192,429
6193,489
6194,520
6195,528
6196,524
6197,503
6198,456
6199,386
6200,296
6201,182
6202,55
6203,-70
6204,-188
6205,-292
6206,-363
6207,-393
6208,-380
6209,-330
6210,-271
6211,-217
6212,-161
6213,-111
6214,-72
6215,-39
6216,-14
6217,-6
6218,-7
6219,-5
6220,-11
6221,-21
6222,-26
6223,-26
6224,0
6225,3
6226,8
6227,17
6228,18
6229,5
6230,-3
6231,-8
6232,-20
6233,-26
6234,-14
6235,3
6236,9
6237,6
6238,6
6239,0
6240,-12
6241,-21
6242,-26
6243,-25
6244,-10
6245,-1
6246,-1
6247,2
6248,-10
6249,-46
6250,-73
6251,-83
6252,-83
6253,-67
6254,-42
6255,-12
6256,22
6257,51
6258,69
6259,82
6260,70
6261,3
6262,-28
6263,-63
6264,-98
6265,-127
6266,-140
6267,-135
6268,-114
6269,-82
6270,-41
6271,5
6272,51
6273,81
6274,93
6275,85
6276,53
6277,3
6278,-37
6279,-64
6280,-92
6281,-113
6282,-118
6283,-107
6284,-86
6285,-62
6286,-34
6287,-4
6288,15
6289,20
6290,19
6291,8
6292,-23
6293,-58
6294,-79
6295,-88
6296,-87
6297,-74
6298,-66
6299,-53
6300,-40
6301,-22
6302,8
6303,46
6304,84
6305,113
6306,114
6307,91
6308,55
6309,17
6310,5
6311,15
6312,31
6313,44
6314,47
6315,43
6316,27
6317,7
6318,-6
6319,-17
6320,-23
6321,-17
6322,-18
6323,-36
6324,-58
6325,-67
6326,-63
6327,-51
6328,-38
6329,-29
6330,-26
6331,-42
6332,-70
6333,-77
6334,-89
6335,-107
6336,-137
6337,-161
6338,-185
6339,-204
6340,-203
6341,-184
6342,-160
6343,-138
6344,-123
6345,-120
6346,-131
6347,-156
6348,-189
6349,-213
6350,-236
6351,-267
6352,-302
6353,-332
6354,-349
6355,-348
6356,-328
6357,-298
6358,-268
6359,-237
6360,-220
6361,-222
6362,-234
6363,-255
6364,-266
6365,-266
6366,-268
6367,-275
6368,-309
6369,-372
6370,-441
6371,-484
6372,-492
6373,-469
6374,-418
6375,-338
6376,-254
6377,-201
6378,-171
6379,-152
6380,-152
6381,-166
6382,-229
6383,-301
6384,-361
6385,-425
6386,-479
6387,-492
6388,-461
6389,-402
6390,-333
6391,-270
6392,-221
6393,-209
6394,-228
6395,-245
6396,-255
6397,-268
6398,-281
6399,-290
6400,-304
6401,-324
6402,-338
6403,-342
6404,-331
6405,-293
6406,-270
6407,-245
6408,-232
6409,-222
6410,-213
6411,-234
6412,-300
6413,-381
6414,-450
6415,-491
6416,-501
6417,-471
6418,-398
6419,-306
6420,-221
6421,-161
6422,-142
6423,-166
6424,-198
6425,-214
6426,-224
6427,-235
6428,-258
6429,-292
6430,-315
6431,-337
6432,-351
6433,-343
6434,-320
6435,-283
6436,-236
6437,-203
6438,-193
6439,-189
6440,-186
6441,-177
6442,-166
6443,-166
6444,-176
6445,-216
6446,-276
6447,-330
6448,-361
6449,-350
6450,-304
6451,-234
6452,-158
6453,-99
6454,-68
6455,-66
6456,-93
6457,-144
6458,-199
6459,-237
6460,-242
6461,-219
6462,-193
6463,-161
6464,-123
6465,-95
6466,-78
6467,-71
6468,-81
6469,-98
6470,-113
6471,-117
6472,-100
6473,-81
6474,-71
6475,-56
6476,-44
6477,-72
6478,-109
6479,-156
6480,-199
6481,-229
6482,-238
6483,-226
6484,-204
6485,-188
6486,-174
6487,-161
6488,-153
6489,-153
6490,-156
6491,-157
6492,-159
6493,-164
6494,-169
6495,-173
6496,-182
6497,-199
6498,-207
6499,-202
6500,-200
6501,-201
6502,-200
6503,-189
6504,-170
6505,-152
6506,-138
6507,-123
6508,-122
6509,-143
6510,-167
6511,-196
6512,-237
6513,-236
6514,-224
6515,-192
6516,-144
6517,-90
6518,-25
6519,44
6520,115
6521,200
6522,200
6523,285
6524,351
6525,400
6526,416
6527,396
6528,357
6529,313
6530,255
6531,183
6532,103
6533,10
6534,-94
6535,-207
6536,-319
6537,-412
6538,-472
6539,-498
6540,-485
6541,-441
6542,-381
6543,-316
6544,-254
6545,-195
6546,-138
6547,-99
6548,-76
6549,-81
6550,-85
6551,-87
6552,-87
6553,-72
6554,-53
6555,-42
6556,-31
6557,-21
6558,-29
6559,-44
6560,-48
6561,-36
6562,-15
6563,8
6564,30
6565,53
6566,70
6567,73
6568,69
6569,64
6570,52
6571,41
6572,41
6573,45
6574,49
6575,49
6576,49
6577,52
6578,50
6579,47
6580,42
6581,34
6582,25
6583,16
6584,12
6585,13
6586,18
6587,22
6588,25
6589,32
6590,39
6591,49
6592,57
6593,67
6594,83
6595,93
6596,92
6597,88
6598,81
6599,69
6600,56
6601,56
6602,65
6603,76
6604,90
6605,102
6606,114
6607,117
6608,116
6609,118
6610,123
6611,130
6612,140
6613,153
6614,166
6615,174
6616,179
6617,185
6618,188
6619,185
6620,182
6621,180
6622,179
6623,178
6624,178
6625,184
6626,192
6627,201
6628,210
6629,217
6630,225
6631,232
6632,240
6633,246
6634,246
6635,242
6636,240
6637,243
6638,246
6639,250
6640,263
6641,281
6642,300
6643,319
6644,332
6645,336
6646,333
6647,325
6648,316
6649,309
6650,302
6651,297
6652,301
6653,306
6654,314
6655,318
6656,318
6657,320
6658,320
6659,319
6660,319
6661,317
6662,313
6663,307
6664,307
6665,294
6666,275
6667,254
6668,229
6669,202
6670,183
6671,169
6672,164
6673,170
6674,182
6675,195
6676,207
6677,209
6678,209
6679,208
6680,197
6681,183
6682,172
6683,158
6684,146
6685,139
6686,132
6687,126
6688,125
6689,126
6690,149
6691,163
6692,176
6693,187
6694,191
6695,186
6696,176
6697,162
6698,147
6699,133
6700,124
6701,121
6702,122
6703,125
6704,128
6705,131
6706,138
6707,142
6708,141
6709,139
6710,129
6711,117
6712,107
6713,95
6714,85
6715,81
6716,82
6717,88
6718,99
6719,111
6720,121
6721,131
6722,137
6723,139
6724,135
6725,123
6726,105
6727,101
6728,100
6729,103
6730,104
6731,104
6732,105
6733,108
6734,111
6735,118
6736,126
6737,134
6738,136
6739,128
6740,115
6741,103
6742,90
6743,78
6744,75
6745,81
6746,94
6747,106
6748,117
6749,124
6750,126
6751,121
6752,111
6753,101
6754,91
6755,80
6756,76
6757,82
6758,92
6759,100
6760,111
6761,115
6762,117
6763,115
6764,112
6765,109
6766,105
6767,101
6768,101
6769,105
6770,110
6771,118
6772,127
6773,133
6774,138
6775,136
6776,129
6777,119
6778,108
6779,99
6780,95
6781,95
6782,94
6783,89
6784,84
6785,76
6786,68
6787,61
6788,58
6789,59
6790,66
6791,72
6792,77
6793,77
6794,73
6795,63
6796,53
6797,24
6798,12
6799,1
6800,-8
6801,-13
6802,-16
6803,-17
6804,-15
6805,-11
6806,-10
6807,-10
6808,-15
6809,-22
6810,-28
6811,-32
6812,-39
6813,-43
6814,-42
6815,-40
6816,-33
6817,-23
6818,-9
6819,2
6820,5
6821,3
6822,-3
6823,-20
6824,-45
6825,-67
6826,-88
6827,-107
6828,-116
6829,-114
6830,-101
6831,-77
6832,-43
6833,55
6834,112
6835,168
6836,230
6837,290
6838,341
6839,382
6840,407
6841,410
6842,399
6843,370
6844,319
6845,247
6846,158
6847,51
6848,-66
6849,-190
6850,-306
6851,-402
6852,-462
6853,-480
6854,-457
6855,-403
6856,-338
6857,-273
6858,-213
6859,-163
6860,-126
6861,-107
6862,-98
6863,-96
6864,-97
6865,-102
6866,-109
6867,-113
6868,-123
6869,-121
6870,-113
6871,-106
6872,-100
6873,-94
6874,-90
6875,-89
6876,-92
6877,-101
6878,-109
6879,-117
6880,-125
6881,-123
6882,-116
6883,-110
6884,-103
6885,-95
6886,-89
6887,-85
6888,-88
6889,-98
6890,-109
6891,-120
6892,-132
6893,-141
6894,-144
6895,-145
6896,-135
6897,-116
6898,-97
6899,-84
6900,-78
6901,-80
6902,-88
6903,-102
6904,-131
6905,-136
6906,-130
6907,-117
6908,-103
6909,-95
6910,-95
6911,-101
6912,-114
6913,-130
6914,-142
6915,-148
6916,-145
6917,-132
6918,-112
6919,-94
6920,-84
6921,-83
6922,-89
6923,-98
6924,-109
6925,-114
6926,-113
6927,-107
6928,-96
6929,-83
6930,-74
6931,-71
6932,-76
6933,-84
6934,-93
6935,-100
6936,-103
6937,-98
6938,-87
6939,-60
6940,-48
6941,-46
6942,-57
6943,-69
6944,-81
6945,-85
6946,-78
6947,-62
6948,-45
6949,-45
6950,-33
6951,-32
6952,-35
6953,-43
6954,-57
6955,-73
6956,-78
6957,-78
6958,-72
6959,-61
6960,-50
6961,-42
6962,-34
6963,-27
6964,-20
6965,-16
6966,-17
6967,-16
6968,-16
6969,-21
6970,-26
6971,-33
6972,-44
6973,-54
6974,-62
6975,-81
6976,-91
6977,-99
6978,-103
6979,-109
6980,-118
6981,-123
6982,-128
6983,-138
6984,-148
6985,-159
6986,-172
6987,-179
6988,-184
6989,-185
6990,-183
6991,-188
6992,-198
6993,-208
6994,-220
6995,-231
6996,-238
6997,-239
6998,-236
6999,-230
7000,-227
7001,-228
7002,-229
7003,-230
7004,-237
7005,-242
7006,-247
7007,-249
7008,-253
7009,-256
7010,-258
7011,-266
7012,-265
7013,-261
7014,-253
7015,-244
7016,-233
7017,-225
7018,-221
7019,-221
7020,-227
7021,-236
7022,-245
7023,-252
7024,-256
7025,-258
7026,-261
7027,-260
7028,-257
7029,-255
7030,-248
7031,-239
7032,-234
7033,-228
7034,-223
7035,-228
7036,-237
7037,-247
7038,-256
7039,-260
7040,-260
7041,-258
7042,-248
7043,-239
7044,-229
7045,-218
7046,-205
7047,-204
7048,-209
7049,-218
7050,-229
7051,-243
7052,-254
7053,-258
7054,-262
7055,-263
7056,-260
7057,-262
7058,-259
7059,-252
7060,-246
7061,-238
7062,-222
7063,-205
7064,-193
7065,-181
7066,-176
7067,-175
7068,-173
7069,-177
7070,-183
7071,-191
7072,-201
7073,-208
7074,-207
7075,-204
7076,-197
7077,-184
7078,-167
7079,-154
7080,-143
7081,-135
7082,-130
7083,-130
7084,-132
7085,-136
7086,-144
7087,-150
7088,-156
7089,-161
7090,-166
7091,-166
7092,-170
7093,-171
7094,-171
7095,-172
7096,-173
7097,-173
7098,-172
7099,-170
7100,-170
7101,-174
7102,-183
7103,-194
7104,-204
7105,-212
7106,-216
7107,-213
7108,-208
7109,-205
7110,-208
7111,-213
7112,-224
7113,-238
7114,-249
7115,-256
7116,-255
7117,-249
7118,-237
7119,-217
7120,-212
7121,-211
7122,-208
7123,-206
7124,-207
7125,-209
7126,-208
7127,-205
7128,-202
7129,-198
7130,-197
7131,-197
7132,-197
7133,-197
7134,-200
7135,-203
7136,-206
7137,-204
7138,-190
7139,-165
7140,-127
7141,-84
7142,-37
7143,15
7144,71
7145,134
7146,197
7147,254
7148,297
7149,319
7150,319
7151,294
7152,243
7153,165
7154,-39
7155,-155
7156,-271
7157,-378
7158,-471
7159,-538
7160,-572
7161,-566
7162,-533
7163,-482
7164,-422
7165,-357
7166,-294
7167,-242
7168,-204
7169,-178
7170,-164
7171,-161
7172,-157
7173,-156
7174,-159
7175,-164
7176,-170
7177,-167
7178,-164
7179,-163
7180,-157
7181,-146
7182,-134
7183,-125
7184,-118
7185,-116
7186,-117
7187,-121
7188,-122
7189,-119
7190,-116
7191,-114
7192,-111
7193,-107
7194,-106
7195,-105
7196,-103
7197,-103
7198,-108
7199,-116
7200,-124
7201,-132
7202,-136
7203,-137
7204,-132
7205,-123
7206,-110
7207,-100
7208,-94
7209,-90
7210,-89
7211,-90
7212,-95
7213,-99
7214,-99
7215,-98
7216,-98
7217,-95
7218,-91
7219,-88
7220,-88
7221,-87
7222,-87
7223,-86
7224,-84
7225,-79
7226,-79
7227,-81
7228,-81
7229,-76
7230,-67
7231,-53
7232,-40
7233,-40
7234,-27
7235,-16
7236,-13
7237,-16
7238,-24
7239,-31
7240,-37
7241,-38
7242,-35
7243,-33
7244,-30
7245,-28
7246,-23
7247,-18
7248,-11
7249,2
7250,19
7251,32
7252,40
7253,43
7254,39
7255,30
7256,21
7257,13
7258,10
7259,13
7260,21
7261,32
7262,39
7263,37
7264,37
7265,36
7266,38
7267,44
7268,50
7269,54
7270,61
7271,62
7272,60
7273,55
7274,50
7275,49
7276,53
7277,54
7278,57
7279,65
7280,68
7281,69
7282,69
7283,61
7284,52
7285,41
7286,27
7287,13
7288,2
7289,-6
7290,-16
7291,-21
7292,-23
7293,-26
7294,-29
7295,-37
7296,-48
7297,-75
7298,-91
7299,-101
7300,-110
7301,-114
7302,-109
7303,-94
7304,-77
7305,-64
7306,-58
7307,-63
7308,-73
7309,-85
7310,-101
7311,-116
7312,-123
7313,-120
7314,-113
7315,-110
7316,-108
7317,-110
7318,-117
7319,-123
7320,-127
7321,-127
7322,-122
7323,-115
7324,-104
7325,-91
7326,-81
7327,-79
7328,-83
7329,-88
7330,-97
7331,-104
7332,-106
7333,-100
7334,-93
7335,-90
7336,-87
7337,-87
7338,-93
7339,-97
7340,-98
7341,-96
7342,-96
7343,-97
7344,-96
7345,-93
7346,-91
7347,-87
7348,-79
7349,-74
7350,-68
7351,-61
7352,-58
7353,-61
7354,-66
7355,-73
7356,-73
7357,-75
7358,-77
7359,-73
7360,-64
7361,-62
7362,-57
7363,-52
7364,-51
7365,-50
7366,-44
7367,-35
7368,-34
7369,-32
7370,-28
7371,-23
7372,-20
7373,-10
7374,1
7375,1
7376,8
7377,17
7378,26
7379,28
7380,26
7381,25
7382,21
7383,16
7384,12
7385,8
7386,6
7387,2
7388,-5
7389,-6
7390,-6
7391,-7
7392,-4
7393,-1
7394,0
7395,2
7396,5
7397,7
7398,9
7399,4
7400,-5
7401,-16
7402,-28
7403,-51
7404,-58
7405,-60
7406,-57
7407,-53
7408,-48
7409,-43
7410,-45
7411,-48
7412,-50
7413,-55
7414,-61
7415,-70
7416,-78
7417,-81
7418,-80
7419,-73
7420,-66
7421,-61
7422,-58
7423,-53
7424,-54
7425,-58
7426,-55
7427,-54
7428,-52
7429,-46
7430,-44
7431,-44
7432,-46
7433,-48
7434,-46
7435,-43
7436,-40
7437,-40
7438,-39
7439,-33
7440,-18
7441,7
7442,43
7443,96
7444,164
7445,240
7446,311
7447,371
7448,410
7449,417
7450,401
7451,366
7452,313
7453,243
7454,165
7455,79
7456,-17
7457,-121
7458,-222
7459,-310
7460,-372
7461,-402
7462,-399
7463,-364
7464,-317
7465,-270
7466,-217
7467,-171
7468,-136
7469,-104
7470,-75
7471,-55
7472,-39
7473,-29
7474,-26
7475,-22
7476,-19
7477,-6
7478,11
7479,25
7480,38
7481,46
7482,45
7483,41
7484,32
7485,20
7486,9
7487,1
7488,-6
7489,-8
7490,-2
7491,2
7492,9
7493,19
7494,28
7495,39
7496,51
7497,62
7498,72
7499,81
7500,87
7501,91
7502,97
7503,97
7504,96
7505,91
7506,81
7507,71
7508,61
7509,52
7510,45
7511,43
7512,48
7513,59
7514,70
7515,74
7516,76
7517,76
7518,76
7519,76
7520,82
7521,93
7522,106
7523,121
7524,133
7525,141
7526,146
7527,146
7528,140
7529,135
7530,133
7531,135
7532,140
7533,143
7534,144
7535,150
7536,158
7537,166
7538,178
7539,190
7540,196
7541,199
7542,206
7543,216
7544,218
7545,210
7546,201
7547,185
7548,179
7549,180
7550,192
7551,214
7552,240
7553,262
7554,272
7555,265
7556,249
7557,231
7558,209
7559,194
7560,193
7561,202
7562,221
7563,241
7564,262
7565,280
7566,292
7567,292
7568,293
7569,291
7570,284
7571,277
7572,273
7573,266
7574,254
7575,240
7576,236
7577,241
7578,246
7579,254
7580,273
7581,287
7582,292
7583,281
7584,260
7585,237
7586,223
7587,213
7588,209
7589,209
7590,214
7591,217
7592,210
7593,195
7594,178
7595,155
7596,131
7597,115
7598,111
7599,107
7600,102
7601,100
7602,97
7603,93
7604,93
7605,96
7606,104
7607,116
7608,124
7609,130
7610,132
7611,124
7612,107
7613,92
7614,82
7615,83
7616,92
7617,104
7618,117
7619,136
7620,136
7621,130
7622,120
7623,105
7624,88
7625,72
7626,61
7627,54
7628,54
7629,63
7630,77
7631,94
7632,103
7633,103
7634,98
7635,87
7636,73
7637,63
7638,56
7639,50
7640,47
7641,46
7642,48
7643,55
7644,68
7645,83
7646,97
7647,107
7648,108
7649,103
7650,92
7651,74
7652,57
7653,44
7654,39
7655,43
7656,53
7657,67
7658,82
7659,94
7660,94
7661,99
7662,101
7663,98
7664,93
7665,89
7666,83
7667,75
7668,67
7669,62
7670,57
7671,55
7672,59
7673,66
7674,74
7675,84
7676,96
7677,104
7678,102
7679,101
7680,103
7681,101
7682,95
7683,89
7684,87
7685,88
7686,94
7687,104
7688,117
7689,122
7690,111
7691,67
7692,41
7693,19
7694,5
7695,-1
7696,-1
7697,0
7698,3
7699,6
7700,9
7701,13
7702,21
7703,30
7704,33
7705,29
7706,16
7707,-3
7708,-26
7709,-45
7710,-56
7711,-61
7712,-61
7713,-61
7714,-59
7715,-55
7716,-53
7717,-52
7718,-48
7719,-48
7720,-51
7721,-59
7722,-71
7723,-87
7724,-110
7725,-136
7726,-157
7727,-163
7728,-155
7729,-142
7730,-125
7731,-112
7732,-105
7733,-101
7734,-103
7735,-107
7736,-110
7737,-110
7738,-106
7739,-101
7740,-99
7741,-99
7742,-99
7743,-98
7744,-92
7745,-84
7746,-72
7747,-50
7748,-21
7749,11
7750,51
7751,101
7752,160
7753,223
7754,277
7755,317
7756,338
7757,335
7758,309
7759,259
7760,186
7761,94
7762,-122
7763,-238
7764,-351
7765,-446
7766,-511
7767,-538
7768,-527
7769,-483
7770,-424
7771,-362
7772,-300
7773,-248
7774,-211
7775,-181
7776,-159
7777,-143
7778,-132
7779,-125
7780,-125
7781,-127
7782,-132
7783,-137
7784,-138
7785,-138
7786,-134
7787,-127
7788,-118
7789,-111
7790,-107
7791,-103
7792,-100
7793,-100
7794,-102
7795,-103
7796,-101
7797,-95
7798,-92
7799,-88
7800,-84
7801,-85
7802,-85
7803,-86
7804,-86
7805,-86
7806,-89
7807,-90
7808,-84
7809,-74
7810,-66
7811,-60
7812,-56
7813,-57
7814,-61
7815,-67
7816,-72
7817,-74
7818,-80
7819,-87
7820,-92
7821,-94
7822,-95
7823,-89
7824,-75
7825,-55
7826,-31
7827,-10
7828,2
7829,7
7830,2
7831,-5
7832,-13
7833,-27
7834,-31
7835,-34
7836,-40
7837,-43
7838,-46
7839,-47
7840,-43
7841,-36
7842,-24
7843,-10
7844,0
7845,5
7846,11
7847,14
7848,13
7849,13
7850,14
7851,17
7852,21
7853,24
7854,29
7855,38
7856,45
7857,50
7858,57
7859,60
7860,58
7861,58
7862,62
7863,65
7864,70
7865,79
7866,88
7867,106
7868,106
7869,114
7870,116
7871,117
7872,121
7873,126
7874,129
7875,133
7876,136
7877,135
7878,133
7879,130
7880,126
7881,122
7882,122
7883,127
7884,134
7885,143
7886,149
7887,149
7888,145
7889,140
7890,133
7891,127
7892,118
7893,108
7894,96
7895,83
7896,67
7897,49
7898,33
7899,24
7900,18
7901,18
7902,23
7903,30
7904,36
7905,44
7906,40
7907,29
7908,14
7909,-2
7910,-16
7911,-30
7912,-36
7913,-31
7914,-21
7915,-14
7916,-6
7917,-3
7918,-4
7919,-9
7920,-16
7921,-25
7922,-31
7923,-36
7924,-35
7925,-26
7926,-14
7927,-3
7928,5
7929,12
7930,14
7931,12
7932,5
7933,-3
7934,-10
7935,-14
7936,-14
7937,-13
7938,-11
7939,-10
7940,-10
7941,-5
7942,-7
7943,-9
7944,-9
7945,-10
7946,-8
7947,-6
7948,-1
7949,4
7950,11
7951,16
7952,18
7953,18
7954,15
7955,10
7956,9
7957,9
7958,12
7959,13
7960,15
7961,16
7962,19
7963,20
7964,23
7965,26
7966,27
7967,26
7968,23
7969,16
7970,12
7971,11
7972,12
7973,16
7974,23
7975,30
7976,36
7977,32
7978,27
7979,25
7980,23
7981,24
7982,29
7983,38
7984,51
7985,66
7986,78
7987,88
7988,92
7989,91
7990,91
7991,92
7992,93
7993,101
7994,113
7995,126
7996,139
7997,149
7998,151
7999,152
8000,152
8001,148
8002,141
8003,133
8004,124
8005,115
8006,105
8007,94
8008,86
8009,84
8010,85
8011,93
8012,104
8013,112
8014,111
8015,103
8016,89
8017,72
8018,52
8019,34
8020,22
8021,14
8022,7
8023,5
8024,7
8025,10
8026,15
8027,19
8028,21
8029,21
8030,21
8031,19
8032,18
8033,17
8034,17
8035,24
8036,34
8037,41
8038,49
8039,54
8040,53
8041,50
8042,44
8043,36
8044,26
8045,22
8046,24
8047,27
8048,32
8049,35
8050,33
8051,32
8052,32
8053,30
8054,24
8055,21
8056,23
8057,34
8058,52
8059,82
8060,124
8061,173
8062,227
8063,292
8064,365
8065,431
8066,483
8067,513
8068,521
8069,502
8070,457
8071,393
8072,317
8073,225
8074,125
8075,23
8076,-77
8077,-175
8078,-260
8079,-321
8080,-344
8081,-337
8082,-301
8083,-249
8084,-131
8085,-79
8086,-34
8087,-34
8088,3
8089,30
8090,47
8091,56
8092,58
8093,58
8094,57
8095,56
8096,54
8097,56
8098,59
8099,65
8100,73
8101,80
8102,86
8103,93
8104,101
8105,104
8106,105
8107,103
8108,100
8109,97
8110,93
8111,85
8112,77
8113,78
8114,87
8115,97
8116,112
8117,126
8118,134
8119,136
8120,125
8121,115
8122,110
8123,112
8124,121
8125,130
8126,133
8127,131
8128,132
8129,129
8130,123
8131,118
8132,113
8133,109
8134,107
8135,107
8136,110
8137,117
8138,126
8139,136
8140,140
8141,138
8142,129
8143,120
8144,116
8145,119
8146,129
8147,142
8148,156
8149,170
8150,179
8151,182
8152,181
8153,177
8154,178
8155,181
8156,183
8157,181
8158,174
8159,169
8160,171
8161,172
8162,176
8163,185
8164,191
8165,199
8166,206
8167,207
8168,211
8169,214
8170,213
8171,211
8172,211
8173,210
8174,206
8175,209
8176,214
8177,221
8178,228
8179,233
8180,236
8181,238
8182,239
8183,235
8184,234
8185,238
8186,235
8187,234
8188,238
8189,238
8190,236
8191,236
8192,231
8193,226
8194,216
8195,206
8196,201
8197,194
8198,190
8199,193
8200,194
8201,193
8202,191
8203,186
8204,176
8205,166
8206,156
8207,148
8208,144
8209,141
8210,138
8211,132
8212,122
8213,109
8214,94
8215,83
8216,75
8217,74
8218,73
8219,71
8220,71
8221,68
8222,61
8223,51
8224,43
8225,35
8226,30
8227,27
8228,20
8229,20
8230,19
8231,19
8232,23
8233,27
8234,28
8235,30
8236,31
8237,28
8238,25
8239,20
8240,14
8241,11
8242,15
8243,22
8244,28
8245,34
8246,38
8247,40
8248,40
8249,40
8250,44
8251,53
8252,60
8253,67
8254,70
8255,63
8256,48
8257,32
8258,22
8259,19
8260,26
8261,41
8262,61
8263,74
8264,80
8265,78
8266,69
8267,61
8268,56
8269,53
8270,49
8271,40
8272,34
8273,35
8274,37
8275,42
8276,53
8277,61
8278,66
8279,71
8280,73
8281,74
8282,74
8283,71
8284,73
8285,76
8286,75
8287,74
8288,74
8289,78
8290,89
8291,103
8292,116
8293,126
8294,131
8295,127
8296,121
8297,113
8298,110
8299,111
8300,123
8301,133
8302,138
8303,139
8304,140
8305,141
8306,146
8307,154
8308,164
8309,171
8310,170
8311,158
8312,141
8313,122
8314,105
8315,95
8316,94
8317,101
8318,114
8319,126
8320,131
8321,130
8322,125
8323,116
8324,108
8325,102
8326,98
8327,96
8328,91
8329,84
8330,76
8331,66
8332,59
8333,57
8334,60
8335,70
8336,73
8337,75
8338,73
8339,71
8340,73
8341,76
8342,80
8343,84
8344,86
8345,88
8346,86
8347,83
8348,81
8349,81
8350,80
8351,80
8352,83
8353,87
8354,87
8355,90
8356,91
8357,88
8358,84
8359,77
8360,70
8361,65
8362,58
8363,52
8364,47
8365,41
8366,40
8367,47
8368,64
8369,90
8370,132
8371,183
8372,239
8373,300
8374,366
8375,429
8376,483
8377,522
8378,542
8379,537
8380,515
8381,473
8382,414
8383,337
8384,242
8385,136
8386,27
8387,-81
8388,-178
8389,-251
8390,-292
8391,-299
8392,-274
8393,-232
8394,-179
8395,-128
8396,-79
8397,-38
8398,-2
8399,25
8400,47
8401,61
8402,72
8403,78
8404,81
8405,79
8406,78
8407,73
8408,71
8409,71
8410,73
8411,77
8412,82
8413,89
8414,93
8415,96
8416,97
8417,95
8418,94
8419,94
8420,94
8421,93
8422,94
8423,96
8424,97
8425,98
8426,95
8427,90
8428,87
8429,82
8430,79
8431,80
8432,81
8433,81
8434,80
8435,78
8436,77
8437,79
8438,81
8439,83
8440,85
8441,89
8442,91
8443,90
8444,88
8445,85
8446,84
8447,85
8448,85
8449,82
8450,74
8451,68
8452,67
8453,69
8454,73
8455,81
8456,88
8457,93
8458,99
8459,102
8460,103
8461,102
8462,103
8463,106
8464,111
8465,116
8466,118
8467,122
8468,126
8469,129
8470,129
8471,129
8472,122
8473,116
8474,112
8475,111
8476,114
8477,131
8478,141
8479,151
8480,155
8481,156
8482,156
8483,158
8484,161
8485,164
8486,167
8487,167
8488,166
8489,161
8490,154
8491,151
8492,155
8493,161
8494,173
8495,188
8496,195
8497,198
8498,196
8499,187
8500,176
8501,165
8502,159
8503,159
8504,163
8505,168
8506,173
8507,175
8508,174
8509,170
8510,164
8511,155
8512,146
8513,138
8514,129
8515,119
8516,108
8517,97
8518,83
8519,72
8520,65
8521,64
8522,68
8523,71
8524,75
8525,74
8526,66
8527,53
8528,36
8529,20
8530,5
8531,-5
8532,-9
8533,-11
8534,-14
8535,-12
8536,-12
8537,-15
8538,-19
8539,-22
8540,-28
8541,-33
8542,-39
8543,-43
8544,-46
8545,-47
8546,-41
8547,-30
8548,-19
8549,-7
8550,6
8551,4
8552,-3
8553,-12
8554,-21
8555,-31
8556,-37
8557,-35
8558,-30
8559,-24
8560,-18
8561,-18
8562,-20
8563,-26
8564,-32
8565,-37
8566,-38
8567,-34
8568,-26
8569,-17
8570,-6
8571,1
8572,3
8573,2
8574,3
8575,2
8576,0
8577,-1
8578,0
8579,0
8580,-1
8581,-1
8582,2
8583,8
8584,14
8585,16
8586,14
8587,8
8588,3
8589,1
8590,-1
8591,-2
8592,1
8593,6
8594,9
8595,11
8596,10
8597,10
8598,12
8599,14
8600,16
8601,17
8602,14
8603,12
8604,10
8605,7
8606,7
8607,7
8608,9
8609,14
8610,17
8611,18
8612,19
8613,18
8614,20
8615,29
8616,43
8617,57
8618,69
8619,78
8620,80
8621,66
8622,54
8623,45
8624,42
8625,43
8626,50
8627,60
8628,65
8629,68
8630,69
8631,70
8632,71
8633,73
8634,75
8635,82
8636,87
8637,87
8638,86
8639,80
8640,69
8641,61
8642,56
8643,57
8644,59
8645,61
8646,61
8647,58
8648,51
8649,41
8650,28
8651,16
8652,8
8653,3
8654,0
8655,0
8656,0
8657,0
8658,2
8659,2
8660,3
8661,3
8662,2
8663,0
8664,0
8665,0
8666,-1
8667,0
8668,2
8669,1
8670,0
8671,-1
8672,-7
8673,-12
8674,-8
8675,-4
8676,3
8677,12
8678,15
8679,17
8680,14
8681,8
8682,2
8683,1
8684,1
8685,4
8686,6
8687,6
8688,8
8689,15
8690,29
8691,57
8692,97
8693,200
8694,260
8695,325
8696,386
8697,435
8698,468
8699,484
8700,481
8701,458
8702,413
8703,349
8704,265
8705,160
8706,46
8707,-69
8708,-183
8709,-280
8710,-345
8711,-375
8712,-365
8713,-325
8714,-271
8715,-210
8716,-147
8717,-95
8718,-54
8719,-22
8720,-5
8721,1
8722,4
8723,3
8724,4
8725,7
8726,16
8727,27
8728,37
8729,39
8730,37
8731,32
8732,28
8733,26
8734,27
8735,28
8736,27
8737,30
8738,37
8739,43
8740,50
8741,60
8742,71
8743,79
8744,81
8745,78
8746,70
8747,58
8748,46
8749,42
8750,41
8751,42
8752,48
8753,55
8754,60
8755,63
8756,58
8757,52
8758,49
8759,47
8760,48
8761,54
8762,61
8763,69
8764,75
8765,85
8766,97
8767,104
8768,109
8769,110
8770,101
8771,90
8772,76
8773,63
8774,53
8775,52
8776,57
8777,65
8778,75
8779,85
8780,92
8781,96
8782,94
8783,90
8784,88
8785,88
8786,89
8787,95
8788,102
8789,104
8790,103
8791,99
8792,92
8793,92
8794,98
8795,108
8796,120
8797,130
8798,137
8799,146
8800,155
8801,166
8802,180
8803,191
8804,200
8805,209
8806,211
8807,206
8808,201
8809,198
8810,203
8811,218
8812,240
8813,259
8814,273
8815,281
8816,281
8817,278
8818,271
8819,262
8820,260
8821,262
8822,263
8823,272
8824,283
8825,289
8826,295
8827,298
8828,295
8829,286
8830,269
8831,251
8832,236
8833,216
8834,188
8835,179
8836,174
8837,171
8838,166
8839,161
8840,154
8841,145
8842,141
8843,141
8844,141
8845,145
8846,156
8847,158
8848,157
8849,162
8850,175
8851,197
8852,229
8853,259
8854,275
8855,281
8856,287
8857,294
8858,302
8859,307
8860,302
8861,281
8862,231
8863,153
8864,63
8865,-24
8866,-96
8867,-127
8868,-116
8869,-47
8870,-13
8871,16
8872,33
8873,44
8874,54
8875,61
8876,62
8877,60
8878,57
8879,56
8880,60
8881,74
8882,95
8883,121
8884,145
8885,166
8886,176
8887,176
8888,166
8889,153
8890,143
8891,134
8892,129
8893,127
8894,130
8895,134
8896,142
8897,150
8898,159
8899,170
8900,177
8901,178
8902,175
8903,164
8904,152
8905,142
8906,140
8907,139
8908,142
8909,150
8910,159
8911,166
8912,170
8913,170
8914,166
8915,160
8916,153
8917,148
8918,145
8919,148
8920,153
8921,159
8922,159
8923,156
8924,152
8925,145
8926,140
8927,135
8928,132
8929,132
8930,132
8931,129
8932,126
8933,121
8934,114
8935,114
8936,117
8937,121
8938,129
8939,140
8940,148
8941,156
8942,160
8943,163
8944,163
8945,160
8946,157
8947,159
8948,156
8949,146
8950,136
8951,125
8952,113
8953,108
8954,114
8955,128
8956,145
8957,160
8958,171
8959,176
8960,166
8961,147
8962,124
8963,101
8964,82
8965,71
8966,74
8967,86
8968,97
8969,105
8970,110
8971,105
8972,92
8973,78
8974,72
8975,73
8976,85
8977,106
8978,108
8979,101
8980,89
8981,74
8982,62
8983,62
8984,88
8985,140
8986,211
8987,280
8988,323
8989,323
8990,277
8991,194
8992,90
8993,-2
8994,-56
8995,-65
8996,-30
8997,29
8998,74
8999,85
9000,76
9001,62
9002,59
9003,74
9004,92
9005,108
9006,109
9007,80
9008,36
9009,-6
9010,-46
9011,-64
9012,-47
9013,70
9014,147
9015,225
9016,310
9017,394
9018,462
9019,511
9020,533
9021,523
9022,496
9023,452
9024,393
9025,320
9026,221
9027,100
9028,-29
9029,-159
9030,-276
9031,-363
9032,-411
9033,-417
9034,-386
9035,-332
9036,-267
9037,-202
9038,-140
9039,-88
9040,-47
9041,-14
9042,6
9043,20
9044,33
9045,42
9046,44
9047,39
9048,25
9049,14
9050,8
9051,11
9052,22
9053,36
9054,50
9055,65
9056,76
9057,80
9058,81
9059,84
9060,86
9061,82
9062,77
9063,77
9064,77
9065,77
9066,81
9067,87
9068,90
9069,91
9070,94
9071,97
9072,96
9073,94
9074,93
9075,92
9076,89
9077,80
9078,72
9079,69
9080,72
9081,81
9082,81
9083,93
9084,108
9085,114
9086,117
9087,112
9088,106
9089,101
9090,100
9091,101
9092,103
9093,106
9094,104
9095,101
9096,99
9097,97
9098,95
9099,93
9100,94
9101,99
9102,100
9103,98
9104,96
9105,97
9106,96
9107,102
9108,109
9109,119
9110,132
9111,140
9112,140
9113,138
9114,135
9115,132
9116,131
9117,132
9118,134
9119,137
9120,142
9121,146
9122,151
9123,157
9124,166
9125,172
9126,173
9127,171
9128,165
9129,162
9130,164
9131,174
9132,193
9133,216
9134,237
9135,250
9136,249
9137,233
9138,209
9139,182
9140,156
9141,140
9142,141
9143,154
9144,173
9145,193
9146,206
9147,209
9148,201
9149,184
9150,168
9151,151
9152,139
9153,138
9154,145
9155,158
9156,161
9157,162
9158,158
9159,147
9160,131
9161,121
9162,112
9163,107
9164,109
9165,111
9166,110
9167,100
9168,83
9169,59
9170,31
9171,4
9172,-15
9173,-21
9174,-20
9175,-17
9176,-12
9177,-9
9178,-10
9179,-12
9180,-12
9181,-13
9182,-7
9183,0
9184,4
9185,6
9186,3
9187,-5
9188,-14
9189,-24
9190,-38
9191,-38
9192,-38
9193,-35
9194,-32
9195,-37
9196,-39
9197,-37
9198,-32
9199,-22
9200,-12
9201,-6
9202,0
9203,0
9204,-3
9205,-10
9206,-15
9207,-21
9208,-24
9209,-21
9210,-19
9211,-19
9212,-23
9213,-29
9214,-35
9215,-41
9216,-46
9217,-47
9218,-42
9219,-34
9220,-25
9221,-15
9222,-12
9223,-14
9224,-16
9225,-16
9226,-16
9227,-21
9228,-16
9229,-11
9230,-6
9231,-1
9232,0
9233,1
9234,0
9235,0
9236,1
9237,-1
9238,-7
9239,-9
9240,-12
9241,-18
9242,-18
9243,-13
9244,-7
9245,-1
9246,-1
9247,0
9248,6
9249,10
9250,10
9251,10
9252,3
9253,-12
9254,-24
9255,-32
9256,-37
9257,-44
9258,-43
9259,-28
9260,-11
9261,15
9262,25
9263,28
9264,29
9265,29
9266,23
9267,11
9268,0
9269,-3
9270,3
9271,12
9272,28
9273,45
9274,60
9275,69
9276,73
9277,71
9278,61
9279,50
9280,42
9281,38
9282,40
9283,49
9284,61
9285,69
9286,77
9287,82
9288,81
9289,77
9290,71
9291,62
9292,59
9293,56
9294,56
9295,54
9296,40
9297,28
9298,13
9299,-5
9300,-23
9301,-39
9302,-48
9303,-46
9304,-41
9305,-35
9306,-27
9307,-21
9308,-17
9309,-16
9310,-18
9311,-21
9312,-23
9313,-21
9314,-17
9315,-12
9316,-14
9317,-21
9318,-29
9319,-42
9320,-58
9321,-70
9322,-78
9323,-80
9324,-75
9325,-69
9326,-64
9327,-58
9328,-55
9329,-54
9330,-53
9331,-53
9332,-41
9333,-25
9334,-11
9335,-1
9336,0
9337,5
9338,19
9339,39
9340,66
9341,107
9342,154
9343,213
9344,281
9345,347
9346,400
9347,433
9348,448
9349,447
9350,427
9351,382
9352,315
9353,232
9354,132
9355,20
9356,-96
9357,-213
9358,-319
9359,-396
9360,-436
9361,-438
9362,-406
9363,-352
9364,-288
9365,-221
9366,-165
9367,-118
9368,-83
9369,-56
9370,-39
9371,-29
9372,-27
9373,-24
9374,-19
9375,-10
9376,2
9377,15
9378,21
9379,26
9380,27
9381,25
9382,21
9383,12
9384,4
9385,0
9386,-1
9387,-1
9388,4
9389,9
9390,15
9391,23
9392,25
9393,25
9394,18
9395,2
9396,-12
9397,-21
9398,-25
9399,-19
9400,-6
9401,8
9402,23
9403,35
9404,45
9405,40
9406,32
9407,28
9408,26
9409,21
9410,20
9411,20
9412,20
9413,22
9414,30
9415,39
9416,50
9417,64
9418,76
9419,86
9420,89
9421,84
9422,82
9423,79
9424,75
9425,78
9426,82
9427,81
9428,82
9429,84
9430,81
9431,75
9432,74
9433,81
9434,95
9435,109
9436,123
9437,138
9438,147
9439,141
9440,132
9441,123
9442,116
9443,115
9444,123
9445,133
9446,142
9447,151
9448,161
9449,167
9450,169
9451,171
9452,179
9453,191
9454,210
9455,229
9456,246
9457,254
9458,248
9459,229
9460,205
9461,177
9462,157
9463,145
9464,142
9465,150
9466,163
9467,173
9468,182
9469,186
9470,185
9471,185
9472,184
9473,179
9474,177
9475,178
9476,180
9477,180
9478,176
9479,173
9480,168
9481,160
9482,156
9483,154
9484,145
9485,137
9486,126
9487,110
9488,94
9489,82
9490,77
9491,86
9492,98
9493,109
9494,117
9495,113
9496,97
9497,75
9498,55
9499,38
9500,26
9501,15
9502,8
9503,5
9504,-1
9505,-12
9506,-23
9507,-32
9508,-36
9509,-36
9510,-33
9511,-28
9512,-18
9513,3
9514,24
9515,49
9516,77
9517,99
9518,107
9519,101
9520,90
9521,77
9522,53
9523,29
9524,7
9525,-9
9526,-20
9527,-29
9528,-36
9529,-38
9530,-37
9531,-26
9532,-4
9533,14
9534,26
9535,39
9536,65
9537,99
9538,128
9539,130
9540,111
9541,89
9542,81
9543,109
9544,178
9545,253
9546,312
9547,342
9548,243
9549,135
9550,21
9551,-60
9552,-90
9553,-74
9554,-48
9555,-40
9556,-61
9557,-121
9558,-200
9559,-237
9560,-191
9561,-53
9562,173
9563,437
9564,665
9565,805
9566,793
9567,634
9568,399
9569,133
9570,-82
9571,-162
9572,-110
9573,25
9574,189
9575,301
9576,304
9577,208
9578,32
9579,-175
9580,-353
9581,-469
9582,-510
9583,-495
9584,-362
9585,-293
9586,-246
9587,-215
9588,-199
9589,-189
9590,-183
9591,-183
9592,-178
9593,-174
9594,-172
9595,-157
9596,-128
9597,-108
9598,-101
9599,-106
9600,-124
9601,-147
9602,-167
9603,-182
9604,-184
9605,-177
9606,-163
9607,-148
9608,-133
9609,-121
9610,-120
9611,-120
9612,-116
9613,-109
9614,-104
9615,-97
9616,-90
9617,-87
9618,-87
9619,-88
9620,-84
9621,-82
9622,-82
9623,-83
9624,-85
9625,-88
9626,-100
9627,-113
9628,-124
9629,-137
9630,-148
9631,-156
9632,-162
9633,-153
9634,-134
9635,-106
9636,-74
9637,-55
9638,-52
9639,-59
9640,-79
9641,-103
9642,-123
9643,-133
9644,-131
9645,-120
9646,-112
9647,-109
9648,-108
9649,-111
9650,-109
9651,-109
9652,-101
9653,-92
9654,-76
9655,-57
9656,-38
9657,-12
9658,-8
9659,-7
9660,-12
9661,-18
9662,-18
9663,-19
9664,-22
9665,-21
9666,-9
9667,5
9668,26
9669,57
9670,100
9671,147
9672,198
9673,252
9674,320
9675,391
9676,455
9677,518
9678,567
9679,581
9680,569
9681,533
9682,467
9683,376
9684,268
9685,151
9686,40
9687,-62
9688,-158
9689,-231
9690,-281
9691,-312
9692,-308
9693,-199
9694,-105
9695,-1
9696,88
9697,145
9698,169
9699,163
9700,141
9701,105
9702,61
9703,35
9704,23
9705,14
9706,5
9707,-14
9708,-42
9709,-62
9710,-63
9711,-41
9712,-7
9713,16
9714,33
9715,54
9716,68
9717,81
9718,97
9719,110
9720,122
9721,137
9722,144
9723,141
9724,131
9725,114
9726,100
9727,97
9728,97
9729,101
9730,99
9731,95
9732,95
9733,94
9734,94
9735,100
9736,104
9737,108
9738,110
9739,108
9740,107
9741,109
9742,113
9743,119
9744,122
9745,125
9746,127
9747,126
9748,124
9749,123
9750,127
9751,134
9752,145
9753,159
9754,169
9755,175
9756,178
9757,179
9758,174
9759,165
9760,158
9761,156
9762,161
9763,166
9764,173
9765,199
9766,212
9767,225
9768,234
9769,238
9770,246
9771,252
9772,254
9773,256
9774,251
9775,241
9776,237
9777,237
9778,238
9779,248
9780,264
9781,285
9782,310
9783,330
9784,339
9785,341
9786,335
9787,323
9788,316
9789,314
9790,317
9791,327
9792,341
9793,341
9794,356
9795,368
9796,375
9797,372
9798,360
9799,352
9800,343
9801,329
9802,335
9803,345
9804,363
9805,387
9806,405
9807,413
9808,411
9809,402
9810,390
9811,375
9812,359
9813,353
9814,350
9815,340
9816,328
9817,318
9818,308
9819,305
9820,308
9821,316
9822,325
9823,328
9824,332
9825,338
9826,334
9827,321
9828,304
9829,284
9830,263
9831,247
9832,230
9833,215
9834,211
9835,214
9836,222
9837,246
9838,247
9839,251
9840,251
9841,250
9842,256
9843,257
9844,254
9845,252
9846,248
9847,241
9848,233
9849,220
9850,210
9851,211
9852,213
9853,219
9854,226
9855,223
9856,209
9857,194
9858,190
9859,191
9860,191
9861,195
9862,198
9863,193
9864,182
9865,166
9866,148
9867,133
9868,120
9869,116
9870,119
9871,116
9872,96
9873,85
9874,73
9875,61
9876,54
9877,49
9878,46
9879,44
9880,40
9881,35
9882,28
9883,21
9884,15
9885,9
9886,0
9887,-10
9888,-20
9889,-31
9890,-39
9891,-43
9892,-49
9893,-51
9894,-46
9895,-43
9896,-45
9897,-48
9898,-56
9899,-62
9900,-62
9901,-63
9902,-62
9903,-57
9904,-55
9905,-53
9906,-44
9907,-50
9908,-55
9909,-56
9910,-51
9911,-40
9912,-30
9913,-25
9914,-19
9915,-20
9916,-26
9917,-32
9918,-38
9919,-43
9920,-44
9921,-40
9922,-34
9923,-31
9924,-30
9925,-30
9926,-28
9927,-29
9928,-35
9929,-38
9930,-41
9931,-43
9932,-40
9933,-33
9934,-22
9935,-8
9936,-8
9937,1
9938,5
9939,3
9940,-1
9941,-9
9942,-20
9943,-30
9944,-37
9945,-42
9946,-42
9947,-40
9948,-44
9949,-51
9950,-58
9951,-66
9952,-76
9953,-84
9954,-95
9955,-105
9956,-107
9957,-107
9958,-107
9959,-106
9960,-108
9961,-105
9962,-92
9963,-78
9964,-65
9965,-57
9966,-57
9967,-56
9968,-55
9969,-61
9970,-68
9971,-73
9972,-79
9973,-82
9974,-80
9975,-79
9976,-77
9977,-72
9978,-63
9979,-56
9980,-52
9981,-49
9982,-46
9983,-42
9984,-43
9985,-53
9986,-64
9987,-71
9988,-74
9989,-62
9990,-32
9991,10
9992,64
9993,127
9994,194
9995,266
9996,331
9997,381
9998,416
9999,429
10000,421
10001,398
10002,351
10003,281
10004,198
10005,101
10006,-8
10007,-123
10008,-233
10009,-321
10010,-379
10011,-403
10012,-391
10013,-354
10014,-255
10015,-199
10016,-149
10017,-107
10018,-73
10019,-49
10020,-30
10021,-20
10022,-19
10023,-19
10024,-20
10025,-20
10026,-13
10027,-8
10028,-6
10029,-3
10030,0
10031,3
10032,8
10033,8
10034,1
10035,-4
10036,-5
10037,-3
10038,3
10039,13
10040,24
10041,35
10042,42
10043,47
10044,48
10045,46
10046,45
10047,48
10048,52
10049,53
10050,51
10051,48
10052,51
10053,59
10054,69
10055,78
10056,87
10057,89
10058,83
10059,73
10060,62
10061,53
10062,46
10063,42
10064,48
10065,56
10066,60
10067,64
10068,73
10069,82
10070,89
10071,99
10072,111
10073,116
10074,115
10075,111
10076,103
10077,96
10078,96
10079,86
10080,79
10081,79
10082,79
10083,82
10084,93
10085,105
10086,113
10087,126
10088,132
10089,138
10090,138
10091,139
10092,142
10093,145
10094,148
10095,153
10096,158
10097,162
10098,163
10099,164
10100,164
10101,162
10102,158
10103,155
10104,153
10105,153
10106,155
10107,158
10108,168
10109,182
10110,194
10111,204
10112,217
10113,229
10114,233
10115,231
10116,225
10117,220
10118,214
10119,208
10120,203
10121,203
10122,201
10123,201
10124,215
10125,215
10126,217
10127,219
10128,216
10129,210
10130,201
10131,192
10132,183
10133,173
10134,165
10135,159
10136,151
10137,142
10138,141
10139,139
10140,133
10141,127
10142,120
10143,114
10144,111
10145,111
10146,109
10147,107
10148,100
10149,88
10150,72
10151,57
10152,43
10153,34
10154,31
10155,31
10156,37
10157,42
10158,41
10159,39
10160,42
10161,44
10162,46
10163,45
10164,44
10165,40
10166,34
10167,30
10168,27
10169,26
10170,27
10171,30
10172,29
10173,25
10174,22
10175,18
10176,17
10177,18
10178,21
10179,28
10180,32
10181,34
10182,35
10183,34
10184,30
10185,29
10186,30
10187,31
10188,32
10189,34
10190,35
10191,33
10192,31
10193,33
10194,34
10195,32
10196,32
10197,30
10198,33
10199,37
10200,42
10201,48
10202,57
10203,61
10204,63
10205,63
10206,65
10207,67
10208,68
10209,69
10210,71
10211,73
10212,70
10213,66
10214,64
10215,64
10216,56
10217,57
10218,63
10219,70
10220,70
10221,78
10222,82
10223,82
10224,83
10225,78
10226,73
10227,70
10228,68
10229,70
10230,74
10231,85
10232,87
10233,88
10234,87
10235,84
10236,79
10237,74
10238,70
10239,71
10240,78
10241,89
10242,100
10243,112
10244,119
10245,126
10246,126
10247,121
10248,117
10249,114
10250,114
10251,117
10252,119
10253,123
10254,127
10255,130
10256,130
10257,130
10258,131
10259,131
10260,133
10261,136
10262,139
10263,140
10264,141
10265,142
10266,144
10267,141
10268,139
10269,136
10270,132
10271,128
10272,124
10273,117
10274,108
10275,97
10276,86
10277,75
10278,66
10279,57
10280,51
10281,48
10282,50
10283,54
10284,56
10285,58
10286,63
10287,69
10288,76
10289,80
10290,79
10291,73
10292,66
10293,60
10294,53
10295,47
10296,46
10297,50
10298,56
10299,62
10300,66
10301,66
10302,63
10303,65
10304,69
10305,68
10306,68
10307,68
10308,69
10309,67
10310,63
10311,58
10312,56
10313,58
10314,69
10315,90
10316,125
10317,169
10318,226
10319,290
10320,363
10321,437
10322,501
10323,549
10324,577
10325,586
10326,578
10327,543
10328,484
10329,402
10330,295
10331,170
10332,40
10333,-87
10334,-202
10335,-285
10336,-329
10337,-328
10338,-246
10339,-190
10340,-131
10341,-81
10342,-40
10343,-7
10344,19
10345,39
10346,54
10347,64
10348,70
10349,72
10350,75
10351,80
10352,83
10353,86
10354,88
10355,88
10356,87
10357,84
10358,81
10359,77
10360,75
10361,74
10362,76
10363,76
10364,79
10365,83
10366,89
10367,97
10368,101
10369,103
10370,104
10371,106
10372,105
10373,105
10374,106
10375,110
10376,111
10377,114
10378,116
10379,116
10380,116
10381,117
10382,115
10383,108
10384,101
10385,98
10386,98
10387,99
10388,105
10389,115
10390,120
10391,120
10392,121
10393,121
10394,118
10395,118
10396,121
10397,126
10398,128
10399,126
10400,123
10401,121
10402,117
10403,115
10404,115
10405,118
10406,122
10407,126
10408,132
10409,139
10410,151
10411,154
10412,161
10413,167
10414,168
10415,167
10416,167
10417,166
10418,161
10419,156
10420,150
10421,146
10422,143
10423,141
10424,147
10425,161
10426,171
10427,184
10428,197
10429,206
10430,209
10431,212
10432,208
10433,202
10434,199
10435,200
10436,206
10437,214
10438,220
10439,223
10440,220
10441,210
10442,198
10443,190
10444,184
10445,182
10446,190
10447,221
10448,238
10449,255
10450,270
10451,280
10452,283
10453,280
10454,272
10455,261
10456,249
10457,237
10458,220
10459,207
10460,199
10461,194
10462,190
10463,191
10464,194
10465,200
10466,207
10467,212
10468,210
10469,202
10470,187
10471,175
10472,167
10473,161
10474,153
10475,145
10476,138
10477,130
10478,122
10479,117
10480,112
10481,109
10482,104
10483,99
10484,89
10485,80
10486,72
10487,67
10488,67
10489,71
10490,80
10491,93
10492,101
10493,105
10494,107
10495,100
10496,92
10497,86
10498,80
10499,77
10500,81
10501,90
10502,104
10503,115
10504,120
10505,120
10506,120
10507,115
10508,106
10509,96
10510,89
10511,85
10512,82
10513,82
10514,84
10515,89
10516,91
10517,93
10518,105
10519,115
10520,124
10521,129
10522,129
10523,120
10524,108
10525,101
10526,100
10527,104
10528,112
10529,122
10530,130
10531,134
10532,129
10533,121
10534,114
10535,111
10536,116
10537,125
10538,135
10539,143
10540,152
10541,158
10542,164
10543,168
10544,171
10545,173
10546,176
10547,179
10548,181
10549,183
10550,187
10551,190
10552,191
10553,192
10554,181
10555,179
10556,178
10557,177
10558,176
10559,179
10560,182
10561,184
10562,186
10563,192
10564,201
10565,208
10566,213
10567,217
10568,220
10569,218
10570,216
10571,222
10572,227
10573,233
10574,245
10575,253
10576,259
10577,266
10578,273
10579,280
10580,291
10581,300
10582,305
10583,308
10584,306
10585,300
10586,295
10587,292
10588,296
10589,306
10590,332
10591,344
10592,352
10593,358
10594,359
10595,358
10596,355
10597,354
10598,357
10599,362
10600,368
10601,372
10602,377
10603,382
10604,386
10605,392
10606,398
10607,403
10608,406
10609,405
10610,400
10611,387
10612,371
10613,356
10614,344
10615,345
10616,362
10617,382
10618,405
10619,425
10620,431
10621,425
10622,408
10623,379
10624,350
10625,323
10626,295
10627,301
10628,304
10629,302
10630,307
10631,311
10632,318
10633,330
10634,341
10635,352
10636,357
10637,353
10638,346
10639,338
10640,328
10641,326
10642,338
10643,358
10644,381
10645,406
10646,428
10647,428
10648,441
10649,446
10650,445
10651,444
10652,446
10653,448
10654,455
10655,472
10656,497
10657,538
10658,591
10659,654
10660,730
10661,813
10662,886
10663,971
10664,971
10665,941
10666,891
10667,821
10668,732
10669,617
10670,490
10671,365
10672,247
10673,141
10674,69
10675,44
10676,68
10677,131
10678,216
10679,308
10680,383
10681,433
10682,465
10683,481
10684,479
10685,460
10686,430
10687,396
10688,363
10689,335
10690,312
10691,299
10692,298
10693,315
10694,359
10695,421
10696,484
10697,532
10698,548
10699,515
10700,466
10701,402
10702,335
10703,284
10704,256
10705,246
10706,252
10707,261
10708,263
10709,272
10710,290
10711,312
10712,332
10713,348
10714,360
10715,368
10716,362
10717,337
10718,301
10719,262
10720,221
10721,198
10722,203
10723,225
10724,259
10725,309
10726,359
10727,382
10728,371
10729,330
10730,257
10731,160
10732,57
10733,-33
10734,-142
10735,-153
10736,-138
10737,-106
10738,-64
10739,-18
10740,20
10741,33
10742,27
10743,6
10744,-30
10745,-71
10746,-101
10747,-120
10748,-118
10749,-94
10750,-58
10751,-23
10752,-2
10753,4
10754,0
10755,-20
10756,-45
10757,-59
10758,-56
10759,-35
10760,5
10761,53
10762,85
10763,88
10764,55
10765,-7
10766,-86
10767,-168
10768,-230
10769,-250
10770,-177
10771,-111
10772,-58
10773,-34
10774,-43
10775,-82
10776,-140
10777,-200
10778,-247
10779,-275
10780,-278
10781,-262
10782,-239
10783,-218
10784,-203
10785,-195
10786,-190
10787,-185
10788,-183
10789,-183
10790,-183
10791,-180
10792,-179
10793,-186
10794,-191
10795,-197
10796,-202
10797,-205
10798,-204
10799,-205
10800,-207
10801,-211
10802,-219
10803,-228
10804,-237
10805,-251
10806,-261
10807,-275
10808,-282
10809,-287
10810,-288
10811,-287
10812,-282
10813,-276
10814,-271
10815,-270
10816,-279
10817,-292
10818,-306
10819,-322
10820,-339
10821,-351
10822,-355
10823,-360
10824,-366
10825,-369
10826,-362
10827,-345
10828,-321
10829,-289
10830,-261
10831,-247
10832,-250
10833,-271
10834,-306
10835,-343
10836,-379
10837,-402
10838,-407
10839,-398
10840,-378
10841,-354
10842,-332
10843,-283
10844,-263
10845,-250
10846,-244
10847,-252
10848,-271
10849,-294
10850,-320
10851,-343
10852,-364
10853,-374
10854,-359
10855,-316
10856,-251
10857,-170
10858,-92
10859,-37
10860,-15
10861,-31
10862,-93
10863,-181
10864,-273
10865,-354
10866,-408
10867,-428
10868,-415
10869,-373
10870,-309
10871,-239
10872,-171
10873,-117
10874,-91
10875,-96
10876,-121
10877,-162
10878,-243
10879,-264
10880,-269
10881,-260
10882,-254
10883,-253
10884,-248
10885,-243
10886,-239
10887,-232
10888,-221
10889,-207
10890,-191
10891,-162
10892,-114
10893,-53
10894,12
10895,71
10896,100
10897,88
10898,37
10899,-42
10900,-132
10901,-212
10902,-264
10903,-278
10904,-265
10905,-235
10906,-196
10907,-162
10908,-147
10909,-144
10910,-146
10911,-153
10912,-166
10913,-176
10914,-166
10915,-150
10916,-132
10917,-114
10918,-103
10919,-105
10920,-114
10921,-124
10922,-130
10923,-138
10924,-142
10925,-142
10926,-143
10927,-146
10928,-152
10929,-164
10930,-173
10931,-183
10932,-183
10933,-196
10934,-200
10935,-184
10936,-137
10937,-68
10938,0
10939,53
10940,75
10941,52
10942,-1
10943,-69
10944,-143
10945,-208
10946,-252
10947,-270
10948,-267
10949,-272
10950,-269
10951,-262
10952,-253
10953,-229
10954,-198
10955,-175
10956,-158
10957,-149
10958,-150
10959,-154
10960,-166
10961,-181
10962,-190
10963,-194
10964,-194
10965,-177
10966,-139
10967,-91
10968,-30
10969,40
10970,130
10971,238
10972,341
10973,422
10974,475
10975,493
10976,475
10977,426
10978,352
10979,255
10980,145
10981,27
10982,-90
10983,-206
10984,-409
10985,-474
10986,-503
10987,-499
10988,-470
10989,-430
10990,-382
10991,-332
10992,-284
10993,-240
10994,-200
10995,-161
10996,-124
10997,-96
10998,-79
10999,-66
11000,-58
11001,-49
11002,-33
11003,-19
11004,-11
11005,-7
11006,-16
11007,-28
11008,-43
11009,-65
11010,-85
11011,-93
11012,-94
11013,-91
11014,-84
11015,-77
11016,-68
11017,-57
11018,-44
11019,-29
11020,-18
11021,-25
11022,-35
11023,-46
11024,-56
11025,-61
11026,-59
11027,-54
11028,-46
11029,-36
11030,-26
11031,-13
11032,-1
11033,6
11034,10
11035,8
11036,-3
11037,-20
11038,-44
11039,-66
11040,-81
11041,-90
11042,-92
11043,-88
11044,-83
11045,-78
11046,-71
11047,-65
11048,-58
11049,-48
11050,-42
11051,-38
11052,-37
11053,-39
11054,-40
11055,-33
11056,-27
11057,-19
11058,-12
11059,-6
11060,0
11061,6
11062,12
11063,16
11064,19
11065,21
11066,19
11067,16
11068,13
11069,13
11070,12
11071,16
11072,26
11073,37
11074,37
11075,45
11076,53
11077,60
11078,66
11079,69
11080,72
11081,73
11082,69
11083,69
11084,74
11085,79
11086,88
11087,97
11088,104
11089,109
11090,109
11091,105
11092,92
11093,86
11094,86
11095,94
11096,101
11097,108
11098,112
11099,112
11100,108
11101,101
11102,95
11103,88
11104,82
11105,79
11106,78
11107,78
11108,79
11109,75
11110,72
11111,72
11112,68
11113,60
11114,52
11115,44
11116,35
11117,27
11118,19
11119,12
11120,7
11121,0
11122,-4
11123,-8
11124,-16
11125,-27
11126,-34
11127,-47
11128,-53
11129,-56
11130,-57
11131,-59
11132,-58
11133,-55
11134,-51
11135,-50
11136,-48
11137,-45
11138,-44
11139,-43
11140,-40
11141,-36
11142,-36
11143,-35
11144,-30
11145,-27
11146,-27
11147,-29
11148,-33
11149,-40
11150,-47
11151,-50
11152,-50
11153,-45
11154,-35
11155,-24
11156,-10
11157,-2
11158,1
11159,0
11160,-3
11161,-9
11162,-13
11163,-17
11164,-18
11165,-17
11166,-17
11167,-14
11168,-10
11169,-6
11170,-2
11171,0
11172,1
11173,0
11174,-1
11175,-4
11176,-4
11177,-1
11178,1
11179,4
11180,6
11181,11
11182,12
11183,13
11184,14
11185,20
11186,25
11187,31
11188,35
11189,36
11190,32
11191,23
11192,13
11193,4
11194,-2
11195,-4
11196,-1
11197,6
11198,29
11199,37
11200,43
11201,49
11202,54
11203,57
11204,59
11205,59
11206,58
11207,53
11208,45
11209,44
11210,47
11211,50
11212,58
11213,68
11214,80
11215,92
11216,92
11217,101
11218,108
11219,112
11220,110
11221,107
11222,103
11223,96
11224,90
11225,81
11226,73
11227,70
11228,74
11229,77
11230,80
11231,80
11232,81
11233,82
11234,79
11235,63
11236,49
11237,33
11238,20
11239,10
11240,1
11241,-6
11242,-11
11243,-13
11244,-9
11245,-8
11246,-7
11247,-3
11248,0
11249,1
11250,3
11251,4
11252,4
11253,2
11254,-1
11255,-4
11256,-5
11257,-7
11258,-9
11259,-6
11260,-3
11261,-2
11262,0
11263,2
11264,2
11265,0
11266,-6
11267,-13
11268,-23
11269,-33
11270,-41
11271,-48
11272,-45
11273,-36
11274,-21
11275,1
11276,31
11277,72
11278,120
11279,169
11280,228
11281,293
11282,356
11283,410
11284,450
11285,466
11286,463
11287,437
11288,386
11289,317
11290,227
11291,118
11292,0
11293,-117
11294,-231
11295,-327
11296,-393
11297,-423
11298,-415
11299,-375
11300,-321
11301,-259
11302,-199
11303,-147
11304,-105
11305,-74
11306,-43
11307,-38
11308,-39
11309,-44
11310,-46
11311,-49
11312,-44
11313,-33
11314,-23
11315,-15
11316,-10
11317,-9
11318,-7
11319,-7
11320,-9
11321,-11
11322,-8
11323,-5
11324,-3
11325,0
11326,-1
11327,-6
11328,-9
11329,-13
11330,-18
11331,-21
11332,-25
11333,-24
11334,-19
11335,-12
11336,-9
11337,-6
11338,-2
11339,1
11340,5
11341,8
11342,4
11343,0
11344,-3
11345,-6
11346,-6
11347,-5
11348,-3
11349,2
11350,10
11351,19
11352,27
11353,30
11354,31
11355,31
11356,31
11357,26
11358,26
11359,21
11360,16
11361,13
11362,11
11363,12
11364,15
11365,18
11366,21
11367,26
11368,31
11369,37
11370,44
11371,52
11372,57
11373,63
11374,70
11375,75
11376,79
11377,79
11378,74
11379,64
11380,62
11381,66
11382,75
11383,82
11384,92
11385,104
11386,113
11387,120
11388,124
11389,125
11390,128
11391,131
11392,132
11393,135
11394,136
11395,135
11396,139
11397,143
11398,148
11399,156
11400,163
11401,169
11402,173
11403,175
11404,172
11405,169
11406,167
11407,165
11408,164
11409,163
11410,162
11411,159
11412,156
11413,154
11414,147
11415,144
11416,140
11417,136
11418,129
11419,120
11420,115
11421,108
11422,102
11423,98
11424,96
11425,90
11426,84
11427,79
11428,73
11429,67
11430,61
11431,54
11432,46
11433,37
11434,25
11435,15
11436,6
11437,-1
11438,-9
11439,-15
11440,-18
11441,-21
11442,-22
11443,-24
11444,-24
11445,-22
11446,-19
11447,-17
11448,-12
11449,-8
11450,-7
11451,-2
11452,0
11453,-1
11454,-3
11455,-3
11456,-4
11457,-6
11458,-7
11459,-9
11460,-10
11461,-9
11462,-4
11463,1
11464,6
11465,11
11466,17
11467,20
11468,21
11469,21
11470,21
11471,21
11472,20
11473,21
11474,22
11475,22
11476,23
11477,23
11478,27
11479,30
11480,31
11481,31
11482,32
11483,31
11484,30
11485,30
11486,35
11487,40
11488,44
11489,47
11490,51
11491,54
11492,57
11493,59
11494,61
11495,64
11496,67
11497,69
11498,73
11499,77
11500,77
11501,79
11502,78
11503,76
11504,74
11505,75
11506,77
11507,80
11508,85
11509,91
11510,95
11511,96
11512,94
11513,93
11514,90
11515,88
11516,92
11517,96
11518,101
11519,102
11520,100
11521,95
11522,88
11523,75
11524,76
11525,79
11526,84
11527,90
11528,97
11529,103
11530,108
11531,115
11532,123
11533,127
11534,128
11535,127
11536,117
11537,103
11538,86
11539,68
11540,52
11541,38
11542,27
11543,21
11544,17
11545,12
11546,9
11547,7
11548,0
11549,-9
11550,-22
11551,-35
11552,-50
11553,-64
11554,-74
11555,-81
11556,-83
11557,-83
11558,-78
11559,-77
11560,-78
11561,-81
11562,-84
11563,-88
11564,-93
11565,-96
11566,-97
11567,-97
11568,-97
11569,-96
11570,-94
11571,-89
11572,-88
11573,-90
11574,-99
11575,-111
11576,-125
11577,-138
11578,-149
11579,-158
11580,-168
11581,-179
11582,-183
11583,-182
11584,-185
11585,-191
11586,-198
11587,-201
11588,-198
11589,-191
11590,-172
11591,-139
11592,-94
11593,-36
11594,123
11595,199
11596,258
11597,297
11598,314
11599,309
11600,279
11601,223
11602,144
11603,42
11604,-73
11605,-195
11606,-316
11607,-425
11608,-513
11609,-567
11610,-586
11611,-570
11612,-530
11613,-477
11614,-420
11615,-362
11616,-309
11617,-266
11618,-231
11619,-204
11620,-187
11621,-175
11622,-164
11623,-153
11624,-146
11625,-137
11626,-133
11627,-133
11628,-136
11629,-142
11630,-150
11631,-155
11632,-158
11633,-153
11634,-149
11635,-144
11636,-136
11637,-129
11638,-127
11639,-123
11640,-118
11641,-114
11642,-112
11643,-112
11644,-113
11645,-113
11646,-111
11647,-109
11648,-107
11649,-104
11650,-101
11651,-96
11652,-89
11653,-82
11654,-75
11655,-72
11656,-69
11657,-68
11658,-65
11659,-59
11660,-53
11661,-48
11662,-42
11663,-34
11664,-26
11665,-18
11666,-9
11667,-2
11668,5
11669,11
11670,15
11671,14
11672,15
11673,15
11674,16
11675,15
11676,14
11677,18
11678,17
11679,15
11680,22
11681,31
11682,40
11683,50
11684,64
11685,79
11686,89
11687,94
11688,97
11689,98
11690,96
11691,96
11692,99
11693,101
11694,103
11695,108
11696,115
11697,126
11698,135
11699,142
11700,147
11701,150
11702,150
11703,149
11704,149
11705,157
11706,167
11707,178
11708,186
11709,191
11710,191
11711,190
11712,188
11713,187
11714,188
11715,191
11716,198
11717,205
11718,209
11719,213
11720,214
11721,215
11722,215
11723,212
11724,207
11725,201
11726,196
11727,192
11728,194
11729,198
11730,202
11731,202
11732,198
11733,189
11734,175
11735,157
11736,141
11737,130
11738,123
11739,118
11740,115
11741,110
11742,104
11743,96
11744,89
11745,83
11746,82
11747,81
11748,79
11749,76
11750,71
11751,63
11752,56
11753,52
11754,50
11755,52
11756,55
11757,55
11758,56
11759,54
11760,52
11761,52
11762,53
11763,55
11764,60
11765,62
11766,63
11767,62
11768,57
11769,49
11770,41
11771,37
11772,34
11773,32
11774,38
11775,44
11776,51
11777,55
11778,58
11779,61
11780,62
11781,65
11782,72
11783,81
11784,89
11785,89
11786,96
11787,96
11788,94
11789,87
11790,77
11791,69
11792,64
11793,62
11794,62
11795,66
11796,70
11797,70
11798,68
11799,65
11800,64
11801,66
11802,68
11803,74
11804,79
11805,82
11806,80
11807,75
11808,71
11809,69
11810,72
11811,82
11812,91
11813,101
11814,110
11815,116
11816,121
11817,124
11818,126
11819,129
11820,130
11821,131
11822,132
11823,133
11824,130
11825,131
11826,132
11827,132
11828,134
11829,137
11830,143
11831,148
11832,149
11833,151
11834,153
11835,153
11836,152
11837,153
11838,159
11839,163
11840,165
11841,163
11842,160
11843,155
11844,146
11845,142
11846,141
11847,141
11848,137
11849,130
11850,120
11851,108
11852,91
11853,74
11854,61
11855,51
11856,45
11857,43
11858,37
11859,34
11860,32
11861,31
11862,34
11863,43
11864,48
11865,54
11866,60
11867,62
11868,61
11869,58
11870,53
11871,50
11872,50
11873,54
11874,56
11875,57
11876,53
11877,49
11878,48
11879,49
11880,53
11881,66
11882,65
11883,62
11884,55
11885,43
11886,35
11887,29
11888,27
11889,35
11890,48
11891,67
11892,93
11893,127
11894,168
11895,222
11896,286
11897,359
11898,434
11899,497
11900,543
11901,565
11902,559
11903,528
11904,471
11905,394
11906,297
11907,184
11908,61
11909,-65
11910,-182
11911,-275
11912,-335
11913,-358
11914,-347
11915,-309
11916,-198
11917,-142
11918,-94
11919,-55
11920,-23
11921,0
11922,11
11923,16
11924,14
11925,7
11926,7
11927,7
11928,11
11929,14
11930,18
11931,22
11932,25
11933,27
11934,24
11935,20
11936,17
11937,15
11938,13
11939,17
11940,25
11941,34
11942,43
11943,51
11944,54
11945,52
11946,44
11947,35
11948,30
11949,25
11950,24
11951,27
11952,38
11953,42
11954,45
11955,47
11956,51
11957,51
11958,50
11959,53
11960,56
11961,58
11962,63
11963,73
11964,85
11965,93
11966,95
11967,94
11968,90
11969,80
11970,70
11971,69
11972,71
11973,73
11974,79
11975,84
11976,89
11977,89
11978,88
11979,91
11980,97
11981,102
11982,108
11983,113
11984,114
11985,112
11986,110
11987,101
11988,100
11989,101
11990,105
11991,111
11992,117
11993,124
11994,132
11995,138
11996,146
11997,154
11998,160
11999,166
12000,169
12001,169
12002,172
12003,173
12004,172
12005,176
12006,180
12007,187
12008,199
12009,210
12010,223
12011,234
12012,240
12013,241
12014,241
12015,233
12016,224
12017,216
12018,210
12019,208
12020,211
12021,215
12022,220
12023,222
12024,220
12025,220
12026,219
12027,219
12028,220
12029,225
12030,228
12031,230
12032,227
12033,216
12034,199
12035,182
12036,162
12037,144
12038,128
12039,115
12040,103
12041,95
12042,88
12043,83
12044,79
12045,78
12046,78
12047,79
12048,77
12049,69
12050,60
12051,46
12052,30
12053,18
12054,12
12055,9
12056,11
12057,14
12058,21
12059,23
12060,21
12061,17
12062,12
12063,9
12064,9
12065,10
12066,10
12067,9
12068,6
12069,6
12070,3
12071,7
12072,18
12073,30
12074,43
12075,58
12076,67
12077,69
12078,65
12079,55
12080,44
12081,36
12082,34
12083,37
12084,45
12085,51
12086,55
12087,58
12088,61
12089,63
12090,65
12091,63
12092,62
12093,60
12094,61
12095,62
12096,63
12097,62
12098,65
12099,70
12100,73
12101,77
12102,81
12103,83
12104,84
12105,82
12106,79
12107,77
12108,75
12109,78
12110,86
12111,93
12112,99
12113,104
12114,107
12115,105
12116,101
12117,94
12118,88
12119,81
12120,73
12121,72
12122,73
12123,75
12124,82
12125,91
12126,98
12127,104
12128,107
12129,117
12130,125
12131,134
12132,143
12133,153
12134,159
12135,162
12136,161
12137,159
12138,158
12139,158
12140,160
12141,161
12142,159
12143,159
12144,158
12145,156
12146,155
12147,151
12148,149
12149,148
12150,145
12151,142
12152,140
12153,135
12154,132
12155,130
12156,126
12157,118
12158,110
12159,102
12160,94
12161,85
12162,79
12163,77
12164,79
12165,80
12166,74
12167,68
12168,59
12169,51
12170,49
12171,53
12172,60
12173,68
12174,76
12175,83
12176,87
12177,86
12178,80
12179,76
12180,73
12181,69
12182,69
12183,75
12184,78
12185,79
12186,80
12187,78
12188,73
12189,64
12190,53
12191,44
12192,40
12193,43
12194,61
12195,91
12196,129
12197,176
12198,230
12199,340
12200,401
12201,455
12202,504
12203,541
12204,560
12205,563
12206,540
12207,492
12208,420
12209,323
12210,207
12211,86
12212,86
12213,-36
12214,-151
12215,-242
12216,-301
12217,-324
12218,-307
12219,-263
12220,-210
12221,-154
12222,-101
12223,-57
12224,-24
12225,-2
12226,11
12227,18
12228,24
12229,27
12230,33
12231,41
12232,45
12233,48
12234,52
12235,52
12236,41
12237,41
12238,45
12239,54
12240,66
12241,82
12242,92
12243,95
12244,93
12245,90
12246,83
12247,75
12248,67
12249,65
12250,66
12251,72
12252,83
12253,93
12254,98
12255,101
12256,103
12257,103
12258,103
12259,108
12260,112
12261,115
12262,118
12263,116
12264,111
12265,102
12266,98
12267,97
12268,103
12269,107
12270,114
12271,119
12272,106
12273,97
12274,92
12275,86
12276,83
12277,87
12278,94
12279,103
12280,113
12281,120
12282,126
12283,125
12284,120
12285,118
12286,120
12287,124
12288,132
12289,145
12290,160
12291,176
12292,191
12293,212
12294,237
12295,258
12296,270
12297,273
12298,265
12299,246
12300,216
12301,191
12302,179
12303,174
12304,180
12305,196
12306,212
12307,222
12308,220
12309,214
12310,203
12311,192
12312,191
12313,196
12314,202
12315,211
12316,223
12317,230
12318,230
12319,232
12320,233
12321,238
12322,251
12323,271
12324,295
12325,314
12326,324
12327,324
12328,319
12329,305
12330,291
12331,280
12332,267
12333,254
12334,241
12335,224
12336,205
12337,186
12338,172
12339,163
12340,160
12341,158
12342,144
12343,128
12344,111
12345,95
12346,82
12347,70
12348,67
12349,72
12350,80
12351,89
12352,95
12353,100
12354,100
12355,106
12356,111
12357,117
12358,123
12359,118
12360,99
12361,75
12362,48
12363,20
12364,-3
12365,-20
12366,-23
12367,-22
12368,-20
12369,-17
12370,-15
12371,-20
12372,-23
12373,-20
12374,-16
12375,-10
12376,-5
12377,-1
12378,1
12379,0
12380,0
12381,4
12382,6
12383,7
12384,8
12385,7
12386,5
12387,3
12388,0
12389,-4
12390,-10
12391,-16
12392,-20
12393,-22
12394,-23
12395,-27
12396,-28
12397,-25
12398,-24
12399,-23
12400,-14
12401,-1
12402,9
12403,23
12404,33
12405,35
12406,31
12407,25
12408,17
12409,10
12410,3
12411,-3
12412,-5
12413,-12
12414,-11
12415,-2
12416,7
12417,16
12418,23
12419,26
12420,23
12421,17
12422,11
12423,8
12424,12
12425,23
12426,36
12427,50
12428,60
12429,61
12430,57
12431,53
12432,48
12433,43
12434,39
12435,43
12436,52
12437,65
12438,74
12439,81
12440,86
12441,87
12442,86
12443,87
12444,88
12445,86
12446,89
12447,97
12448,109
12449,113
12450,111
12451,104
12452,98
12453,90
12454,82
12455,76
12456,73
12457,80
12458,91
12459,96
12460,95
12461,90
12462,78
12463,63
12464,49
12465,35
12466,25
12467,21
12468,16
12469,10
12470,5
12471,1
12472,-4
12473,0
12474,8
12475,14
12476,19
12477,21
12478,19
12479,16
12480,11
12481,8
12482,13
12483,28
12484,38
12485,49
12486,55
12487,67
12488,82
12489,85
12490,79
12491,64
12492,43
12493,22
12494,3
12495,-6
12496,-6
12497,-1
12498,11
12499,26
12500,43
12501,52
12502,53
12503,56
12504,64
12505,87
12506,125
12507,179
12508,248
12509,328
12510,410
12511,484
12512,537
12513,566
12514,570
12515,553
12516,513
12517,450
12518,366
12519,144
12520,16
12521,-107
12522,-215
12523,-300
12524,-351
12525,-360
12526,-334
12527,-287
12528,-228
12529,-161
12530,-93
12531,-34
12532,12
12533,45
12534,61
12535,61
12536,53
12537,45
12538,40
12539,41
12540,48
12541,57
12542,67
12543,76
12544,82
12545,83
12546,78
12547,70
12548,56
12549,46
12550,55
12551,73
12552,90
12553,105
12554,117
12555,107
12556,84
12557,59
12558,40
12559,34
12560,45
12561,67
12562,83
12563,88
12564,90
12565,91
12566,87
12567,84
12568,83
12569,81
12570,83
12571,91
12572,97
12573,101
12574,105
12575,113
12576,126
12577,145
12578,162
12579,175
12580,181
12581,178
12582,163
12583,141
12584,115
12585,89
12586,64
12587,48
12588,43
12589,45
12590,59
12591,74
12592,91
12593,103
12594,111
12595,112
12596,110
12597,112
12598,118
12599,127
12600,135
12601,141
12602,144
12603,139
12604,127
12605,114
12606,102
12607,90
12608,82
12609,87
12610,93
12611,105
12612,118
12613,130
12614,142
12615,151
12616,156
12617,162
12618,170
12619,176
12620,184
12621,198
12622,210
12623,219
12624,234
12625,236
12626,235
12627,225
12628,213
12629,201
12630,182
12631,163
12632,153
12633,148
12634,148
12635,158
12636,167
12637,175
12638,175
12639,180
12640,182
12641,186
12642,189
12643,183
12644,175
12645,170
12646,163
12647,153
12648,144
12649,135
12650,124
12651,116
12652,103
12653,92
12654,87
12655,85
12656,82
12657,82
12658,82
12659,75
12660,63
12661,30
12662,15
12663,4
12664,2
12665,9
12666,13
12667,9
12668,6
12669,6
12670,9
12671,12
12672,16
12673,19
12674,21
12675,15
12676,6
12677,-5
12678,-18
12679,-32
12680,-36
12681,-31
12682,-24
12683,-19
12684,-16
12685,-12
12686,-5
12687,0
12688,7
12689,14
12690,19
12691,19
12692,15
12693,7
12694,-6
12695,-21
12696,-49
12697,-51
12698,-44
12699,-32
12700,-16
12701,-2
12702,7
12703,12
12704,13
12705,6
12706,0
12707,-5
12708,-8
12709,-8
12710,-5
12711,-1
12712,3
12713,2
12714,0
12715,0
12716,-1
12717,-7
12718,-12
12719,-16
12720,-21
12721,-29
12722,-31
12723,-25
12724,-20
12725,-10
12726,3
12727,13
12728,17
12729,18
12730,17
12731,17
12732,16
12733,18
12734,20
12735,22
12736,25
12737,26
12738,28
12739,31
12740,36
12741,44
12742,49
12743,54
12744,54
12745,53
12746,54
12747,59
12748,55
12749,53
12750,56
12751,61
12752,67
12753,78
12754,87
12755,97
12756,103
12757,104
12758,99
12759,92
12760,77
12761,59
12762,48
12763,40
12764,35
12765,33
12766,33
12767,33
12768,35
12769,27
12770,21
12771,15
12772,6
12773,-2
12774,-7
12775,-10
12776,-10
12777,-12
12778,-11
12779,-9
12780,-9
12781,-9
12782,-11
12783,-14
12784,-17
12785,-21
12786,-26
12787,-32
12788,-31
12789,-32
12790,-33
12791,-30
12792,-24
12793,-22
12794,-26
12795,-32
12796,-38
12797,-44
12798,-45
12799,-43
12800,-36
12801,-24
12802,-10
12803,3
12804,12
12805,3
12806,-3
12807,-12
12808,-23
12809,-33
12810,-41
12811,-45
12812,-39
12813,-25
12814,-6
12815,22
12816,64
12817,119
12818,184
12819,257
12820,334
12821,407
12822,466
12823,504
12824,526
12825,527
12826,503
12827,455
12828,383
12829,288
12830,175
12831,49
12832,-74
12833,-185
12834,-275
12835,-332
12836,-353
12837,-341
12838,-307
12839,-262
12840,-214
12841,-118
12842,-79
12843,-45
12844,-17
12845,3
12846,17
12847,26
12848,31
12849,33
12850,33
12851,33
12852,33
12853,32
12854,34
12855,36
12856,39
12857,39
12858,40
12859,42
12860,45
12861,48
12862,55
12863,63
12864,72
12865,79
12866,83
12867,82
12868,75
12869,63
12870,51
12871,46
12872,43
12873,43
12874,48
12875,55
12876,62
12877,59
12878,57
12879,57
12880,56
12881,57
12882,61
12883,65
12884,67
12885,64
12886,61
12887,59
12888,58
12889,60
12890,68
12891,75
12892,79
12893,81
12894,81
12895,76
12896,70
12897,61
12898,57
12899,55
12900,55
12901,59
12902,67
12903,76
12904,87
12905,95
12906,101
12907,106
12908,113
12909,119
12910,124
12911,128
12912,130
12913,126
12914,121
12915,115
12916,111
12917,114
12918,124
12919,134
12920,146
12921,155
12922,160
12923,160
12924,162
12925,165
12926,165
12927,166
12928,168
12929,173
12930,178
12931,182
12932,184
12933,186
12934,189
12935,194
12936,201
12937,212
12938,220
12939,221
12940,222
12941,219
12942,211
12943,202
12944,193
12945,186
12946,180
12947,178
12948,186
12949,192
12950,196
12951,197
12952,194
12953,188
12954,179
12955,171
12956,163
12957,157
12958,151
12959,148
12960,144
12961,134
12962,121
12963,106
12964,95
12965,86
12966,75
12967,67
12968,64
12969,62
12970,57
12971,59
12972,61
12973,58
12974,51
12975,42
12976,30
12977,18
12978,11
12979,9
12980,15
12981,21
12982,22
12983,22
12984,7
12985,-3
12986,-11
12987,-12
12988,-8
12989,0
12990,7
12991,11
12992,11
12993,10
12994,7
12995,3
12996,1
12997,-2
12998,-6
12999,-11
13000,-15
13001,-16
13002,-14
13003,-10
13004,-2
13005,7
13006,13
13007,15
13008,16
13009,15
13010,14
13011,18
13012,20
13013,22
13014,24
13015,25
13016,25
13017,22
13018,16
13019,16
13020,20
13021,21
13022,24
13023,25
13024,27
13025,29
13026,30
13027,29
13028,29
13029,27
13030,26
13031,24
13032,23
13033,22
13034,22
13035,23
13036,24
13037,22
13038,17
13039,13
13040,14
13041,16
13042,18
13043,25
13044,34
13045,41
13046,41
13047,39
13048,41
13049,40
13050,41
13051,48
13052,56
13053,61
13054,65
13055,65
13056,62
13057,60
13058,61
13059,68
13060,74
13061,79
13062,87
13063,94
13064,96
13065,96
13066,99
13067,102
13068,101
13069,99
13070,98
13071,96
13072,94
13073,92
13074,88
13075,84
13076,81
13077,74
13078,66
13079,62
13080,60
13081,59
13082,60
13083,60
13084,57
13085,52
13086,45
13087,38
13088,34
13089,32
13090,33
13091,34
13092,30
13093,26
13094,19
13095,11
13096,6
13097,5
13098,7
13099,13
13100,19
13101,21
13102,19
13103,16
13104,12
13105,9
13106,8
13107,8
13108,12
13109,18
13110,24
13111,28
13112,30
13113,28
13114,24
13115,23
13116,25
13117,27
13118,30
13119,31
13120,28
13121,29
13122,37
13123,53
13124,87
13125,135
13126,260
13127,333
13128,402
13129,462
13130,505
13131,529
13132,534
13133,524
13134,496
13135,448
13136,376
13137,284
13138,176
13139,57
13140,-63
13141,-174
13142,-267
13143,-326
13144,-348
13145,-332
13146,-291
13147,-237
13148,-179
13149,-121
13150,-73
13151,-41
13152,-19
13153,-5
13154,0
13155,4
13156,8
13157,14
13158,21
13159,27
13160,33
13161,39
13162,42
13163,46
13164,50
13165,53
13166,56
13167,58
13168,59
13169,60
13170,62
13171,67
13172,75
13173,81
13174,87
13175,89
13176,87
13177,84
13178,83
13179,83
13180,82
13181,79
13182,78
13183,77
13184,74
13185,70
13186,70
13187,73
13188,79
13189,87
13190,91
13191,91
13192,88
13193,84
13194,82
13195,85
13196,91
13197,103
13198,106
13199,107
13200,105
13201,100
13202,98
13203,101
13204,106
13205,111
13206,115
13207,115
13208,117
13209,115
13210,112
13211,109
13212,108
13213,109
13214,111
13215,114
13216,121
13217,126
13218,128
13219,132
13220,138
13221,143
13222,148
13223,151
13224,155
13225,159
13226,162
13227,162
13228,161
13229,160
13230,161
13231,162
13232,163
13233,167
13234,169
13235,173
13236,177
13237,180
13238,183
13239,190
13240,202
13241,213
13242,222
13243,229
13244,230
13245,227
13246,221
13247,215
13248,209
13249,205
13250,207
13251,213
13252,219
13253,222
13254,224
13255,223
13256,216
13257,209
13258,204
13259,201
13260,196
13261,191
13262,189
13263,187
13264,183
13265,178
13266,173
13267,159
13268,152
13269,145
13270,139
13271,131
13272,121
13273,113
13274,103
13275,93
13276,88
13277,82
13278,74
13279,70
13280,67
13281,61
13282,55
13283,48
13284,43
13285,37
13286,32
13287,30
13288,31
13289,29
13290,26
13291,24
13292,22
13293,18
13294,12
13295,9
13296,9
13297,11
13298,13
13299,19
13300,24
13301,27
13302,34
13303,34
13304,34
13305,35
13306,34
13307,31
13308,30
13309,28
13310,27
13311,27
13312,26
13313,24
13314,21
13315,20
13316,20
13317,21
13318,22
13319,22
13320,25
13321,28
13322,30
13323,34
13324,36
13325,37
13326,39
13327,38
13328,36
13329,33
13330,30
13331,29
13332,31
13333,30
13334,30
13335,31
13336,32
13337,32
13338,34
13339,36
13340,40
13341,45
13342,50
13343,52
13344,50
13345,48
13346,49
13347,49
13348,47
13349,48
13350,48
13351,53
13352,58
13353,59
13354,60
13355,62
13356,61
13357,57
13358,58
13359,61
13360,62
13361,64
13362,70
13363,75
13364,82
13365,89
13366,96
13367,104
13368,109
13369,109
13370,109
13371,109
13372,103
13373,102
13374,101
13375,103
13376,109
13377,115
13378,121
13379,125
13380,127
13381,125
13382,122
13383,116
13384,108
13385,100
13386,92
13387,85
13388,81
13389,79
13390,78
13391,79
13392,80
13393,78
13394,78
13395,76
13396,69
13397,60
13398,53
13399,42
13400,30
13401,21
13402,14
13403,9
13404,4
13405,0
13406,2
13407,5
13408,5
13409,8
13410,8
13411,9
13412,12
13413,13
13414,10
13415,6
13416,2
13417,-2
13418,-3
13419,-4
13420,0
13421,9
13422,19
13423,27
13424,31
13425,29
13426,24
13427,21
13428,19
13429,16
13430,12
13431,10
13432,6
13433,6
13434,12
13435,28
13436,59
13437,107
13438,164
13439,231
13440,305
13441,378
13442,441
13443,488
13444,522
13445,511
13446,478
13447,421
13448,341
13449,242
13450,125
13451,3
13452,-116
13453,-224
13454,-304
13455,-348
13456,-355
13457,-328
13458,-285
13459,-235
13460,-178
13461,-124
13462,-82
13463,-49
13464,-26
13465,-12
13466,-5
13467,-4
13468,-4
13469,-4
13470,-4
13471,-5
13472,-3
13473,-1
13474,-2
13475,1
13476,5
13477,8
13478,11
13479,15
13480,23
13481,26
13482,29
13483,31
13484,32
13485,37
13486,39
13487,37
13488,38
13489,39
13490,42
13491,44
13492,44
13493,44
13494,47
13495,48
13496,45
13497,43
13498,44
13499,42
13500,40
13501,43
13502,44
13503,47
13504,51
13505,53
13506,58
13507,63
13508,66
13509,71
13510,75
13511,74
13512,67
13513,57
13514,45
13515,36
13516,31
13517,37
13518,47
13519,56
13520,66
13521,73
13522,74
13523,75
13524,73
13525,73
13526,74
13527,75
13528,76
13529,78
13530,81
13531,81
13532,84
13533,86
13534,88
13535,91
13536,96
13537,102
13538,109
13539,114
13540,119
13541,124
13542,127
13543,130
13544,132
13545,135
13546,139
13547,142
13548,146
13549,152
13550,159
13551,165
13552,174
13553,174
13554,174
13555,173
13556,175
13557,178
13558,180
13559,183
13560,186
13561,188
13562,187
13563,186
13564,186
13565,184
13566,183
13567,184
13568,183
13569,180
13570,179
13571,180
13572,180
13573,177
13574,174
13575,170
13576,164
13577,155
13578,145
13579,137
13580,128
13581,121
13582,116
13583,111
13584,105
13585,98
13586,91
13587,87
13588,76
13589,69
13590,62
13591,53
13592,46
13593,41
13594,34
13595,27
13596,24
13597,21
13598,18
13599,15
13600,6
13601,1
13602,1
13603,0
13604,0
13605,4
13606,6
13607,4
13608,3
13609,0
13610,-5
13611,-11
13612,-14
13613,-16
13614,-16
13615,-16
13616,-13
13617,-5
13618,3
13619,8
13620,9
13621,6
13622,0
13623,-7
13624,-15
13625,-14
13626,-9
13627,-3
13628,1
13629,4
13630,6
13631,6
13632,8
13633,12
13634,12
13635,13
13636,12
13637,10
13638,4
13639,0
13640,-1
13641,-1
13642,3
13643,8
13644,11
13645,12
13646,13
13647,13
13648,13
13649,14
13650,14
13651,13
13652,12
13653,9
13654,4
13655,0
13656,-1
13657,-2
13658,0
13659,2
13660,5
13661,17
13662,21
13663,26
13664,28
13665,28
13666,27
13667,23
13668,17
13669,11
13670,6
13671,3
13672,5
13673,8
13674,12
13675,18
13676,25
13677,30
13678,34
13679,35
13680,37
13681,39
13682,41
13683,44
13684,50
13685,55
