,ECG
0,32384
1,32320
2,32256
3,32320
4,32384
5,32512
6,32704
7,32832
8,32832
9,32832
10,32896
11,32896
12,32896
13,32896
14,32960
15,32960
16,32832
17,32768
18,32832
19,32896
20,32960
21,33088
22,33088
23,33024
24,33024
25,32960
26,32960
27,33024
28,33088
29,33280
30,33280
31,33280
32,33152
33,33088
34,33088
35,33088
36,33152
37,33280
38,33280
39,33280
40,33216
41,33216
42,33216
43,33216
44,33216
45,33216
46,33280
47,33344
48,33344
49,33216
50,33088
51,33152
52,33280
53,33408
54,33472
55,33472
56,33472
57,33408
58,33344
59,33344
60,33408
61,33600
62,33664
63,33664
64,33664
65,33664
66,33664
67,33664
68,33728
69,33792
70,33856
71,33984
72,34048
73,33920
74,33792
75,33728
76,33664
77,33472
78,33344
79,33152
80,33088
81,32960
82,32896
83,32832
84,32896
85,32960
86,33088
87,33152
88,33216
89,33280
90,33344
91,33344
92,33408
93,33408
94,33344
95,33216
96,33216
97,33536
98,34112
99,35136
100,36608
101,38656
102,41024
103,42688
104,42496
105,40512
106,37824
107,35008
108,32384
109,30336
110,28992
111,28416
112,28608
113,29248
114,30144
115,31168
116,32128
117,32960
118,33536
119,33728
120,33792
121,33792
122,33920
123,34048
124,33984
125,33920
126,33856
127,33792
128,33792
129,33920
130,33984
131,33920
132,33920
133,33984
134,34112
135,34176
136,34240
137,34240
138,34368
139,34432
140,34368
141,34304
142,34304
143,34368
144,34496
145,34560
146,34560
147,34560
148,34688
149,34752
150,34816
151,34880
152,35008
153,35136
154,35136
155,35072
156,35008
157,34944
158,34816
159,34752
160,34752
161,34752
162,34752
163,34688
164,34624
165,34432
166,34240
167,34112
168,33920
169,33728
170,33472
171,33280
172,33152
173,33088
174,33024
175,33024
176,32960
177,32832
178,32832
179,32768
180,32704
181,32704
182,32768
183,32832
184,32960
185,33152
186,33344
187,33344
188,33280
189,33280
190,33344
191,33408
192,33536
193,33472
194,33408
195,33408
196,33472
197,33472
198,33536
199,33664
200,33728
201,33728
202,33600
203,33536
204,33472
205,33536
206,33600
207,33728
208,33792
209,33728
210,33728
211,33728
212,33728
213,33856
214,33984
215,33984
216,33856
217,33664
218,33472
219,33472
220,33472
221,33472
222,33536
223,33600
224,33792
225,33984
226,33920
227,33728
228,33472
229,33344
230,33280
231,33344
232,33344
233,33344
234,33344
235,33408
236,33408
237,33472
238,33536
239,33664
240,33728
241,33920
242,34176
243,34304
244,34304
245,34176
246,34048
247,34112
248,34112
249,34112
250,34112
251,34176
252,34304
253,34304
254,34240
255,34240
256,34240
257,34176
258,33920
259,33664
260,33472
261,33344
262,33216
263,33216
264,33216
265,33280
266,33408
267,33472
268,33600
269,33664
270,33728
271,33792
272,33920
273,33920
274,33856
275,33728
276,33920
277,34496
278,35456
279,36736
280,38272
281,40128
282,41984
283,42944
284,42176
285,39872
286,36736
287,33664
288,31104
289,29312
290,28352
291,28160
292,28608
293,29696
294,30912
295,32000
296,32832
297,33472
298,33984
299,34304
300,34432
301,34432
302,34432
303,34496
304,34496
305,34560
306,34496
307,34368
308,34368
309,34304
310,34240
311,34176
312,34048
313,34048
314,34240
315,34368
316,34496
317,34560
318,34624
319,34688
320,34688
321,34688
322,34752
323,34816
324,34880
325,35008
326,35136
327,35264
328,35328
329,35392
330,35328
331,35264
332,35136
333,35072
334,35008
335,35008
336,35072
337,35072
338,35136
339,35072
340,35008
341,34816
342,34688
343,34624
344,34560
345,34560
346,34496
347,34368
348,33984
349,33600
350,33280
351,33088
352,32896
353,32576
354,32320
355,32192
356,32192
357,32192
358,32256
359,32384
360,32448
361,32512
362,32576
363,32704
364,32832
365,32832
366,32704
367,32704
368,32768
369,32832
370,32896
371,33024
372,33152
373,33216
374,33088
375,32896
376,32896
377,33024
378,33152
379,33280
380,33408
381,33472
382,33536
383,33472
384,33408
385,33408
386,33408
387,33472
388,33600
389,33728
390,33728
391,33728
392,33728
393,33728
394,33600
395,33536
396,33536
397,33600
398,33600
399,33536
400,33536
401,33664
402,33792
403,33856
404,33856
405,33856
406,33728
407,33664
408,33600
409,33600
410,33600
411,33664
412,33600
413,33536
414,33536
415,33600
416,33728
417,33792
418,33856
419,33792
420,33792
421,33792
422,33792
423,33792
424,33856
425,33792
426,33792
427,33856
428,33792
429,33792
430,33856
431,33856
432,33920
433,33920
434,33920
435,33920
436,34048
437,34112
438,34304
439,34432
440,34304
441,33920
442,33728
443,33600
444,33664
445,33728
446,33728
447,33792
448,33856
449,33664
450,33408
451,33216
452,33216
453,33344
454,33408
455,33536
456,33728
457,33792
458,33728
459,33600
460,33664
461,33728
462,33792
463,33920
464,34176
465,34752
466,35584
467,36864
468,38592
469,40832
470,42816
471,43392
472,42176
473,39744
474,36544
475,33472
476,30912
477,29248
478,28480
479,28544
480,29248
481,30400
482,31552
483,32640
484,33344
485,33920
486,34304
487,34432
488,34560
489,34752
490,34880
491,34880
492,34688
493,34432
494,34304
495,34176
496,34240
497,34368
498,34560
499,34560
500,34560
501,34624
502,34688
503,34688
504,34560
505,34560
506,34496
507,34432
508,34432
509,34560
510,34752
511,35008
512,35136
513,35072
514,35072
515,35136
516,35136
517,35008
518,35008
519,35008
520,35072
521,35136
522,35200
523,35328
524,35264
525,35008
526,34752
527,34560
528,34432
529,34240
530,34112
531,34112
532,34048
533,33984
534,33984
535,33856
536,33600
537,33280
538,33024
539,32832
540,32640
541,32384
542,32192
543,32128
544,32128
545,32000
546,31872
547,31808
548,31808
549,31872
550,31936
551,32064
552,32256
553,32448
554,32512
555,32512
556,32576
557,32640
558,32704
559,32640
560,32704
561,32768
562,32832
563,32960
564,33024
565,32960
566,32896
567,32832
568,32832
569,32768
570,32704
571,32704
572,32704
573,32768
574,32832
575,32960
576,33024
577,33024
578,32960
579,32896
580,32896
581,32896
582,33024
583,33088
584,33088
585,32960
586,32896
587,32832
588,32768
589,32768
590,32832
591,32960
592,32960
593,32960
594,32960
595,32896
596,32832
597,32704
598,32576
599,32512
600,32576
601,32640
602,32704
603,32704
604,32704
605,32640
606,32704
607,32768
608,32896
609,33024
610,33088
611,33088
612,33088
613,33088
614,32896
615,32832
616,32896
617,33024
618,33152
619,33216
620,33280
621,33280
622,33280
623,33408
624,33472
625,33408
626,33344
627,33408
628,33472
629,33536
630,33536
631,33536
632,33664
633,33664
634,33600
635,33472
636,33408
637,33408
638,33472
639,33536
640,33472
641,33344
642,33280
643,33216
644,33216
645,33216
646,33344
647,33472
648,33536
649,33472
650,33408
651,33344
652,33280
653,33344
654,33408
655,33472
656,33600
657,33920
658,34560
659,35392
660,36608
661,38400
662,40704
663,42752
664,43520
665,42432
666,39680
667,36864
668,33856
669,31168
670,29312
671,28352
672,28288
673,28928
674,29952
675,30976
676,31872
677,32704
678,33280
679,33664
680,33984
681,34112
682,34048
683,33984
684,34048
685,34112
686,34112
687,34112
688,34176
689,34304
690,34304
691,34176
692,34112
693,34112
694,34240
695,34304
696,34240
697,34176
698,34112
699,34112
700,34240
701,34368
702,34432
703,34496
704,34560
705,34688
706,34880
707,35008
708,35008
709,34944
710,34880
711,34944
712,35072
713,35264
714,35328
715,35136
716,35008
717,35008
718,35072
719,35072
720,35008
721,34816
722,34560
723,34368
724,34304
725,34112
726,33984
727,33728
728,33600
729,33536
730,33408
731,33280
732,33088
733,32896
734,32768
735,32640
736,32576
737,32576
738,32640
739,32640
740,32448
741,32384
742,32320
743,32512
744,32704
745,32832
746,32896
747,32896
748,32832
749,32832
750,32832
751,32960
752,33024
753,33088
754,33152
755,33280
756,33280
757,33408
758,33600
759,33600
760,33344
761,33152
762,33152
763,33344
764,33536
765,33536
766,33408
767,33280
768,33280
769,33472
770,33472
771,33408
772,33216
773,33216
774,33216
775,33280
776,33408
777,33600
778,33664
779,33536
780,33408
781,33408
782,33408
783,33408
784,33536
785,33664
786,33664
787,33664
788,33600
789,33472
790,33472
791,33536
792,33728
793,33856
794,33792
795,33600
796,33472
797,33536
798,33728
799,33856
800,33920
801,33856
802,33856
803,33984
804,34112
805,34112
806,34048
807,34048
808,34112
809,34176
810,34048
811,33856
812,33792
813,33856
814,33984
815,33984
816,33664
817,33408
818,33280
819,33280
820,33344
821,33408
822,33472
823,33472
824,33472
825,33600
826,33792
827,33856
828,33792
829,33728
830,33728
831,33664
832,33792
833,34048
834,34368
835,34944
836,35968
837,37568
838,39616
839,41600
840,42496
841,41664
842,39488
843,36672
844,33856
845,30656
846,30464
847,28544
848,28224
849,28416
850,29056
851,30016
852,30976
853,31872
854,32576
855,33152
856,33472
857,33728
858,33856
859,33856
860,33664
861,33600
862,33664
863,33536
864,33344
865,33280
866,33216
867,33280
868,33408
869,33472
870,33600
871,33664
872,33600
873,33472
874,33472
875,33472
876,33536
877,33600
878,33728
879,33920
880,34112
881,34240
882,34304
883,34432
884,34752
885,34880
886,34752
887,34432
888,34112
889,33920
890,33728
891,33728
892,34048
893,34368
894,34752
895,34880
896,34752
897,34496
898,34112
899,33728
900,33600
901,33536
902,33472
903,33280
904,33088
905,32960
906,32960
907,32832
908,32640
909,32512
910,32512
911,32512
912,32384
913,32192
914,32192
915,32256
916,32320
917,32320
918,32256
919,32256
920,32384
921,32640
922,32832
923,32832
924,32832
925,32832
926,32768
927,32768
928,32832
929,32896
930,32896
931,32960
932,33024
933,33152
934,33280
935,33344
936,33280
937,33280
938,33280
939,33280
940,33344
941,33408
942,33408
943,33408
944,33472
945,33536
946,33536
947,33600
948,33664
949,33664
950,33600
951,33600
952,33792
953,33792
954,33600
955,33536
956,33600
957,33664
958,33600
959,33472
960,33408
961,33344
962,33408
963,33536
964,33728
965,33856
966,33792
967,33728
968,33920
969,34112
970,34176
971,34176
972,34176
973,34240
974,34368
975,34560
976,34624
977,34496
978,34240
979,34048
980,34112
981,34240
982,34112
983,33984
984,33984
985,34048
986,34048
987,33984
988,33856
989,33664
990,33472
991,33344
992,33344
993,33408
994,33536
995,33664
996,33664
997,33728
998,33792
999,33856
1000,33984
1001,33984
1002,33920
1003,33792
1004,33856
1005,34176
1006,34624
1007,35200
1008,36224
1009,37760
1010,40896
1011,41216
1012,42752
1013,41856
1014,39616
1015,36928
1016,34304
1017,32128
1018,30400
1019,29248
1020,28800
1021,29056
1022,29952
1023,31040
1024,32000
1025,32704
1026,33216
1027,33600
1028,33920
1029,34112
1030,34432
1031,34624
1032,34688
1033,34368
1034,34176
1035,34112
1036,34240
1037,34368
1038,34368
1039,34112
1040,33920
1041,33920
1042,33984
1043,33984
1044,34048
1045,34176
1046,34368
1047,34560
1048,34688
1049,34752
1050,34816
1051,34880
1052,35008
1053,35072
1054,35136
1055,35264
1056,35264
1057,35200
1058,35136
1059,35072
1060,35072
1061,35008
1062,35008
1063,35072
1064,35136
1065,35136
1066,35072
1067,35008
1068,35008
1069,35008
1070,34944
1071,34880
1072,34880
1073,34752
1074,34560
1075,34368
1076,33984
1077,33408
1078,33024
1079,32896
1080,32896
1081,32832
1082,32640
1083,32448
1084,32384
1085,32384
1086,32448
1087,32512
1088,32576
1089,32640
1090,32704
1091,32768
1092,32768
1093,32832
1094,33024
1095,33216
1096,33344
1097,33536
1098,33728
1099,33664
1100,33024
1101,32896
1102,32768
1103,32896
1104,33152
1105,33216
1106,33280
1107,33280
1108,33280
1109,33152
1110,33088
1111,33152
1112,33344
1113,33536
1114,33536
1115,33600
1116,33536
1117,33472
1118,33344
1119,33280
1120,33216
1121,33280
1122,33280
1123,33152
1124,33152
1125,33216
1126,33216
1127,33216
1128,33152
1129,33088
1130,33216
1131,33472
1132,33600
1133,33472
1134,33344
1135,33408
1136,33344
1137,33216
1138,33216
1139,33280
1140,33408
1141,33536
1142,33472
1143,33472
1144,33408
1145,33472
1146,33536
1147,33600
1148,33600
1149,33472
1150,33472
1151,33536
1152,33664
1153,33664
1154,33536
1155,33408
1156,33216
1157,32960
1158,32704
1159,32448
1160,32384
1161,32320
1162,32256
1163,32320
1164,32448
1165,32576
1166,32768
1167,32896
1168,33024
1169,33344
1170,33408
1171,33344
1172,33344
1173,33664
1174,34176
1175,35584
1176,35648
1177,38208
1178,40320
1179,41408
1180,40832
1181,38848
1182,36416
1183,33984
1184,31744
1185,30080
1186,28864
1187,28288
1188,28288
1189,28992
1190,30144
1191,31104
1192,31872
1193,32384
1194,32768
1195,33088
1196,33344
1197,33600
1198,33856
1199,34048
1200,34048
1201,33984
1202,33984
1203,34112
1204,34176
1205,34432
1206,34368
1207,34304
1208,34304
1209,34304
1210,34368
1211,34304
1212,34176
1213,34240
1214,34304
1215,34368
1216,34432
1217,34496
1218,34560
1219,34752
1220,34944
1221,35008
1222,35136
1223,35264
1224,35264
1225,35200
1226,35200
1227,35200
1228,35264
1229,35200
1230,35200
1231,35328
1232,35328
1233,35200
1234,35072
1235,34880
1236,34688
1237,34560
1238,34496
1239,34368
1240,34112
1241,33792
1242,33536
1243,33408
1244,33152
1245,33024
1246,33024
1247,33024
1248,32896
1249,32640
1250,32320
1251,32256
1252,32192
1253,32128
1254,32064
1255,32064
1256,32064
1257,32064
1258,32192
1259,32448
1260,32768
1261,33024
1262,33024
1263,32832
1264,32768
1265,32576
1266,32512
1267,32384
1268,32512
1269,32704
1270,32960
1271,33216
1272,33280
1273,33408
1274,33344
1275,33280
1276,33280
1277,33536
1278,33792
1279,33856
1280,33536
1281,33472
1282,33216
1283,33152
1284,33152
1285,33216
1286,33280
1287,33344
1288,33408
1289,33536
1290,33600
1291,33728
1292,33792
1293,33728
1294,33792
1295,33856
1296,33856
1297,33728
1298,33472
1299,33216
1300,33024
1301,33024
1302,33088
1303,33280
1304,33408
1305,33472
1306,33472
1307,33536
1308,33664
1309,33856
1310,34112
1311,34112
1312,34304
1313,34368
1314,34240
1315,33856
1316,33472
1317,33344
1318,33344
1319,33216
1320,33152
1321,33024
1322,32896
1323,32768
1324,32768
1325,32896
1326,32832
1327,33088
1328,33280
1329,33408
1330,33536
1331,33664
1332,33792
1333,33792
1334,33728
1335,33536
1336,33600
1337,34048
1338,34752
1339,35584
1340,36928
1341,38464
1342,40448
1343,42048
1344,42240
1345,40640
1346,38016
1347,35264
1348,32768
1349,30784
1350,29376
1351,28736
1352,28736
1353,29312
1354,30208
1355,31680
1356,31808
1357,32896
1358,33408
1359,33920
1360,34432
1361,34688
1362,34816
1363,34496
1364,33920
1365,33344
1366,33088
1367,33216
1368,33472
1369,33664
1370,33792
1371,33728
1372,33984
1373,34048
1374,34048
1375,34112
1376,34176
1377,34112
1378,34048
1379,33920
1380,33984
1381,34112
1382,34240
1383,34240
1384,34240
1385,34432
1386,34688
1387,35008
1388,35136
1389,35200
1390,35072
1391,34816
1392,34752
1393,34816
1394,35008
1395,35072
1396,35200
1397,35328
1398,35200
1399,34944
1400,34688
1401,34496
1402,34368
1403,34240
1404,34176
1405,34176
1406,34240
1407,34176
1408,33984
1409,33792
1410,33600
1411,33344
1412,33152
1413,33024
1414,32960
1415,32960
1416,33088
1417,32960
1418,32832
1419,32832
1420,32896
1421,32832
1422,32832
1423,32832
1424,32832
1425,32896
1426,33024
1427,33088
1428,33280
1429,33536
1430,33792
1431,33920
1432,33920
1433,33856
1434,33856
1435,33664
1436,33536
1437,33472
1438,33600
1439,33728
1440,33856
1441,33920
1442,33984
1443,34048
1444,34112
1445,33984
1446,33920
1447,33920
1448,34048
1449,34112
1450,33984
1451,33856
1452,33856
1453,34176
1454,34304
1455,34048
1456,33792
1457,33600
1458,33664
1459,33664
1460,33664
1461,33600
1462,33600
1463,33600
1464,33664
1465,33728
1466,33856
1467,34048
1468,34304
1469,34432
1470,34432
1471,34304
1472,34304
1473,34304
1474,34304
1475,34240
1476,34240
1477,34304
1478,34304
1479,34176
1480,34048
1481,33984
1482,33856
1483,33792
1484,33856
1485,33920
1486,33984
1487,33984
1488,33920
1489,33856
1490,33792
1491,33792
1492,33792
1493,33792
1494,33728
1495,33664
1496,33536
1497,33536
1498,33600
1499,33536
1500,33472
1501,33536
1502,33472
1503,33344
1504,33280
1505,33536
1506,34176
1507,35008
1508,36224
1509,37888
1510,39936
1511,41920
1512,42816
1513,41728
1514,39104
1515,35968
1516,32896
1517,30400
1518,28672
1519,27840
1520,27712
1521,28224
1522,29248
1523,30400
1524,31424
1525,32192
1526,32832
1527,33280
1528,33536
1529,33664
1530,33728
1531,33792
1532,33792
1533,33728
1534,33664
1535,33728
1536,33792
1537,33792
1538,33664
1539,33472
1540,33408
1541,33344
1542,33344
1543,33408
1544,33600
1545,33856
1546,34048
1547,34112
1548,33984
1549,33984
1550,34048
1551,34176
1552,34304
1553,34368
1554,34496
1555,34624
1556,34752
1557,34880
1558,34944
1559,34944
1560,34944
1561,35008
1562,34944
1563,34880
1564,34816
1565,34816
1566,34816
1567,34816
1568,34816
1569,34752
1570,34624
1571,34496
1572,34432
1573,34304
1574,34048
1575,33728
1576,33472
1577,33280
1578,33088
1579,32896
1580,32640
1581,32448
1582,32448
1583,32448
1584,32384
1585,32320
1586,32256
1587,32320
1588,32384
1589,32384
1590,32448
1591,32512
1592,32576
1593,32640
1594,32768
1595,32832
1596,32960
1597,33152
1598,33216
1599,33280
1600,33280
1601,33280
1602,33344
1603,33408
1604,33472
1605,33664
1606,33728
1607,33664
1608,33408
1609,33280
1610,33280
1611,33408
1612,33472
1613,33536
1614,33536
1615,33600
1616,33600
1617,33664
1618,33728
1619,33792
1620,33792
1621,33728
1622,33728
1623,33728
1624,33792
1625,33856
1626,33920
1627,33856
1628,33728
1629,33600
1630,33536
1631,33536
1632,33600
1633,33600
1634,33472
1635,33344
1636,33216
1637,33152
1638,33152
1639,33344
1640,33536
1641,33600
1642,33600
1643,33664
1644,33856
1645,33920
1646,33856
1647,33728
1648,33664
1649,33600
1650,33664
1651,33792
1652,33792
1653,33856
1654,33792
1655,33600
1656,33472
1657,33472
1658,33408
1659,33344
1660,33088
1661,32832
1662,32704
1663,32704
1664,32832
1665,32960
1666,32960
1667,32960
1668,33088
1669,33216
1670,33280
1671,33216
1672,33152
1673,33152
1674,33152
1675,33024
1676,32960
1677,33024
1678,33344
1679,33920
1680,34752
1681,36032
1682,37696
1683,39808
1684,41664
1685,42048
1686,40576
1687,37952
1688,34944
1689,32192
1690,29824
1691,28224
1692,27456
1693,27520
1694,28352
1695,29504
1696,30592
1697,31488
1698,32192
1699,32832
1700,33216
1701,33472
1702,33536
1703,33472
1704,33408
1705,33408
1706,33344
1707,33216
1708,33216
1709,33216
1710,33280
1711,33344
1712,33408
1713,33536
1714,33664
1715,33792
1716,33856
1717,33920
1718,34048
1719,34048
1720,34048
1721,34112
1722,34240
1723,34240
1724,34304
1725,34304
1726,34176
1727,34112
1728,34112
1729,34048
1730,34048
1731,34048
1732,34112
1733,34176
1734,34368
1735,34496
1736,34560
1737,34496
1738,34432
1739,34432
1740,34432
1741,34368
1742,34304
1743,34176
1744,34112
1745,34112
1746,33856
1747,33408
1748,33088
1749,32896
1750,32576
1751,32128
1752,31872
1753,31744
1754,31680
1755,31552
1756,31424
1757,31296
1758,31360
1759,31424
1760,31552
1761,31680
1762,31808
1763,32000
1764,32064
1765,32064
1766,32064
1767,32064
1768,32128
1769,32320
1770,32512
1771,32576
1772,32640
1773,32704
1774,32768
1775,32832
1776,32640
1777,32512
1778,32512
1779,32640
1780,32704
1781,32768
1782,32832
1783,32832
1784,32832
1785,32960
1786,33088
1787,33216
1788,33280
1789,33280
1790,33408
1791,33472
1792,33344
1793,33216
1794,33216
1795,33216
1796,33344
1797,33536
1798,33472
1799,33344
1800,33216
1801,33216
1802,33280
1803,33280
1804,33280
1805,33472
1806,33664
1807,33600
1808,33408
1809,33152
1810,32960
1811,32896
1812,33024
1813,33152
1814,33088
1815,33024
1816,32960
1817,33024
1818,33152
1819,33344
1820,33472
1821,33600
1822,33792
1823,33984
1824,33984
1825,33920
1826,33792
1827,33792
1828,33856
1829,33920
1830,33920
1831,33920
1832,33920
1833,33920
1834,33856
1835,33664
1836,33472
1837,33344
1838,33152
1839,33088
1840,33088
1841,33024
1842,32960
1843,32960
1844,32960
1845,33088
1846,33152
1847,33280
1848,33408
1849,33472
1850,33472
1851,33472
1852,33472
1853,33472
1854,33536
1855,33728
1856,34048
1857,34496
1858,35200
1859,36416
1860,38144
1861,40320
1862,42240
1863,42944
1864,41728
1865,39104
1866,36032
1867,32960
1868,30528
1869,28928
1870,28224
1871,28288
1872,28928
1873,30016
1874,31232
1875,32320
1876,33152
1877,33728
1878,34048
1879,34240
1880,34368
1881,34304
1882,34240
1883,34176
1884,34112
1885,34048
1886,33984
1887,33984
1888,33920
1889,33984
1890,34048
1891,34112
1892,34112
1893,34176
1894,34304
1895,34432
1896,34496
1897,34496
1898,34432
1899,34368
1900,34304
1901,34304
1902,34304
1903,34304
1904,34240
1905,34304
1906,34432
1907,34624
1908,34816
1909,34944
1910,35136
1911,35328
1912,35328
1913,35264
1914,35264
1915,35328
1916,35264
1917,35136
1918,35008
1919,34944
1920,34880
1921,34496
1922,34112
1923,33920
1924,33792
1925,33600
1926,33408
1927,33216
1928,33216
1929,33152
1930,33088
1931,33088
1932,33152
1933,33088
1934,33024
1935,32832
1936,32640
1937,32448
1938,32320
1939,32320
1940,32512
1941,32704
1942,32768
1943,32768
1944,32640
1945,32512
1946,32320
1947,32256
1948,32384
1949,32576
1950,32640
1951,32832
1952,33024
1953,33344
1954,33664
1955,33984
1956,33984
1957,33920
1958,33920
1959,33792
1960,33344
1961,33088
1962,33024
1963,33088
1964,33152
1965,33344
1966,33536
1967,33600
1968,33536
1969,33280
1970,33024
1971,32960
1972,33024
1973,33344
1974,33600
1975,33664
1976,33536
1977,33472
1978,33408
1979,33472
1980,33536
1981,33600
1982,33472
1983,33344
1984,33280
1985,33280
1986,33280
1987,33344
1988,33536
1989,33536
1990,33472
1991,33280
1992,33152
1993,33216
1994,33472
1995,33728
1996,33920
1997,34048
1998,34112
1999,34176
2000,34112
2001,33984
2002,33984
2003,34048
2004,34048
2005,33920
2006,33920
2007,34048
2008,34048
2009,33920
2010,33856
2011,33856
2012,33856
2013,33792
2014,33600
2015,33472
2016,33344
2017,33280
2018,33280
2019,33280
2020,33280
2021,33280
2022,33408
2023,33600
2024,33728
2025,33728
2026,33728
2027,33792
2028,33792
2029,33728
2030,33664
2031,33728
2032,33984
2033,34496
2034,35328
2035,36608
2036,38336
2037,40448
2038,42240
2039,42624
2040,41216
2041,38784
2042,36032
2043,33536
2044,31488
2045,30080
2046,29184
2047,28736
2048,28800
2049,29504
2050,30528
2051,31616
2052,32640
2053,33280
2054,33408
2055,33472
2056,33600
2057,33664
2058,33728
2059,33728
2060,33792
2061,33856
2062,33984
2063,34048
2064,34112
2065,34112
2066,34240
2067,34432
2068,34496
2069,34432
2070,34304
2071,34112
2072,33984
2073,34048
2074,34112
2075,34176
2076,34304
2077,34496
2078,34624
2079,34752
2080,34752
2081,34816
2082,34944
2083,35072
2084,35200
2085,35328
2086,35584
2087,35776
2088,35776
2089,35648
2090,35456
2091,35200
2092,34944
2093,34752
2094,34688
2095,34688
2096,34624
2097,34624
2098,34560
2099,34496
2100,34432
2101,34304
2102,34240
2103,34304
2104,34432
2105,34304
2106,33792
2107,33280
2108,32896
2109,32576
2110,32512
2111,32448
2112,32384
2113,32256
2114,32256
2115,32384
2116,32576
2117,32768
2118,32960
2119,33088
2120,33152
2121,33152
2122,33216
2123,33344
2124,33408
2125,33408
2126,33472
2127,33600
2128,33600
2129,33600
2130,33664
2131,33472
2132,33344
2133,33280
2134,33280
2135,33344
2136,33408
2137,33472
2138,33472
2139,33408
2140,33472
2141,33536
2142,33664
2143,33792
2144,33920
2145,33920
2146,33728
2147,33472
2148,33280
2149,33216
2150,33280
2151,33344
2152,33344
2153,33280
2154,33280
2155,33344
2156,33408
2157,33600
2158,33792
2159,33920
2160,33728
2161,33600
2162,33472
2163,33600
2164,33920
2165,34112
2166,33984
2167,33792
2168,33600
2169,33280
2170,33024
2171,33088
2172,33280
2173,33344
2174,33472
2175,33536
2176,33664
2177,33792
2178,33792
2179,33728
2180,33792
2181,33920
2182,33984
2183,33984
2184,33792
2185,33600
2186,33472
2187,33344
2188,33152
2189,32896
2190,32832
2191,32896
2192,33024
2193,33024
2194,33088
2195,33216
2196,33408
2197,33472
2198,33536
2199,33600
2200,33664
2201,33856
2202,34304
2203,35008
2204,36160
2205,37824
2206,40064
2207,42048
2208,42688
2209,41408
2210,39104
2211,36352
2212,34048
2213,31808
2214,30144
2215,29248
2216,28928
2217,28992
2218,29632
2219,30656
2220,31616
2221,32576
2222,33344
2223,33792
2224,33920
2225,33920
2226,33984
2227,34112
2228,34240
2229,34240
2230,34176
2231,34176
2232,34240
2233,34304
2234,34368
2235,34304
2236,34368
2237,34432
2238,34368
2239,34112
2240,33984
2241,33984
2242,34112
2243,34304
2244,34432
2245,34496
2246,34624
2247,34624
2248,34688
2249,34752
2250,34752
2251,34688
2252,34688
2253,34816
2254,34944
2255,35008
2256,35072
2257,35072
2258,35136
2259,35008
2260,34880
2261,34816
2262,34752
2263,34752
2264,34752
2265,34624
2266,34432
2267,34240
2268,34112
2269,33984
2270,33920
2271,33728
2272,33536
2273,33344
2274,33088
2275,32832
2276,32512
2277,32384
2278,32448
2279,32512
2280,32512
2281,32384
2282,32320
2283,32256
2284,32320
2285,32384
2286,32448
2287,32576
2288,32640
2289,32704
2290,32832
2291,33024
2292,33152
2293,33216
2294,33152
2295,32960
2296,32704
2297,32640
2298,32704
2299,32832
2300,32896
2301,32960
2302,33024
2303,33152
2304,33408
2305,33664
2306,33792
2307,33664
2308,33408
2309,33280
2310,33344
2311,33408
2312,33408
2313,33344
2314,33344
2315,33408
2316,33472
2317,33472
2318,33408
2319,33408
2320,33408
2321,33408
2322,33344
2323,33280
2324,33344
2325,33344
2326,33408
2327,33536
2328,33728
2329,33920
2330,33984
2331,33856
2332,33792
2333,33792
2334,33792
2335,33792
2336,33728
2337,33792
2338,33856
2339,33856
2340,33856
2341,33792
2342,33920
2343,33984
2344,33984
2345,33920
2346,33728
2347,33664
2348,33792
2349,33920
2350,33856
2351,33664
2352,33472
2353,33344
2354,33216
2355,33152
2356,33152
2357,33216
2358,33344
2359,33344
2360,33152
2361,33024
2362,33088
2363,33216
2364,33472
2365,33536
2366,33600
2367,33920
2368,34624
2369,35456
2370,36544
2371,37952
2372,39808
2373,41664
2374,42368
2375,41408
2376,38848
2377,36544
2378,33920
2379,31616
2380,29888
2381,28864
2382,28416
2383,28672
2384,29568
2385,30720
2386,31744
2387,32640
2388,33280
2389,33664
2390,33984
2391,34048
2392,33984
2393,33984
2394,33984
2395,34048
2396,34048
2397,33920
2398,33856
2399,33792
2400,33792
2401,33920
2402,34176
2403,34304
2404,34304
2405,34176
2406,33984
2407,33984
2408,34112
2409,34240
2410,34432
2411,34496
2412,34560
2413,34432
2414,34304
2415,34304
2416,34304
2417,34432
2418,34624
2419,34752
2420,34880
2421,34816
2422,34752
2423,34752
2424,34816
2425,34944
2426,34944
2427,34752
2428,34560
2429,34432
2430,34432
2431,34368
2432,34368
2433,34368
2434,34304
2435,33984
2436,33536
2437,33152
2438,32960
2439,32832
2440,32896
2441,33024
2442,33152
2443,32896
2444,32384
2445,32128
2446,32064
2447,32128
2448,32192
2449,32320
2450,32384
2451,32448
2452,32576
2453,32576
2454,32512
2455,32576
2456,32640
2457,32704
2458,32768
2459,32768
2460,32832
2461,32896
2462,32960
2463,32960
2464,33024
2465,33088
2466,33216
2467,33280
2468,33344
2469,33472
2470,33728
2471,33792
2472,33728
2473,33664
2474,33728
2475,33728
2476,33792
2477,33728
2478,33664
2479,33664
2480,33536
2481,33280
2482,33152
2483,33088
2484,33152
2485,33216
2486,33344
2487,33472
2488,33600
2489,33664
2490,33728
2491,33728
2492,33792
2493,33792
2494,33856
2495,33920
2496,33984
2497,33984
2498,34048
2499,34112
2500,34624
2501,34624
2502,34240
2503,33920
2504,33664
2505,33600
2506,33600
2507,33728
2508,33984
2509,34240
2510,34240
2511,34176
2512,33984
2513,33664
2514,33728
2515,33664
2516,33536
2517,33344
2518,33344
2519,33472
2520,33664
2521,33728
2522,33600
2523,33344
2524,33024
2525,32960
2526,32960
2527,33088
2528,33408
2529,33408
2530,33344
2531,33408
2532,33472
2533,33856
2534,34496
2535,35264
2536,36416
2537,37952
2538,39872
2539,41664
2540,42240
2541,42112
2542,39040
2543,36480
2544,33856
2545,31488
2546,29696
2547,28800
2548,28608
2549,28928
2550,29568
2551,30464
2552,31424
2553,32256
2554,32896
2555,33344
2556,33408
2557,33920
2558,33984
2559,33920
2560,33920
2561,33984
2562,33920
2563,33856
2564,33792
2565,33856
2566,33792
2567,33792
2568,33856
2569,33984
2570,33984
2571,33984
2572,33856
2573,33792
2574,33728
2575,33792
2576,33920
2577,34112
2578,34304
2579,34432
2580,34496
2581,34496
2582,34432
2583,34496
2584,34560
2585,34624
2586,34688
2587,34816
2588,34880
2589,34944
2590,34880
2591,34880
2592,34880
2593,34880
2594,34880
2595,34944
2596,34944
2597,34688
2598,34432
2599,34176
2600,33920
2601,33728
2602,33600
2603,33472
2604,33408
2605,33344
2606,33280
2607,33152
2608,32896
2609,32576
2610,32448
2611,32320
2612,32192
2613,32128
2614,32192
2615,32256
2616,32256
2617,32512
2618,32640
2619,32832
2620,32896
2621,32768
2622,32640
2623,32576
2624,32768
2625,32960
2626,33088
2627,32896
2628,32704
2629,32704
2630,32832
2631,32768
2632,32960
2633,32960
2634,33024
2635,33088
2636,33152
2637,33152
2638,33152
2639,33216
2640,33216
2641,33344
2642,33408
2643,33408
2644,33344
2645,33280
2646,33216
2647,33408
2648,33600
2649,33856
2650,33984
2651,33728
2652,33344
2653,33088
2654,32960
2655,32896
2656,32704
2657,32704
2658,32832
2659,32960
2660,33216
2661,33408
2662,33536
2663,33728
2664,33856
2665,33984
2666,34048
2667,33984
2668,33984
2669,33984
2670,34048
2671,34112
2672,33984
2673,33856
2674,33728
2675,33536
2676,33472
2677,33472
2678,33472
2679,33280
2680,33152
2681,33024
2682,32960
2683,32896
2684,32960
2685,33024
2686,33024
2687,32960
2688,32832
2689,32896
2690,33088
2691,33088
2692,33280
2693,33344
2694,33280
2695,33344
2696,33408
2697,33536
2698,33920
2699,34560
2700,35392
2701,36672
2702,38464
2703,40512
2704,41984
2705,41920
2706,40256
2707,37632
2708,34816
2709,32192
2710,30208
2711,29056
2712,28608
2713,28736
2714,29248
2715,30080
2716,30976
2717,31808
2718,32512
2719,33024
2720,33472
2721,33472
2722,33856
2723,33984
2724,34048
2725,34112
2726,34176
2727,34112
2728,33984
2729,33792
2730,33728
2731,33856
2732,33920
2733,33920
2734,33856
2735,33664
2736,33600
2737,33600
2738,33664
2739,33920
2740,34176
2741,34432
2742,34624
2743,34560
2744,34496
2745,34432
2746,34496
2747,34560
2748,34624
2749,34624
2750,34560
2751,34560
2752,34880
2753,35008
2754,35008
2755,34944
2756,35008
2757,35136
2758,34816
2759,34368
2760,34176
2761,34240
2762,34432
2763,34560
2764,34560
2765,34240
2766,34112
2767,33664
2768,33472
2769,33280
2770,33024
2771,32512
2772,32128
2773,32192
2774,32320
2775,32320
2776,32256
2777,32256
2778,32320
2779,32320
2780,32320
2781,32256
2782,32320
2783,32256
2784,32192
2785,32320
2786,32576
2787,32704
2788,32768
2789,32832
2790,33024
2791,33152
2792,33344
2793,33536
2794,33664
2795,33664
2796,33600
2797,33472
2798,33600
2799,33728
2800,33792
2801,33792
2802,33664
2803,33536
2804,33472
2805,33472
2806,33728
2807,33984
2808,34048
2809,33984
2810,33920
2811,33984
2812,33984
2813,33792
2814,33600
2815,33600
2816,33664
2817,33792
2818,33920
2819,34048
2820,34304
2821,34560
2822,34496
2823,34624
2824,34816
2825,34496
2826,34240
2827,33536
2828,33280
2829,33344
2830,33792
2831,34496
2832,34816
2833,34560
2834,33984
2835,33984
2836,34368
2837,34496
2838,34048
2839,33472
2840,33024
2841,32960
2842,32832
2843,32896
2844,33024
2845,33280
2846,33600
2847,33728
2848,33664
2849,33664
2850,33664
2851,33664
2852,33664
2853,33664
2854,33664
2855,33728
2856,33664
2857,33920
2858,34496
2859,35584
2860,37056
2861,38784
2862,40896
2863,42624
2864,42944
2865,41344
2866,38400
2867,35008
2868,31872
2869,29440
2870,28032
2871,27776
2872,28032
2873,28992
2874,30272
2875,31744
2876,33024
2877,33856
2878,34176
2879,34176
2880,34048
2881,33984
2882,33984
2883,34048
2884,34048
2885,34112
2886,34112
2887,34304
2888,34304
2889,34240
2890,34240
2891,34176
2892,33984
2893,34048
2894,34176
2895,34240
2896,34176
2897,34176
2898,34176
2899,34304
2900,34624
2901,34624
2902,34688
2903,34432
2904,34304
2905,34240
2906,34304
2907,34432
2908,34560
2909,34752
2910,34944
2911,35328
2912,35584
2913,35328
2914,34816
2915,34560
2916,34432
2917,34432
2918,34432
2919,34560
2920,34560
2921,34560
2922,34560
2923,34560
2924,34368
2925,33984
2926,33600
2927,33216
2928,32960
2929,32832
2930,32640
2931,32512
2932,32384
2933,32384
2934,32384
2935,32384
2936,32384
2937,32448
2938,32448
2939,32384
2940,32384
2941,32448
2942,32512
2943,32576
2944,32640
2945,32576
2946,32576
2947,32704
2948,33088
2949,33280
2950,33280
2951,33152
2952,33088
2953,33088
2954,33088
2955,33280
2956,33536
2957,33728
2958,33664
2959,33472
2960,33472
2961,33408
2962,33600
2963,33600
2964,33536
2965,33600
2966,33600
2967,33408
2968,33472
2969,33600
2970,33664
2971,33664
2972,33664
2973,33728
2974,33856
2975,33984
2976,33920
2977,33600
2978,33472
2979,33536
2980,33792
2981,33984
2982,34048
2983,34048
2984,34112
2985,34304
2986,34432
2987,34304
2988,33984
2989,33728
2990,33728
2991,33728
2992,33856
2993,33920
2994,33856
2995,33792
2996,33792
2997,33792
2998,33664
2999,33536
3000,33408
3001,33408
3002,33472
3003,33280
3004,33088
3005,33216
3006,33536
3007,33920
3008,33728
3009,33344
3010,33088
3011,32960
3012,33088
3013,33344
3014,33664
3015,33728
3016,33664
3017,33728
3018,34304
3019,35200
3020,36672
3021,38592
3022,40896
3023,42624
3024,42880
3025,41216
3026,38400
3027,35200
3028,32064
3029,29696
3030,28288
3031,27840
3032,28160
3033,29056
3034,30400
3035,32384
3036,32640
3037,33536
3038,33792
3039,33792
3040,33792
3041,33792
3042,33792
3043,33792
3044,33792
3045,33856
3046,33856
3047,33920
3048,34048
3049,34176
3050,34240
3051,34176
3052,34368
3053,34432
3054,34496
3055,34560
3056,34560
3057,34624
3058,34688
3059,34688
3060,34624
3061,34624
3062,34560
3063,34560
3064,34624
3065,34752
3066,34816
3067,35008
3068,35200
3069,35264
3070,35264
3071,35200
3072,35200
3073,35200
3074,35264
3075,35200
3076,35136
3077,35008
3078,34880
3079,34752
3080,34624
3081,34560
3082,34432
3083,34304
3084,34176
3085,34048
3086,33920
3087,33664
3088,33408
3089,33152
3090,32960
3091,32768
3092,32576
3093,32384
3094,32192
3095,32128
3096,32064
3097,32064
3098,32064
3099,32128
3100,32192
3101,32320
3102,32448
3103,32512
3104,32448
3105,32384
3106,32448
3107,32576
3108,32704
3109,32832
3110,32960
3111,32896
3112,32896
3113,32832
3114,32768
3115,32768
3116,32832
3117,32896
3118,33024
3119,33088
3120,33152
3121,33280
3122,33344
3123,33408
3124,33536
3125,33600
3126,33536
3127,33472
3128,33408
3129,33344
3130,33280
3131,33280
3132,33216
3133,33152
3134,33024
3135,33024
3136,33088
3137,33216
3138,33216
3139,33344
3140,33472
3141,33472
3142,33600
3143,33600
3144,33600
3145,33664
3146,33664
3147,33728
3148,33728
3149,33664
3150,33600
3151,33664
3152,33664
3153,33728
3154,33792
3155,33984
3156,33920
3157,34112
3158,34176
3159,34240
3160,34432
3161,34560
3162,34624
3163,34496
3164,34240
3165,33856
3166,33472
3167,33088
3168,32832
3169,32704
3170,32768
3171,32704
3172,32896
3173,33152
3174,33472
3175,33792
3176,33920
3177,33920
3178,33920
3179,33856
3180,33600
3181,33408
3182,33280
3183,33344
3184,33536
3185,34240
3186,34816
3187,36096
3188,37760
3189,39808
3190,41856
3191,42880
3192,42112
3193,39744
3194,36608
3195,33536
3196,30848
3197,28992
3198,28224
3199,28416
3200,29888
3201,30720
3202,31808
3203,32512
3204,33152
3205,33600
3206,33792
3207,33792
3208,33664
3209,33536
3210,33600
3211,33664
3212,33792
3213,33856
3214,33920
3215,34048
3216,34048
3217,34176
3218,34240
3219,34304
3220,34432
3221,34560
3222,34624
3223,34624
3224,34624
3225,34624
3226,34624
3227,34560
3228,34496
3229,34368
3230,34368
3231,34496
3232,34688
3233,34880
3234,34944
3235,34880
3236,34752
3237,34560
3238,34368
3239,34368
3240,34496
3241,34432
3242,34304
3243,34112
3244,34048
3245,33984
3246,33920
3247,33920
3248,33856
3249,33728
3250,33600
3251,33344
3252,33216
3253,33088
3254,32960
3255,32832
3256,32768
3257,32768
3258,32704
3259,32576
3260,32448
3261,32384
3262,32256
3263,32064
3264,31872
3265,31680
3266,31616
3267,31680
3268,31808
3269,31936
3270,31936
3271,31936
3272,32000
3273,32128
3274,32256
3275,32384
3276,32384
3277,32512
3278,32768
3279,33024
3280,33152
3281,33152
3282,33088
3283,33088
3284,33088
3285,33024
3286,32960
3287,32896
3288,32896
3289,32832
3290,32704
3291,32704
3292,32704
3293,32768
3294,32896
3295,33088
3296,33216
3297,33408
3298,33536
3299,33600
3300,33600
3301,33472
3302,33344
3303,33344
3304,33408
3305,33408
3306,33408
3307,33408
3308,33472
3309,33536
3310,33472
3311,33472
3312,33472
3313,33344
3314,33280
3315,33344
3316,33536
3317,33728
3318,33984
3319,34176
3320,34240
3321,34176
3322,34112
3323,34112
3324,34304
3325,34496
3326,34560
3327,34432
3328,34368
3329,34112
3330,33920
3331,33728
3332,33600
3333,33408
3334,33216
3335,33152
3336,33088
3337,33024
3338,33024
3339,32960
3340,33024
3341,33088
3342,33216
3343,33344
3344,33472
3345,33472
3346,33536
3347,33536
3348,33472
3349,33472
3350,33344
3351,33216
3352,33216
3353,33600
3354,34432
3355,35520
3356,37120
3357,39168
3358,41280
3359,42560
3360,42368
3361,40576
3362,37888
3363,34752
3364,31680
3365,29248
3366,27904
3367,27456
3368,27776
3369,28864
3370,30272
3371,31424
3372,32320
3373,33024
3374,33600
3375,34112
3376,34368
3377,34432
3378,34240
3379,33984
3380,33856
3381,33856
3382,34048
3383,34112
3384,33984
3385,33856
3386,33792
3387,33856
3388,33984
3389,34112
3390,34048
3391,33984
3392,33856
3393,33856
3394,33984
3395,34048
3396,34176
3397,34368
3398,34560
3399,34688
3400,34688
3401,34752
3402,34816
3403,34752
3404,34688
3405,34624
3406,34496
3407,34496
3408,34560
3409,34624
3410,34688
3411,34688
3412,34624
3413,34560
3414,34432
3415,34368
3416,34240
3417,34176
3418,34112
3419,34112
3420,34048
3421,33984
3422,33792
3423,33600
3424,33472
3425,33280
3426,33024
3427,32896
3428,32704
3429,32576
3430,32512
3431,32512
3432,32448
3433,32512
3434,32576
3435,32640
3436,32640
3437,32576
3438,32512
3439,32448
3440,32384
3441,32384
3442,32448
3443,32512
3444,32640
3445,32768
3446,32832
3447,32896
3448,33088
3449,33216
3450,33280
3451,33280
3452,33280
3453,33280
3454,33280
3455,33280
3456,33344
3457,33344
3458,33344
3459,33280
3460,33280
3461,33280
3462,33216
3463,33152
3464,33088
3465,33088
3466,33152
3467,33152
3468,33152
3469,33152
3470,33152
3471,33088
3472,33088
3473,33088
3474,33216
3475,33344
3476,33344
3477,33280
3478,33344
3479,33472
3480,33536
3481,33472
3482,33344
3483,33472
3484,33792
3485,33984
3486,34048
3487,33984
3488,33856
3489,33600
3490,33600
3491,33792
3492,34176
3493,34496
3494,34752
3495,34688
3496,33920
3497,33088
3498,32704
3499,32768
3500,32832
3501,32896
3502,32832
3503,32832
3504,32832
3505,32896
3506,33024
3507,33152
3508,33280
3509,33408
3510,33536
3511,33600
3512,33664
3513,33728
3514,33856
3515,33984
3516,34048
3517,34112
3518,34048
3519,33984
3520,34112
3521,34688
3522,35712
3523,37376
3524,39488
3525,41344
3526,42176
3527,41344
3528,39232
3529,36672
3530,33920
3531,31808
3532,30208
3533,29312
3534,29120
3535,29504
3536,30208
3537,31104
3538,31872
3539,32512
3540,33088
3541,33600
3542,33920
3543,34048
3544,34112
3545,34112
3546,34048
3547,33920
3548,33856
3549,33920
3550,33984
3551,34176
3552,34368
3553,34560
3554,34496
3555,34368
3556,34304
3557,34240
3558,34304
3559,34368
3560,34560
3561,34560
3562,34432
3563,34368
3564,34368
3565,34624
3566,34880
3567,35008
3568,34944
3569,34688
3570,34432
3571,34432
3572,34560
3573,34752
3574,34944
3575,35136
3576,35136
3577,35072
3578,35072
3579,35072
3580,34944
3581,34752
3582,34560
3583,34368
3584,34240
3585,34176
3586,34176
3587,34176
3588,34048
3589,33920
3590,33792
3591,33664
3592,33344
3593,33088
3594,32832
3595,32704
3596,32640
3597,32448
3598,32384
3599,32384
3600,32448
3601,32576
3602,32512
3603,32448
3604,32384
3605,32320
3606,32320
3607,32448
3608,32640
3609,32768
3610,32832
3611,32832
3612,32896
3613,33024
3614,33024
3615,32960
3616,32896
3617,32832
3618,32896
3619,33088
3620,33216
3621,33280
3622,33152
3623,33088
3624,33024
3625,33152
3626,33344
3627,33472
3628,33472
3629,33344
3630,33280
3631,33408
3632,33472
3633,33344
3634,33216
3635,33216
3636,33408
3637,33600
3638,33536
3639,33408
3640,33280
3641,33216
3642,33088
3643,32896
3644,32896
3645,32960
3646,33152
3647,33408
3648,33664
3649,33856
3650,33984
3651,34048
3652,34048
3653,34048
3654,34048
3655,34048
3656,34048
3657,34048
3658,34176
3659,34240
3660,33984
3661,33600
3662,33472
3663,33472
3664,33536
3665,33536
3666,33344
3667,33088
3668,32960
3669,32960
3670,33024
3671,33152
3672,33280
3673,33408
3674,33536
3675,33472
3676,33344
3677,33216
3678,33280
3679,33408
3680,33408
3681,33408
3682,33600
3683,33920
3684,34368
3685,35072
3686,36096
3687,37568
3688,39680
3689,41600
3690,42368
3691,41344
3692,39168
3693,36480
3694,33920
3695,31552
3696,30080
3697,29184
3698,28864
3699,29184
3700,30016
3701,31040
3702,32000
3703,32832
3704,33472
3705,33920
3706,34112
3707,34368
3708,34560
3709,34560
3710,34496
3711,34432
3712,34368
3713,34432
3714,34496
3715,34432
3716,34368
3717,34304
3718,34304
3719,34368
3720,34496
3721,34496
3722,34496
3723,34496
3724,34560
3725,34688
3726,34752
3727,34816
3728,34880
3729,34944
3730,35008
3731,35136
3732,35264
3733,35264
3734,35264
3735,35328
3736,35392
3737,35584
3738,35648
3739,35584
3740,35456
3741,35328
3742,35264
3743,35264
3744,35264
3745,35136
3746,35008
3747,34880
3748,34880
3749,34880
3750,34752
3751,34624
3752,34368
3753,34112
3754,33856
3755,33664
3756,33536
3757,33472
3758,33408
3759,33344
3760,33280
3761,33152
3762,33152
3763,33088
3764,32960
3765,32960
3766,33024
3767,33088
3768,33152
3769,33152
3770,33216
3771,33408
3772,33536
3773,33600
3774,33664
3775,33664
3776,33600
3777,33664
3778,33792
3779,33856
3780,33984
3781,34048
3782,34112
3783,34112
3784,34112
3785,34048
3786,33984
3787,33920
3788,33920
3789,34048
3790,34112
3791,34048
3792,33984
3793,33920
3794,33856
3795,33728
3796,33536
3797,33408
3798,33344
3799,33408
3800,33536
3801,33600
3802,33536
3803,33536
3804,33536
3805,33536
3806,33600
3807,33664
3808,33728
3809,33600
3810,33536
3811,33536
3812,33600
3813,33792
3814,33984
3815,34176
3816,34176
3817,34176
3818,34048
3819,33984
3820,34048
3821,34112
3822,34240
3823,34304
3824,34368
3825,34368
3826,34368
3827,34176
3828,33984
3829,33792
3830,33728
3831,33664
3832,33472
3833,33216
3834,33088
3835,33024
3836,33024
3837,33024
3838,33024
3839,33088
3840,33152
3841,33344
3842,33472
3843,33664
3844,33728
3845,33792
3846,33728
3847,33664
3848,33536
3849,33472
3850,33600
3851,34112
3852,35008
3853,36416
3854,38400
3855,40640
3856,42560
3857,43072
3858,41600
3859,38720
3860,35456
3861,32320
3862,29952
3863,28416
3864,27712
3865,27840
3866,28672
3867,29952
3868,31232
3869,32320
3870,33024
3871,33408
3872,33664
3873,33792
3874,33856
3875,33856
3876,33856
3877,33920
3878,34048
3879,34176
3880,34240
3881,34048
3882,33920
3883,33856
3884,33856
3885,33920
3886,33920
3887,33984
3888,33984
3889,34048
3890,34112
3891,34240
3892,34368
3893,34432
3894,34432
3895,34368
3896,34368
3897,34368
3898,34496
3899,34688
3900,34816
3901,35008
3902,35200
3903,35072
3904,34880
3905,34688
3906,34560
3907,34624
3908,34688
3909,34752
3910,34752
3911,34752
3912,34688
3913,34432
3914,34240
3915,34112
3916,33984
3917,33856
3918,33664
3919,33472
3920,33216
3921,32960
3922,32832
3923,32832
3924,32768
3925,32576
3926,32384
3927,32192
3928,32128
3929,32064
3930,32000
3931,31936
3932,31936
3933,32000
3934,32192
3935,32384
3936,32512
3937,32512
3938,32320
3939,32256
3940,32320
3941,32384
3942,32576
3943,32704
3944,32896
3945,32960
3946,33024
3947,33024
3948,33088
3949,33216
3950,33344
3951,33344
3952,33344
3953,33344
3954,33344
3955,33344
3956,33344
3957,33344
3958,33408
3959,33472
3960,33472
3961,33536
3962,33472
3963,33408
3964,33344
3965,33344
3966,33280
3967,33280
3968,33344
3969,33408
3970,33536
3971,33472
3972,33408
3973,33344
3974,33408
3975,33472
3976,33536
3977,33472
3978,33472
3979,33536
3980,33536
3981,33600
3982,33664
3983,33728
3984,33792
3985,33792
3986,33792
3987,33728
3988,33664
3989,33600
3990,33664
3991,33728
3992,33920
3993,34048
3994,34048
3995,34048
3996,33984
3997,33984
3998,34048
3999,34112
4000,34048
4001,33984
4002,33984
4003,33984
4004,33984
4005,34048
4006,34176
4007,34304
4008,34368
4009,34432
4010,34432
4011,34368
4012,34176
4013,33920
4014,33600
4015,33472
4016,33472
4017,33536
4018,33600
4019,33600
4020,33536
4021,33536
4022,33664
4023,33792
4024,33728
4025,33600
4026,33600
4027,33664
4028,33664
4029,33600
4030,33536
4031,33728
4032,34240
4033,35008
4034,36160
4035,37696
4036,39744
4037,41920
4038,43200
4039,42816
4040,40704
4041,37568
4042,34304
4043,31360
4044,29312
4045,28224
4046,28032
4047,28544
4048,29632
4049,30848
4050,32000
4051,32832
4052,33408
4053,33792
4054,34048
4055,34048
4056,34048
4057,33920
4058,33856
4059,33856
4060,33920
4061,34176
4062,34368
4063,34432
4064,34240
4065,34048
4066,33984
4067,33984
4068,33920
4069,33856
4070,33728
4071,33792
4072,33856
4073,33920
4074,34048
4075,34176
4076,34240
4077,34368
4078,34496
4079,34624
4080,34624
4081,34560
4082,34560
4083,34624
4084,34752
4085,34752
4086,34688
4087,34624
4088,34560
4089,34624
4090,34624
4091,34624
4092,34624
4093,34560
4094,34496
4095,34368
4096,34176
4097,33984
4098,33920
4099,33792
4100,33600
4101,33344
4102,33024
4103,32896
4104,32832
4105,32768
4106,32704
4107,32576
4108,32512
4109,32448
4110,32448
4111,32384
4112,32256
4113,32192
4114,32320
4115,32448
4116,32512
4117,32384
4118,32192
4119,32128
4120,32192
4121,32384
4122,32576
4123,32832
4124,32960
4125,32896
4126,32832
4127,32832
4128,32896
4129,32896
4130,32896
4131,32960
4132,32960
4133,33024
4134,33152
4135,33280
4136,33344
4137,33472
4138,33536
4139,33536
4140,33536
4141,33536
4142,33472
4143,33344
4144,33280
4145,33280
4146,33280
4147,33280
4148,33280
4149,33216
4150,33216
4151,33216
4152,33344
4153,33472
4154,33600
4155,33600
4156,33600
4157,33536
4158,33600
4159,33728
4160,33920
4161,33984
4162,33920
4163,33856
4164,33792
4165,33728
4166,33664
4167,33600
4168,33472
4169,33408
4170,33408
4171,33472
4172,33600
4173,33664
4174,33792
4175,33792
4176,33792
4177,33856
4178,33856
4179,33920
4180,33856
4181,33792
4182,33792
4183,33856
4184,33856
4185,33856
4186,33856
4187,33920
4188,33856
4189,33728
4190,33664
4191,33600
4192,33536
4193,33472
4194,33536
4195,33728
4196,33856
4197,33792
4198,33792
4199,33856
4200,34048
4201,34176
4202,34176
4203,34048
4204,33920
4205,33920
4206,33920
4207,33984
4208,34048
4209,34048
4210,33984
4211,33920
4212,33920
4213,33984
4214,33920
4215,33856
4216,33920
4217,33984
4218,33984
4219,33792
4220,33600
4221,33344
4222,33216
4223,33280
4224,33408
4225,33408
4226,33344
4227,33280
4228,33344
4229,33408
4230,33472
4231,33472
4232,33472
4233,33472
4234,33472
4235,33472
4236,33600
4237,33792
4238,34176
4239,34880
4240,35968
4241,37632
4242,39744
4243,41920
4244,43072
4245,42432
4246,40128
4247,37056
4248,33856
4249,30976
4250,28928
4251,27776
4252,27648
4253,28288
4254,29440
4255,30720
4256,31680
4257,32512
4258,33024
4259,33408
4260,33664
4261,33920
4262,34176
4263,34240
4264,34176
4265,33984
4266,33792
4267,33792
4268,33856
4269,33920
4270,33984
4271,33984
4272,33920
4273,33792
4274,33728
4275,33792
4276,33920
4277,34048
4278,34176
4279,34304
4280,34304
4281,34304
4282,34304
4283,34368
4284,34368
4285,34368
4286,34432
4287,34496
4288,34560
4289,34560
4290,34560
4291,34624
4292,34624
4293,34624
4294,34688
4295,34816
4296,34944
4297,34944
4298,34944
4299,34816
4300,34688
4301,34432
4302,34304
4303,34240
4304,34240
4305,34176
4306,34048
4307,33856
4308,33728
4309,33664
4310,33408
4311,33024
4312,32768
4313,32640
4314,32576
4315,32512
4316,32576
4317,32576
4318,32576
4319,32640
4320,32768
4321,32768
4322,32832
4323,32960
4324,32896
4325,33152
4326,33088
4327,32960
4328,32704
4329,32640
4330,32704
4331,32832
4332,33088
4333,33280
4334,33408
4335,33408
4336,33408
4337,33408
4338,33344
4339,33344
4340,33280
4341,33344
4342,33408
4343,33408
4344,33536
4345,33728
4346,33856
4347,33728
4348,33600
4349,33472
4350,33472
4351,33472
4352,33536
4353,33536
4354,33536
4355,33472
4356,33408
4357,33280
4358,33216
4359,33152
4360,33216
4361,33408
4362,33600
4363,33600
4364,33472
4365,33344
4366,33344
4367,33344
4368,33408
4369,33536
4370,33664
4371,33664
4372,33600
4373,33536
4374,33472
4375,33344
4376,33216
4377,33152
4378,33216
4379,33344
4380,33408
4381,33472
4382,33536
4383,33600
4384,33600
4385,33600
4386,33664
4387,33728
4388,33792
4389,33792
4390,33792
4391,33728
4392,33600
4393,33408
4394,33280
4395,33216
4396,33280
4397,33344
4398,33536
4399,33792
4400,33984
4401,33920
4402,33856
4403,33792
4404,33792
4405,33856
4406,33856
4407,33856
4408,33856
4409,33920
4410,34048
4411,34112
4412,34112
4413,34112
4414,34048
4415,33984
4416,33920
4417,33728
4418,33664
4419,33600
4420,33536
4421,33408
4422,33408
4423,33408
4424,33472
4425,33536
4426,33536
4427,33600
4428,33600
4429,33600
4430,33728
4431,33664
4432,33920
4433,34048
4434,34048
4435,33856
4436,33536
4437,33536
4438,33920
4439,34560
4440,35648
4441,37312
4442,39552
4443,41664
4444,42816
4445,42048
4446,39936
4447,37184
4448,34432
4449,31872
4450,29824
4451,28608
4452,28288
4453,28736
4454,29696
4455,30784
4456,31616
4457,32256
4458,32768
4459,33152
4460,33536
4461,33792
4462,33920
4463,33920
4464,33856
4465,33792
4466,33728
4467,33728
4468,33728
4469,33728
4470,33856
4471,33984
4472,34048
4473,34112
4474,34176
4475,34176
4476,34112
4477,34112
4478,34112
4479,34048
4480,33984
4481,33920
4482,33984
4483,34112
4484,34176
4485,34112
4486,34112
4487,34112
4488,34112
4489,34176
4490,34304
4491,34560
4492,34752
4493,34752
4494,34688
4495,34624
4496,34560
4497,34368
4498,34176
4499,33984
4500,33856
4501,33728
4502,33664
4503,33536
4504,33408
4505,33344
4506,33216
4507,33088
4508,32960
4509,32832
4510,32704
4511,32576
4512,32512
4513,32512
4514,32384
4515,32128
4516,31808
4517,31616
4518,31488
4519,31488
4520,31552
4521,31552
4522,31744
4523,31680
4524,31680
4525,31616
4526,31680
4527,31744
4528,31936
4529,32128
4530,32256
4531,32320
4532,32384
4533,32384
4534,32448
4535,32448
4536,32448
4537,32448
4538,32448
4539,32512
4540,32576
4541,32576
4542,32512
4543,32512
4544,32640
4545,32768
4546,32768
4547,32704
4548,32512
4549,32512
4550,32448
4551,32384
4552,32384
4553,32512
4554,32704
4555,32768
4556,32640
4557,32576
4558,32576
4559,32640
4560,32768
4561,32896
4562,32832
4563,32704
4564,32704
4565,32768
4566,32768
4567,32832
4568,32832
4569,32768
4570,32704
4571,32768
4572,32832
4573,32896
4574,32832
4575,32768
4576,32768
4577,32768
4578,32832
4579,32896
4580,32960
4581,32960
4582,33152
4583,33216
4584,33216
4585,33152
4586,33152
4587,33152
4588,33216
4589,33344
4590,33472
4591,33408
4592,33344
4593,33280
4594,33216
4595,33280
4596,33280
4597,33280
4598,33152
4599,32960
4600,32768
4601,32704
4602,32768
4603,32832
4604,32832
4605,32832
4606,32768
4607,32896
4608,32960
4609,33024
4610,33024
4611,33024
4612,33088
4613,33088
4614,33024
4615,32896
4616,32960
4617,33280
4618,33920
4619,34880
4620,36416
4621,38464
4622,40768
4623,42304
4624,42176
4625,39744
4626,39168
4627,34624
4628,31936
4629,29888
4630,28608
4631,28032
4632,28160
4633,28864
4634,29888
4635,30848
4636,31744
4637,32512
4638,33024
4639,33344
4640,33600
4641,33792
4642,33856
4643,33856
4644,33728
4645,33600
4646,33536
4647,33408
4648,33408
4649,33408
4650,33408
4651,33536
4652,33728
4653,33984
4654,34048
4655,34048
4656,33984
4657,33984
4658,33984
4659,33984
4660,34048
4661,34176
4662,34240
4663,34304
4664,34432
4665,34560
4666,34624
4667,34624
4668,34688
4669,34816
4670,34880
4671,34880
4672,34816
4673,34816
4674,34816
4675,34752
4676,34688
4677,34624
4678,34496
4679,34432
4680,34304
4681,34240
4682,34176
4683,34048
4684,33856
4685,33600
4686,33536
4687,33472
4688,33280
4689,33088
4690,32896
4691,32832
4692,32768
4693,32704
4694,32576
4695,32448
4696,32320
4697,32320
4698,32384
4699,32576
4700,32704
4701,32704
4702,32640
4703,32512
4704,32384
4705,32448
4706,32512
4707,32640
4708,32768
4709,32896
4710,33024
4711,33216
4712,33344
4713,33472
4714,33536
4715,33664
4716,33792
4717,33920
4718,33856
4719,33856
4720,33792
4721,33728
4722,33728
4723,33792
4724,33792
4725,33728
4726,33728
4727,33856
4728,33984
4729,33984
4730,33664
4731,33600
4732,33600
4733,33664
4734,33600
4735,33536
4736,33600
4737,33664
4738,33792
4739,33792
4740,33792
4741,33728
4742,33664
4743,33664
4744,33664
4745,33728
4746,33792
4747,33856
4748,33856
4749,33920
4750,34048
4751,34048
4752,33920
4753,33792
4754,33664
4755,33600
4756,33600
4757,33728
4758,33920
4759,34048
4760,34176
4761,34176
4762,34176
4763,34176
4764,34176
4765,34240
4766,34304
4767,34240
4768,34240
4769,34368
4770,34432
4771,34496
4772,34432
4773,34432
4774,34560
4775,34560
4776,34432
4777,34304
4778,34368
4779,34368
4780,34304
4781,34048
4782,33728
4783,33600
4784,33536
4785,33472
4786,33472
4787,33536
4788,33536
4789,33600
4790,33728
4791,33728
4792,33792
4793,33728
4794,33728
4795,33792
4796,33792
4797,33856
4798,34048
4799,34496
4800,35072
4801,36032
4802,37568
4803,39680
4804,41984
4805,43520
4806,43264
4807,41152
4808,38080
4809,34752
4810,31872
4811,29696
4812,28352
4813,27904
4814,28288
4815,29376
4816,30720
4817,31808
4818,32640
4819,33280
4820,33856
4821,34048
4822,34176
4823,34240
4824,34176
4825,34176
4826,34176
4827,34240
4828,34368
4829,34432
4830,34368
4831,34304
4832,34304
4833,34368
4834,34432
4835,34496
4836,34496
4837,34624
4838,34624
4839,34560
4840,34432
4841,34496
4842,34624
4843,34688
4844,34816
4845,34880
4846,34880
4847,34880
4848,34944
4849,35072
4850,35200
4851,35200
4852,35328
4853,35392
4854,35392
4855,35456
4856,35520
4857,35456
4858,35392
4859,35328
4860,35264
4861,35136
4862,34944
4863,34624
4864,34368
4865,34048
4866,33856
4867,33728
4868,33536
4869,33408
4870,33280
4871,33152
4872,32960
4873,32832
4874,32768
4875,32640
4876,32512
4877,32448
4878,32320
4879,32256
4880,32128
4881,32000
4882,31936
4883,32000
4884,32064
4885,32256
4886,32320
4887,32384
4888,32448
4889,32512
4890,32448
4891,32448
4892,32512
4893,32576
4894,32640
4895,32832
4896,32768
4897,32832
4898,32832
4899,32896
4900,32960
4901,33024
4902,33088
4903,33152
4904,33152
4905,33088
4906,33088
4907,33152
4908,33280
4909,33344
4910,33408
4911,33536
4912,33600
4913,33408
4914,33152
4915,33024
4916,32960
4917,33088
4918,33216
4919,33152
4920,33152
4921,33088
4922,33088
4923,33088
4924,33088
4925,33088
4926,33088
4927,33088
4928,33152
4929,33152
4930,33216
4931,33344
4932,33408
4933,33344
4934,33344
4935,33344
4936,33344
4937,33408
4938,33344
4939,33216
4940,33216
4941,33152
4942,33344
4943,33472
4944,33536
4945,33472
4946,33280
4947,33216
4948,33216
4949,33344
4950,33408
4951,33472
4952,33536
4953,33664
4954,33664
4955,33792
4956,33856
4957,34048
4958,34112
4959,33984
4960,33856
4961,33920
4962,34112
4963,34176
4964,34048
4965,33984
4966,33984
4967,34048
4968,33984
4969,33920
4970,33856
4971,33792
4972,33728
4973,33536
4974,33344
4975,33216
4976,33216
4977,33344
4978,33344
4979,33408
4980,33472
4981,33536
4982,33600
4983,33600
4984,33536
4985,33536
4986,33536
4987,33600
4988,33472
4989,33344
4990,33536
4991,34112
4992,35008
4993,36288
4994,38016
4995,40192
4996,42304
4997,43264
4998,42432
4999,39872
5000,35392
5001,32960
5002,30464
5003,28736
5004,27904
5005,27840
5006,28480
5007,29696
5008,31040
5009,32128
5010,32896
5011,33408
5012,33792
5013,33984
5014,34112
5015,34176
5016,34176
5017,34176
5018,34176
5019,34048
5020,33984
5021,33920
5022,33920
5023,33920
5024,33984
5025,33984
5026,33984
5027,33920
5028,33984
5029,34048
5030,34112
5031,34112
5032,34176
5033,34240
5034,34304
5035,34432
5036,34560
5037,34752
5038,34816
5039,34752
5040,34688
5041,34688
5042,34688
5043,34816
5044,34880
5045,34880
5046,34880
5047,34816
5048,34816
5049,34816
5050,34880
5051,34944
5052,34880
5053,34816
5054,34688
5055,34624
5056,34432
5057,34240
5058,33984
5059,33856
5060,33728
5061,33664
5062,33600
5063,33600
5064,33536
5065,33280
5066,33088
5067,32896
5068,32768
5069,32704
5070,32768
5071,32768
5072,32768
5073,32704
5074,32576
5075,32576
5076,32576
5077,32640
5078,32768
5079,32896
5080,32960
5081,33024
5082,33152
5083,33280
5084,33472
5085,33472
5086,33408
5087,33344
5088,33280
5089,33216
5090,33408
5091,33472
5092,33472
5093,33472
5094,33472
5095,33472
5096,33472
5097,33472
5098,33472
5099,33536
5100,33664
5101,33728
5102,33664
5103,33664
5104,33664
5105,33856
5106,33792
5107,33792
5108,33600
5109,33472
5110,33408
5111,33408
5112,33472
5113,33472
5114,33472
5115,33536
5116,33536
5117,33536
5118,33472
5119,33600
5120,33664
5121,33728
5122,33792
5123,33792
5124,33792
5125,33728
5126,33728
5127,33728
5128,33728
5129,33728
5130,33792
5131,33792
5132,33792
5133,33728
5134,33664
5135,33600
5136,33536
5137,33536
5138,33536
5139,33600
5140,33664
5141,33856
5142,33920
5143,33856
5144,33792
5145,33792
5146,33792
5147,33792
5148,33856
5149,33920
5150,33984
5151,34048
5152,33984
5153,33984
5154,34048
5155,34112
5156,34048
5157,33920
5158,33856
5159,33920
5160,33920
5161,33856
5162,33856
5163,33856
5164,33856
5165,33984
5166,33920
5167,33984
5168,34048
5169,34176
5170,34240
5171,34240
5172,34048
5173,33792
5174,33472
5175,33280
5176,33280
5177,33344
5178,33472
5179,33536
5180,33664
5181,33664
5182,33664
5183,33600
5184,33600
5185,33600
5186,33536
5187,33472
5188,33472
5189,33728
5190,34240
5191,35008
5192,36352
5193,38208
5194,40512
5195,43392
5196,43520
5197,42496
5198,40000
5199,36928
5200,33856
5201,31296
5202,29440
5203,28544
5204,28352
5205,28800
5206,29760
5207,30912
5208,32000
5209,32832
5210,33600
5211,33728
5212,33984
5213,34112
5214,34176
5215,34240
5216,34432
5217,34496
5218,34432
5219,34304
5220,34176
5221,34112
5222,34112
5223,34112
5224,34176
5225,34304
5226,34368
5227,34432
5228,34496
5229,34496
5230,34560
5231,34624
5232,34688
5233,34752
5234,34688
5235,34688
5236,34688
5237,34816
5238,34880
5239,34944
5240,35008
5241,35008
5242,35136
5243,35200
5244,35392
5245,35456
5246,35456
5247,35392
5248,35328
5249,35264
5250,35264
5251,35200
5252,35008
5253,34816
5254,34688
5255,34496
5256,34432
5257,34304
5258,34176
5259,34048
5260,33920
5261,33728
5262,33600
5263,33472
5264,33344
5265,33216
5266,33088
5267,32832
5268,32640
5269,32512
5270,32512
5271,32512
5272,32512
5273,32512
5274,32640
5275,32704
5276,32768
5277,32704
5278,32704
5279,32768
5280,32768
5281,32768
5282,32768
5283,32768
5284,32704
5285,32768
5286,32768
5287,32832
5288,32896
5289,32960
5290,33024
5291,33088
5292,33152
5293,33216
5294,33216
5295,33152
5296,33088
5297,33088
5298,33088
5299,33216
5300,33280
5301,33280
5302,33280
5303,33280
5304,33280
5305,33280
5306,33216
5307,33216
5308,33152
5309,33152
5310,33152
5311,33280
5312,33408
5313,33472
5314,33600
5315,33600
5316,33728
5317,33792
5318,33792
5319,33664
5320,33536
5321,33472
5322,33472
5323,33536
5324,33664
5325,33792
5326,33792
5327,33728
5328,33664
5329,33728
5330,33728
5331,33664
5332,33664
5333,33728
5334,33920
5335,33984
5336,33984
5337,33984
5338,33920
5339,33728
5340,33664
5341,33728
5342,33920
5343,34048
5344,34112
5345,34240
5346,34304
5347,34304
5348,34176
5349,34112
5350,34048
5351,34176
5352,34176
5353,34176
5354,34240
5355,34176
5356,34112
5357,34112
5358,34240
5359,34368
5360,34240
5361,34048
5362,33728
5363,33536
5364,33472
5365,33472
5366,33600
5367,33728
5368,33792
5369,33792
5370,33728
5371,33728
5372,33792
5373,33728
5374,33728
5375,33664
5376,33728
5377,33792
5378,33792
5379,33920
5380,34304
5381,34944
5382,36160
5383,37824
5384,40128
5385,42304
5386,43200
5387,42240
5388,39936
5389,37056
5390,34176
5391,31808
5392,29888
5393,28672
5394,28224
5395,28608
5396,29568
5397,30720
5398,31872
5399,32768
5400,33344
5401,33728
5402,33920
5403,34176
5404,34368
5405,34496
5406,34368
5407,34048
5408,33856
5409,33792
5410,33856
5411,33984
5412,34048
5413,34112
5414,34112
5415,34112
5416,34176
5417,34240
5418,34368
5419,34496
5420,34624
5421,34752
5422,34752
5423,34624
5424,34560
5425,34496
5426,34496
5427,34496
5428,34496
5429,34624
5430,34624
5431,34688
5432,34752
5433,34880
5434,35008
5435,35072
5436,35136
5437,35136
5438,35136
5439,35072
5440,35008
5441,35008
5442,34880
5443,34816
5444,34688
5445,34496
5446,34304
5447,34048
5448,33792
5449,33600
5450,33472
5451,33344
5452,33152
5453,33024
5454,33024
5455,33088
5456,33024
5457,32832
5458,32704
5459,32640
5460,32576
5461,32512
5462,32448
5463,32448
5464,32512
5465,32576
5466,32640
5467,32768
5468,32768
5469,32768
5470,32896
5471,33088
5472,33280
5473,33344
5474,33280
5475,33280
5476,33280
5477,33408
5478,33472
5479,33600
5480,33664
5481,33664
5482,33600
5483,33664
5484,33664
5485,33664
5486,33792
5487,33920
5488,33920
5489,33920
5490,33984
5491,34048
5492,34048
5493,33856
5494,33664
5495,33536
5496,33472
5497,33472
5498,33600
5499,33600
5500,33600
5501,33664
5502,33728
5503,33856
5504,33792
5505,33664
5506,33600
5507,33664
5508,33664
5509,33792
5510,33856
5511,33856
5512,33856
5513,33920
5514,34048
5515,34048
5516,34048
5517,33984
5518,33856
5519,33856
5520,33856
5521,33856
5522,33792
5523,33856
5524,33856
5525,33856
5526,33856
5527,33792
5528,33792
5529,33728
5530,33728
5531,33728
5532,33728
5533,33856
5534,33984
5535,34048
5536,34048
5537,34112
5538,34176
5539,34048
5540,33920
5541,33856
5542,33920
5543,33984
5544,33920
5545,33920
5546,33984
5547,34112
5548,34176
5549,34112
5550,33920
5551,33856
5552,33856
5553,33856
5554,33856
5555,33792
5556,33600
5557,33408
5558,33280
5559,33280
5560,33280
5561,33408
5562,33472
5563,33472
5564,33472
5565,33408
5566,33344
5567,33408
5568,33472
5569,33536
5570,33472
5571,33472
5572,33664
5573,34176
5574,34944
5575,36160
5576,37760
5577,40000
5578,42304
5579,43712
5580,43200
5581,40896
5582,37696
5583,34368
5584,31488
5585,29440
5586,28416
5587,28160
5588,28544
5589,29504
5590,30720
5591,31808
5592,32640
5593,33216
5594,33600
5595,33920
5596,34112
5597,34048
5598,33920
5599,33792
5600,33792
5601,33792
5602,33792
5603,33920
5604,33984
5605,33984
5606,33856
5607,33856
5608,33856
5609,33984
5610,34048
5611,34240
5612,34432
5613,34624
5614,34624
5615,34560
5616,34496
5617,34432
5618,34432
5619,34432
5620,34496
5621,34560
5622,34688
5623,34816
5624,34880
5625,35008
5626,35072
5627,35072
5628,35072
5629,35072
5630,35072
5631,35072
5632,35072
5633,35008
5634,35008
5635,34880
5636,34816
5637,34688
5638,34560
5639,34432
5640,34240
5641,34112
5642,33984
5643,33792
5644,33472
5645,33216
5646,32960
5647,32704
5648,32448
5649,32320
5650,32256
5651,32256
5652,32192
5653,32128
5654,32128
5655,32128
5656,32128
5657,32128
5658,32192
5659,32320
5660,32384
5661,32512
5662,32512
5663,32576
5664,32640
5665,32512
5666,32448
5667,32512
5668,32640
5669,32704
5670,32704
5671,32768
5672,32832
5673,32832
5674,32896
5675,33024
5676,33216
5677,33280
5678,33280
5679,33280
5680,33280
5681,33344
5682,33472
5683,33600
5684,33664
5685,33600
5686,33472
5687,33344
5688,33280
5689,33280
5690,33280
5691,33280
5692,33280
5693,33344
5694,33472
5695,33536
5696,33600
5697,33536
5698,33536
5699,33536
5700,33536
5701,33472
5702,33472
5703,33472
5704,33536
5705,33600
5706,33728
5707,33856
5708,33920
5709,33856
5710,33728
5711,33728
5712,33856
5713,33792
5714,33600
5715,33472
5716,33600
5717,33728
5718,33792
5719,33728
5720,33664
5721,33664
5722,33728
5723,33728
5724,33792
5725,33856
5726,33920
5727,33984
5728,33984
5729,33920
5730,33856
5731,33792
5732,33792
5733,33856
5734,33920
5735,33920
5736,33792
5737,33728
5738,33856
5739,33920
5740,34048
5741,34112
5742,34112
5743,34112
5744,34176
5745,34112
5746,33984
5747,33920
5748,33856
5749,33920
5750,34048
5751,34176
5752,34304
5753,34432
5754,34368
5755,34240
5756,34048
5757,33920
5758,33856
5759,33728
5760,33600
5761,33536
5762,33600
5763,33792
5764,33920
5765,33856
5766,33856
5767,33728
5768,33664
5769,33536
5770,33600
5771,33664
5772,33792
5773,33920
5774,33920
5775,33728
5776,33728
5777,33984
5778,34688
5779,35776
5780,37312
5781,39360
5782,41600
5783,43328
5784,43584
5785,41856
5786,38912
5787,35648
5788,32576
5789,30208
5790,28736
5791,28096
5792,28352
5793,29248
5794,30464
5795,31488
5796,32384
5797,32960
5798,33344
5799,33536
5800,33728
5801,33856
5802,33984
5803,34112
5804,34176
5805,34240
5806,34112
5807,34112
5808,34112
5809,34112
5810,34048
5811,34048
5812,34176
5813,34304
5814,34368
5815,34304
5816,34176
5817,34240
5818,34304
5819,34432
5820,34496
5821,34560
5822,34560
5823,34560
5824,34560
5825,34560
5826,34688
5827,34816
5828,34944
5829,35072
5830,35136
5831,35200
5832,35264
5833,35328
5834,35392
5835,35328
5836,35264
5837,35136
5838,35072
5839,35008
5840,34944
5841,34816
5842,34624
5843,34368
5844,34240
5845,34112
5846,33984
5847,33856
5848,33664
5849,33472
5850,33344
5851,33216
5852,33152
5853,33024
5854,32896
5855,32704
5856,32448
5857,32320
5858,32384
5859,32384
5860,32448
5861,32448
5862,32512
5863,32576
5864,32512
5865,32448
5866,32448
5867,32512
5868,32640
5869,32768
5870,32832
5871,32896
5872,32960
5873,33024
5874,33088
5875,33216
5876,33344
5877,33472
5878,33664
5879,33792
5880,33792
5881,33728
5882,33728
5883,33792
5884,33792
5885,33792
5886,33792
5887,33792
5888,33792
5889,33728
5890,33664
5891,33728
5892,33728
5893,33728
5894,33792
5895,33728
5896,33728
5897,33792
5898,33920
5899,34048
5900,34048
5901,33920
5902,33792
5903,33664
5904,33664
5905,33664
5906,33664
5907,33728
5908,33792
5909,33856
5910,33856
5911,33856
5912,33920
5913,33984
5914,34048
5915,33920
5916,33856
5917,33856
5918,33856
5919,33856
5920,33856
5921,33984
5922,34048
5923,33984
5924,33792
5925,33728
5926,33792
5927,33920
5928,33920
5929,33920
5930,33920
5931,33856
5932,33920
5933,34048
5934,34240
5935,34304
5936,34240
5937,34112
5938,34112
5939,34176
5940,34304
5941,34368
5942,34368
5943,34368
5944,34368
5945,34432
5946,34368
5947,34240
5948,34112
5949,33984
5950,33920
5951,33792
5952,33664
5953,33664
5954,33664
5955,33664
5956,33600
5957,33600
5958,33664
5959,33728
5960,33792
5961,33856
5962,33984
5963,34048
5964,34112
5965,34048
5966,33920
5967,33856
5968,34048
5969,34560
5970,35200
5971,36416
5972,38144
5973,40448
5974,42496
5975,43392
5976,42368
5977,40000
5978,37120
5979,34240
5980,31680
5981,29824
5982,28800
5983,28480
5984,28928
5985,29888
5986,30976
5987,31872
5988,32640
5989,33216
5990,33664
5991,33920
5992,34048
5993,34112
5994,34240
5995,34368
5996,34432
5997,34368
5998,34240
5999,34048
6000,33984
6001,33920
6002,33984
6003,34112
6004,34240
6005,34368
6006,34432
6007,34496
6008,34496
6009,34496
6010,34496
6011,34432
6012,34496
6013,34560
6014,34688
6015,34688
6016,34752
6017,34816
6018,34944
6019,35136
6020,35136
6021,35136
6022,35200
6023,35328
6024,35328
6025,35328
6026,35328
6027,35328
6028,35328
6029,35200
6030,34944
6031,34752
6032,34688
6033,34688
6034,34624
6035,34560
6036,34368
6037,34112
6038,33856
6039,33600
6040,33344
6041,33216
6042,33024
6043,32832
6044,32768
6045,32640
6046,32640
6047,32576
6048,32512
6049,32512
6050,32576
6051,32640
6052,32704
6053,32640
6054,32640
6055,32640
6056,32640
6057,32512
6058,32448
6059,32448
6060,32640
6061,32832
6062,32960
6063,32960
6064,33024
6065,33088
6066,33216
6067,33344
6068,33344
6069,33344
6070,33280
6071,33408
6072,33536
6073,33664
6074,33664
6075,33664
6076,33664
6077,33600
6078,33600
6079,33664
6080,33728
6081,33664
6082,33600
6083,33536
6084,33600
6085,33728
6086,33856
6087,33856
6088,33728
6089,33728
6090,33664
6091,33664
6092,33664
6093,33664
6094,33600
6095,33536
6096,33600
6097,33664
6098,33664
6099,33664
6100,33728
6101,33856
6102,33920
6103,33984
6104,33984
6105,33984
6106,33984
6107,33984
6108,33984
6109,33984
6110,33920
6111,33856
6112,33792
6113,33856
6114,33856
6115,33984
6116,34112
6117,34112
6118,33984
6119,33856
6120,33792
6121,33856
6122,33984
6123,34112
6124,34240
6125,34304
6126,34240
6127,34176
6128,34112
6129,34048
6130,34048
6131,33984
6132,33792
6133,33664
6134,33536
6135,33536
6136,33536
6137,33536
6138,33600
6139,33728
6140,33792
6141,33728
6142,33792
6143,33920
6144,33792
6145,33536
6146,33280
6147,33152
6148,33152
6149,33408
6150,33984
6151,34752
6152,35904
6153,37568
6154,39744
6155,42176
6156,42368
6157,43008
6158,40256
6159,37504
6160,34688
6161,32128
6162,30144
6163,28992
6164,28608
6165,28928
6166,29632
6167,30592
6168,31552
6169,32384
6170,33152
6171,33664
6172,33920
6173,33920
6174,33856
6175,33856
6176,33856
6177,33856
6178,33792
6179,33792
6180,33856
6181,33984
6182,34112
6183,34240
6184,34304
6185,34176
6186,34176
6187,34176
6188,34304
6189,34432
6190,34560
6191,34624
6192,34688
6193,34688
6194,34624
6195,34624
6196,34688
6197,34752
6198,34752
6199,34816
6200,34944
6201,34944
6202,34944
6203,34944
6204,35072
6205,35136
6206,35200
6207,35264
6208,35264
6209,35264
6210,35200
6211,35136
6212,35072
6213,35008
6214,34880
6215,34752
6216,34688
6217,34368
6218,34112
6219,33920
6220,33728
6221,33600
6222,33472
6223,33280
6224,33024
6225,32768
6226,32640
6227,32640
6228,32640
6229,32640
6230,32640
6231,32640
6232,32576
6233,32576
6234,32512
6235,32512
6236,32576
6237,32704
6238,32768
6239,32896
6240,33024
6241,33088
6242,33024
6243,33024
6244,32960
6245,33024
6246,32960
6247,33088
6248,33152
6249,33344
6250,33472
6251,33600
6252,33728
6253,33728
6254,33728
6255,33600
6256,33536
6257,33600
6258,33664
6259,33792
6260,33792
6261,33728
6262,33600
6263,33536
6264,33664
6265,33728
6266,33728
6267,33600
6268,33472
6269,33344
6270,33344
6271,33472
6272,33600
6273,33664
6274,33792
6275,33920
6276,33920
6277,33920
6278,33856
6279,33856
6280,33856
6281,33856
6282,33856
6283,33856
6284,33856
6285,33792
6286,33728
6287,33792
6288,33920
6289,34048
6290,34240
6291,34368
6292,34304
6293,34240
6294,34112
6295,33984
6296,33920
6297,33984
6298,33984
6299,34112
6300,34176
6301,34176
6302,34176
6303,34176
6304,34304
6305,34368
6306,34304
6307,34048
6308,33728
6309,33472
6310,33344
6311,33216
6312,33280
6313,33408
6314,33472
6315,33664
6316,33792
6317,33792
6318,33728
6319,33728
6320,33664
6321,33600
6322,33408
6323,33344
6324,33408
6325,33792
6326,34432
6327,35328
6328,36672
6329,38592
6330,40960
6331,43008
6332,43648
6333,42304
6334,39616
6335,36608
6336,33472
6337,30720
6338,28864
6339,28032
6340,27968
6341,28736
6342,29888
6343,31168
6344,32256
6345,33152
6346,33600
6347,33728
6348,33920
6349,34048
6350,34240
6351,34176
6352,34304
6353,34240
6354,34112
6355,34048
6356,34112
6357,34112
6358,34112
6359,34112
6360,34176
6361,34240
6362,34368
6363,34432
6364,34368
6365,34304
6366,34240
6367,34560
6368,34752
6369,34752
6370,34688
6371,34624
6372,34688
6373,34752
6374,34880
6375,35008
6376,35072
6377,35136
6378,35200
6379,35264
6380,35264
6381,35392
6382,35392
6383,35392
6384,35328
6385,35200
6386,35072
6387,35008
6388,34880
6389,34752
6390,34688
6391,34560
6392,34368
6393,34048
6394,33728
6395,33472
6396,33344
6397,33216
6398,33024
6399,32896
6400,32704
6401,32576
6402,32448
6403,32448
6404,32512
6405,32512
6406,32384
6407,32256
6408,32192
6409,32192
6410,32320
6411,32256
6412,32512
6413,32640
6414,32576
6415,32576
6416,32576
6417,32576
6418,32512
6419,32576
6420,32640
6421,32832
6422,33024
6423,33152
6424,33152
6425,33216
6426,33344
6427,33408
6428,33408
6429,33536
6430,33600
6431,33600
6432,33536
6433,33536
6434,33600
6435,33664
6436,33792
6437,33856
6438,33792
6439,33600
6440,33536
6441,33472
6442,33728
6443,33664
6444,33536
6445,33472
6446,33472
6447,33536
6448,33600
6449,33664
6450,33792
6451,33792
6452,33664
6453,33600
6454,33600
6455,33664
6456,33600
6457,33600
6458,33664
6459,33664
6460,33600
6461,33536
6462,33536
6463,33600
6464,33536
6465,33536
6466,33536
6467,33664
6468,33728
6469,33792
6470,33856
6471,33856
6472,33920
6473,33920
6474,34048
6475,34112
6476,34176
6477,34112
6478,34048
6479,34048
6480,34112
6481,34176
6482,34176
6483,34176
6484,34176
6485,34176
6486,34048
6487,33984
6488,33984
6489,33984
6490,33920
6491,33856
6492,33664
6493,33536
6494,33472
6495,33536
6496,33600
6497,33536
6498,33536
6499,33664
6500,33792
6501,33920
6502,33984
6503,33856
6504,33664
6505,33664
6506,33728
6507,33792
6508,33856
6509,34048
6510,34624
6511,35776
6512,37376
6513,39424
6514,41728
6515,43520
6516,43520
6517,41536
6518,38464
6519,35072
6520,31936
6521,29568
6522,28288
6523,27840
6524,28288
6525,29376
6526,30656
6527,31808
6528,32704
6529,33344
6530,33600
6531,33728
6532,33920
6533,34048
6534,34048
6535,34048
6536,34048
6537,34048
6538,33984
6539,33920
6540,33920
6541,34048
6542,34176
6543,34368
6544,34624
6545,34752
6546,34688
6547,34432
6548,34368
6549,34432
6550,34496
6551,34432
6552,34304
6553,34304
6554,34432
6555,34560
6556,34688
6557,34880
6558,35008
6559,35136
6560,35200
6561,35264
6562,35392
6563,35520
6564,35584
6565,35648
6566,35584
6567,35456
6568,35328
6569,35328
6570,35200
6571,35008
6572,34816
6573,34624
6574,34496
6575,34432
6576,34368
6577,34112
6578,33856
6579,33664
6580,33472
6581,33280
6582,33152
6583,33088
6584,33024
6585,32832
6586,32640
6587,32448
6588,32320
6589,32256
6590,32192
6591,32256
6592,32384
6593,32448
6594,32448
6595,32512
6596,32576
6597,32576
6598,32512
6599,32448
6600,32512
6601,32640
6602,32768
6603,32832
6604,32960
6605,33088
6606,33088
6607,33088
6608,33088
6609,33152
6610,33216
6611,33280
6612,33280
6613,33344
6614,33472
6615,33536
6616,33600
6617,33600
6618,33536
6619,33536
6620,33664
6621,33664
6622,33792
6623,33792
6624,33856
6625,33856
6626,33728
6627,33472
6628,33344
6629,33280
6630,33280
6631,33152
6632,33152
6633,33280
6634,33280
6635,33216
6636,33216
6637,33216
6638,33216
6639,33344
6640,33408
6641,33472
6642,33472
6643,33472
6644,33408
6645,33408
6646,33472
6647,33536
6648,33600
6649,33536
6650,33472
6651,33472
6652,33472
6653,33408
6654,33344
6655,33344
6656,33280
6657,33280
6658,33280
6659,33344
6660,33408
6661,33536
6662,33728
6663,33856
6664,33984
6665,33984
6666,33984
6667,34048
6668,34048
6669,34112
6670,34112
6671,34112
6672,34112
6673,34112
6674,34112
6675,34112
6676,34112
6677,34304
6678,34496
6679,34496
6680,34368
6681,34304
6682,34304
6683,34304
6684,34176
6685,33984
6686,33728
6687,33536
6688,33472
6689,33536
6690,33600
6691,33728
6692,33856
6693,33856
6694,33792
6695,33664
6696,33664
6697,33728
6698,33792
6699,33856
6700,33792
6701,33856
6702,33984
6703,34368
6704,34944
6705,35776
6706,36928
6707,38656
6708,40832
6709,42752
6710,43328
6711,42240
6712,39808
6713,36864
6714,33792
6715,31168
6716,29312
6717,28416
6718,28352
6719,29056
6720,30080
6721,31168
6722,32064
6723,32768
6724,33280
6725,33856
6726,33856
6727,34240
6728,34368
6729,34368
6730,34240
6731,34112
6732,34048
6733,34112
6734,34176
6735,34240
6736,34304
6737,34240
6738,34112
6739,34048
6740,34176
6741,34304
6742,34432
6743,34432
6744,34368
6745,34368
6746,34304
6747,34304
6748,34304
6749,34432
6750,34560
6751,34688
6752,34816
6753,34944
6754,35072
6755,35200
6756,35264
6757,35392
6758,35584
6759,35840
6760,35904
6761,35776
6762,35392
6763,34944
6764,34624
6765,34432
6766,34432
6767,34496
6768,34496
6769,34368
6770,34176
6771,33920
6772,33728
6773,33600
6774,33472
6775,33280
6776,33152
6777,32960
6778,32896
6779,32832
6780,32768
6781,32640
6782,32640
6783,32640
6784,32704
6785,32768
6786,32704
6787,32576
6788,32384
6789,32256
6790,32256
6791,32256
6792,32320
6793,32448
6794,32512
6795,32512
6796,32576
6797,32640
6798,32704
6799,32832
6800,32960
6801,33088
6802,33152
6803,33280
6804,33344
6805,33472
6806,33472
6807,33472
6808,33472
6809,33536
6810,33728
6811,33984
6812,34048
6813,33920
6814,33728
6815,33664
6816,33600
6817,33536
6818,33536
6819,33472
6820,33408
6821,33472
6822,33472
6823,33408
6824,33344
6825,33472
6826,33536
6827,33600
6828,33664
6829,33664
6830,33600
6831,33536
6832,33664
6833,33792
6834,34048
6835,34112
6836,33920
6837,33856
6838,33856
6839,33856
6840,33792
6841,33728
6842,33600
6843,33472
6844,33408
6845,33408
6846,33472
6847,33600
6848,33664
6849,33728
6850,33792
6851,33920
6852,33984
6853,33984
6854,34048
6855,34240
6856,34304
6857,34368
6858,34368
6859,34240
6860,34240
6861,34176
6862,34112
6863,34048
6864,34112
6865,34048
6866,34048
6867,34112
6868,34112
6869,34048
6870,33984
6871,34048
6872,34176
6873,34176
6874,34048
6875,33856
6876,33728
6877,33728
6878,33728
6879,33856
6880,33920
6881,33920
6882,33856
6883,33792
6884,33792
6885,33792
6886,33792
6887,33792
6888,33728
6889,33664
6890,33664
6891,33600
6892,34112
6893,34880
6894,35840
6895,37248
6896,38976
6897,41152
6898,42880
6899,43264
6900,41856
6901,39296
6902,36288
6903,33344
6904,30912
6905,29312
6906,28544
6907,28480
6908,29184
6909,30144
6910,31232
6911,32192
6912,32960
6913,33600
6914,33920
6915,34112
6916,34176
6917,34240
6918,34304
6919,34240
6920,34304
6921,34304
6922,34304
6923,34368
6924,34368
6925,34368
6926,34368
6927,34560
6928,34624
6929,34496
6930,34240
6931,34048
6932,34048
6933,34112
6934,34112
6935,34368
6936,34304
6937,34560
6938,34688
6939,34752
6940,34816
6941,34880
6942,34880
6943,34816
6944,34880
6945,34944
6946,35072
6947,35136
6948,35264
6949,35392
6950,35520
6951,35456
6952,35264
6953,35072
6954,34944
6955,34816
6956,34688
6957,34688
6958,34624
6959,34432
6960,34112
6961,33856
6962,33600
6963,33408
6964,33152
6965,33024
6966,32960
6967,32896
6968,32768
6969,32576
6970,32576
6971,32576
6972,32576
6973,32576
6974,32512
6975,32512
6976,32576
6977,32512
6978,32512
6979,32576
6980,32704
6981,32768
6982,32832
6983,32832
6984,32832
6985,32768
6986,32768
6987,32832
6988,32960
6989,33216
6990,33472
6991,33664
6992,33664
6993,33472
6994,33280
6995,33344
6996,33280
6997,33536
6998,33536
6999,33472
7000,33472
7001,33472
7002,33408
7003,33408
7004,33536
7005,33600
7006,33728
7007,33728
7008,33728
7009,33728
7010,33728
7011,33664
7012,33600
7013,33536
7014,33536
7015,33536
7016,33600
7017,33600
7018,33600
7019,33600
7020,33600
7021,33664
7022,33664
7023,33728
7024,33728
7025,33728
7026,33792
7027,33856
7028,33920
7029,33920
7030,33920
7031,33984
7032,33920
7033,33920
7034,33856
7035,33728
7036,33472
7037,33344
7038,33280
7039,33344
7040,33408
7041,33536
7042,33664
7043,33856
7044,33920
7045,33984
7046,34048
7047,33984
7048,33984
7049,33984
7050,34112
7051,34112
7052,33984
7053,33920
7054,33920
7055,34112
7056,34112
7057,34048
7058,33984
7059,33920
7060,33984
7061,34112
7062,34112
7063,34112
7064,34112
7065,34176
7066,34176
7067,34176
7068,34176
7069,34112
7070,34176
7071,34304
7072,34304
7073,34176
7074,33920
7075,33664
7076,33472
7077,33408
7078,33472
7079,33600
7080,33728
7081,33792
7082,33856
7083,33920
7084,33984
7085,34112
7086,34048
7087,33920
7088,33920
7089,34112
7090,34688
7091,35392
7092,36544
7093,38272
7094,40512
7095,42688
7096,43904
7097,43136
7098,40704
7099,37504
7100,32704
7101,31232
7102,29376
7103,28352
7104,28224
7105,28800
7106,29888
7107,31104
7108,32192
7109,33088
7110,33728
7111,34048
7112,34176
7113,34240
7114,34240
7115,34240
7116,34240
7117,34240
7118,34368
7119,34432
7120,34432
7121,34368
7122,34368
7123,34496
7124,34560
7125,34304
7126,34048
7127,33920
7128,33984
7129,34176
7130,34432
7131,34496
7132,34560
7133,34624
7134,34688
7135,34752
7136,34816
7137,34944
7138,35072
7139,35328
7140,35520
7141,35584
7142,35456
7143,35328
7144,35328
7145,35456
7146,35520
7147,35520
7148,35328
7149,35072
7150,34944
7151,34880
7152,34816
7153,34816
7154,34752
7155,34624
7156,34496
7157,34432
7158,34304
7159,34176
7160,33984
7161,33728
7162,33536
7163,33344
7164,33152
7165,33024
7166,32960
7167,32960
7168,32960
7169,32960
7170,32768
7171,32576
7172,32448
7173,32384
7174,32384
7175,32640
7176,32640
7177,32832
7178,32960
7179,32960
7180,32960
7181,32896
7182,32896
7183,32960
7184,33088
7185,33088
7186,33088
7187,33024
7188,33088
7189,33216
7190,33280
7191,33408
7192,33472
7193,33536
7194,33536
7195,33600
7196,33664
7197,33664
7198,33728
7199,33792
7200,33920
7201,33920
7202,33856
7203,33856
7204,33856
7205,33856
7206,33728
7207,33728
7208,33728
7209,33728
7210,33664
7211,33664
7212,33664
7213,33792
7214,33856
7215,33792
7216,33664
7217,33664
7218,33664
7219,33728
7220,33792
7221,33792
7222,33728
7223,33728
7224,33856
7225,33920
7226,33856
7227,33728
7228,33664
7229,33664
7230,33792
7231,33856
7232,33920
7233,33920
7234,33984
7235,34048
7236,33984
7237,33728
7238,33536
7239,33472
7240,33472
7241,33536
7242,33536
7243,33664
7244,33728
7245,33856
7246,33984
7247,33984
7248,34048
7249,34112
7250,34240
7251,34240
7252,34176
7253,33984
7254,33856
7255,33792
7256,33728
7257,33728
7258,33792
7259,33856
7260,33984
7261,33920
7262,33920
7263,33984
7264,34048
7265,34048
7266,33984
7267,33984
7268,33984
7269,33920
7270,33920
7271,33920
7272,33984
7273,33984
7274,34112
7275,34176
7276,34240
7277,34240
7278,34240
7279,34176
7280,34112
7281,34112
7282,34112
7283,34240
7284,34240
7285,34240
7286,34112
7287,34048
7288,33984
7289,33984
7290,33984
7291,33984
7292,33984
7293,33792
7294,33728
7295,33728
7296,33664
7297,33600
7298,33536
7299,33536
7300,33536
7301,33536
7302,33536
7303,33728
7304,33856
7305,33920
7306,33920
7307,33920
7308,33984
7309,34112
7310,34560
7311,35712
7312,36672
7313,38400
7314,40704
7315,42880
7316,43904
7317,42944
7318,40384
7319,37120
7320,33856
7321,30912
7322,29056
7323,28096
7324,27904
7325,28480
7326,29568
7327,30784
7328,31872
7329,32832
7330,33536
7331,33920
7332,33920
7333,33856
7334,33792
7335,33792
7336,33728
7337,33792
7338,33856
7339,34048
7340,34240
7341,34368
7342,34368
7343,34112
7344,33856
7345,33728
7346,33856
7347,33984
7348,34048
7349,34112
7350,34176
7351,34304
7352,34368
7353,34368
7354,34368
7355,34432
7356,34560
7357,34624
7358,34752
7359,34816
7360,34944
7361,35136
7362,35200
7363,35264
7364,35200
7365,35136
7366,35136
7367,35072
7368,35072
7369,35136
7370,35136
7371,35072
7372,35008
7373,34816
7374,34624
7375,34496
7376,34496
7377,34368
7378,34176
7379,33984
7380,33728
7381,33472
7382,33280
7383,33088
7384,32960
7385,32768
7386,32576
7387,32384
7388,32320
7389,32256
7390,32256
7391,32192
7392,32128
7393,32128
7394,32192
7395,32320
7396,32384
7397,32448
7398,32448
7399,32448
7400,32512
7401,32576
7402,32704
7403,32832
7404,32896
7405,32896
7406,32768
7407,32704
7408,32768
7409,32896
7410,33088
7411,33216
7412,33408
7413,33472
7414,33536
7415,33664
7416,33792
7417,33792
7418,33664
7419,33600
7420,33472
7421,33344
7422,33344
7423,33344
7424,33408
7425,33408
7426,33472
7427,33472
7428,33472
7429,33600
7430,33664
7431,33792
7432,33792
7433,33664
7434,33408
7435,33216
7436,33152
7437,33280
7438,33536
7439,33664
7440,33600
7441,33600
7442,33664
7443,33856
7444,33856
7445,33600
7446,33472
7447,33408
7448,33472
7449,33472
7450,33472
7451,33472
7452,33472
7453,33664
7454,33856
7455,33856
7456,33664
7457,33536
7458,33536
7459,33536
7460,33408
7461,33344
7462,33408
7463,33536
7464,33536
7465,33472
7466,33408
7467,33536
7468,33664
7469,33792
7470,33792
7471,33728
7472,33600
7473,33408
7474,33472
7475,33600
7476,33664
7477,33600
7478,33600
7479,33664
7480,33600
7481,33472
7482,33472
7483,33600
7484,33664
7485,33664
7486,33536
7487,33536
7488,33536
7489,33664
7490,33792
7491,33984
7492,34048
7493,34048
7494,34048
7495,34048
7496,34112
7497,34176
7498,34176
7499,34176
7500,34176
7501,34176
7502,34240
7503,34304
7504,34368
7505,34368
7506,34304
7507,34240
7508,34240
7509,34304
7510,34368
7511,34368
7512,34304
7513,34240
7514,34176
7515,33984
7516,33856
7517,33856
7518,33792
7519,33856
7520,33920
7521,34048
7522,34048
7523,34112
7524,34112
7525,34112
7526,34176
7527,34112
7528,34240
7529,34496
7530,35136
7531,36096
7532,37568
7533,39680
7534,42176
7535,43968
7536,44160
7537,42432
7538,39552
7539,36224
7540,33024
7541,29824
7542,28800
7543,28160
7544,28352
7545,29248
7546,30528
7547,31552
7548,32448
7549,33152
7550,33664
7551,33920
7552,34176
7553,34304
7554,34432
7555,34496
7556,34368
7557,34304
7558,34304
7559,34304
7560,34304
7561,34304
7562,34304
7563,34304
7564,34368
7565,34432
7566,34560
7567,34816
7568,35008
7569,35008
7570,34816
7571,34752
7572,34816
7573,34816
7574,34496
7575,34368
7576,34240
7577,34304
7578,34432
7579,34560
7580,34752
7581,34944
7582,35072
7583,35136
7584,35328
7585,35392
7586,35392
7587,35392
7588,35328
7589,35264
7590,35200
7591,35200
7592,35200
7593,35136
7594,35008
7595,34880
7596,34624
7597,34304
7598,33920
7599,33664
7600,33600
7601,33472
7602,33088
7603,32768
7604,32512
7605,32384
7606,32256
7607,32256
7608,32256
7609,32320
7610,32320
7611,32256
7612,32320
7613,32384
7614,32448
7615,32576
7616,32704
7617,32768
7618,32768
7619,32704
7620,32832
7621,33024
7622,33152
7623,33088
7624,32832
7625,32704
7626,32704
7627,32768
7628,32960
7629,33216
7630,33408
7631,33536
7632,33600
7633,33600
7634,33536
7635,33472
7636,33472
7637,33536
7638,33472
7639,33472
7640,33472
7641,33472
7642,33536
7643,33600
7644,33664
7645,33792
7646,33920
7647,33920
7648,33792
7649,33728
7650,33664
7651,33664
7652,33664
7653,33728
7654,33728
7655,33664
7656,33664
7657,33536
7658,33472
7659,33536
7660,33600
7661,33536
7662,33536
7663,33600
7664,33600
7665,33664
7666,33792
7667,33920
7668,33920
7669,33856
7670,33856
7671,33856
7672,33792
7673,33792
7674,33792
7675,33920
7676,34048
7677,34112
7678,34112
7679,33920
7680,33728
7681,33664
7682,33728
7683,33856
7684,33984
7685,34176
7686,34240
7687,34176
7688,33984
7689,33856
7690,33856
7691,33920
7692,34048
7693,34112
7694,34112
7695,34048
7696,34176
7697,34240
7698,34368
7699,34432
7700,34560
7701,34624
7702,34560
7703,34304
7704,34112
7705,33984
7706,33984
7707,33856
7708,33792
7709,33664
7710,33664
7711,33728
7712,33728
7713,33600
7714,33472
7715,33408
7716,33472
7717,33536
7718,33664
7719,33792
7720,33920
7721,33984
7722,33984
7723,33920
7724,33856
7725,33856
7726,34048
7727,34624
7728,35584
7729,36992
7730,38848
7731,41216
7732,42944
7733,43584
7734,42368
7735,39744
7736,36096
7737,33664
7738,31296
7739,29504
7740,28544
7741,28416
7742,28992
7743,29952
7744,31104
7745,32128
7746,32960
7747,33600
7748,34048
7749,34304
7750,34432
7751,34432
7752,34304
7753,34176
7754,34048
7755,33984
7756,33792
7757,33792
7758,33984
7759,34176
7760,34304
7761,34304
7762,34304
7763,34304
7764,34368
7765,34432
7766,34624
7767,34624
7768,34560
7769,34432
7770,34368
7771,34432
7772,34496
7773,34624
7774,34816
7775,35008
7776,35072
7777,35072
7778,35072
7779,35200
7780,35264
7781,35328
7782,35392
7783,35392
7784,35392
7785,35328
7786,35264
7787,35136
7788,35008
7789,34816
7790,34688
7791,34496
7792,34432
7793,34368
7794,34176
7795,34048
7796,33920
7797,33728
7798,33472
7799,33216
7800,33024
7801,32896
7802,32896
7803,32768
7804,32704
7805,32576
7806,32384
7807,32256
7808,32128
7809,32128
7810,32256
7811,32384
7812,32448
7813,32576
7814,32704
7815,32704
7816,32768
7817,32768
7818,32704
7819,32704
7820,32768
7821,32832
7822,33024
7823,33216
7824,33344
7825,33472
7826,33536
7827,33472
7828,33408
7829,33280
7830,33216
7831,33344
7832,33408
7833,33536
7834,33600
7835,33600
7836,33664
7837,33728
7838,33856
7839,33920
7840,33856
7841,33664
7842,33536
7843,33408
7844,33344
7845,33408
7846,33600
7847,33664
7848,33792
7849,33792
7850,33728
7851,33664
7852,33600
7853,33600
7854,33664
7855,33728
7856,33856
7857,33920
7858,33984
7859,33984
7860,33920
7861,33856
7862,33792
7863,33664
7864,33536
7865,33536
7866,33792
7867,33984
7868,33984
7869,33856
7870,33792
7871,33728
7872,33664
7873,33664
7874,33728
7875,33856
7876,33984
7877,34048
7878,34112
7879,34176
7880,34304
7881,34368
7882,34368
7883,34432
7884,34432
7885,34432
7886,34432
7887,34368
7888,34304
7889,34304
7890,34304
7891,34304
7892,34240
7893,34176
7894,34176
7895,34240
7896,34304
7897,34176
7898,34048
7899,33856
7900,33792
7901,33856
7902,33856
7903,33792
7904,33664
7905,33664
7906,33664
7907,33728
7908,33792
7909,33856
7910,33856
7911,33856
7912,33856
7913,33856
7914,33856
7915,33920
7916,34304
7917,34944
7918,35968
7919,37504
7920,39616
7921,42048
7922,43840
7923,44032
7924,42112
7925,38976
7926,35392
7927,32384
7928,29952
7929,28544
7930,28032
7931,28288
7932,29248
7933,30528
7934,31680
7935,32576
7936,33216
7937,33728
7938,33920
7939,34048
7940,34112
7941,34176
7942,34176
7943,34176
7944,34176
7945,34240
7946,34240
7947,34240
7948,34240
7949,34368
7950,34432
7951,34432
7952,34432
7953,34368
7954,34304
7955,34240
7956,34304
7957,34368
7958,34432
7959,34688
7960,34752
7961,34688
7962,34688
7963,34752
7964,34816
7965,34880
7966,35008
7967,35136
7968,35264
7969,35328
7970,35456
7971,35392
7972,35456
7973,35328
7974,35264
7975,35264
7976,35264
7977,35200
7978,35072
7979,35008
7980,34816
7981,34688
7982,34624
7983,34304
7984,33984
7985,33792
7986,33728
7987,33472
7988,33088
7989,32768
7990,32576
7991,32448
7992,32384
7993,32256
7994,32256
7995,32320
7996,32384
7997,32384
7998,32384
7999,32384
8000,32448
8001,32512
8002,32576
8003,32640
8004,32704
8005,32832
8006,32960
8007,33088
8008,33152
8009,33088
8010,32960
8011,32960
8012,33024
8013,33216
8014,33280
8015,33344
8016,33344
8017,33344
8018,33408
8019,33472
8020,33600
8021,33664
8022,33664
8023,33600
8024,33664
8025,33664
8026,33664
8027,33664
8028,33728
8029,33728
8030,33664
8031,33664
8032,33600
8033,33600
8034,33536
8035,33472
8036,33472
8037,33536
8038,33664
8039,33728
8040,33792
8041,33792
8042,33792
8043,33792
8044,33664
8045,33536
8046,33536
8047,33664
8048,33728
8049,33728
8050,33728
8051,33728
8052,33728
8053,33728
8054,33728
8055,33728
8056,33664
8057,33600
8058,33664
8059,33664
8060,33728
8061,33856
8062,33920
8063,33920
8064,33984
8065,34048
8066,34048
8067,34048
8068,33984
8069,34048
8070,34240
8071,34368
8072,34368
8073,34240
8074,34112
8075,34048
8076,34112
8077,34176
8078,34176
8079,34240
8080,34304
8081,34240
8082,34304
8083,34304
8084,34368
8085,34368
8086,34304
8087,34112
8088,33792
8089,33472
8090,33152
8091,33088
8092,33088
8093,33216
8094,33408
8095,33664
8096,33792
8097,33792
8098,33856
8099,33920
8100,33920
8101,33792
8102,33728
8103,33856
8104,34240
8105,34944
8106,35840
8107,37376
8108,39424
8109,41728
8110,43456
8111,43584
8112,41792
8113,38912
8114,35520
8115,32256
8116,29632
8117,28288
8118,27776
8119,28096
8120,29120
8121,30400
8122,31616
8123,32512
8124,33152
8125,33600
8126,33920
8127,34112
8128,34176
8129,34176
8130,34112
8131,34048
8132,33984
8133,33984
8134,34048
8135,34176
8136,34176
8137,34112
8138,34112
8139,34112
8140,34112
8141,34112
8142,34176
8143,34240
8144,34368
8145,34432
8146,34496
8147,34368
8148,34304
8149,34368
8150,34560
8151,34688
8152,34816
8153,34944
8154,35008
8155,35072
8156,35072
8157,35072
8158,35136
8159,35136
8160,35136
8161,35200
8162,35328
8163,35392
8164,35456
8165,35392
8166,35264
8167,35136
8168,34880
8169,34560
8170,34368
8171,34176
8172,34048
8173,33792
8174,33600
8175,33472
8176,33216
8177,33024
8178,32896
8179,32704
8180,32576
8181,32576
8182,32576
8183,32576
8184,32384
8185,32192
8186,32064
8187,32000
8188,32064
8189,32192
8190,32256
8191,32256
8192,32320
8193,32384
8194,32512
8195,32768
8196,32896
8197,32896
8198,32832
8199,32896
8200,32960
8201,32960
8202,32960
8203,33088
8204,33152
8205,33216
8206,33280
8207,33408
8208,33536
8209,33664
8210,33728
8211,33728
8212,33600
8213,33408
8214,33280
8215,33216
8216,33280
8217,33344
8218,33408
8219,33472
8220,33472
8221,33536
8222,33472
8223,33408
8224,33344
8225,33280
8226,33344
8227,33344
8228,33408
8229,33536
8230,33600
8231,33664
8232,33664
8233,33664
8234,33600
8235,33600
8236,33728
8237,33728
8238,33536
8239,33408
8240,33280
8241,33280
8242,33344
8243,33408
8244,33472
8245,33536
8246,33536
8247,33536
8248,33600
8249,33728
8250,33984
8251,33984
8252,33856
8253,33664
8254,33536
8255,33536
8256,33600
8257,33728
8258,33856
8259,33984
8260,34112
8261,34240
8262,34304
8263,34304
8264,34240
8265,34304
8266,34432
8267,34368
8268,34112
8269,33792
8270,33600
8271,33536
8272,33600
8273,33472
8274,33344
8275,33344
8276,33472
8277,33472
8278,33408
8279,33408
8280,33408
8281,33536
8282,33600
8283,33600
8284,33664
8285,33664
8286,33600
8287,33536
8288,33472
8289,33472
8290,33664
8291,34176
8292,34944
8293,36032
8294,37632
8295,39680
8296,41856
8297,43072
8298,42752
8299,40768
8300,37952
8301,34944
8302,32192
8303,30144
8304,28864
8305,28288
8306,28416
8307,29248
8308,30336
8309,31424
8310,32320
8311,33088
8312,33536
8313,33856
8314,33920
8315,33984
8316,33984
8317,34112
8318,34176
8319,34112
8320,34112
8321,34112
8322,34176
8323,34176
8324,34240
8325,34304
8326,34304
8327,34304
8328,34432
8329,34624
8330,34752
8331,34624
8332,34432
8333,34368
8334,34368
8335,34432
8336,34496
8337,34624
8338,34752
8339,34816
8340,34944
8341,35008
8342,35072
8343,35136
8344,35136
8345,35136
8346,35200
8347,35328
8348,35392
8349,35392
8350,35392
8351,35264
8352,35200
8353,35136
8354,35136
8355,34944
8356,34816
8357,34752
8358,34688
8359,34496
8360,34112
8361,33664
8362,33280
8363,33024
8364,32832
8365,32768
8366,32768
8367,32832
8368,32768
8369,32640
8370,32448
8371,32256
8372,32192
8373,32128
8374,32192
8375,32256
8376,32320
8377,32384
8378,32512
8379,32640
8380,32704
8381,32832
8382,32896
8383,32832
8384,32704
8385,32640
8386,32768
8387,32896
8388,33088
8389,33152
8390,33216
8391,33216
8392,33280
8393,33344
8394,33408
8395,33472
8396,33472
8397,33472
8398,33472
8399,33600
8400,33664
8401,33728
8402,33664
8403,33664
8404,33600
8405,33600
8406,33600
8407,33664
8408,33600
8409,33472
8410,33344
8411,33344
8412,33408
8413,33472
8414,33472
8415,33472
8416,33472
8417,33536
8418,33536
8419,33664
8420,33728
8421,33792
8422,33920
8423,33920
8424,33920
8425,33856
8426,33728
8427,33600
8428,33472
8429,33408
8430,33408
8431,33536
8432,33664
8433,33792
8434,33920
8435,33856
8436,33856
8437,33856
8438,33920
8439,33920
8440,33856
8441,33728
8442,33664
8443,33728
8444,33856
8445,34048
8446,34176
8447,34304
8448,34304
8449,34240
8450,34240
8451,34240
8452,34112
8453,33984
8454,33856
8455,33728
8456,33728
8457,33600
8458,33472
8459,33408
8460,33408
8461,33472
8462,33600
8463,33600
8464,33600
8465,33600
8466,33664
8467,33728
8468,33792
8469,33728
8470,33600
8471,33536
8472,33664
8473,34112
8474,34752
8475,35776
8476,37440
8477,39360
8478,41664
8479,43072
8480,42816
8481,40896
8482,38144
8483,35328
8484,32640
8485,30464
8486,29120
8487,28480
8488,28480
8489,29184
8490,30336
8491,31488
8492,32448
8493,33216
8494,33664
8495,33920
8496,34048
8497,34176
8498,34240
8499,34240
8500,34304
8501,34368
8502,34368
8503,34304
8504,34176
8505,34048
8506,33984
8507,34048
8508,34176
8509,34368
8510,34496
8511,34560
8512,34560
8513,34432
8514,34432
8515,34496
8516,34560
8517,34496
8518,34496
8519,34496
8520,34624
8521,34752
8522,34880
8523,35008
8524,35136
8525,35200
8526,35200
8527,35200
8528,35264
8529,35264
8530,35328
8531,35328
8532,35264
8533,35264
8534,35200
8535,35200
8536,35136
8537,34944
8538,34624
8539,34432
8540,34368
8541,34176
8542,33920
8543,33728
8544,33472
8545,33216
8546,32960
8547,32896
8548,32832
8549,32640
8550,32448
8551,32320
8552,32320
8553,32320
8554,32384
8555,32320
8556,32320
8557,32320
8558,32448
8559,32576
8560,32576
8561,32640
8562,32640
8563,32704
8564,32768
8565,32768
8566,32832
8567,32896
8568,32896
8569,33024
8570,33152
8571,33152
8572,33152
8573,33152
8574,33152
8575,33216
8576,33280
8577,33408
8578,33536
8579,33536
8580,33536
8581,33664
8582,33728
8583,33664
8584,33472
8585,33344
8586,33408
8587,33536
8588,33600
8589,33600
8590,33664
8591,33600
8592,33536
8593,33408
8594,33344
8595,33408
8596,33536
8597,33664
8598,33792
8599,33920
8600,33856
8601,33728
8602,33664
8603,33600
8604,33600
8605,33664
8606,33728
8607,33856
8608,33984
8609,33984
8610,33984
8611,33920
8612,33856
8613,33856
8614,33984
8615,34112
8616,34176
8617,34304
8618,34368
8619,34368
8620,34304
8621,34240
8622,34176
8623,34176
8624,34176
8625,34240
8626,34304
8627,34368
8628,34368
8629,34304
8630,34240
8631,34304
8632,34368
8633,34304
8634,34176
8635,34048
8636,33856
8637,33792
8638,33856
8639,33920
8640,33856
8641,33728
8642,33728
8643,33792
8644,33856
8645,33920
8646,34048
8647,34112
8648,34176
8649,34048
8650,33856
8651,33728
8652,33792
8653,34304
8654,35200
8655,36480
8656,38272
8657,40576
8658,42688
8659,43648
8660,42688
8661,40512
8662,37632
8663,34688
8664,32128
8665,30208
8666,29120
8667,28736
8668,28992
8669,29696
8670,30720
8671,31936
8672,32576
8673,33216
8674,33728
8675,34112
8676,34240
8677,34368
8678,34432
8679,34496
8680,34432
8681,34432
8682,34368
8683,34304
8684,34240
8685,34240
8686,34304
8687,34368
8688,34432
8689,34496
8690,34496
8691,34496
8692,34432
8693,34432
8694,34560
8695,34752
8696,34816
8697,34752
8698,34688
8699,34752
8700,34816
8701,34944
8702,35008
8703,35136
8704,35200
8705,35264
8706,35392
8707,35584
8708,35712
8709,35776
8710,35584
8711,35328
8712,35136
8713,35072
8714,35008
8715,34880
8716,34880
8717,34880
8718,34816
8719,34624
8720,34496
8721,34304
8722,34048
8723,33792
8724,33600
8725,33408
8726,33216
8727,33024
8728,32768
8729,32640
8730,32512
8731,32384
8732,32448
8733,32512
8734,32512
8735,32512
8736,32448
8737,32448
8738,32448
8739,32512
8740,32576
8741,32640
8742,32704
8743,32768
8744,32832
8745,32896
8746,32960
8747,32960
8748,33024
8749,33152
8750,33344
8751,33408
8752,33472
8753,33536
8754,33600
8755,33664
8756,33664
8757,33728
8758,33664
8759,33600
8760,33664
8761,33792
8762,33856
8763,33792
8764,33664
8765,33536
8766,33536
8767,33600
8768,33664
8769,33728
8770,33728
8771,33792
8772,33792
8773,33792
8774,33856
8775,33920
8776,33920
8777,33856
8778,33792
8779,33792
8780,33664
8781,33600
8782,33664
8783,33792
8784,33920
8785,33984
8786,33920
8787,33920
8788,33920
8789,33856
8790,33856
8791,33856
8792,33920
8793,33856
8794,33856
8795,33920
8796,33984
8797,34048
8798,33984
8799,33920
8800,33920
8801,33920
8802,33920
8803,33920
8804,33984
8805,34048
8806,34048
8807,34176
8808,34240
8809,34240
8810,34240
8811,34240
8812,34304
8813,34368
8814,34496
8815,34496
8816,34432
8817,34368
8818,34368
8819,34304
8820,34240
8821,34176
8822,34112
8823,33984
8824,33920
8825,33728
8826,33600
8827,33472
8828,33536
8829,33600
8830,33600
8831,33664
8832,33728
8833,33856
8834,33856
8835,33856
8836,33920
8837,33984
8838,34048
8839,33984
8840,33920
8841,33792
8842,33856
8843,34304
8844,35136
8845,36480
8846,38208
8847,40384
8848,42432
8849,43520
8850,42944
8851,39872
8852,37504
8853,34304
8854,31552
8855,29504
8856,28480
8857,28160
8858,28608
8859,29696
8860,30912
8861,31872
8862,32640
8863,33280
8864,33664
8865,33920
8866,34112
8867,34240
8868,34304
8869,34368
8870,34304
8871,34176
8872,34048
8873,33984
8874,34048
8875,34112
8876,34240
8877,34368
8878,34496
8879,34624
8880,34624
8881,34560
8882,34560
8883,34624
8884,34624
8885,34560
8886,34560
8887,34560
8888,34688
8889,34816
8890,35008
8891,35136
8892,35200
8893,35200
8894,35200
8895,35200
8896,35264
8897,35328
8898,35392
8899,35456
8900,35520
8901,35456
8902,35392
8903,35264
8904,35200
8905,35008
8906,34944
8907,34816
8908,34688
8909,34560
8910,34368
8911,34176
8912,33984
8913,33728
8914,33472
8915,33216
8916,32960
8917,32768
8918,32640
8919,32576
8920,32576
8921,32640
8922,32512
8923,32448
8924,32384
8925,32384
8926,32448
8927,32384
8928,32384
8929,32384
8930,32384
8931,32384
8932,32448
8933,32576
8934,32768
8935,32832
8936,32768
8937,32768
8938,32896
8939,32896
8940,32960
8941,33088
8942,33216
8943,33344
8944,33536
8945,33664
8946,33728
8947,33728
8948,33728
8949,33792
8950,33728
8951,33664
8952,33536
8953,33472
8954,33472
8955,33472
8956,33472
8957,33472
8958,33536
8959,33600
8960,33664
8961,33728
8962,33728
8963,33728
8964,33728
8965,33792
8966,33792
8967,33792
8968,33792
8969,33792
8970,33728
8971,33728
8972,33728
8973,33792
8974,33856
8975,33728
8976,33728
8977,33728
8978,33728
8979,33728
8980,33664
8981,33600
8982,33600
8983,33600
8984,33728
8985,33792
8986,33856
8987,33856
8988,33856
8989,33792
8990,33792
8991,33792
8992,33856
8993,33856
8994,33856
8995,33856
8996,33920
8997,33920
8998,33856
8999,33920
9000,33920
9001,33920
9002,33920
9003,33920
9004,33792
9005,33664
9006,33600
9007,33600
9008,33728
9009,33856
9010,33920
9011,34048
9012,34048
9013,34048
9014,33984
9015,34048
9016,34048
9017,33984
9018,33984
9019,33920
9020,33856
9021,33792
9022,33792
9023,33792
9024,33856
9025,33920
9026,33984
9027,33984
9028,33984
9029,33984
9030,33920
9031,33920
9032,33920
9033,33984
9034,33920
9035,33920
9036,33920
9037,34048
9038,34240
9039,34368
9040,34368
9041,34368
9042,34176
9043,34112
9044,34048
9045,34048
9046,34112
9047,34176
9048,34304
9049,34496
9050,34560
9051,34624
9052,34496
9053,34304
9054,34176
9055,34112
9056,34048
9057,33984
9058,33984
9059,33920
9060,33856
9061,33856
9062,33856
9063,33920
9064,33920
9065,33920
9066,33920
9067,33984
9068,34048
9069,34048
9070,34112
9071,34048
9072,33920
9073,33792
9074,33856
9075,34112
9076,34752
9077,35584
9078,36800
9079,38528
9080,40832
9081,43392
9082,44288
9083,43392
9084,40768
9085,37376
9086,33920
9087,30976
9088,28992
9089,28096
9090,28160
9091,29376
9092,30208
9093,31360
9094,32384
9095,33152
9096,33792
9097,33984
9098,34112
9099,34176
9100,34240
9101,34304
9102,34304
9103,34304
9104,34304
9105,34304
9106,34240
9107,34176
9108,34240
9109,34304
9110,34368
9111,34368
9112,34304
9113,34304
9114,34432
9115,34560
9116,34624
9117,34624
9118,34560
9119,34560
9120,34624
9121,34624
9122,34752
9123,34880
9124,34944
9125,34944
9126,35008
9127,35136
9128,35200
9129,35328
9130,35392
9131,35392
9132,35456
9133,35456
9134,35392
9135,35328
9136,35264
9137,35200
9138,35136
9139,35008
9140,34944
9141,34880
9142,34816
9143,34688
9144,34560
9145,34240
9146,33856
9147,33536
9148,33280
9149,33152
9150,32960
9151,32832
9152,32768
9153,32768
9154,32704
9155,32576
9156,32512
9157,32576
9158,32576
9159,32448
9160,32256
9161,32256
9162,32256
9163,32320
9164,32384
9165,32448
9166,32640
9167,32704
9168,32768
9169,32832
9170,32832
9171,32832
9172,32832
9173,32896
9174,32960
9175,33152
9176,33280
9177,33472
9178,33600
9179,33536
9180,33536
9181,33472
9182,33408
9183,33408
9184,33472
9185,33472
9186,33472
9187,33536
9188,33664
9189,33728
9190,33728
9191,33728
9192,33600
9193,33408
9194,33344
9195,33408
9196,33536
9197,33600
9198,33664
9199,33792
9200,33920
9201,33920
9202,33920
9203,33792
9204,33664
9205,33536
9206,33472
9207,33472
9208,33536
9209,33536
9210,33600
9211,33856
9212,33920
9213,34048
9214,34048
9215,33920
9216,33856
9217,33856
9218,33728
9219,33600
9220,33536
9221,33472
9222,33536
9223,33664
9224,33792
9225,33920
9226,33920
9227,33856
9228,33728
9229,33664
9230,33664
9231,33728
9232,33792
9233,33920
9234,33920
9235,33920
9236,33920
9237,33920
9238,33984
9239,34048
9240,33984
9241,33792
9242,33600
9243,33472
9244,33536
9245,33728
9246,33920
9247,33920
9248,33920
9249,33984
9250,34048
9251,34048
9252,33984
9253,33984
9254,34048
9255,34048
9256,33984
9257,33920
9258,33856
9259,33728
9260,33728
9261,33792
9262,33856
9263,33792
9264,33728
9265,33728
9266,33792
9267,33856
9268,33856
9269,33920
9270,33984
9271,34048
9272,33984
9273,34048
9274,34112
9275,34176
9276,34112
9277,34048
9278,34112
9279,34112
9280,34048
9281,33984
9282,33920
9283,33792
9284,33728
9285,33728
9286,33792
9287,33792
9288,33792
9289,33856
9290,33984
9291,34112
9292,34240
9293,34304
9294,34240
9295,34112
9296,34048
9297,33920
9298,33920
9299,33984
9300,34048
9301,34176
9302,34240
9303,34368
9304,34368
9305,34304
9306,34176
9307,34112
9308,34048
9309,33920
9310,33792
9311,33792
9312,33792
9313,33792
9314,33728
9315,33728
9316,33856
9317,33856
9318,33920
9319,33920
9320,33920
9321,33920
9322,33856
9323,33920
9324,34048
9325,34112
9326,34304
9327,34816
9328,35712
9329,37120
9330,39168
9331,41728
9332,43328
9333,43776
9334,42304
9335,39616
9336,36416
9337,33408
9338,30848
9339,29184
9340,28416
9341,28480
9342,29248
9343,30272
9344,31424
9345,32384
9346,33280
9347,33408
9348,33600
9349,33728
9350,33856
9351,33984
9352,34112
9353,34240
9354,34304
9355,34176
9356,34112
9357,34112
9358,34112
9359,34176
9360,34240
9361,34240
9362,34176
9363,34176
9364,34176
9365,34240
9366,34240
9367,34304
9368,34432
9369,34496
9370,34624
9371,34752
9372,34752
9373,34816
9374,34880
9375,34944
9376,34880
9377,34944
9378,35008
9379,35008
9380,35008
9381,35008
9382,35136
9383,35264
9384,35392
9385,35520
9386,35456
9387,35328
9388,35136
9389,35008
9390,34880
9391,34688
9392,34496
9393,34432
9394,34432
9395,34432
9396,34304
9397,34048
9398,33856
9399,33664
9400,33408
9401,33088
9402,32832
9403,32640
9404,32512
9405,32448
9406,32512
9407,32640
9408,32640
9409,32576
9410,32512
9411,32512
9412,32512
9413,32512
9414,32512
9415,32640
9416,32768
9417,32832
9418,32768
9419,32704
9420,32768
9421,32896
9422,33024
9423,32960
9424,32960
9425,33024
9426,33152
9427,33280
9428,33472
9429,33536
9430,33536
9431,33600
9432,33728
9433,33792
9434,33728
9435,33536
9436,33472
9437,33472
9438,33600
9439,33792
9440,33920
9441,33856
9442,33728
9443,33600
9444,33600
9445,33600
9446,33536
9447,33600
9448,33600
9449,33536
9450,33536
9451,33536
9452,33600
9453,33664
9454,33728
9455,33728
9456,33664
9457,33664
9458,33664
9459,33728
9460,33792
9461,33920
9462,33856
9463,33600
9464,33472
9465,33472
9466,33600
9467,33728
9468,33856
9469,33792
9470,33600
9471,33536
9472,33536
9473,33600
9474,33856
9475,33984
9476,33984
9477,33856
9478,33792
9479,33728
9480,33792
9481,33792
9482,33856
9483,33920
9484,33984
9485,33984
9486,33984
9487,34048
9488,34112
9489,34112
9490,34112
9491,33920
9492,33664
9493,33536
9494,33536
9495,33664
9496,33792
9497,33856
9498,33856
9499,33856
9500,33856
9501,33920
9502,33984
9503,33984
9504,33920
9505,33984
9506,34048
9507,34240
9508,34240
9509,34112
9510,33984
9511,34048
9512,34112
9513,34112
9514,34176
9515,34176
9516,34240
9517,34304
9518,34368
9519,34368
9520,34368
9521,34240
9522,34176
9523,34176
9524,34112
9525,34048
9526,34048
9527,34048
9528,34048
9529,33984
9530,33792
9531,33728
9532,33856
9533,33920
9534,33856
9535,33792
9536,33856
9537,33984
9538,34112
9539,34112
9540,34048
9541,34112
9542,34048
9543,33984
9544,34112
9545,34688
9546,35584
9547,36992
9548,38912
9549,41280
9550,43200
9551,43584
9552,42176
9553,39680
9554,36800
9555,33984
9556,31552
9557,29760
9558,28800
9559,28608
9560,29184
9561,30144
9562,31104
9563,32000
9564,32768
9565,33280
9566,33664
9567,33920
9568,34176
9569,34304
9570,34432
9571,34432
9572,34368
9573,34304
9574,34240
9575,34176
9576,34176
9577,34176
9578,34176
9579,34240
9580,34240
9581,34240
9582,34240
9583,34240
9584,34368
9585,34496
9586,34560
9587,34560
9588,34560
9589,34624
9590,34688
9591,34816
9592,34944
9593,35136
9594,35264
9595,35264
9596,35136
9597,35136
9598,35264
9599,35392
9600,35392
9601,35392
9602,35392
9603,35392
9604,35392
9605,35328
9606,35200
9607,35008
9608,34880
9609,34880
9610,34880
9611,34688
9612,34496
9613,34240
9614,34048
9615,33856
9616,33728
9617,33536
9618,33344
9619,33088
9620,32896
9621,32704
9622,32640
9623,32704
9624,32704
9625,32640
9626,32512
9627,32448
9628,32512
9629,32576
9630,32640
9631,32640
9632,32640
9633,32576
9634,32704
9635,32768
9636,32896
9637,32960
9638,32896
9639,32896
9640,32896
9641,32896
9642,32960
9643,32960
9644,33024
9645,33216
9646,33280
9647,33408
9648,33472
9649,33536
9650,33664
9651,33664
9652,33664
9653,33728
9654,33728
9655,33728
9656,33728
9657,33856
9658,33856
9659,33792
9660,33600
9661,33472
9662,33408
9663,33408
9664,33472
9665,33664
9666,33792
9667,33856
9668,33792
9669,33728
9670,33600
9671,33600
9672,33600
9673,33664
9674,33728
9675,33728
9676,33792
9677,33920
9678,34048
9679,34112
9680,33920
9681,33728
9682,33536
9683,33472
9684,33472
9685,33472
9686,33472
9687,33600
9688,33664
9689,33728
9690,33792
9691,33920
9692,33920
9693,33920
9694,33920
9695,33920
9696,33984
9697,34048
9698,34176
9699,34240
9700,34240
9701,34048
9702,33920
9703,33920
9704,33920
9705,33856
9706,33792
9707,33792
9708,33856
9709,33856
9710,33920
9711,34112
9712,34176
9713,34240
9714,34240
9715,34304
9716,34240
9717,34176
9718,34112
9719,34176
9720,34304
9721,34432
9722,34496
9723,34560
9724,34560
9725,34496
9726,34368
9727,34240
9728,34176
9729,34112
9730,34048
9731,33920
9732,33856
9733,33856
9734,33856
9735,33792
9736,33728
9737,33664
9738,33600
9739,33600
9740,33664
9741,33728
9742,33792
9743,33856
9744,33984
9745,34048
9746,33984
9747,34048
9748,34304
9749,34880
9750,35712
9751,36992
9752,38720
9753,41024
9754,43200
9755,44224
9756,43264
9757,40640
9758,37248
9759,33920
9760,31104
9761,29312
9762,28416
9763,28288
9764,28928
9765,30016
9766,31232
9767,32448
9768,33216
9769,33856
9770,34240
9771,34368
9772,34304
9773,34176
9774,34112
9775,34112
9776,34112
9777,34176
9778,34368
9779,34368
9780,34432
9781,34496
9782,34432
9783,34624
9784,34560
9785,34496
9786,34432
9787,34560
9788,34624
9789,34560
9790,34624
9791,34624
9792,34560
9793,34624
9794,34688
9795,34816
9796,35008
9797,35008
9798,35264
9799,35264
9800,35328
9801,35392
9802,35520
9803,35520
9804,35520
9805,35520
9806,35584
9807,35584
9808,35520
9809,35264
9810,35072
9811,35008
9812,34944
9813,34816
9814,34816
9815,34688
9816,34624
9817,34048
9818,33600
9819,33280
9820,33088
9821,32896
9822,32768
9823,32640
9824,32576
9825,32448
9826,32384
9827,32320
9828,32320
9829,32384
9830,32384
9831,32384
9832,32384
9833,32320
9834,32320
9835,32256
9836,32320
9837,32384
9838,32448
9839,32576
9840,32640
9841,32768
9842,32832
9843,32960
9844,33024
9845,33088
9846,33088
9847,33152
9848,33280
9849,33344
9850,33344
9851,33408
9852,33600
9853,33664
9854,33600
9855,33536
9856,33536
9857,33536
9858,33536
9859,33536
9860,33664
9861,33856
9862,34048
9863,33984
9864,33792
9865,33664
9866,33600
9867,33600
9868,33600
9869,33728
9870,33792
9871,33856
9872,33856
9873,33920
9874,33920
9875,33920
9876,33856
9877,33792
9878,33728
9879,33664
9880,33664
9881,33728
9882,33856
9883,33920
9884,33920
9885,33856
9886,33728
9887,33664
9888,33728
9889,33792
9890,33792
9891,33856
9892,33984
9893,34048
9894,34048
9895,34048
9896,34112
9897,34048
9898,34048
9899,33984
9900,33920
9901,33984
9902,33984
9903,33856
9904,33792
9905,33792
9906,33728
9907,33728
9908,33792
9909,33792
9910,33920
9911,33984
9912,33984
9913,33856
9914,33856
9915,33920
9916,33984
9917,34112
9918,34176
9919,34240
9920,34240
9921,34304
9922,34304
9923,34240
9924,34112
9925,34112
9926,34240
9927,34432
9928,34496
9929,34496
9930,34432
9931,34304
9932,34112
9933,34048
9934,34112
9935,34176
9936,34240
9937,34112
9938,33856
9939,33664
9940,33472
9941,33408
9942,33344
9943,33408
9944,33600
9945,33728
9946,33856
9947,33920
9948,33856
9949,33728
9950,33664
9951,33664
9952,33792
9953,33856
9954,34048
9955,34560
9956,35264
9957,36288
9958,37760
9959,39808
9960,42112
9961,43840
9962,43904
9963,41920
9964,38784
9965,35264
9966,32384
9967,30080
9968,28672
9969,28032
9970,28224
9971,29056
9972,30336
9973,31616
9974,32576
9975,33344
9976,33792
9977,34112
9978,34240
9979,34240
9980,34304
9981,34368
9982,34368
9983,34240
9984,34112
9985,34112
9986,34176
9987,34304
9988,34368
9989,34368
9990,34304
9991,34240
9992,34240
9993,34304
9994,34368
9995,34432
9996,34496
9997,34496
9998,34560
9999,34624
10000,34816
10001,34944
10002,34944
10003,34944
10004,35008
10005,35072
10006,35200
10007,35200
10008,35200
10009,35264
10010,35328
10011,35392
10012,35456
10013,35520
10014,35584
10015,35520
10016,35392
10017,35136
10018,35008
10019,35008
10020,34944
10021,34816
10022,34560
10023,34368
10024,34112
10025,33984
10026,33792
10027,33600
10028,33408
10029,33216
10030,33088
10031,32960
10032,32768
10033,32640
10034,32448
10035,32384
10036,32320
10037,32256
10038,32192
10039,32256
10040,32448
10041,32640
10042,32768
10043,32704
10044,32512
10045,32448
10046,32512
10047,32704
10048,32832
10049,32832
10050,32768
10051,32832
10052,32896
10053,33024
10054,33152
10055,33280
10056,33408
10057,33472
10058,33408
10059,33408
10060,33472
10061,33536
10062,33600
10063,33664
10064,33664
10065,33664
10066,33600
10067,33536
10068,33472
10069,33536
10070,33664
10071,33792
10072,33792
10073,33536
10074,33344
10075,33280
10076,33408
10077,33536
10078,33664
10079,33792
10080,33792
10081,33792
10082,33664
10083,33664
10084,33664
10085,33792
10086,33856
10087,33792
10088,33728
10089,33600
10090,33536
10091,33472
10092,33472
10093,33536
10094,33664
10095,33792
10096,33792
10097,33728
10098,33664
10099,33600
10100,33600
10101,33664
10102,33728
10103,33792
10104,33920
10105,34048
10106,34112
10107,34112
10108,34048
10109,33984
10110,33984
10111,33984
10112,33856
10113,33664
10114,33600
10115,33664
10116,33728
10117,33792
10118,33920
10119,34048
10120,34112
10121,34112
10122,34176
10123,34240
10124,34304
10125,34240
10126,34112
10127,34048
10128,34048
10129,34112
10130,34240
10131,34432
10132,34496
10133,34432
10134,34240
10135,33984
10136,33856
10137,33792
10138,33664
10139,33600
10140,33600
10141,33536
10142,33472
10143,33472
10144,33600
10145,33728
10146,33792
10147,33856
10148,33792
10149,33792
10150,33728
10151,33728
10152,33792
10153,33792
10154,33920
10155,34176
10156,34624
10157,35200
10158,36096
10159,37504
10160,39552
10161,41792
10162,43264
10163,43072
10164,41216
10165,38272
10166,35136
10167,32320
10168,30144
10169,28800
10170,28224
10171,28416
10172,29248
10173,30400
10174,31488
10175,32320
10176,32960
10177,33472
10178,33792
10179,34048
10180,34112
10181,34176
10182,34112
10183,34048
10184,33984
10185,34048
10186,34048
10187,34048
10188,34112
10189,34176
10190,34176
10191,34112
10192,34048
10193,34112
10194,34176
10195,34304
10196,34496
10197,34560
10198,34624
10199,34624
10200,34560
10201,34560
10202,34624
10203,34624
10204,34688
10205,34816
10206,34944
10207,35072
10208,35136
10209,35136
10210,35264
10211,35392
10212,35456
10213,35584
10214,35648
10215,35712
10216,35648
10217,35456
10218,35328
10219,35200
10220,35136
10221,35072
10222,35008
10223,34816
10224,34496
10225,34304
10226,34112
10227,33984
10228,33600
10229,33280
10230,32960
10231,32768
10232,32576
10233,32448
10234,32448
10235,32448
10236,32448
10237,32512
10238,32640
10239,32704
10240,32640
10241,32448
10242,32384
10243,32384
10244,32512
10245,32640
10246,32768
10247,32896
10248,32960
10249,33088
10250,33152
10251,33280
10252,33344
10253,33344
10254,33344
10255,33216
10256,33152
10257,33216
10258,33408
10259,33600
10260,33600
10261,33600
10262,33472
10263,33472
10264,33600
10265,33792
10266,33728
10267,33600
10268,33600
10269,33664
10270,33600
10271,33536
10272,33536
10273,33600
10274,33664
10275,33792
10276,33856
10277,33856
10278,33920
10279,33920
10280,33856
10281,33728
10282,33600
10283,33600
10284,33728
10285,33856
10286,33984
10287,33920
10288,33792
10289,33728
10290,33664
10291,33728
10292,33728
10293,33664
10294,33664
10295,33728
10296,33856
10297,33920
10298,33920
10299,33920
10300,33920
10301,33920
10302,33984
10303,33984
10304,33920
10305,33920
10306,33920
10307,34048
10308,34112
10309,34176
10310,34112
10311,34176
10312,34240
10313,34368
10314,34432
10315,34368
10316,34176
10317,34112
10318,34048
10319,34112
10320,34240
10321,34304
10322,34368
10323,34432
10324,34304
10325,34240
10326,34240
10327,34176
10328,34048
10329,33920
10330,33920
10331,33920
10332,33920
10333,33728
10334,33600
10335,33600
10336,33728
10337,33856
10338,33856
10339,33792
10340,33792
10341,33792
10342,33856
10343,33920
10344,33856
10345,33856
10346,33856
10347,34048
10348,34432
10349,35136
10350,36352
10351,38208
10352,40576
10353,42688
10354,43456
10355,42304
10356,40000
10357,37184
10358,34304
10359,31744
10360,29952
10361,28928
10362,28544
10363,28864
10364,29824
10365,30976
10366,32000
10367,32768
10368,33344
10369,33728
10370,33984
10371,34048
10372,34176
10373,34240
10374,34304
10375,34240
10376,34304
10377,34240
10378,34176
10379,34112
10380,34176
10381,34304
10382,34432
10383,34432
10384,34432
10385,34432
10386,34496
10387,34432
10388,34432
10389,34496
10390,34624
10391,34688
10392,34752
10393,34816
10394,34944
10395,35008
10396,35136
10397,35200
10398,35264
10399,35200
10400,35200
10401,35200
10402,35264
10403,35328
10404,35392
10405,35456
10406,35584
10407,35520
10408,35392
10409,35264
10410,35072
10411,34880
10412,34752
10413,34560
10414,34432
10415,34304
10416,34112
10417,33984
10418,33920
10419,33792
10420,33536
10421,33344
10422,33088
10423,32960
10424,32832
10425,32704
10426,32704
10427,32576
10428,32448
10429,32384
10430,32448
10431,32512
10432,32576
10433,32576
10434,32576
10435,32704
10436,32960
10437,33024
10438,33024
10439,33088
10440,33088
10441,33088
10442,33152
10443,33152
10444,33088
10445,33088
10446,33088
10447,33152
10448,33280
10449,33408
10450,33600
10451,33792
10452,33920
10453,33856
10454,33664
10455,33600
10456,33664
10457,33664
10458,33728
10459,33728
10460,33728
10461,33728
10462,33856
10463,33984
10464,34048
10465,33984
10466,33920
10467,33856
10468,33728
10469,33600
10470,33600
10471,33664
10472,33728
10473,33792
10474,33856
10475,33856
10476,33920
10477,33984
10478,33920
10479,33920
10480,33920
10481,33920
10482,33856
10483,33920
10484,34048
10485,34112
10486,34176
10487,34112
10488,34048
10489,34048
10490,34112
10491,34112
10492,34048
10493,33920
10494,33792
10495,33856
10496,33984
10497,34048
10498,34176
10499,34240
10500,34240
10501,34240
10502,34240
10503,34240
10504,34368
10505,34496
10506,34496
10507,34496
10508,34432
10509,34368
10510,34304
10511,34304
10512,34304
10513,34304
10514,34240
10515,34176
10516,33984
10517,33856
10518,33856
10519,33792
10520,33728
10521,33664
10522,33664
10523,33728
10524,33728
10525,33728
10526,33728
10527,33792
10528,33856
10529,33984
10530,33984
10531,33920
10532,33984
10533,34368
10534,34944
10535,35968
10536,37312
10537,39296
10538,41536
10539,43072
10540,43072
10541,41472
10542,38848
10543,36032
10544,33408
10545,31296
10546,29760
10547,28864
10548,28672
10549,29184
10550,30272
10551,31296
10552,32192
10553,32832
10554,33344
10555,33728
10556,34048
10557,34304
10558,34432
10559,34432
10560,34368
10561,34304
10562,34304
10563,34240
10564,34240
10565,34304
10566,34304
10567,34368
10568,34368
10569,34432
10570,34496
10571,34560
10572,34624
10573,34688
10574,34688
10575,34688
10576,34688
10577,34688
10578,34752
10579,34816
10580,34880
10581,34944
10582,35072
10583,35136
10584,35264
10585,35328
10586,35328
10587,35392
10588,35456
10589,35520
10590,35520
10591,35520
10592,35520
10593,35456
10594,35456
10595,35456
10596,35264
10597,35136
10598,35008
10599,34880
10600,34624
10601,34368
10602,34176
10603,33984
10604,33856
10605,33728
10606,33536
10607,33408
10608,33152
10609,32960
10610,32832
10611,32704
10612,32576
10613,32448
10614,32384
10615,32448
10616,32576
10617,32704
10618,32768
10619,32768
10620,32704
10621,32768
10622,32896
10623,33024
10624,33088
10625,33152
10626,33152
10627,33216
10628,33152
10629,33088
10630,33152
10631,33344
10632,33600
10633,33664
10634,33664
10635,33664
10636,33600
10637,33536
10638,33536
10639,33600
10640,33664
10641,33728
10642,33856
10643,33920
10644,33920
10645,33856
10646,33920
10647,33920
10648,33984
10649,33920
10650,33856
10651,33856
10652,33856
10653,33920
10654,33984
10655,33856
10656,33792
10657,33792
10658,33728
10659,33792
10660,33856
10661,33856
10662,33856
10663,33856
10664,33920
10665,33920
10666,33984
10667,34048
10668,34048
10669,34112
10670,34112
10671,33984
10672,33856
10673,33856
10674,33856
10675,33920
10676,33856
10677,33920
10678,33984
10679,34112
10680,34240
10681,34240
10682,34240
10683,34240
10684,34304
10685,34368
10686,34304
10687,34240
10688,34176
10689,34304
10690,34368
10691,34368
10692,34432
10693,34496
10694,34496
10695,34368
10696,34368
10697,34432
10698,34496
10699,34368
10700,34048
10701,33792
10702,33600
10703,33600
10704,33664
10705,33728
10706,33792
10707,33856
10708,33920
10709,33984
10710,33920
10711,33920
10712,33984
10713,33984
10714,33920
10715,33856
10716,33856
10717,33984
10718,34432
10719,35264
10720,36352
10721,37952
10722,40000
10723,42368
10724,44032
10725,44032
10726,41728
10727,38848
10728,35648
10729,32448
10730,30016
10731,28544
10732,28160
10733,28416
10734,29312
10735,30528
10736,31680
10737,32640
10738,33344
10739,33728
10740,34048
10741,34240
10742,34368
10743,34496
10744,34560
10745,34560
10746,34560
10747,34560
10748,34496
10749,34432
10750,34304
10751,34240
10752,34240
10753,34368
10754,34496
10755,34560
10756,34688
10757,34752
10758,34688
10759,34624
10760,34688
10761,34816
10762,34816
10763,34880
10764,35008
10765,35136
10766,35136
10767,35136
10768,35264
10769,35328
10770,35456
10771,35520
10772,35456
10773,35456
10774,35520
10775,35584
10776,35648
10777,35648
10778,35584
10779,35456
10780,35328
10781,35200
10782,35136
10783,35008
10784,34816
10785,34688
10786,34432
10787,34176
10788,33920
10789,33792
10790,33600
10791,33280
10792,33088
10793,32960
10794,32896
10795,32704
10796,32576
10797,32448
10798,32448
10799,32512
10800,32448
10801,32512
10802,32512
10803,32512
10804,32448
10805,32448
10806,32512
10807,32640
10808,32832
10809,32960
10810,32960
10811,32960
10812,32960
10813,33024
10814,33152
10815,33216
10816,33344
10817,33408
10818,33408
10819,33344
10820,33280
10821,33280
10822,33280
10823,33408
10824,33600
10825,33792
10826,33920
10827,33920
10828,33920
10829,33856
10830,33792
10831,33792
10832,33728
10833,33728
10834,33792
10835,33856
10836,33728
10837,33664
10838,33664
10839,33664
10840,33728
10841,33920
10842,33984
10843,33984
10844,33920
10845,33792
10846,33792
10847,33792
10848,33856
10849,33920
10850,33856
10851,33856
10852,33920
10853,34048
10854,33984
10855,33920
10856,33792
10857,33664
10858,33664
10859,33728
10860,33920
10861,33984
10862,33984
10863,33984
10864,33984
10865,33984
10866,33984
10867,34048
10868,34112
10869,34176
10870,34176
10871,34112
10872,34112
10873,34240
10874,34240
10875,34304
10876,34304
10877,34304
10878,34304
10879,34240
10880,34176
10881,34240
10882,34368
10883,34624
10884,34880
10885,35008
10886,34880
10887,34496
10888,34176
10889,33984
10890,33920
10891,33984
10892,33984
10893,33920
10894,33792
10895,33664
10896,33664
10897,33664
10898,33664
10899,33600
10900,33664
10901,33728
10902,33792
10903,33856
10904,33856
10905,33984
10906,34112
10907,34240
10908,34304
10909,34304
10910,34496
10911,34944
10912,35584
10913,36800
10914,38592
10915,40896
10916,43008
10917,43904
10918,42944
10919,40320
10920,37056
10921,32704
10922,30656
10923,28928
10924,28096
