,ECG
0,33984
1,33920
2,33920
3,33920
4,33984
5,33920
6,33920
7,33984
8,33984
9,33984
10,33984
11,33984
12,33984
13,33984
14,33984
15,33920
16,33920
17,33920
18,33856
19,33856
20,33920
21,33856
22,33856
23,33856
24,33856
25,33856
26,33856
27,33856
28,33920
29,33856
30,33856
31,33856
32,33856
33,33856
34,33856
35,33856
36,33856
37,33856
38,33856
39,33856
40,33792
41,33856
42,33856
43,33856
44,33792
45,33856
46,33856
47,33856
48,33856
49,33856
50,33920
51,33856
52,33856
53,33856
54,33856
55,33920
56,33856
57,33856
58,33856
59,33920
60,33856
61,33856
62,33920
63,33984
64,33920
65,33920
66,33920
67,33920
68,33856
69,33920
70,33984
71,33984
72,33984
73,34048
74,34112
75,34176
76,34112
77,34048
78,34048
79,34048
80,34048
81,33984
82,34112
83,34240
84,34240
85,34176
86,34112
87,34048
88,34048
89,33984
90,33920
91,33856
92,33792
93,33664
94,33600
95,33664
96,33728
97,33792
98,33792
99,33856
100,33920
101,33920
102,33920
103,33920
104,33984
105,33984
106,33920
107,33920
108,33856
109,33856
110,34112
111,34560
112,35392
113,36672
114,38336
115,39296
116,39616
117,38528
118,36416
119,33920
120,31936
121,30720
122,30272
123,30528
124,31168
125,31936
126,32640
127,33216
128,33728
129,34112
130,34304
131,34368
132,34432
133,34432
134,34432
135,34368
136,34368
137,34304
138,34240
139,34112
140,34112
141,34176
142,34176
143,34112
144,34112
145,34112
146,34112
147,34112
148,34112
149,34176
150,34240
151,34240
152,34304
153,34304
154,34368
155,34432
156,34432
157,34496
158,34496
159,34560
160,34560
161,34624
162,34688
163,34752
164,34752
165,34752
166,34752
167,34752
168,34688
169,34688
170,34624
171,34624
172,34496
173,34432
174,34368
175,34368
176,34304
177,34304
178,34240
179,34176
180,34112
181,34048
182,33984
183,33984
184,33984
185,33856
186,33856
187,33856
188,33792
189,33728
190,33664
191,33664
192,33664
193,33664
194,33664
195,33664
196,33728
197,33792
198,33792
199,33856
200,33984
201,34048
202,33984
203,33984
204,33984
205,33984
206,33920
207,33920
208,33920
209,33920
210,33920
211,33920
212,33984
213,33984
214,34048
215,34112
216,34176
217,34112
218,34048
219,34048
220,34048
221,34048
222,33984
223,33920
224,33920
225,33984
226,33984
227,33984
228,33984
229,33984
230,33920
231,33856
232,33856
233,33920
234,33920
235,33856
236,33856
237,33856
238,33856
239,33856
240,33920
241,33920
242,33984
243,33984
244,34048
245,34112
246,34176
247,34240
248,34176
249,34112
250,34112
251,33984
252,33920
253,33920
254,33856
255,33856
256,33792
257,33856
258,33920
259,33984
260,33984
261,34112
262,34176
263,34176
264,34112
265,34048
266,34048
267,34048
268,33984
269,33920
270,33920
271,33920
272,33984
273,33984
274,33984
275,34048
276,34048
277,34048
278,34112
279,34112
280,34048
281,34048
282,34048
283,34112
284,34112
285,34048
286,33984
287,33984
288,34048
289,33984
290,34048
291,34176
292,34240
293,34176
294,34048
295,33984
296,33920
297,33856
298,33792
299,33728
300,33728
301,33728
302,33664
303,33664
304,33728
305,33792
306,33856
307,33920
308,33984
309,33984
310,33920
311,33920
312,33920
313,33920
314,33856
315,33792
316,33792
317,33920
318,34176
319,34752
320,35712
321,37120
322,38528
323,39488
324,39168
325,38016
326,35776
327,33280
328,31424
329,30400
330,30144
331,30464
332,31168
333,32000
334,32768
335,33344
336,33792
337,34176
338,34368
339,34432
340,34496
341,34496
342,34496
343,34368
344,34304
345,34240
346,34176
347,34112
348,34112
349,34112
350,34112
351,34112
352,34048
353,34048
354,34112
355,34048
356,34112
357,34112
358,34176
359,34176
360,34176
361,34240
362,34304
363,34368
364,34432
365,34432
366,34560
367,34624
368,34624
369,34624
370,34624
371,34688
372,34752
373,34752
374,34752
375,34752
376,34688
377,34624
378,34624
379,34560
380,34560
381,34496
382,34432
383,34432
384,34368
385,34304
386,34304
387,34240
388,34176
389,34048
390,33920
391,33920
392,33856
393,33856
394,33792
395,33728
396,33728
397,33664
398,33664
399,33664
400,33664
401,33664
402,33728
403,33728
404,33792
405,33856
406,33856
407,33856
408,33920
409,33920
410,33920
411,33920
412,33984
413,33984
414,33920
415,33920
416,33984
417,33984
418,33920
419,33920
420,33920
421,33920
422,33920
423,33920
424,33920
425,33984
426,33920
427,33920
428,33920
429,33984
430,33984
431,33984
432,33920
433,33920
434,33920
435,33856
436,33856
437,33856
438,33856
439,33792
440,33792
441,33856
442,33856
443,33856
444,33920
445,33920
446,33920
447,33856
448,33856
449,33920
450,33920
451,33920
452,33920
453,33984
454,33984
455,33920
456,33856
457,33792
458,33856
459,33856
460,33792
461,33856
462,33856
463,33920
464,33920
465,33920
466,33984
467,34048
468,33984
469,33920
470,33920
471,33984
472,33920
473,33856
474,33920
475,33984
476,34048
477,33984
478,33984
479,33920
480,33856
481,33792
482,33792
483,33920
484,33984
485,34048
486,34112
487,34176
488,34176
489,34112
490,34112
491,34112
492,34112
493,34112
494,34240
495,34304
496,34240
497,34112
498,33984
499,33920
500,33856
501,33792
502,33728
503,33728
504,33728
505,33728
506,33664
507,33728
508,33792
509,33856
510,33920
511,33984
512,33984
513,34048
514,33984
515,33920
516,33984
517,33984
518,33920
519,33856
520,33856
521,34112
522,34624
523,35392
524,36672
525,38144
526,39232
527,39360
528,38144
529,35968
530,33600
531,31744
532,30720
533,30400
534,30976
535,31296
536,32064
537,32832
538,33408
539,33856
540,34112
541,34304
542,34432
543,34496
544,34496
545,34496
546,34432
547,34368
548,34304
549,34240
550,34240
551,34176
552,34176
553,34112
554,34112
555,34112
556,34048
557,34048
558,34112
559,34176
560,34176
561,34176
562,34304
563,34304
564,34368
565,34368
566,34368
567,34432
568,34432
569,34432
570,34560
571,34560
572,34624
573,34688
574,34752
575,34816
576,34816
577,34816
578,34816
579,34816
580,34752
581,34688
582,34560
583,34496
584,34496
585,34432
586,34368
587,34368
588,34304
589,34176
590,34112
591,34112
592,34112
593,34048
594,33984
595,33920
596,33920
597,33856
598,33856
599,33856
600,33856
601,33792
602,33728
603,33728
604,33728
605,33728
606,33728
607,33792
608,33856
609,33920
610,33856
611,33856
612,33920
613,33984
614,33984
615,33984
616,33984
617,33984
618,33984
619,33984
620,33984
621,33984
622,33984
623,33984
624,33984
625,33984
626,33984
627,33984
628,33984
629,34048
630,34048
631,33984
632,33984
633,34048
634,33984
635,33920
636,33920
637,33920
638,33920
639,33920
640,33920
641,33984
642,33984
643,33984
644,33920
645,33920
646,33920
647,33856
648,33856
649,33856
650,33920
651,33856
652,33856
653,33856
654,33856
655,33856
656,33792
657,33792
658,33856
659,33920
660,33920
661,33920
662,33920
663,33984
664,33920
665,33920
666,33920
667,33920
668,33920
669,33920
670,33920
671,33920
672,33920
673,33856
674,33920
675,33920
676,33984
677,33984
678,33984
679,34048
680,34048
681,34048
682,34048
683,34112
684,34112
685,34176
686,34176
687,34176
688,34112
689,33984
690,33984
691,33984
692,34112
693,34176
694,34176
695,34112
696,34112
697,34048
698,33984
699,33984
700,33984
701,33856
702,33728
703,33728
704,33728
705,33792
706,33792
707,33856
708,33920
709,33920
710,33920
711,33920
712,33984
713,34048
714,33984
715,33984
716,33920
717,33920
718,33856
719,33856
720,34112
721,34624
722,35456
723,36736
724,38400
725,39296
726,39360
727,38080
728,35968
729,33600
730,31744
731,30720
732,30400
733,30656
734,31360
735,32064
736,32832
737,33408
738,33856
739,34112
740,34304
741,34432
742,34560
743,34496
744,34432
745,34368
746,34304
747,34176
748,34112
749,34112
750,34112
751,34048
752,34048
753,34048
754,34176
755,34176
756,34176
757,34176
758,34240
759,34240
760,34240
761,34240
762,34304
763,34304
764,34304
765,34368
766,34432
767,34496
768,34496
769,34560
770,34624
771,34688
772,34688
773,34688
774,34752
775,34752
776,34752
777,34688
778,34688
779,34688
780,34688
781,34688
782,34624
783,34560
784,34560
785,34496
786,34368
787,34304
788,34240
789,34176
790,34112
791,34048
792,33984
793,33920
794,33856
795,33856
796,33856
797,33792
798,33728
799,33664
800,33600
801,33600
802,33600
803,33600
804,33728
805,33728
806,33728
807,33728
808,33792
809,33792
810,33792
811,33856
812,33920
813,33920
814,33920
815,33856
816,33920
817,33920
818,33920
819,33920
820,33920
821,33984
822,33920
823,33920
824,33920
825,33984
826,33920
827,33920
828,33920
829,33920
830,33920
831,33856
832,33856
833,33920
834,33920
835,33920
836,33856
837,33856
838,33792
839,33792
840,33856
841,33856
842,33856
843,33856
844,33792
845,33920
846,33856
847,33792
848,33728
849,33792
850,33792
851,33856
852,33856
853,33920
854,33920
855,33856
856,33856
857,33856
858,33856
859,33856
860,33856
861,33856
862,33856
863,33792
864,33792
865,33792
866,33856
867,33792
868,33792
869,33856
870,33920
871,33920
872,33920
873,33920
874,33920
875,33856
876,33792
877,33856
878,33856
879,33856
880,33856
881,33920
882,33920
883,33920
884,33856
885,33856
886,33856
887,33856
888,33792
889,33920
890,33984
891,33984
892,33984
893,33920
894,33984
895,33920
896,33984
897,33984
898,34048
899,34112
900,34112
901,34048
902,34048
903,34112
904,34112
905,34112
906,34176
907,34176
908,34112
909,34048
910,33984
911,33984
912,33984
913,33920
914,33856
915,33792
916,33728
917,33728
918,33728
919,33792
920,33856
921,33856
922,33920
923,33984
924,34048
925,33984
926,33984
927,33920
928,33920
929,33856
930,33856
931,33856
932,33920
933,34112
934,34496
935,35136
936,36224
937,37696
938,38976
939,39552
940,38912
941,37056
942,34624
943,32384
944,30976
945,30400
946,30400
947,30976
948,31744
949,32576
950,33216
951,33728
952,34112
953,34368
954,34496
955,34496
956,34560
957,34560
958,34496
959,34368
960,34304
961,34304
962,34240
963,34176
964,34176
965,34240
966,34240
967,34176
968,34176
969,34176
970,34176
971,34112
972,34112
973,34176
974,34240
975,34240
976,34304
977,34368
978,34432
979,34496
980,34496
981,34496
982,34560
983,34624
984,34688
985,34688
986,34752
987,34816
988,34816
989,34752
990,34816
991,34752
992,34688
993,34688
994,34688
995,34688
996,34624
997,34496
998,34496
999,34432
1000,34368
1001,34240
1002,34176
1003,34176
1004,34112
1005,34048
1006,33984
1007,33984
1008,33920
1009,33856
1010,33792
1011,33792
1012,33792
1013,33728
1014,33728
1015,33792
1016,33792
1017,33728
1018,33728
1019,33792
1020,33792
1021,33792
1022,33792
1023,33792
1024,33920
1025,33984
1026,33984
1027,34048
1028,34048
1029,33984
1030,33920
1031,33984
1032,34048
1033,34112
1034,33984
1035,33984
1036,33984
1037,33984
1038,33920
1039,33856
1040,33856
1041,33856
1042,33856
1043,33856
1044,33920
1045,33984
1046,33984
1047,34048
1048,34112
1049,34112
1050,34048
1051,33984
1052,33920
1053,33856
1054,33792
1055,33728
1056,33728
1057,33792
1058,33792
1059,33792
1060,33856
1061,33856
1062,33920
1063,33984
1064,33984
1065,33984
1066,33920
1067,33792
1068,33728
1069,33792
1070,33792
1071,33792
1072,33728
1073,33728
1074,33792
1075,33792
1076,33728
1077,33728
1078,33792
1079,33920
1080,33984
1081,34048
1082,33984
1083,33856
1084,33856
1085,33920
1086,33920
1087,33920
1088,33856
1089,33792
1090,33728
1091,33792
1092,33792
1093,33856
1094,33984
1095,34048
1096,34112
1097,34112
1098,34176
1099,34176
1100,34176
1101,34176
1102,34176
1103,34176
1104,34112
1105,34048
1106,34048
1107,34048
1108,33984
1109,33792
1110,33728
1111,33728
1112,33792
1113,33792
1114,33792
1115,33856
1116,33920
1117,33920
1118,33984
1119,34048
1120,34112
1121,34048
1122,33984
1123,34048
1124,34112
1125,34112
1126,34112
1127,34176
1128,34240
1129,34176
1130,34048
1131,34048
1132,34048
1133,34048
1134,33984
1135,33920
1136,33856
1137,33856
1138,33856
1139,33856
1140,33920
1141,33920
1142,33920
1143,33856
1144,33920
1145,33920
1146,33920
1147,33856
1148,33856
1149,33856
1150,33856
1151,33792
1152,33792
1153,33920
1154,34112
1155,34560
1156,35264
1157,36544
1158,38016
1159,39296
1160,39744
1161,38912
1162,36864
1163,34368
1164,32128
1165,30784
1166,30272
1167,30336
1168,30912
1169,31680
1170,32448
1171,33152
1172,33600
1173,33984
1174,34240
1175,34368
1176,34432
1177,34496
1178,34496
1179,34432
1180,34304
1181,34304
1182,34240
1183,34240
1184,34176
1185,34112
1186,34112
1187,34176
1188,34112
1189,34112
1190,34176
1191,34176
1192,34112
1193,34112
1194,34112
1195,34176
1196,34176
1197,34176
1198,34240
1199,34368
1200,34368
1201,34368
1202,34432
1203,34560
1204,34560
1205,34624
1206,34688
1207,34816
1208,34752
1209,34688
1210,34624
1211,34624
1212,34624
1213,34560
1214,34624
1215,34688
1216,34624
1217,34496
1218,34432
1219,34432
1220,34368
1221,34368
1222,34304
1223,34240
1224,34112
1225,33984
1226,33856
1227,33792
1228,33792
1229,33792
1230,33728
1231,33792
1232,33792
1233,33792
1234,33792
1235,33792
1236,33856
1237,33856
1238,33856
1239,33792
1240,33792
1241,33856
1242,33792
1243,33728
1244,33728
1245,33792
1246,33792
1247,33792
1248,33856
1249,33920
1250,33920
1251,33920
1252,33920
1253,33920
1254,33984
1255,33984
1256,34048
1257,34112
1258,34112
1259,34048
1260,34048
1261,34048
1262,34048
1263,34048
1264,33984
1265,33984
1266,33984
1267,33920
1268,33920
1269,33984
1270,33984
1271,33920
1272,33920
1273,33984
1274,33984
1275,33984
1276,33920
1277,33984
1278,33984
1279,34048
1280,34048
1281,34048
1282,33984
1283,33920
1284,33856
1285,33856
1286,33856
1287,33856
1288,33856
1289,33856
1290,33856
1291,33920
1292,33920
1293,33920
1294,33920
1295,33920
1296,33920
1297,33920
1298,33920
1299,33984
1300,33920
1301,33920
1302,33920
1303,34048
1304,34048
1305,34048
1306,34048
1307,34048
1308,34048
1309,33984
1310,33984
1311,33984
1312,33984
1313,33984
1314,33984
1315,33984
1316,34048
1317,33984
1318,34048
1319,33984
1320,33984
1321,33920
1322,33920
1323,33984
1324,33984
1325,33984
1326,33984
1327,33984
1328,34048
1329,34048
1330,34048
1331,34048
1332,34112
1333,34112
1334,34112
1335,34176
1336,34176
1337,34240
1338,34176
1339,34176
1340,34176
1341,34240
1342,34112
1343,34048
1344,34048
1345,34112
1346,34112
1347,34176
1348,34304
1349,34368
1350,34240
1351,34176
1352,34112
1353,34112
1354,33984
1355,33920
1356,33856
1357,33856
1358,33792
1359,33792
1360,33856
1361,33920
1362,33984
1363,33984
1364,33984
1365,34048
1366,34112
1367,34112
1368,34112
1369,34112
1370,34048
1371,33984
1372,33920
1373,33920
1374,34112
1375,34496
1376,35136
1377,36160
1378,37504
1379,38784
1380,39296
1381,38720
1382,36864
1383,34624
1384,32448
1385,31104
1386,30464
1387,30464
1388,30976
1389,31808
1390,32640
1391,33344
1392,33856
1393,34240
1394,34496
1395,34624
1396,34624
1397,34624
1398,34624
1399,34560
1400,34496
1401,34368
1402,34304
1403,34240
1404,34176
1405,34112
1406,34048
1407,34112
1408,34112
1409,34112
1410,34176
1411,34304
1412,34304
1413,34240
1414,34304
1415,34368
1416,34432
1417,34368
1418,34368
1419,34368
1420,34432
1421,34368
1422,34368
1423,34432
1424,34560
1425,34560
1426,34624
1427,34624
1428,34752
1429,34816
1430,34752
1431,34752
1432,34816
1433,34816
1434,34752
1435,34688
1436,34624
1437,34560
1438,34496
1439,34496
1440,34432
1441,34368
1442,34304
1443,34240
1444,34240
1445,34240
1446,34176
1447,34048
1448,34048
1449,33984
1450,33984
1451,33856
1452,33856
1453,33856
1454,33856
1455,33792
1456,33792
1457,33856
1458,33856
1459,33792
1460,33856
1461,33920
1462,33920
1463,33920
1464,33920
1465,33920
1466,33920
1467,33920
1468,33920
1469,33984
1470,34048
1471,34048
1472,34048
1473,34112
1474,34112
1475,34048
1476,34048
1477,34112
1478,34112
1479,34112
1480,34048
1481,34048
1482,34112
1483,34048
1484,34048
1485,34048
1486,34048
1487,33984
1488,33920
1489,33920
1490,33984
1491,34048
1492,34048
1493,33984
1494,33984
1495,33984
1496,33920
1497,33856
1498,33920
1499,33920
1500,33920
1501,33856
1502,33792
1503,33856
1504,33856
1505,33856
1506,33856
1507,33920
1508,33920
1509,33920
1510,33920
1511,33984
1512,33984
1513,33984
1514,33984
1515,33984
1516,33984
1517,33920
1518,33856
1519,33920
1520,33984
1521,33984
1522,33920
1523,33920
1524,33920
1525,33856
1526,33856
1527,33920
1528,33920
1529,33920
1530,33856
1531,33856
1532,33920
1533,33920
1534,33856
1535,33920
1536,33920
1537,33984
1538,33920
1539,33920
1540,33984
1541,33984
1542,33984
1543,33984
1544,34048
1545,33984
1546,33984
1547,33920
1548,33984
1549,33984
1550,33920
1551,33920
1552,33984
1553,34048
1554,34112
1555,34112
1556,34176
1557,34176
1558,34176
1559,34112
1560,34112
1561,34112
1562,34112
1563,34112
1564,34176
1565,34240
1566,34176
1567,34112
1568,34048
1569,34048
1570,34048
1571,33984
1572,33920
1573,33920
1574,33856
1575,33856
1576,33856
1577,33920
1578,33984
1579,33984
1580,33984
1581,34048
1582,34112
1583,34048
1584,34048
1585,33984
1586,33920
1587,33856
1588,33792
1589,33856
1590,34112
1591,34624
1592,35328
1593,36480
1594,38016
1595,39360
1596,39872
1597,39040
1598,37056
1599,34624
1600,32256
1601,30784
1602,30208
1603,30336
1604,30912
1605,31680
1606,32512
1607,33216
1608,33792
1609,34112
1610,34368
1611,34560
1612,34624
1613,34624
1614,34560
1615,34496
1616,34432
1617,34368
1618,34240
1619,34240
1620,34176
1621,34112
1622,34112
1623,34176
1624,34176
1625,34112
1626,34112
1627,34112
1628,34176
1629,34176
1630,34240
1631,34240
1632,34304
1633,34368
1634,34304
1635,34368
1636,34432
1637,34496
1638,34432
1639,34496
1640,34560
1641,34624
1642,34624
1643,34688
1644,34752
1645,34816
1646,34816
1647,34816
1648,34816
1649,34752
1650,34688
1651,34624
1652,34688
1653,34688
1654,34624
1655,34560
1656,34496
1657,34496
1658,34368
1659,34240
1660,34176
1661,34176
1662,34112
1663,33984
1664,33984
1665,33920
1666,33856
1667,33792
1668,33728
1669,33792
1670,33792
1671,33728
1672,33664
1673,33728
1674,33792
1675,33792
1676,33792
1677,33856
1678,33920
1679,33856
1680,33856
1681,33856
1682,33920
1683,33984
1684,33920
1685,33920
1686,33984
1687,33984
1688,33920
1689,33984
1690,33984
1691,33984
1692,33984
1693,33984
1694,34048
1695,34048
1696,34048
1697,33984
1698,34048
1699,34048
1700,33984
1701,33984
1702,33984
1703,33984
1704,33920
1705,33856
1706,33856
1707,33920
1708,33920
1709,33856
1710,33920
1711,33920
1712,33920
1713,33920
1714,33920
1715,33920
1716,33856
1717,33856
1718,33856
1719,33920
1720,33920
1721,33856
1722,33856
1723,33856
1724,33856
1725,33856
1726,33856
1727,33856
1728,33920
1729,33856
1730,33792
1731,33792
1732,33856
1733,33856
1734,33856
1735,33856
1736,33920
1737,33984
1738,33920
1739,33920
1740,33920
1741,33920
1742,33856
1743,33856
1744,33920
1745,33920
1746,33856
1747,33856
1748,33856
1749,33920
1750,33856
1751,33856
1752,33856
1753,33920
1754,33920
1755,33856
1756,33856
1757,33856
1758,33856
1759,33856
1760,33856
1761,33920
1762,33920
1763,33920
1764,33920
1765,33984
1766,33984
1767,33984
1768,33984
1769,33984
1770,33984
1771,33984
1772,34048
1773,34112
1774,34112
1775,34112
1776,34048
1777,34048
1778,34112
1779,34112
1780,34112
1781,34112
1782,34240
1783,34240
1784,34176
1785,34112
1786,34048
1787,34048
1788,33984
1789,33920
1790,33856
1791,33792
1792,33728
1793,33728
1794,33792
1795,33856
1796,33856
1797,33920
1798,33920
1799,33920
1800,33920
1801,33856
1802,33856
1803,33920
1804,33920
1805,33920
1806,33856
1807,33920
1808,34048
1809,34432
1810,35008
1811,36032
1812,37376
1813,38720
1814,39424
1815,38976
1816,37248
1817,34880
1818,32640
1819,31232
1820,30528
1821,30464
1822,30912
1823,31680
1824,32512
1825,33152
1826,33664
1827,34048
1828,34304
1829,34432
1830,34496
1831,34496
1832,34496
1833,34496
1834,34432
1835,34368
1836,34304
1837,34240
1838,34176
1839,34176
1840,34176
1841,34176
1842,34112
1843,34112
1844,34112
1845,34176
1846,34176
1847,34176
1848,34240
1849,34304
1850,34240
1851,34176
1852,34240
1853,34304
1854,34368
1855,34432
1856,34496
1857,34560
1858,34624
1859,34624
1860,34752
1861,34816
1862,34880
1863,34816
1864,34816
1865,34880
1866,34880
1867,34816
1868,34752
1869,34688
1870,34688
1871,34560
1872,34496
1873,34432
1874,34432
1875,34368
1876,34304
1877,34304
1878,34240
1879,34240
1880,34112
1881,34048
1882,34048
1883,33984
1884,33920
1885,33920
1886,33856
1887,33792
1888,33728
1889,33728
1890,33792
1891,33792
1892,33728
1893,33792
1894,33792
1895,33792
1896,33792
1897,33792
1898,33792
1899,33920
1900,33920
1901,33920
1902,33984
1903,33984
1904,33984
1905,33984
1906,33984
1907,33984
1908,33984
1909,33984
1910,33984
1911,34048
1912,34048
1913,34048
1914,34048
1915,34048
1916,33984
1917,33984
1918,33984
1919,33984
1920,33984
1921,33920
1922,33920
1923,33920
1924,33920
1925,33920
1926,33856
1927,33920
1928,33920
1929,33920
1930,33856
1931,33920
1932,33984
1933,33984
1934,33920
1935,33920
1936,33920
1937,33856
1938,33856
1939,33856
1940,33856
1941,33856
1942,33792
1943,33792
1944,33856
1945,33856
1946,33856
1947,33792
1948,33856
1949,33920
1950,33920
1951,33856
1952,33920
1953,33920
1954,33920
1955,33920
1956,33984
1957,33984
1958,33920
1959,33856
1960,33856
1961,33920
1962,33920
1963,33920
1964,33920
1965,33920
1966,33920
1967,33920
1968,33856
1969,33920
1970,33920
1971,33920
1972,33920
1973,33920
1974,33984
1975,33984
1976,33984
1977,34048
1978,34048
1979,34048
1980,34112
1981,34176
1982,34176
1983,34240
1984,34176
1985,34112
1986,34112
1987,34112
1988,34112
1989,34176
1990,34240
1991,34240
1992,34176
1993,34112
1994,34048
1995,34048
1996,33920
1997,33856
1998,33792
1999,33792
2000,33728
2001,33728
2002,33792
2003,33856
2004,33920
2005,33920
2006,33984
2007,33984
2008,33984
2009,33984
2010,33984
2011,33984
2012,33984
2013,33984
2014,33920
2015,33920
2016,34112
2017,34496
2018,35072
2019,36480
2020,37504
2021,38848
2022,39616
2023,39168
2024,37504
2025,35136
2026,32768
2027,31168
2028,30336
2029,30336
2030,30784
2031,31616
2032,32448
2033,33152
2034,33792
2035,34048
2036,34368
2037,34496
2038,34560
2039,34496
2040,34560
2041,34560
2042,34432
2043,34368
2044,34368
2045,34304
2046,34240
2047,34176
2048,34112
2049,34112
2050,34048
2051,34048
2052,34048
2053,34112
2054,34112
2055,34176
2056,34240
2057,34304
2058,34368
2059,34368
2060,34432
2061,34496
2062,34496
2063,34496
2064,34560
2065,34560
2066,34560
2067,34624
2068,34624
2069,34688
2070,34688
2071,34688
2072,34752
2073,34816
2074,34880
2075,34880
2076,34880
2077,34880
2078,34816
2079,34752
2080,34624
2081,34560
2082,34496
2083,34432
2084,34304
2085,34304
2086,34304
2087,34176
2088,34048
2089,33984
2090,33984
2091,33920
2092,33856
2093,33856
2094,33856
2095,33856
2096,33728
2097,33728
2098,33728
2099,33728
2100,33792
2101,33728
2102,33792
2103,33856
2104,33856
2105,33856
2106,33856
2107,33920
2108,33920
2109,33920
2110,33984
2111,33984
2112,33984
2113,33984
2114,33984
2115,34048
2116,34048
2117,33984
2118,33920
2119,33920
2120,33984
2121,33920
2122,33920
2123,33984
2124,33984
2125,33984
2126,33984
2127,33984
2128,34048
2129,33984
2130,33920
2131,33984
2132,33920
2133,33920
2134,33920
2135,33920
2136,33920
2137,33856
2138,33792
2139,33856
2140,33856
2141,33856
2142,33792
2143,33792
2144,33856
2145,33856
2146,33856
2147,33856
2148,33856
2149,33856
2150,33856
2151,33856
2152,33920
2153,33984
2154,33984
2155,33984
2156,33920
2157,33920
2158,33856
2159,33792
2160,33728
2161,33792
2162,33792
2163,33728
2164,33792
2165,33920
2166,33920
2167,33920
2168,33984
2169,33984
2170,33920
2171,33920
2172,33920
2173,33920
2174,33984
2175,33920
2176,33984
2177,33984
2178,33984
2179,33856
2180,33856
2181,33856
2182,33856
2183,33856
2184,33856
2185,33856
2186,33920
2187,33984
2188,34048
2189,34048
2190,34112
2191,34048
2192,34048
2193,34112
2194,34176
2195,34176
2196,34048
2197,33984
2198,33984
2199,34048
2200,33984
2201,34048
2202,34112
2203,34112
2204,34048
2205,33920
2206,33856
2207,33856
2208,33792
2209,33792
2210,33728
2211,33728
2212,33792
2213,33792
2214,33728
2215,33728
2216,33728
2217,33664
2218,33728
2219,33792
2220,33792
2221,33792
2222,33728
2223,33728
2224,33728
2225,33728
2226,33728
2227,33728
2228,33856
2229,34176
2230,34752
2231,35520
2232,36800
2233,38208
2234,39232
2235,39360
2236,38144
2237,35968
2238,33536
2239,31552
2240,30528
2241,30272
2242,30656
2243,31360
2244,32320
2245,33088
2246,33664
2247,34112
2248,34304
2249,34432
2250,34496
2251,34496
2252,34560
2253,34496
2254,34368
2255,34304
2256,34304
2257,34240
2258,34176
2259,34240
2260,34240
2261,34304
2262,34304
2263,34304
2264,34368
2265,34432
2266,34432
2267,34432
2268,34432
2269,34432
2270,34368
2271,34368
2272,34368
2273,34432
2274,34496
2275,34432
2276,34496
2277,34688
2278,34752
2279,34752
2280,34752
2281,34752
2282,34816
2283,34816
2284,34816
2285,34880
2286,34880
2287,34816
2288,34816
2289,34816
2290,34816
2291,34816
2292,34752
2293,34688
2294,34688
2295,34624
2296,34560
2297,34496
2298,34432
2299,34368
2300,34240
2301,34112
2302,34048
2303,33984
2304,33984
2305,33920
2306,33920
2307,33920
2308,33984
2309,33984
2310,33984
2311,33984
2312,33920
2313,33856
2314,33792
2315,33856
2316,33856
2317,33920
2318,33920
2319,33984
2320,33984
2321,34048
2322,34048
2323,34048
2324,34112
2325,34176
2326,34176
2327,34240
2328,34304
2329,34304
2330,34176
2331,34112
2332,33984
2333,33856
2334,33792
2335,33920
2336,33984
2337,33920
2338,33920
2339,33984
2340,34048
2341,34048
2342,34048
2343,34048
2344,34048
2345,34048
2346,34112
2347,34176
2348,34112
2349,34048
2350,34048
2351,34048
2352,34112
2353,33984
2354,33920
2355,33920
2356,33792
2357,33600
2358,33536
2359,33472
2360,33536
2361,33664
2362,33664
2363,33728
2364,33920
2365,34048
2366,34048
2367,33984
2368,33920
2369,33920
2370,33984
2371,33984
2372,33920
2373,33920
2374,33920
2375,33856
2376,33920
2377,33920
2378,33792
2379,33728
2380,33728
2381,33792
2382,34048
2383,34304
2384,34496
2385,34304
2386,33920
2387,33536
2388,33408
2389,33280
2390,33280
2391,33216
2392,33280
2393,33472
2394,33728
2395,33728
2396,33728
2397,33792
2398,34048
2399,34048
2400,33984
2401,33856
2402,33792
2403,33792
2404,33920
2405,33984
2406,33856
2407,33728
2408,33728
2409,33984
2410,33984
2411,33984
2412,33920
2413,33856
2414,33856
2415,33920
2416,33984
2417,34048
2418,34112
2419,34304
2420,34304
2421,34304
2422,34240
2423,34112
2424,33792
2425,33600
2426,33408
2427,33216
2428,33152
2429,33152
2430,33344
2431,33664
2432,33728
2433,33792
2434,33984
2435,33984
2436,33728
2437,33408
2438,33152
2439,33216
2440,33536
2441,33728
2442,33792
2443,33728
2444,33536
2445,33536
2446,33984
2447,34752
2448,35968
2449,37440
2450,38848
2451,39744
2452,39744
2453,38272
2454,35328
2455,33408
2456,31552
2457,30592
2458,30400
2459,30912
2460,31744
2461,32448
2462,32832
2463,33152
2464,33664
2465,34240
2466,34432
2467,34240
2468,34112
2469,34304
2470,34304
2471,34368
2472,34432
2473,34496
2474,34496
2475,34432
2476,34496
2477,34816
2478,34880
2479,34496
2480,34112
2481,33920
2482,33920
2483,33856
2484,34048
2485,34112
2486,34304
2487,34240
2488,34176
2489,34304
2490,34624
2491,35008
2492,35456
2493,35840
2494,36160
2495,35456
2496,34368
2497,33728
2498,33536
2499,33344
2500,33344
2501,33600
2502,33984
2503,34176
2504,34112
2505,34816
2506,35712
2507,35648
2508,34880
2509,34304
2510,34176
2511,34368
2512,34432
2513,34304
2514,34176
2515,34176
2516,34304
2517,34496
2518,34816
2519,35008
2520,34880
2521,34560
2522,34048
2523,33664
2524,33600
2525,34048
2526,34880
2527,36160
2528,36544
2529,34304
2530,33472
2531,32704
2532,32384
2533,32448
2534,32640
2535,33024
2536,33664
2537,34432
2538,34752
2539,34688
2540,34816
2541,34752
2542,34496
2543,34432
2544,34368
2545,34112
2546,34368
2547,35328
2548,35968
2549,35328
2550,34560
2551,34304
2552,33920
2553,33600
2554,33536
2555,33728
2556,34240
2557,35200
2558,36160
2559,36352
2560,36288
2561,36224
2562,35840
2563,34560
2564,34112
2565,34304
2566,34304
2567,34304
2568,34240
2569,33664
2570,32896
2571,32576
2572,32832
2573,33408
2574,34048
2575,34240
2576,34560
2577,35264
2578,35840
2579,35904
2580,35712
2581,35136
2582,34560
2583,34624
2584,34880
2585,35072
2586,35328
2587,35200
2588,35456
2589,35456
2590,34688
2591,34496
2592,34304
2593,33856
2594,33472
2595,33152
2596,32832
2597,32704
2598,32896
2599,33024
2600,33152
2601,33344
2602,33600
2603,33664
2604,33536
2605,33280
2606,33024
2607,33152
2608,33600
2609,33984
2610,33600
2611,33152
2612,32704
2613,32704
2614,33280
2615,34048
2616,33984
2617,33344
2618,32960
2619,33408
2620,33408
2621,33152
2622,33344
2623,33472
2624,33088
2625,32960
2626,33472
2627,33216
2628,32896
2629,32896
2630,32832
2631,32000
2632,31360
2633,31552
2634,32384
2635,33600
2636,34240
2637,33920
2638,33984
2639,34496
2640,35008
2641,34944
2642,34688
2643,34240
2644,33856
2645,33792
2646,33664
2647,33088
2648,32960
2649,33536
2650,34816
2651,36544
2652,38016
2653,39552
2654,38784
2655,37056
2656,34880
2657,32576
2658,31168
2659,31040
2660,30720
2661,30976
2662,31488
2663,32320
2664,33408
2665,34048
2666,34048
2667,33856
2668,33728
2669,33664
2670,33728
2671,33728
2672,33792
2673,33728
2674,33664
2675,33856
2676,34112
2677,33984
2678,33920
2679,34304
2680,34304
2681,34816
2682,35008
2683,35072
2684,35008
2685,34624
2686,34240
2687,34240
2688,34432
2689,34432
2690,34752
2691,34944
2692,35072
2693,35072
2694,35008
2695,35008
2696,35072
2697,35200
2698,35008
2699,34688
2700,34432
2701,34368
2702,34432
2703,34496
2704,34496
2705,34816
2706,34752
2707,34176
2708,33664
2709,33536
2710,33536
2711,33664
2712,33792
2713,33920
2714,34112
2715,34240
2716,34368
2717,34432
2718,34368
2719,34368
2720,34304
2721,34432
2722,34560
2723,34560
2724,34560
2725,34752
2726,34752
2727,34496
2728,34496
2729,34560
2730,34432
2731,34240
2732,34112
2733,34048
2734,34176
2735,34240
2736,34304
2737,34368
2738,34432
2739,34496
2740,34496
2741,34368
2742,34304
2743,34368
2744,34368
2745,34240
2746,34176
2747,34176
2748,34176
2749,34176
2750,34240
2751,34240
2752,34304
2753,34304
2754,34240
2755,34240
2756,34176
2757,34112
2758,33984
2759,34048
2760,34048
2761,34112
2762,34240
2763,34240
2764,34176
2765,33856
2766,33728
2767,33792
2768,33920
2769,33984
2770,33920
2771,33984
2772,34304
2773,34176
2774,33920
2775,33792
2776,33728
2777,33664
2778,33664
2779,33600
2780,33920
2781,34048
2782,33984
2783,33920
2784,33984
2785,33984
2786,33856
2787,33856
2788,34048
2789,34176
2790,34112
2791,34112
2792,34048
2793,34496
2794,34560
2795,33984
2796,33792
2797,34176
2798,33920
2799,33344
2800,33024
2801,33024
2802,33152
2803,33280
2804,33472
2805,33664
2806,33920
2807,34176
2808,34240
2809,34112
2810,33984
2811,34112
2812,34176
2813,34112
2814,33984
2815,33920
2816,34048
2817,33792
2818,33472
2819,33344
2820,33408
2821,33472
2822,33728
2823,33920
2824,34048
2825,34304
2826,34304
2827,33920
2828,33664
2829,33536
2830,33472
2831,33472
2832,33856
2833,34176
2834,33792
2835,33344
2836,33152
2837,33024
2838,33344
2839,33600
2840,33600
2841,33920
2842,34368
2843,34304
2844,33728
2845,33472
2846,33280
2847,33024
2848,33216
2849,33472
2850,33792
2851,34432
2852,35584
2853,36928
2854,38144
2855,38656
2856,37952
2857,36160
2858,33984
2859,32320
2860,31360
2861,30976
2862,31168
2863,31744
2864,32448
2865,32960
2866,33472
2867,34048
2868,34496
2869,34624
2870,34624
2871,34176
2872,33792
2873,33600
2874,33664
2875,33792
2876,34112
2877,34496
2878,34624
2879,34368
2880,34176
2881,34240
2882,34048
2883,33920
2884,33920
2885,34048
2886,34176
2887,34240
2888,34496
2889,34688
2890,34496
2891,34304
2892,34368
2893,34432
2894,34240
2895,34240
2896,34304
2897,34304
2898,34304
2899,34368
2900,34624
2901,34944
2902,34944
2903,34624
2904,34432
2905,34496
2906,34496
2907,34496
2908,34560
2909,34688
2910,34688
2911,34624
2912,34624
2913,34816
2914,34816
2915,34880
2916,34688
2917,34368
2918,33984
2919,33664
2920,33600
2921,33728
2922,33664
2923,33600
2924,33536
2925,33600
2926,33664
2927,33728
2928,33856
2929,33920
2930,33920
2931,33856
2932,33728
2933,33728
2934,33728
2935,33792
2936,33792
2937,33728
2938,33728
2939,33920
2940,33984
2941,33984
2942,34048
2943,34176
2944,34048
2945,33856
2946,33920
2947,34048
2948,33920
2949,33664
2950,33536
2951,33600
2952,33664
2953,33728
2954,33856
2955,33920
2956,33984
2957,33984
2958,34048
2959,34112
2960,34112
2961,34112
2962,34176
2963,34176
2964,34112
2965,34112
2966,34048
2967,33984
2968,33856
2969,33728
2970,33600
2971,33728
2972,33856
2973,33792
2974,33792
2975,33920
2976,33984
2977,33728
2978,33664
2979,33664
2980,33792
2981,33728
2982,33792
2983,33856
2984,33920
2985,33920
2986,33920
2987,33792
2988,33792
2989,33792
2990,33728
2991,33792
2992,33856
2993,33984
2994,34048
2995,34048
2996,34112
2997,34240
2998,34304
2999,34048
3000,33792
3001,33664
3002,33664
3003,33664
3004,33664
3005,33728
3006,33792
3007,33856
3008,33920
3009,34112
3010,34176
3011,34176
3012,34176
3013,34240
3014,34240
3015,34176
3016,33920
3017,33856
3018,33856
3019,33664
3020,33536
3021,33600
3022,33664
3023,33728
3024,33728
3025,33728
3026,33792
3027,33792
3028,33728
3029,33728
3030,33856
3031,33920
3032,33920
3033,33856
3034,33856
3035,33856
3036,33984
3037,34176
3038,34048
3039,33984
3040,34304
3041,35008
3042,36224
3043,37568
3044,38464
3045,38464
3046,37376
3047,35520
3048,33408
3049,31872
3050,31040
3051,30848
3052,31040
3053,31616
3054,32448
3055,33152
3056,33792
3057,34112
3058,34368
3059,34496
3060,34432
3061,34240
3062,34240
3063,34240
3064,34112
3065,33984
3066,33984
3067,33984
3068,33984
3069,33856
3070,33856
3071,33984
3072,34112
3073,34112
3074,34112
3075,34176
3076,34176
3077,34176
3078,34176
3079,34176
3080,34240
3081,34304
3082,34304
3083,34304
3084,34368
3085,34368
3086,34368
3087,34304
3088,34368
3089,34432
3090,34304
3091,34304
3092,34432
3093,34496
3094,34560
3095,34560
3096,34688
3097,34752
3098,34752
3099,34816
3100,34816
3101,34688
3102,34496
3103,34304
3104,34240
3105,34240
3106,34304
3107,34176
3108,34048
3109,33984
3110,33920
3111,33792
3112,33792
3113,33792
3114,33792
3115,33792
3116,33856
3117,33984
3118,33856
3119,33856
3120,33792
3121,33664
3122,33536
3123,33408
3124,33408
3125,33472
3126,33664
3127,33792
3128,33856
3129,33920
3130,33984
3131,33984
3132,33984
3133,33984
3134,34048
3135,34048
3136,33984
3137,34048
3138,34112
3139,34112
3140,34048
3141,33984
3142,34048
3143,34048
3144,34048
3145,33984
3146,33984
3147,33920
3148,33856
3149,33792
3150,33792
3151,33920
3152,33984
3153,33920
3154,33920
3155,33984
3156,34048
3157,34048
3158,33984
3159,33920
3160,33920
3161,33920
3162,33792
3163,33856
3164,33984
3165,33984
3166,33920
3167,33856
3168,33792
3169,33792
3170,33792
3171,33984
3172,34112
3173,34048
3174,33920
3175,33792
3176,33728
3177,33728
3178,33664
3179,33792
3180,33920
3181,33984
3182,34048
3183,34112
3184,34112
3185,34048
3186,33856
3187,33728
3188,33728
3189,33792
3190,33792
3191,33792
3192,33920
3193,34048
3194,34176
3195,34240
3196,34176
3197,34176
3198,34048
3199,33984
3200,33856
3201,33920
3202,33984
3203,33984
3204,33920
3205,33984
3206,33984
3207,34048
3208,34112
3209,34176
3210,34112
3211,34048
3212,34048
3213,34112
3214,34048
3215,33920
3216,33792
3217,33792
3218,33728
3219,33728
3220,33856
3221,33984
3222,33984
3223,33856
3224,33728
3225,33728
3226,33856
3227,33856
3228,33856
3229,33920
3230,33920
3231,33856
3232,33792
3233,33792
3234,34048
3235,34304
3236,34688
3237,35456
3238,36736
3239,38080
3240,38912
3241,38848
3242,37504
3243,35392
3244,33216
3245,31680
3246,30912
3247,30784
3248,31168
3249,31744
3250,32448
3251,33152
3252,33792
3253,34112
3254,34304
3255,34304
3256,34304
3257,34240
3258,34240
3259,34304
3260,34368
3261,34304
3262,34240
3263,34240
3264,34368
3265,34368
3266,34368
3267,34240
3268,34176
3269,34112
3270,34048
3271,33984
3272,33984
3273,33984
3274,33984
3275,34048
3276,34112
3277,34176
3278,34240
3279,34432
3280,34560
3281,34688
3282,34560
3283,34432
3284,34368
3285,34368
3286,34368
3287,34432
3288,34560
3289,34688
3290,34688
3291,34752
3292,34816
3293,34880
3294,34816
3295,34752
3296,34688
3297,34688
3298,34560
3299,34496
3300,34432
3301,34432
3302,34368
3303,34368
3304,34240
3305,34176
3306,34048
3307,33920
3308,33856
3309,33984
3310,33984
3311,33920
3312,33792
3313,33728
3314,33792
3315,33728
3316,33664
3317,33664
3318,33728
3319,33728
3320,33728
3321,33792
3322,33920
3323,33984
3324,34048
3325,34112
3326,34176
3327,34048
3328,33856
3329,33792
3330,33856
3331,33920
3332,33856
3333,33856
3334,33920
3335,33984
3336,33984
3337,33984
3338,33984
3339,33984
3340,34048
3341,34048
3342,34112
3343,34112
3344,34048
3345,33984
3346,34112
3347,34176
3348,33984
3349,33856
3350,33856
3351,33920
3352,33920
3353,33920
3354,33920
3355,33984
3356,33920
3357,33792
3358,33728
3359,33792
3360,33856
3361,33856
3362,33856
3363,33920
3364,33984
3365,33984
3366,33920
3367,33920
3368,33856
3369,33792
3370,33792
3371,33856
3372,33856
3373,33920
3374,33984
3375,34048
3376,33984
3377,33920
3378,33856
3379,33856
3380,33920
3381,33984
3382,33920
3383,33856
3384,33792
3385,33856
3386,33792
3387,33792
3388,33856
3389,33920
3390,33920
3391,33920
3392,33984
3393,34112
3394,34176
3395,34176
3396,34048
3397,34048
3398,33920
3399,33856
3400,33792
3401,33792
3402,33792
3403,33792
3404,33856
3405,33856
3406,33984
3407,33920
3408,33920
3409,34048
3410,34112
3411,34048
3412,34048
3413,34048
3414,34112
3415,34112
3416,34176
3417,34240
3418,34304
3419,34176
3420,34048
3421,34048
3422,34048
3423,34112
3424,34176
3425,34304
3426,34240
3427,34176
3428,34048
3429,34048
3430,34048
3431,34048
3432,33856
3433,33856
3434,33920
3435,33984
3436,33856
3437,33856
3438,33920
3439,33856
3440,33728
3441,33728
3442,33856
3443,33984
3444,33984
3445,33856
3446,33856
3447,33856
3448,33856
3449,33856
3450,33920
3451,34112
3452,34432
3453,34816
3454,35584
3455,36800
3456,38208
3457,39232
3458,39424
3459,38208
3460,36160
3461,33792
3462,31872
3463,30848
3464,30592
3465,30976
3466,31552
3467,32256
3468,32832
3469,33152
3470,33472
3471,33856
3472,34176
3473,34368
3474,34496
3475,34560
3476,34624
3477,34560
3478,34496
3479,34432
3480,34368
3481,34368
3482,34240
3483,34176
3484,34176
3485,34048
3486,33984
3487,34048
3488,34112
3489,34176
3490,34240
3491,34240
3492,34304
3493,34304
3494,34240
3495,34176
3496,34176
3497,34176
3498,34304
3499,34368
3500,34496
3501,34560
3502,34624
3503,34688
3504,34752
3505,34816
3506,34752
3507,34752
3508,34752
3509,34816
3510,34816
3511,34816
3512,34816
3513,34816
3514,34688
3515,34560
3516,34496
3517,34432
3518,34368
3519,34240
3520,34176
3521,34240
3522,34304
3523,34176
3524,34048
3525,34048
3526,34048
3527,34048
3528,34048
3529,33920
3530,33920
3531,33792
3532,33664
3533,33600
3534,33664
3535,33664
3536,33728
3537,33728
3538,33856
3539,33856
3540,33856
3541,33792
3542,33856
3543,33920
3544,33920
3545,33920
3546,33984
3547,33984
3548,33984
3549,33920
3550,33984
3551,34112
3552,34048
3553,33920
3554,33920
3555,33984
3556,33984
3557,33984
3558,33984
3559,34048
3560,34112
3561,34048
3562,33920
3563,33984
3564,33984
3565,33984
3566,33920
3567,33920
3568,33984
3569,33920
3570,33920
3571,33984
3572,33984
3573,33920
3574,33920
3575,33920
3576,33856
3577,33856
3578,33920
3579,33920
3580,33984
3581,33920
3582,33856
3583,33792
3584,33792
3585,33920
3586,33920
3587,33920
3588,33856
3589,33856
3590,33856
3591,33856
3592,33920
3593,34048
3594,33984
3595,33920
3596,33920
3597,33920
3598,33920
3599,33984
3600,34048
3601,34048
3602,34048
3603,33984
3604,33920
3605,33856
3606,33728
3607,33664
3608,33728
3609,33856
3610,33856
3611,33856
3612,33920
3613,33984
3614,33984
3615,33984
3616,33984
3617,33984
3618,33984
3619,33856
3620,33856
3621,33920
3622,34048
3623,34048
3624,34112
3625,34112
3626,34048
3627,33984
3628,33856
3629,33856
3630,33984
3631,33984
3632,33920
3633,33856
3634,33856
3635,33920
3636,33984
3637,34048
3638,34048
3639,34048
3640,33920
3641,33920
3642,34048
3643,34112
3644,34112
3645,33984
3646,34048
3647,34112
3648,34176
3649,34176
3650,34240
3651,34240
3652,34176
3653,34112
3654,34112
3655,34112
3656,34176
3657,34304
3658,34368
3659,34240
3660,34112
3661,33984
3662,33984
3663,34048
3664,33984
3665,33984
3666,33984
3667,33856
3668,33728
3669,33664
3670,33664
3671,33728
3672,33856
3673,33856
3674,33856
3675,33920
3676,33984
3677,34048
3678,34112
3679,34112
3680,34048
3681,33984
3682,33920
3683,33856
3684,34048
3685,34496
3686,35136
3687,36288
3688,37760
3689,38912
3690,39360
3691,38592
3692,36736
3693,34432
3694,32320
3695,30976
3696,30464
3697,30656
3698,31168
3699,31872
3700,32576
3701,33216
3702,33728
3703,34048
3704,34304
3705,34496
3706,34560
3707,34560
3708,34624
3709,34624
3710,34624
3711,34432
3712,34240
3713,34112
3714,33984
3715,33792
3716,33728
3717,33856
3718,33984
3719,34112
3720,34112
3721,34176
3722,34176
3723,34176
3724,34112
3725,34176
3726,34176
3727,34240
3728,34240
3729,34304
3730,34368
3731,34432
3732,34560
3733,34560
3734,34560
3735,34496
3736,34432
3737,34496
3738,34560
3739,34560
3740,34560
3741,34624
3742,34752
3743,34752
3744,34624
3745,34560
3746,34496
3747,34496
3748,34432
3749,34368
3750,34368
3751,34368
3752,34304
3753,34176
3754,34176
3755,34176
3756,34176
3757,34112
3758,33984
3759,33984
3760,33920
3761,33920
3762,33920
3763,33920
3764,33792
3765,33728
3766,33664
3767,33600
3768,33600
3769,33600
3770,33600
3771,33664
3772,33792
3773,33792
3774,33792
3775,33856
3776,33856
3777,33856
3778,33856
3779,33920
3780,34048
3781,34048
3782,33984
3783,34048
3784,34112
3785,34048
3786,33920
3787,33856
3788,33856
3789,33920
3790,33920
3791,33920
3792,33984
3793,33984
3794,33920
3795,33856
3796,33984
3797,33984
3798,33920
3799,33856
3800,33792
3801,33792
3802,33856
3803,33856
3804,33856
3805,33856
3806,33856
3807,33792
3808,33728
3809,33792
3810,33792
3811,33856
3812,33920
3813,33920
3814,33920
3815,33856
3816,33856
3817,33920
3818,33920
3819,33920
3820,33920
3821,33984
3822,33984
3823,33920
3824,33856
3825,33920
3826,33920
3827,33856
3828,33792
3829,33856
3830,33984
3831,33984
3832,33792
3833,33728
3834,33792
3835,33792
3836,33792
3837,33856
3838,33984
3839,34048
3840,33920
3841,33856
3842,33856
3843,33920
3844,33920
3845,33920
3846,33984
3847,33984
3848,33984
3849,33984
3850,33984
3851,34048
3852,33856
3853,33728
3854,33856
3855,33984
3856,33984
3857,33920
3858,33920
3859,33920
3860,33920
3861,33920
3862,33984
3863,34176
3864,34176
3865,34112
3866,34048
3867,34048
3868,34048
3869,33984
3870,34048
3871,34176
3872,34240
3873,34304
3874,34240
3875,34240
3876,34240
3877,34176
3878,34048
3879,33920
3880,33920
3881,33856
3882,33728
3883,33728
3884,33792
3885,33792
3886,33856
3887,33856
3888,33920
3889,33920
3890,33920
3891,33984
3892,34048
3893,34048
3894,33984
3895,33984
3896,33984
3897,33920
3898,33856
3899,33984
3900,34304
3901,34752
3902,35392
3903,36416
3904,37696
3905,38720
3906,39040
3907,37952
3908,36032
3909,33856
3910,32064
3911,30976
3912,30656
3913,30912
3914,31552
3915,32256
3916,32960
3917,33536
3918,34112
3919,34368
3920,34560
3921,34624
3922,34624
3923,34496
3924,34496
3925,34496
3926,34368
3927,34176
3928,34048
3929,34112
3930,34176
3931,34112
3932,34112
3933,34176
3934,34176
3935,34176
3936,34112
3937,34176
3938,34304
3939,34368
3940,34304
3941,34368
3942,34496
3943,34496
3944,34368
3945,34304
3946,34368
3947,34432
3948,34432
3949,34432
3950,34496
3951,34560
3952,34624
3953,34688
3954,34816
3955,34816
3956,34752
3957,34752
3958,34752
3959,34816
3960,34752
3961,34752
3962,34688
3963,34688
3964,34496
3965,34304
3966,34240
3967,34304
3968,34240
3969,34240
3970,34240
3971,34240
3972,34176
3973,34048
3974,33984
3975,33984
3976,33984
3977,33856
3978,33792
3979,33792
3980,33856
3981,33856
3982,33792
3983,33792
3984,33920
3985,33984
3986,33792
3987,33728
3988,33792
3989,33856
3990,33920
3991,33984
3992,34048
3993,33984
3994,33856
3995,33856
3996,33984
3997,33984
3998,33984
3999,33984
4000,34048
4001,34112
4002,34112
4003,34112
4004,34176
4005,34176
4006,34048
4007,33984
4008,33984
4009,34048
4010,33984
4011,33920
4012,33984
4013,34048
4014,34048
4015,33920
4016,33920
4017,33920
4018,33984
4019,33920
4020,33920
4021,33984
4022,33984
4023,33920
4024,33920
4025,34048
4026,34112
4027,33984
4028,33920
4029,33856
4030,33728
4031,33664
4032,33664
4033,33792
4034,33856
4035,33920
4036,33984
4037,33920
4038,33920
4039,33856
4040,33792
4041,33856
4042,33920
4043,33920
4044,33920
4045,33920
4046,33984
4047,33920
4048,33920
4049,33920
4050,33984
4051,34048
4052,33984
4053,33984
4054,33984
4055,33984
4056,33984
4057,33920
4058,33984
4059,34112
4060,34112
4061,33984
4062,33984
4063,33920
4064,33856
4065,33728
4066,33792
4067,33856
4068,33920
4069,33984
4070,33984
4071,34048
4072,34112
4073,34048
4074,34048
4075,34048
4076,34112
4077,34048
4078,34048
4079,34112
4080,34112
4081,34048
4082,33984
4083,34048
4084,34112
4085,34176
4086,34112
4087,34112
4088,34048
4089,33984
4090,33920
4091,33920
4092,34048
4093,34112
4094,34112
4095,34176
4096,34368
4097,34304
4098,34240
4099,34176
4100,34176
4101,34176
4102,34112
4103,33984
4104,33728
4105,33664
4106,33600
4107,33600
4108,33792
4109,33920
4110,33856
4111,33920
4112,34048
4113,34112
4114,34112
4115,34112
4116,34048
4117,34048
4118,34048
4119,33984
4120,33984
4121,33984
4122,34176
4123,34432
4124,34880
4125,35776
4126,36992
4127,38272
4128,39232
4129,39168
4130,37824
4131,35648
4132,33344
4133,31616
4134,30656
4135,30592
4136,30976
4137,31744
4138,32576
4139,33216
4140,33728
4141,34048
4142,34368
4143,34560
4144,34624
4145,34560
4146,34560
4147,34560
4148,34560
4149,34496
4150,34432
4151,34368
4152,34240
4153,34240
4154,34240
4155,34240
4156,34176
4157,34112
4158,34176
4159,34176
4160,34176
4161,34176
4162,34304
4163,34368
4164,34368
4165,34304
4166,34368
4167,34432
4168,34496
4169,34432
4170,34496
4171,34560
4172,34624
4173,34624
4174,34624
4175,34752
4176,34816
4177,34880
4178,34944
4179,35008
4180,34944
4181,34816
4182,34688
4183,34752
4184,34752
4185,34752
4186,34624
4187,34560
4188,34560
4189,34432
4190,34304
4191,34240
4192,34176
4193,34176
4194,34112
4195,34112
4196,34112
4197,34048
4198,33920
4199,33856
4200,33856
4201,33856
4202,33856
4203,33792
4204,33792
4205,33792
4206,33792
4207,33792
4208,33792
4209,33920
4210,33856
4211,33728
4212,33664
4213,33664
4214,33728
4215,33792
4216,33856
4217,33920
4218,33920
4219,33920
4220,33920
4221,33984
4222,34048
4223,34048
4224,33984
4225,34048
4226,34112
4227,34048
4228,34048
4229,33984
4230,34048
4231,33920
4232,33920
4233,33920
4234,33984
4235,33920
4236,33856
4237,33856
4238,33792
4239,33728
4240,33792
4241,33856
4242,33920
4243,33920
4244,33856
4245,33792
4246,33856
4247,33920
4248,33920
4249,33856
4250,33792
4251,33856
4252,33856
4253,33856
4254,33984
4255,33920
4256,33792
4257,33664
4258,33664
4259,33728
4260,33664
4261,33664
4262,33664
4263,33728
4264,33728
4265,33664
4266,33728
4267,33728
4268,33792
4269,33792
4270,33792
4271,33856
4272,33856
4273,33856
4274,33856
4275,33856
4276,33920
4277,33856
4278,33728
4279,33728
4280,33792
4281,33792
4282,33792
4283,33728
4284,33728
4285,33728
4286,33728
4287,33792
4288,33792
4289,33792
4290,33792
4291,33792
4292,33792
4293,33792
4294,33792
4295,33792
4296,33856
4297,33856
4298,33792
4299,33792
4300,33792
4301,33856
4302,33856
4303,33856
4304,33920
4305,33984
4306,33984
4307,33984
4308,34112
4309,34112
4310,34048
4311,33984
4312,33984
4313,33984
4314,33920
4315,33984
4316,34048
4317,34048
4318,34048
4319,33984
4320,33920
4321,33920
4322,33920
4323,33792
4324,33664
4325,33664
4326,33728
4327,33664
4328,33664
4329,33728
4330,33728
4331,33856
4332,33856
4333,33856
4334,33920
4335,33920
4336,33920
4337,33984
4338,33920
4339,33792
4340,33728
4341,33792
4342,33984
4343,34432
4344,35712
4345,36352
4346,37696
4347,38784
4348,39040
4349,38080
4350,36096
4351,33856
4352,31936
4353,30848
4354,30464
4355,30720
4356,31296
4357,32000
4358,32832
4359,33600
4360,33792
4361,34048
4362,34240
4363,34368
4364,34368
4365,34368
4366,34368
4367,34368
4368,34304
4369,34240
4370,34176
4371,34112
4372,34048
4373,33984
4374,33984
4375,33984
4376,34048
4377,33984
4378,33984
4379,34048
4380,34048
4381,33984
4382,34048
4383,34112
4384,34176
4385,34176
4386,34240
4387,34304
4388,34368
4389,34368
4390,34432
4391,34496
4392,34624
4393,34624
4394,34624
4395,34624
4396,34688
4397,34688
4398,34752
4399,34752
4400,34816
4401,34880
4402,34880
4403,34752
4404,34624
4405,34560
4406,34496
4407,34432
4408,34432
4409,34368
4410,34304
4411,34240
4412,34240
4413,34240
4414,34112
4415,34048
4416,33984
4417,33984
4418,33984
4419,33856
4420,33792
4421,33792
4422,33792
4423,33792
4424,33856
4425,33920
4426,33920
4427,33856
4428,33856
4429,33920
4430,33984
4431,33984
4432,33984
4433,33984
4434,33920
4435,33856
4436,33792
4437,33856
4438,33920
4439,33920
4440,33856
4441,33920
4442,34048
4443,34048
4444,34112
4445,34176
4446,34240
4447,34176
4448,34112
4449,34112
4450,34112
4451,34048
4452,33984
4453,33984
4454,34048
4455,34112
4456,34112
4457,34048
4458,34048
4459,34048
4460,34048
4461,33984
4462,33984
4463,33984
4464,33856
4465,33856
4466,33856
4467,33920
4468,33920
4469,33920
4470,33856
4471,33984
4472,34048
4473,34112
4474,34048
4475,34112
4476,33984
4477,33856
4478,33792
4479,33856
4480,33792
4481,33856
4482,33856
4483,33920
4484,33920
4485,33920
4486,33984
4487,34048
4488,34048
4489,33920
4490,33984
4491,34048
4492,34048
4493,33920
4494,33856
4495,33984
4496,33984
4497,33984
4498,33920
4499,33920
4500,33920
4501,33984
4502,33984
4503,34048
4504,33984
4505,33984
4506,33984
4507,34048
4508,34112
4509,34048
4510,33984
4511,33920
4512,33984
4513,33984
4514,33984
4515,34112
4516,34240
4517,34240
4518,34176
4519,34176
4520,34176
4521,34240
4522,34112
4523,33984
4524,33920
4525,33856
4526,33664
4527,33536
4528,33600
4529,33728
4530,33728
4531,33792
4532,33856
4533,33920
4534,33920
4535,33920
4536,33984
4537,34112
4538,34112
4539,33984
4540,33920
4541,33920
4542,33856
4543,33984
4544,34304
4545,34944
4546,36032
4547,37376
4548,38720
4549,39360
4550,38784
4551,36992
4552,34560
4553,31616
4554,31424
4555,30464
4556,30528
4557,31168
4558,31872
4559,32640
4560,33216
4561,33664
4562,33920
4563,34176
4564,34240
4565,34368
4566,34432
4567,34368
4568,34368
4569,34368
4570,34368
4571,34304
4572,34176
4573,34176
4574,34176
4575,34240
4576,34176
4577,34048
4578,34048
4579,34048
4580,34048
4581,34048
4582,34112
4583,34176
4584,34112
4585,34176
4586,34304
4587,34368
4588,34368
4589,34368
4590,34432
4591,34496
4592,34560
4593,34496
4594,34560
4595,34816
4596,34880
4597,34752
4598,34688
4599,34688
4600,34752
4601,34624
4602,34624
4603,34688
4604,34624
4605,34560
4606,34560
4607,34560
4608,34496
4609,34368
4610,34304
4611,34304
4612,34304
4613,34304
4614,34176
4615,34112
4616,34048
4617,33984
4618,33920
4619,33856
4620,33792
4621,33728
4622,33664
4623,33728
4624,33728
4625,33728
4626,33728
4627,33792
4628,33792
4629,33792
4630,33728
4631,33664
4632,33728
4633,33792
4634,33792
4635,33792
4636,33920
4637,33920
4638,33984
4639,33920
4640,33984
4641,34112
4642,34176
4643,34048
4644,34048
4645,34048
4646,33984
4647,33920
4648,33984
4649,34112
4650,34176
4651,34112
4652,34048
4653,34048
4654,33920
4655,33856
4656,33792
4657,33856
4658,33856
4659,33920
4660,33984
4661,34112
4662,34112
4663,34112
4664,34048
4665,33984
4666,33920
4667,33920
4668,33856
4669,33856
4670,33856
4671,33856
4672,33856
4673,33856
4674,33920
4675,33984
4676,34112
4677,34112
4678,34112
4679,34048
4680,33920
4681,33856
4682,33920
4683,33920
4684,33856
4685,33792
4686,33792
4687,33856
4688,33856
4689,33856
4690,33920
4691,33984
4692,34048
4693,34048
4694,34112
4695,34112
4696,34048
4697,33984
4698,33984
4699,34048
4700,34048
4701,33984
4702,34048
4703,34048
4704,34048
4705,34048
4706,33984
4707,33984
4708,33984
4709,34048
4710,34048
4711,34048
4712,34048
4713,34112
4714,34112
4715,34112
4716,34112
4717,34112
4718,34048
4719,34176
4720,34304
4721,34304
4722,34048
4723,33920
4724,33856
4725,33856
4726,33792
4727,33728
4728,33600
4729,33600
4730,33536
4731,33472
4732,33536
4733,33536
4734,33600
4735,33600
4736,33600
4737,33600
4738,33536
4739,33536
4740,33536
4741,33600
4742,33600
4743,33536
4744,33536
4745,33536
4746,33600
4747,33728
4748,33984
4749,34560
4750,35456
4751,36800
4752,38208
4753,39040
4754,38720
4755,37120
4756,34816
4757,32512
4758,30848
4759,30208
4760,30208
4761,30784
4762,31552
4763,32320
4764,32832
4765,33344
4766,33792
4767,34112
4768,34240
4769,34304
4770,34368
4771,34304
4772,34368
4773,34432
4774,34368
4775,34176
4776,33984
4777,33856
4778,33920
4779,33920
4780,33856
4781,33856
4782,33920
4783,33920
4784,33920
4785,33984
4786,34112
4787,34176
4788,34176
4789,34176
4790,34176
4791,34176
4792,34176
4793,34240
4794,34240
4795,34304
4796,34304
4797,34240
4798,34240
4799,34368
4800,34368
4801,34368
4802,34432
4803,34496
4804,34432
4805,34304
4806,34304
4807,34432
4808,34432
4809,34432
4810,34432
4811,34432
4812,34432
4813,34432
4814,34368
4815,34304
4816,34240
4817,34176
4818,34176
4819,34176
4820,34112
4821,34048
4822,33920
4823,33856
4824,33856
4825,33792
4826,33664
4827,33664
4828,33664
4829,33728
4830,33728
4831,33728
4832,33792
4833,33792
4834,33728
4835,33664
4836,33728
4837,33792
4838,33792
4839,33792
4840,33792
4841,33920
4842,34112
4843,34112
4844,33984
4845,33856
4846,33792
4847,33856
4848,33856
4849,33920
4850,33920
4851,33856
4852,33792
4853,33856
4854,33920
4855,33920
4856,33920
4857,33984
4858,33984
4859,33920
4860,33920
4861,33984
4862,34048
4863,34112
4864,34048
4865,33984
4866,33920
4867,33792
4868,33792
4869,33792
4870,33856
4871,33856
4872,33856
4873,33920
4874,33920
4875,33984
4876,33984
4877,33920
4878,33920
4879,33920
4880,33856
4881,33792
4882,33792
4883,33920
4884,33920
4885,33856
4886,33920
4887,33984
4888,33920
4889,33920
4890,34048
4891,34112
4892,33984
4893,33920
4894,33984
4895,34112
4896,34048
4897,33984
4898,33920
4899,33920
4900,33984
4901,34048
4902,34048
4903,33984
4904,33984
4905,33984
4906,33984
4907,34112
4908,34176
4909,34112
4910,34112
4911,34048
4912,33920
4913,33856
4914,33856
4915,33920
4916,33984
4917,34048
4918,34112
4919,34048
4920,33984
4921,33920
4922,33856
4923,33792
4924,33792
4925,33728
4926,33664
4927,33664
4928,33664
4929,33664
4930,33664
4931,33664
4932,33664
4933,33664
4934,33728
4935,33856
4936,33856
4937,33856
4938,33792
4939,33792
4940,33856
4941,33856
4942,33728
4943,33600
4944,33792
4945,34304
4946,35008
4947,36032
4948,37440
4949,38720
4950,39232
4951,38464
4952,36672
4953,34368
4954,32320
4955,30976
4956,30400
4957,30528
4958,31104
4959,31808
4960,32512
4961,33152
4962,33728
4963,34048
4964,34304
4965,34496
4966,34560
4967,34496
4968,34432
4969,34432
4970,34368
4971,34176
4972,34112
4973,34048
4974,34048
4975,34048
4976,34048
4977,33984
4978,33920
4979,33856
4980,33856
4981,33920
4982,33984
4983,33984
4984,33920
4985,33984
4986,34176
4987,34240
4988,34176
4989,33984
4990,33984
4991,34048
4992,34112
4993,34240
4994,34432
4995,34624
4996,34624
4997,34624
4998,34688
4999,34688
5000,34752
5001,34752
5002,34752
5003,34688
5004,34624
5005,34496
5006,34496
5007,34496
5008,34432
5009,34368
5010,34368
5011,34432
5012,34496
5013,34432
5014,34432
5015,34432
5016,34496
5017,34432
5018,34304
5019,34368
5020,34368
5021,34240
5022,34112
5023,34048
5024,34048
5025,34048
5026,33856
5027,33728
5028,33792
5029,33792
5030,33856
5031,33920
5032,33920
5033,33920
5034,33856
5035,33856
5036,33856
5037,33920
5038,33984
5039,33984
5040,34048
5041,34176
5042,34176
5043,34112
5044,34048
5045,34112
5046,34176
5047,34112
5048,34112
5049,34112
5050,34112
5051,34048
5052,34112
5053,34176
5054,34176
5055,34112
5056,34176
5057,34176
5058,34240
5059,34176
5060,34176
5061,34240
5062,34176
5063,34176
5064,34112
5065,34048
5066,34048
5067,34048
5068,33984
5069,33984
5070,33984
5071,33984
5072,33984
5073,34048
5074,34112
5075,34112
5076,34048
5077,34048
5078,33984
5079,33984
5080,33920
5081,33920
5082,34048
5083,34048
5084,34048
5085,34048
5086,34048
5087,34048
5088,34048
5089,33984
5090,34048
5091,34048
5092,34048
5093,34048
5094,34112
5095,34176
5096,34176
5097,34112
5098,34112
5099,34112
5100,34176
5101,34240
5102,34368
5103,34368
5104,34304
5105,34176
5106,34048
5107,34048
5108,34112
5109,34240
5110,34304
5111,34368
5112,34368
5113,34240
5114,34176
5115,34240
5116,34176
5117,34048
5118,33920
5119,33920
5120,33984
5121,33920
5122,33792
5123,33728
5124,33792
5125,33856
5126,33920
5127,33984
5128,34048
5129,34112
5130,34048
5131,33984
5132,33984
5133,33984
5134,33920
5135,33920
5136,33984
5137,34112
5138,34432
5139,35136
5140,36160
5141,37632
5142,38784
5143,39232
5144,38400
5145,36608
5146,34368
5147,32384
5148,31168
5149,30720
5150,30784
5151,31296
5152,32064
5153,32768
5154,33472
5155,33856
5156,34240
5157,34496
5158,34624
5159,34688
5160,34688
5161,34688
5162,34624
5163,34496
5164,34368
5165,34240
5166,34240
5167,34240
5168,34176
5169,34176
5170,34176
5171,34240
5172,34240
5173,34240
5174,34304
5175,34304
5176,34304
5177,34368
5178,34368
5179,34368
5180,34368
5181,34432
5182,34432
5183,34432
5184,34432
5185,34432
5186,34432
5187,34496
5188,34560
5189,34688
5190,34880
5191,35008
5192,35008
5193,34880
5194,34880
5195,34944
5196,35008
5197,34944
5198,34880
5199,34752
5200,34688
5201,34624
5202,34624
5203,34560
5204,34432
5205,34368
5206,34368
5207,34368
5208,34304
5209,34176
5210,34112
5211,34048
5212,34048
5213,34048
5214,34048
5215,34048
5216,34048
5217,33920
5218,33728
5219,33728
5220,33856
5221,33920
5222,33856
5223,33856
5224,33856
5225,33856
5226,33856
5227,33984
5228,34112
5229,34112
5230,34048
5231,34048
5232,34048
5233,34048
5234,34112
5235,34112
5236,34112
5237,34048
5238,34048
5239,34112
5240,34240
5241,34304
5242,34304
5243,34240
5244,34304
5245,34304
5246,34304
5247,34304
5248,34368
5249,34368
5250,34304
5251,34240
5252,34176
5253,34176
5254,34176
5255,34112
5256,33984
5257,33984
5258,33984
5259,33920
5260,33920
5261,33920
5262,33856
5263,33856
5264,33856
5265,33856
5266,33792
5267,33728
5268,33664
5269,33664
5270,33728
5271,33728
5272,33792
5273,33792
5274,33792
5275,33728
5276,33600
5277,33600
5278,33664
5279,33664
5280,33728
5281,33792
5282,33856
5283,33792
5284,33856
5285,33920
5286,33984
5287,34048
5288,34112
5289,34176
5290,34304
5291,34368
5292,34304
5293,34240
5294,34240
5295,34176
5296,34112
5297,34048
5298,34112
5299,34048
5300,34048
5301,34112
5302,34112
5303,34048
5304,33984
5305,33856
5306,33856
5307,33920
5308,33856
5309,33728
5310,33664
5311,33600
5312,33600
5313,33536
5314,33600
5315,33728
5316,33856
5317,33920
5318,33984
5319,33920
5320,33984
5321,33920
5322,33792
5323,33792
5324,33792
5325,33792
5326,33856
5327,33856
5328,33984
5329,34304
5330,34880
5331,35840
5332,37184
5333,38464
5334,39040
5335,38400
5336,36736
5337,34624
5338,32640
5339,31424
5340,30848
5341,30784
5342,31232
5343,31936
5344,32704
5345,33408
5346,33920
5347,34240
5348,34432
5349,34496
5350,34432
5351,34304
5352,34240
5353,34240
5354,34176
5355,34112
5356,34048
5357,34048
5358,33984
5359,33984
5360,33984
5361,34048
5362,34112
5363,34176
5364,34112
5365,34048
5366,33984
5367,33984
5368,33920
5369,33920
5370,33984
5371,33984
5372,34112
5373,34240
5374,34304
5375,34304
5376,34368
5377,34368
5378,34432
5379,34432
5380,34432
5381,34432
5382,34368
5383,34432
5384,34560
5385,34624
5386,34688
5387,34624
5388,34560
5389,34496
5390,34560
5391,34560
5392,34432
5393,34304
5394,34304
5395,34304
5396,34304
5397,34240
5398,34112
5399,33920
5400,33792
5401,33728
5402,33792
5403,33856
5404,33792
5405,33664
5406,33728
5407,33920
5408,34688
5409,35904
5410,36096
5411,34304
5412,32704
5413,31936
5414,31744
5415,31936
5416,32320
5417,32704
5418,33024
5419,33344
5420,33600
5421,33728
5422,33920
5423,34048
5424,34176
5425,34240
5426,34240
5427,34176
5428,34048
5429,33920
5430,33920
5431,33920
5432,33984
5433,33984
5434,33984
5435,33984
5436,33984
5437,33920
5438,33792
5439,33728
5440,33664
5441,33600
5442,33600
5443,33728
5444,33792
5445,33920
5446,33984
5447,34112
5448,34112
5449,34048
5450,33920
5451,33792
5452,33536
5453,33344
5454,33344
5455,33344
5456,33280
5457,33280
5458,33408
5459,33536
5460,33728
5461,33984
5462,34048
5463,33984
5464,33920
5465,33856
5466,33792
5467,33728
5468,33856
5469,33984
5470,34048
5471,34048
5472,34112
5473,34240
5474,34176
5475,34112
5476,34176
5477,34240
5478,34368
5479,34432
5480,34432
5481,34304
5482,34176
5483,34240
5484,34368
5485,34432
5486,34496
5487,34560
5488,34560
5489,34496
5490,34560
5491,34560
5492,34496
5493,34368
5494,34240
5495,34048
5496,33856
5497,33792
5498,33920
5499,34048
5500,34048
5501,33984
5502,34048
5503,34176
5504,34496
5505,34624
5506,34368
5507,34176
5508,34112
5509,33984
5510,33984
5511,34176
5512,34240
5513,34304
5514,34432
5515,34816
5516,35456
5517,36480
5518,37760
5519,38656
5520,38656
5521,37504
5522,35776
5523,33984
5524,32448
5525,31680
5526,31360
5527,31552
5528,32192
5529,32832
5530,33472
5531,33920
5532,34368
5533,34624
5534,34688
5535,34816
5536,34880
5537,34880
5538,34880
5539,34944
5540,34944
5541,34752
5542,34560
5543,34496
5544,34496
5545,34496
5546,34368
5547,34304
5548,34240
5549,34176
5550,34112
5551,34176
5552,34432
5553,34496
5554,34432
5555,34368
5556,34368
5557,34496
5558,34624
5559,34752
5560,34816
5561,34880
5562,34816
5563,34752
5564,34752
5565,34880
5566,34944
5567,35008
5568,35072
5569,35072
5570,34944
5571,34880
5572,35008
5573,35136
5574,35264
5575,35200
5576,34944
5577,34688
5578,34496
5579,34304
5580,34240
5581,34240
5582,34304
5583,34368
5584,34368
5585,34432
5586,34432
5587,34304
5588,34240
5589,34304
5590,34240
5591,34176
5592,34176
5593,34240
5594,34176
5595,33920
5596,33856
5597,33856
5598,33792
5599,33792
5600,33664
5601,33600
5602,33600
5603,33728
5604,33920
5605,34048
5606,34112
5607,34112
5608,34112
5609,34112
5610,34176
5611,34240
5612,34240
5613,34176
5614,34048
5615,33984
5616,33984
5617,34048
5618,34112
5619,34240
5620,34240
5621,34176
5622,34048
5623,33984
5624,34048
5625,34048
5626,34112
5627,34112
5628,34048
5629,33920
5630,33728
5631,33728
5632,33792
5633,33856
5634,33920
5635,33920
5636,33920
5637,33984
5638,34048
5639,34112
5640,34240
5641,34240
5642,34048
5643,33920
5644,33856
5645,33856
5646,33856
5647,33920
5648,33920
5649,33856
5650,33920
5651,33792
5652,33664
5653,33664
5654,33728
5655,33792
5656,33856
5657,33920
5658,33856
5659,33792
5660,33856
5661,33920
5662,33920
5663,33984
5664,34048
5665,34112
5666,34176
5667,34112
5668,34176
5669,34240
5670,34112
5671,33984
5672,33920
5673,33920
5674,33856
5675,33856
5676,33856
5677,33984
5678,34176
5679,34304
5680,34304
5681,34240
5682,34304
5683,34240
5684,33984
5685,33920
5686,33856
5687,33792
5688,33792
5689,33920
5690,34048
5691,33664
5692,33344
5693,33216
5694,33344
5695,33536
5696,33600
5697,33728
5698,33920
5699,34176
5700,34240
5701,34112
5702,33984
5703,33920
5704,33856
5705,33984
5706,34304
5707,34752
5708,35456
5709,36736
5710,37952
5711,38976
5712,38976
5713,37696
5714,35712
5715,33728
5716,32192
5717,31232
5718,30976
5719,31296
5720,31744
5721,32256
5722,32896
5723,33408
5724,33728
5725,33856
5726,33984
5727,34176
5728,34304
5729,34432
5730,34496
5731,34432
5732,34368
5733,34368
5734,34304
5735,34304
5736,34304
5737,34304
5738,34304
5739,34304
5740,34304
5741,34240
5742,34176
5743,34304
5744,34432
5745,34496
5746,34432
5747,34304
5748,34368
5749,34368
5750,34304
5751,34240
5752,34368
5753,34368
5754,34432
5755,34432
5756,34560
5757,34688
5758,34752
5759,34880
5760,34944
5761,34944
5762,35008
5763,35072
5764,35072
5765,35008
5766,34944
5767,34816
5768,34624
5769,34432
5770,34368
5771,34432
5772,34496
5773,34496
5774,34496
5775,34368
5776,34176
5777,34048
5778,33984
5779,33856
5780,33856
5781,33856
5782,33856
5783,33792
5784,33728
5785,33792
5786,33856
5787,33920
5788,33984
5789,34048
5790,34112
5791,34112
5792,33984
5793,33856
5794,33856
5795,33920
5796,33984
5797,34048
5798,33984
5799,33984
5800,33984
5801,33920
5802,33984
5803,34048
5804,34112
5805,34176
5806,34240
5807,34176
5808,34048
5809,33984
5810,34048
5811,33984
5812,33920
5813,33920
5814,33984
5815,33984
5816,33984
5817,33920
5818,33920
5819,33920
5820,33920
5821,33920
5822,34048
5823,34176
5824,34304
5825,34240
5826,33984
5827,33856
5828,33856
5829,33792
5830,33792
5831,33856
5832,34048
5833,34048
5834,33984
5835,33920
5836,33856
5837,33856
5838,33792
5839,33792
5840,33856
5841,33856
5842,33856
5843,33856
5844,33984
5845,34112
5846,34112
5847,34112
5848,34112
5849,34048
5850,33984
5851,33920
5852,33984
5853,34048
5854,34112
5855,34112
5856,34112
5857,34048
5858,33984
5859,33792
5860,33728
5861,33792
5862,33728
5863,33728
5864,33856
5865,33984
5866,34048
5867,33984
5868,34048
5869,34048
5870,34048
5871,34112
5872,34112
5873,34176
5874,34176
5875,34240
5876,34240
5877,34240
5878,34176
5879,33984
5880,33856
5881,33920
5882,33984
5883,34112
5884,34176
5885,34176
5886,34176
5887,34112
5888,34112
5889,34112
5890,34048
5891,33920
5892,33856
5893,33728
5894,33728
5895,33728
5896,33792
5897,33792
5898,33792
5899,33792
5900,33856
5901,33984
5902,34112
5903,34112
5904,34048
5905,34048
5906,33984
5907,33920
5908,33856
5909,33856
5910,33984
5911,34176
5912,34560
5913,35328
5914,36416
5915,37568
5916,38592
5917,38976
5918,38144
5919,35968
5920,34240
5921,32256
5922,31168
5923,30848
5924,31104
5925,31616
5926,32256
5927,32896
5928,33408
5929,33920
5930,34112
5931,34432
5932,34560
5933,34624
5934,34560
5935,34432
5936,34304
5937,34176
5938,34048
5939,34048
5940,34048
5941,34112
5942,34176
5943,34240
5944,34240
5945,34112
5946,33984
5947,33984
5948,34048
5949,34048
5950,34048
5951,34112
5952,34304
5953,34432
5954,34432
5955,34432
5956,34432
5957,34432
5958,34432
5959,34432
5960,34496
5961,34560
5962,34624
5963,34688
5964,34752
5965,34816
5966,34816
5967,34816
5968,34880
5969,34816
5970,34688
5971,34688
5972,34752
5973,34752
5974,34624
5975,34432
5976,34304
5977,34240
5978,34304
5979,34304
5980,34240
5981,34304
5982,34240
5983,34112
5984,34048
5985,34112
5986,34112
5987,33984
5988,33856
5989,33792
5990,33728
5991,33728
5992,33728
5993,33728
5994,33792
5995,33856
5996,33920
5997,33920
5998,33856
5999,33856
6000,33920
6001,33920
6002,33920
6003,33920
6004,33920
6005,33920
6006,33984
6007,34112
6008,34112
6009,34176
6010,34112
6011,34112
6012,34048
6013,33984
6014,33984
6015,33984
6016,34048
6017,34176
6018,34112
6019,34048
6020,34048
6021,34048
6022,34048
6023,34048
6024,33984
6025,33856
6026,33920
6027,33984
6028,34112
6029,34112
6030,34048
6031,33984
6032,33920
6033,33856
6034,33984
6035,33984
6036,33984
6037,33984
6038,33984
6039,33984
6040,33984
6041,33920
6042,33856
6043,33920
6044,33920
6045,33920
6046,33856
6047,33856
6048,33920
6049,33920
6050,33984
6051,34112
6052,34112
6053,33984
6054,33792
6055,33664
6056,33728
6057,33856
6058,33792
6059,33792
6060,33792
6061,33856
6062,33920
6063,33920
6064,33920
6065,33920
6066,33984
6067,34048
6068,34112
6069,34112
6070,34048
6071,34048
6072,33920
6073,33856
6074,33920
6075,33856
6076,33792
6077,33728
6078,33728
6079,33792
6080,33792
6081,33920
6082,34048
6083,34048
6084,34112
6085,34048
6086,34048
6087,34048
6088,34048
6089,33984
6090,33920
6091,33920
6092,33920
6093,33984
6094,33920
6095,33856
6096,33856
6097,33920
6098,33984
6099,34048
6100,33984
6101,34112
6102,34176
6103,34048
6104,33984
6105,33984
6106,34048
6107,34112
6108,34048
6109,34048
6110,34048
6111,34048
6112,34112
6113,34176
6114,34304
6115,34304
6116,34112
6117,34048
6118,34048
6119,34240
6120,34304
6121,34240
6122,34176
6123,34240
6124,34112
6125,34048
6126,33984
6127,33920
6128,33984
6129,33984
6130,33984
6131,33984
6132,33920
6133,33920
6134,33920
6135,33920
6136,33920
6137,33984
6138,33984
6139,33984
6140,34048
6141,34048
6142,34048
6143,34048
6144,34048
6145,33984
6146,33984
6147,34112
6148,34496
6149,35072
6150,35968
6151,37120
6152,38336
6153,39104
6154,38848
6155,37376
6156,35200
6157,33024
6158,31488
6159,30784
6160,30784
6161,31232
6162,31936
6163,32640
6164,33280
6165,33728
6166,33984
6167,34112
6168,34368
6169,34432
6170,34496
6171,34432
6172,34432
6173,34432
6174,34432
6175,34368
6176,34304
6177,34240
6178,34304
6179,34304
6180,34176
6181,34048
6182,33984
6183,34112
6184,34240
6185,34304
6186,34240
6187,34176
6188,34176
6189,34304
6190,34368
6191,34432
6192,34496
6193,34560
6194,34560
6195,34496
6196,34432
6197,34560
6198,34688
6199,34624
6200,34560
6201,34496
6202,34624
6203,34688
6204,34752
6205,34752
6206,34816
6207,34816
6208,34752
6209,34688
6210,34624
6211,34624
6212,34560
6213,34432
6214,34432
6215,34496
6216,34368
6217,34176
6218,34176
6219,34240
6220,34176
6221,34048
6222,33984
6223,33920
6224,33856
6225,33792
6226,33728
6227,33728
6228,33728
6229,33792
6230,33728
6231,33792
6232,33856
6233,33856
6234,33856
6235,33856
6236,33856
6237,33856
6238,33920
6239,34048
6240,33984
6241,33856
6242,33728
6243,33792
6244,33856
6245,33920
6246,33984
6247,34048
6248,34048
6249,34112
6250,34048
6251,34048
6252,34048
6253,34112
6254,34048
6255,33984
6256,34048
6257,33984
6258,33920
6259,33920
6260,33984
6261,34112
6262,34112
6263,33984
6264,33792
6265,33792
6266,33728
6267,33664
6268,33728
6269,33792
6270,33856
6271,33792
6272,33856
6273,33984
6274,34112
6275,34112
6276,33984
6277,33984
6278,33856
6279,33856
6280,33984
6281,33984
6282,33856
6283,33664
6284,33600
6285,33664
6286,33728
6287,33792
6288,33792
6289,33984
6290,33984
6291,33920
6292,33984
6293,34048
6294,33984
6295,33920
6296,33984
6297,34048
6298,33984
6299,33920
6300,33920
6301,33856
6302,33856
6303,33920
6304,33856
6305,34048
6306,33984
6307,33856
6308,33856
6309,33792
6310,33856
6311,33792
6312,33792
6313,33856
6314,33984
6315,34048
6316,34048
6317,34112
6318,34176
6319,34176
6320,34048
6321,33984
6322,34048
6323,34048
6324,33920
6325,33792
6326,33792
6327,33856
6328,33920
6329,33984
6330,34048
6331,34048
6332,33984
6333,33984
6334,33984
6335,34112
6336,34112
6337,34112
6338,34112
6339,33984
6340,33920
6341,33920
6342,33856
6343,34112
6344,34048
6345,33920
6346,33856
6347,33984
6348,34112
6349,34176
6350,34240
6351,34304
6352,34368
6353,34240
6354,34176
6355,34176
6356,34176
6357,34112
6358,34176
6359,34240
6360,34304
6361,34240
6362,34304
6363,34304
6364,34240
6365,34048
6366,33920
6367,33792
6368,33792
6369,33728
6370,33792
6371,33856
6372,34048
6373,34112
6374,33984
6375,33984
6376,33984
6377,34048
6378,34048
6379,34112
6380,34176
6381,34112
6382,33984
6383,33920
6384,33920
6385,33984
6386,34176
6387,34624
6388,35392
6389,36544
6390,37888
6391,38912
6392,39168
6393,38144
6394,36224
6395,34048
6396,32192
6397,31104
6398,30848
6399,30784
6400,31680
6401,32384
6402,33088
6403,33600
6404,33984
6405,34240
6406,34368
6407,34432
6408,34496
6409,34496
6410,34368
6411,34240
6412,34176
6413,34240
6414,34176
6415,34240
6416,34304
6417,34304
6418,34240
6419,34240
6420,34240
6421,34304
6422,34304
6423,34304
6424,34176
6425,34176
6426,34240
6427,34240
6428,34240
6429,34176
6430,34432
6431,34432
6432,34368
6433,34368
6434,34560
6435,34816
6436,34816
6437,34688
6438,34496
6439,34496
6440,34560
6441,34624
6442,34688
6443,34816
6444,34816
6445,34816
6446,34816
6447,34880
6448,34816
6449,34624
6450,34496
6451,34560
6452,34624
6453,34496
6454,34304
6455,34240
6456,34240
6457,34176
6458,34176
6459,34112
6460,34176
6461,33920
6462,33792
6463,33792
6464,33792
6465,33792
6466,33792
6467,33792
6468,33856
6469,33856
6470,33792
6471,33856
6472,33920
6473,33920
6474,33856
6475,33856
6476,33792
6477,33792
6478,33792
6479,33856
6480,33920
6481,34048
6482,34048
6483,34048
6484,34176
6485,34240
6486,34048
6487,33920
6488,33920
6489,33856
6490,33920
6491,33920
6492,33984
6493,34048
6494,34048
6495,34112
6496,34176
6497,34176
6498,34048
6499,33920
6500,33920
6501,33984
6502,33984
6503,33920
6504,33920
6505,33920
6506,33920
6507,33920
6508,33984
6509,34048
6510,34048
6511,33920
6512,33792
6513,33856
6514,33984
6515,34048
6516,33920
6517,33856
6518,33856
6519,33792
6520,33856
6521,33920
6522,33984
6523,33920
6524,33920
6525,33984
6526,33856
6527,33728
6528,33728
6529,33792
6530,33920
6531,33984
6532,34048
6533,34048
6534,34048
6535,34048
6536,33984
6537,33856
6538,33856
6539,33856
6540,33920
6541,33920
6542,34048
6543,34048
6544,34048
6545,34048
6546,34112
6547,34112
6548,33984
6549,33920
6550,33920
6551,33920
6552,33856
6553,33728
6554,33792
6555,33792
6556,33856
6557,33920
6558,33984
6559,34048
6560,34048
6561,33984
6562,34048
6563,34176
6564,34176
6565,34048
6566,33984
6567,33920
6568,33984
6569,33984
6570,33984
6571,33920
6572,33984
6573,33984
6574,33920
6575,33856
6576,33920
6577,33984
6578,34048
6579,34048
6580,34112
6581,34176
6582,34240
6583,34176
6584,34112
6585,34048
6586,34112
6587,34048
6588,34048
6589,33984
6590,33984
6591,34048
6592,34112
6593,34112
6594,34176
6595,34176
6596,34240
6597,34368
6598,34368
6599,34368
6600,34432
6601,34496
6602,34432
6603,34304
6604,34240
6605,34176
6606,34112
6607,34048
6608,33984
6609,33920
6610,33920
6611,33856
6612,33856
6613,33984
6614,34048
6615,34048
6616,34048
6617,34048
6618,34112
6619,34112
6620,34176
6621,34176
6622,34176
6623,34112
6624,34048
6625,33984
6626,34048
6627,34176
6628,34496
6629,35136
6630,36160
6631,37504
6632,38656
6633,39168
6634,38592
6635,36928
6636,34752
6637,32768
6638,31552
6639,31040
6640,31040
6641,31552
6642,32256
6643,32896
6644,33408
6645,33792
6646,34112
6647,34432
6648,34560
6649,34560
6650,34560
6651,34624
6652,34560
6653,34432
6654,34304
6655,34240
6656,34240
6657,34176
6658,34240
6659,34304
6660,34304
6661,34304
6662,34304
6663,34368
6664,34368
6665,34368
6666,34368
6667,34432
6668,34496
6669,34432
6670,34368
6671,34368
6672,34368
6673,34368
6674,34368
6675,34368
6676,34304
6677,34240
6678,34176
6679,34240
6680,34304
6681,34304
6682,34240
6683,34240
6684,34240
6685,34240
6686,34176
6687,34112
6688,34048
6689,34048
6690,33920
6691,33856
6692,33856
6693,33920
6694,33920
6695,33856
6696,33920
6697,33920
6698,33856
6699,33792
6700,33792
6701,33792
6702,33792
6703,33728
6704,33728
6705,33728
6706,33728
6707,33664
6708,33600
6709,33536
6710,33472
6711,33408
6712,33408
6713,33408
6714,33408
6715,33408
6716,33408
6717,33408
6718,33408
6719,33472
6720,33472
6721,33472
6722,33472
6723,33472
6724,33472
6725,33536
6726,33600
6727,33600
6728,33536
6729,33536
6730,33600
6731,33664
6732,33600
6733,33600
6734,33600
6735,33664
6736,33664
6737,33600
6738,33600
6739,33664
6740,33664
6741,33664
6742,33664
6743,33728
6744,33856
6745,33856
6746,33856
6747,33792
6748,33792
6749,33728
6750,33728
6751,33728
6752,33664
6753,33600
6754,33600
6755,33600
6756,33600
6757,33600
6758,33600
6759,33600
6760,33600
6761,33600
6762,33600
6763,33600
6764,33536
6765,33472
6766,33472
6767,33600
6768,33664
6769,33664
6770,33600
6771,33600
6772,33600
6773,33600
6774,33600
6775,33664
6776,33728
6777,33728
6778,33664
6779,33664
6780,33664
6781,33664
6782,33664
6783,33664
6784,33728
6785,33792
6786,33728
6787,33728
6788,33792
6789,33856
6790,33856
6791,33856
6792,33856
6793,33920
6794,33984
6795,33984
6796,33984
6797,34048
6798,34048
6799,34048
6800,34176
6801,34240
6802,34240
6803,34304
6804,34304
6805,34240
6806,34304
6807,34368
6808,34368
6809,34368
6810,34368
6811,34368
6812,34432
6813,34368
6814,34304
6815,34240
6816,34240
6817,34304
6818,34304
6819,34368
6820,34368
6821,34432
6822,34496
6823,34496
6824,34560
6825,34560
6826,34560
6827,34560
6828,34496
6829,34496
6830,34496
6831,34624
6832,34624
6833,34624
6834,34624
6835,34624
6836,34496
6837,34432
6838,34368
6839,34176
6840,33920
6841,33856
6842,33920
6843,33984
6844,33984
6845,34048
6846,34176
6847,34304
6848,34368
6849,34432
6850,34496
6851,34496
6852,34432
6853,34368
6854,34304
6855,34240
6856,34176
6857,34176
6858,34432
6859,34944
6860,35904
6861,37120
6862,38528
6863,39488
6864,39552
6865,38336
6866,36160
6867,33792
6868,31936
6869,30912
6870,30656
6871,30976
6872,31552
6873,32320
6874,33024
6875,33600
6876,33984
6877,34240
6878,34368
6879,34560
6880,34688
6881,34752
6882,34688
6883,34624
6884,34496
6885,34368
6886,34304
6887,34304
6888,34304
6889,34240
6890,34240
6891,34176
6892,34240
6893,34368
6894,34240
6895,33984
6896,33984
6897,34048
6898,34112
6899,34176
6900,34240
6901,34432
6902,34560
6903,34496
6904,34560
6905,34688
6906,34624
6907,34688
6908,34880
6909,35072
6910,35136
6911,34752
6912,34432
6913,34304
6914,34304
6915,34304
6916,34432
6917,34624
6918,34688
6919,34752
6920,34816
6921,34944
6922,34944
6923,34880
6924,34816
6925,34688
6926,34624
6927,34560
6928,34560
6929,34560
6930,34624
6931,34560
6932,34368
6933,34176
6934,34112
6935,34048
6936,33984
6937,33984
6938,34048
6939,34048
6940,33920
6941,33920
6942,33920
6943,33920
6944,33984
6945,34112
6946,34112
6947,34176
6948,34176
6949,34112
6950,34112
6951,34048
6952,34048
6953,34048
6954,34112
6955,34112
6956,34048
6957,34048
6958,34176
6959,34368
6960,34368
6961,34112
6962,33984
6963,33984
6964,34112
6965,34112
6966,34304
6967,34368
6968,34368
6969,34240
6970,33984
6971,33792
6972,33792
6973,33728
6974,33728
6975,33856
6976,33920
6977,33920
6978,33920
6979,33984
6980,33984
6981,33984
6982,33984
6983,34112
6984,34112
6985,33984
6986,33920
6987,33920
6988,33856
6989,33792
6990,33792
6991,33856
6992,33920
6993,33856
6994,33728
6995,33792
6996,33984
6997,34048
6998,34048
6999,34048
7000,33984
7001,33856
7002,33792
7003,33728
7004,33728
7005,33600
7006,33536
7007,33600
7008,33728
7009,33920
7010,34048
7011,34176
7012,34112
7013,34176
7014,34240
7015,34048
7016,33856
7017,33856
7018,33856
7019,33792
7020,33728
7021,33728
7022,33792
7023,33856
7024,33920
7025,34176
7026,34240
7027,34240
7028,34240
7029,34176
7030,34112
7031,34240
7032,34304
7033,34240
7034,34240
7035,34432
7036,34496
7037,34368
7038,34240
7039,33984
7040,33792
7041,33728
7042,33920
7043,33984
7044,33856
7045,33728
7046,33664
7047,33856
7048,33856
7049,33664
7050,33600
7051,33600
7052,33664
7053,33664
7054,33664
7055,33792
7056,33856
7057,34048
7058,34176
7059,34304
7060,34176
7061,33920
7062,34048
7063,34240
7064,33984
7065,33536
7066,33280
7067,33280
7068,33472
7069,33856
7070,34560
7071,35776
7072,37312
7073,38656
7074,39232
7075,38528
7076,36736
7077,34496
7078,32512
7079,31232
7080,30528
7081,30592
7082,31296
7083,32064
7084,32576
7085,33024
7086,33408
7087,33728
7088,33920
7089,34112
7090,34240
7091,34304
7092,34496
7093,34496
7094,34368
7095,34112
7096,33984
7097,33920
7098,33728
7099,33728
7100,33856
7101,33920
7102,33920
7103,33792
7104,33792
7105,33920
7106,33984
7107,34176
7108,34304
7109,34240
7110,34240
7111,34176
7112,34240
7113,34304
7114,34176
7115,34112
7116,34240
7117,34368
7118,34304
7119,34240
7120,34240
7121,34304
7122,34496
7123,34688
7124,34752
7125,34816
7126,34816
7127,35008
7128,34944
7129,34688
7130,34560
7131,34304
7132,33984
7133,33920
7134,33984
7135,34112
7136,34304
7137,34432
7138,34304
7139,34176
7140,34112
7141,33984
7142,33792
7143,33728
7144,33664
7145,33664
7146,33728
7147,33792
7148,33792
7149,33792
7150,33984
7151,34240
7152,34176
7153,33856
7154,33600
7155,33536
7156,33472
7157,33408
7158,33408
7159,33536
7160,33664
7161,33792
7162,33920
7163,33984
7164,34112
7165,34304
7166,34304
7167,34112
7168,33984
7169,33856
7170,33856
7171,33792
7172,33856
7173,33920
7174,33984
7175,34048
7176,34176
7177,34304
7178,34304
7179,34112
7180,33728
7181,33536
7182,33536
7183,33600
7184,33728
7185,33856
7186,33856
7187,33984
7188,34048
7189,34048
7190,34048
7191,34048
7192,34176
7193,34112
7194,33920
7195,33792
7196,33728
7197,33728
7198,33792
7199,33728
7200,33792
7201,33856
7202,33856
7203,33856
7204,33984
7205,34112
7206,34176
7207,34048
7208,33856
7209,33856
7210,33856
7211,33856
7212,33984
7213,33984
7214,33984
7215,33984
7216,33984
7217,33984
7218,33984
7219,33984
7220,33920
7221,33920
7222,33920
7223,33920
7224,33984
7225,34112
7226,34176
7227,34176
7228,34176
7229,34368
7230,34304
7231,34048
7232,33856
7233,33920
7234,34112
7235,34304
7236,34304
7237,34304
7238,34304
7239,34240
7240,34176
7241,34112
7242,34176
7243,34176
7244,33920
7245,33664
7246,33600
7247,33600
7248,33664
7249,33664
7250,33728
7251,33792
7252,33856
7253,33920
7254,34048
7255,34176
7256,34240
7257,34176
7258,34048
7259,33984
7260,33920
7261,33920
7262,34048
7263,34304
7264,34816
7265,35776
7266,37120
7267,38464
7268,39104
7269,38400
7270,36480
7271,34176
7272,32320
7273,31168
7274,30720
7275,30848
7276,31424
7277,32192
7278,32896
7279,33600
7280,34048
7281,34432
7282,34624
7283,34624
7284,34624
7285,34624
7286,34560
7287,34368
7288,34240
7289,34176
7290,34112
7291,34112
7292,34240
7293,34368
7294,34432
7295,34368
7296,34368
7297,34176
7298,33984
7299,33920
7300,33984
7301,34048
7302,34112
7303,34176
7304,34304
7305,34368
7306,34432
7307,34496
7308,34624
7309,34624
7310,34624
7311,34688
7312,34752
7313,34752
7314,34688
7315,34560
7316,34560
7317,34560
7318,34688
7319,34816
7320,34752
7321,34752
7322,34688
7323,34624
7324,34624
7325,34624
7326,34624
7327,34560
7328,34496
7329,34560
7330,34560
7331,34560
7332,34624
7333,34624
7334,34432
7335,34240
7336,34048
7337,33792
7338,33664
7339,33536
7340,33536
7341,33600
7342,33728
7343,33792
7344,33792
7345,33920
7346,33984
7347,33984
7348,33856
7349,33792
7350,33920
7351,34048
7352,33984
7353,33920
7354,33920
7355,33920
7356,33920
7357,33920
7358,33920
7359,34112
7360,34368
7361,34496
7362,34240
7363,33920
7364,33728
7365,33664
7366,33728
7367,33856
7368,33856
7369,33920
7370,34048
7371,34112
7372,34112
7373,34112
7374,34112
7375,34176
7376,34368
7377,34368
7378,34112
7379,33856
7380,33792
7381,33792
7382,33728
7383,33792
7384,33920
7385,33920
7386,33856
7387,33856
7388,33856
7389,33920
7390,33984
7391,34112
7392,34112
7393,34048
7394,33920
7395,33856
7396,33920
7397,33920
7398,33856
7399,33792
7400,33920
7401,34112
7402,34112
7403,33920
7404,33856
7405,33792
7406,33792
7407,33728
7408,33728
7409,33856
7410,33920
7411,33984
7412,34048
7413,34048
7414,34048
7415,34048
7416,34112
7417,34176
7418,34112
7419,34048
7420,33984
7421,34048
7422,34048
7423,34048
7424,34048
7425,34112
7426,34240
7427,34240
7428,34112
7429,34048
7430,34048
7431,34048
7432,34112
7433,34112
7434,34112
7435,34048
7436,33920
7437,33920
7438,33984
7439,33984
7440,33920
7441,33792
7442,33792
7443,33792
7444,33728
7445,33728
7446,33856
7447,33856
7448,33920
7449,33920
7450,33984
7451,34048
7452,34176
7453,34240
7454,34112
7455,33984
7456,33856
7457,33728
7458,33920
7459,34176
7460,34752
7461,35712
7462,37056
7463,38528
7464,39424
7465,39040
7466,37504
7467,35200
7468,32960
7469,31360
7470,30592
7471,30464
7472,30912
7473,31744
7474,32448
7475,33088
7476,33664
7477,34176
7478,34432
7479,34560
7480,34560
7481,34496
7482,34368
7483,34368
7484,34368
7485,34304
7486,34304
7487,34304
7488,34368
7489,34496
7490,34368
7491,34176
7492,34048
7493,34048
7494,33984
7495,34048
7496,34048
7497,34176
7498,34240
7499,34304
7500,34368
7501,34432
7502,34496
7503,34560
7504,34560
7505,34560
7506,34432
7507,34432
7508,34496
7509,34560
7510,34688
7511,34816
7512,34880
7513,34752
7514,34752
7515,34688
7516,34688
7517,34688
7518,34688
7519,34688
7520,34752
7521,34880
7522,34880
7523,34688
7524,34560
7525,34496
7526,34496
7527,34432
7528,34304
7529,34240
7530,34240
7531,34240
7532,34240
7533,34176
7534,34048
7535,33856
7536,33792
7537,33728
7538,33792
7539,33792
7540,33792
7541,33856
7542,33984
7543,33984
7544,33856
7545,33792
7546,33792
7547,33792
7548,33856
7549,33856
7550,33856
7551,33856
7552,33984
7553,33984
7554,33984
7555,34048
7556,34048
7557,34112
7558,34112
7559,34112
7560,34048
7561,34112
7562,34048
7563,34048
7564,34176
7565,34176
7566,34048
7567,33920
7568,33856
7569,33920
7570,33920
7571,33920
7572,33856
7573,33856
7574,33920
7575,33920
7576,33984
7577,33984
7578,33856
7579,33856
7580,33920
7581,33920
7582,33920
7583,33984
7584,33984
7585,33984
7586,33920
7587,33920
7588,33984
7589,33984
7590,33920
7591,33856
7592,33920
7593,33920
7594,33792
7595,33792
7596,33856
7597,33856
7598,33856
7599,33856
7600,33792
7601,33856
7602,33920
7603,33920
7604,33920
7605,33920
7606,33920
7607,33920
7608,33856
7609,33792
7610,33792
7611,33792
7612,33920
7613,34048
7614,34112
7615,33984
7616,33984
7617,34048
7618,34048
7619,33984
7620,34112
7621,34176
7622,34048
7623,34048
7624,34048
7625,34112
7626,34112
7627,34112
7628,34112
7629,34176
7630,34112
7631,34048
7632,33984
7633,33984
7634,33920
7635,33792
7636,33792
7637,33856
7638,33792
7639,33728
7640,33728
7641,33728
7642,33792
7643,33856
7644,33856
7645,33792
7646,33792
7647,33792
7648,33792
7649,33856
7650,33920
7651,33984
7652,33920
7653,33920
7654,34048
7655,34304
7656,34752
7657,35584
7658,36864
7659,38272
7660,39232
7661,39040
7662,37632
7663,35520
7664,33344
7665,31616
7666,30720
7667,30528
7668,30848
7669,31552
7670,32320
7671,33024
7672,33664
7673,34048
7674,34240
7675,34496
7676,34560
7677,34496
7678,34496
7679,34432
7680,34496
7681,34368
7682,34304
7683,34240
7684,34112
7685,34048
7686,34048
7687,33984
7688,33984
7689,33984
7690,33984
7691,34048
7692,34176
7693,34304
7694,34368
7695,34432
7696,34496
7697,34432
7698,34432
7699,34496
7700,34560
7701,34496
7702,34368
7703,34304
7704,34432
7705,34496
7706,34560
7707,34624
7708,34624
7709,34688
7710,34688
7711,34752
7712,34816
7713,34880
7714,34944
7715,34880
7716,34752
7717,34688
7718,34560
7719,34560
7720,34496
7721,34496
7722,34432
7723,34304
7724,34240
7725,34304
7726,34304
7727,34112
7728,33984
7729,33920
7730,33792
7731,33792
7732,33728
7733,33728
7734,33728
7735,33856
7736,33920
7737,33792
7738,33728
7739,33728
7740,33728
7741,33792
7742,33792
7743,33792
7744,33856
7745,33920
7746,33984
7747,34048
7748,33984
7749,33920
7750,33984
7751,34048
7752,34048
7753,33984
7754,33984
7755,33920
7756,33984
7757,33984
7758,33920
7759,33856
7760,33856
7761,33856
7762,33920
7763,33856
7764,33856
7765,33920
7766,33984
7767,33920
7768,33984
7769,34048
7770,34048
7771,33984
7772,33920
7773,33792
7774,33728
7775,33728
7776,33728
7777,33664
7778,33664
7779,33728
7780,33856
7781,33984
7782,33920
7783,33728
7784,33728
7785,33728
7786,33600
7787,33664
7788,33728
7789,33664
7790,33664
7791,33728
7792,33728
7793,33728
7794,33792
7795,33856
7796,33856
7797,33856
7798,33856
7799,33920
7800,33920
7801,33792
7802,33728
7803,33792
7804,33792
7805,33728
7806,33728
7807,33792
7808,33792
7809,33920
7810,34048
7811,34048
7812,34048
7813,34048
7814,34112
7815,34112
7816,33984
7817,33984
7818,34112
7819,34176
7820,34048
7821,33984
7822,33984
7823,33920
7824,33728
7825,33664
7826,33728
7827,33728
7828,33600
7829,33536
7830,33600
7831,33664
7832,33664
7833,33792
7834,34048
7835,34048
7836,33856
7837,33792
7838,33856
7839,33920
7840,33920
7841,33984
7842,34112
7843,34112
7844,33920
7845,34048
7846,34496
7847,35392
7848,36608
7849,37952
7850,38912
7851,38720
7852,37184
7853,35072
7854,33024
7855,31680
7856,31040
7857,30848
7858,31168
7859,31808
7860,32512
7861,33280
7862,33792
7863,34176
7864,34432
7865,34560
7866,34560
7867,34560
7868,34752
7869,34688
7870,34496
7871,34496
7872,34496
7873,34240
7874,34048
7875,34240
7876,34176
7877,33984
7878,33920
7879,33984
7880,34112
7881,34176
7882,34304
7883,34368
7884,34496
7885,34560
7886,34560
7887,34496
7888,34496
7889,34560
7890,34624
7891,34688
7892,34688
7893,34688
7894,34688
7895,34688
7896,34752
7897,34880
7898,35072
7899,35072
7900,34880
7901,34752
7902,34688
7903,34688
7904,34752
7905,34752
7906,34752
7907,34816
7908,34944
7909,34944
7910,34880
7911,34688
7912,34560
7913,34496
7914,34432
7915,34432
7916,34368
7917,34304
7918,34304
7919,34240
7920,34176
7921,34176
7922,34240
7923,34304
7924,34240
7925,34176
7926,34048
7927,33984
7928,34048
7929,34112
7930,34112
7931,33920
7932,33792
7933,33728
7934,33728
7935,33792
7936,33856
7937,34048
7938,34240
7939,34304
7940,34304
7941,34304
7942,34240
7943,34240
7944,34176
7945,34176
7946,34176
7947,34112
7948,34112
7949,34112
7950,34048
7951,34048
7952,34048
7953,34048
7954,34048
7955,34048
7956,34048
7957,33984
7958,33984
7959,34048
7960,34048
7961,34048
7962,34048
7963,34112
7964,34048
7965,33984
7966,33920
7967,33920
7968,33920
7969,33920
7970,33920
7971,33856
7972,33856
7973,33792
7974,33792
7975,33728
7976,33664
7977,33536
7978,33472
7979,33472
7980,33472
7981,33472
7982,33472
7983,33536
7984,33600
7985,33600
7986,33664
7987,33728
7988,33728
7989,33728
7990,33728
7991,33792
7992,33792
7993,33792
7994,33856
7995,33920
7996,33920
7997,33792
7998,33728
7999,33600
8000,33472
8001,33344
8002,33216
8003,33216
8004,33280
8005,33280
8006,33280
8007,33280
8008,33344
8009,33344
8010,33408
8011,33472
8012,33600
8013,33664
8014,33792
8015,33792
8016,33920
8017,33984
8018,33984
8019,33984
8020,33920
8021,33920
8022,34112
8023,34496
8024,35264
8025,36352
8026,37504
8027,38144
8028,37824
8029,36480
8030,34816
8031,33216
8032,32128
8033,31616
8034,31552
8035,31680
8036,32192
8037,32896
8038,33472
8039,33856
8040,34112
8041,34304
8042,34304
8043,34304
8044,34240
8045,34240
8046,34240
8047,34176
8048,34176
8049,34112
8050,33920
8051,33664
8052,33472
8053,33408
8054,33408
8055,33408
8056,33344
8057,33344
8058,33344
8059,33344
8060,33280
8061,33344
8062,33472
8063,33536
8064,33536
8065,33472
8066,33536
8067,33728
8068,34048
8069,34176
8070,33984
8071,33856
8072,33984
8073,34048
8074,34048
8075,34048
8076,33920
8077,33984
8078,34176
8079,34496
8080,34496
8081,34496
8082,34432
8083,34368
8084,34240
8085,33984
8086,33920
8087,33920
8088,33984
8089,34048
8090,34048
8091,34112
8092,34112
8093,34048
8094,33984
8095,34048
8096,34240
8097,34368
8098,34368
8099,34240
8100,34112
8101,34048
8102,33920
8103,33856
8104,33728
8105,33664
8106,33600
8107,33664
8108,33728
8109,33728
8110,33664
8111,33600
8112,33664
8113,33536
8114,33536
8115,33600
8116,33792
8117,33920
8118,34112
8119,34048
8120,34304
8121,34240
8122,34112
8123,34048
8124,34048
8125,34112
8126,33984
8127,33920
8128,33984
8129,33920
8130,34048
8131,34112
8132,34048
8133,33920
8134,33920
8135,34048
8136,34176
8137,34240
8138,34176
8139,34112
8140,33984
8141,34048
8142,34176
8143,34304
8144,34368
8145,34368
8146,34368
8147,34368
8148,34432
8149,34368
8150,34240
8151,34112
8152,34176
8153,34048
8154,33984
8155,33728
8156,33664
8157,33792
8158,34112
8159,34368
8160,34496
8161,34560
8162,34560
8163,34560
8164,34624
8165,34496
8166,34176
8167,33984
8168,33792
8169,33792
8170,33728
8171,33792
8172,33792
8173,33792
8174,33792
8175,33856
8176,33920
8177,33920
8178,33856
8179,33856
8180,33920
8181,33984
8182,34112
8183,34240
8184,34240
8185,34240
8186,34240
8187,34304
8188,34496
8189,34944
8190,35648
8191,36672
8192,37824
8193,38720
8194,38784
8195,37824
8196,36032
8197,34112
8198,32320
8199,32128
8200,31872
8201,31680
8202,32128
8203,32896
8204,33664
8205,34240
8206,34560
8207,34752
8208,34880
8209,35008
8210,35072
8211,35136
8212,35200
8213,35200
8214,35072
8215,35072
8216,35072
8217,34944
8218,34816
8219,34688
8220,34560
8221,34560
8222,34624
8223,34688
8224,34624
8225,34880
8226,34880
8227,34944
8228,35008
8229,35008
8230,35072
8231,35136
8232,35264
8233,35520
8234,35648
8235,35712
8236,35712
8237,35712
8238,35712
8239,35648
8240,35840
8241,35840
8242,35840
8243,35840
8244,35776
8245,35840
8246,35776
8247,35648
8248,35520
8249,35520
8250,35584
8251,35648
8252,35712
8253,35648
8254,35392
8255,35200
8256,35072
8257,34880
8258,34752
8259,34688
8260,34624
8261,34688
8262,34752
8263,34752
8264,34752
8265,34816
8266,34816
8267,34688
8268,34624
8269,34624
8270,34624
8271,34624
8272,34624
8273,34688
8274,34688
8275,34752
8276,34752
8277,34752
8278,34752
8279,34688
8280,34624
8281,34688
8282,34816
8283,34816
8284,34816
8285,34816
8286,34688
8287,34496
8288,34496
8289,34432
8290,34432
8291,34432
8292,34432
8293,34368
8294,34240
8295,34176
8296,34176
8297,34112
8298,34112
8299,34112
8300,34176
8301,34176
8302,34304
8303,34496
8304,34432
8305,34432
8306,34368
8307,34304
8308,34304
8309,34368
8310,34304
8311,34112
8312,34048
8313,33984
8314,34048
8315,34112
8316,34240
8317,34304
8318,34432
8319,34560
8320,34624
8321,34624
8322,34560
8323,34560
8324,34688
8325,34752
8326,34688
8327,34752
8328,34752
8329,34624
8330,34432
8331,34368
8332,34368
8333,34304
8334,34112
8335,34048
8336,34048
8337,34048
8338,33984
8339,34048
8340,34112
8341,34112
8342,34176
8343,34240
8344,34368
8345,34368
8346,34304
8347,34240
8348,34240
8349,34368
8350,34368
8351,34304
8352,34240
8353,34176
8354,34240
8355,34624
8356,35264
8357,36352
8358,37760
8359,38976
8360,39488
8361,38976
8362,37248
8363,34944
8364,32832
8365,31488
8366,30848
8367,30848
8368,31296
8369,32064
8370,32832
8371,33408
8372,33984
8373,34368
8374,34560
8375,34624
8376,34688
8377,34688
8378,34688
8379,34624
8380,34688
8381,34560
8382,34560
8383,34560
8384,34496
8385,34560
8386,34560
8387,34496
8388,34432
8389,34496
8390,34560
8391,34560
8392,34496
8393,34560
8394,34496
8395,34560
8396,34496
8397,34624
8398,34816
8399,34688
8400,34560
8401,34496
8402,34496
8403,34624
8404,34688
8405,34816
8406,34944
8407,35072
8408,35200
8409,35200
8410,35136
8411,35136
8412,35136
8413,35264
8414,35264
8415,35136
8416,35072
8417,35072
8418,35136
8419,34880
8420,34688
8421,34560
8422,34496
8423,34368
8424,34304
8425,34304
8426,34304
8427,34240
8428,34176
8429,34176
8430,34112
8431,33984
8432,33984
8433,33984
8434,33856
8435,33856
8436,33920
8437,33984
8438,34112
8439,34048
8440,34112
8441,34112
8442,34176
8443,34240
8444,34304
8445,34176
8446,33984
8447,33920
8448,33984
8449,33920
8450,33920
8451,33920
8452,34048
8453,34240
8454,34240
8455,34304
8456,34304
8457,34368
8458,34368
8459,34368
8460,34368
8461,34304
8462,34240
8463,34240
8464,34176
8465,34176
8466,34176
8467,34112
8468,34240
8469,34176
8470,34176
8471,34176
8472,34240
8473,34304
8474,34368
8475,34240
8476,34368
8477,34432
8478,34176
8479,33920
8480,33856
8481,33920
8482,33984
8483,34048
8484,34112
8485,34304
8486,34368
8487,34432
8488,34496
8489,34560
8490,34624
8491,34688
8492,34560
8493,34560
8494,34560
8495,34496
8496,34368
8497,34368
8498,34432
8499,34368
8500,34368
8501,34368
8502,34432
8503,34560
8504,34688
8505,34624
8506,34496
8507,34368
8508,34432
8509,34368
8510,34240
8511,34112
8512,34048
8513,33920
8514,33856
8515,33920
8516,33984
8517,33984
8518,33984
8519,34112
8520,34176
8521,34176
8522,34176
8523,34240
8524,34240
8525,34304
8526,34240
8527,34176
8528,34176
8529,34048
8530,34048
8531,34176
8532,34496
8533,35072
8534,36032
8535,37312
8536,38528
8537,39296
8538,39168
8539,37632
8540,35392
8541,33088
8542,31296
8543,30528
8544,30528
8545,31040
8546,31744
8547,32576
8548,33216
8549,33728
8550,34048
8551,34240
8552,34432
8553,34560
8554,34624
8555,34560
8556,34560
8557,34432
8558,34368
8559,34304
8560,34304
8561,34176
8562,34048
8563,33856
8564,33792
8565,33728
8566,33728
8567,33856
8568,34048
8569,34240
8570,34368
8571,34368
8572,34368
8573,34304
8574,34240
8575,34240
8576,34304
8577,34368
8578,34496
8579,34560
8580,34560
8581,34432
8582,34496
8583,34560
8584,34432
8585,34304
8586,34304
8587,34432
8588,34496
8589,34624
8590,34752
8591,34816
8592,34880
8593,34880
8594,34816
8595,34752
8596,34624
8597,34560
8598,34496
8599,34368
8600,34240
8601,34048
8602,34048
8603,33984
8604,33856
8605,33792
8606,33664
8607,33600
8608,33536
8609,33472
8610,33472
8611,33536
8612,33600
8613,33600
8614,33600
8615,33728
8616,33792
8617,33728
8618,33728
8619,33792
8620,33792
8621,33856
8622,33856
8623,33920
8624,33920
8625,33920
8626,33984
8627,34048
8628,34112
8629,34112
8630,34048
8631,34048
8632,34112
8633,34112
8634,34176
8635,34240
8636,34368
8637,34304
8638,34304
8639,34240
8640,34240
8641,34240
8642,34176
8643,34176
8644,34176
8645,34176
8646,34112
8647,34048
8648,34048
8649,33984
8650,33920
8651,33920
8652,33920
8653,33920
8654,33920
8655,33920
8656,33856
8657,33920
8658,33920
8659,33920
8660,33920
8661,33920
8662,33920
8663,33856
8664,33856
8665,33920
8666,33984
8667,33984
8668,33984
8669,34048
8670,33984
8671,33920
8672,33920
8673,33920
8674,33984
8675,34048
8676,34112
8677,34176
8678,34112
8679,34112
8680,34048
8681,34048
8682,34048
8683,34048
8684,34048
8685,34048
8686,34048
8687,33984
8688,33984
8689,34048
8690,34112
8691,34240
8692,34176
8693,34176
8694,34176
8695,34176
8696,34176
8697,34176
8698,34240
8699,34304
8700,34304
8701,34240
8702,34240
8703,34304
8704,34304
8705,34240
8706,34304
8707,34368
8708,34304
8709,34240
8710,34176
8711,34176
8712,34176
8713,34176
8714,34240
8715,34368
8716,34368
8717,34304
8718,34304
8719,34304
8720,34304
8721,34304
8722,34304
8723,34368
8724,34304
8725,34240
8726,34176
8727,34112
8728,34112
8729,34048
8730,33984
8731,34112
8732,34112
8733,34112
8734,34112
8735,34112
8736,34112
8737,34048
8738,34048
8739,33984
8740,33984
8741,34048
8742,33984
8743,33984
8744,33984
8745,33984
8746,33920
8747,33920
8748,33920
8749,33920
8750,33856
8751,33856
8752,33856
8753,33920
8754,33984
8755,33984
8756,33920
8757,33984
8758,33984
8759,33984
8760,34048
8761,34048
8762,34048
8763,33984
8764,33984
8765,34048
8766,34048
8767,33984
8768,33856
8769,33856
8770,33920
8771,33920
8772,33856
8773,33856
8774,33856
8775,33792
8776,33792
8777,33792
8778,33792
8779,33856
8780,33984
8781,34048
8782,34048
8783,33984
8784,33920
8785,33856
8786,33920
8787,33856
8788,33728
8789,33728
8790,33792
8791,33920
8792,33984
8793,34048
8794,34112
8795,34112
8796,33984
8797,33792
8798,33728
8799,33664
8800,33792
8801,33984
8802,34176
8803,34368
8804,34432
8805,34432
8806,34496
8807,34496
8808,34432
8809,34304
8810,34176
8811,34048
8812,33920
8813,33728
8814,33728
8815,33792
8816,33792
8817,33664
8818,33408
8819,33216
8820,33344
8821,33600
8822,33920
8823,34304
8824,34496
8825,34624
8826,34560
8827,34496
8828,34368
8829,34112
8830,33984
8831,33856
8832,33856
8833,34240
8834,34880
8835,35328
8836,36032
8837,37120
8838,38144
8839,38528
8840,37760
8841,35968
8842,33792
8843,31936
8844,30912
8845,30720
8846,31104
8847,31680
8848,32448
8849,33216
8850,33728
8851,34048
8852,34112
8853,34304
8854,34432
8855,34496
8856,34496
8857,34496
8858,34432
8859,34432
8860,34368
8861,34112
8862,33728
8863,33600
8864,33984
8865,34432
8866,34688
8867,34752
8868,34752
8869,34624
8870,34432
8871,34176
8872,34112
8873,34112
8874,34240
8875,34432
8876,34688
8877,34880
8878,34944
8879,34944
8880,34880
8881,34752
8882,34688
8883,34496
8884,34240
8885,34176
8886,34368
8887,34816
8888,35008
8889,35072
8890,35008
8891,35008
8892,35200
8893,35456
8894,35584
8895,35584
8896,35392
8897,35200
8898,35136
8899,35008
8900,34816
8901,34496
8902,34176
8903,33856
8904,33600
8905,33600
8906,33728
8907,34048
8908,34304
8909,34304
8910,34112
8911,34048
8912,33984
8913,33920
8914,33792
8915,33792
8916,33856
8917,33920
8918,33984
8919,34048
8920,33984
8921,33792
8922,33728
8923,33728
8924,33792
8925,33792
8926,33792
8927,33792
8928,33856
8929,33920
8930,33920
8931,34048
8932,34048
8933,34112
8934,34112
8935,34112
8936,33984
8937,33920
8938,33920
8939,33920
8940,33792
8941,33792
8942,33856
8943,33920
8944,33920
8945,33856
8946,33728
8947,33600
8948,33664
8949,33664
8950,33664
8951,33536
8952,33408
8953,33408
8954,33344
8955,33408
8956,33600
8957,33600
8958,33536
8959,33472
8960,33600
8961,33664
8962,33728
8963,33792
8964,33792
8965,33792
8966,33728
8967,33600
8968,33472
8969,33472
8970,33472
8971,33536
8972,33472
8973,33600
8974,33792
8975,33728
8976,33600
8977,33600
8978,33664
8979,33664
8980,33472
8981,33472
8982,33600
8983,33664
8984,33728
8985,33856
8986,33920
8987,33856
8988,33664
8989,33536
8990,33664
8991,33664
8992,33600
8993,33536
8994,33664
8995,33728
8996,33664
8997,33664
8998,33792
8999,33856
9000,33984
9001,34048
9002,34112
9003,34048
9004,34048
9005,34048
9006,34048
9007,34112
9008,34048
9009,33984
9010,33920
9011,33728
9012,33728
9013,33856
9014,34048
9015,34240
9016,34240
9017,34176
9018,34112
9019,34112
9020,34048
9021,34048
9022,34112
9023,34176
9024,34240
9025,34240
9026,34240
9027,34304
9028,34304
9029,34176
9030,34112
9031,34112
9032,34112
9033,33920
9034,33856
9035,33792
9036,33856
9037,33984
9038,33920
9039,33792
9040,33728
9041,33664
9042,33728
9043,33856
9044,33920
9045,33856
9046,33728
9047,33792
9048,33856
9049,34048
9050,34240
9051,34560
9052,35328
9053,36480
9054,37824
9055,38912
9056,39232
9057,38400
9058,36416
9059,34048
9060,32192
9061,31040
9062,30592
9063,30784
9064,31488
9065,32128
9066,32768
9067,33152
9068,33536
9069,33920
9070,34176
9071,34240
9072,34304
9073,34368
9074,34368
9075,34368
9076,34176
9077,34048
9078,33984
9079,33920
9080,33920
9081,33984
9082,33984
9083,33920
9084,33856
9085,33792
9086,33792
9087,33728
9088,33728
9089,33856
9090,33920
9091,33920
9092,33920
9093,33984
9094,33984
9095,33984
9096,33984
9097,33984
9098,34048
9099,34176
9100,34176
9101,34112
9102,34112
9103,34304
9104,34368
9105,34432
9106,34624
9107,34752
9108,34752
9109,34816
9110,34880
9111,34816
9112,34688
9113,34624
9114,34624
9115,34624
9116,34496
9117,34368
9118,34304
9119,34240
9120,34176
9121,34112
9122,34112
9123,34048
9124,33920
9125,33728
9126,33664
9127,33600
9128,33600
9129,33472
9130,33408
9131,33472
9132,33600
9133,33600
9134,33600
9135,33664
9136,33728
9137,33792
9138,33792
9139,33856
9140,33920
9141,33984
9142,33984
9143,33984
9144,34048
9145,34112
9146,34112
9147,34176
9148,34240
9149,34240
9150,34176
9151,34112
9152,34112
9153,34176
9154,34112
9155,34048
9156,33984
9157,33856
9158,33920
9159,34048
9160,34112
9161,34176
9162,34176
9163,34112
9164,34176
9165,34176
9166,34112
9167,34112
9168,34176
9169,34176
9170,34240
9171,34176
9172,34112
9173,34112
9174,34048
9175,34048
9176,34048
9177,34048
9178,34048
9179,34048
9180,33984
9181,33984
9182,34048
9183,34112
9184,33984
9185,33792
9186,33792
9187,33920
9188,34048
9189,34112
9190,34048
9191,33984
9192,33856
9193,33856
9194,33920
9195,33920
9196,33920
9197,33984
9198,33984
9199,33920
9200,33856
9201,33856
9202,33984
9203,34112
9204,34112
9205,34112
9206,34176
9207,34176
9208,34240
9209,34240
9210,34240
9211,34304
9212,34304
9213,34176
9214,34112
9215,34176
9216,34112
9217,33984
9218,34048
9219,34112
9220,34112
9221,34048
9222,34112
9223,34240
9224,34240
9225,34112
9226,33984
9227,33984
9228,33984
9229,33984
9230,33984
9231,34048
9232,34112
9233,34112
9234,34176
9235,34304
9236,34368
9237,34368
9238,34304
9239,34240
9240,34240
9241,34240
9242,34048
9243,34048
9244,34112
9245,34240
9246,34240
9247,34240
9248,34240
9249,34240
9250,34176
9251,34176
9252,34304
9253,34432
9254,34432
9255,34432
9256,34368
9257,34240
9258,34176
9259,34176
9260,34240
9261,34368
9262,34432
9263,34560
9264,34624
9265,34688
9266,34624
9267,34560
9268,34496
9269,34560
9270,34496
9271,34432
9272,34176
9273,33984
9274,33856
9275,33856
9276,33984
9277,34112
9278,34240
9279,34240
9280,34240
9281,34240
9282,34240
9283,34240
9284,34176
9285,34240
9286,34304
9287,34240
9288,34240
9289,34560
9290,34880
9291,35456
9292,36416
9293,37696
9294,38912
9295,39616
9296,39232
9297,37696
9298,35456
9299,33216
9300,31616
9301,30912
9302,30912
9303,31296
9304,32000
9305,32512
9306,33152
9307,33728
9308,34240
9309,34560
9310,34752
9311,34816
9312,34624
9313,34496
9314,34496
9315,34560
9316,34560
9317,34560
9318,34496
9319,34368
9320,34304
9321,34176
9322,34240
9323,34304
9324,34368
9325,34368
9326,34304
9327,34240
9328,34240
9329,34240
9330,34368
9331,34496
9332,34560
9333,34560
9334,34560
9335,34624
9336,34624
9337,34560
9338,34560
9339,34624
9340,34688
9341,34624
9342,34624
9343,34752
9344,34944
9345,34944
9346,34944
9347,35008
9348,35072
9349,35072
9350,34944
9351,34880
9352,34880
9353,34944
9354,34944
9355,34944
9356,34944
9357,34880
9358,34688
9359,34496
9360,34432
9361,34304
9362,34176
9363,34112
9364,34048
9365,34048
9366,34048
9367,33920
9368,33920
9369,33984
9370,33984
9371,33920
9372,33920
9373,33792
9374,33664
9375,33600
9376,33664
9377,33792
9378,33856
9379,33920
9380,34048
9381,34240
9382,34176
9383,33984
9384,33856
9385,33984
9386,33984
9387,33984
9388,33984
9389,34048
9390,34112
9391,34176
9392,34240
9393,34240
9394,34176
9395,33984
9396,33792
9397,33856
9398,33920
9399,33984
9400,33984
9401,33984
9402,34048
9403,34112
9404,34176
9405,34176
9406,34240
9407,34112
9408,33984
9409,33856
9410,33856
9411,33792
9412,33792
9413,33792
9414,33984
9415,34048
9416,34048
9417,34048
9418,34048
9419,34048
9420,33984
9421,33856
9422,33856
9423,33920
9424,33920
9425,33920
9426,33920
9427,33984
9428,33984
9429,33920
9430,33920
9431,33920
9432,33984
9433,33920
9434,33920
9435,33984
9436,34112
9437,34048
9438,33984
9439,33920
9440,33856
9441,33920
9442,33984
9443,34048
9444,34112
9445,34048
9446,34112
9447,34112
9448,33984
9449,33856
9450,33792
9451,33856
9452,33920
9453,33920
9454,33920
9455,33920
9456,34048
9457,34112
9458,34112
9459,33984
9460,33856
9461,33920
9462,33920
9463,33984
9464,34048
9465,34112
9466,34112
9467,34112
9468,34112
9469,34112
9470,34048
9471,33984
9472,33920
9473,33856
9474,33792
9475,33792
9476,33856
9477,33984
9478,33984
9479,33984
9480,33984
9481,33984
9482,33984
9483,33984
9484,34048
9485,34112
9486,34112
9487,33984
9488,33920
9489,33984
9490,33984
9491,33920
9492,33920
9493,33984
9494,34048
9495,34048
9496,33984
9497,34048
9498,34176
9499,34240
9500,34176
9501,34048
9502,33984
9503,33920
9504,33856
9505,33920
9506,34112
9507,34176
9508,34176
9509,34176
9510,34176
9511,34304
9512,34304
9513,34240
9514,34240
9515,34176
9516,34048
9517,34048
9518,34048
9519,34112
9520,34048
9521,33920
9522,33984
9523,34048
9524,33984
9525,33920
9526,33920
9527,33984
9528,33984
9529,33984
9530,33984
9531,33984
9532,33984
9533,33920
9534,33984
9535,34112
9536,34176
9537,34048
9538,34048
9539,34112
9540,34176
9541,34432
9542,34816
9543,35712
9544,36928
9545,38336
9546,39296
9547,39360
9548,38208
9549,36096
9550,33728
9551,31936
9552,30976
9553,30656
9554,30912
9555,31552
9556,32256
9557,32896
9558,33408
9559,33792
9560,34112
9561,34368
9562,34368
9563,34368
9564,34432
9565,34368
9566,34304
9567,34304
9568,34304
9569,34368
9570,34304
9571,34112
9572,34112
9573,34176
9574,34176
9575,34112
9576,34112
9577,34176
9578,34176
9579,34112
9580,34176
9581,34304
9582,34368
9583,34304
9584,34240
9585,34240
9586,34176
9587,34176
9588,34176
9589,34240
9590,34368
9591,34432
9592,34496
9593,34688
9594,34752
9595,34688
9596,34624
9597,34688
9598,34880
9599,34880
9600,34816
9601,34752
9602,34752
9603,34752
9604,34688
9605,34624
9606,34624
9607,34624
9608,34496
9609,34432
9610,34432
9611,34368
9612,34176
9613,34048
9614,33984
9615,33984
9616,33920
9617,33856
9618,33920
9619,33920
9620,33920
9621,33792
9622,33792
9623,33728
9624,33664
9625,33536
9626,33600
9627,33664
9628,33728
9629,33664
9630,33792
9631,33920
9632,33920
9633,33792
9634,33856
9635,33920
9636,33984
9637,33920
9638,33856
9639,33792
9640,33792
9641,33792
9642,33792
9643,33856
9644,33920
9645,33856
9646,33856
9647,33984
9648,34048
9649,34048
9650,33984
9651,33984
9652,33984
9653,33920
9654,33856
9655,33792
9656,33856
9657,33920
9658,33920
9659,33920
9660,33920
9661,33920
9662,33856
9663,33856
9664,33856
9665,33856
9666,33728
9667,33728
9668,33728
9669,33792
9670,33728
9671,33728
9672,33792
9673,33856
9674,33856
9675,33920
9676,33984
9677,33984
9678,33856
9679,33728
9680,33728
9681,33792
9682,33792
9683,33728
9684,33792
9685,33856
9686,33920
9687,33856
9688,33856
9689,33920
9690,33920
9691,33920
9692,33856
9693,33856
9694,33856
9695,33792
9696,33664
9697,33728
9698,33792
9699,33792
9700,33792
9701,33920
9702,33920
9703,33920
9704,33856
9705,33856
9706,33920
9707,33856
9708,33792
9709,33792
9710,33792
9711,33856
9712,33856
9713,33856
9714,33920
9715,33920
9716,33856
9717,33856
9718,33792
9719,33728
9720,33664
9721,33664
9722,33664
9723,33728
9724,33792
9725,33792
9726,33920
9727,33984
9728,33984
9729,33920
9730,33920
9731,33984
9732,33920
9733,33792
9734,33792
9735,33856
9736,33856
9737,33856
9738,33856
9739,33856
9740,33920
9741,33856
9742,33792
9743,33920
9744,33984
9745,33920
9746,33792
9747,33792
9748,33856
9749,33856
9750,33920
9751,34048
9752,33984
9753,33920
9754,33856
9755,33856
9756,33856
9757,33792
9758,33728
9759,33728
9760,33856
9761,33920
9762,33920
9763,33920
9764,33984
9765,33984
9766,33920
9767,33856
9768,33856
9769,33984
9770,34048
9771,33984
9772,34048
9773,33984
9774,33984
9775,33920
9776,33984
9777,34048
9778,33984
9779,33856
9780,33856
9781,33920
9782,33856
9783,33856
9784,33856
9785,33920
9786,33984
9787,33920
9788,33920
9789,33920
9790,33920
9791,33920
9792,33856
9793,33920
9794,34112
9795,34304
9796,34880
9797,35712
9798,36928
9799,38144
9800,38912
9801,38848
9802,37568
9803,35456
9804,32960
9805,31808
9806,31040
9807,30848
9808,31168
9809,31744
9810,32384
9811,33024
9812,33472
9813,33792
9814,34048
9815,34240
9816,34304
9817,34368
9818,34432
9819,34496
9820,34368
9821,34304
9822,34368
9823,34368
9824,34176
9825,34048
9826,34048
9827,34048
9828,33984
9829,33984
9830,34048
9831,34112
9832,34048
9833,34048
9834,34112
9835,34240
9836,34304
9837,34240
9838,34240
9839,34304
9840,34304
9841,34240
9842,34240
9843,34304
9844,34368
9845,34432
9846,34496
9847,34560
9848,34624
9849,34624
9850,34560
9851,34560
9852,34624
9853,34688
9854,34624
9855,34624
9856,34688
9857,34624
9858,34624
9859,34624
9860,34624
9861,34624
9862,34496
9863,34496
9864,34496
9865,34368
9866,34112
9867,33984
9868,33920
9869,33920
9870,33792
9871,33792
9872,33856
9873,33984
9874,33920
9875,33856
9876,33856
9877,33792
9878,33728
9879,33664
9880,33664
9881,33664
9882,33600
9883,33536
9884,33600
9885,33664
9886,33728
9887,33728
9888,33856
9889,33920
9890,33856
9891,33792
9892,33728
9893,33856
9894,33920
9895,33856
9896,33856
9897,33856
9898,33920
9899,33920
9900,33920
9901,33920
9902,33856
9903,33792
9904,33856
9905,33920
9906,34048
9907,33984
9908,33856
9909,33856
9910,33856
9911,33856
9912,33792
9913,33792
9914,33920
9915,33984
9916,33920
9917,33856
9918,33856
9919,33856
9920,33792
9921,33792
9922,33856
9923,33856
9924,33728
9925,33664
9926,33728
9927,33792
9928,33792
9929,33728
9930,33856
9931,33920
9932,33856
9933,33792
9934,33728
9935,33728
9936,33728
9937,33792
9938,33856
9939,33792
9940,33856
9941,33792
9942,33856
9943,33856
9944,33856
9945,33856
9946,33856
9947,33856
9948,33856
9949,33856
9950,33920
9951,33984
9952,33920
9953,33856
9954,33856
9955,33856
9956,33856
9957,33856
9958,33856
9959,33920
9960,33856
9961,33792
9962,33792
9963,33856
9964,33792
9965,33920
9966,33984
9967,34048
9968,34112
9969,33984
9970,33856
9971,33856
9972,33920
9973,33920
9974,33984
9975,34048
9976,34048
9977,33920
9978,33792
9979,33728
9980,33792
9981,33856
9982,33920
9983,33856
9984,33984
9985,33984
9986,33984
9987,33920
9988,33984
9989,34048
9990,34048
9991,34112
9992,34112
9993,34112
9994,34048
9995,34048
9996,34176
9997,34240
9998,34048
9999,33984
10000,33856
10001,33792
10002,33792
10003,33792
10004,33920
10005,33984
10006,33984
10007,33984
10008,33984
10009,34048
10010,34048
10011,33984
10012,33920
10013,33984
10014,33984
10015,34304
10016,34688
10017,35584
10018,36864
10019,38272
10020,39296
10021,39424
10022,38272
10023,36160
10024,33920
10025,32128
10026,31104
10027,30720
10028,31040
10029,31040
10030,32320
10031,32960
10032,33408
10033,33728
10034,34048
10035,34240
10036,34304
10037,34432
10038,34624
10039,34624
10040,34432
10041,34368
10042,34368
10043,34432
10044,34304
10045,34176
10046,34176
10047,34176
10048,34112
10049,34112
10050,34112
10051,34176
10052,34176
10053,34176
10054,34240
10055,34368
10056,34368
10057,34240
10058,34240
10059,34176
10060,34240
10061,34240
10062,34304
10063,34496
10064,34560
10065,34496
10066,34496
10067,34560
10068,34560
10069,34560
10070,34624
10071,34752
10072,34816
10073,34816
10074,34752
10075,34816
10076,34816
10077,34688
10078,34624
10079,34688
10080,34688
10081,34560
10082,34432
10083,34368
10084,34368
10085,34368
10086,34176
10087,34112
10088,34112
10089,34048
10090,33920
10091,33856
10092,33856
10093,33856
10094,33792
10095,33792
10096,33792
10097,33728
10098,33728
10099,33664
10100,33664
10101,33728
10102,33728
10103,33728
10104,33792
10105,33856
10106,33792
10107,33728
10108,33792
10109,33792
10110,33792
10111,33792
10112,33792
10113,33856
10114,33856
10115,33792
10116,33792
10117,33920
10118,33984
10119,33984
10120,33920
10121,33920
10122,33984
10123,33920
10124,33920
10125,33984
10126,33984
10127,33984
10128,33856
10129,33920
10130,34048
10131,33984
10132,33856
10133,33792
10134,33856
10135,33856
10136,33856
10137,33856
10138,33856
10139,33792
10140,33792
10141,33920
10142,33920
10143,33920
10144,33856
10145,33792
10146,33856
10147,33920
10148,33920
10149,33856
10150,33856
10151,33856
10152,33856
10153,33792
10154,33728
10155,33728
10156,33792
10157,33856
10158,33920
10159,33984
10160,33984
10161,33856
10162,33856
10163,33920
10164,33920
10165,33856
10166,33856
10167,33920
10168,33920
10169,33920
10170,33920
10171,33984
10172,33920
10173,33856
10174,33856
10175,33856
10176,33920
10177,33920
10178,33856
10179,33856
10180,33920
10181,33856
10182,33920
10183,33920
10184,33920
10185,33856
10186,33792
10187,33856
10188,33920
10189,33856
10190,33856
10191,33856
10192,33920
10193,34048
10194,33984
10195,33984
10196,33984
10197,33920
10198,33856
10199,33920
10200,33984
10201,33984
10202,33920
10203,33856
10204,33920
10205,34048
10206,33984
10207,33920
10208,33920
10209,33984
10210,33984
10211,33920
10212,33920
10213,33984
10214,34112
10215,34176
10216,34240
10217,34240
10218,34240
10219,34112
10220,34112
10221,34112
10222,34048
10223,33920
10224,33856
10225,33920
10226,33920
10227,33984
10228,33984
10229,34048
10230,34048
10231,33984
10232,33920
10233,34048
10234,34112
10235,34112
10236,34048
10237,33984
10238,34048
10239,33984
10240,34240
10241,34688
10242,35520
10243,36864
10244,38208
10245,39168
10246,39232
10247,38016
10248,35840
10249,33856
10250,32256
10251,31360
10252,31040
10253,31360
10254,31360
10255,32512
10256,33152
10257,33600
10258,33920
10259,34176
10260,34368
10261,34496
10262,34560
10263,34624
10264,34560
10265,34496
10266,34496
10267,34432
10268,34368
10269,34240
10270,34240
10271,34304
10272,34304
10273,34304
10274,34304
10275,34304
10276,34368
10277,34304
10278,34304
10279,34304
10280,34304
10281,34304
10282,34304
10283,34432
10284,34496
10285,34496
10286,34496
10287,34560
10288,34624
10289,34624
10290,34624
10291,34560
10292,34560
10293,34624
10294,34688
10295,34688
10296,34816
10297,34880
10298,34752
10299,34688
10300,34752
10301,34816
10302,34752
10303,34688
10304,34688
10305,34688
10306,34688
10307,34560
10308,34624
10309,34560
10310,34496
10311,34368
10312,34304
10313,34304
10314,34176
10315,34048
10316,34112
10317,34112
10318,34112
10319,33984
10320,33856
10321,33856
10322,33856
10323,33792
10324,33728
10325,33728
10326,33728
10327,33728
10328,33792
10329,33792
10330,33984
10331,33984
10332,33920
10333,33920
10334,34048
10335,34112
10336,34112
10337,34112
10338,34112
10339,34112
10340,34048
10341,33984
10342,33984
10343,33920
10344,33856
10345,33984
10346,34048
10347,34112
10348,34048
10349,33984
10350,34048
10351,34112
10352,34048
10353,34048
10354,34112
10355,34112
10356,33984
10357,33984
10358,34048
10359,33984
10360,33984
10361,33920
10362,33984
10363,34048
10364,34112
10365,33984
10366,33920
10367,33856
10368,33856
10369,33792
10370,33728
10371,33856
10372,33920
10373,33920
10374,33856
10375,33920
10376,33920
10377,33920
10378,33920
10379,33984
10380,34048
10381,33984
10382,33920
10383,34048
10384,34048
10385,34048
10386,33984
10387,33920
10388,33984
10389,33920
10390,33920
10391,33984
10392,34048
10393,34048
10394,33920
10395,33856
10396,33792
10397,33792
10398,33792
10399,33856
10400,33984
10401,33984
10402,33920
10403,33920
10404,33856
10405,33984
10406,33984
10407,33984
10408,34048
10409,34112
10410,34048
10411,33984
10412,34048
10413,34112
10414,34048
10415,33984
10416,33984
10417,34048
10418,34048
10419,33984
10420,33984
10421,33984
10422,33984
10423,33984
10424,33920
10425,33984
10426,34048
10427,33984
10428,33984
10429,33984
10430,33984
10431,33856
10432,33856
10433,33920
10434,34048
10435,34048
10436,34048
10437,34112
10438,34176
10439,34176
10440,34176
10441,34240
10442,34240
10443,34240
10444,34240
10445,34240
10446,34304
10447,34176
10448,33984
10449,33920
10450,33856
10451,33920
10452,33856
10453,33856
10454,33920
10455,34048
10456,34176
10457,34176
10458,34176
10459,34176
10460,34112
10461,34048
10462,34048
10463,34176
10464,34112
10465,34368
10466,34752
10467,35520
10468,36608
10469,37952
10470,39168
10471,39616
10472,38784
10473,36864
10474,34496
10475,32512
10476,31232
10477,30720
10478,30912
10479,31424
10480,32192
10481,32832
10482,33344
10483,33792
10484,34112
10485,34304
10486,34432
10487,34496
10488,34560
10489,34496
10490,34496
10491,34432
10492,34432
10493,34432
10494,34368
10495,34304
10496,34240
10497,34240
10498,34112
10499,34048
10500,34112
10501,34176
10502,34176
10503,34176
10504,34240
10505,34304
10506,34240
10507,34176
10508,34176
10509,34240
10510,34304
10511,34304
10512,34368
10513,34496
10514,34560
10515,34560
10516,34560
10517,34624
10518,34688
10519,34624
10520,34624
10521,34688
10522,34752
10523,34752
10524,34752
10525,34816
10526,34752
10527,34688
10528,34688
10529,34752
10530,34752
10531,34624
10532,34496
10533,34496
10534,34432
10535,34304
10536,34176
10537,34176
10538,34240
10539,34176
10540,34048
10541,33984
10542,33984
10543,33920
10544,33792
10545,33728
10546,33792
10547,33728
10548,33664
10549,33664
10550,33792
10551,33792
10552,33728
10553,33664
10554,33728
10555,33792
10556,33856
10557,33856
10558,33856
10559,33920
10560,33920
10561,33856
10562,33856
10563,33984
10564,33984
10565,33920
10566,33856
10567,33920
10568,33984
10569,33984
10570,33984
10571,34112
10572,34112
10573,33920
10574,33856
10575,33920
10576,33984
10577,33920
10578,33984
10579,34048
10580,33984
10581,33920
10582,33920
10583,33984
10584,34048
10585,34048
10586,33920
10587,33984
10588,33984
10589,33984
10590,33920
10591,33984
10592,34048
10593,33920
10594,33792
10595,33792
10596,33856
10597,33920
10598,33920
10599,33856
10600,33920
10601,33984
10602,33920
10603,33856
10604,33856
10605,33920
10606,33984
10607,33920
10608,33984
10609,34048
10610,33984
10611,33920
10612,33920
10613,33920
10614,33920
10615,33856
10616,33856
10617,33920
10618,33920
10619,33856
10620,33856
10621,33920
10622,33984
10623,33984
10624,33984
10625,33984
10626,33984
10627,33984
10628,33920
10629,33984
10630,34048
10631,33984
10632,33920
10633,33984
10634,34048
10635,34048
10636,33920
10637,33920
10638,34048
10639,33984
10640,33920
10641,33920
10642,33984
10643,33984
10644,33920
10645,33984
10646,34048
10647,34112
10648,33984
10649,33920
10650,33984
10651,33920
10652,33856
10653,33920
10654,34048
10655,34048
10656,33984
10657,33984
10658,34048
10659,34048
10660,33920
10661,33920
10662,33984
10663,34112
10664,34176
10665,34176
10666,34240
10667,34304
10668,34304
10669,34240
10670,34176
10671,34112
10672,33984
10673,33856
10674,33792
10675,33856
10676,33920
10677,33920
10678,33920
10679,34048
10680,34176
10681,34112
10682,34112
10683,34176
10684,34240
10685,34176
10686,34112
10687,34240
10688,34496
10689,34944
10690,35776
10691,37184
10692,38592
10693,39488
10694,39296
10695,37888
10696,35776
10697,33600
10698,31936
10699,31040
10700,30912
10701,31232
10702,31808
10703,32448
10704,33152
10705,33728
10706,34112
10707,34432
10708,34624
10709,34688
10710,34624
10711,34496
10712,34496
10713,34496
10714,34432
10715,34304
10716,34240
10717,34304
10718,34368
10719,34304
10720,34368
10721,34368
10722,34304
10723,34176
10724,34112
10725,34176
10726,34240
10727,34240
10728,34240
10729,34304
10730,34368
10731,34368
10732,34496
10733,34624
10734,34688
10735,34560
10736,34496
10737,34496
10738,34560
10739,34560
10740,34496
10741,34560
10742,34624
10743,34688
10744,34688
10745,34752
10746,34880
10747,34880
10748,34816
10749,34752
10750,34816
10751,34688
10752,34560
10753,34496
10754,34624
10755,34624
10756,34560
10757,34432
10758,34432
10759,34368
10760,34304
10761,34240
10762,34176
10763,34240
10764,34176
10765,33984
10766,33920
10767,33920
10768,33920
10769,33792
10770,33792
10771,33856
10772,33792
10773,33792
10774,33856
10775,33920
10776,33856
10777,33792
10778,33792
10779,33856
10780,33920
10781,33920
10782,33920
10783,34048
10784,34176
10785,34112
10786,34112
10787,34112
10788,34176
10789,34112
10790,34048
10791,33984
10792,33984
10793,33984
10794,33920
10795,33984
10796,34048
10797,34112
10798,34048
10799,33984
10800,34048
10801,34048
10802,33984
10803,34048
10804,34048
10805,34112
10806,34048
10807,33984
10808,33984
10809,34048
10810,34048
10811,33984
10812,33920
10813,33920
10814,33792
10815,33728
10816,33792
10817,33920
10818,33984
10819,33920
10820,33920
10821,34048
10822,34048
10823,33984
10824,33984
10825,33984
10826,34048
10827,34048
10828,33984
10829,33984
10830,33984
10831,33920
10832,33920
10833,33984
10834,34048
10835,33984
10836,33920
10837,33984
10838,33984
10839,33920
10840,33856
10841,33856
10842,33984
10843,33984
10844,33984
10845,33984
10846,34048
10847,34048
10848,33984
10849,33920
10850,33984
10851,33984
10852,33984
10853,33920
10854,33984
10855,33984
10856,33920
10857,33920
10858,33920
10859,33984
10860,33984
10861,33920
10862,33984
10863,34048
10864,33920
10865,33920
10866,33984
10867,34112
10868,34176
10869,34048
10870,34048
10871,33984
10872,33984
10873,33984
10874,33920
10875,33920
10876,33856
10877,33792
10878,33856
10879,33984
10880,34048
10881,34112
10882,34112
10883,34112
10884,34112
10885,34048
10886,34048
10887,34112
10888,34112
10889,34112
10890,34112
10891,34176
10892,34176
10893,34112
10894,33984
10895,33920
10896,33984
10897,33984
10898,33984
10899,33984
10900,34048
10901,34048
10902,33984
10903,33984
10904,34112
10905,34240
10906,34176
10907,34112
10908,34112
10909,34048
10910,33920
10911,33856
10912,34048
10913,34432
10914,35008
10915,35968
10916,37376
10917,38784
10918,39616
10919,39360
10920,37760
10921,35520
10922,33280
10923,31616
10924,30912
