,ECG
0,34048
1,34048
2,33984
3,33920
4,33920
5,33920
6,33920
7,33920
8,33920
9,33984
10,34048
11,34048
12,33984
13,33984
14,33984
15,33984
16,34048
17,34112
18,34176
19,34176
20,34176
21,34176
22,34176
23,34176
24,34176
25,34176
26,34176
27,34176
28,34112
29,34112
30,34176
31,34240
32,34304
33,34240
34,34176
35,34048
36,33984
37,33984
38,33984
39,33920
40,33856
41,33792
42,33728
43,33792
44,33792
45,33856
46,33920
47,33984
48,34048
49,34048
50,34048
51,34048
52,33984
53,34048
54,34048
55,34048
56,33984
57,33920
58,34048
59,34368
60,35008
61,36032
62,37440
63,38848
64,39616
65,39104
66,37312
67,34880
68,32704
69,31168
70,30400
71,30400
72,30848
73,31616
74,32384
75,33152
76,33728
77,34112
78,34304
79,34432
80,34496
81,34432
82,34432
83,34304
84,34304
85,34240
86,34176
87,34176
88,34112
89,34112
90,34112
91,34112
92,34176
93,34176
94,34240
95,34240
96,34304
97,34304
98,34368
99,34368
100,34432
101,34432
102,34368
103,34368
104,34368
105,34432
106,34496
107,34560
108,34688
109,34752
110,34816
111,34816
112,34880
113,34944
114,34944
115,34880
116,34880
117,34880
118,34816
119,34688
120,34560
121,34496
122,34432
123,34304
124,34240
125,34240
126,34240
127,34176
128,34112
129,34112
130,34048
131,33984
132,33920
133,33920
134,33856
135,33856
136,33856
137,33856
138,33856
139,33920
140,33920
141,33920
142,33920
143,33984
144,33984
145,33920
146,33920
147,33984
148,33984
149,34048
150,34048
151,34112
152,34112
153,34048
154,34112
155,34112
156,34048
157,34048
158,34048
159,34112
160,34176
161,34176
162,34112
163,34176
164,34112
165,34112
166,34112
167,34112
168,34048
169,34048
170,34048
171,34112
172,34048
173,33984
174,33920
175,33856
176,33856
177,33856
178,33792
179,33856
180,33920
181,34048
182,34048
183,34048
184,34048
185,34048
186,33984
187,33984
188,33984
189,33920
190,33920
191,33984
192,34048
193,33984
194,33984
195,33920
196,33920
197,33920
198,33920
199,33920
200,33984
201,34048
202,34048
203,34048
204,33984
205,34048
206,34112
207,34112
208,34176
209,34240
210,34176
211,34112
212,34048
213,34176
214,34240
215,34240
216,34304
217,34368
218,34368
219,34240
220,34176
221,34112
222,34112
223,33984
224,33856
225,33792
226,33728
227,33664
228,33664
229,33728
230,33856
231,33792
232,33856
233,33920
234,33984
235,34048
236,34112
237,34048
238,34112
239,34048
240,33984
241,33920
242,33984
243,34112
244,34496
245,35584
246,36160
247,37568
248,38784
249,39360
250,38720
251,36992
252,34688
253,32448
254,31040
255,30464
256,30464
257,30976
258,31744
259,32576
260,33344
261,33792
262,34112
263,34368
264,34496
265,34560
266,34560
267,34560
268,34496
269,34368
270,34304
271,34176
272,34112
273,34112
274,34112
275,34112
276,34112
277,34048
278,34048
279,34048
280,34112
281,34176
282,34240
283,34304
284,34368
285,34368
286,34304
287,34368
288,34496
289,34624
290,34624
291,34624
292,34624
293,34688
294,34688
295,34688
296,34752
297,34816
298,34816
299,34752
300,34752
301,34688
302,34624
303,34624
304,34560
305,34496
306,34368
307,34240
308,34240
309,34240
310,34240
311,34240
312,34176
313,34176
314,34240
315,34112
316,34048
317,33984
318,33984
319,33920
320,33920
321,33856
322,33856
323,33856
324,33792
325,33792
326,33792
327,33792
328,33792
329,33856
330,33920
331,33920
332,33920
333,33920
334,33984
335,34112
336,34112
337,34176
338,34240
339,34304
340,34304
341,34240
342,34176
343,34176
344,34112
345,34048
346,34112
347,34112
348,34112
349,34112
350,34112
351,34112
352,34048
353,33984
354,33984
355,33984
356,33984
357,33984
358,33984
359,33984
360,34048
361,34048
362,34048
363,34048
364,34048
365,34048
366,33984
367,33984
368,33984
369,33856
370,33856
371,33856
372,33920
373,33984
374,33920
375,33920
376,33984
377,33920
378,33920
379,33984
380,33984
381,34048
382,34048
383,34048
384,34176
385,34176
386,34112
387,34112
388,34176
389,34112
390,34048
391,34048
392,34048
393,34176
394,34240
395,34176
396,34176
397,34112
398,34112
399,34112
400,34176
401,34176
402,34176
403,34240
404,34304
405,34240
406,34176
407,34176
408,34176
409,34112
410,34048
411,33920
412,33792
413,33728
414,33792
415,33856
416,33920
417,33984
418,34048
419,33984
420,33984
421,33984
422,33984
423,33920
424,33920
425,33920
426,33920
427,33856
428,33856
429,34048
430,34560
431,35328
432,36544
433,37952
434,39104
435,39424
436,38400
437,36416
438,34112
439,32192
440,31104
441,30656
442,30720
443,31232
444,31936
445,32704
446,33344
447,33856
448,34176
449,34368
450,34432
451,34496
452,34432
453,34432
454,34368
455,34304
456,34304
457,34304
458,34240
459,34304
460,34304
461,34240
462,34240
463,34240
464,34240
465,34176
466,34176
467,34240
468,34240
469,34304
470,34304
471,34304
472,34368
473,34368
474,34496
475,34560
476,34624
477,34624
478,34624
479,34816
480,34880
481,34880
482,34880
483,34880
484,34880
485,34752
486,34688
487,34624
488,34624
489,34560
490,34560
491,34496
492,34432
493,34368
494,34304
495,34240
496,34240
497,34176
498,34176
499,34112
500,34176
501,34112
502,34048
503,33984
504,33920
505,33920
506,33920
507,33856
508,33920
509,33920
510,33856
511,33792
512,33856
513,33920
514,33920
515,33984
516,34112
517,34112
518,34048
519,34048
520,34048
521,34112
522,34176
523,34112
524,34112
525,34176
526,34240
527,34240
528,34240
529,34240
530,34176
531,34112
532,34048
533,34048
534,34048
535,34048
536,34048
537,34048
538,33984
539,33984
540,33920
541,33984
542,33984
543,33984
544,34048
545,34048
546,34048
547,34048
548,33984
549,33984
550,33984
551,33984
552,33984
553,33920
554,34112
555,34112
556,34112
557,34048
558,33984
559,33856
560,33792
561,33792
562,33856
563,33792
564,33792
565,33728
566,33856
567,33920
568,33984
569,34048
570,34112
571,34112
572,34112
573,34048
574,34112
575,34112
576,34048
577,33984
578,33984
579,33984
580,33984
581,33984
582,33984
583,33984
584,33984
585,33920
586,33984
587,34048
588,34112
589,34048
590,33920
591,33856
592,33856
593,33856
594,33984
595,34048
596,34176
597,34240
598,34176
599,34176
600,34048
601,33984
602,33920
603,33984
604,34048
605,34048
606,33984
607,33856
608,33856
609,33856
610,33856
611,33920
612,33920
613,33856
614,33792
615,33792
616,33920
617,33984
618,34048
619,34112
620,34176
621,34112
622,34112
623,34304
624,34624
625,35200
626,36288
627,37760
628,39168
629,40000
630,39616
631,37888
632,35328
633,32704
634,30912
635,30080
636,30080
637,30656
638,31488
639,32384
640,33088
641,33664
642,34112
643,34368
644,34496
645,34624
646,34688
647,34624
648,34624
649,34560
650,34496
651,34432
652,34368
653,34304
654,34304
655,34304
656,34240
657,34304
658,34304
659,34240
660,34112
661,34112
662,34112
663,34112
664,34112
665,34112
666,34240
667,34432
668,34496
669,34560
670,34688
671,34752
672,34816
673,34816
674,34880
675,34880
676,34944
677,34944
678,35008
679,35072
680,35008
681,34880
682,34816
683,34816
684,34816
685,34752
686,34560
687,34432
688,34368
689,34304
690,34240
691,34176
692,34176
693,34176
694,34112
695,34112
696,34112
697,34048
698,34048
699,34048
700,34112
701,34048
702,34048
703,34048
704,34112
705,34112
706,33984
707,33856
708,33792
709,33792
710,33856
711,33856
712,33920
713,33984
714,33984
715,33984
716,34048
717,34112
718,34112
719,34112
720,34176
721,34176
722,34176
723,34176
724,34240
725,34240
726,34240
727,34176
728,34176
729,34176
730,34112
731,34048
732,34048
733,34048
734,33984
735,33984
736,33984
737,33984
738,33984
739,33984
740,34048
741,34112
742,34112
743,34112
744,34048
745,33984
746,33984
747,33984
748,33984
749,33984
750,33984
751,33984
752,33984
753,34048
754,33984
755,33984
756,33984
757,33984
758,34048
759,33984
760,33984
761,33984
762,33984
763,33984
764,33920
765,33984
766,34048
767,34048
768,33984
769,33984
770,33984
771,34048
772,34048
773,33984
774,33984
775,33984
776,33920
777,33920
778,33920
779,33984
780,34048
781,34048
782,34112
783,34112
784,34176
785,34112
786,34048
787,34112
788,34176
789,34176
790,34112
791,34112
792,34112
793,34112
794,34112
795,34240
796,34304
797,34368
798,34304
799,34304
800,34240
801,34112
802,34048
803,33984
804,33984
805,33856
806,33792
807,33792
808,33792
809,33792
810,33792
811,33856
812,33920
813,33984
814,33984
815,34048
816,34048
817,34048
818,34048
819,34048
820,34048
821,34112
822,34048
823,34112
824,34368
825,34880
826,35712
827,37120
828,38656
829,39744
830,39680
831,38272
832,35904
833,33344
834,31488
835,30400
836,30208
837,30720
838,31424
839,32192
840,32960
841,33536
842,33984
843,34240
844,34432
845,34496
846,34496
847,34496
848,34432
849,34368
850,34304
851,34240
852,34176
853,34176
854,34176
855,34112
856,34048
857,34048
858,34112
859,34176
860,34240
861,34240
862,34304
863,34368
864,34368
865,34304
866,34304
867,34304
868,34368
869,34432
870,34496
871,34560
872,34624
873,34624
874,34752
875,34752
876,34816
877,34816
878,34816
879,34816
880,34816
881,34752
882,34752
883,34688
884,34688
885,34624
886,34624
887,34560
888,34560
889,34496
890,34368
891,34368
892,34240
893,34176
894,34112
895,34112
896,34048
897,33984
898,33856
899,33920
900,33920
901,33856
902,33792
903,33792
904,33792
905,33856
906,33856
907,33856
908,33920
909,33920
910,33920
911,33984
912,34048
913,34048
914,33984
915,33984
916,34048
917,34112
918,34048
919,34048
920,34048
921,34048
922,34048
923,33984
924,33920
925,33920
926,33920
927,33920
928,33984
929,33984
930,34048
931,34048
932,34048
933,34112
934,34112
935,34048
936,34048
937,34048
938,34048
939,34048
940,33984
941,33984
942,33984
943,33920
944,33920
945,33920
946,33920
947,33920
948,33984
949,33984
950,33984
951,33920
952,33856
953,33856
954,33856
955,33920
956,33856
957,33856
958,33856
959,33920
960,33920
961,33920
962,33984
963,33984
964,33984
965,33984
966,33984
967,33984
968,33984
969,33984
970,34048
971,34048
972,34048
973,34048
974,34048
975,34048
976,34048
977,34048
978,34112
979,34112
980,34112
981,34112
982,34112
983,34112
984,34176
985,34176
986,34112
987,34048
988,34048
989,33984
990,33984
991,33984
992,33920
993,33792
994,33792
995,33792
996,33856
997,33856
998,33856
999,33920
1000,34048
1001,33984
1002,33920
1003,33856
1004,33856
1005,33856
1006,33856
1007,33856
1008,33920
1009,33920
1010,34048
1011,34432
1012,35136
1013,36288
1014,37696
1015,38912
1016,39296
1017,38464
1018,36480
1019,34240
1020,32384
1021,31232
1022,30720
1023,30720
1024,31232
1025,31936
1026,32704
1027,33280
1028,33728
1029,34112
1030,34304
1031,34368
1032,34432
1033,34432
1034,34432
1035,34368
1036,34368
1037,34304
1038,34240
1039,34176
1040,34112
1041,34112
1042,34176
1043,34176
1044,34176
1045,34304
1046,34368
1047,34368
1048,34304
1049,34240
1050,34176
1051,34176
1052,34176
1053,34240
1054,34240
1055,34304
1056,34304
1057,34368
1058,34560
1059,34624
1060,34688
1061,34688
1062,34752
1063,34816
1064,34816
1065,34880
1066,34880
1067,34944
1068,34880
1069,34816
1070,34816
1071,34688
1072,34624
1073,34496
1074,34432
1075,34304
1076,34176
1077,34048
1078,34048
1079,34048
1080,34048
1081,34112
1082,34112
1083,34112
1084,34112
1085,34048
1086,33984
1087,33984
1088,33984
1089,33920
1090,33984
1091,33984
1092,33984
1093,33984
1094,33920
1095,33920
1096,33984
1097,33984
1098,34048
1099,34048
1100,33984
1101,33856
1102,33856
1103,33920
1104,33984
1105,34048
1106,34048
1107,34048
1108,34048
1109,34048
1110,34112
1111,34176
1112,34176
1113,34240
1114,34304
1115,34304
1116,34240
1117,34176
1118,34112
1119,34112
1120,34112
1121,34048
1122,34048
1123,33984
1124,33984
1125,33984
1126,33984
1127,33984
1128,34048
1129,33984
1130,33920
1131,33856
1132,33856
1133,33920
1134,33984
1135,33984
1136,33984
1137,34048
1138,34048
1139,34048
1140,34048
1141,34048
1142,33984
1143,33984
1144,33984
1145,34048
1146,34048
1147,34112
1148,34112
1149,34176
1150,34176
1151,34176
1152,34112
1153,34048
1154,34048
1155,34112
1156,34176
1157,34304
1158,34368
1159,34432
1160,34304
1161,34240
1162,34176
1163,34112
1164,34048
1165,34048
1166,34048
1167,33920
1168,33856
1169,33792
1170,33792
1171,33792
1172,33792
1173,33856
1174,33920
1175,33920
1176,33856
1177,33920
1178,33984
1179,34048
1180,34048
1181,34048
1182,33984
1183,33984
1184,34112
1185,34432
1186,35136
1187,36352
1188,37760
1189,38912
1190,39296
1191,38464
1192,36544
1193,34304
1194,32256
1195,31104
1196,30592
1197,30656
1198,31040
1199,31744
1200,32576
1201,33216
1202,33728
1203,34112
1204,34368
1205,34560
1206,34560
1207,34624
1208,34624
1209,34560
1210,34432
1211,34304
1212,34304
1213,34240
1214,34176
1215,34112
1216,34112
1217,34112
1218,34176
1219,34176
1220,34240
1221,34176
1222,34112
1223,34176
1224,34176
1225,34240
1226,34176
1227,34304
1228,34368
1229,34496
1230,34560
1231,34560
1232,34624
1233,34688
1234,34752
1235,34752
1236,34816
1237,34880
1238,34944
1239,34880
1240,34880
1241,34880
1242,34816
1243,34752
1244,34688
1245,34688
1246,34624
1247,34496
1248,34304
1249,34240
1250,34240
1251,34240
1252,34176
1253,34112
1254,34112
1255,34112
1256,34048
1257,33984
1258,33984
1259,33920
1260,33920
1261,33856
1262,33792
1263,33792
1264,33728
1265,33792
1266,33792
1267,33856
1268,33856
1269,33792
1270,33856
1271,33920
1272,34048
1273,34048
1274,34112
1275,34112
1276,34112
1277,34048
1278,34112
1279,34112
1280,34112
1281,34112
1282,34176
1283,34240
1284,34240
1285,34112
1286,34048
1287,34048
1288,34048
1289,34048
1290,34112
1291,34112
1292,34048
1293,34048
1294,34048
1295,34048
1296,34048
1297,34048
1298,33984
1299,33984
1300,34048
1301,33984
1302,33920
1303,33920
1304,33984
1305,33920
1306,33920
1307,33920
1308,33920
1309,33920
1310,33920
1311,33984
1312,33984
1313,33984
1314,33920
1315,33920
1316,33984
1317,33984
1318,33984
1319,33984
1320,33984
1321,34048
1322,33984
1323,34048
1324,34176
1325,34240
1326,34240
1327,34176
1328,34048
1329,34048
1330,34048
1331,34112
1332,34240
1333,34368
1334,34368
1335,34240
1336,34176
1337,34112
1338,34048
1339,33984
1340,33920
1341,33920
1342,33792
1343,33664
1344,33600
1345,33664
1346,33728
1347,33728
1348,33792
1349,33920
1350,33984
1351,33984
1352,33984
1353,34048
1354,34048
1355,34048
1356,33920
1357,33920
1358,33984
1359,34112
1360,34432
1361,35008
1362,36032
1363,37440
1364,38528
1365,39360
1366,39232
1367,37760
1368,35456
1369,32960
1370,31168
1371,30464
1372,30336
1373,30784
1374,31488
1375,32384
1376,33088
1377,33664
1378,34048
1379,34304
1380,34432
1381,34496
1382,34560
1383,34560
1384,34432
1385,34304
1386,34240
1387,34176
1388,34176
1389,34112
1390,34112
1391,34112
1392,34176
1393,34112
1394,34048
1395,34048
1396,34112
1397,34112
1398,34112
1399,34176
1400,34240
1401,34240
1402,34304
1403,34432
1404,34496
1405,34560
1406,34560
1407,34624
1408,34688
1409,34688
1410,34752
1411,34816
1412,34880
1413,34880
1414,34880
1415,34944
1416,34880
1417,34880
1418,34816
1419,34816
1420,34752
1421,34624
1422,34560
1423,34496
1424,34432
1425,34368
1426,34304
1427,34176
1428,34176
1429,34112
1430,34048
1431,33984
1432,33920
1433,33984
1434,33984
1435,33920
1436,33920
1437,33920
1438,33920
1439,33856
1440,33856
1441,33920
1442,33856
1443,33856
1444,33856
1445,33920
1446,33920
1447,33920
1448,33920
1449,33984
1450,33984
1451,33984
1452,33984
1453,33984
1454,33984
1455,33920
1456,33920
1457,33984
1458,34112
1459,34112
1460,34112
1461,34176
1462,34176
1463,34112
1464,34112
1465,34112
1466,34112
1467,34112
1468,34048
1469,34048
1470,34048
1471,34048
1472,34048
1473,33984
1474,33984
1475,33984
1476,33856
1477,33792
1478,33792
1479,33856
1480,33920
1481,33984
1482,34048
1483,34048
1484,33984
1485,33984
1486,33984
1487,33984
1488,33984
1489,33984
1490,33984
1491,34048
1492,33984
1493,33984
1494,33984
1495,33984
1496,34048
1497,34048
1498,34048
1499,34112
1500,34176
1501,34240
1502,34240
1503,34176
1504,34176
1505,34176
1506,34176
1507,34240
1508,34368
1509,34304
1510,34240
1511,34176
1512,34176
1513,34112
1514,34048
1515,33920
1516,33792
1517,33728
1518,33664
1519,33664
1520,33728
1521,33792
1522,33792
1523,33856
1524,33920
1525,33920
1526,33984
1527,34048
1528,34112
1529,34112
1530,34112
1531,34048
1532,34048
1533,34048
1534,34176
1535,34560
1536,35008
1537,35968
1538,37312
1539,38720
1540,39616
1541,39232
1542,37440
1543,35008
1544,32832
1545,31232
1546,30400
1547,30336
1548,30720
1549,31488
1550,32384
1551,33088
1552,33600
1553,34048
1554,34304
1555,34496
1556,34560
1557,34624
1558,34496
1559,34368
1560,34304
1561,34304
1562,34304
1563,34240
1564,34176
1565,34112
1566,34112
1567,34048
1568,34048
1569,34112
1570,34176
1571,34240
1572,34176
1573,34240
1574,34304
1575,34368
1576,34368
1577,34368
1578,34368
1579,34432
1580,34496
1581,34496
1582,34560
1583,34624
1584,34688
1585,34752
1586,34880
1587,34880
1588,34880
1589,34880
1590,34880
1591,34944
1592,34880
1593,34816
1594,34752
1595,34752
1596,34688
1597,34560
1598,34496
1599,34432
1600,34304
1601,34240
1602,34176
1603,34240
1604,34240
1605,34112
1606,34048
1607,34048
1608,33984
1609,33920
1610,33856
1611,33856
1612,33856
1613,33792
1614,33792
1615,33792
1616,33856
1617,33856
1618,33792
1619,33792
1620,33856
1621,33920
1622,33984
1623,34048
1624,34112
1625,34176
1626,34176
1627,34176
1628,34176
1629,34176
1630,34112
1631,34112
1632,34112
1633,34112
1634,34112
1635,34048
1636,34048
1637,34048
1638,34048
1639,34048
1640,34112
1641,34176
1642,34176
1643,34112
1644,34176
1645,34240
1646,34176
1647,34112
1648,34048
1649,34048
1650,34048
1651,33984
1652,33920
1653,33920
1654,33856
1655,33856
1656,33856
1657,33856
1658,33920
1659,33920
1660,33984
1661,34112
1662,34112
1663,34048
1664,33984
1665,33984
1666,33984
1667,33984
1668,33984
1669,33984
1670,34048
1671,34048
1672,33984
1673,33920
1674,33984
1675,33984
1676,33920
1677,33920
1678,33920
1679,33856
1680,33856
1681,33856
1682,33984
1683,34048
1684,34048
1685,34048
1686,34048
1687,34176
1688,34240
1689,34240
1690,34176
1691,34240
1692,34176
1693,34176
1694,34176
1695,34176
1696,34240
1697,34240
1698,34304
1699,34368
1700,34368
1701,34176
1702,34048
1703,33984
1704,33920
1705,33856
1706,33792
1707,33728
1708,33728
1709,33728
1710,33728
1711,33728
1712,33856
1713,33920
1714,33984
1715,34048
1716,34112
1717,34176
1718,34112
1719,34112
1720,34112
1721,34048
1722,33920
1723,33984
1724,34304
1725,34752
1726,35456
1727,36608
1728,38080
1729,39168
1730,39104
1731,38080
1732,36032
1733,33728
1734,31872
1735,30784
1736,30464
1737,30720
1738,31296
1739,32064
1740,32768
1741,33408
1742,33856
1743,34176
1744,34368
1745,34496
1746,34496
1747,34432
1748,34432
1749,34432
1750,34368
1751,34240
1752,34112
1753,34112
1754,34112
1755,34048
1756,34048
1757,34048
1758,34112
1759,34176
1760,34176
1761,34240
1762,34240
1763,34240
1764,34240
1765,34240
1766,34304
1767,34368
1768,34368
1769,34432
1770,34496
1771,34560
1772,34624
1773,34624
1774,34688
1775,34688
1776,34688
1777,34752
1778,34880
1779,34880
1780,34880
1781,34880
1782,34816
1783,34688
1784,34496
1785,34432
1786,34432
1787,34432
1788,34368
1789,34304
1790,34304
1791,34304
1792,34304
1793,34240
1794,34176
1795,34176
1796,34176
1797,34112
1798,34048
1799,34048
1800,33984
1801,33856
1802,33792
1803,33728
1804,33728
1805,33728
1806,33728
1807,33728
1808,33792
1809,33792
1810,33920
1811,33984
1812,34048
1813,33984
1814,33984
1815,33984
1816,34048
1817,34112
1818,34112
1819,34112
1820,34176
1821,34176
1822,34176
1823,34112
1824,34176
1825,34176
1826,34112
1827,34112
1828,34112
1829,34112
1830,33984
1831,33920
1832,33920
1833,33984
1834,33920
1835,33856
1836,33856
1837,33920
1838,33920
1839,33984
1840,33984
1841,34048
1842,34112
1843,34048
1844,34048
1845,34048
1846,34048
1847,34048
1848,34048
1849,34048
1850,34048
1851,33984
1852,33920
1853,33984
1854,33984
1855,33920
1856,33728
1857,33664
1858,33664
1859,33664
1860,33728
1861,33920
1862,34048
1863,34176
1864,34176
1865,34176
1866,34176
1867,34176
1868,34112
1869,34112
1870,34048
1871,34112
1872,34112
1873,34048
1874,34048
1875,33984
1876,33984
1877,33920
1878,33920
1879,33920
1880,33984
1881,33984
1882,34048
1883,34048
1884,33984
1885,34048
1886,34176
1887,34304
1888,34432
1889,34496
1890,34432
1891,34368
1892,34240
1893,34176
1894,34048
1895,34048
1896,33920
1897,33920
1898,33856
1899,33792
1900,33792
1901,33792
1902,33792
1903,33792
1904,33792
1905,33792
1906,33856
1907,33920
1908,34048
1909,34048
1910,34048
1911,34048
1912,34048
1913,33984
1914,34112
1915,34432
1916,34944
1917,35840
1918,37184
1919,38528
1920,39424
1921,39168
1922,37632
1923,35392
1924,33152
1925,31552
1926,30656
1927,30400
1928,30784
1929,31424
1930,32192
1931,32896
1932,33536
1933,33984
1934,34304
1935,34496
1936,34624
1937,34688
1938,34624
1939,34560
1940,34496
1941,34432
1942,34368
1943,34368
1944,34304
1945,34240
1946,34176
1947,34112
1948,34048
1949,34048
1950,34048
1951,34048
1952,34048
1953,34048
1954,34112
1955,34240
1956,34240
1957,34368
1958,34432
1959,34560
1960,34560
1961,34560
1962,34624
1963,34688
1964,34688
1965,34816
1966,34880
1967,34880
1968,34880
1969,34880
1970,34880
1971,34816
1972,34752
1973,34688
1974,34688
1975,34624
1976,34496
1977,34368
1978,34368
1979,34304
1980,34240
1981,34176
1982,34176
1983,34176
1984,34176
1985,34176
1986,34176
1987,34112
1988,34048
1989,33984
1990,33984
1991,33984
1992,33920
1993,33856
1994,33856
1995,33856
1996,33856
1997,33856
1998,33856
1999,33856
2000,33856
2001,33856
2002,33856
2003,33920
2004,33984
2005,33920
2006,33984
2007,34048
2008,34176
2009,34176
2010,34112
2011,34176
2012,34176
2013,34176
2014,34176
2015,34240
2016,34240
2017,34240
2018,34176
2019,34112
2020,34176
2021,34176
2022,34176
2023,34176
2024,34176
2025,34176
2026,34112
2027,34048
2028,34048
2029,33984
2030,33984
2031,33984
2032,34048
2033,34048
2034,34048
2035,34048
2036,34048
2037,34048
2038,33920
2039,33920
2040,33984
2041,34112
2042,34112
2043,34048
2044,34048
2045,34048
2046,34048
2047,34048
2048,34048
2049,34048
2050,34048
2051,33984
2052,34048
2053,33984
2054,33984
2055,33984
2056,33984
2057,33984
2058,33984
2059,33984
2060,33920
2061,33920
2062,33920
2063,33984
2064,34048
2065,34112
2066,34112
2067,34112
2068,34112
2069,34112
2070,34112
2071,34112
2072,34112
2073,34048
2074,34048
2075,34048
2076,33984
2077,33984
2078,34048
2079,34048
2080,34048
2081,34048
2082,34048
2083,34112
2084,34112
2085,34176
2086,34240
2087,34240
2088,34240
2089,34240
2090,34240
2091,34304
2092,34240
2093,34240
2094,34304
2095,34304
2096,34240
2097,34176
2098,34176
2099,34176
2100,34112
2101,33984
2102,33920
2103,33792
2104,33792
2105,33728
2106,33792
2107,33920
2108,34112
2109,34176
2110,34176
2111,34240
2112,34240
2113,34112
2114,34048
2115,33984
2116,33920
2117,33920
2118,33920
2119,34112
2120,34624
2121,35136
2122,36160
2123,37568
2124,38976
2125,39808
2126,39488
2127,37824
2128,35456
2129,33088
2130,31360
2131,30528
2132,30400
2133,30848
2134,31552
2135,32640
2136,33088
2137,33600
2138,34048
2139,34304
2140,34432
2141,34496
2142,34496
2143,34432
2144,34368
2145,34368
2146,34368
2147,34304
2148,34240
2149,34240
2150,34176
2151,34112
2152,34048
2153,34176
2154,34240
2155,34304
2156,34304
2157,34368
2158,34432
2159,34368
2160,34368
2161,34368
2162,34432
2163,34496
2164,34496
2165,34496
2166,34432
2167,34432
2168,34432
2169,34432
2170,34496
2171,34624
2172,34688
2173,34752
2174,34880
2175,34880
2176,34944
2177,34944
2178,34944
2179,34944
2180,34816
2181,34752
2182,34752
2183,34688
2184,34624
2185,34560
2186,34560
2187,34560
2188,34432
2189,34240
2190,34176
2191,34048
2192,33920
2193,33792
2194,33728
2195,33728
2196,33728
2197,33792
2198,33856
2199,33920
2200,33920
2201,33920
2202,33920
2203,33984
2204,33984
2205,33984
2206,33984
2207,34048
2208,34112
2209,34048
2210,34048
2211,33984
2212,34048
2213,33984
2214,33984
2215,34048
2216,34112
2217,34112
2218,34048
2219,34048
2220,34112
2221,34112
2222,34112
2223,34112
2224,34176
2225,34176
2226,34176
2227,34176
2228,34176
2229,34176
2230,34112
2231,34112
2232,34112
2233,34112
2234,34048
2235,33984
2236,33920
2237,33856
2238,33792
2239,33728
2240,33792
2241,33856
2242,33984
2243,33984
2244,34048
2245,34112
2246,34112
2247,34048
2248,33984
2249,33984
2250,34048
2251,33984
2252,33984
2253,33984
2254,33984
2255,33984
2256,33984
2257,33984
2258,33920
2259,33856
2260,33792
2261,33856
2262,33920
2263,33984
2264,33920
2265,33920
2266,33920
2267,33920
2268,33920
2269,33920
2270,34048
2271,34048
2272,34048
2273,34112
2274,34176
2275,34176
2276,34176
2277,34112
2278,33984
2279,33920
2280,33856
2281,33856
2282,33856
2283,33920
2284,33920
2285,34048
2286,34048
2287,34176
2288,34176
2289,34176
2290,34112
2291,34112
2292,34176
2293,34304
2294,34368
2295,34368
2296,34304
2297,34240
2298,34112
2299,34112
2300,34048
2301,34048
2302,33984
2303,33792
2304,33664
2305,33664
2306,33728
2307,33664
2308,33792
2309,33792
2310,33792
2311,33856
2312,33920
2313,33984
2314,34048
2315,34112
2316,34048
2317,34048
2318,34048
2319,34048
2320,34112
2321,34368
2322,34880
2323,34944
2324,37120
2325,38464
2326,39296
2327,39104
2328,37568
2329,35264
2330,33024
2331,31488
2332,30656
2333,30464
2334,30784
2335,31488
2336,32320
2337,33024
2338,33152
2339,33984
2340,34240
2341,34432
2342,34496
2343,34560
2344,34560
2345,34496
2346,34432
2347,34368
2348,34240
2349,34240
2350,34176
2351,34176
2352,34176
2353,34240
2354,34240
2355,34176
2356,34176
2357,34176
2358,34176
2359,34176
2360,34240
2361,34304
2362,34304
2363,34304
2364,34304
2365,34304
2366,34368
2367,34432
2368,34432
2369,34624
2370,34624
2371,34688
2372,34688
2373,34688
2374,34752
2375,34816
2376,34816
2377,34944
2378,34944
2379,34880
2380,34752
2381,34688
2382,34624
2383,34560
2384,34432
2385,34368
2386,34368
2387,34240
2388,34176
2389,34176
2390,34112
2391,34112
2392,34048
2393,34048
2394,33984
2395,33984
2396,33920
2397,33920
2398,33920
2399,33920
2400,33856
2401,33856
2402,33920
2403,33984
2404,33920
2405,33856
2406,33856
2407,33856
2408,33856
2409,33856
2410,33920
2411,33984
2412,33984
2413,33984
2414,34048
2415,34048
2416,34048
2417,34112
2418,34112
2419,34112
2420,34112
2421,34112
2422,34112
2423,34176
2424,34176
2425,34176
2426,34176
2427,34176
2428,34176
2429,34112
2430,34112
2431,34112
2432,34048
2433,34048
2434,33984
2435,34048
2436,34112
2437,34048
2438,33984
2439,33920
2440,33920
2441,33920
2442,33984
2443,33984
2444,33984
2445,33984
2446,33984
2447,33984
2448,33984
2449,33984
2450,33984
2451,34048
2452,34048
2453,33984
2454,33984
2455,33920
2456,33984
2457,33984
2458,33984
2459,33984
2460,33984
2461,33984
2462,33984
2463,33920
2464,33920
2465,33920
2466,33920
2467,33920
2468,33984
2469,34048
2470,34048
2471,33984
2472,33984
2473,34048
2474,34048
2475,34112
2476,34112
2477,34112
2478,34112
2479,34112
2480,34048
2481,34112
2482,34176
2483,34176
2484,34112
2485,34176
2486,34176
2487,34176
2488,34112
2489,34176
2490,34240
2491,34304
2492,34304
2493,34304
2494,34368
2495,34304
2496,34176
2497,34112
2498,34112
2499,34048
2500,33984
2501,33856
2502,33792
2503,33792
2504,33792
2505,33792
2506,33920
2507,33920
2508,33920
2509,33920
2510,33984
2511,34048
2512,34048
2513,34112
2514,34112
2515,34176
2516,34112
2517,34048
2518,34112
2519,34304
2520,34688
2521,35392
2522,36608
2523,38144
2524,39296
2525,39616
2526,38592
2527,36544
2528,34048
2529,32000
2530,30784
2531,30272
2532,30464
2533,31104
2534,31936
2535,32768
2536,33472
2537,33920
2538,34240
2539,34496
2540,34624
2541,34688
2542,34688
2543,34688
2544,34560
2545,34496
2546,34432
2547,34368
2548,34304
2549,34176
2550,34112
2551,34048
2552,33984
2553,33984
2554,33984
2555,34048
2556,34176
2557,34304
2558,34368
2559,34432
2560,34496
2561,34560
2562,34560
2563,34560
2564,34560
2565,34560
2566,34624
2567,34624
2568,34688
2569,34752
2570,34816
2571,34752
2572,34752
2573,34752
2574,34880
2575,34880
2576,34880
2577,34816
2578,34752
2579,34688
2580,34624
2581,34560
2582,34560
2583,34496
2584,34432
2585,34368
2586,34368
2587,34304
2588,34240
2589,34176
2590,34176
2591,34112
2592,34048
2593,33984
2594,33984
2595,33984
2596,33920
2597,33920
2598,33920
2599,33856
2600,33856
2601,33792
2602,33856
2603,33856
2604,33856
2605,33856
2606,33984
2607,34048
2608,34048
2609,34048
2610,33984
2611,33984
2612,33984
2613,33984
2614,33984
2615,33984
2616,33984
2617,33984
2618,33984
2619,34048
2620,34112
2621,34112
2622,34176
2623,34176
2624,34240
2625,34304
2626,34304
2627,34240
2628,34176
2629,34048
2630,33984
2631,33984
2632,34048
2633,34048
2634,34048
2635,33920
2636,33920
2637,33920
2638,33920
2639,33920
2640,33920
2641,33920
2642,33920
2643,33984
2644,34048
2645,34112
2646,34048
2647,33984
2648,33920
2649,33984
2650,34048
2651,34048
2652,34048
2653,33920
2654,33856
2655,33792
2656,33856
2657,33856
2658,33920
2659,33984
2660,34048
2661,34048
2662,34112
2663,34112
2664,34112
2665,34112
2666,34112
2667,34048
2668,34048
2669,34048
2670,33984
2671,34048
2672,34112
2673,34176
2674,34112
2675,34112
2676,33984
2677,33920
2678,33856
2679,33792
2680,33856
2681,33920
2682,33984
2683,33984
2684,34048
2685,34048
2686,34112
2687,34112
2688,34112
2689,34176
2690,34240
2691,34240
2692,34240
2693,34304
2694,34368
2695,34304
2696,34240
2697,34176
2698,34112
2699,34048
2700,33984
2701,34048
2702,34112
2703,34240
2704,34368
2705,34368
2706,34304
2707,34240
2708,34112
2709,34112
2710,34112
2711,34048
2712,33984
2713,33984
2714,33920
2715,33856
2716,33792
2717,33792
2718,33920
2719,33984
2720,34112
2721,34112
2722,34176
2723,34176
2724,34112
2725,34048
2726,34048
2727,33984
2728,33984
2729,34048
2730,34304
2731,34816
2732,35584
2733,36864
2734,38336
2735,39488
2736,39872
2737,38784
2738,36736
2739,34176
2740,32000
2741,30720
2742,30208
2743,30400
2744,31104
2745,31936
2746,32640
2747,33280
2748,33856
2749,34240
2750,34432
2751,34560
2752,34560
2753,34624
2754,34560
2755,34432
2756,34368
2757,34304
2758,34304
2759,34240
2760,34240
2761,34240
2762,34176
2763,34112
2764,34112
2765,34176
2766,34176
2767,34176
2768,34240
2769,34304
2770,34368
2771,34368
2772,34432
2773,34432
2774,34432
2775,34432
2776,34496
2777,34560
2778,34560
2779,34624
2780,34688
2781,34752
2782,34752
2783,34752
2784,34752
2785,34816
2786,34880
2787,34880
2788,34880
2789,34816
2790,34816
2791,34816
2792,34752
2793,34752
2794,34624
2795,34560
2796,34432
2797,34368
2798,34304
2799,34240
2800,34176
2801,34112
2802,34048
2803,34048
2804,33920
2805,33856
2806,33920
2807,33920
2808,33920
2809,33856
2810,33792
2811,33728
2812,33664
2813,33664
2814,33728
2815,33792
2816,33792
2817,33728
2818,33728
2819,33728
2820,33728
2821,33728
2822,33728
2823,33792
2824,33792
2825,33792
2826,33792
2827,33920
2828,33920
2829,33920
2830,33920
2831,33984
2832,33920
2833,33856
2834,33856
2835,33856
2836,33856
2837,33856
2838,33792
2839,33792
2840,33856
2841,33920
2842,33920
2843,33984
2844,33984
2845,33984
2846,34048
2847,34112
2848,34112
2849,34112
2850,34176
2851,34176
2852,34176
2853,34112
2854,34048
2855,34048
2856,33984
2857,33984
2858,33920
2859,33856
2860,33856
2861,33920
2862,33984
2863,34048
2864,34176
2865,34304
2866,34304
2867,34240
2868,34304
2869,34304
2870,34112
2871,33984
2872,33984
2873,33984
2874,33984
2875,33984
2876,33984
2877,33984
2878,33984
2879,33984
2880,34048
2881,34176
2882,34176
2883,34176
2884,34112
2885,34112
2886,34112
2887,34112
2888,34176
2889,34176
2890,34176
2891,34112
2892,34112
2893,34112
2894,34176
2895,34176
2896,34112
2897,34112
2898,34176
2899,34176
2900,34112
2901,34048
2902,34048
2903,34048
2904,34048
2905,34048
2906,34112
2907,34176
2908,34240
2909,34240
2910,34240
2911,34240
2912,34176
2913,34176
2914,34240
2915,34304
2916,34304
2917,34240
2918,34176
2919,34176
2920,34240
2921,34304
2922,34304
2923,34368
2924,34432
2925,34496
2926,34432
2927,34368
2928,34240
2929,34176
2930,34240
2931,34240
2932,34048
2933,33920
2934,33792
2935,33792
2936,33792
2937,33856
2938,33856
2939,33984
2940,34112
2941,34112
2942,34112
2943,34176
2944,34176
2945,34176
2946,34240
2947,34176
2948,34112
2949,34112
2950,34368
2951,34752
2952,35520
2953,36736
2954,38144
2955,39360
2956,39808
2957,38912
2958,36864
2959,34368
2960,32192
2961,30912
2962,30464
2963,30656
2964,31232
2965,31936
2966,32640
2967,33280
2968,33792
2969,34176
2970,34432
2971,34560
2972,34624
2973,34496
2974,34432
2975,34304
2976,34240
2977,34176
2978,34048
2979,34048
2980,34048
2981,34112
2982,34240
2983,34304
2984,34368
2985,34368
2986,34368
2987,34240
2988,34240
2989,34368
2990,34368
2991,34304
2992,34240
2993,34304
2994,34368
2995,34432
2996,34432
2997,34560
2998,34624
2999,34624
3000,34624
3001,34688
3002,34816
3003,34880
3004,35072
3005,35136
3006,35264
3007,35264
3008,35200
3009,35072
3010,35008
3011,34944
3012,34880
3013,34816
3014,34688
3015,34560
3016,34496
3017,34368
3018,34304
3019,34240
3020,34240
3021,34176
3022,34176
3023,34176
3024,34176
3025,34112
3026,34112
3027,34112
3028,34112
3029,34176
3030,34176
3031,33984
3032,33792
3033,33664
3034,33664
3035,33664
3036,33728
3037,33792
3038,33920
3039,33984
3040,33984
3041,33984
3042,34048
3043,34112
3044,34112
3045,34112
3046,34048
3047,34112
3048,34240
3049,34304
3050,34304
3051,34240
3052,34240
3053,34240
3054,34176
3055,34240
3056,34176
3057,34176
3058,34176
3059,34176
3060,34304
3061,34368
3062,34432
3063,34304
3064,34112
3065,34048
3066,33920
3067,33920
3068,33984
3069,33984
3070,33984
3071,33984
3072,33920
3073,33984
3074,33984
3075,33984
3076,34048
3077,34048
3078,34112
3079,34112
3080,34176
3081,34240
3082,34176
3083,34112
3084,34112
3085,34112
3086,34048
3087,34112
3088,34112
3089,34048
3090,33984
3091,33920
3092,33984
3093,33984
3094,33984
3095,33920
3096,33984
3097,33984
3098,33984
3099,34048
3100,34048
3101,34048
3102,34112
3103,34112
3104,34048
3105,34048
3106,34112
3107,34176
3108,34176
3109,34176
3110,34112
3111,34112
3112,34176
3113,34176
3114,34240
3115,34368
3116,34432
3117,34496
3118,34496
3119,34368
3120,34240
3121,34240
3122,34240
3123,34112
3124,33984
3125,33856
3126,33856
3127,33920
3128,33856
3129,33792
3130,33728
3131,33728
3132,33792
3133,33856
3134,33984
3135,34048
3136,34112
3137,34048
3138,34048
3139,34112
3140,34112
3141,34112
3142,34176
3143,34432
3144,35008
3145,36096
3146,37504
3147,38784
3148,39232
3149,38464
3150,36672
3151,34496
3152,32448
3153,31168
3154,30592
3155,30592
3156,30976
3157,31744
3158,32512
3159,33280
3160,33856
3161,34176
3162,34432
3163,34560
3164,34624
3165,34688
3166,34624
3167,34496
3168,34496
3169,34496
3170,34432
3171,34368
3172,34240
3173,34176
3174,34048
3175,34048
3176,34112
3177,34112
3178,34176
3179,34240
3180,34304
3181,34368
3182,34304
3183,34304
3184,34304
3185,34304
3186,34432
3187,34496
3188,34560
3189,34688
3190,34752
3191,34752
3192,34752
3193,34752
3194,34752
3195,34816
3196,34816
3197,34880
3198,34880
3199,34880
3200,34816
3201,34752
3202,34816
3203,34752
3204,34688
3205,34560
3206,34496
3207,34432
3208,34368
3209,34304
3210,34368
3211,34304
3212,34240
3213,34176
3214,34176
3215,34112
3216,34048
3217,33920
3218,33920
3219,33984
3220,33920
3221,33856
3222,33792
3223,33856
3224,33856
3225,33920
3226,33984
3227,33984
3228,33984
3229,34048
3230,34048
3231,34048
3232,34048
3233,33984
3234,33984
3235,34048
3236,34048
3237,34048
3238,34112
3239,34112
3240,34176
3241,34240
3242,34176
3243,34112
3244,33984
3245,33984
3246,33920
3247,33920
3248,33984
3249,34048
3250,34048
3251,34112
3252,34240
3253,34176
3254,34048
3255,33984
3256,33984
3257,34048
3258,34112
3259,34048
3260,34048
3261,34048
3262,33984
3263,33920
3264,33920
3265,33920
3266,33856
3267,33920
3268,33920
3269,33984
3270,33984
3271,33920
3272,33920
3273,33984
3274,34048
3275,33984
3276,33920
3277,33984
3278,33984
3279,33984
3280,33984
3281,34112
3282,34176
3283,34112
3284,34048
3285,34048
3286,34112
3287,34112
3288,34048
3289,34048
3290,34048
3291,34112
3292,34112
3293,34112
3294,34176
3295,34176
3296,34240
3297,34240
3298,34240
3299,34240
3300,34176
3301,34176
3302,34240
3303,34240
3304,34304
3305,34304
3306,34304
3307,34176
3308,33984
3309,33920
3310,33920
3311,33984
3312,34048
3313,34048
3314,33984
3315,33920
3316,33920
3317,33920
3318,33984
3319,33984
3320,33984
3321,33920
3322,33984
3323,34048
3324,34048
3325,33984
3326,33984
3327,33984
3328,33920
3329,33856
3330,33920
3331,34112
3332,34496
3333,35264
3334,36480
3335,37952
3336,39168
3337,39552
3338,38656
3339,36672
3340,34304
3341,32192
3342,30848
3343,30272
3344,30400
3345,30912
3346,31616
3347,32448
3348,33216
3349,33792
3350,34112
3351,34368
3352,34496
3353,34560
3354,34624
3355,34624
3356,34624
3357,34624
3358,34560
3359,34432
3360,34368
3361,34368
3362,34304
3363,34240
3364,34176
3365,34112
3366,34048
3367,34048
3368,34048
3369,34112
3370,34176
3371,34304
3372,34432
3373,34432
3374,34432
3375,34432
3376,34496
3377,34560
3378,34624
3379,34624
3380,34688
3381,34752
3382,34816
3383,34880
3384,34944
3385,34944
3386,34944
3387,34944
3388,35008
3389,35072
3390,35136
3391,35072
3392,34944
3393,34816
3394,34752
3395,34688
3396,34624
3397,34560
3398,34496
3399,34432
3400,34240
3401,34112
3402,34112
3403,34048
3404,33984
3405,33984
3406,33984
3407,33984
3408,34048
3409,34048
3410,34048
3411,33984
3412,33920
3413,33920
3414,33920
3415,33920
3416,33856
3417,33920
3418,33984
3419,34048
3420,34048
3421,34048
3422,34112
3423,34240
3424,34176
3425,34048
3426,33984
3427,33984
3428,34048
3429,34048
3430,34048
3431,34112
3432,34112
3433,34112
3434,34176
3435,34176
3436,34176
3437,34176
3438,34176
3439,34240
3440,34304
3441,34240
3442,34176
3443,34176
3444,34240
3445,34240
3446,34176
3447,34176
3448,34112
3449,34048
3450,34048
3451,34112
3452,34048
3453,33984
3454,33856
3455,33856
3456,33920
3457,33920
3458,33984
3459,34048
3460,34048
3461,34048
3462,33984
3463,33984
3464,33920
3465,33856
3466,33792
3467,33728
3468,33664
3469,33664
3470,33600
3471,33536
3472,33536
3473,33600
3474,33600
3475,33664
3476,33792
3477,33856
3478,33856
3479,33792
3480,33728
3481,33664
3482,33664
3483,33728
3484,33792
3485,33920
3486,34048
3487,34112
3488,34112
3489,34176
3490,34240
3491,34240
3492,34240
3493,34240
3494,34240
3495,34112
3496,34048
3497,34048
3498,34048
3499,34048
3500,34112
3501,34112
3502,34176
3503,34240
3504,34240
3505,34240
3506,34240
3507,34240
3508,34176
3509,34176
3510,34240
3511,34432
3512,34816
3513,35392
3514,36352
3515,37824
3516,38976
3517,39616
3518,39168
3519,37440
3520,35008
3521,32640
3522,31104
3523,30400
3524,30400
3525,30976
3526,31872
3527,32768
3528,33472
3529,33984
3530,34432
3531,34624
3532,34688
3533,34688
3534,34560
3535,34496
3536,34432
3537,34432
3538,34368
3539,34368
3540,34304
3541,34240
3542,34176
3543,34176
3544,34240
3545,34304
3546,34304
3547,34368
3548,34432
3549,34496
3550,34496
3551,34496
3552,34496
3553,34496
3554,34496
3555,34496
3556,34496
3557,34496
3558,34496
3559,34496
3560,34560
3561,34688
3562,34688
3563,34752
3564,34880
3565,34944
3566,35008
3567,35072
3568,35008
3569,34944
3570,34816
3571,34688
3572,34624
3573,34496
3574,34368
3575,34176
3576,34048
3577,33920
3578,33856
3579,33792
3580,33792
3581,33856
3582,33856
3583,33792
3584,33792
3585,33792
3586,33856
3587,33856
3588,33856
3589,33856
3590,33920
3591,33920
3592,33920
3593,33920
3594,33984
3595,33920
3596,33984
3597,33984
3598,34048
3599,34112
3600,34112
3601,34176
3602,34240
3603,34176
3604,34112
3605,34176
3606,34176
3607,34112
3608,34048
3609,34048
3610,34048
3611,34048
3612,34048
3613,34112
3614,34176
3615,34240
3616,34240
3617,34176
3618,34176
3619,34176
3620,34112
3621,34112
3622,34112
3623,34176
3624,34176
3625,34176
3626,34176
3627,34176
3628,34176
3629,34112
3630,34048
3631,34048
3632,34048
3633,33984
3634,33984
3635,33984
3636,34048
3637,33984
3638,33984
3639,33984
3640,33984
3641,33984
3642,33984
3643,34048
3644,34112
3645,34112
3646,34240
3647,34304
3648,34304
3649,34240
3650,34112
3651,34112
3652,34176
3653,34240
3654,34304
3655,34304
3656,34304
3657,34240
3658,34112
3659,34048
3660,34048
3661,34048
3662,33920
3663,33856
3664,33792
3665,33792
3666,33728
3667,33728
3668,33792
3669,33792
3670,33856
3671,33856
3672,33920
3673,33984
3674,34048
3675,34048
3676,33984
3677,33984
3678,33920
3679,33920
3680,34176
3681,34432
3682,35008
3683,35968
3684,37248
3685,38720
3686,39552
3687,39360
3688,37760
3689,35584
3690,33152
3691,31296
3692,30336
3693,30144
3694,30528
3695,31424
3696,32128
3697,32960
3698,33600
3699,33984
3700,34240
3701,34432
3702,34496
3703,34560
3704,34496
3705,34496
3706,34432
3707,34432
3708,34304
3709,34304
3710,34304
3711,34240
3712,34112
3713,34048
3714,33984
3715,33984
3716,34048
3717,34112
3718,34112
3719,34176
3720,34176
3721,34240
3722,34368
3723,34496
3724,34560
3725,34560
3726,34560
3727,34496
3728,34496
3729,34560
3730,34688
3731,34880
3732,34944
3733,34880
3734,34752
3735,34752
3736,34816
3737,34816
3738,34816
3739,34816
3740,34880
3741,34816
3742,34752
3743,34752
3744,34752
3745,34624
3746,34496
3747,34432
3748,34368
3749,34304
3750,34240
3751,34176
3752,34112
3753,33984
3754,33856
3755,33856
3756,33856
3757,33792
3758,33792
3759,33792
3760,33792
3761,33856
3762,33856
3763,33792
3764,33792
3765,33792
3766,33728
3767,33664
3768,33728
3769,33792
3770,33856
3771,33920
3772,33984
3773,34048
3774,34112
3775,34112
3776,34112
3777,34176
3778,34176
3779,34112
3780,34048
3781,34048
3782,34112
3783,34112
3784,34048
3785,33984
3786,33984
3787,33984
3788,33920
3789,33920
3790,33984
3791,34048
3792,34112
3793,34176
3794,34176
3795,34176
3796,34112
3797,34048
3798,33984
3799,33984
3800,33920
3801,33920
3802,33984
3803,34048
3804,34048
3805,34048
3806,34048
3807,34112
3808,34112
3809,34112
3810,34176
3811,34176
3812,34176
3813,34176
3814,34112
3815,33984
3816,33984
3817,34048
3818,34112
3819,34240
3820,34368
3821,34304
3822,34240
3823,34112
3824,34048
3825,33984
3826,33984
3827,33984
3828,33920
3829,33792
3830,33792
3831,33792
3832,33856
3833,33856
3834,33856
3835,33920
3836,33984
3837,33984
3838,34048
3839,34048
3840,34112
3841,34048
3842,34048
3843,34048
3844,33984
3845,33984
3846,34112
3847,34560
3848,35264
3849,36352
3850,37760
3851,39104
3852,39616
3853,38848
3854,36864
3855,34432
3856,32192
3857,30912
3858,30272
3859,30400
3860,30976
3861,31808
3862,32576
3863,33280
3864,33792
3865,34240
3866,34432
3867,34624
3868,34688
3869,34624
3870,34496
3871,34368
3872,34304
3873,34304
3874,34240
3875,34112
3876,34112
3877,34112
3878,34112
3879,34112
3880,34112
3881,34176
3882,34176
3883,34240
3884,34240
3885,34368
3886,34368
3887,34432
3888,34496
3889,34496
3890,34560
3891,34560
3892,34560
3893,34624
3894,34688
3895,34688
3896,34752
3897,34816
3898,34816
3899,34816
3900,34816
3901,34816
3902,34816
3903,34816
3904,34816
3905,34816
3906,34816
3907,34752
3908,34688
3909,34560
3910,34560
3911,34496
3912,34432
3913,34368
3914,34304
3915,34240
3916,34112
3917,34048
3918,34048
3919,34048
3920,33984
3921,33984
3922,33920
3923,33920
3924,33856
3925,33792
3926,33728
3927,33728
3928,33792
3929,33792
3930,33792
3931,33856
3932,33856
3933,33856
3934,33856
3935,33856
3936,33920
3937,33984
3938,34048
3939,34112
3940,34176
3941,34176
3942,34112
3943,34112
3944,34176
3945,34176
3946,34176
3947,34112
3948,34112
3949,34048
3950,33984
3951,33920
3952,33984
3953,34048
3954,34048
3955,34112
3956,34112
3957,34112
3958,34048
3959,34048
3960,34048
3961,34048
3962,34048
3963,34048
3964,34112
3965,34112
3966,34048
3967,34048
3968,34048
3969,34048
3970,34048
3971,34048
3972,34048
3973,34048
3974,33984
3975,33984
3976,34048
3977,34112
3978,34176
3979,34240
3980,34176
3981,34176
3982,34112
3983,34112
3984,34112
3985,34176
3986,34240
3987,34240
3988,34176
3989,34112
3990,34048
3991,33984
3992,33984
3993,33920
3994,33920
3995,33856
3996,33856
3997,33792
3998,33792
3999,33856
4000,33856
4001,33856
4002,33920
4003,33920
4004,33856
4005,33856
4006,33920
4007,33920
4008,33920
4009,33920
4010,33984
4011,33984
4012,33984
4013,34240
4014,34752
4015,35648
4016,36864
4017,38272
4018,39168
4019,38976
4020,37504
4021,35328
4022,33152
4023,31616
4024,30720
4025,30528
4026,30848
4027,31552
4028,32256
4029,32896
4030,33408
4031,33792
4032,34048
4033,34240
4034,34304
4035,34432
4036,34432
4037,34432
4038,34368
4039,34240
4040,34240
4041,34176
4042,34112
4043,34112
4044,34112
4045,34112
4046,34112
4047,34176
4048,34240
4049,34240
4050,34304
4051,34304
4052,34368
4053,34432
4054,34368
4055,34368
4056,34368
4057,34432
4058,34496
4059,34560
4060,34624
4061,34752
4062,34816
4063,34880
4064,34816
4065,34880
4066,34880
4067,34880
4068,34880
4069,34880
4070,34944
4071,34880
4072,34816
4073,34752
4074,34688
4075,34624
4076,34624
4077,34496
4078,34432
4079,34304
4080,34304
4081,34304
4082,34304
4083,34240
4084,34176
4085,34176
4086,34112
4087,34048
4088,33984
4089,33920
4090,33920
4091,33920
4092,33856
4093,33856
4094,33856
4095,33856
4096,33920
4097,33984
4098,34048
4099,34048
4100,34112
4101,34048
4102,34112
4103,34112
4104,34048
4105,34048
4106,34112
4107,34112
4108,34176
4109,34176
4110,34240
4111,34240
4112,34240
4113,34176
4114,34176
4115,34112
4116,34048
4117,34112
4118,34112
4119,34112
4120,34112
4121,34112
4122,34048
4123,34176
4124,34112
4125,34112
4126,34176
4127,34176
4128,34112
4129,34048
4130,33984
4131,33984
4132,33984
4133,33984
4134,33984
4135,33984
4136,33920
4137,33920
4138,33984
4139,33984
4140,33984
4141,33984
4142,34048
4143,34112
4144,34112
4145,34048
4146,34176
4147,34240
4148,34240
4149,34240
4150,34240
4151,34240
4152,34240
4153,34176
4154,34176
4155,34112
4156,34112
4157,34112
4158,34112
4159,34304
4160,34240
4161,34304
4162,34240
4163,34176
4164,34112
4165,34112
4166,33984
4167,33920
4168,33856
4169,33792
4170,33728
4171,33728
4172,33728
4173,33792
4174,33792
4175,33856
4176,33920
4177,34112
4178,34112
4179,34112
4180,34112
4181,34048
4182,33984
4183,33920
4184,33920
4185,33920
4186,34112
4187,34496
4188,35264
4189,36736
4190,36928
4191,39104
4192,39616
4193,38784
4194,36736
4195,34304
4196,32064
4197,30784
4198,30272
4199,30400
4200,30976
4201,31808
4202,32640
4203,33280
4204,33984
4205,33984
4206,34368
4207,34496
4208,34496
4209,34496
4210,34496
4211,34432
4212,34368
4213,34240
4214,34240
4215,34176
4216,34112
4217,34112
4218,34048
4219,34112
4220,34048
4221,34112
4222,34112
4223,34112
4224,34176
4225,34176
4226,34240
4227,34304
4228,34304
4229,34368
4230,34432
4231,34496
4232,34496
4233,34560
4234,34688
4235,34624
4236,34688
4237,34688
4238,34752
4239,34880
4240,34880
4241,34880
4242,34944
4243,34880
4244,34816
4245,34752
4246,34688
4247,34688
4248,34688
4249,34624
4250,34560
4251,34496
4252,34432
4253,34368
4254,34304
4255,34240
4256,34176
4257,34112
4258,34048
4259,34048
4260,34048
4261,34048
4262,33920
4263,33856
4264,33856
4265,33792
4266,33792
4267,33792
4268,33856
4269,33792
4270,33792
4271,33856
4272,33984
4273,33984
4274,33984
4275,33984
4276,33984
4277,33984
4278,33984
4279,33984
4280,34048
4281,33984
4282,33984
4283,34048
4284,34048
4285,34048
4286,34048
4287,34048
4288,34112
4289,34112
4290,34112
4291,34112
4292,34112
4293,34112
4294,34048
4295,33984
4296,33984
4297,33984
4298,34048
4299,33984
4300,33984
4301,33984
4302,33984
4303,33920
4304,33920
4305,33984
4306,33984
4307,33920
4308,33920
4309,33984
4310,34048
4311,34048
4312,33984
4313,33984
4314,34048
4315,34048
4316,34048
4317,33984
4318,33920
4319,33856
4320,33856
4321,33920
4322,33984
4323,33984
4324,33984
4325,33920
4326,33920
4327,33984
4328,33920
4329,33984
4330,33984
4331,34048
4332,34048
4333,34048
4334,34112
4335,34112
4336,34112
4337,34112
4338,34112
4339,34048
4340,34048
4341,34112
4342,34112
4343,34176
4344,34176
4345,34176
4346,34176
4347,34176
4348,34176
4349,34176
4350,34112
4351,34112
4352,34112
4353,34112
4354,34176
4355,34240
4356,34304
4357,34176
4358,34112
4359,34176
4360,34176
4361,34176
4362,34176
4363,34112
4364,34048
4365,33920
4366,33792
4367,33728
4368,33792
4369,33792
4370,33792
4371,33856
4372,33984
4373,33984
4374,34048
4375,34112
4376,34112
4377,34112
4378,34048
4379,34048
4380,34048
4381,33984
4382,34048
4383,34304
4384,34880
4385,35776
4386,36992
4387,38400
4388,39424
4389,39552
4390,38208
4391,35968
4392,33408
4393,31552
4394,30464
4395,30144
4396,30528
4397,31232
4398,32128
4399,32832
4400,33408
4401,33920
4402,34176
4403,34304
4404,34368
4405,34496
4406,34560
4407,34560
4408,34496
4409,34368
4410,34240
4411,34240
4412,34176
4413,34112
4414,34048
4415,34048
4416,34048
4417,34048
4418,34112
4419,34112
4420,34112
4421,34112
4422,34176
4423,34240
4424,34240
4425,34240
4426,34304
4427,34368
4428,34304
4429,34368
4430,34496
4431,34560
4432,34624
4433,34624
4434,34688
4435,34752
4436,34752
4437,34752
4438,34752
4439,34752
4440,34688
4441,34624
4442,34624
4443,34560
4444,34496
4445,34432
4446,34432
4447,34368
4448,34304
4449,34240
4450,34240
4451,34176
4452,34112
4453,34048
4454,34048
4455,34048
4456,33984
4457,33920
4458,33856
4459,33856
4460,33856
4461,33792
4462,33728
4463,33728
4464,33728
4465,33664
4466,33664
4467,33728
4468,33856
4469,33920
4470,33920
4471,33920
4472,33920
4473,33984
4474,33984
4475,33984
4476,34048
4477,34048
4478,34048
4479,34048
4480,34112
4481,34112
4482,34112
4483,34112
4484,34176
4485,34176
4486,34176
4487,34048
4488,34048
4489,34176
4490,34240
4491,34240
4492,34240
4493,34240
4494,34176
4495,34048
4496,33984
4497,34048
4498,34048
4499,34048
4500,34048
4501,34048
4502,34048
4503,33984
4504,33920
4505,33920
4506,33920
4507,33920
4508,33920
4509,33920
4510,33984
4511,33920
4512,33920
4513,33920
4514,34048
4515,34048
4516,33984
4517,33984
4518,34048
4519,34048
4520,34048
4521,34112
4522,34112
4523,33984
4524,33920
4525,33920
4526,33920
4527,33984
4528,33984
4529,33984
4530,33984
4531,33984
4532,33984
4533,33920
4534,33984
4535,33984
4536,33920
4537,33920
4538,33984
4539,33984
4540,33984
4541,33920
4542,33920
4543,33984
4544,33920
4545,33920
4546,33920
4547,33984
4548,33984
4549,33984
4550,33984
4551,34048
4552,34112
4553,34112
4554,34112
4555,34112
4556,34176
4557,34176
4558,34176
4559,34176
4560,34240
4561,34304
4562,34368
4563,34368
4564,34368
4565,34304
4566,34240
4567,34240
4568,34304
4569,34368
4570,34432
4571,34496
4572,34432
4573,34304
4574,34176
4575,34112
4576,34112
4577,34112
4578,34048
4579,33920
4580,33856
4581,33856
4582,33856
4583,33856
4584,33984
4585,34048
4586,34048
4587,34112
4588,34112
4589,34112
4590,34112
4591,34048
4592,34048
4593,34112
4594,34048
4595,33984
4596,34048
4597,34304
4598,34816
4599,35712
4600,36992
4601,38528
4602,39744
4603,39936
4604,38720
4605,36416
4606,33792
4607,31680
4608,30528
4609,30144
4610,30464
4611,31168
4612,32000
4613,32832
4614,33472
4615,33984
4616,34240
4617,34432
4618,34624
4619,34688
4620,34688
4621,34624
4622,34560
4623,34432
4624,34368
4625,34368
4626,34304
4627,34240
4628,34112
4629,34048
4630,34048
4631,34112
4632,34112
4633,34112
4634,34176
4635,34176
4636,34240
4637,34304
4638,34304
4639,34368
4640,34432
4641,34432
4642,34560
4643,34624
4644,34624
4645,34624
4646,34688
4647,34816
4648,34880
4649,34880
4650,34880
4651,34944
4652,34880
4653,34816
4654,34816
4655,34752
4656,34688
4657,34624
4658,34560
4659,34496
4660,34496
4661,34496
4662,34432
4663,34432
4664,34432
4665,34368
4666,34368
4667,34304
4668,34304
4669,34240
4670,34112
4671,34112
4672,34112
4673,34112
4674,33984
4675,33920
4676,33856
4677,33856
4678,33856
4679,33856
4680,33856
4681,33856
4682,33856
4683,33856
4684,33920
4685,33984
4686,33984
4687,33984
4688,34048
4689,34048
4690,34112
4691,34112
4692,34112
4693,34048
4694,34048
4695,34048
4696,34112
4697,34176
4698,34176
4699,34176
4700,34112
4701,34112
4702,34048
4703,33984
4704,33984
4705,33984
4706,34048
4707,34048
4708,33984
4709,34048
4710,34048
4711,33984
4712,33984
4713,34048
4714,34176
4715,34112
4716,34048
4717,34048
4718,34112
4719,34048
4720,33984
4721,33984
4722,33984
4723,33856
4724,33792
4725,33792
4726,33792
4727,33792
4728,33856
4729,33920
4730,33984
4731,33984
4732,33984
4733,34048
4734,34112
4735,34176
4736,34112
4737,33984
4738,33984
4739,33920
4740,33984
4741,33984
4742,33984
4743,33984
4744,33920
4745,33920
4746,33920
4747,33920
4748,33984
4749,33984
4750,34048
4751,34048
4752,34112
4753,34112
4754,34112
4755,34112
4756,34048
4757,33984
4758,33984
4759,33984
4760,33984
4761,34048
4762,34048
4763,34048
4764,33984
4765,33984
4766,33920
4767,33920
4768,33984
4769,33984
4770,34048
4771,34048
4772,34048
4773,34048
4774,34112
4775,34176
4776,34304
4777,34368
4778,34368
4779,34304
4780,34304
4781,34240
4782,34176
4783,34240
4784,34240
4785,34304
4786,34240
4787,34176
4788,34112
4789,34048
4790,34048
4791,33984
4792,33920
4793,33920
4794,33920
4795,33856
4796,33920
4797,33920
4798,33856
4799,33856
4800,33920
4801,34048
4802,34112
4803,34112
4804,34176
4805,34176
4806,34176
4807,34112
4808,34048
4809,34048
4810,33984
4811,33920
4812,33984
4813,34432
4814,35264
4815,36416
4816,37824
4817,39040
4818,39360
4819,38336
4820,36352
4821,34048
4822,32128
4823,31040
4824,30528
4825,30656
4826,31168
4827,32000
4828,32832
4829,33536
4830,33984
4831,34304
4832,34496
4833,34560
4834,34560
4835,34432
4836,34368
4837,34304
4838,34368
4839,34368
4840,34368
4841,34368
4842,34304
4843,34240
4844,34240
4845,34176
4846,34112
4847,34176
4848,34176
4849,34176
4850,34240
4851,34304
4852,34304
4853,34304
4854,34304
4855,34368
4856,34432
4857,34432
4858,34496
4859,34496
4860,34560
4861,34560
4862,34560
4863,34560
4864,34624
4865,34688
4866,34688
4867,34752
4868,34816
4869,34944
4870,34944
4871,34944
4872,34880
4873,34816
4874,34688
4875,34560
4876,34560
4877,34560
4878,34432
4879,34240
4880,34176
4881,34176
4882,34176
4883,34176
4884,34176
4885,34112
4886,33920
4887,33856
4888,33920
4889,34048
4890,34048
4891,34048
4892,33984
4893,33984
4894,33984
4895,33920
4896,33984
4897,33984
4898,33984
4899,33984
4900,33984
4901,33984
4902,33984
4903,33984
4904,33920
4905,33984
4906,33984
4907,33984
4908,33984
4909,34048
4910,34112
4911,34112
4912,34112
4913,34112
4914,34048
4915,34048
4916,34112
4917,34176
4918,34240
4919,34304
4920,34304
4921,34240
4922,34240
4923,34176
4924,34048
4925,33984
4926,33984
4927,34048
4928,34048
4929,34048
4930,34048
4931,34048
4932,33984
4933,33920
4934,33920
4935,33856
4936,33920
4937,33920
4938,33984
4939,33984
4940,33984
4941,34048
4942,34176
4943,34176
4944,34176
4945,34112
4946,34048
4947,34112
4948,34048
4949,33984
4950,33984
4951,33984
4952,33920
4953,33920
4954,33920
4955,33984
4956,34048
4957,34048
4958,34048
4959,33984
4960,34048
4961,34112
4962,34112
4963,34176
4964,34176
4965,34176
4966,34176
4967,34176
4968,34240
4969,34176
4970,34176
4971,34176
4972,34176
4973,34240
4974,34112
4975,34048
4976,34048
4977,34112
4978,34112
4979,34240
4980,34368
4981,34432
4982,34368
4983,34304
4984,34240
4985,34176
4986,34112
4987,34048
4988,33984
4989,33984
4990,33984
4991,33920
4992,33920
4993,33920
4994,33920
4995,33920
4996,33920
4997,33984
4998,34048
4999,34112
5000,34112
5001,34048
5002,34048
5003,33984
5004,33984
5005,34048
5006,34304
5007,34816
5008,35648
5009,36928
5010,38336
5011,39296
5012,39232
5013,37824
5014,35584
5015,33344
5016,31680
5017,30720
5018,30464
5019,30784
5020,31424
5021,32256
5022,33024
5023,33600
5024,33984
5025,34304
5026,34496
5027,34560
5028,34496
5029,34496
5030,34432
5031,34304
5032,34240
5033,34176
5034,34176
5035,34176
5036,34176
5037,34176
5038,34240
5039,34240
5040,34176
5041,34176
5042,34176
5043,34240
5044,34304
5045,34304
5046,34304
5047,34304
5048,34368
5049,34432
5050,34368
5051,34432
5052,34432
5053,34496
5054,34560
5055,34688
5056,34752
5057,34816
5058,34816
5059,34944
5060,35072
5061,35072
5062,35008
5063,34880
5064,34816
5065,34752
5066,34688
5067,34752
5068,34752
5069,34624
5070,34496
5071,34368
5072,34368
5073,34304
5074,34304
5075,34304
5076,34304
5077,34240
5078,34176
5079,34112
5080,34048
5081,34048
5082,34048
5083,33984
5084,33984
5085,33984
5086,33984
5087,33920
5088,33856
5089,33792
5090,33728
5091,33792
5092,33920
5093,33984
5094,33984
5095,33984
5096,34048
5097,34048
5098,34048
5099,34048
5100,34048
5101,34112
5102,34176
5103,34176
5104,34176
5105,34240
5106,34176
5107,34176
5108,34112
5109,34176
5110,34176
5111,34240
5112,34176
5113,34176
5114,34176
5115,34176
5116,34176
5117,34112
5118,34112
5119,34048
5120,33984
5121,33984
5122,33984
5123,33984
5124,33984
5125,33984
5126,33984
5127,34048
5128,34048
5129,33984
5130,33984
5131,34048
5132,34048
5133,34048
5134,34048
5135,34048
5136,34048
5137,34048
5138,34112
5139,34176
5140,34112
5141,33984
5142,33984
5143,33984
5144,33984
5145,33984
5146,33984
5147,34048
5148,33984
5149,33984
5150,33984
5151,33984
5152,34048
5153,34048
5154,34048
5155,34048
5156,34112
5157,34112
5158,34112
5159,34048
5160,34048
5161,34048
5162,34048
5163,34112
5164,34112
5165,34048
5166,34048
5167,33984
5168,34048
5169,34112
5170,34112
5171,34176
5172,34112
5173,34112
5174,34112
5175,34176
5176,34240
5177,34240
5178,34368
5179,34432
5180,34496
5181,34432
5182,34368
5183,34240
5184,34112
5185,33984
5186,33920
5187,33856
5188,33856
5189,33856
5190,33856
5191,33856
5192,33856
5193,33856
5194,33920
5195,33920
5196,33984
5197,33984
5198,33920
5199,33920
5200,33920
5201,33920
5202,33920
5203,33984
5204,34176
5205,34560
5206,35328
5207,36416
5208,37824
5209,39296
5210,39936
5211,39232
5212,37440
5213,34944
5214,32640
5215,31104
5216,30400
5217,30400
5218,30976
5219,31744
5220,32448
5221,33024
5222,33536
5223,33856
5224,34112
5225,34304
5226,34496
5227,34624
5228,34624
5229,34624
5230,34560
5231,34496
5232,34432
5233,34304
5234,34240
5235,34240
5236,34240
5237,34240
5238,34240
5239,34304
5240,34304
5241,34304
5242,34368
5243,34368
5244,34368
5245,34368
5246,34304
5247,34240
5248,34176
5249,34176
5250,34304
5251,34432
5252,34496
5253,34624
5254,34688
5255,34816
5256,34880
5257,34944
5258,34944
5259,35008
5260,35072
5261,35072
5262,35008
5263,35008
5264,34944
5265,34880
5266,34816
5267,34688
5268,34688
5269,34688
5270,34624
5271,34560
5272,34496
5273,34432
5274,34304
5275,34176
5276,34176
5277,34112
5278,34112
5279,34048
5280,33984
5281,33984
5282,33920
5283,33856
5284,33856
5285,33856
5286,33856
5287,33856
5288,33856
5289,33920
5290,33920
5291,33984
5292,34048
5293,33984
5294,33984
5295,33984
5296,34112
5297,34112
5298,34112
5299,34112
5300,34112
5301,34112
5302,34112
5303,34048
5304,34048
5305,34112
5306,34112
5307,34112
5308,34112
5309,34176
5310,34176
5311,34112
5312,34048
5313,34048
5314,34112
5315,34112
5316,34048
5317,34048
5318,34112
5319,34112
5320,34112
5321,34048
5322,34048
5323,33984
5324,33984
5325,33984
5326,33920
5327,33920
5328,33920
5329,33920
5330,33920
5331,33984
5332,33920
5333,33920
5334,33984
5335,33984
5336,34048
5337,34048
5338,34048
5339,34112
5340,34112
5341,34112
5342,34112
5343,34048
5344,33920
5345,33856
5346,33856
5347,33856
5348,33920
5349,33984
5350,33984
5351,33920
5352,33920
5353,33984
5354,33984
5355,34048
5356,34112
5357,34176
5358,34176
5359,34176
5360,34240
5361,34240
5362,34304
5363,34368
5364,34368
5365,34368
5366,34240
5367,34112
5368,34048
5369,34048
5370,34048
5371,34048
5372,34112
5373,34176
5374,34176
5375,34176
5376,34112
5377,34112
5378,34048
5379,33984
5380,33920
5381,33920
5382,33920
5383,33920
5384,33920
5385,33920
5386,33920
5387,33920
5388,33984
5389,34112
5390,34112
5391,34048
5392,34048
5393,34048
5394,34048
5395,33984
5396,33984
5397,33984
5398,34176
5399,34496
5400,35200
5401,36352
5402,37888
5403,39232
5404,39872
5405,39232
5406,37312
5407,34880
5408,32448
5409,30848
5410,30208
5411,30336
5412,30912
5413,31808
5414,32576
5415,33216
5416,33728
5417,34112
5418,34368
5419,34496
5420,34560
5421,34560
5422,34560
5423,34496
5424,34432
5425,34304
5426,34304
5427,34304
5428,34176
5429,34048
5430,34048
5431,34048
5432,34112
5433,34112
5434,34112
5435,34176
5436,34240
5437,34304
5438,34368
5439,34432
5440,34432
5441,34432
5442,34496
5443,34624
5444,34624
5445,34560
5446,34496
5447,34496
5448,34560
5449,34688
5450,34688
5451,34752
5452,34752
5453,34816
5454,34880
5455,34944
5456,34944
5457,34944
5458,34944
5459,34880
5460,34752
5461,34688
5462,34560
5463,34560
5464,34560
5465,34432
5466,34304
5467,34176
5468,34176
5469,34048
5470,33984
5471,33984
5472,34048
5473,34112
5474,34112
5475,34048
5476,34048
5477,34048
5478,33984
5479,33856
5480,33856
5481,33856
5482,33856
5483,33792
5484,33792
5485,33856
5486,33920
5487,33856
5488,33984
5489,33984
5490,33984
5491,33984
5492,34048
5493,34112
5494,34112
5495,34112
5496,34112
5497,34176
5498,34176
5499,34112
5500,34112
5501,34048
5502,34112
5503,34112
5504,34112
5505,34112
5506,34176
5507,34112
5508,34112
5509,34048
5510,33984
5511,33984
5512,33856
5513,33792
5514,33792
5515,33856
5516,33920
5517,33984
5518,33984
5519,33984
5520,33856
5521,33856
5522,33856
5523,33920
5524,33920
5525,33920
5526,33984
5527,34048
5528,34048
5529,34048
5530,33984
5531,33984
5532,33984
5533,33984
5534,33984
5535,33984
5536,33984
5537,33984
5538,33920
5539,33920
5540,33920
5541,33920
5542,33920
5543,33920
5544,33920
5545,33856
5546,33792
5547,33856
5548,33920
5549,33984
5550,34048
5551,34048
5552,34112
5553,34112
5554,34112
5555,34176
5556,34240
5557,34304
5558,34240
5559,34240
5560,34176
5561,34176
5562,34176
5563,34176
5564,34240
5565,34304
5566,34176
5567,34048
5568,33984
5569,33920
5570,33984
5571,33984
5572,33984
5573,33920
5574,33920
5575,33856
5576,33792
5577,33856
5578,33856
5579,33856
5580,33856
5581,33920
5582,34048
5583,34048
5584,34048
5585,34048
5586,33984
5587,33984
5588,33920
5589,33920
5590,33984
5591,34176
5592,34752
5593,35648
5594,36992
5595,38336
5596,39296
5597,39168
5598,37760
5599,35584
5600,32768
5601,31616
5602,30720
5603,30464
5604,30848
5605,31552
5606,32320
5607,33024
5608,33600
5609,34048
5610,34304
5611,34496
5612,34624
5613,34688
5614,34688
5615,34560
5616,34432
5617,34304
5618,34176
5619,34112
5620,34112
5621,34112
5622,34112
5623,34112
5624,34112
5625,34112
5626,34112
5627,34176
5628,34176
5629,34176
5630,34240
5631,34240
5632,34304
5633,34304
5634,34304
5635,34368
5636,34368
5637,34368
5638,34432
5639,34432
5640,34496
5641,34496
5642,34560
5643,34624
5644,34688
5645,34752
5646,34752
5647,34816
5648,34816
5649,34752
5650,34688
5651,34688
5652,34688
5653,34688
5654,34624
5655,34560
5656,34496
5657,34432
5658,34304
5659,34176
5660,34176
5661,34112
5662,34112
5663,34048
5664,33984
5665,33920
5666,33856
5667,33792
5668,33792
5669,33792
5670,33728
5671,33728
5672,33728
5673,33792
5674,33792
5675,33728
5676,33728
5677,33728
5678,33792
5679,33792
5680,33856
5681,33920
5682,33984
5683,33984
5684,33984
5685,34048
5686,34048
5687,33984
5688,33984
5689,34048
5690,34048
5691,33984
5692,33984
5693,34048
5694,34112
5695,34048
5696,34048
5697,34112
5698,34112
5699,34048
5700,34048
5701,34048
5702,34048
5703,33984
5704,33984
5705,34048
5706,34048
5707,34048
5708,33984
5709,33984
5710,33920
5711,33856
5712,33856
5713,33920
5714,33984
5715,33984
5716,33984
5717,33920
5718,33920
5719,33984
5720,33984
5721,33920
5722,33920
5723,33856
5724,33856
5725,33920
5726,33920
5727,33920
5728,33920
5729,33984
5730,33984
5731,34048
5732,34048
5733,34048
5734,34048
5735,34112
5736,34112
5737,34112
5738,34112
5739,34048
5740,34112
5741,34112
5742,34112
5743,34176
5744,34304
5745,34304
5746,34240
5747,34176
5748,34112
5749,34048
5750,33984
5751,33920
5752,33856
5753,33728
5754,33664
5755,33728
5756,33792
5757,33856
5758,33856
5759,33920
5760,34048
5761,34048
5762,34048
5763,33984
5764,33984
5765,34048
5766,33984
5767,33920
5768,33856
5769,33856
5770,34048
5771,34432
5772,35136
5773,36288
5774,37568
5775,38656
5776,38912
5777,38080
5778,36288
5779,34112
5780,31936
5781,31232
5782,30784
5783,30784
5784,31232
5785,32064
5786,32832
5787,33408
5788,33920
5789,34176
5790,34368
5791,34496
5792,34496
5793,34496
5794,34432
5795,34432
5796,34368
5797,34304
5798,34304
5799,34176
5800,34176
5801,34176
5802,34240
5803,34240
5804,34176
5805,34176
5806,34240
5807,34240
5808,34240
5809,34240
5810,34304
5811,34304
5812,34368
5813,34432
5814,34560
5815,34624
5816,34560
5817,34496
5818,34560
5819,34560
5820,34624
5821,34624
5822,34752
5823,34816
5824,34816
5825,34752
5826,34752
5827,34816
5828,34816
5829,34816
5830,34816
5831,34752
5832,34752
5833,34624
5834,34560
5835,34496
5836,34432
5837,34304
5838,34240
5839,34176
5840,34112
5841,34112
5842,34048
5843,33984
5844,33984
5845,33920
5846,33920
5847,33984
5848,33984
5849,33920
5850,33856
5851,33856
5852,33856
5853,33856
5854,33856
5855,33920
5856,33920
5857,33984
5858,33920
5859,33920
5860,33984
5861,33984
5862,33984
5863,33984
5864,34048
5865,34112
5866,34112
5867,34048
5868,34048
5869,34112
5870,34176
5871,34176
5872,34176
5873,34176
5874,34240
5875,34176
5876,34176
5877,34176
5878,34112
5879,34048
5880,33984
5881,33984
5882,33984
5883,33984
5884,34048
5885,34048
5886,34048
5887,34048
5888,33984
5889,33984
5890,34048
5891,34048
5892,34048
5893,34048
5894,34112
5895,34048
5896,33984
5897,34048
5898,34048
5899,33984
5900,33856
5901,33856
5902,33856
5903,33920
5904,33920
5905,33920
5906,33984
5907,33984
5908,33984
5909,33984
5910,34048
5911,34112
5912,34112
5913,34112
5914,34176
5915,34240
5916,34304
5917,34368
5918,34368
5919,34304
5920,34240
5921,34176
5922,34176
5923,34176
5924,34176
5925,34112
5926,34112
5927,34112
5928,33984
5929,33920
5930,33920
5931,33984
5932,33856
5933,33792
5934,33792
5935,33856
5936,33920
5937,33984
5938,33920
5939,34112
5940,34112
5941,34176
5942,34176
5943,34176
5944,34112
5945,34048
5946,33984
5947,33984
5948,33984
5949,33984
5950,34176
5951,34624
5952,35328
5953,36480
5954,37952
5955,39232
5956,39616
5957,38464
5958,38208
5959,33152
5960,32832
5961,32000
5962,30400
5963,30656
5964,31296
5965,32000
5966,32768
5967,33408
5968,33856
5969,34240
5970,34368
5971,34496
5972,34560
5973,34496
5974,34432
5975,34368
5976,34304
5977,34304
5978,34240
5979,34176
5980,34176
5981,34240
5982,34304
5983,34240
5984,34240
5985,34176
5986,34176
5987,34176
5988,34176
5989,34176
5990,34176
5991,34240
5992,34304
5993,34368
5994,34432
5995,34432
5996,34496
5997,34560
5998,34496
5999,34688
6000,34752
6001,34880
6002,34880
6003,34880
6004,34944
6005,34880
6006,35008
6007,34944
6008,34880
6009,34880
6010,34816
6011,34752
6012,34688
6013,34624
6014,34560
6015,34496
6016,34432
6017,34368
6018,34432
6019,34432
6020,34368
6021,34304
6022,34240
6023,34112
6024,34048
6025,33984
6026,33920
6027,33920
6028,33856
6029,33792
6030,33792
6031,33792
6032,33792
6033,33792
6034,33792
6035,33856
6036,33856
6037,33856
6038,33920
6039,34048
6040,34048
6041,34112
6042,34112
6043,34112
6044,34112
6045,34048
6046,34112
6047,34112
6048,34048
6049,34048
6050,33984
6051,33984
6052,34048
6053,34048
6054,34112
6055,34112
6056,34112
6057,34112
6058,34048
6059,34112
6060,34112
6061,34048
6062,33984
6063,34048
6064,34112
6065,34112
6066,34048
6067,33984
6068,33920
6069,33920
6070,33856
6071,33856
6072,33984
6073,33984
6074,34048
6075,34048
6076,33984
6077,33984
6078,33920
6079,34048
6080,34112
6081,34048
6082,33984
6083,33920
6084,33920
6085,33920
6086,33856
6087,33920
6088,33920
6089,33920
6090,33920
6091,33920
6092,33984
6093,34048
6094,34048
6095,33984
6096,34048
6097,34048
6098,33920
6099,33856
6100,33856
6101,33984
6102,34048
6103,34112
6104,34240
6105,34304
6106,34240
6107,34176
6108,34048
6109,34112
6110,34048
6111,34112
6112,34176
6113,34240
6114,34304
6115,34304
6116,34176
6117,34112
6118,33984
6119,33984
6120,33920
6121,33984
6122,33984
6123,33920
6124,33856
6125,33856
6126,33920
6127,33856
6128,33856
6129,33792
6130,33856
6131,33920
6132,33984
6133,33984
6134,33984
6135,33984
6136,33920
6137,33856
6138,33920
6139,34240
6140,34688
6141,35456
6142,36608
6143,38144
6144,39424
6145,39872
6146,39040
6147,37056
6148,34432
6149,32128
6150,30720
6151,30208
6152,30336
6153,30976
6154,32064
6155,32064
6156,33280
6157,33728
6158,34112
6159,34368
6160,34496
6161,34624
6162,34624
6163,34560
6164,34560
6165,34432
6166,34304
6167,34304
6168,34368
6169,34368
6170,34240
6171,34176
6172,34176
6173,34112
6174,34048
6175,34048
6176,34112
6177,34176
6178,34176
6179,34240
6180,34304
6181,34432
6182,34432
6183,34432
6184,34496
6185,34432
6186,34560
6187,34624
6188,34752
6189,34816
6190,34880
6191,34880
6192,34944
6193,34944
6194,34880
6195,34880
6196,34880
6197,34880
6198,34816
6199,34688
6200,34624
6201,34560
6202,34496
6203,34432
6204,34496
6205,34560
6206,34560
6207,34496
6208,34368
6209,34240
6210,34240
6211,34240
6212,34176
6213,34112
6214,33984
6215,33920
6216,33856
6217,33856
6218,33792
6219,33792
6220,33792
6221,33792
6222,33792
6223,33792
6224,33792
6225,33856
6226,33920
6227,33984
6228,33984
6229,33920
6230,33984
6231,33984
6232,33984
6233,33984
6234,33984
6235,34048
6236,34048
6237,33984
6238,33920
6239,33920
6240,33920
6241,33856
6242,33856
6243,33920
6244,33984
6245,33984
6246,33984
6247,33984
6248,33984
6249,33920
6250,33920
6251,33984
6252,33984
6253,33984
6254,33984
6255,33984
6256,33984
6257,33984
6258,33920
6259,33920
6260,33920
6261,33920
6262,33920
6263,33920
6264,33984
6265,33984
6266,33920
6267,33984
6268,34048
6269,34112
6270,34176
6271,34112
6272,34176
6273,34176
6274,34112
6275,34048
6276,34048
6277,34048
6278,34048
6279,34048
6280,34048
6281,34048
6282,33984
6283,33920
6284,33920
6285,33920
6286,33984
6287,34048
6288,34048
6289,34048
6290,34112
6291,34176
6292,34240
6293,34240
6294,34304
6295,34240
6296,34176
6297,34176
6298,34112
6299,34112
6300,34048
6301,34048
6302,34048
6303,33984
6304,33920
6305,33984
6306,33984
6307,33984
6308,33984
6309,33984
6310,34048
6311,34112
6312,34176
6313,34240
6314,34240
6315,34304
6316,34304
6317,34240
6318,34304
6319,34304
6320,34304
6321,34304
6322,34368
6323,34368
6324,34304
6325,34240
6326,34240
6327,34304
6328,34304
6329,34304
6330,34432
6331,34432
6332,34304
6333,34112
6334,34048
6335,34112
6336,34176
6337,34112
6338,34112
6339,34048
6340,33984
6341,33920
6342,33920
6343,33984
6344,34048
6345,34112
6346,34112
6347,34176
6348,34176
6349,34112
6350,34112
6351,34112
6352,34112
6353,34048
6354,34048
6355,34048
6356,34176
6357,34560
6358,35264
6359,36352
6360,37760
6361,39168
6362,39936
6363,39488
6364,37824
6365,35392
6366,32832
6367,31168
6368,30336
6369,30336
6370,30784
6371,31552
6372,32448
6373,33088
6374,33664
6375,34048
6376,34304
6377,34560
6378,34624
6379,34688
6380,34688
6381,34624
6382,34496
6383,34368
6384,34240
6385,34176
6386,34048
6387,34048
6388,34048
6389,34112
6390,34240
6391,34304
6392,34304
6393,34368
6394,34368
6395,34368
6396,34368
6397,34368
6398,34368
6399,34368
6400,34368
6401,34432
6402,34496
6403,34560
6404,34560
6405,34688
6406,34752
6407,34816
6408,34816
6409,34816
6410,34880
6411,34944
6412,34880
6413,34880
6414,34880
6415,34880
6416,34816
6417,34816
6418,34816
6419,34752
6420,34688
6421,34624
6422,34560
6423,34560
6424,34432
6425,34368
6426,34368
6427,34304
6428,34240
6429,34240
6430,34176
6431,34176
6432,34112
6433,34048
6434,33984
6435,33984
6436,33920
6437,33920
6438,33920
6439,33920
6440,33920
6441,33920
6442,33856
6443,33920
6444,33920
6445,33920
6446,33920
6447,33984
6448,34048
6449,34048
6450,34048
6451,34112
6452,34112
6453,34112
6454,34112
6455,34176
6456,34240
6457,34240
6458,34240
6459,34176
6460,34176
6461,34112
6462,34048
6463,34048
6464,34112
6465,34176
6466,34112
6467,34048
6468,34048
6469,34048
6470,33984
6471,33920
6472,33920
6473,33984
6474,34112
6475,34176
6476,34112
6477,34112
6478,34048
6479,33984
6480,33984
6481,33984
6482,33984
6483,33920
6484,33920
6485,33920
6486,33920
6487,33920
6488,33920
6489,33920
6490,33920
6491,33856
6492,33856
6493,33856
6494,33920
6495,33920
6496,33920
6497,33984
6498,34112
6499,34112
6500,34048
6501,34048
6502,34048
6503,33984
6504,33984
6505,33984
6506,34048
6507,34048
6508,34048
6509,33984
6510,33984
6511,33984
6512,33984
6513,34048
6514,34112
6515,34112
6516,34048
6517,33984
6518,33984
6519,33984
6520,33920
6521,33984
6522,34048
6523,34176
6524,34112
6525,34048
6526,34048
6527,33984
6528,33984
6529,33984
6530,34048
6531,34176
6532,34240
6533,34240
6534,34240
6535,34176
6536,34176
6537,34176
6538,34240
6539,34304
6540,34368
6541,34432
6542,34368
6543,34304
6544,34176
6545,34048
6546,33984
6547,33920
6548,33856
6549,33856
6550,33792
6551,33792
6552,33856
6553,33856
6554,33920
6555,33984
6556,34048
6557,34112
6558,34112
6559,34112
6560,34176
6561,34176
6562,34112
6563,34112
6564,34112
6565,34112
6566,34112
6567,34240
6568,34752
6569,35456
6570,36608
6571,38016
6572,39168
6573,39360
6574,38208
6575,36096
6576,33728
6577,31936
6578,30912
6579,30528
6580,30720
6581,31360
6582,32256
6583,33088
6584,33600
6585,34112
6586,34368
6587,34560
6588,34624
6589,34688
6590,34688
6591,34624
6592,34560
6593,34432
6594,34432
6595,34368
6596,34304
6597,34240
6598,34176
6599,34176
6600,34112
6601,34176
6602,34176
6603,34176
6604,34176
6605,34176
6606,34240
6607,34304
6608,34368
6609,34368
6610,34432
6611,34496
6612,34496
6613,34560
6614,34624
6615,34624
6616,34688
6617,34688
6618,34752
6619,34816
6620,34880
6621,34816
6622,34752
6623,34752
6624,34816
6625,34816
6626,34880
6627,34816
6628,34752
6629,34688
6630,34688
6631,34624
6632,34560
6633,34432
6634,34304
6635,34240
6636,34240
6637,34176
6638,34176
6639,34176
6640,34176
6641,34112
6642,34048
6643,34048
6644,34048
6645,33984
6646,33920
6647,33792
6648,33728
6649,33664
6650,33664
6651,33664
6652,33792
6653,33856
6654,33920
6655,33984
6656,34048
6657,34112
6658,34048
6659,34048
6660,34112
6661,34112
6662,34048
6663,34048
6664,34112
6665,34176
6666,34176
6667,34112
6668,34048
6669,34048
6670,34048
6671,33984
6672,33984
6673,33984
6674,34048
6675,34048
6676,34112
6677,34112
6678,34112
6679,34048
6680,33984
6681,34048
6682,34048
6683,34048
6684,33984
6685,34048
6686,34048
6687,34048
6688,34048
6689,34048
6690,34048
6691,33984
6692,33984
6693,34112
6694,34112
6695,34048
6696,33920
6697,33920
6698,33920
6699,33856
6700,33792
6701,33792
6702,33920
6703,33984
6704,33984
6705,33984
6706,34048
6707,34048
6708,34048
6709,34048
6710,34048
6711,34048
6712,34048
6713,34048
6714,34112
6715,34112
6716,34048
6717,34048
6718,33984
6719,33984
6720,33920
6721,33984
6722,34048
6723,34112
6724,34112
6725,34048
6726,34048
6727,34112
6728,34048
6729,34048
6730,34048
6731,34048
6732,34048
6733,34048
6734,34048
6735,34112
6736,34112
6737,34112
6738,34176
6739,34176
6740,34304
6741,34240
6742,34240
6743,34176
6744,34240
6745,34240
6746,34240
6747,34304
6748,34368
6749,34368
6750,34304
6751,34240
6752,34176
6753,34112
6754,34048
6755,34048
6756,33984
6757,33920
6758,33792
6759,33728
6760,33856
6761,33920
6762,33984
6763,34048
6764,34176
6765,34176
6766,34112
6767,34112
6768,34048
6769,34048
6770,34048
6771,33984
6772,33920
6773,33920
6774,34048
6775,34304
6776,34880
6777,35904
6778,37440
6779,38656
6780,39552
6781,39424
6782,37760
6783,35648
6784,33280
6785,31552
6786,30720
6787,30464
6788,30784
6789,31488
6790,32320
6791,32960
6792,33536
6793,33984
6794,34240
6795,34432
6796,34432
6797,34496
6798,34560
6799,34560
6800,34432
6801,34368
6802,34368
6803,34368
6804,34240
6805,34240
6806,34176
6807,34240
6808,34176
6809,34240
6810,34240
6811,34304
6812,34304
6813,34304
6814,34304
6815,34304
6816,34304
6817,34240
6818,34304
6819,34368
6820,34432
6821,34432
6822,34432
6823,34560
6824,34624
6825,34688
6826,34688
6827,34816
6828,34944
6829,34944
6830,34944
6831,35008
6832,35008
6833,35008
6834,34944
6835,34944
6836,34816
6837,34624
6838,34496
6839,34496
6840,34432
6841,34368
6842,34240
6843,34176
6844,34112
6845,34048
6846,33984
6847,33984
6848,34112
6849,34176
6850,34112
6851,34112
6852,34112
6853,34048
6854,33984
6855,33984
6856,33984
6857,33984
6858,33920
6859,33920
6860,33920
6861,33920
6862,33856
6863,33856
6864,33856
6865,33984
6866,33920
6867,33856
6868,33856
6869,33920
6870,33984
6871,34048
6872,34112
6873,34176
6874,34176
6875,34112
6876,34112
6877,34112
6878,34176
6879,34176
6880,34112
6881,34112
6882,34176
6883,34176
6884,34112
6885,34112
6886,34112
6887,34112
6888,33984
6889,33984
6890,33984
6891,33984
6892,33920
6893,33920
6894,33984
6895,33920
6896,33920
6897,33856
6898,33920
6899,33984
6900,33984
6901,33984
6902,33984
6903,33984
6904,33984
6905,33920
6906,33984
6907,34048
6908,34048
6909,33920
6910,33920
6911,33920
6912,33920
6913,33920
6914,33920
6915,33984
6916,33984
6917,33920
6918,33984
6919,34048
6920,34048
6921,34048
6922,34048
6923,34112
6924,34176
6925,34176
6926,34112
6927,34112
6928,34048
6929,33984
6930,33920
6931,33920
6932,33920
6933,33856
6934,33792
6935,33792
6936,33728
6937,33664
6938,33600
6939,33664
6940,33728
6941,33792
6942,33792
6943,33920
6944,33984
6945,34048
6946,34048
6947,33984
6948,33984
6949,34048
6950,33984
6951,33984
6952,33984
6953,33984
6954,34048
6955,33984
6956,33984
6957,33920
6958,33920
6959,33856
6960,33920
6961,33920
6962,33984
6963,33984
6964,34112
6965,34240
6966,34240
6967,34240
6968,34240
6969,34304
6970,34432
6971,34432
6972,34432
6973,34368
6974,34304
6975,34176
6976,34240
6977,34304
6978,34368
6979,34432
6980,34368
6981,34304
6982,34304
6983,34176
6984,34112
6985,34048
6986,34048
6987,33984
6988,33920
6989,33920
6990,33920
6991,33984
6992,33984
6993,33984
6994,34048
6995,34112
6996,34048
6997,34048
6998,34112
6999,34176
7000,34176
7001,34240
7002,34240
7003,34240
7004,34240
7005,34432
7006,34880
7007,35584
7008,36736
7009,38144
7010,39360
7011,39872
7012,38912
7013,36864
7014,34304
7015,32064
7016,30656
7017,30208
7018,30464
7019,31232
7020,32064
7021,32768
7022,33344
7023,33920
7024,34368
7025,34560
7026,34560
7027,34624
7028,34624
7029,34560
7030,34432
7031,34432
7032,34432
7033,34304
7034,34240
7035,34176
7036,34240
7037,34240
7038,34240
7039,34240
7040,34368
7041,34368
7042,34304
7043,34304
7044,34304
7045,34304
7046,34240
7047,34240
7048,34304
7049,34368
7050,34432
7051,34496
7052,34496
7053,34560
7054,34560
7055,34496
7056,34560
7057,34688
7058,34816
7059,34880
7060,34944
7061,34944
7062,35008
7063,35008
7064,34944
7065,34880
7066,34816
7067,34752
7068,34752
7069,34688
7070,34624
7071,34496
7072,34432
7073,34368
7074,34240
7075,34176
7076,34112
7077,34048
7078,34048
7079,33984
7080,33920
7081,33856
7082,33856
7083,33856
7084,33856
7085,33920
7086,33984
7087,34048
7088,34048
7089,34048
7090,33984
7091,33856
7092,33792
7093,33792
7094,33856
7095,33920
7096,33920
7097,33920
7098,33920
7099,33920
7100,33920
7101,33920
7102,33920
7103,33984
7104,34048
7105,34048
7106,34112
7107,34240
7108,34304
7109,34304
7110,34304
7111,34368
7112,34304
7113,34240
7114,34176
7115,34176
7116,34176
7117,34048
7118,33920
7119,33920
7120,33920
7121,33856
7122,33856
7123,33856
7124,33920
7125,33920
7126,33920
7127,33984
7128,34048
7129,34048
7130,34048
7131,34112
7132,34112
7133,34048
7134,33984
7135,33920
7136,33920
7137,33920
7138,33920
7139,33920
7140,33920
7141,33856
7142,33856
7143,33856
7144,33920
7145,33984
7146,33984
7147,33984
7148,34048
7149,34112
7150,34112
7151,34112
7152,34112
7153,34112
7154,34048
7155,33984
7156,33920
7157,33984
7158,33984
7159,33984
7160,34048
7161,34048
7162,34048
7163,33984
7164,34048
7165,34048
7166,34112
7167,34048
7168,33984
7169,33984
7170,33984
7171,33984
7172,33920
7173,34048
7174,34112
7175,34112
7176,34112
7177,34112
7178,34112
7179,34176
7180,34112
7181,34112
7182,34176
7183,34176
7184,34048
7185,34048
7186,34112
7187,34112
7188,34112
7189,34112
7190,34112
7191,34112
7192,34112
7193,34176
7194,34240
7195,34240
7196,34304
7197,34304
7198,34368
7199,34368
7200,34304
7201,34304
7202,34368
7203,34432
7204,34368
7205,34240
7206,34240
7207,34240
7208,34176
7209,34112
7210,34048
7211,33984
7212,33920
7213,33792
7214,33728
7215,33792
7216,33856
7217,33856
7218,33920
7219,34048
7220,34176
7221,34304
7222,34304
7223,34304
7224,34304
7225,34304
7226,34176
7227,34176
7228,34368
7229,34816
7230,35456
7231,36608
7232,38080
7233,39360
7234,39808
7235,38976
7236,36928
7237,34240
7238,32128
7239,30720
7240,30144
7241,30272
7242,30912
7243,31872
7244,32704
7245,33472
7246,33984
7247,34368
7248,34496
7249,34624
7250,34688
7251,34752
7252,34688
7253,34624
7254,34496
7255,34368
7256,34304
7257,34240
7258,34240
7259,34176
7260,34240
7261,34304
7262,34304
7263,34240
7264,34176
7265,34176
7266,34176
7267,34176
7268,34176
7269,34304
7270,34368
7271,34368
7272,34368
7273,34432
7274,34496
7275,34560
7276,34624
7277,34688
7278,34752
7279,34752
7280,34816
7281,34816
7282,34880
7283,34944
7284,35008
7285,34944
7286,35008
7287,34944
7288,34880
7289,34752
7290,34752
7291,34688
7292,34560
7293,34432
7294,34432
7295,34496
7296,34496
7297,34432
7298,34304
7299,34304
7300,34176
7301,34112
7302,34112
7303,34048
7304,33984
7305,33920
7306,33920
7307,33920
7308,33920
7309,33856
7310,33920
7311,33920
7312,33856
7313,33792
7314,33792
7315,33920
7316,34048
7317,34112
7318,34112
7319,34112
7320,34112
7321,34048
7322,34112
7323,34112
7324,34048
7325,34048
7326,33984
7327,34048
7328,34048
7329,34112
7330,34112
7331,34112
7332,34112
7333,34112
7334,34112
7335,34112
7336,34176
7337,34176
7338,34176
7339,34176
7340,34240
7341,34304
7342,34240
7343,34176
7344,34176
7345,34112
7346,34048
7347,33984
7348,33920
7349,33984
7350,33984
7351,33920
7352,33920
7353,33920
7354,33920
7355,33920
7356,33920
7357,33984
7358,34048
7359,33984
7360,33984
7361,34048
7362,34112
7363,34112
7364,34112
7365,34112
7366,34176
7367,34112
7368,34112
7369,34112
7370,34112
7371,34048
7372,33984
7373,33984
7374,33984
7375,33984
7376,33984
7377,34048
7378,34112
7379,34112
7380,34112
7381,34048
7382,34112
7383,34112
7384,34112
7385,34112
7386,34176
7387,34240
7388,34240
7389,34240
7390,34240
7391,34240
7392,34176
7393,34176
7394,34304
7395,34432
7396,34432
7397,34496
7398,34432
7399,34368
7400,34176
7401,34048
7402,33984
7403,33920
7404,33920
7405,33856
7406,33856
7407,33856
7408,33920
7409,33856
7410,33920
7411,33920
7412,33920
7413,33984
7414,33984
7415,34048
7416,34112
7417,34112
7418,34112
7419,34112
7420,34112
7421,34048
7422,33984
7423,34240
7424,34688
7425,35456
7426,36608
7427,38080
7428,39232
7429,39552
7430,38464
7431,36352
7432,33984
7433,32000
7434,30848
7435,30464
7436,30592
7437,31232
7438,31936
7439,32768
7440,33408
7441,33984
7442,34240
7443,34496
7444,34560
7445,34688
7446,34624
7447,34496
7448,34432
7449,34368
7450,34304
7451,34240
7452,34240
7453,34176
7454,34112
7455,34048
7456,34112
7457,34240
7458,34304
7459,34304
7460,34368
7461,34304
7462,34304
7463,34304
7464,34240
7465,34240
7466,34304
7467,34368
7468,34432
7469,34432
7470,34496
7471,34496
7472,34432
7473,34496
7474,34560
7475,34624
7476,34688
7477,34752
7478,34880
7479,34944
7480,34944
7481,34944
7482,34944
7483,34880
7484,34816
7485,34688
7486,34624
7487,34624
7488,34624
7489,34496
7490,34368
7491,34368
7492,34368
7493,34240
7494,34176
7495,34112
7496,34048
7497,33984
7498,33920
7499,33920
7500,33920
7501,33856
7502,33856
7503,33920
7504,33984
7505,33984
7506,33920
7507,33920
7508,33920
7509,33856
7510,33856
7511,33920
7512,33984
7513,33984
7514,33984
7515,34048
7516,34112
7517,34112
7518,34048
7519,34048
7520,34048
7521,34048
7522,33984
7523,33984
7524,34048
7525,34176
7526,34176
7527,34176
7528,34176
7529,34176
7530,34112
7531,34048
7532,34048
7533,34112
7534,34112
7535,34112
7536,34112
7537,34048
7538,34048
7539,34048
7540,34048
7541,34048
7542,33984
7543,33920
7544,33920
7545,33984
7546,34048
7547,34048
7548,34048
7549,34112
7550,34112
7551,34112
7552,34048
7553,33984
7554,33984
7555,33920
7556,33920
7557,33984
7558,34048
7559,34048
7560,34048
7561,34048
7562,34048
7563,34048
7564,34048
7565,34048
7566,34112
7567,34112
7568,34112
7569,34112
7570,34176
7571,34176
7572,34176
7573,34112
7574,34112
7575,34112
7576,33984
7577,33920
7578,33920
7579,33920
7580,33920
7581,34048
7582,34176
7583,34304
7584,34304
7585,34304
7586,34368
7587,34304
7588,34304
7589,34304
7590,34304
7591,34368
7592,34496
7593,34496
7594,34432
7595,34240
7596,34112
7597,33984
7598,33920
7599,33920
7600,33920
7601,33920
7602,33856
7603,33856
7604,33856
7605,33856
7606,33920
7607,33984
7608,34048
7609,34112
7610,34112
7611,34112
7612,34176
7613,34176
7614,34176
7615,34112
7616,34112
7617,34176
7618,34432
7619,34880
7620,35648
7621,36864
7622,38336
7623,39488
7624,39872
7625,38464
7626,36736
7627,34112
7628,31872
7629,30592
7630,30144
7631,30400
7632,31104
7633,32000
7634,32832
7635,33472
7636,33920
7637,34240
7638,34432
7639,34496
7640,34624
7641,34688
7642,34688
7643,34560
7644,34496
7645,34432
7646,34368
7647,34240
7648,34176
7649,34176
7650,34240
7651,34304
7652,34240
7653,34240
7654,34112
7655,34048
7656,34048
7657,34048
7658,34112
7659,34176
7660,34240
7661,34368
7662,34432
7663,34496
7664,34560
7665,34624
7666,34688
7667,34752
7668,34752
7669,34752
7670,34880
7671,34880
7672,34880
7673,34880
7674,34880
7675,34944
7676,34880
7677,34816
7678,34816
7679,34816
7680,34752
7681,34688
7682,34688
7683,34688
7684,34560
7685,34496
7686,34368
7687,34368
7688,34304
7689,34240
7690,34240
7691,34240
7692,34240
7693,34112
7694,33920
7695,33920
7696,33920
7697,33856
7698,33792
7699,33856
7700,33856
7701,33856
7702,33856
7703,33920
7704,33984
7705,34048
7706,34048
7707,34048
7708,34112
7709,34112
7710,34112
7711,34112
7712,34112
7713,34112
7714,34112
7715,34112
7716,34176
7717,34112
7718,34048
7719,33984
7720,34048
7721,34048
7722,34048
7723,34112
7724,34176
7725,34304
7726,34304
7727,34240
7728,34304
7729,34304
7730,34240
7731,34176
7732,34112
7733,34112
7734,34048
7735,33984
7736,33920
7737,33920
7738,33920
7739,33856
7740,33792
7741,33856
7742,33920
7743,33984
7744,33984
7745,34112
7746,34176
7747,34176
7748,34112
7749,34112
7750,34112
7751,34048
7752,34048
7753,34048
7754,34048
7755,33984
7756,34048
7757,34112
7758,34112
7759,34048
7760,33984
7761,33984
7762,33984
7763,33920
7764,33920
7765,33984
7766,33984
7767,34048
7768,33984
7769,34112
7770,34112
7771,34112
7772,34112
7773,34176
7774,34240
7775,34176
7776,34176
7777,34176
7778,34240
7779,34304
7780,34240
7781,34240
7782,34368
7783,34368
7784,34368
7785,34240
7786,34176
7787,34048
7788,33984
7789,33920
7790,33856
7791,33856
7792,33792
7793,33792
7794,33856
7795,33920
7796,33920
7797,33920
7798,33856
7799,34048
7800,34048
7801,33984
7802,33920
7803,33984
7804,33984
7805,33984
7806,33984
7807,34112
7808,34368
7809,34752
7810,35584
7811,36736
7812,38272
7813,39488
7814,39488
7815,39104
7816,37056
7817,34496
7818,32128
7819,30656
7820,30144
7821,30272
7822,30848
7823,31680
7824,32448
7825,33152
7826,33664
7827,34048
7828,34368
7829,34560
7830,34688
7831,34688
7832,34688
7833,34624
7834,34496
7835,34432
7836,34368
7837,34368
7838,34240
7839,34304
7840,34304
7841,34304
7842,34176
7843,34112
7844,34048
7845,34048
7846,34112
7847,34176
7848,34240
7849,34368
7850,34304
7851,34368
7852,34368
7853,34496
7854,34560
7855,34624
7856,34624
7857,34752
7858,34816
7859,34880
7860,34944
7861,34944
7862,34944
7863,34816
7864,34752
7865,34752
7866,34816
7867,34816
7868,34816
7869,34816
7870,34816
7871,34688
7872,34624
7873,34624
7874,34688
7875,34688
7876,34624
7877,34560
7878,34496
7879,34304
7880,34240
7881,34112
7882,34048
7883,34048
7884,33984
7885,33920
7886,33920
7887,33920
7888,33856
7889,33856
7890,33856
7891,33920
7892,33920
7893,33920
7894,34048
7895,33984
7896,33984
7897,33984
7898,34048
7899,34048
7900,34048
7901,34048
7902,34112
7903,34176
7904,34176
7905,34176
7906,34176
7907,34176
7908,34112
7909,34048
7910,33984
7911,34048
7912,34112
7913,34112
7914,34112
7915,34112
7916,34176
7917,34176
7918,34176
7919,34176
7920,34176
7921,34176
7922,34176
7923,34112
7924,34112
7925,34048
7926,33920
7927,33920
7928,33984
7929,33984
7930,33920
7931,33984
7932,34048
7933,34048
7934,33984
7935,33920
7936,33920
7937,33920
7938,33920
7939,33856
7940,33856
7941,33920
7942,33984
7943,33920
7944,33984
7945,34048
7946,34048
7947,34048
7948,34112
7949,34176
7950,34176
7951,34112
7952,34112
7953,34112
7954,34112
7955,34112
7956,34048
7957,34048
7958,34048
7959,34112
7960,34112
7961,34112
7962,34112
7963,34112
7964,34112
7965,34112
7966,34176
7967,34240
7968,34304
7969,34368
7970,34304
7971,34304
7972,34240
7973,34176
7974,34240
7975,34176
7976,34048
7977,33984
7978,33920
7979,33856
7980,33728
7981,33728
7982,33856
7983,33920
7984,33920
7985,33856
7986,33920
7987,33920
7988,33920
7989,33920
7990,33984
7991,33984
7992,33984
7993,33984
7994,33984
7995,34112
7996,34432
7997,35008
7998,35904
7999,37696
8000,37696
8001,39168
8002,38720
8003,37056
8004,34816
8005,32768
8006,31360
8007,30720
8008,30656
8009,30976
8010,31552
8011,32256
8012,33088
8013,33728
8014,34240
8015,34560
8016,34688
8017,34688
8018,34624
8019,34560
8020,34496
8021,34368
8022,34240
8023,34112
8024,34112
8025,34048
8026,33984
8027,34048
8028,34048
8029,34112
8030,34112
8031,34112
8032,34112
8033,34176
8034,34240
8035,34368
8036,34432
8037,34560
8038,34624
8039,34560
8040,34560
8041,34560
8042,34560
8043,34496
8044,34560
8045,34496
8046,34560
8047,34624
8048,34624
8049,34624
8050,34688
8051,34688
8052,34752
8053,34816
8054,34880
8055,34816
8056,34816
8057,34880
8058,34816
8059,34688
8060,34624
8061,34560
8062,34496
8063,34432
8064,34368
8065,34304
8066,34304
8067,34176
8068,34112
8069,34048
8070,33984
8071,33984
8072,33920
8073,33792
8074,33856
8075,33920
8076,33920
8077,33856
8078,33856
8079,33856
8080,33856
8081,33920
8082,33984
8083,34048
8084,33984
8085,33984
8086,34048
8087,34112
8088,34112
8089,34048
8090,33984
8091,34112
8092,34176
8093,34176
8094,34112
8095,34112
8096,34112
8097,34048
8098,33984
8099,34048
8100,34112
8101,34048
8102,34048
8103,34176
8104,34176
8105,34176
8106,34112
8107,34112
8108,34112
8109,34048
8110,33984
8111,33984
8112,33920
8113,33920
8114,33856
8115,33920
8116,33984
8117,33984
8118,33984
8119,33984
8120,33920
8121,33920
8122,33920
8123,33920
8124,33984
8125,34048
8126,34048
8127,34112
8128,34048
8129,34048
8130,34048
8131,34048
8132,34048
8133,34112
8134,34048
8135,33984
8136,33984
8137,34048
8138,34048
8139,33984
8140,34048
8141,34048
8142,34112
8143,34112
8144,34112
8145,34112
8146,34048
8147,34048
8148,34112
8149,34368
8150,34304
8151,34496
8152,34496
8153,34496
8154,34368
8155,34176
8156,34048
8157,33984
8158,33984
8159,33920
8160,33856
8161,33792
8162,33792
8163,33728
8164,33728
8165,33664
8166,33856
8167,33920
8168,33920
8169,33984
8170,34048
8171,34112
8172,34048
8173,34048
8174,34048
8175,34112
8176,34112
8177,34112
8178,34240
8179,34624
8180,35200
8181,36224
8182,37760
8183,38912
8184,39488
8185,38784
8186,36928
8187,34560
8188,32384
8189,30976
8190,30336
8191,30400
8192,30912
8193,31680
8194,33024
8195,33088
8196,33856
8197,34240
8198,34432
8199,34560
8200,34624
8201,34624
8202,34624
8203,34560
8204,34496
8205,34368
8206,34240
8207,34240
8208,34176
8209,34112
8210,34112
8211,34176
8212,34176
8213,34176
8214,34112
8215,34112
8216,34240
8217,34304
8218,34368
8219,34368
8220,34496
8221,34496
8222,34432
8223,34432
8224,34432
8225,34496
8226,34496
8227,34496
8228,34624
8229,34688
8230,34816
8231,34880
8232,34880
8233,34944
8234,34944
8235,34880
8236,34880
8237,34944
8238,35008
8239,34880
8240,34816
8241,34752
8242,34624
8243,34432
8244,34368
8245,34368
8246,34304
8247,34240
8248,34176
8249,34176
8250,34176
8251,34176
8252,34112
8253,34112
8254,34112
8255,34112
8256,33984
8257,33984
8258,33920
8259,33920
8260,33856
8261,33920
8262,33984
8263,34048
8264,34048
8265,33984
8266,33984
8267,33984
8268,33984
8269,33920
8270,33920
8271,33920
8272,33920
8273,33984
8274,33984
8275,34112
8276,34112
8277,34112
8278,34176
8279,34240
8280,34240
8281,34240
8282,34176
8283,34176
8284,34176
8285,34112
8286,34048
8287,34176
8288,34304
8289,34304
8290,34304
8291,34240
8292,34176
8293,34112
8294,33984
8295,33920
8296,33920
8297,33920
8298,33920
8299,33984
8300,33920
8301,33920
8302,33920
8303,34048
8304,34048
8305,33984
8306,33984
8307,34048
8308,34048
8309,33984
8310,33920
8311,33920
8312,33984
8313,33984
8314,33984
8315,33984
8316,33984
8317,34048
8318,34048
8319,34048
8320,34048
8321,34048
8322,33984
8323,33984
8324,33984
8325,33984
8326,33984
8327,33920
8328,33920
8329,33920
8330,33856
8331,33856
8332,33920
8333,34112
8334,34176
8335,34176
8336,34176
8337,34240
8338,34240
8339,34240
8340,34176
8341,34240
8342,34240
8343,34176
8344,34176
8345,34176
8346,34240
8347,34240
8348,34240
8349,34176
8350,34112
8351,34048
8352,33984
8353,34112
8354,34176
8355,34112
8356,33984
8357,33920
8358,33856
8359,33856
8360,33920
8361,33920
8362,33984
8363,33984
8364,33984
8365,34048
8366,34112
8367,34112
8368,34112
8369,34048
8370,34048
8371,33920
8372,33856
8373,34048
8374,34432
8375,35072
8376,35968
8377,37312
8378,38784
8379,39872
8380,39872
8381,38400
8382,35840
8383,33536
8384,31552
8385,30464
8386,30144
8387,30464
8388,31168
8389,31936
8390,32704
8391,33344
8392,33856
8393,34240
8394,34496
8395,34624
8396,34624
8397,34560
8398,34496
8399,34496
8400,34432
8401,34368
8402,34240
8403,34240
8404,34176
8405,34112
8406,34048
8407,34048
8408,34112
8409,34176
8410,34112
8411,34176
8412,34176
8413,34176
8414,34176
8415,34240
8416,34304
8417,34368
8418,34432
8419,34432
8420,34496
8421,34560
8422,34560
8423,34624
8424,34688
8425,34816
8426,34816
8427,34816
8428,34816
8429,34880
8430,34880
8431,34816
8432,34816
8433,34816
8434,34816
8435,34688
8436,34624
8437,34560
8438,34560
8439,34560
8440,34560
8441,34496
8442,34496
8443,34432
8444,34368
8445,34304
8446,34240
8447,34112
8448,33984
8449,33920
8450,33920
8451,33920
8452,33792
8453,33792
8454,33856
8455,33920
8456,33984
8457,33920
8458,33984
8459,33984
8460,33920
8461,33856
8462,33920
8463,34048
8464,34048
8465,33984
8466,34048
8467,34112
8468,34048
8469,34048
8470,34048
8471,34048
8472,34048
8473,34048
8474,34048
8475,34048
8476,34048
8477,34048
8478,34112
8479,34176
8480,34176
8481,34176
8482,34176
8483,34240
8484,34240
8485,34176
8486,34112
8487,34176
8488,34176
8489,34176
8490,34048
8491,33984
8492,33984
8493,33920
8494,33856
8495,33920
8496,33920
8497,33920
8498,33856
8499,33920
8500,33920
8501,33920
8502,33856
8503,33856
8504,33920
8505,33984
8506,34112
8507,34176
8508,34176
8509,34176
8510,34112
8511,33984
8512,33984
8513,34048
8514,34048
8515,34048
8516,34048
8517,33984
8518,33920
8519,33856
8520,33856
8521,33792
8522,33792
8523,33856
8524,33984
8525,34112
8526,34176
8527,34112
8528,34048
8529,33984
8530,33920
8531,33856
8532,33920
8533,34048
8534,34112
8535,34176
8536,34176
8537,34176
8538,34112
8539,34112
8540,34048
8541,34112
8542,34112
8543,34112
8544,34112
8545,34112
8546,34176
8547,34112
8548,34112
8549,34112
8550,34176
8551,34240
8552,34368
8553,34368
8554,34368
8555,34432
8556,34368
8557,34304
8558,34240
8559,34176
8560,34112
8561,34112
8562,34048
8563,33984
8564,33856
8565,33728
8566,33728
8567,33792
8568,33856
8569,33856
8570,33920
8571,34048
8572,34112
8573,34176
8574,34176
8575,34240
8576,34240
8577,34176
8578,34112
8579,34112
8580,34048
8581,34048
8582,34240
8583,34624
8584,35456
8585,36672
8586,38080
8587,39360
8588,39872
8589,39040
8590,36992
8591,34496
8592,32256
8593,30848
8594,30272
8595,30400
8596,31040
8597,31872
8598,32640
8599,33280
8600,33856
8601,34240
8602,34432
8603,34560
8604,34688
8605,34624
8606,34560
8607,34496
8608,34432
8609,34304
8610,34240
8611,34112
8612,34048
8613,34048
8614,34048
8615,34048
8616,34176
8617,34304
8618,34368
8619,34304
8620,34304
8621,34368
8622,34432
8623,34368
8624,34368
8625,34432
8626,34496
8627,34496
8628,34496
8629,34496
8630,34496
8631,34496
8632,34496
8633,34560
8634,34560
8635,34496
8636,34560
8637,34752
8638,34880
8639,35008
8640,35008
8641,35008
8642,35008
8643,34944
8644,34816
8645,34688
8646,34624
8647,34560
8648,34496
8649,34496
8650,34432
8651,34432
8652,34304
8653,34240
8654,34176
8655,34112
8656,33984
8657,33856
8658,33856
8659,33920
8660,33920
8661,33856
8662,33856
8663,33920
8664,33984
8665,33984
8666,33920
8667,33984
8668,33984
8669,33920
8670,33856
8671,33984
8672,34048
8673,34112
8674,34112
8675,34112
8676,34176
8677,34112
8678,34112
8679,34112
8680,34112
8681,34112
8682,34112
8683,34112
8684,34112
8685,34112
8686,34048
8687,34048
8688,34048
8689,34048
8690,34048
8691,34048
8692,34048
8693,34048
8694,34048
8695,34048
8696,34112
8697,34176
8698,34112
8699,34112
8700,34112
8701,34112
8702,34048
8703,34048
8704,34048
8705,34048
8706,34048
8707,33920
8708,33920
8709,33920
8710,33920
8711,33920
8712,33984
8713,33984
8714,33920
8715,33856
8716,33856
8717,33984
8718,34112
8719,34048
8720,33984
8721,33984
8722,33984
8723,33920
8724,33920
8725,33984
8726,33984
8727,34048
8728,34048
8729,34048
8730,34048
8731,34048
8732,33984
8733,33984
8734,34048
8735,34048
8736,34048
8737,34048
8738,34048
8739,33984
8740,33984
8741,33984
8742,34048
8743,34048
8744,34048
8745,34048
8746,34048
8747,34112
8748,34112
8749,34048
8750,34112
8751,34112
8752,34112
8753,34176
8754,34304
8755,34368
8756,34304
8757,34240
8758,34176
8759,34240
8760,34304
8761,34240
8762,34240
8763,34368
8764,34432
8765,34368
8766,34304
8767,34240
8768,34176
8769,34112
8770,33984
8771,33920
8772,33856
8773,33856
8774,33792
8775,33856
8776,33920
8777,33984
8778,33920
8779,33920
8780,33920
8781,33984
8782,33984
8783,33984
8784,34048
8785,34112
8786,34176
8787,34176
8788,34240
8789,34368
8790,34688
8791,35264
8792,36416
8793,37824
8794,39040
8795,39424
8796,38528
8797,36608
8798,34240
8799,32192
8800,31040
8801,30528
8802,30656
8803,31104
8804,31744
8805,32512
8806,33216
8807,33664
8808,34048
8809,34304
8810,34560
8811,34688
8812,34752
8813,34752
8814,34624
8815,34496
8816,34368
8817,34304
8818,34240
8819,34176
8820,34176
8821,34112
8822,34176
8823,34176
8824,34112
8825,34112
8826,34176
8827,34176
8828,34176
8829,34176
8830,34176
8831,34176
8832,34176
8833,34240
8834,34432
8835,34560
8836,34624
8837,34688
8838,34752
8839,34816
8840,34752
8841,34688
8842,34688
8843,34752
8844,34688
8845,34688
8846,34752
8847,34816
8848,34816
8849,34752
8850,34752
8851,34688
8852,34560
8853,34496
8854,34432
8855,34368
8856,34368
8857,34304
8858,34368
8859,34368
8860,34432
8861,34432
8862,34304
8863,34176
8864,34112
8865,34048
8866,33984
8867,33984
8868,33984
8869,33920
8870,33856
8871,33920
8872,33920
8873,33856
8874,33792
8875,33792
8876,33856
8877,33920
8878,33856
8879,33856
8880,33920
8881,33920
8882,33984
8883,34048
8884,34112
8885,34176
8886,34176
8887,34176
8888,34240
8889,34240
8890,34240
8891,34176
8892,34176
8893,34176
8894,34112
8895,34112
8896,34112
8897,34048
8898,34048
8899,33984
8900,33920
8901,33920
8902,33920
8903,33984
8904,34112
8905,34176
8906,34176
8907,34176
8908,34176
8909,34176
8910,34176
8911,34112
8912,34112
8913,34112
8914,34112
8915,33984
8916,33920
8917,33920
8918,33920
8919,33920
8920,33920
8921,33920
8922,33920
8923,33984
8924,33920
8925,33920
8926,33984
8927,34048
8928,33984
8929,33984
8930,34048
8931,34048
8932,34048
8933,33984
8934,34048
8935,34048
8936,34048
8937,34048
8938,34048
8939,34112
8940,34048
8941,34048
8942,34048
8943,34112
8944,34112
8945,34048
8946,34048
8947,34112
8948,34112
8949,34112
8950,34112
8951,34112
8952,34176
8953,34240
8954,34304
8955,34368
8956,34368
8957,34368
8958,34368
8959,34304
8960,34240
8961,34176
8962,34112
8963,34112
8964,34048
8965,33984
8966,33920
8967,33856
8968,33856
8969,33792
8970,33792
8971,33920
8972,33984
8973,34048
8974,34048
8975,34048
8976,34048
8977,34048
8978,34112
8979,34112
8980,34176
8981,34176
8982,34112
8983,34304
8984,34560
8985,35136
8986,36096
8987,37440
8988,38848
8989,39680
8990,39296
8991,37632
8992,35328
8993,32960
8994,31296
8995,30464
8996,30400
8997,30848
8998,31616
8999,32384
9000,33152
9001,33728
9002,34048
9003,34304
9004,34432
9005,34560
9006,34560
9007,34560
9008,34496
9009,34432
9010,34368
9011,34240
9012,34176
9013,34176
9014,34176
9015,34176
9016,34112
9017,34112
9018,34112
9019,34112
9020,34112
9021,34304
9022,34368
9023,34368
9024,34304
9025,34304
9026,34368
9027,34432
9028,34432
9029,34432
9030,34496
9031,34560
9032,34496
9033,34560
9034,34624
9035,34688
9036,34688
9037,34752
9038,34816
9039,34880
9040,34944
9041,34880
9042,34880
9043,34880
9044,34880
9045,34816
9046,34816
9047,34752
9048,34624
9049,34496
9050,34432
9051,34432
9052,34368
9053,34304
9054,34176
9055,34112
9056,34112
9057,34048
9058,33984
9059,33920
9060,33920
9061,33920
9062,33920
9063,33920
9064,34048
9065,34048
9066,34048
9067,34112
9068,34112
9069,34048
9070,33984
9071,33920
9072,33920
9073,33920
9074,33920
9075,33984
9076,34048
9077,34048
9078,34048
9079,34048
9080,34048
9081,34112
9082,34112
9083,34112
9084,34112
9085,34176
9086,34112
9087,34112
9088,34112
9089,34176
9090,34176
9091,34176
9092,34176
9093,34176
9094,34112
9095,34112
9096,34112
9097,34112
9098,34112
9099,34048
9100,34048
9101,34048
9102,33984
9103,33920
9104,33920
9105,33920
9106,33984
9107,33984
9108,33984
9109,33984
9110,34048
9111,34048
9112,34048
9113,33984
9114,33984
9115,33984
9116,33984
9117,33984
9118,34048
9119,34048
9120,33984
9121,33984
9122,33984
9123,34048
9124,33984
9125,33984
9126,33984
9127,34048
9128,34048
9129,34048
9130,34112
9131,34112
9132,34112
9133,34112
9134,34112
9135,34112
9136,34048
9137,33984
9138,33984
9139,33984
9140,34048
9141,34048
9142,34048
9143,33984
9144,33984
9145,34048
9146,34112
9147,34176
9148,34176
9149,34176
9150,34240
9151,34304
9152,34304
9153,34304
9154,34304
9155,34368
9156,34496
9157,34432
9158,34304
9159,34240
9160,34176
9161,34112
9162,34048
9163,33984
9164,33920
9165,33792
9166,33728
9167,33728
9168,33792
9169,33856
9170,33920
9171,33920
9172,33984
9173,34048
9174,34048
9175,34048
9176,34112
9177,34112
9178,34112
9179,34048
9180,34048
9181,34112
9182,34304
9183,34688
9184,35392
9185,36544
9186,37952
9187,39296
9188,39872
9189,39104
9190,37184
9191,34624
9192,32256
9193,30848
9194,30208
9195,30272
9196,30848
9197,31680
9198,32448
9199,33152
9200,33728
9201,34176
9202,34496
9203,34624
9204,34688
9205,34752
9206,34752
9207,34624
9208,34496
9209,34368
9210,34304
9211,34240
9212,34112
9213,34112
9214,34176
9215,34176
9216,34112
9217,34112
9218,34176
9219,34240
9220,34176
9221,34176
9222,34176
9223,34176
9224,34176
9225,34240
9226,34368
9227,34496
9228,34624
9229,34688
9230,34816
9231,34816
9232,34816
9233,34816
9234,34816
9235,34880
9236,34880
9237,34880
9238,34944
9239,34944
9240,35008
9241,34944
9242,34944
9243,34880
9244,34752
9245,34688
9246,34560
9247,34432
9248,34304
9249,34304
9250,34368
9251,34496
9252,34496
9253,34432
9254,34368
9255,34304
9256,34304
9257,34240
9258,34176
9259,34112
9260,34048
9261,33984
9262,33920
9263,33856
9264,33856
9265,33856
9266,33856
9267,33856
9268,33920
9269,33920
9270,33984
9271,33984
9272,33984
9273,33984
9274,33984
9275,33984
9276,34048
9277,34176
9278,34176
9279,34240
9280,34240
9281,34240
9282,34304
9283,34240
9284,34176
9285,34112
9286,34048
9287,33984
9288,33984
9289,34048
9290,34048
9291,33984
9292,33984
9293,33984
9294,34048
9295,34048
9296,34048
9297,34112
9298,34176
9299,34176
9300,34112
9301,34112
9302,34048
9303,34048
9304,34048
9305,34048
9306,34048
9307,33984
9308,33920
9309,33920
9310,33984
9311,33920
9312,33856
9313,33856
9314,33920
9315,33856
9316,33792
9317,33792
9318,33856
9319,33920
9320,33984
9321,33984
9322,34048
9323,34112
9324,34112
9325,34048
9326,34048
9327,34112
9328,34048
9329,34048
9330,34048
9331,34048
9332,33984
9333,33984
9334,33984
9335,33984
9336,33984
9337,33920
9338,33856
9339,33856
9340,33920
9341,33920
9342,33984
9343,34048
9344,34048
9345,34112
9346,34176
9347,34176
9348,34176
9349,34176
9350,34176
9351,34240
9352,34304
9353,34304
9354,34176
9355,34176
9356,34176
9357,34240
9358,34176
9359,34240
9360,34240
9361,34176
9362,34048
9363,33984
9364,34048
9365,34112
9366,34112
9367,33984
9368,33984
9369,33984
9370,33920
9371,33856
9372,33920
9373,33920
9374,33984
9375,33984
9376,34048
9377,34112
9378,34112
9379,34112
9380,34048
9381,34048
9382,34048
9383,33920
9384,33856
9385,34048
9386,34560
9387,35200
9388,36352
9389,37888
9390,39232
9391,39808
9392,39040
9393,37120
9394,34688
9395,32128
9396,31040
9397,30400
9398,30528
9399,31040
9400,31808
9401,32640
9402,33344
9403,33856
9404,34112
9405,34368
9406,34560
9407,34560
9408,34496
9409,34432
9410,34368
9411,34368
9412,34368
9413,34368
9414,34304
9415,34304
9416,34240
9417,34240
9418,34240
9419,34176
9420,34176
9421,34176
9422,34240
9423,34304
9424,34304
9425,34368
9426,34368
9427,34368
9428,34304
9429,34304
9430,34304
9431,34432
9432,34496
9433,34496
9434,34560
9435,34688
9436,34816
9437,34880
9438,34944
9439,34944
9440,34944
9441,34880
9442,34816
9443,34816
9444,34816
9445,34752
9446,34688
9447,34688
9448,34688
9449,34560
9450,34432
9451,34368
9452,34368
9453,34368
9454,34304
9455,34368
9456,34304
9457,34304
9458,34240
9459,34176
9460,34176
9461,34176
9462,34112
9463,34048
9464,34048
9465,34048
9466,33984
9467,33920
9468,33920
9469,33920
9470,33920
9471,33920
9472,33920
9473,33920
9474,33920
9475,33920
9476,33920
9477,33920
9478,33984
9479,33984
9480,34048
9481,34176
9482,34176
9483,34176
9484,34176
9485,34176
9486,34176
9487,34176
9488,34176
9489,34176
9490,34176
9491,34112
9492,34048
9493,34048
9494,34048
9495,34048
9496,34048
9497,34112
9498,34048
9499,33984
9500,33984
9501,33984
9502,34048
9503,34048
9504,33984
9505,33984
9506,34048
9507,33984
9508,33984
9509,33920
9510,33984
9511,33984
9512,33984
9513,33984
9514,33984
9515,33984
9516,33984
9517,33920
9518,33920
9519,33984
9520,33920
9521,33920
9522,33984
9523,34112
9524,34112
9525,34048
9526,33984
9527,33984
9528,33984
9529,33984
9530,33984
9531,34048
9532,33984
9533,33984
9534,34048
9535,34112
9536,34112
9537,34112
9538,34112
9539,34112
9540,34112
9541,34112
9542,34048
9543,34048
9544,34048
9545,34048
9546,34048
9547,34112
9548,34304
9549,34432
9550,34496
9551,34368
9552,34304
9553,34240
9554,34112
9555,34048
9556,33984
9557,33920
9558,33856
9559,33792
9560,33792
9561,33856
9562,33856
9563,33856
9564,33920
9565,33984
9566,33856
9567,33792
9568,33792
9569,33856
9570,34048
9571,34112
9572,34112
9573,34176
9574,34240
9575,34240
9576,35072
9577,36032
9578,37248
9579,38528
9580,39232
9581,38720
9582,37056
9583,34816
9584,32768
9585,31488
9586,30784
9587,30592
9588,30976
9589,31616
9590,32384
9591,33024
9592,33600
9593,34048
9594,34304
9595,34432
9596,34560
9597,34624
9598,34624
9599,34560
9600,34496
9601,34496
9602,34432
9603,34304
9604,34304
9605,34304
9606,34304
9607,34304
9608,34240
9609,34176
9610,34176
9611,34112
9612,34112
9613,34112
9614,34176
9615,34304
9616,34368
9617,34432
9618,34624
9619,34624
9620,34560
9621,34560
9622,34624
9623,34624
9624,34688
9625,34752
9626,34816
9627,34880
9628,34816
9629,34816
9630,34816
9631,34816
9632,34816
9633,34752
9634,34752
9635,34688
9636,34688
9637,34624
9638,34560
9639,34624
9640,34624
9641,34560
9642,34496
9643,34496
9644,34496
9645,34432
9646,34368
9647,34304
9648,34240
9649,34176
9650,34112
9651,34048
9652,33984
9653,33920
9654,33856
9655,33792
9656,33792
9657,33792
9658,33792
9659,33792
9660,33856
9661,33920
9662,33984
9663,34112
9664,34176
9665,34176
9666,34176
9667,34176
9668,34176
9669,34176
9670,34176
9671,34176
9672,34176
9673,34176
9674,34176
9675,34112
9676,34112
9677,34112
9678,34112
9679,34112
9680,34112
9681,34112
9682,34112
9683,34048
9684,34112
9685,34176
9686,34240
9687,34176
9688,34240
9689,34176
9690,34112
9691,34048
9692,34048
9693,34048
9694,33984
9695,33920
9696,33920
9697,33920
9698,33856
9699,33856
9700,33920
9701,33984
9702,33984
9703,33920
9704,33856
9705,33856
9706,33920
9707,33984
9708,33984
9709,34048
9710,34112
9711,34112
9712,34112
9713,34048
9714,34048
9715,33984
9716,33920
9717,33920
9718,33984
9719,33984
9720,33984
9721,34048
9722,34048
9723,34048
9724,34112
9725,34048
9726,34112
9727,34112
9728,34176
9729,34304
9730,34368
9731,34432
9732,34368
9733,34240
9734,34240
9735,34240
9736,34240
9737,34304
9738,34304
9739,34240
9740,34176
9741,34048
9742,34048
9743,34048
9744,34048
9745,33920
9746,33856
9747,33792
9748,33728
9749,33664
9750,33728
9751,33792
9752,33856
9753,33920
9754,34048
9755,34112
9756,34176
9757,34112
9758,34048
9759,34048
9760,34112
9761,34048
9762,33984
9763,34112
9764,34624
9765,35392
9766,36480
9767,37888
9768,39232
9769,39680
9770,39552
9771,37120
9772,34688
9773,32384
9774,30976
9775,30336
9776,30400
9777,31040
9778,31872
9779,32704
9780,33344
9781,33856
9782,34240
9783,34432
9784,34624
9785,34560
9786,34560
9787,34496
9788,34496
9789,34368
9790,34304
9791,34240
9792,34240
9793,34176
9794,34176
9795,34112
9796,34112
9797,34112
9798,34112
9799,34176
9800,34112
9801,34240
9802,34304
9803,34304
9804,34368
9805,34432
9806,34496
9807,34432
9808,34432
9809,34496
9810,34560
9811,34560
9812,34560
9813,34624
9814,34752
9815,34752
9816,34816
9817,34816
9818,34880
9819,34944
9820,34944
9821,34880
9822,34944
9823,34880
9824,34752
9825,34688
9826,34624
9827,34560
9828,34496
9829,34368
9830,34304
9831,34368
9832,34432
9833,34432
9834,34432
9835,34368
9836,34304
9837,34240
9838,34176
9839,34048
9840,34048
9841,33984
9842,33920
9843,33984
9844,33984
9845,33920
9846,33920
9847,33856
9848,33920
9849,33920
9850,33920
9851,33920
9852,33984
9853,33984
9854,34048
9855,34112
9856,34112
9857,34176
9858,34112
9859,34176
9860,34240
9861,34240
9862,34240
9863,34240
9864,34240
9865,34240
9866,34176
9867,34240
9868,34176
9869,34176
9870,34112
9871,34112
9872,34176
9873,34176
9874,34112
9875,34048
9876,34112
9877,34176
9878,34112
9879,34112
9880,34112
9881,34112
9882,34048
9883,33984
9884,33984
9885,33920
9886,33920
9887,33920
9888,33984
9889,34048
9890,34112
9891,34112
9892,34112
9893,34112
9894,34112
9895,34176
9896,34112
9897,34112
9898,34112
9899,34112
9900,34112
9901,34048
9902,34048
9903,33984
9904,33984
9905,33920
9906,33920
9907,33920
9908,33856
9909,33856
9910,33920
9911,33856
9912,33920
9913,33984
9914,34048
9915,34048
9916,34048
9917,34112
9918,34176
9919,34304
9920,34304
9921,34368
9922,34304
9923,34240
9924,34240
9925,34240
9926,34240
9927,34304
9928,34304
9929,34176
9930,34112
9931,34048
9932,34048
9933,33984
9934,33984
9935,33984
9936,33856
9937,33728
9938,33664
9939,33728
9940,33728
9941,33664
9942,33664
9943,33856
9944,33984
9945,34112
9946,34176
9947,34176
9948,34240
9949,34304
9950,34240
9951,34112
9952,33984
9953,33920
9954,34112
9955,34560
9956,35200
9957,36352
9958,37760
9959,39168
9960,39872
9961,39296
9962,37440
9963,34944
9964,32512
9965,30976
9966,30208
9967,30208
9968,30848
9969,31680
9970,32576
9971,33280
9972,33856
9973,34240
9974,34496
9975,34624
9976,34752
9977,34752
9978,34688
9979,34496
9980,34432
9981,34368
9982,34304
9983,34240
9984,34176
9985,34304
9986,34240
9987,34176
9988,34112
9989,34112
9990,34240
9991,34240
9992,34304
9993,34368
9994,34432
9995,34368
9996,34432
9997,34432
9998,34432
9999,34432
10000,34496
10001,34560
10002,34624
10003,34624
10004,34688
10005,34688
10006,34816
10007,34880
10008,34880
10009,34944
10010,34944
10011,35008
10012,34944
10013,34816
10014,34816
10015,34816
10016,34752
10017,34688
10018,34688
10019,34688
10020,34624
10021,34496
10022,34432
10023,34368
10024,34176
10025,34048
10026,34048
10027,34048
10028,34112
10029,34112
10030,34048
10031,33984
10032,33920
10033,33856
10034,33792
10035,33792
10036,33792
10037,33856
10038,33856
10039,33920
10040,33856
10041,33920
10042,33920
10043,33984
10044,34048
10045,34112
10046,34176
10047,34176
10048,34176
10049,34112
10050,34048
10051,34048
10052,34048
10053,34048
10054,34048
10055,33984
10056,34112
10057,34176
10058,34176
10059,34176
10060,34112
10061,34112
10062,34112
10063,34112
10064,34112
10065,34112
10066,34112
10067,34112
10068,34112
10069,34048
10070,33984
10071,33920
10072,33984
10073,34048
10074,34048
10075,33984
10076,33984
10077,34048
10078,33984
10079,33984
10080,34048
10081,34112
10082,34240
10083,34176
10084,34112
10085,34048
10086,34048
10087,33920
10088,33856
10089,33856
10090,33856
10091,33856
10092,33920
10093,33984
10094,34048
10095,34048
10096,34048
10097,34048
10098,34112
10099,34112
10100,34048
10101,34112
10102,34112
10103,34112
10104,34112
10105,34112
10106,34176
10107,34240
10108,34240
10109,34176
10110,34176
10111,34176
10112,34176
10113,34240
10114,34304
10115,34432
10116,34368
10117,34176
10118,34112
10119,34112
10120,34112
10121,34048
10122,33920
10123,33856
10124,33792
10125,33792
10126,33856
10127,33920
10128,33920
10129,33920
10130,33856
10131,33920
10132,33984
10133,33984
10134,34048
10135,34112
10136,34176
10137,34176
10138,34176
10139,34048
10140,34048
10141,34048
10142,34304
10143,34880
10144,36480
10145,36608
10146,38464
10147,39296
10148,38912
10149,37312
10150,35072
10151,32896
10152,31488
10153,30592
10154,30464
10155,30912
10156,31680
10157,32512
10158,33152
10159,33920
10160,33856
10161,34432
10162,34560
10163,34560
10164,34688
10165,34688
10166,34624
10167,34496
10168,34432
10169,34368
10170,34240
10171,34240
10172,34176
10173,34176
10174,34112
10175,34048
10176,34112
10177,34176
10178,34240
10179,34240
10180,34304
10181,34368
10182,34432
10183,34432
10184,34432
10185,34496
10186,34496
10187,34560
10188,34560
10189,34624
10190,34624
10191,34560
10192,34624
10193,34688
10194,34752
10195,34816
10196,34816
10197,34880
10198,34880
10199,34944
10200,34880
10201,34880
10202,34880
10203,34816
10204,34752
10205,34624
10206,34560
10207,34496
10208,34432
10209,34432
10210,34368
10211,34304
10212,34176
10213,34112
10214,34176
10215,34176
10216,34112
10217,34048
10218,33984
10219,33984
10220,33920
10221,33984
10222,33984
10223,33984
10224,33984
10225,33984
10226,33984
10227,33984
10228,33984
10229,33984
10230,33984
10231,33984
10232,33984
10233,33984
10234,33984
10235,33984
10236,34048
10237,34048
10238,34048
10239,34112
10240,34112
10241,34176
10242,34112
10243,34112
10244,34112
10245,34112
10246,34048
10247,34048
10248,34112
10249,34112
10250,34176
10251,34240
10252,34240
10253,34240
10254,34176
10255,34176
10256,34112
10257,34048
10258,34048
10259,33984
10260,34048
10261,34048
10262,34048
10263,34048
10264,34048
10265,33984
10266,33920
10267,33856
10268,33856
10269,33920
10270,33984
10271,34112
10272,34176
10273,34176
10274,34112
10275,34048
10276,34048
10277,34048
10278,34048
10279,34048
10280,34048
10281,34048
10282,34048
10283,34048
10284,34048
10285,34112
10286,34112
10287,34176
10288,34176
10289,34240
10290,34240
10291,34176
10292,34240
10293,34240
10294,34304
10295,34240
10296,34176
10297,34112
10298,34112
10299,34176
10300,34304
10301,34368
10302,34432
10303,34368
10304,34240
10305,34112
10306,34048
10307,34112
10308,34048
10309,33984
10310,33920
10311,33920
10312,33920
10313,33856
10314,33856
10315,33920
10316,33920
10317,33984
10318,33984
10319,34048
10320,34048
10321,34048
10322,34112
10323,34240
10324,34240
10325,34112
10326,34048
10327,34112
10328,34368
10329,34816
10330,35456
10331,36608
10332,38016
10333,39104
10334,39360
10335,38336
10336,36288
10337,33920
10338,31936
10339,30848
10340,30464
10341,30656
10342,31232
10343,32000
10344,32832
10345,33408
10346,33856
10347,34240
10348,34496
10349,34624
10350,34624
10351,34560
10352,34496
10353,34496
10354,34432
10355,34304
10356,34304
10357,34304
10358,34240
10359,34240
10360,34240
10361,34240
10362,34176
10363,34112
10364,34112
10365,34176
10366,34240
10367,34304
10368,34368
10369,34368
10370,34368
10371,34368
10372,34432
10373,34496
10374,34560
10375,34560
10376,34560
10377,34560
10378,34624
10379,34688
10380,34688
10381,34816
10382,34880
10383,34880
10384,34880
10385,34944
10386,34944
10387,34880
10388,34880
10389,34816
10390,34816
10391,34688
10392,34624
10393,34624
10394,34560
10395,34496
10396,34368
10397,34304
10398,34304
10399,34240
10400,34112
10401,34112
10402,34112
10403,34048
10404,34048
10405,33984
10406,33984
10407,33920
10408,33920
10409,33856
10410,33856
10411,33856
10412,33920
10413,33920
10414,33984
10415,33984
10416,33920
10417,33984
10418,34048
10419,34048
10420,34048
10421,33984
10422,34048
10423,34112
10424,34112
10425,34176
10426,34240
10427,34304
10428,34176
10429,34112
10430,34112
10431,34176
10432,34112
10433,34112
10434,34176
10435,34240
10436,34304
10437,34240
10438,34112
10439,34112
10440,34048
10441,34048
10442,33984
10443,34048
10444,34048
10445,34112
10446,34112
10447,34112
10448,34112
10449,34112
10450,33984
10451,33920
10452,33984
10453,33984
10454,33920
10455,33920
10456,33984
10457,34048
10458,34048
10459,34048
10460,34112
10461,34176
10462,34048
10463,33984
10464,33920
10465,33920
10466,33984
10467,33984
10468,34048
10469,34048
10470,34048
10471,34048
10472,33984
10473,34048
10474,34048
10475,33984
10476,34048
10477,34048
10478,34048
10479,33984
10480,33984
10481,34048
10482,34048
10483,34048
10484,34048
10485,34048
10486,34048
10487,34048
10488,34048
10489,34112
10490,34176
10491,34176
10492,34176
10493,34176
10494,34176
10495,34176
10496,34112
10497,34112
10498,34240
10499,34304
10500,34240
10501,34240
10502,34240
10503,34240
10504,34240
10505,34304
10506,34368
10507,34304
10508,34368
10509,34368
10510,34304
10511,34240
10512,34240
10513,34240
10514,34176
10515,34112
10516,33984
10517,33856
10518,33792
10519,33792
10520,33856
10521,33920
10522,33920
10523,33984
10524,34048
10525,34048
10526,34048
10527,34048
10528,34048
10529,34048
10530,34048
10531,34112
10532,34112
10533,34112
10534,34240
10535,34688
10536,35456
10537,36672
10538,38080
10539,39424
10540,40064
10541,39296
10542,37312
10543,34688
10544,32320
10545,30720
10546,30080
10547,30272
10548,30912
10549,31744
10550,32512
10551,33152
10552,33728
10553,34112
10554,34368
10555,34496
10556,34560
10557,34624
10558,34560
10559,34496
10560,34432
10561,34368
10562,34304
10563,34240
10564,34176
10565,34176
10566,34112
10567,34112
10568,34112
10569,34176
10570,34240
10571,34240
10572,34240
10573,34304
10574,34304
10575,34240
10576,34240
10577,34368
10578,34432
10579,34368
10580,34368
10581,34432
10582,34496
10583,34560
10584,34624
10585,34624
10586,34688
10587,34752
10588,34816
10589,34880
10590,34944
10591,35008
10592,35008
10593,34880
10594,34816
10595,34752
10596,34688
10597,34688
10598,34688
10599,34624
10600,34496
10601,34432
10602,34496
10603,34496
10604,34368
10605,34304
10606,34240
10607,34176
10608,34176
10609,34112
10610,34048
10611,34048
10612,33984
10613,33920
10614,33856
10615,33856
10616,33856
10617,33856
10618,33920
10619,33984
10620,33920
10621,33920
10622,33920
10623,33920
10624,33920
10625,33920
10626,33920
10627,33920
10628,33984
10629,33984
10630,33984
10631,34048
10632,34176
10633,34176
10634,34240
10635,34240
10636,34240
10637,34176
10638,34112
10639,34112
10640,34112
10641,34048
10642,34048
10643,34048
10644,34112
10645,34112
10646,34048
10647,33984
10648,34048
10649,34048
10650,34048
10651,34048
10652,34048
10653,34112
10654,34048
10655,33984
10656,33984
10657,33984
10658,33984
10659,33920
10660,33984
10661,33984
10662,33984
10663,33920
10664,33920
10665,33984
10666,33984
10667,34048
10668,34048
10669,34112
10670,34112
10671,34048
10672,33984
10673,33984
10674,33984
10675,33984
10676,33984
10677,34048
10678,34048
10679,33984
10680,33984
10681,33984
10682,33984
10683,33984
10684,33984
10685,33984
10686,33984
10687,33984
10688,33984
10689,34048
10690,34112
10691,34112
10692,34048
10693,34048
10694,33984
10695,33984
10696,33984
10697,33984
10698,34048
10699,34048
10700,34048
10701,33984
10702,33984
10703,34048
10704,34048
10705,34048
10706,34048
10707,34112
10708,34112
10709,34048
10710,34048
10711,34048
10712,34048
10713,34048
10714,34048
10715,34048
10716,34048
10717,34048
10718,34048
10719,34048
10720,34048
10721,33984
10722,33984
10723,34048
10724,34112
10725,34112
10726,34112
10727,34176
10728,34240
10729,34304
10730,34240
10731,34176
10732,34176
10733,34176
10734,34176
10735,34240
10736,34304
10737,34368
10738,34368
10739,34304
10740,34240
10741,34176
10742,34112
10743,34112
10744,34112
10745,33984
10746,33856
10747,33792
10748,33792
10749,33792
10750,33856
10751,33920
10752,34048
10753,34112
10754,34112
10755,34112
10756,34176
10757,34240
10758,34176
10759,34048
10760,33984
10761,33920
10762,33984
10763,34112
10764,34496
10765,35200
10766,36288
10767,37632
10768,38976
10769,39616
10770,39040
10771,37248
10772,34880
10773,32640
10774,31168
10775,30464
10776,30400
10777,30912
10778,31680
10779,32512
10780,33216
10781,33728
10782,34112
10783,34368
10784,34432
10785,34496
10786,34560
10787,34560
10788,34496
10789,34432
10790,34432
10791,34304
10792,34240
10793,34176
10794,34112
10795,34176
10796,34176
10797,34176
10798,34240
10799,34304
10800,34304
10801,34304
10802,34304
10803,34240
10804,34176
10805,34176
10806,34304
10807,34368
10808,34368
10809,34368
10810,34432
10811,34560
10812,34560
10813,34496
10814,34560
10815,34624
10816,34752
10817,34816
10818,34816
10819,34816
10820,34816
10821,34816
10822,34752
10823,34752
10824,34752
10825,34624
10826,34560
10827,34560
10828,34560
10829,34496
10830,34432
10831,34368
10832,34368
10833,34304
10834,34240
10835,34240
10836,34176
10837,34112
10838,34112
10839,34048
10840,34048
10841,34048
10842,33984
10843,33920
10844,33920
10845,33984
10846,33984
10847,33984
10848,33920
10849,33920
10850,33920
10851,33856
10852,33856
10853,33856
10854,33856
10855,33856
10856,33856
10857,33856
10858,33920
10859,33984
10860,33984
10861,34048
10862,34048
10863,34048
10864,34112
10865,34240
10866,34240
10867,34176
10868,34048
10869,34048
10870,34048
10871,34048
10872,34112
10873,34112
10874,34176
10875,34112
10876,34048
10877,33984
10878,33984
10879,33984
10880,33984
10881,33984
10882,33984
10883,33984
10884,33984
10885,33984
10886,33984
10887,33920
10888,33856
10889,33856
10890,33920
10891,33984
10892,33984
10893,33984
10894,34048
10895,34048
10896,33984
10897,33920
10898,33984
10899,33984
10900,33920
10901,33920
10902,33984
10903,33984
10904,33984
10905,33984
10906,33984
10907,34048
10908,34112
10909,34048
10910,34048
10911,33984
10912,33984
10913,33984
10914,33920
10915,33984
10916,33984
10917,34048
10918,34048
10919,34112
10920,34048
10921,34048
10922,34048
10923,33984
10924,33984
