,ECG
0,33664
1,33600
2,33600
3,33664
4,33664
5,33728
6,33792
7,33856
8,33792
9,33664
10,33536
11,33536
12,33536
13,33472
14,33408
15,33344
16,33280
17,33280
18,33280
19,33408
20,33472
21,33472
22,33536
23,33600
24,33600
25,33600
26,33600
27,33664
28,33664
29,33664
30,33536
31,33472
32,33472
33,33536
34,33792
35,34176
36,35008
37,36288
38,37568
39,38336
40,38080
41,36608
42,34560
43,32576
44,31232
45,30592
46,30592
47,30848
48,31488
49,32256
50,32832
51,33344
52,33728
53,33984
54,34176
55,34304
56,34304
57,34240
58,34048
59,33856
60,33792
61,33856
62,33856
63,33856
64,33856
65,33920
66,33920
67,33856
68,33856
69,33856
70,33920
71,33920
72,33920
73,33920
74,33984
75,33984
76,33984
77,33984
78,33920
79,33920
80,34048
81,34112
82,34176
83,34176
84,34176
85,34176
86,34176
87,34176
88,34240
89,34304
90,34368
91,34432
92,34368
93,34432
94,34432
95,34496
96,34432
97,34368
98,34368
99,34368
100,34304
101,34240
102,34112
103,34048
104,33984
105,33984
106,33984
107,33920
108,33792
109,33664
110,33536
111,33600
112,33536
113,33472
114,33408
115,33344
116,33344
117,33280
118,33280
119,33280
120,33408
121,33472
122,33536
123,33536
124,33536
125,33472
126,33536
127,33664
128,33728
129,33792
130,33728
131,33728
132,33728
133,33664
134,33600
135,33536
136,33664
137,33664
138,33664
139,33600
140,33600
141,33600
142,33664
143,33664
144,33728
145,33664
146,33600
147,33600
148,33600
149,33600
150,33472
151,33408
152,33472
153,33472
154,33536
155,33472
156,33536
157,33600
158,33664
159,33600
160,33664
161,33664
162,33664
163,33600
164,33536
165,33536
166,33600
167,33536
168,33408
169,33344
170,33408
171,33408
172,33408
173,33472
174,33536
175,33536
176,33472
177,33536
178,33600
179,33664
180,33664
181,33728
182,33728
183,33600
184,33472
185,33408
186,33472
187,33472
188,33472
189,33472
190,33536
191,33600
192,33536
193,33472
194,33472
195,33472
196,33536
197,33536
198,33536
199,33536
200,33536
201,33536
202,33600
203,33664
204,33728
205,33728
206,33600
207,33536
208,33536
209,33536
210,33600
211,33600
212,33600
213,33600
214,33664
215,33664
216,33664
217,33600
218,33600
219,33664
220,33728
221,33728
222,33728
223,33792
224,33792
225,33728
226,33728
227,33664
228,33664
229,33664
230,33600
231,33408
232,33280
233,33152
234,33216
235,33344
236,33344
237,33408
238,33408
239,33536
240,33536
241,33536
242,33536
243,33536
244,33600
245,33600
246,33600
247,33664
248,33600
249,33600
250,33664
251,33984
252,34496
253,35392
254,36672
255,38080
256,38976
257,38976
258,37248
259,34944
260,32640
261,30912
262,30016
263,29888
264,30336
265,31104
266,31936
267,32640
268,33280
269,33728
270,33984
271,34176
272,34112
273,34304
274,34240
275,34176
276,34112
277,34048
278,33920
279,33856
280,33792
281,33792
282,33728
283,33664
284,33664
285,33728
286,33792
287,33728
288,33792
289,33856
290,33920
291,33792
292,33792
293,33856
294,33856
295,33856
296,33792
297,33856
298,33984
299,34048
300,34112
301,34176
302,34240
303,34304
304,34304
305,34304
306,34304
307,34304
308,34304
309,34304
310,34368
311,34368
312,34304
313,34304
314,34304
315,34304
316,34240
317,34176
318,34112
319,34048
320,34048
321,33984
322,33920
323,33856
324,33728
325,33600
326,33472
327,33472
328,33408
329,33344
330,33280
331,33344
332,33344
333,33280
334,33280
335,33280
336,33280
337,33344
338,33344
339,33344
340,33344
341,33344
342,33344
343,33408
344,33536
345,33536
346,33472
347,33472
348,33536
349,33536
350,33536
351,33600
352,33600
353,33600
354,33536
355,33600
356,33664
357,33664
358,33600
359,33600
360,33600
361,33600
362,33536
363,33536
364,33472
365,33472
366,33472
367,33472
368,33472
369,33472
370,33472
371,33408
372,33472
373,33472
374,33472
375,33472
376,33408
377,33472
378,33536
379,33472
380,33472
381,33408
382,33472
383,33408
384,33408
385,33408
386,33472
387,33472
388,33472
389,33472
390,33472
391,33472
392,33408
393,33408
394,33408
395,33344
396,33280
397,33344
398,33408
399,33408
400,33408
401,33472
402,33472
403,33472
404,33536
405,33600
406,33664
407,33664
408,33664
409,33536
410,33472
411,33472
412,33472
413,33472
414,33472
415,33472
416,33408
417,33408
418,33408
419,33472
420,33536
421,33600
422,33664
423,33728
424,33792
425,33728
426,33664
427,33664
428,33664
429,33664
430,33600
431,33536
432,33536
433,33600
434,33664
435,33728
436,33728
437,33664
438,33664
439,33664
440,33664
441,33600
442,33408
443,33344
444,33344
445,33344
446,33344
447,33344
448,33344
449,33408
450,33472
451,33536
452,33536
453,33536
454,33536
455,33536
456,33472
457,33536
458,33536
459,33536
460,33536
461,33536
462,33600
463,33792
464,34176
465,34944
466,36032
467,37248
468,38272
469,38528
470,37440
471,35456
472,33216
473,31552
474,30656
475,30272
476,30464
477,31040
478,31808
479,32512
480,33216
481,33728
482,33984
483,34048
484,34112
485,34176
486,34176
487,34112
488,34048
489,33984
490,33920
491,33920
492,33856
493,33856
494,33792
495,33792
496,33856
497,33856
498,33856
499,33856
500,33856
501,33856
502,33792
503,33792
504,33792
505,33856
506,33984
507,34048
508,34048
509,33984
510,33984
511,33984
512,34048
513,34048
514,34112
515,34176
516,34240
517,34304
518,34304
519,34368
520,34432
521,34432
522,34432
523,34432
524,34368
525,34368
526,34304
527,34304
528,34304
529,34240
530,34176
531,34176
532,34112
533,34048
534,33920
535,33920
536,33920
537,33792
538,33664
539,33600
540,33600
541,33536
542,33408
543,33344
544,33280
545,33344
546,33280
547,33344
548,33408
549,33472
550,33472
551,33408
552,33472
553,33536
554,33536
555,33600
556,33600
557,33664
558,33664
559,33664
560,33728
561,33728
562,33728
563,33600
564,33600
565,33600
566,33600
567,33664
568,33664
569,33664
570,33664
571,33664
572,33664
573,33664
574,33664
575,33664
576,33664
577,33728
578,33728
579,33728
580,33792
581,33728
582,33664
583,33600
584,33664
585,33664
586,33600
587,33472
588,33344
589,33344
590,33408
591,33472
592,33536
593,33600
594,33600
595,33600
596,33536
597,33536
598,33600
599,33664
600,33664
601,33600
602,33600
603,33600
604,33536
605,33536
606,33536
607,33536
608,33536
609,33536
610,33536
611,33600
612,33600
613,33664
614,33728
615,33728
616,33728
617,33728
618,33664
619,33600
620,33472
621,33472
622,33472
623,33536
624,33600
625,33600
626,33536
627,33536
628,33600
629,33600
630,33664
631,33728
632,33728
633,33792
634,33792
635,33792
636,33792
637,33728
638,33664
639,33728
640,33792
641,33792
642,33792
643,33856
644,33856
645,33792
646,33728
647,33664
648,33664
649,33600
650,33536
651,33408
652,33408
653,33408
654,33408
655,33472
656,33536
657,33536
658,33472
659,33408
660,33472
661,33600
662,33600
663,33600
664,33600
665,33664
666,33664
667,33664
668,33600
669,33600
670,33728
671,33984
672,34432
673,35328
674,36608
675,37952
676,38656
677,38144
678,36416
679,34304
680,32320
681,31040
682,30400
683,30400
684,30848
685,31616
686,32384
687,33024
688,33472
689,33856
690,34048
691,34240
692,34304
693,34240
694,34240
695,34176
696,34048
697,33984
698,33984
699,33920
700,33856
701,33792
702,33856
703,33856
704,33856
705,33856
706,33920
707,33920
708,33856
709,33856
710,33856
711,33984
712,33920
713,33984
714,33984
715,33984
716,34048
717,33984
718,34048
719,34112
720,34176
721,34112
722,34176
723,34304
724,34368
725,34368
726,34432
727,34496
728,34496
729,34368
730,34304
731,34304
732,34304
733,34304
734,34240
735,34304
736,34304
737,34240
738,34176
739,34112
740,34112
741,34048
742,33984
743,33856
744,33792
745,33664
746,33600
747,33536
748,33536
749,33472
750,33408
751,33344
752,33344
753,33280
754,33280
755,33344
756,33344
757,33408
758,33472
759,33472
760,33536
761,33664
762,33664
763,33664
764,33600
765,33536
766,33536
767,33472
768,33472
769,33536
770,33536
771,33600
772,33664
773,33728
774,33728
775,33664
776,33664
777,33664
778,33664
779,33664
780,33664
781,33664
782,33728
783,33728
784,33728
785,33728
786,33728
787,33664
788,33600
789,33600
790,33600
791,33600
792,33472
793,33472
794,33472
795,33472
796,33472
797,33408
798,33408
799,33472
800,33472
801,33536
802,33600
803,33664
804,33600
805,33600
806,33600
807,33600
808,33536
809,33536
810,33600
811,33664
812,33600
813,33472
814,33536
815,33600
816,33600
817,33536
818,33472
819,33536
820,33600
821,33600
822,33536
823,33536
824,33536
825,33472
826,33472
827,33472
828,33600
829,33600
830,33600
831,33664
832,33664
833,33600
834,33536
835,33472
836,33536
837,33600
838,33536
839,33536
840,33536
841,33536
842,33600
843,33600
844,33600
845,33600
846,33600
847,33600
848,33600
849,33600
850,33536
851,33536
852,33600
853,33664
854,33600
855,33536
856,33600
857,33728
858,33792
859,33856
860,33856
861,33792
862,33728
863,33728
864,33728
865,33856
866,33920
867,33792
868,33664
869,33536
870,33536
871,33536
872,33472
873,33408
874,33344
875,33280
876,33280
877,33344
878,33472
879,33536
880,33600
881,33664
882,33728
883,33728
884,33664
885,33664
886,33600
887,33536
888,33536
889,33600
890,33664
891,33600
892,33536
893,33600
894,33984
895,34560
896,35584
897,36992
898,38336
899,39040
900,38528
901,36736
902,34560
903,32384
904,30848
905,30080
906,30144
907,30592
908,31296
909,32000
910,32704
911,33280
912,33728
913,33984
914,34176
915,34304
916,34176
917,34112
918,34112
919,34176
920,34048
921,33920
922,33856
923,33856
924,33856
925,33792
926,33728
927,33664
928,33728
929,33664
930,33664
931,33728
932,33792
933,33856
934,33856
935,33920
936,33984
937,34048
938,33920
939,33920
940,33920
941,33984
942,34048
943,34112
944,34240
945,34304
946,34240
947,34176
948,34176
949,34176
950,34240
951,34304
952,34304
953,34368
954,34304
955,34240
956,34240
957,34240
958,34176
959,34176
960,34240
961,34304
962,34304
963,34240
964,34112
965,33984
966,33792
967,33728
968,33600
969,33472
970,33408
971,33344
972,33280
973,33280
974,33344
975,33280
976,33216
977,33216
978,33216
979,33216
980,33216
981,33280
982,33408
983,33408
984,33408
985,33408
986,33536
987,33600
988,33600
989,33600
990,33664
991,33728
992,33728
993,33728
994,33664
995,33600
996,33536
997,33600
998,33600
999,33600
1000,33536
1001,33536
1002,33600
1003,33664
1004,33664
1005,33536
1006,33536
1007,33600
1008,33600
1009,33408
1010,33344
1011,33408
1012,33472
1013,33472
1014,33536
1015,33536
1016,33536
1017,33472
1018,33344
1019,33344
1020,33344
1021,33408
1022,33408
1023,33472
1024,33536
1025,33536
1026,33472
1027,33472
1028,33536
1029,33600
1030,33600
1031,33536
1032,33472
1033,33472
1034,33408
1035,33408
1036,33408
1037,33408
1038,33408
1039,33472
1040,33472
1041,33536
1042,33600
1043,33600
1044,33536
1045,33472
1046,33408
1047,33408
1048,33472
1049,33536
1050,33536
1051,33600
1052,33600
1053,33536
1054,33536
1055,33408
1056,33344
1057,33408
1058,33472
1059,33472
1060,33472
1061,33536
1062,33536
1063,33408
1064,33344
1065,33408
1066,33472
1067,33472
1068,33472
1069,33472
1070,33536
1071,33664
1072,33664
1073,33600
1074,33600
1075,33600
1076,33664
1077,33728
1078,33792
1079,33856
1080,33792
1081,33600
1082,33472
1083,33408
1084,33344
1085,33344
1086,33408
1087,33472
1088,33600
1089,33664
1090,33792
1091,33792
1092,33792
1093,33792
1094,33728
1095,33792
1096,33792
1097,33600
1098,33408
1099,33344
1100,33344
1101,33280
1102,33280
1103,33344
1104,33408
1105,33408
1106,33408
1107,33472
1108,33472
1109,33536
1110,33536
1111,33600
1112,33664
1113,33728
1114,33664
1115,33664
1116,33792
1117,34112
1118,34688
1119,35712
1120,37056
1121,38464
1122,39296
1123,38720
1124,36736
1125,34176
1126,31296
1127,30272
1128,29760
1129,29888
1130,30528
1131,31360
1132,32320
1133,33088
1134,33472
1135,33792
1136,33984
1137,34176
1138,34240
1139,34304
1140,34304
1141,34240
1142,34176
1143,34112
1144,34048
1145,33920
1146,33792
1147,33728
1148,33664
1149,33664
1150,33664
1151,33600
1152,33728
1153,33920
1154,33984
1155,33920
1156,33856
1157,33920
1158,33984
1159,34048
1160,34048
1161,33984
1162,33920
1163,33920
1164,33984
1165,34048
1166,34112
1167,34176
1168,34176
1169,34304
1170,34432
1171,34496
1172,34432
1173,34432
1174,34496
1175,34496
1176,34624
1177,34816
1178,34816
1179,34496
1180,34240
1181,34112
1182,34048
1183,34048
1184,34048
1185,34048
1186,34048
1187,34048
1188,33984
1189,33920
1190,33792
1191,33728
1192,33664
1193,33600
1194,33536
1195,33536
1196,33472
1197,33536
1198,33600
1199,33472
1200,33408
1201,33344
1202,33152
1203,33152
1204,33152
1205,33152
1206,33216
1207,33280
1208,33408
1209,33472
1210,33600
1211,33664
1212,33664
1213,33664
1214,33728
1215,33856
1216,33984
1217,33920
1218,33664
1219,33472
1220,33344
1221,33344
1222,33344
1223,33408
1224,33472
1225,33536
1226,33536
1227,33536
1228,33600
1229,33600
1230,33536
1231,33600
1232,33600
1233,33664
1234,33664
1235,33664
1236,33664
1237,33664
1238,33600
1239,33536
1240,33536
1241,33472
1242,33472
1243,33408
1244,33472
1245,33600
1246,33536
1247,33408
1248,33344
1249,33280
1250,33280
1251,33344
1252,33472
1253,33536
1254,33408
1255,33344
1256,33408
1257,33472
1258,33536
1259,33536
1260,33472
1261,33472
1262,33472
1263,33472
1264,33472
1265,33408
1266,33472
1267,33472
1268,33472
1269,33536
1270,33600
1271,33536
1272,33536
1273,33536
1274,33536
1275,33472
1276,33472
1277,33472
1278,33536
1279,33536
1280,33600
1281,33600
1282,33600
1283,33536
1284,33472
1285,33600
1286,33728
1287,33792
1288,33728
1289,33600
1290,33536
1291,33536
1292,33536
1293,33536
1294,33600
1295,33728
1296,33792
1297,33728
1298,33664
1299,33600
1300,33600
1301,33600
1302,33600
1303,33536
1304,33408
1305,33280
1306,33280
1307,33344
1308,33408
1309,33536
1310,33600
1311,33600
1312,33600
1313,33536
1314,33472
1315,33600
1316,33664
1317,33728
1318,33792
1319,33728
1320,33600
1321,33472
1322,33472
1323,33728
1324,34176
1325,34944
1326,36096
1327,37376
1328,38400
1329,38400
1330,37056
1331,35072
1332,33088
1333,31680
1334,30848
1335,30592
1336,30912
1337,31424
1338,32128
1339,32768
1340,33344
1341,33728
1342,33984
1343,34176
1344,34368
1345,34432
1346,34304
1347,34176
1348,34112
1349,34112
1350,34112
1351,33920
1352,33856
1353,33856
1354,33920
1355,33856
1356,33792
1357,33792
1358,33792
1359,33856
1360,33856
1361,33856
1362,33920
1363,33984
1364,33920
1365,33920
1366,34048
1367,34112
1368,34176
1369,34176
1370,34176
1371,34176
1372,34112
1373,34048
1374,34112
1375,34240
1376,34240
1377,34240
1378,34240
1379,34304
1380,34304
1381,34368
1382,34368
1383,34432
1384,34432
1385,34496
1386,34560
1387,34496
1388,34368
1389,34304
1390,34304
1391,34176
1392,34048
1393,33984
1394,33920
1395,33856
1396,33856
1397,33856
1398,33664
1399,33472
1400,33344
1401,33216
1402,33152
1403,33216
1404,33280
1405,33344
1406,33408
1407,33472
1408,33536
1409,33600
1410,33664
1411,33728
1412,33664
1413,33600
1414,33536
1415,33600
1416,33664
1417,33664
1418,33600
1419,33600
1420,33664
1421,33664
1422,33664
1423,33728
1424,33792
1425,33664
1426,33536
1427,33536
1428,33536
1429,33600
1430,33664
1431,33600
1432,33600
1433,33600
1434,33600
1435,33600
1436,33664
1437,33792
1438,33856
1439,33792
1440,33792
1441,33856
1442,33728
1443,33536
1444,33408
1445,33344
1446,33280
1447,33280
1448,33344
1449,33344
1450,33408
1451,33408
1452,33472
1453,33536
1454,33536
1455,33600
1456,33600
1457,33600
1458,33600
1459,33536
1460,33536
1461,33536
1462,33600
1463,33664
1464,33664
1465,33600
1466,33472
1467,33472
1468,33536
1469,33536
1470,33600
1471,33536
1472,33472
1473,33472
1474,33536
1475,33536
1476,33536
1477,33536
1478,33600
1479,33728
1480,33728
1481,33728
1482,33664
1483,33600
1484,33536
1485,33536
1486,33600
1487,33664
1488,33728
1489,33792
1490,33856
1491,33792
1492,33792
1493,33728
1494,33664
1495,33600
1496,33472
1497,33344
1498,33344
1499,33280
1500,33344
1501,33344
1502,33344
1503,33408
1504,33408
1505,33344
1506,33280
1507,33344
1508,33344
1509,33472
1510,33600
1511,33600
1512,33600
1513,33536
1514,33472
1515,33536
1516,33920
1517,34176
1518,34816
1519,35904
1520,37312
1521,38528
1522,38848
1523,37888
1524,35968
1525,33664
1526,31680
1527,30464
1528,30080
1529,30272
1530,30912
1531,32000
1532,32512
1533,33216
1534,33728
1535,33856
1536,33856
1537,33920
1538,33920
1539,33920
1540,33984
1541,34048
1542,33984
1543,33920
1544,33920
1545,33920
1546,33856
1547,33792
1548,33728
1549,33792
1550,33792
1551,33792
1552,33792
1553,33856
1554,33920
1555,33856
1556,33792
1557,33792
1558,33920
1559,33920
1560,33920
1561,33920
1562,33984
1563,34048
1564,34048
1565,34048
1566,34048
1567,34112
1568,34176
1569,34368
1570,34432
1571,34368
1572,34304
1573,34304
1574,34368
1575,34496
1576,34560
1577,34496
1578,34432
1579,34368
1580,34304
1581,34176
1582,34112
1583,34048
1584,33984
1585,33920
1586,33920
1587,33856
1588,33792
1589,33728
1590,33728
1591,33664
1592,33600
1593,33472
1594,33344
1595,33344
1596,33280
1597,33280
1598,33280
1599,33344
1600,33408
1601,33280
1602,33216
1603,33152
1604,33152
1605,33152
1606,33216
1607,33344
1608,33472
1609,33536
1610,33600
1611,33664
1612,33728
1613,33728
1614,33664
1615,33600
1616,33664
1617,33664
1618,33600
1619,33600
1620,33600
1621,33600
1622,33600
1623,33536
1624,33472
1625,33472
1626,33472
1627,33472
1628,33536
1629,33536
1630,33472
1631,33472
1632,33472
1633,33600
1634,33728
1635,33664
1636,33600
1637,33536
1638,33472
1639,33472
1640,33536
1641,33536
1642,33472
1643,33408
1644,33472
1645,33536
1646,33472
1647,33344
1648,33344
1649,33280
1650,33280
1651,33344
1652,33344
1653,33472
1654,33536
1655,33472
1656,33408
1657,33472
1658,33536
1659,33536
1660,33536
1661,33536
1662,33600
1663,33600
1664,33536
1665,33472
1666,33536
1667,33600
1668,33600
1669,33600
1670,33536
1671,33472
1672,33472
1673,33472
1674,33536
1675,33472
1676,33408
1677,33472
1678,33600
1679,33728
1680,33856
1681,33728
1682,33664
1683,33664
1684,33536
1685,33472
1686,33408
1687,33344
1688,33408
1689,33408
1690,33344
1691,33280
1692,33216
1693,33152
1694,33280
1695,33472
1696,33408
1697,33344
1698,33344
1699,33472
1700,33536
1701,33472
1702,33408
1703,33408
1704,33472
1705,33472
1706,33408
1707,33536
1708,33856
1709,34368
1710,35200
1711,36352
1712,37632
1713,38592
1714,38528
1715,36992
1716,34688
1717,32320
1718,30656
1719,29952
1720,30016
1721,30528
1722,31232
1723,32000
1724,32768
1725,33344
1726,33920
1727,33984
1728,34048
1729,34176
1730,34176
1731,34112
1732,34112
1733,34048
1734,33984
1735,33920
1736,33856
1737,33856
1738,33792
1739,33728
1740,33664
1741,33728
1742,33792
1743,33792
1744,33856
1745,33856
1746,33920
1747,33920
1748,33920
1749,33920
1750,33984
1751,33920
1752,33920
1753,33920
1754,33984
1755,33984
1756,33984
1757,34048
1758,34176
1759,34176
1760,34176
1761,34240
1762,34240
1763,34304
1764,34304
1765,34368
1766,34496
1767,34560
1768,34560
1769,34560
1770,34496
1771,34304
1772,34176
1773,34176
1774,34240
1775,34176
1776,34048
1777,33920
1778,33920
1779,33856
1780,33792
1781,33664
1782,33536
1783,33472
1784,33408
1785,33344
1786,33344
1787,33280
1788,33344
1789,33280
1790,33152
1791,33216
1792,33280
1793,33280
1794,33280
1795,33344
1796,33536
1797,33664
1798,33600
1799,33472
1800,33472
1801,33472
1802,33472
1803,33472
1804,33536
1805,33472
1806,33408
1807,33472
1808,33536
1809,33600
1810,33664
1811,33664
1812,33728
1813,33728
1814,33664
1815,33664
1816,33728
1817,33728
1818,33664
1819,33664
1820,33664
1821,33664
1822,33600
1823,33472
1824,33408
1825,33408
1826,33408
1827,33472
1828,33536
1829,33536
1830,33536
1831,33536
1832,33472
1833,33472
1834,33536
1835,33536
1836,33600
1837,33600
1838,33600
1839,33600
1840,33536
1841,33472
1842,33408
1843,33408
1844,33472
1845,33536
1846,33600
1847,33536
1848,33536
1849,33600
1850,33600
1851,33600
1852,33600
1853,33664
1854,33792
1855,33792
1856,33664
1857,33664
1858,33600
1859,33600
1860,33600
1861,33664
1862,33728
1863,33856
1864,33792
1865,33728
1866,33536
1867,33472
1868,33344
1869,33344
1870,33344
1871,33280
1872,33280
1873,33280
1874,33344
1875,33408
1876,33408
1877,33408
1878,33408
1879,33536
1880,33600
1881,33600
1882,33536
1883,33536
1884,33536
1885,33536
1886,33536
1887,33472
1888,33408
1889,33344
1890,33600
1891,34496
1892,35200
1893,36288
1894,37632
1895,38784
1896,38976
1897,37696
1898,35456
1899,32960
1900,31040
1901,30016
1902,29824
1903,30272
1904,31168
1905,32000
1906,32960
1907,33152
1908,33536
1909,33856
1910,34048
1911,34176
1912,34304
1913,34240
1914,34048
1915,33920
1916,33920
1917,33920
1918,33856
1919,33792
1920,33792
1921,33792
1922,33792
1923,33792
1924,33792
1925,33792
1926,33728
1927,33728
1928,33728
1929,33792
1930,33792
1931,33792
1932,33856
1933,33984
1934,34048
1935,34048
1936,34048
1937,34048
1938,34048
1939,34048
1940,34112
1941,34176
1942,34240
1943,34304
1944,34368
1945,34368
1946,34432
1947,34432
1948,34496
1949,34432
1950,34432
1951,34432
1952,34368
1953,34368
1954,34368
1955,34304
1956,34176
1957,34176
1958,34240
1959,34176
1960,34048
1961,33920
1962,33792
1963,33664
1964,33536
1965,33408
1966,33408
1967,33408
1968,33344
1969,33216
1970,33152
1971,33152
1972,33216
1973,33280
1974,33408
1975,33472
1976,33408
1977,33344
1978,33344
1979,33408
1980,33472
1981,33472
1982,33536
1983,33664
1984,33728
1985,33600
1986,33536
1987,33600
1988,33600
1989,33536
1990,33536
1991,33600
1992,33664
1993,33664
1994,33600
1995,33600
1996,33664
1997,33664
1998,33600
1999,33536
2000,33536
2001,33536
2002,33536
2003,33536
2004,33600
2005,33600
2006,33472
2007,33408
2008,33472
2009,33536
2010,33536
2011,33536
2012,33536
2013,33536
2014,33536
2015,33536
2016,33536
2017,33600
2018,33600
2019,33600
2020,33536
2021,33536
2022,33536
2023,33600
2024,33600
2025,33664
2026,33664
2027,33536
2028,33536
2029,33536
2030,33536
2031,33472
2032,33472
2033,33600
2034,33664
2035,33728
2036,33792
2037,33792
2038,33792
2039,33664
2040,33600
2041,33600
2042,33600
2043,33280
2044,33152
2045,33152
2046,33088
2047,33152
2048,33216
2049,33280
2050,33344
2051,33408
2052,33408
2053,33536
2054,33536
2055,33536
2056,33472
2057,33472
2058,33600
2059,33600
2060,33536
2061,33472
2062,33600
2063,33792
2064,34240
2065,35200
2066,36544
2067,38016
2068,38848
2069,38656
2070,36288
2071,35520
2072,34304
2073,30656
2074,29824
2075,29760
2076,30272
2077,31040
2078,31936
2079,32704
2080,33216
2081,33600
2082,33856
2083,33984
2084,34048
2085,34176
2086,34112
2087,34176
2088,34048
2089,33856
2090,33792
2091,33728
2092,33728
2093,33664
2094,33664
2095,33600
2096,33600
2097,33600
2098,33664
2099,33728
2100,33792
2101,33728
2102,33792
2103,33792
2104,33856
2105,33856
2106,33856
2107,33920
2108,33984
2109,33984
2110,33984
2111,33984
2112,34048
2113,34112
2114,34176
2115,34240
2116,34240
2117,34240
2118,34240
2119,34304
2120,34368
2121,34432
2122,34368
2123,34368
2124,34432
2125,34432
2126,34368
2127,34304
2128,34240
2129,34112
2130,34048
2131,33984
2132,33920
2133,33856
2134,33728
2135,33600
2136,33472
2137,33472
2138,33408
2139,33280
2140,33216
2141,33280
2142,33280
2143,33280
2144,33216
2145,33152
2146,33152
2147,33152
2148,33280
2149,33344
2150,33344
2151,33408
2152,33408
2153,33536
2154,33536
2155,33536
2156,33600
2157,33600
2158,33664
2159,33600
2160,33600
2161,33600
2162,33536
2163,33600
2164,33536
2165,33536
2166,33600
2167,33600
2168,33600
2169,33600
2170,33536
2171,33472
2172,33408
2173,33408
2174,33472
2175,33536
2176,33600
2177,33600
2178,33600
2179,33536
2180,33536
2181,33536
2182,33536
2183,33536
2184,33472
2185,33408
2186,33408
2187,33472
2188,33472
2189,33472
2190,33472
2191,33472
2192,33408
2193,33408
2194,33408
2195,33472
2196,33600
2197,33600
2198,33536
2199,33536
2200,33472
2201,33472
2202,33472
2203,33536
2204,33664
2205,33728
2206,33728
2207,33664
2208,33600
2209,33536
2210,33536
2211,33536
2212,33664
2213,33728
2214,33792
2215,33792
2216,33792
2217,33664
2218,33600
2219,33472
2220,33408
2221,33280
2222,33152
2223,33088
2224,33152
2225,33216
2226,33280
2227,33344
2228,33408
2229,33472
2230,33472
2231,33472
2232,33472
2233,33536
2234,33600
2235,33536
2236,33536
2237,33600
2238,33600
2239,33536
2240,33536
2241,33664
2242,33920
2243,34432
2244,35328
2245,36672
2246,37952
2247,38400
2248,37696
2249,35968
2250,33792
2251,31296
2252,31232
2253,30272
2254,30400
2255,30912
2256,31616
2257,32448
2258,33088
2259,33536
2260,33792
2261,33984
2262,34112
2263,34176
2264,34112
2265,34048
2266,34048
2267,33920
2268,33856
2269,33792
2270,33856
2271,33856
2272,33792
2273,33728
2274,33728
2275,33664
2276,33728
2277,33728
2278,33792
2279,33792
2280,33792
2281,33792
2282,33856
2283,33920
2284,33856
2285,33856
2286,33856
2287,33984
2288,34048
2289,33984
2290,34048
2291,34112
2292,34176
2293,34240
2294,34240
2295,34304
2296,34368
2297,34304
2298,34304
2299,34368
2300,34432
2301,34432
2302,34368
2303,34304
2304,34304
2305,34176
2306,34112
2307,34112
2308,34112
2309,34112
2310,34048
2311,34048
2312,34048
2313,33984
2314,33792
2315,33664
2316,33600
2317,33472
2318,33344
2319,33344
2320,33344
2321,33280
2322,33216
2323,33280
2324,33344
2325,33280
2326,33280
2327,33280
2328,33344
2329,33472
2330,33472
2331,33536
2332,33536
2333,33600
2334,33664
2335,33728
2336,33792
2337,33728
2338,33600
2339,33536
2340,33536
2341,33600
2342,33600
2343,33536
2344,33536
2345,33600
2346,33600
2347,33600
2348,33600
2349,33664
2350,33664
2351,33664
2352,33664
2353,33600
2354,33600
2355,33536
2356,33600
2357,33600
2358,33536
2359,33472
2360,33408
2361,33408
2362,33472
2363,33408
2364,33408
2365,33472
2366,33536
2367,33536
2368,33536
2369,33536
2370,33600
2371,33600
2372,33600
2373,33472
2374,33408
2375,33408
2376,33408
2377,33408
2378,33472
2379,33472
2380,33536
2381,33536
2382,33600
2383,33664
2384,33728
2385,33728
2386,33728
2387,33728
2388,33728
2389,33728
2390,33664
2391,33664
2392,33728
2393,33728
2394,33728
2395,33728
2396,33728
2397,33664
2398,33536
2399,33472
2400,33472
2401,33344
2402,33280
2403,33280
2404,33280
2405,33344
2406,33344
2407,33408
2408,33472
2409,33408
2410,33408
2411,33472
2412,33536
2413,33536
2414,33536
2415,33472
2416,33536
2417,33600
2418,33600
2419,33664
2420,33600
2421,33600
2422,33664
2423,33920
2424,34496
2425,35584
2426,36864
2427,37888
2428,38080
2429,37056
2430,35200
2431,33088
2432,31680
2433,30848
2434,30528
2435,30720
2436,31232
2437,32064
2438,32832
2439,33280
2440,33664
2441,33984
2442,34240
2443,34304
2444,34240
2445,34112
2446,34048
2447,33984
2448,33984
2449,33920
2450,33856
2451,33792
2452,33728
2453,33728
2454,33792
2455,33728
2456,33728
2457,33792
2458,33856
2459,33856
2460,33856
2461,33856
2462,33856
2463,33856
2464,33856
2465,33920
2466,33984
2467,34048
2468,34112
2469,34112
2470,34176
2471,34240
2472,34368
2473,34368
2474,34240
2475,34176
2476,34176
2477,34240
2478,34240
2479,34304
2480,34240
2481,34240
2482,34240
2483,34304
2484,34304
2485,34240
2486,34304
2487,34304
2488,34240
2489,34112
2490,34048
2491,33984
2492,33920
2493,33856
2494,33792
2495,33728
2496,33664
2497,33536
2498,33472
2499,33536
2500,33536
2501,33408
2502,33280
2503,33280
2504,33280
2505,33280
2506,33344
2507,33344
2508,33344
2509,33408
2510,33408
2511,33472
2512,33600
2513,33664
2514,33664
2515,33664
2516,33664
2517,33664
2518,33600
2519,33600
2520,33600
2521,33664
2522,33728
2523,33728
2524,33728
2525,33664
2526,33664
2527,33600
2528,33664
2529,33728
2530,33664
2531,33600
2532,33600
2533,33600
2534,33536
2535,33472
2536,33536
2537,33600
2538,33664
2539,33664
2540,33664
2541,33664
2542,33600
2543,33472
2544,33472
2545,33472
2546,33536
2547,33536
2548,33536
2549,33472
2550,33472
2551,33408
2552,33472
2553,33536
2554,33600
2555,33664
2556,33664
2557,33600
2558,33536
2559,33472
2560,33472
2561,33472
2562,33472
2563,33536
2564,33600
2565,33600
2566,33600
2567,33600
2568,33664
2569,33600
2570,33600
2571,33600
2572,33600
2573,33664
2574,33664
2575,33664
2576,33664
2577,33664
2578,33728
2579,33792
2580,33792
2581,33792
2582,33792
2583,33856
2584,33728
2585,33664
2586,33600
2587,33536
2588,33472
2589,33408
2590,33344
2591,33344
2592,33344
2593,33408
2594,33472
2595,33536
2596,33472
2597,33472
2598,33472
2599,33472
2600,33536
2601,33536
2602,33600
2603,33536
2604,33536
2605,33536
2606,33472
2607,33472
2608,33536
2609,33664
2610,33984
2611,34560
2612,35456
2613,36736
2614,38016
2615,38720
2616,38336
2617,36672
2618,34432
2619,32256
2620,30848
2621,30208
2622,30272
2623,30784
2624,31488
2625,32256
2626,32896
2627,33344
2628,33728
2629,33984
2630,34112
2631,34176
2632,34240
2633,34304
2634,34240
2635,34176
2636,34048
2637,33984
2638,33920
2639,33856
2640,33792
2641,33728
2642,33728
2643,33728
2644,33728
2645,33792
2646,33792
2647,33792
2648,33792
2649,33856
2650,33920
2651,33984
2652,33920
2653,33920
2654,34048
2655,34112
2656,34048
2657,34048
2658,34112
2659,34112
2660,34112
2661,34176
2662,34240
2663,34304
2664,34368
2665,34368
2666,34432
2667,34432
2668,34368
2669,34304
2670,34368
2671,34432
2672,34368
2673,34304
2674,34176
2675,34176
2676,34112
2677,34048
2678,33984
2679,33984
2680,33920
2681,33856
2682,33728
2683,33728
2684,33600
2685,33472
2686,33408
2687,33472
2688,33408
2689,33408
2690,33344
2691,33216
2692,33152
2693,33152
2694,33216
2695,33280
2696,33408
2697,33472
2698,33408
2699,33472
2700,33472
2701,33472
2702,33472
2703,33536
2704,33600
2705,33664
2706,33664
2707,33728
2708,33792
2709,33728
2710,33664
2711,33600
2712,33600
2713,33600
2714,33600
2715,33536
2716,33536
2717,33536
2718,33472
2719,33472
2720,33536
2721,33600
2722,33536
2723,33536
2724,33536
2725,33600
2726,33600
2727,33536
2728,33536
2729,33472
2730,33472
2731,33408
2732,33408
2733,33472
2734,33536
2735,33536
2736,33536
2737,33536
2738,33536
2739,33472
2740,33472
2741,33536
2742,33536
2743,33536
2744,33472
2745,33472
2746,33472
2747,33408
2748,33344
2749,33408
2750,33472
2751,33472
2752,33408
2753,33344
2754,33408
2755,33408
2756,33408
2757,33408
2758,33472
2759,33472
2760,33536
2761,33536
2762,33600
2763,33600
2764,33600
2765,33600
2766,33664
2767,33664
2768,33664
2769,33664
2770,33664
2771,33664
2772,33664
2773,33600
2774,33600
2775,33664
2776,33728
2777,33728
2778,33728
2779,33728
2780,33600
2781,33408
2782,33408
2783,33408
2784,33408
2785,33344
2786,33344
2787,33344
2788,33344
2789,33344
2790,33280
2791,33344
2792,33408
2793,33408
2794,33344
2795,33408
2796,33472
2797,33472
2798,33472
2799,33472
2800,33536
2801,33536
2802,33472
2803,33472
2804,33472
2805,33600
2806,33920
2807,34560
2808,35648
2809,37056
2810,38336
2811,38848
2812,38144
2813,36224
2814,33728
2815,31552
2816,30272
2817,29824
2818,30016
2819,30656
2820,31488
2821,32384
2822,32896
2823,33280
2824,33600
2825,33856
2826,33984
2827,34048
2828,34112
2829,34112
2830,34112
2831,33984
2832,33920
2833,33920
2834,33856
2835,33792
2836,33728
2837,33664
2838,33664
2839,33600
2840,33600
2841,33664
2842,33664
2843,33728
2844,33664
2845,33728
2846,33728
2847,33792
2848,33792
2849,33856
2850,33920
2851,33984
2852,33920
2853,33984
2854,34048
2855,34112
2856,34112
2857,34112
2858,34112
2859,34176
2860,34176
2861,34176
2862,34240
2863,34304
2864,34240
2865,34240
2866,34240
2867,34304
2868,34240
2869,34176
2870,34112
2871,34112
2872,34048
2873,33984
2874,33920
2875,33984
2876,33984
2877,33856
2878,33856
2879,33792
2880,33664
2881,33536
2882,33408
2883,33344
2884,33216
2885,33024
2886,32960
2887,32896
2888,32960
2889,33088
2890,33216
2891,33280
2892,33344
2893,33408
2894,33408
2895,33472
2896,33536
2897,33600
2898,33536
2899,33536
2900,33600
2901,33664
2902,33600
2903,33600
2904,33664
2905,33664
2906,33600
2907,33472
2908,33472
2909,33408
2910,33280
2911,33280
2912,33408
2913,33472
2914,33472
2915,33408
2916,33472
2917,33600
2918,33600
2919,33664
2920,33664
2921,33664
2922,33600
2923,33536
2924,33472
2925,33472
2926,33472
2927,33472
2928,33408
2929,33408
2930,33408
2931,33344
2932,33408
2933,33408
2934,33408
2935,33280
2936,33216
2937,33280
2938,33408
2939,33472
2940,33472
2941,33472
2942,33600
2943,33664
2944,33664
2945,33600
2946,33600
2947,33536
2948,33472
2949,33408
2950,33408
2951,33344
2952,33344
2953,33408
2954,33472
2955,33472
2956,33472
2957,33408
2958,33408
2959,33408
2960,33408
2961,33408
2962,33472
2963,33536
2964,33600
2965,33536
2966,33408
2967,33344
2968,33280
2969,33216
2970,33280
2971,33408
2972,33536
2973,33600
2974,33664
2975,33728
2976,33856
2977,33856
2978,33792
2979,33728
2980,33664
2981,33600
2982,33600
2983,33600
2984,33792
2985,33856
2986,33728
2987,33536
2988,33408
2989,33280
2990,33280
2991,33280
2992,33344
2993,33280
2994,33216
2995,33152
2996,33152
2997,33216
2998,33280
2999,33408
3000,33472
3001,33536
3002,33472
3003,33408
3004,33472
3005,33408
3006,33408
3007,33408
3008,33408
3009,33344
3010,33280
3011,33408
3012,33600
3013,33984
3014,34368
3015,35072
3016,36288
3017,37632
3018,38720
3019,38912
3020,37696
3021,35584
3022,33088
3023,31040
3024,29952
3025,29696
3026,30080
3027,30784
3028,31552
3029,32320
3030,32896
3031,33408
3032,33728
3033,33984
3034,34112
3035,34048
3036,33984
3037,33984
3038,33984
3039,33920
3040,33856
3041,33856
3042,33792
3043,33728
3044,33664
3045,33664
3046,33664
3047,33728
3048,33792
3049,33856
3050,33856
3051,33792
3052,33664
3053,33600
3054,33664
3055,33728
3056,33792
3057,33792
3058,33792
3059,33856
3060,33856
3061,33984
3062,34048
3063,34176
3064,34176
3065,34112
3066,34176
3067,34240
3068,34304
3069,34368
3070,34432
3071,34496
3072,34496
3073,34432
3074,34368
3075,34304
3076,34240
3077,34112
3078,34048
3079,34048
3080,34048
3081,33984
3082,33920
3083,33920
3084,33856
3085,33728
3086,33472
3087,33344
3088,33344
3089,33280
3090,33216
3091,33216
3092,33280
3093,33344
3094,33344
3095,33344
3096,33408
3097,33344
3098,33280
3099,33344
3100,33408
3101,33408
3102,33408
3103,33408
3104,33472
3105,33472
3106,33472
3107,33408
3108,33344
3109,33408
3110,33472
3111,33472
3112,33408
3113,33472
3114,33472
3115,33408
3116,33472
3117,33472
3118,33472
3119,33408
3120,33408
3121,33664
3122,33728
3123,33728
3124,33664
3125,33664
3126,33600
3127,33472
3128,33408
3129,33408
3130,33408
3131,33344
3132,33344
3133,33344
3134,33408
3135,33344
3136,33344
3137,33344
3138,33344
3139,33408
3140,33344
3141,33344
3142,33344
3143,33344
3144,33344
3145,33344
3146,33408
3147,33472
3148,33408
3149,33344
3150,33408
3151,33472
3152,33408
3153,33408
3154,33408
3155,33472
3156,33408
3157,33344
3158,33344
3159,33408
3160,33408
3161,33408
3162,33408
3163,33408
3164,33408
3165,33344
3166,33344
3167,33344
3168,33344
3169,33344
3170,33472
3171,33536
3172,33600
3173,33600
3174,33600
3175,33728
3176,33792
3177,33728
3178,33600
3179,33536
3180,33536
3181,33472
3182,33408
3183,33472
3184,33664
3185,33728
3186,33664
3187,33600
3188,33536
3189,33472
3190,33408
3191,33408
3192,33344
3193,33280
3194,33216
3195,33280
3196,33408
3197,33408
3198,33344
3199,33344
3200,33408
3201,33536
3202,33472
3203,33472
3204,33472
3205,33536
3206,33472
3207,33472
3208,33472
3209,33472
3210,33344
3211,33280
3212,33344
3213,33664
3214,34176
3215,35008
3216,36224
3217,37504
3218,38272
3219,37824
3220,36224
3221,34240
3222,32384
3223,31104
3224,30528
3225,30464
3226,30976
3227,31488
3228,32192
3229,32960
3230,33536
3231,33856
3232,34048
3233,34112
3234,34112
3235,34048
3236,33984
3237,33984
3238,33920
3239,33856
3240,33792
3241,33728
3242,33792
3243,33792
3244,33664
3245,33600
3246,33728
3247,33792
3248,33728
3249,33728
3250,33728
3251,33792
3252,33792
3253,33792
3254,33792
3255,33792
3256,33792
3257,33792
3258,33856
3259,33920
3260,33920
3261,33920
3262,33984
3263,34048
3264,34112
3265,34112
3266,34112
3267,34112
3268,34112
3269,34112
3270,34048
3271,34112
3272,34176
3273,34112
3274,34112
3275,34048
3276,34112
3277,34048
3278,33984
3279,33984
3280,33984
3281,33920
3282,33792
3283,33728
3284,33664
3285,33600
3286,33472
3287,33408
3288,33408
3289,33408
3290,33344
3291,33280
3292,33280
3293,33216
3294,33216
3295,33152
3296,33152
3297,33216
3298,33152
3299,33152
3300,33152
3301,33280
3302,33344
3303,33344
3304,33408
3305,33472
3306,33472
3307,33472
3308,33536
3309,33664
3310,33664
3311,33664
3312,33664
3313,33728
3314,33664
3315,33600
3316,33536
3317,33600
3318,33600
3319,33536
3320,33536
3321,33536
3322,33536
3323,33472
3324,33408
3325,33472
3326,33472
3327,33472
3328,33408
3329,33408
3330,33472
3331,33472
3332,33472
3333,33536
3334,33600
3335,33600
3336,33536
3337,33472
3338,33472
3339,33472
3340,33472
3341,33408
3342,33472
3343,33536
3344,33472
3345,33472
3346,33536
3347,33472
3348,33472
3349,33472
3350,33472
3351,33472
3352,33472
3353,33472
3354,33472
3355,33536
3356,33536
3357,33536
3358,33536
3359,33536
3360,33536
3361,33536
3362,33536
3363,33536
3364,33536
3365,33536
3366,33536
3367,33600
3368,33600
3369,33600
3370,33600
3371,33600
3372,33664
3373,33664
3374,33664
3375,33664
3376,33728
3377,33728
3378,33664
3379,33600
3380,33664
3381,33664
3382,33728
3383,33856
3384,33920
3385,33856
3386,33792
3387,33728
3388,33664
3389,33600
3390,33472
3391,33344
3392,33344
3393,33344
3394,33344
3395,33408
3396,33472
3397,33536
3398,33472
3399,33472
3400,33536
3401,33600
3402,33600
3403,33600
3404,33600
3405,33664
3406,33664
3407,33600
3408,33600
3409,33600
3410,33600
3411,33792
3412,34240
3413,34880
3414,35968
3415,37312
3416,38464
3417,38848
3418,37952
3419,35840
3420,33472
3421,31616
3422,30464
3423,30080
3424,30336
3425,30976
3426,31808
3427,32512
3428,33088
3429,33536
3430,33856
3431,34112
3432,34176
3433,34240
3434,34240
3435,34176
3436,34112
3437,34048
3438,34048
3439,34048
3440,33920
3441,33792
3442,33792
3443,33728
3444,33728
3445,33664
3446,33728
3447,33792
3448,33856
3449,33856
3450,33856
3451,33920
3452,33920
3453,33920
3454,33920
3455,33984
3456,34048
3457,34048
3458,34048
3459,34112
3460,34112
3461,34048
3462,34112
3463,34176
3464,34304
3465,34368
3466,34304
3467,34240
3468,34240
3469,34240
3470,34240
3471,34304
3472,34304
3473,34304
3474,34176
3475,34176
3476,34240
3477,34240
3478,34176
3479,34176
3480,34176
3481,34048
3482,33856
3483,33792
3484,33728
3485,33664
3486,33600
3487,33472
3488,33472
3489,33472
3490,33344
3491,33280
3492,33280
3493,33344
3494,33280
3495,33280
3496,33344
3497,33408
3498,33408
3499,33408
3500,33472
3501,33536
3502,33536
3503,33472
3504,33536
3505,33600
3506,33600
3507,33600
3508,33536
3509,33600
3510,33664
3511,33664
3512,33664
3513,33664
3514,33728
3515,33664
3516,33664
3517,33664
3518,33664
3519,33600
3520,33600
3521,33600
3522,33600
3523,33536
3524,33536
3525,33536
3526,33600
3527,33600
3528,33600
3529,33664
3530,33728
3531,33664
3532,33536
3533,33472
3534,33472
3535,33472
3536,33408
3537,33408
3538,33472
3539,33536
3540,33536
3541,33536
3542,33536
3543,33536
3544,33536
3545,33472
3546,33472
3547,33536
3548,33536
3549,33536
3550,33600
3551,33664
3552,33600
3553,33472
3554,33472
3555,33472
3556,33472
3557,33472
3558,33472
3559,33536
3560,33536
3561,33536
3562,33472
3563,33536
3564,33600
3565,33600
3566,33600
3567,33536
3568,33600
3569,33536
3570,33472
3571,33536
3572,33536
3573,33536
3574,33536
3575,33600
3576,33600
3577,33536
3578,33536
3579,33600
3580,33664
3581,33728
3582,33728
3583,33728
3584,33664
3585,33664
3586,33664
3587,33728
3588,33792
3589,33856
3590,33792
3591,33728
3592,33728
3593,33664
3594,33600
3595,33472
3596,33408
3597,33344
3598,33280
3599,33216
3600,33280
3601,33344
3602,33408
3603,33408
3604,33472
3605,33536
3606,33600
3607,33536
3608,33536
3609,33536
3610,33536
3611,33536
3612,33536
3613,33600
3614,33600
3615,33472
3616,33536
3617,33792
3618,34368
3619,35264
3620,36480
3621,38016
3622,39040
3623,38720
3624,37248
3625,34944
3626,32576
3627,30848
3628,30016
3629,29952
3630,30528
3631,31296
3632,32000
3633,32640
3634,33216
3635,33600
3636,33920
3637,34048
3638,34112
3639,34240
3640,34176
3641,34048
3642,33984
3643,33984
3644,33920
3645,33856
3646,33856
3647,33856
3648,33856
3649,33728
3650,33664
3651,33728
3652,33728
3653,33664
3654,33728
3655,33792
3656,33856
3657,33856
3658,33792
3659,33792
3660,33856
3661,33856
3662,33920
3663,33984
3664,34048
3665,34112
3666,34112
3667,34112
3668,34240
3669,34304
3670,34304
3671,34304
3672,34304
3673,34304
3674,34304
3675,34304
3676,34368
3677,34368
3678,34304
3679,34176
3680,34176
3681,34176
3682,34112
3683,34048
3684,34112
3685,34112
3686,34048
3687,33984
3688,33856
3689,33856
3690,33792
3691,33664
3692,33600
3693,33472
3694,33408
3695,33344
3696,33280
3697,33280
3698,33216
3699,33216
3700,33216
3701,33280
3702,33344
3703,33344
3704,33344
3705,33408
3706,33408
3707,33408
3708,33408
3709,33536
3710,33600
3711,33600
3712,33536
3713,33600
3714,33664
3715,33664
3716,33600
3717,33600
3718,33600
3719,33600
3720,33536
3721,33536
3722,33600
3723,33600
3724,33536
3725,33536
3726,33536
3727,33536
3728,33472
3729,33408
3730,33472
3731,33472
3732,33472
3733,33408
3734,33472
3735,33472
3736,33472
3737,33472
3738,33536
3739,33536
3740,33536
3741,33472
3742,33472
3743,33472
3744,33408
3745,33344
3746,33344
3747,33408
3748,33472
3749,33472
3750,33472
3751,33536
3752,33600
3753,33600
3754,33536
3755,33600
3756,33600
3757,33536
3758,33536
3759,33472
3760,33472
3761,33408
3762,33344
3763,33344
3764,33408
3765,33408
3766,33408
3767,33408
3768,33408
3769,33408
3770,33408
3771,33472
3772,33536
3773,33536
3774,33536
3775,33472
3776,33536
3777,33600
3778,33600
3779,33600
3780,33664
3781,33728
3782,33728
3783,33664
3784,33600
3785,33600
3786,33536
3787,33472
3788,33536
3789,33600
3790,33664
3791,33728
3792,33728
3793,33728
3794,33664
3795,33536
3796,33472
3797,33472
3798,33344
3799,33280
3800,33216
3801,33216
3802,33280
3803,33344
3804,33344
3805,33472
3806,33472
3807,33472
3808,33408
3809,33408
3810,33408
3811,33472
3812,33472
3813,33472
3814,33536
3815,33600
3816,33536
3817,33472
3818,33536
3819,33792
3820,34240
3821,35200
3822,36416
3823,37824
3824,38848
3825,38784
3826,37248
3827,35136
3828,32768
3829,30912
3830,30016
3831,29952
3832,30464
3833,31104
3834,31872
3835,32640
3836,33216
3837,33600
3838,33856
3839,34048
3840,34176
3841,34176
3842,34240
3843,34240
3844,34176
3845,33984
3846,33856
3847,33792
3848,33728
3849,33664
3850,33600
3851,33664
3852,33664
3853,33664
3854,33664
3855,33728
3856,33792
3857,33792
3858,33792
3859,33792
3860,33792
3861,33856
3862,33920
3863,33984
3864,33920
3865,33920
3866,33920
3867,33984
3868,34112
3869,34112
3870,34112
3871,34112
3872,34176
3873,34176
3874,34240
3875,34304
3876,34368
3877,34368
3878,34304
3879,34304
3880,34368
3881,34368
3882,34240
3883,34176
3884,34112
3885,33984
3886,33920
3887,33856
3888,33856
3889,33856
3890,33728
3891,33728
3892,33664
3893,33600
3894,33472
3895,33344
3896,33344
3897,33280
3898,33216
3899,33152
3900,33216
3901,33344
3902,33280
3903,33280
3904,33280
3905,33344
3906,33344
3907,33280
3908,33344
3909,33408
3910,33472
3911,33472
3912,33536
3913,33600
3914,33600
3915,33536
3916,33536
3917,33536
3918,33536
3919,33472
3920,33472
3921,33472
3922,33536
3923,33472
3924,33536
3925,33600
3926,33728
3927,33664
3928,33536
3929,33536
3930,33536
3931,33472
3932,33408
3933,33344
3934,33408
3935,33408
3936,33344
3937,33344
3938,33408
3939,33472
3940,33472
3941,33408
3942,33408
3943,33408
3944,33408
3945,33408
3946,33408
3947,33408
3948,33408
3949,33344
3950,33408
3951,33536
3952,33536
3953,33472
3954,33408
3955,33408
3956,33344
3957,33344
3958,33408
3959,33472
3960,33472
3961,33472
3962,33472
3963,33536
3964,33536
3965,33408
3966,33408
3967,33472
3968,33472
3969,33408
3970,33408
3971,33472
3972,33472
3973,33472
3974,33344
3975,33408
3976,33472
3977,33472
3978,33472
3979,33472
3980,33600
3981,33664
3982,33600
3983,33664
3984,33664
3985,33664
3986,33600
3987,33600
3988,33600
3989,33664
3990,33664
3991,33600
3992,33600
3993,33600
3994,33536
3995,33472
3996,33408
3997,33344
3998,33280
3999,33216
4000,33216
4001,33280
4002,33280
4003,33280
4004,33344
4005,33408
4006,33472
4007,33472
4008,33536
4009,33600
4010,33600
4011,33600
4012,33600
4013,33664
4014,33664
4015,33536
4016,33472
4017,33408
4018,33856
4019,34368
4020,35328
4021,36608
4022,37888
4023,38336
4024,37632
4025,35904
4026,33856
4027,32000
4028,30848
4029,30400
4030,30528
4031,31040
4032,31744
4033,32448
4034,33024
4035,33472
4036,33728
4037,33856
4038,34048
4039,34112
4040,34112
4041,34048
4042,34048
4043,34048
4044,33984
4045,33856
4046,33792
4047,33792
4048,33792
4049,33664
4050,33664
4051,33728
4052,33728
4053,33728
4054,33728
4055,33728
4056,33728
4057,33728
4058,33792
4059,33920
4060,33984
4061,33920
4062,33856
4063,33920
4064,33920
4065,33984
4066,33984
4067,34048
4068,34112
4069,34176
4070,34112
4071,34176
4072,34240
4073,34304
4074,34304
4075,34240
4076,34240
4077,34240
4078,34240
4079,34176
4080,34240
4081,34240
4082,34176
4083,34112
4084,34112
4085,34112
4086,33984
4087,33920
4088,33856
4089,33792
4090,33728
4091,33664
4092,33600
4093,33600
4094,33536
4095,33408
4096,33344
4097,33344
4098,33280
4099,33280
4100,33280
4101,33344
4102,33344
4103,33344
4104,33344
4105,33408
4106,33472
4107,33408
4108,33472
4109,33536
4110,33600
4111,33600
4112,33600
4113,33664
4114,33664
4115,33600
4116,33600
4117,33600
4118,33600
4119,33600
4120,33600
4121,33600
4122,33600
4123,33664
4124,33536
4125,33536
4126,33600
4127,33600
4128,33600
4129,33600
4130,33600
4131,33536
4132,33472
4133,33472
4134,33472
4135,33536
4136,33536
4137,33536
4138,33600
4139,33600
4140,33536
4141,33472
4142,33472
4143,33472
4144,33472
4145,33472
4146,33472
4147,33536
4148,33536
4149,33472
4150,33472
4151,33472
4152,33408
4153,33472
4154,33536
4155,33536
4156,33536
4157,33472
4158,33472
4159,33472
4160,33472
4161,33472
4162,33472
4163,33536
4164,33600
4165,33600
4166,33536
4167,33536
4168,33600
4169,33600
4170,33664
4171,33728
4172,33792
4173,33728
4174,33728
4175,33792
4176,33728
4177,33728
4178,33664
4179,33728
4180,33792
4181,33728
4182,33664
4183,33600
4184,33600
4185,33600
4186,33472
4187,33344
4188,33280
4189,33280
4190,33280
4191,33280
4192,33344
4193,33408
4194,33408
4195,33408
4196,33536
4197,33600
4198,33664
4199,33600
4200,33600
4201,33600
4202,33536
4203,33472
4204,33408
4205,33472
4206,33536
4207,33664
4208,34048
4209,34752
4210,35904
4211,37504
4212,37568
4213,38080
4214,36864
4215,34880
4216,32960
4217,31552
4218,30848
4219,30528
4220,30720
4221,31232
4222,32000
4223,32704
4224,33280
4225,33728
4226,34048
4227,34048
4228,34112
4229,34176
4230,34176
4231,34112
4232,33984
4233,33920
4234,33920
4235,33856
4236,33856
4237,33792
4238,33792
4239,33792
4240,33728
4241,33664
4242,33664
4243,33728
4244,33792
4245,33792
4246,33856
4247,33920
4248,33984
4249,33984
4250,33984
4251,33984
4252,33984
4253,33984
4254,33984
4255,34048
4256,34176
4257,34112
4258,34112
4259,34176
4260,34176
4261,34176
4262,34176
4263,34240
4264,34240
4265,34304
4266,34304
4267,34304
4268,34368
4269,34304
4270,34240
4271,34240
4272,34176
4273,34176
4274,34112
4275,34048
4276,34048
4277,33984
4278,33920
4279,33792
4280,33792
4281,33728
4282,33600
4283,33472
4284,33344
4285,33344
4286,33280
4287,33280
4288,33280
4289,33344
4290,33408
4291,33408
4292,33408
4293,33472
4294,33472
4295,33472
4296,33536
4297,33600
4298,33600
4299,33600
4300,33600
4301,33600
4302,33664
4303,33664
4304,33664
4305,33728
4306,33728
4307,33664
4308,33600
4309,33664
4310,33664
4311,33664
4312,33600
4313,33600
4314,33600
4315,33664
4316,33664
4317,33664
4318,33728
4319,33664
4320,33600
4321,33600
4322,33664
4323,33600
4324,33600
4325,33536
4326,33600
4327,33600
4328,33600
4329,33536
4330,33600
4331,33600
4332,33600
4333,33536
4334,33536
4335,33536
4336,33536
4337,33472
4338,33536
4339,33536
4340,33472
4341,33472
4342,33472
4343,33536
4344,33536
4345,33536
4346,33536
4347,33600
4348,33600
4349,33600
4350,33664
4351,33664
4352,33664
4353,33536
4354,33472
4355,33472
4356,33536
4357,33536
4358,33536
4359,33536
4360,33600
4361,33600
4362,33600
4363,33664
4364,33728
4365,33728
4366,33664
4367,33664
4368,33664
4369,33664
4370,33664
4371,33664
4372,33792
4373,33856
4374,33792
4375,33664
4376,33664
4377,33600
4378,33536
4379,33472
4380,33472
4381,33408
4382,33344
4383,33280
4384,33344
4385,33408
4386,33408
4387,33408
4388,33472
4389,33536
4390,33600
4391,33536
4392,33472
4393,33536
4394,33536
4395,33536
4396,33472
4397,33472
4398,33472
4399,33536
4400,33728
4401,34176
4402,34944
4403,36096
4404,37440
4405,38528
4406,38720
4407,37568
4408,35456
4409,33152
4410,31424
4411,30400
4412,30080
4413,30400
4414,31104
4415,31936
4416,32576
4417,33152
4418,33600
4419,33856
4420,33984
4421,34112
4422,34112
4423,34176
4424,34112
4425,34048
4426,34048
4427,33984
4428,33856
4429,33792
4430,33856
4431,33856
4432,33792
4433,33664
4434,33664
4435,33728
4436,33728
4437,33664
4438,33792
4439,33856
4440,33856
4441,33856
4442,33856
4443,33920
4444,33920
4445,33856
4446,33856
4447,33920
4448,33984
4449,33984
4450,33984
4451,34048
4452,34176
4453,34176
4454,34176
4455,34240
4456,34304
4457,34304
4458,34304
4459,34368
4460,34432
4461,34432
4462,34368
4463,34304
4464,34304
4465,34240
4466,34112
4467,34112
4468,34048
4469,33984
4470,33856
4471,33792
4472,33728
4473,33664
4474,33600
4475,33472
4476,33472
4477,33472
4478,33408
4479,33344
4480,33344
4481,33408
4482,33344
4483,33280
4484,33280
4485,33344
4486,33344
4487,33280
4488,33344
4489,33344
4490,33408
4491,33408
4492,33472
4493,33536
4494,33600
4495,33536
4496,33600
4497,33536
4498,33664
4499,33664
4500,33664
4501,33664
4502,33664
4503,33600
4504,33536
4505,33536
4506,33600
4507,33600
4508,33536
4509,33536
4510,33600
4511,33536
4512,33536
4513,33536
4514,33536
4515,33600
4516,33536
4517,33536
4518,33536
4519,33600
4520,33600
4521,33536
4522,33536
4523,33536
4524,33472
4525,33408
4526,33472
4527,33472
4528,33472
4529,33344
4530,33408
4531,33472
4532,33536
4533,33536
4534,33536
4535,33536
4536,33536
4537,33536
4538,33536
4539,33536
4540,33536
4541,33472
4542,33408
4543,33536
4544,33536
4545,33472
4546,33472
4547,33472
4548,33536
4549,33536
4550,33472
4551,33472
4552,33472
4553,33472
4554,33472
4555,33472
4556,33536
4557,33536
4558,33536
4559,33536
4560,33600
4561,33600
4562,33600
4563,33600
4564,33600
4565,33600
4566,33600
4567,33664
4568,33728
4569,33728
4570,33728
4571,33600
4572,33600
4573,33664
4574,33664
4575,33600
4576,33664
4577,33728
4578,33728
4579,33664
4580,33600
4581,33600
4582,33536
4583,33408
4584,33344
4585,33344
4586,33280
4587,33216
4588,33280
4589,33344
4590,33408
4591,33472
4592,33536
4593,33600
4594,33600
4595,33600
4596,33536
4597,33600
4598,33600
4599,33600
4600,33536
4601,33536
4602,33472
4603,33472
4604,33664
4605,34112
4606,34816
4607,35968
4608,37312
4609,38528
4610,38912
4611,37888
4612,35840
4613,33408
4614,31488
4615,30400
4616,30016
4617,30272
4618,30976
4619,31744
4620,32448
4621,33088
4622,33472
4623,33856
4624,34048
4625,34112
4626,34112
4627,34112
4628,34048
4629,33984
4630,33984
4631,33984
4632,33920
4633,33856
4634,33792
4635,33728
4636,33728
4637,33664
4638,33664
4639,33664
4640,33728
4641,33728
4642,33728
4643,33792
4644,33856
4645,33920
4646,33984
4647,33920
4648,33984
4649,33984
4650,33984
4651,33984
4652,33984
4653,33984
4654,34048
4655,34048
4656,34176
4657,34176
4658,34240
4659,34240
4660,34304
4661,34304
4662,34304
4663,34240
4664,34240
4665,34304
4666,34240
4667,34176
4668,34176
4669,34176
4670,34112
4671,34112
4672,34112
4673,34048
4674,33984
4675,33856
4676,33792
4677,33728
4678,33664
4679,33600
4680,33536
4681,33536
4682,33472
4683,33344
4684,33280
4685,33280
4686,33216
4687,33216
4688,33216
4689,33280
4690,33344
4691,33408
4692,33344
4693,33408
4694,33472
4695,33472
4696,33536
4697,33536
4698,33600
4699,33664
4700,33600
4701,33600
4702,33600
4703,33600
4704,33600
4705,33600
4706,33728
4707,33664
4708,33600
4709,33600
4710,33664
4711,33664
4712,33600
4713,33536
4714,33536
4715,33600
4716,33600
4717,33600
4718,33600
4719,33600
4720,33536
4721,33536
4722,33600
4723,33600
4724,33600
4725,33472
4726,33536
4727,33536
4728,33536
4729,33536
4730,33536
4731,33600
4732,33664
4733,33600
4734,33536
4735,33472
4736,33472
4737,33472
4738,33472
4739,33472
4740,33536
4741,33600
4742,33536
4743,33536
4744,33536
4745,33536
4746,33472
4747,33536
4748,33536
4749,33536
4750,33536
4751,33472
4752,33536
4753,33536
4754,33472
4755,33472
4756,33536
4757,33600
4758,33536
4759,33536
4760,33536
4761,33536
4762,33600
4763,33536
4764,33536
4765,33536
4766,33536
4767,33536
4768,33600
4769,33664
4770,33664
4771,33664
4772,33728
4773,33792
4774,33792
4775,33728
4776,33664
4777,33664
4778,33728
4779,33728
4780,33792
4781,33856
4782,33856
4783,33728
4784,33600
4785,33600
4786,33536
4787,33472
4788,33344
4789,33280
4790,33280
4791,33280
4792,33280
4793,33344
4794,33472
4795,33536
4796,33536
4797,33536
4798,33600
4799,33600
4800,33600
4801,33600
4802,33600
4803,33600
4804,33536
4805,33536
4806,33536
4807,33600
4808,33664
4809,33984
4810,34560
4811,35584
4812,36864
4813,37952
4814,38336
4815,37504
4816,35648
4817,33600
4818,31872
4819,30848
4820,30464
4821,30592
4822,31104
4823,31872
4824,32640
4825,33216
4826,33600
4827,33920
4828,34112
4829,34176
4830,34176
4831,34240
4832,34176
4833,34112
4834,33984
4835,33920
4836,33920
4837,33856
4838,33856
4839,33856
4840,33856
4841,33792
4842,33792
4843,33792
4844,33856
4845,33856
4846,33856
4847,33856
4848,33920
4849,33984
4850,33920
4851,33920
4852,33984
4853,33984
4854,33984
4855,33984
4856,33984
4857,34048
4858,34048
4859,34112
4860,34176
4861,34240
4862,34240
4863,34304
4864,34304
4865,34368
4866,34368
4867,34304
4868,34304
4869,34368
4870,34304
4871,34240
4872,34176
4873,34176
4874,34176
4875,34112
4876,34048
4877,33984
4878,33984
4879,33920
4880,33856
4881,33856
4882,33792
4883,33728
4884,33600
4885,33536
4886,33472
4887,33472
4888,33408
4889,33408
4890,33408
4891,33344
4892,33344
4893,33344
4894,33408
4895,33408
4896,33408
4897,33472
4898,33600
4899,33600
4900,33600
4901,33600
4902,33536
4903,33600
4904,33536
4905,33600
4906,33664
4907,33664
4908,33664
4909,33664
4910,33664
4911,33728
4912,33728
4913,33728
4914,33664
4915,33664
4916,33664
4917,33664
4918,33664
4919,33664
4920,33600
4921,33600
4922,33600
4923,33600
4924,33600
4925,33600
4926,33536
4927,33536
4928,33600
4929,33536
4930,33536
4931,33536
4932,33600
4933,33536
4934,33536
4935,33536
4936,33536
4937,33536
4938,33472
4939,33472
4940,33536
4941,33536
4942,33472
4943,33472
4944,33536
4945,33600
4946,33536
4947,33600
4948,33600
4949,33536
4950,33472
4951,33472
4952,33472
4953,33472
4954,33472
4955,33472
4956,33536
4957,33600
4958,33600
4959,33536
4960,33536
4961,33600
4962,33600
4963,33600
4964,33600
4965,33600
4966,33600
4967,33600
4968,33536
4969,33600
4970,33600
4971,33600
4972,33600
4973,33600
4974,33600
4975,33664
4976,33664
4977,33728
4978,33728
4979,33664
4980,33600
4981,33664
4982,33664
4983,33664
4984,33728
4985,33792
4986,33792
4987,33664
4988,33600
4989,33600
4990,33600
4991,33536
4992,33408
4993,33408
4994,33408
4995,33408
4996,33408
4997,33408
4998,33408
4999,33408
5000,33472
5001,33472
5002,33536
5003,33600
5004,33600
5005,33536
5006,33536
5007,33600
5008,33536
5009,33536
5010,33472
5011,33664
5012,33856
5013,34240
5014,35008
5015,36160
5016,37568
5017,38528
5018,38528
5019,37184
5020,35072
5021,32832
5022,31104
5023,30336
5024,30144
5025,30528
5026,31232
5027,32000
5028,32768
5029,33280
5030,33664
5031,33984
5032,34176
5033,34240
5034,34240
5035,34176
5036,34240
5037,34112
5038,33984
5039,33856
5040,33792
5041,33792
5042,33728
5043,33664
5044,33664
5045,33728
5046,33792
5047,33728
5048,33792
5049,33792
5050,33792
5051,33856
5052,33920
5053,33984
5054,33984
5055,34048
5056,33984
5057,33984
5058,33920
5059,33920
5060,33920
5061,33984
5062,34048
5063,34112
5064,34176
5065,34176
5066,34176
5067,34176
5068,34240
5069,34304
5070,34304
5071,34368
5072,34304
5073,34304
5074,34240
5075,34176
5076,34112
5077,34112
5078,34048
5079,34048
5080,33984
5081,33984
5082,33920
5083,33856
5084,33792
5085,33728
5086,33664
5087,33600
5088,33536
5089,33472
5090,33408
5091,33344
5092,33280
5093,33280
5094,33280
5095,33344
5096,33280
5097,33344
5098,33344
5099,33344
5100,33344
5101,33344
5102,33408
5103,33472
5104,33472
5105,33472
5106,33536
5107,33664
5108,33664
5109,33664
5110,33664
5111,33664
5112,33600
5113,33536
5114,33536
5115,33600
5116,33600
5117,33600
5118,33600
5119,33600
5120,33600
5121,33600
5122,33600
5123,33600
5124,33600
5125,33536
5126,33472
5127,33408
5128,33472
5129,33472
5130,33472
5131,33472
5132,33472
5133,33472
5134,33472
5135,33472
5136,33536
5137,33536
5138,33472
5139,33472
5140,33536
5141,33536
5142,33472
5143,33472
5144,33472
5145,33472
5146,33472
5147,33472
5148,33472
5149,33472
5150,33472
5151,33472
5152,33472
5153,33536
5154,33536
5155,33536
5156,33472
5157,33408
5158,33408
5159,33408
5160,33408
5161,33472
5162,33472
5163,33472
5164,33472
5165,33472
5166,33472
5167,33472
5168,33472
5169,33536
5170,33536
5171,33536
5172,33536
5173,33536
5174,33536
5175,33536
5176,33472
5177,33536
5178,33536
5179,33536
5180,33472
5181,33408
5182,33472
5183,33472
5184,33472
5185,33472
5186,33536
5187,33536
5188,33536
5189,33536
5190,33536
5191,33600
5192,33536
5193,33536
5194,33536
5195,33536
5196,33536
5197,33536
5198,33600
5199,33664
5200,33664
5201,33664
5202,33728
5203,33728
5204,33728
5205,33600
5206,33600
5207,33664
5208,33664
5209,33664
5210,33728
5211,33728
5212,33728
5213,33664
5214,33536
5215,33536
5216,33472
5217,33408
5218,33344
5219,33344
5220,33344
5221,33280
5222,33280
5223,33344
5224,33408
5225,33472
5226,33472
5227,33536
5228,33536
5229,33536
5230,33536
5231,33536
5232,33536
5233,33536
5234,33536
5235,33472
5236,33472
5237,33600
5238,33920
5239,34496
5240,35584
5241,37056
5242,38400
5243,39104
5244,38592
5245,36736
5246,34304
5247,31936
5248,30464
5249,29888
5250,30016
5251,30592
5252,31360
5253,32192
5254,32832
5255,33344
5256,33664
5257,33984
5258,34112
5259,34176
5260,34176
5261,34176
5262,34112
5263,34112
5264,33984
5265,33856
5266,33792
5267,33728
5268,33664
5269,33664
5270,33664
5271,33664
5272,33664
5273,33728
5274,33792
5275,33856
5276,33792
5277,33792
5278,33856
5279,33920
5280,33920
5281,33920
5282,33984
5283,33984
5284,33984
5285,33984
5286,33984
5287,34048
5288,34112
5289,34112
5290,34176
5291,34240
5292,34240
5293,34240
5294,34240
5295,34368
5296,34368
5297,34432
5298,34432
5299,34368
5300,34240
5301,34176
5302,34176
5303,34176
5304,34176
5305,34112
5306,34048
5307,34048
5308,33984
5309,33856
5310,33792
5311,33728
5312,33664
5313,33600
5314,33472
5315,33408
5316,33408
5317,33344
5318,33280
5319,33280
5320,33280
5321,33216
5322,33216
5323,33216
5324,33280
5325,33344
5326,33408
5327,33408
5328,33472
5329,33472
5330,33472
5331,33472
5332,33536
5333,33536
5334,33536
5335,33600
5336,33600
5337,33600
5338,33600
5339,33536
5340,33600
5341,33600
5342,33600
5343,33536
5344,33536
5345,33536
5346,33472
5347,33472
5348,33472
5349,33472
5350,33536
5351,33536
5352,33536
5353,33536
5354,33536
5355,33472
5356,33536
5357,33536
5358,33472
5359,33408
5360,33408
5361,33408
5362,33408
5363,33408
5364,33408
5365,33408
5366,33408
5367,33408
5368,33408
5369,33408
5370,33472
5371,33408
5372,33408
5373,33408
5374,33408
5375,33408
5376,33408
5377,33408
5378,33472
5379,33408
5380,33408
5381,33408
5382,33408
5383,33408
5384,33408
5385,33408
5386,33472
5387,33472
5388,33408
5389,33408
5390,33472
5391,33472
5392,33472
5393,33472
5394,33472
5395,33472
5396,33472
5397,33408
5398,33344
5399,33344
5400,33408
5401,33408
5402,33472
5403,33536
5404,33472
5405,33472
5406,33472
5407,33472
5408,33536
5409,33472
5410,33472
5411,33472
5412,33536
5413,33536
5414,33536
5415,33536
5416,33536
5417,33536
5418,33536
5419,33600
5420,33664
5421,33664
5422,33600
5423,33664
5424,33664
5425,33728
5426,33728
5427,33728
5428,33664
5429,33600
5430,33536
5431,33472
5432,33472
5433,33472
5434,33344
5435,33280
5436,33216
5437,33216
5438,33280
5439,33344
5440,33408
5441,33472
5442,33472
5443,33472
5444,33472
5445,33536
5446,33536
5447,33536
5448,33536
5449,33600
5450,33600
5451,33536
5452,33472
5453,33472
5454,33728
5455,34112
5456,34880
5457,36096
5458,37504
5459,38528
5460,38592
5461,37248
5462,35200
5463,32960
5464,31232
5465,30400
5466,30208
5467,30528
5468,31168
5469,31936
5470,32640
5471,33216
5472,33600
5473,33856
5474,34048
5475,34112
5476,34112
5477,34112
5478,34176
5479,34112
5480,33984
5481,33856
5482,33856
5483,33792
5484,33792
5485,33728
5486,33728
5487,33728
5488,33728
5489,33664
5490,33728
5491,33792
5492,33856
5493,33856
5494,33920
5495,33920
5496,33920
5497,33920
5498,33984
5499,34048
5500,34048
5501,33984
5502,33984
5503,34048
5504,34112
5505,34048
5506,34112
5507,34176
5508,34240
5509,34240
5510,34240
5511,34240
5512,34240
5513,34240
5514,34240
5515,34304
5516,34304
5517,34368
5518,34304
5519,34176
5520,34176
5521,34112
5522,33984
5523,33920
5524,33920
5525,33856
5526,33728
5527,33664
5528,33664
5529,33664
5530,33600
5531,33472
5532,33408
5533,33344
5534,33280
5535,33280
5536,33280
5537,33280
5538,33344
5539,33280
5540,33280
5541,33344
5542,33344
5543,33408
5544,33472
5545,33472
5546,33536
5547,33600
5548,33600
5549,33600
5550,33600
5551,33600
5552,33600
5553,33664
5554,33664
5555,33664
5556,33600
5557,33600
5558,33600
5559,33600
5560,33536
5561,33600
5562,33664
5563,33664
5564,33664
5565,33600
5566,33600
5567,33600
5568,33536
5569,33536
5570,33536
5571,33536
5572,33536
5573,33536
5574,33536
5575,33600
5576,33536
5577,33536
5578,33472
5579,33472
5580,33472
5581,33472
5582,33536
5583,33536
5584,33536
5585,33536
5586,33472
5587,33536
5588,33600
5589,33600
5590,33600
5591,33536
5592,33536
5593,33536
5594,33472
5595,33536
5596,33536
5597,33536
5598,33536
5599,33536
5600,33600
5601,33536
5602,33536
5603,33600
5604,33600
5605,33600
5606,33536
5607,33536
5608,33536
5609,33536
5610,33472
5611,33536
5612,33536
5613,33600
5614,33664
5615,33728
5616,33792
5617,33792
5618,33728
5619,33664
5620,33664
5621,33664
5622,33728
5623,33728
5624,33856
5625,33920
5626,33856
5627,33728
5628,33600
5629,33600
5630,33536
5631,33472
5632,33408
5633,33344
5634,33344
5635,33280
5636,33280
5637,33408
5638,33472
5639,33472
5640,33536
5641,33600
5642,33664
5643,33664
5644,33664
5645,33600
5646,33600
5647,33600
5648,33600
5649,33600
5650,33600
5651,33472
5652,33536
5653,33856
5654,34432
5655,35392
5656,36608
5657,37760
5658,38272
5659,37632
5660,35904
5661,33856
5662,32192
5663,31104
5664,30656
5665,30656
5666,31104
5667,31872
5668,32512
5669,33088
5670,33472
5671,33792
5672,33984
5673,34112
5674,34240
5675,34304
5676,34240
5677,34176
5678,34112
5679,34048
5680,33920
5681,33856
5682,33792
5683,33792
5684,33728
5685,33792
5686,33792
5687,33728
5688,33792
5689,33792
5690,33856
5691,33856
5692,33856
5693,33792
5694,33856
5695,33920
5696,33984
5697,33920
5698,34048
5699,34112
5700,34112
5701,34176
5702,34240
5703,34240
5704,34304
5705,34368
5706,34368
5707,34368
5708,34304
5709,34240
5710,34240
5711,34240
5712,34304
5713,34240
5714,34240
5715,34240
5716,34240
5717,34112
5718,34048
5719,34048
5720,34048
5721,33984
5722,33920
5723,33856
5724,33792
5725,33728
5726,33664
5727,33600
5728,33536
5729,33472
5730,33408
5731,33408
5732,33344
5733,33344
5734,33280
5735,33280
5736,33280
5737,33280
5738,33280
5739,33344
5740,33408
5741,33472
5742,33472
5743,33536
5744,33536
5745,33600
5746,33600
5747,33536
5748,33536
5749,33600
5750,33600
5751,33664
5752,33728
5753,33792
5754,33728
5755,33664
5756,33600
5757,33600
5758,33600
5759,33600
5760,33600
5761,33600
5762,33664
5763,33664
5764,33664
5765,33664
5766,33664
5767,33600
5768,33536
5769,33472
5770,33472
5771,33472
5772,33472
5773,33472
5774,33536
5775,33536
5776,33536
5777,33536
5778,33536
5779,33536
5780,33536
5781,33536
5782,33600
5783,33600
5784,33600
5785,33600
5786,33600
5787,33600
5788,33664
5789,33600
5790,33536
5791,33472
5792,33472
5793,33472
5794,33536
5795,33664
5796,33536
5797,33472
5798,33472
5799,33472
5800,33472
5801,33472
5802,33408
5803,33600
5804,33664
5805,33600
5806,33536
5807,33536
5808,33536
5809,33536
5810,33536
5811,33664
5812,33664
5813,33600
5814,33600
5815,33664
5816,33728
5817,33728
5818,33600
5819,33600
5820,33664
5821,33728
5822,33664
5823,33664
5824,33600
5825,33600
5826,33600
5827,33664
5828,33792
5829,33856
5830,33856
5831,33792
5832,33792
5833,33664
5834,33600
5835,33536
5836,33536
5837,33472
5838,33408
5839,33344
5840,33344
5841,33408
5842,33408
5843,33408
5844,33472
5845,33536
5846,33536
5847,33472
5848,33536
5849,33600
5850,33600
5851,33600
5852,33600
5853,33600
5854,33600
5855,33536
5856,33600
5857,33920
5858,34304
5859,35072
5860,36224
5861,37824
5862,37888
5863,38656
5864,37248
5865,35072
5866,32768
5867,31040
5868,30208
5869,30080
5870,30592
5871,31296
5872,32000
5873,32704
5874,33280
5875,33728
5876,33920
5877,34112
5878,34240
5879,34240
5880,34240
5881,34176
5882,34112
5883,34048
5884,33920
5885,33856
5886,33856
5887,33856
5888,33792
5889,33728
5890,33728
5891,33728
5892,33664
5893,33728
5894,33728
5895,33856
5896,33856
5897,33856
5898,33856
5899,33920
5900,33984
5901,33984
5902,33984
5903,34048
5904,34112
5905,34112
5906,34176
5907,34112
5908,34240
5909,34176
5910,34176
5911,34240
5912,34304
5913,34304
5914,34304
5915,34368
5916,34368
5917,34368
5918,34368
5919,34304
5920,34304
5921,34304
5922,34176
5923,34176
5924,34112
5925,34112
5926,34048
5927,33984
5928,33984
5929,33920
5930,33792
5931,33728
5932,33600
5933,33472
5934,33408
5935,33344
5936,33344
5937,33344
5938,33280
5939,33216
5940,33216
5941,33280
5942,33344
5943,33344
5944,33408
5945,33472
5946,33472
5947,33472
5948,33536
5949,33600
5950,33536
5951,33536
5952,33472
5953,33664
5954,33664
5955,33600
5956,33600
5957,33600
5958,33600
5959,33664
5960,33664
5961,33664
5962,33664
5963,33600
5964,33600
5965,33600
5966,33600
5967,33600
5968,33536
5969,33536
5970,33536
5971,33600
5972,33536
5973,33600
5974,33600
5975,33600
5976,33536
5977,33536
5978,33536
5979,33600
5980,33536
5981,33536
5982,33600
5983,33536
5984,33472
5985,33472
5986,33472
5987,33472
5988,33472
5989,33472
5990,33472
5991,33536
5992,33472
5993,33472
5994,33472
5995,33472
5996,33536
5997,33472
5998,33472
5999,33472
6000,33472
6001,33472
6002,33472
6003,33536
6004,33600
6005,33536
6006,33472
6007,33472
6008,33472
6009,33472
6010,33472
6011,33536
6012,33536
6013,33600
6014,33600
6015,33600
6016,33600
6017,33536
6018,33536
6019,33472
6020,33536
6021,33536
6022,33536
6023,33536
6024,33600
6025,33600
6026,33536
6027,33600
6028,33600
6029,33664
6030,33664
6031,33600
6032,33664
6033,33728
6034,33664
6035,33600
6036,33664
6037,33664
6038,33664
6039,33664
6040,33792
6041,33856
6042,33856
6043,33728
6044,33664
6045,33664
6046,33600
6047,33600
6048,33472
6049,33408
6050,33344
6051,33344
6052,33344
6053,33408
6054,33472
6055,33536
6056,33536
6057,33472
6058,33536
6059,33536
6060,33536
6061,33600
6062,33600
6063,33600
6064,33600
6065,33600
6066,33664
6067,33600
6068,33664
6069,33984
6070,34560
6071,35776
6072,35904
6073,38080
6074,38720
6075,38144
6076,36416
6077,34176
6078,32128
6079,30848
6080,30336
6081,30400
6082,30912
6083,31680
6084,32384
6085,33024
6086,33472
6087,33856
6088,34048
6089,34176
6090,34304
6091,34304
6092,34240
6093,34112
6094,34048
6095,34048
6096,33984
6097,33920
6098,33920
6099,33856
6100,33856
6101,33792
6102,33728
6103,33792
6104,33792
6105,33792
6106,33856
6107,33856
6108,33920
6109,33920
6110,33920
6111,33920
6112,33920
6113,33984
6114,33984
6115,33984
6116,34048
6117,34112
6118,34112
6119,34112
6120,34176
6121,34176
6122,34176
6123,34240
6124,34240
6125,34304
6126,34368
6127,34368
6128,34368
6129,34368
6130,34368
6131,34304
6132,34304
6133,34304
6134,34176
6135,34112
6136,34112
6137,34048
6138,34048
6139,33920
6140,33856
6141,33792
6142,33728
6143,33664
6144,33600
6145,33536
6146,33472
6147,33408
6148,33344
6149,33408
6150,33408
6151,33344
6152,33344
6153,33344
6154,33408
6155,33472
6156,33472
6157,33472
6158,33536
6159,33600
6160,33600
6161,33600
6162,33600
6163,33664
6164,33600
6165,33600
6166,33664
6167,33664
6168,33600
6169,33600
6170,33664
6171,33664
6172,33664
6173,33664
6174,33664
6175,33664
6176,33664
6177,33600
6178,33664
6179,33664
6180,33600
6181,33600
6182,33600
6183,33600
6184,33600
6185,33600
6186,33600
6187,33664
6188,33600
6189,33600
6190,33536
6191,33600
6192,33600
6193,33536
6194,33472
6195,33472
6196,33472
6197,33472
6198,33472
6199,33472
6200,33472
6201,33536
6202,33536
6203,33536
6204,33600
6205,33600
6206,33600
6207,33600
6208,33600
6209,33536
6210,33536
6211,33536
6212,33472
6213,33472
6214,33472
6215,33472
6216,33472
6217,33472
6218,33472
6219,33536
6220,33600
6221,33600
6222,33536
6223,33536
6224,33600
6225,33664
6226,33664
6227,33600
6228,33600
6229,33600
6230,33600
6231,33600
6232,33664
6233,33664
6234,33664
6235,33600
6236,33664
6237,33728
6238,33792
6239,33856
6240,33856
6241,33920
6242,33792
6243,33728
6244,33664
6245,33600
6246,33536
6247,33408
6248,33280
6249,33280
6250,33280
6251,33280
6252,33280
6253,33408
6254,33536
6255,33536
6256,33536
6257,33536
6258,33600
6259,33600
6260,33600
6261,33600
6262,33664
6263,33664
6264,33664
6265,33600
6266,33536
6267,33536
6268,33728
6269,34112
6270,34880
6271,36096
6272,37312
6273,38144
6274,38080
6275,36864
6276,34816
6277,32832
6278,31488
6279,30784
6280,30592
6281,31040
6282,31552
6283,32192
6284,32832
6285,33344
6286,33728
6287,34048
6288,34112
6289,34112
6290,34176
6291,34176
6292,34112
6293,34048
6294,33984
6295,33984
6296,33920
6297,33856
6298,33792
6299,33792
6300,33792
6301,33792
6302,33728
6303,33792
6304,33792
6305,33792
6306,33792
6307,33792
6308,33920
6309,33920
6310,33984
6311,33920
6312,33920
6313,33984
6314,34048
6315,34112
6316,34176
6317,34112
6318,34112
6319,34112
6320,34176
6321,34176
6322,34176
6323,34240
6324,34240
6325,34304
6326,34304
6327,34304
6328,34304
6329,34304
6330,34304
6331,34240
6332,34176
6333,34112
6334,34112
6335,34048
6336,33984
6337,33984
6338,33920
6339,33856
6340,33728
6341,33664
6342,33600
6343,33472
6344,33408
6345,33408
6346,33472
6347,33408
6348,33344
6349,33344
6350,33344
6351,33344
6352,33344
6353,33408
6354,33472
6355,33472
6356,33408
6357,33408
6358,33472
6359,33472
6360,33472
6361,33536
6362,33600
6363,33664
6364,33600
6365,33600
6366,33664
6367,33664
6368,33664
6369,33600
6370,33600
6371,33600
6372,33600
6373,33536
6374,33600
6375,33664
6376,33664
6377,33536
6378,33536
6379,33536
6380,33600
6381,33600
6382,33600
6383,33600
6384,33536
6385,33536
6386,33536
6387,33536
6388,33536
6389,33472
6390,33408
6391,33472
6392,33536
6393,33472
6394,33472
6395,33536
6396,33536
6397,33536
6398,33472
6399,33472
6400,33536
6401,33536
6402,33472
6403,33472
6404,33536
6405,33536
6406,33536
6407,33600
6408,33600
6409,33600
6410,33536
6411,33536
6412,33600
6413,33600
6414,33536
6415,33472
6416,33472
6417,33472
6418,33536
6419,33536
6420,33536
6421,33536
6422,33472
6423,33472
6424,33536
6425,33600
6426,33600
6427,33600
6428,33600
6429,33600
6430,33536
6431,33536
6432,33536
6433,33600
6434,33664
6435,33664
6436,33664
6437,33664
6438,33728
6439,33728
6440,33664
6441,33664
6442,33664
6443,33664
6444,33728
6445,33728
6446,33856
6447,33856
6448,33792
6449,33728
6450,33664
6451,33600
6452,33536
6453,33536
6454,33536
6455,33408
6456,33344
6457,33280
6458,33344
6459,33408
6460,33408
6461,33472
6462,33536
6463,33536
6464,33536
6465,33600
6466,33664
6467,33728
6468,33664
6469,33600
6470,33600
6471,33600
6472,33536
6473,33472
6474,33600
6475,33984
6476,34752
6477,35264
6478,36544
6479,37824
6480,38528
6481,38144
6482,36544
6483,34432
6484,32448
6485,31104
6486,30464
6487,30464
6488,30912
6489,31616
6490,32320
6491,33216
6492,33472
6493,33792
6494,34048
6495,34176
6496,34304
6497,34304
6498,34240
6499,34240
6500,34176
6501,34048
6502,33920
6503,33920
6504,33856
6505,33856
6506,33792
6507,33728
6508,33728
6509,33792
6510,33792
6511,33792
6512,33856
6513,33856
6514,33856
6515,33920
6516,33984
6517,33984
6518,34048
6519,34048
6520,34048
6521,34112
6522,34112
6523,34112
6524,34112
6525,34176
6526,34176
6527,34176
6528,34240
6529,34240
6530,34304
6531,34304
6532,34304
6533,34368
6534,34368
6535,34368
6536,34368
6537,34304
6538,34304
6539,34240
6540,34176
6541,34112
6542,34048
6543,33984
6544,33920
6545,33920
6546,33856
6547,33728
6548,33664
6549,33600
6550,33536
6551,33536
6552,33472
6553,33472
6554,33536
6555,33472
6556,33408
6557,33344
6558,33344
6559,33344
6560,33344
6561,33344
6562,33408
6563,33472
6564,33536
6565,33600
6566,33664
6567,33664
6568,33600
6569,33600
6570,33536
6571,33600
6572,33600
6573,33600
6574,33600
6575,33664
6576,33664
6577,33664
6578,33728
6579,33728
6580,33664
6581,33664
6582,33664
6583,33728
6584,33728
6585,33664
6586,33664
6587,33664
6588,33664
6589,33600
6590,33536
6591,33536
6592,33536
6593,33536
6594,33536
6595,33536
6596,33600
6597,33600
6598,33600
6599,33600
6600,33600
6601,33600
6602,33536
6603,33600
6604,33664
6605,33664
6606,33664
6607,33536
6608,33536
6609,33536
6610,33536
6611,33536
6612,33600
6613,33536
6614,33536
6615,33472
6616,33472
6617,33536
6618,33536
6619,33536
6620,33600
6621,33600
6622,33600
6623,33600
6624,33600
6625,33600
6626,33600
6627,33536
6628,33536
6629,33600
6630,33600
6631,33536
6632,33536
6633,33536
6634,33536
6635,33536
6636,33536
6637,33600
6638,33664
6639,33600
6640,33536
6641,33600
6642,33536
6643,33536
6644,33536
6645,33536
6646,33536
6647,33536
6648,33536
6649,33600
6650,33600
6651,33600
6652,33536
6653,33536
6654,33536
6655,33536
6656,33536
6657,33600
6658,33664
6659,33728
6660,33728
6661,33728
6662,33792
6663,33792
6664,33728
6665,33664
6666,33664
6667,33664
6668,33664
6669,33664
6670,33728
6671,33792
6672,33792
6673,33728
6674,33664
6675,33664
6676,33664
6677,33600
6678,33536
6679,33472
6680,33408
6681,33344
6682,33280
6683,33344
6684,33344
6685,33408
6686,33408
6687,33472
6688,33536
6689,33536
6690,33600
6691,33664
6692,33664
6693,33664
6694,33600
6695,33536
6696,33600
6697,33600
6698,33536
6699,33664
6700,34048
6701,34752
6702,35840
6703,37184
6704,38464
6705,38976
6706,38144
6707,36160
6708,33792
6709,31680
6710,30400
6711,29952
6712,30208
6713,30912
6714,31744
6715,32512
6716,33152
6717,33600
6718,33920
6719,34048
6720,34112
6721,34240
6722,34240
6723,34176
6724,34176
6725,34112
6726,34048
6727,33920
6728,33792
6729,33792
6730,33792
6731,33728
6732,33728
6733,33728
6734,33792
6735,33728
6736,33728
6737,33728
6738,33856
6739,33856
6740,33856
6741,33920
6742,33984
6743,33984
6744,33984
6745,33984
6746,34048
6747,34112
6748,34112
6749,34112
6750,34176
6751,34176
6752,34240
6753,34240
6754,34304
6755,34368
6756,34368
6757,34368
6758,34432
6759,34432
6760,34432
6761,34304
6762,34304
6763,34368
6764,34304
6765,34240
6766,34240
6767,34176
6768,34112
6769,33984
6770,33920
6771,33856
6772,33856
6773,33728
6774,33600
6775,33600
6776,33536
6777,33472
6778,33408
6779,33344
6780,33408
6781,33408
6782,33344
6783,33344
6784,33344
6785,33344
6786,33344
6787,33408
6788,33472
6789,33472
6790,33472
6791,33472
6792,33536
6793,33536
6794,33536
6795,33600
6796,33664
6797,33664
6798,33600
6799,33664
6800,33600
6801,33600
6802,33600
6803,33536
6804,33664
6805,33664
6806,33664
6807,33600
6808,33600
6809,33600
6810,33536
6811,33536
6812,33536
6813,33600
6814,33600
6815,33536
6816,33536
6817,33600
6818,33600
6819,33600
6820,33600
6821,33600
6822,33536
6823,33536
6824,33472
6825,33472
6826,33536
6827,33472
6828,33472
6829,33472
6830,33472
6831,33472
6832,33472
6833,33472
6834,33472
6835,33472
6836,33472
6837,33536
6838,33536
6839,33600
6840,33600
6841,33600
6842,33536
6843,33472
6844,33472
6845,33472
6846,33472
6847,33472
6848,33472
6849,33472
6850,33536
6851,33536
6852,33472
6853,33472
6854,33408
6855,33408
6856,33408
6857,33408
6858,33472
6859,33472
6860,33536
6861,33472
6862,33536
6863,33536
6864,33536
6865,33472
6866,33536
6867,33536
6868,33536
6869,33536
6870,33536
6871,33536
6872,33536
6873,33472
6874,33472
6875,33536
6876,33536
6877,33472
6878,33472
6879,33472
6880,33536
6881,33536
6882,33536
6883,33536
6884,33536
6885,33536
6886,33536
6887,33536
6888,33600
6889,33600
6890,33600
6891,33600
6892,33664
6893,33664
6894,33600
6895,33600
6896,33664
6897,33664
6898,33664
6899,33664
6900,33664
6901,33664
6902,33536
6903,33536
6904,33600
6905,33728
6906,33728
6907,33792
6908,33856
6909,33856
6910,33792
6911,33664
6912,33600
6913,33600
6914,33536
6915,33408
6916,33344
6917,33344
6918,33344
6919,33280
6920,33280
6921,33408
6922,33472
6923,33536
6924,33600
6925,33600
6926,33600
6927,33536
6928,33536
6929,33600
6930,33600
6931,33664
6932,33600
6933,33600
6934,33600
6935,33728
6936,34112
6937,34752
6938,35840
6939,37248
6940,38464
6941,38976
6942,38208
6943,36224
6944,33728
6945,31616
6946,30400
6947,29952
6948,30208
6949,30784
6950,31680
6951,32448
6952,33088
6953,33536
6954,33856
6955,34112
6956,34240
6957,34240
6958,34240
6959,34176
6960,34048
6961,33920
6962,33856
6963,33856
6964,33856
6965,33856
6966,33792
6967,33792
6968,33792
6969,33728
6970,33728
6971,33792
6972,33792
6973,33792
6974,33792
6975,33792
6976,33856
6977,33856
6978,33856
6979,33920
6980,33984
6981,34048
6982,34048
6983,34048
6984,34112
6985,34112
6986,34176
6987,34176
6988,34304
6989,34304
6990,34304
6991,34304
6992,34304
6993,34304
6994,34304
6995,34240
6996,34304
6997,34304
6998,34240
6999,34240
7000,34240
7001,34240
7002,34176
7003,34112
7004,34048
7005,34048
7006,34048
7007,33920
7008,33792
7009,33792
7010,33728
7011,33600
7012,33536
7013,33536
7014,33472
7015,33344
7016,33344
7017,33408
7018,33408
7019,33344
7020,33344
7021,33344
7022,33408
7023,33408
7024,33408
7025,33536
7026,33600
7027,33600
7028,33600
7029,33600
7030,33664
7031,33664
7032,33600
7033,33664
7034,33728
7035,33728
7036,33664
7037,33664
7038,33728
7039,33728
7040,33600
7041,33600
7042,33600
7043,33600
7044,33600
7045,33536
7046,33600
7047,33600
7048,33600
7049,33600
7050,33600
7051,33664
7052,33664
7053,33664
7054,33664
7055,33664
7056,33664
7057,33600
7058,33600
7059,33600
7060,33600
7061,33536
7062,33472
7063,33472
7064,33472
7065,33472
7066,33472
7067,33536
7068,33600
7069,33600
7070,33600
7071,33536
7072,33536
7073,33472
7074,33472
7075,33536
7076,33536
7077,33600
7078,33600
7079,33600
7080,33600
7081,33600
7082,33536
7083,33472
7084,33536
7085,33536
7086,33536
7087,33536
7088,33536
7089,33536
7090,33536
7091,33536
7092,33536
7093,33600
7094,33600
7095,33600
7096,33600
7097,33600
7098,33600
7099,33536
7100,33536
7101,33600
7102,33600
7103,33600
7104,33600
7105,33600
7106,33600
7107,33600
7108,33600
7109,33536
7110,33536
7111,33536
7112,33536
7113,33600
7114,33664
7115,33600
7116,33536
7117,33600
7118,33600
7119,33600
7120,33600
7121,33664
7122,33728
7123,33728
7124,33728
7125,33728
7126,33792
7127,33728
7128,33728
7129,33728
7130,33728
7131,33728
7132,33728
7133,33792
7134,33920
7135,33856
7136,33792
7137,33664
7138,33664
7139,33600
7140,33536
7141,33472
7142,33408
7143,33408
7144,33344
7145,33344
7146,33408
7147,33472
7148,33472
7149,33472
7150,33472
7151,33536
7152,33600
7153,33600
7154,33664
7155,33664
7156,33664
7157,33664
7158,33600
7159,33600
7160,33600
7161,33536
7162,33664
7163,33984
7164,34624
7165,35584
7166,36928
7167,38144
7168,38528
7169,37696
7170,35776
7171,33600
7172,31872
7173,30848
7174,30464
7175,30592
7176,31168
7177,31872
7178,32576
7179,33152
7180,33600
7181,33920
7182,34112
7183,34176
7184,34240
7185,34240
7186,34176
7187,34112
7188,34112
7189,34048
7190,33984
7191,33920
7192,33920
7193,33856
7194,33792
7195,33792
7196,33792
7197,33792
7198,33856
7199,33792
7200,33856
7201,33920
7202,33856
7203,33856
7204,33856
7205,33920
7206,33984
7207,33984
7208,33984
7209,34048
7210,34112
7211,34176
7212,34176
7213,34176
7214,34176
7215,34176
7216,34176
7217,34240
7218,34304
7219,34304
7220,34304
7221,34304
7222,34304
7223,34304
7224,34240
7225,34304
7226,34368
7227,34304
7228,34240
7229,34176
7230,34112
7231,33984
7232,33920
7233,33920
7234,33856
7235,33792
7236,33728
7237,33664
7238,33664
7239,33536
7240,33472
7241,33344
7242,33344
7243,33344
7244,33344
7245,33472
7246,33472
7247,33472
7248,33408
7249,33344
7250,33344
7251,33344
7252,33344
7253,33344
7254,33408
7255,33536
7256,33536
7257,33536
7258,33600
7259,33728
7260,33792
7261,33792
7262,33728
7263,33728
7264,33664
7265,33600
7266,33600
7267,33600
7268,33600
7269,33536
7270,33536
7271,33536
7272,33600
7273,33664
7274,33664
7275,33664
7276,33664
7277,33664
7278,33600
7279,33600
7280,33600
7281,33600
7282,33536
7283,33472
7284,33472
7285,33408
7286,33344
7287,33344
7288,33408
7289,33408
7290,33408
7291,33408
7292,33472
7293,33536
7294,33536
7295,33536
7296,33600
7297,33600
7298,33600
7299,33536
7300,33472
7301,33408
7302,33408
7303,33408
7304,33408
7305,33472
7306,33472
7307,33472
7308,33536
7309,33536
7310,33600
7311,33472
7312,33472
7313,33472
7314,33408
7315,33344
7316,33408
7317,33408
7318,33472
7319,33536
7320,33536
7321,33600
7322,33664
7323,33664
7324,33536
7325,33472
7326,33536
7327,33536
7328,33472
7329,33472
7330,33472
7331,33472
7332,33472
7333,33472
7334,33536
7335,33536
7336,33536
7337,33536
7338,33600
7339,33664
7340,33600
7341,33600
7342,33600
7343,33536
7344,33536
7345,33472
7346,33472
7347,33536
7348,33536
7349,33472
7350,33472
7351,33600
7352,33664
7353,33664
7354,33664
7355,33664
7356,33728
7357,33728
7358,33792
7359,33792
7360,33856
7361,33792
7362,33728
7363,33728
7364,33728
7365,33664
7366,33664
7367,33728
7368,33728
7369,33600
7370,33472
7371,33472
7372,33472
7373,33536
7374,33472
7375,33408
7376,33408
7377,33408
7378,33408
7379,33408
7380,33472
7381,33472
7382,33472
7383,33472
7384,33536
7385,33536
7386,33536
7387,33536
7388,33600
7389,33600
7390,33536
7391,33536
7392,33536
7393,33600
7394,33728
7395,33984
7396,34560
7397,35584
7398,36864
7399,38208
7400,38976
7401,38592
7402,36864
7403,34432
7404,32000
7405,30464
7406,29824
7407,29952
7408,30592
7409,31488
7410,32320
7411,33024
7412,33536
7413,33792
7414,34048
7415,34240
7416,34240
7417,34304
7418,34304
7419,34240
7420,34048
7421,33984
7422,33920
7423,33856
7424,33792
7425,33728
7426,33792
7427,33792
7428,33728
7429,33728
7430,33728
7431,33728
7432,33792
7433,33792
7434,33856
7435,33920
7436,33920
7437,33920
7438,33920
7439,33984
7440,33984
7441,34048
7442,34112
7443,34176
7444,34240
7445,34176
7446,34112
7447,34176
7448,34176
7449,34176
7450,34240
7451,34304
7452,34368
7453,34432
7454,34496
7455,34496
7456,34432
7457,34368
7458,34304
7459,34176
7460,34048
7461,34048
7462,34048
7463,34048
7464,34048
7465,34048
7466,33984
7467,33920
7468,33856
7469,33792
7470,33664
7471,33600
7472,33472
7473,33408
7474,33344
7475,33280
7476,33280
7477,33280
7478,33216
7479,33216
7480,33280
7481,33344
7482,33408
7483,33408
7484,33472
7485,33536
7486,33536
7487,33536
7488,33600
7489,33600
7490,33536
7491,33408
7492,33472
7493,33472
7494,33408
7495,33408
7496,33472
7497,33536
7498,33536
7499,33536
7500,33664
7501,33664
7502,33664
7503,33600
7504,33600
7505,33600
7506,33600
7507,33600
7508,33600
7509,33600
7510,33536
7511,33472
7512,33408
7513,33536
7514,33472
7515,33408
7516,33408
7517,33344
7518,33408
7519,33408
7520,33472
7521,33536
7522,33536
7523,33472
7524,33472
7525,33472
7526,33472
7527,33408
7528,33536
7529,33600
7530,33664
7531,33600
7532,33536
7533,33536
7534,33472
7535,33408
7536,33344
7537,33344
7538,33344
7539,33408
7540,33408
7541,33408
7542,33408
7543,33536
7544,33536
7545,33536
7546,33536
7547,33536
7548,33472
7549,33536
7550,33600
7551,33600
7552,33472
7553,33408
7554,33408
7555,33408
7556,33472
7557,33472
7558,33536
7559,33600
7560,33600
7561,33536
7562,33472
7563,33472
7564,33408
7565,33408
7566,33408
7567,33472
7568,33536
7569,33536
7570,33536
7571,33600
7572,33536
7573,33600
7574,33600
7575,33600
7576,33600
7577,33600
7578,33536
7579,33536
7580,33536
7581,33536
7582,33472
7583,33536
7584,33600
7585,33600
7586,33600
7587,33600
7588,33536
7589,33600
7590,33664
7591,33664
7592,33664
7593,33600
7594,33536
7595,33472
7596,33536
7597,33600
7598,33664
7599,33728
7600,33792
7601,33792
7602,33728
7603,33728
7604,33728
7605,33792
7606,33920
7607,33856
7608,34048
7609,33920
7610,33728
7611,33600
7612,33600
7613,33600
7614,33472
7615,33280
7616,33216
7617,33280
7618,33344
7619,33344
7620,33408
7621,33472
7622,33536
7623,33536
7624,33600
7625,33664
7626,33664
7627,33664
7628,33664
7629,33664
7630,33664
7631,33600
7632,33536
7633,33472
7634,33536
7635,33792
7636,34240
7637,35072
7638,36288
7639,37696
7640,38784
7641,39104
7642,37952
7643,35776
7644,33280
7645,31168
7646,30080
7647,29888
7648,30272
7649,30976
7650,31872
7651,32576
7652,33216
7653,33600
7654,33920
7655,34176
7656,34304
7657,34304
7658,34240
7659,34240
7660,34176
7661,34112
7662,34048
7663,33920
7664,33792
7665,33728
7666,33664
7667,33664
7668,33728
7669,33728
7670,33792
7671,33856
7672,33856
7673,33856
7674,33792
7675,33856
7676,33920
7677,33920
7678,33920
7679,34048
7680,34112
7681,34112
7682,34048
7683,34112
7684,34176
7685,34176
7686,34112
7687,34112
7688,34176
7689,34176
7690,34176
7691,34240
7692,34304
7693,34368
7694,34432
7695,34432
7696,34432
7697,34432
7698,34368
7699,34304
7700,34240
7701,34240
7702,34176
7703,34112
7704,34048
7705,34048
7706,33920
7707,33856
7708,33792
7709,33728
7710,33664
7711,33536
7712,33408
7713,33344
7714,33344
7715,33280
7716,33216
7717,33280
7718,33280
7719,33344
7720,33344
7721,33344
7722,33408
7723,33408
7724,33408
7725,33472
7726,33472
7727,33472
7728,33472
7729,33472
7730,33536
7731,33536
7732,33472
7733,33472
7734,33536
7735,33600
7736,33600
7737,33600
7738,33600
7739,33536
7740,33536
7741,33536
7742,33600
7743,33664
7744,33600
7745,33536
7746,33536
7747,33536
7748,33536
7749,33536
7750,33536
7751,33536
7752,33536
7753,33536
7754,33536
7755,33600
7756,33536
7757,33472
7758,33472
7759,33536
7760,33536
7761,33472
7762,33408
7763,33408
7764,33408
7765,33408
7766,33408
7767,33408
7768,33408
7769,33408
7770,33408
7771,33472
7772,33536
7773,33536
7774,33536
7775,33536
7776,33536
7777,33536
7778,33536
7779,33536
7780,33536
7781,33536
7782,33536
7783,33536
7784,33600
7785,33600
7786,33472
7787,33408
7788,33472
7789,33472
7790,33408
7791,33408
7792,33408
7793,33472
7794,33408
7795,33408
7796,33408
7797,33472
7798,33472
7799,33472
7800,33536
7801,33536
7802,33536
7803,33536
7804,33600
7805,33664
7806,33600
7807,33536
7808,33536
7809,33536
7810,33472
7811,33408
7812,33472
7813,33536
7814,33536
7815,33472
7816,33408
7817,33472
7818,33472
7819,33472
7820,33472
7821,33536
7822,33600
7823,33600
7824,33600
7825,33600
7826,33664
7827,33600
7828,33600
7829,33664
7830,33728
7831,33856
7832,33792
7833,33728
7834,33664
7835,33600
7836,33536
7837,33600
7838,33664
7839,33792
7840,33792
7841,33728
7842,33664
7843,33600
7844,33536
7845,33536
7846,33536
7847,33536
7848,33472
7849,33472
7850,33472
7851,33472
7852,33472
7853,33408
7854,33408
7855,33472
7856,33472
7857,33472
7858,33536
7859,33600
7860,33664
7861,33664
7862,33664
7863,33600
7864,33600
7865,33600
7866,33536
7867,33728
7868,34112
7869,34624
7870,35584
7871,36928
7872,38080
7873,38528
7874,37760
7875,35968
7876,33728
7877,32000
7878,30848
7879,30400
7880,30528
7881,31104
7882,31744
7883,32512
7884,33152
7885,33664
7886,33920
7887,34112
7888,34240
7889,34304
7890,34240
7891,34176
7892,34176
7893,34176
7894,34048
7895,33984
7896,33984
7897,33920
7898,33792
7899,33728
7900,33728
7901,33792
7902,33792
7903,33792
7904,33856
7905,33920
7906,33920
7907,33856
7908,33856
7909,33920
7910,33984
7911,33984
7912,33984
7913,34048
7914,34048
7915,34048
7916,34048
7917,34112
7918,34176
7919,34176
7920,34176
7921,34240
7922,34304
7923,34304
7924,34304
7925,34304
7926,34368
7927,34368
7928,34304
7929,34304
7930,34368
7931,34368
7932,34240
7933,34176
7934,34112
7935,34112
7936,34048
7937,34048
7938,33984
7939,33920
7940,33856
7941,33728
7942,33664
7943,33600
7944,33536
7945,33472
7946,33472
7947,33472
7948,33408
7949,33408
7950,33408
7951,33344
7952,33344
7953,33344
7954,33344
7955,33344
7956,33408
7957,33472
7958,33472
7959,33600
7960,33600
7961,33600
7962,33536
7963,33600
7964,33600
7965,33600
7966,33664
7967,33664
7968,33728
7969,33664
7970,33664
7971,33664
7972,33664
7973,33600
7974,33536
7975,33536
7976,33600
7977,33664
7978,33664
7979,33664
7980,33664
7981,33664
7982,33536
7983,33536
7984,33536
7985,33600
7986,33600
7987,33536
7988,33600
7989,33600
7990,33664
7991,33600
7992,33536
7993,33536
7994,33536
7995,33536
7996,33536
7997,33536
7998,33472
7999,33472
8000,33472
8001,33536
8002,33536
8003,33536
8004,33536
8005,33536
8006,33600
8007,33536
8008,33536
8009,33600
8010,33600
8011,33600
8012,33536
8013,33536
8014,33536
8015,33472
8016,33472
8017,33472
8018,33536
8019,33536
8020,33536
8021,33472
8022,33536
8023,33536
8024,33536
8025,33536
8026,33600
8027,33600
8028,33600
8029,33600
8030,33664
8031,33664
8032,33600
8033,33600
8034,33664
8035,33664
8036,33664
8037,33728
8038,33728
8039,33728
8040,33728
8041,33664
8042,33664
8043,33728
8044,33856
8045,33856
8046,33856
8047,33792
8048,33664
8049,33600
8050,33536
8051,33536
8052,33472
8053,33408
8054,33408
8055,33344
8056,33344
8057,33344
8058,33344
8059,33408
8060,33472
8061,33536
8062,33536
8063,33600
8064,33600
8065,33600
8066,33600
8067,33664
8068,33728
8069,33728
8070,33600
8071,33600
8072,33664
8073,33856
8074,34240
8075,35072
8076,36288
8077,37696
8078,38528
8079,38400
8080,36992
8081,34880
8082,32704
8083,31168
8084,30400
8085,30336
8086,30656
8087,31360
8088,32192
8089,32896
8090,33408
8091,33728
8092,34048
8093,34240
8094,34304
8095,34240
8096,34112
8097,34048
8098,33984
8099,33920
8100,33920
8101,33920
8102,33920
8103,33856
8104,33856
8105,33856
8106,33856
8107,33792
8108,33792
8109,33856
8110,33856
8111,33856
8112,33856
8113,33920
8114,33984
8115,33984
8116,33920
8117,33984
8118,34048
8119,34112
8120,34112
8121,34112
8122,34176
8123,34176
8124,34176
8125,34240
8126,34304
8127,34368
8128,34368
8129,34368
8130,34432
8131,34432
8132,34432
8133,34432
8134,34496
8135,34496
8136,34432
8137,34368
8138,34304
8139,34240
8140,34112
8141,34048
8142,34048
8143,34048
8144,33984
8145,33856
8146,33792
8147,33728
8148,33600
8149,33472
8150,33408
8151,33408
8152,33344
8153,33280
8154,33216
8155,33280
8156,33280
8157,33344
8158,33344
8159,33408
8160,33408
8161,33472
8162,33408
8163,33472
8164,33536
8165,33600
8166,33600
8167,33600
8168,33664
8169,33664
8170,33664
8171,33664
8172,33664
8173,33600
8174,33600
8175,33664
8176,33664
8177,33664
8178,33600
8179,33600
8180,33600
8181,33600
8182,33536
8183,33536
8184,33536
8185,33600
8186,33664
8187,33600
8188,33600
8189,33600
8190,33600
8191,33600
8192,33600
8193,33664
8194,33664
8195,33600
8196,33536
8197,33472
8198,33536
8199,33472
8200,33472
8201,33472
8202,33472
8203,33536
8204,33536
8205,33600
8206,33600
8207,33536
8208,33472
8209,33472
8210,33472
8211,33472
8212,33472
8213,33536
8214,33600
8215,33600
8216,33536
8217,33536
8218,33536
8219,33536
8220,33536
8221,33536
8222,33536
8223,33536
8224,33472
8225,33472
8226,33536
8227,33600
8228,33600
8229,33536
8230,33536
8231,33472
8232,33472
8233,33408
8234,33472
8235,33472
8236,33536
8237,33536
8238,33600
8239,33600
8240,33600
8241,33536
8242,33536
8243,33600
8244,33600
8245,33664
8246,33664
8247,33728
8248,33728
8249,33728
8250,33664
8251,33728
8252,33728
8253,33664
8254,33664
8255,33728
8256,33728
8257,33792
8258,33856
8259,33792
8260,33792
8261,33664
8262,33600
8263,33600
8264,33600
8265,33472
8266,33408
8267,33344
8268,33344
8269,33344
8270,33344
8271,33408
8272,33472
8273,33408
8274,33408
8275,33472
8276,33536
8277,33536
8278,33536
8279,33600
8280,33664
8281,33728
8282,33728
8283,33664
8284,33536
8285,33664
8286,33920
8287,34432
8288,35392
8289,36736
8290,38144
8291,39104
8292,38912
8293,37376
8294,35072
8295,32576
8296,30784
8297,30016
8298,29952
8299,30400
8300,31168
8301,32000
8302,32704
8303,33216
8304,33600
8305,33984
8306,34240
8307,34240
8308,34240
8309,34240
8310,34112
8311,34048
8312,33984
8313,33984
8314,33920
8315,33920
8316,33920
8317,33856
8318,33856
8319,33792
8320,33728
8321,33728
8322,33728
8323,33728
8324,33728
8325,33728
8326,33728
8327,33792
8328,33792
8329,33856
8330,33984
8331,34048
8332,34112
8333,34112
8334,34240
8335,34304
8336,34304
8337,34240
8338,34304
8339,34368
8340,34432
8341,34368
8342,34368
8343,34432
8344,34432
8345,34368
8346,34368
8347,34432
8348,34432
8349,34368
8350,34304
8351,34304
8352,34240
8353,34176
8354,34176
8355,34176
8356,34176
8357,33984
8358,33856
8359,33792
8360,33664
8361,33536
8362,33472
8363,33344
8364,33280
8365,33216
8366,33152
8367,33152
8368,33216
8369,33216
8370,33216
8371,33280
8372,33280
8373,33344
8374,33408
8375,33408
8376,33536
8377,33664
8378,33664
8379,33600
8380,33600
8381,33600
8382,33600
8383,33600
8384,33664
8385,33664
8386,33600
8387,33536
8388,33472
8389,33472
8390,33472
8391,33472
8392,33472
8393,33472
8394,33472
8395,33472
8396,33472
8397,33600
8398,33664
8399,33664
8400,33664
8401,33600
8402,33536
8403,33472
8404,33408
8405,33472
8406,33600
8407,33600
8408,33600
8409,33600
8410,33536
8411,33536
8412,33472
8413,33472
8414,33472
8415,33536
8416,33536
8417,33536
8418,33536
8419,33536
8420,33408
8421,33344
8422,33408
8423,33408
8424,33408
8425,33408
8426,33472
8427,33408
8428,33408
8429,33344
8430,33408
8431,33536
8432,33536
8433,33536
8434,33472
8435,33472
8436,33472
8437,33408
8438,33408
8439,33408
8440,33408
8441,33408
8442,33408
8443,33472
8444,33472
8445,33472
8446,33536
8447,33536
8448,33536
8449,33472
8450,33472
8451,33472
8452,33536
8453,33472
8454,33472
8455,33472
8456,33472
8457,33472
8458,33472
8459,33536
8460,33536
8461,33536
8462,33536
8463,33600
8464,33728
8465,33728
8466,33664
8467,33664
8468,33664
8469,33664
8470,33600
8471,33600
8472,33600
8473,33664
8474,33664
8475,33728
8476,33792
8477,33728
8478,33600
8479,33536
8480,33536
8481,33472
8482,33408
8483,33344
8484,33344
8485,33344
8486,33408
8487,33344
8488,33408
8489,33536
8490,33536
8491,33472
8492,33536
8493,33600
8494,33600
8495,33536
8496,33536
8497,33536
8498,33472
8499,33408
8500,33344
8501,33472
8502,33728
8503,34176
8504,34944
8505,36160
8506,37568
8507,38592
8508,38784
8509,37632
8510,35520
8511,33152
8512,31232
8513,30272
8514,30080
8515,30400
8516,31360
8517,31808
8518,32512
8519,33024
8520,33344
8521,33664
8522,33984
8523,34176
8524,34240
8525,34304
8526,34304
8527,34240
8528,34112
8529,33984
8530,33856
8531,33856
8532,33728
8533,33664
8534,33728
8535,33728
8536,33792
8537,33728
8538,33664
8539,33728
8540,33728
8541,33728
8542,33728
8543,33792
8544,33856
8545,33856
8546,33920
8547,33984
8548,34048
8549,33984
8550,33984
8551,34048
8552,34112
8553,34112
8554,34112
8555,34176
8556,34240
8557,34240
8558,34240
8559,34304
8560,34432
8561,34432
8562,34368
8563,34368
8564,34304
8565,34304
8566,34304
8567,34240
8568,34240
8569,34176
8570,34048
8571,34048
8572,34048
8573,33984
8574,33920
8575,33792
8576,33664
8577,33536
8578,33408
8579,33280
8580,33280
8581,33280
8582,33280
8583,33216
8584,33280
8585,33344
8586,33344
8587,33344
8588,33280
8589,33344
8590,33408
8591,33408
8592,33408
8593,33472
8594,33536
8595,33472
8596,33472
8597,33472
8598,33472
8599,33536
8600,33536
8601,33536
8602,33600
8603,33600
8604,33600
8605,33600
8606,33664
8607,33664
8608,33536
8609,33536
8610,33536
8611,33536
8612,33408
8613,33408
8614,33472
8615,33600
8616,33600
8617,33600
8618,33600
8619,33600
8620,33536
8621,33536
8622,33536
8623,33536
8624,33472
8625,33472
8626,33536
8627,33536
8628,33536
8629,33472
8630,33472
8631,33472
8632,33472
8633,33408
8634,33408
8635,33472
8636,33472
8637,33472
8638,33408
8639,33408
8640,33344
8641,33280
8642,33344
8643,33472
8644,33472
8645,33536
8646,33536
8647,33600
8648,33600
8649,33600
8650,33472
8651,33472
8652,33408
8653,33344
8654,33344
8655,33472
8656,33536
8657,33536
8658,33472
8659,33408
8660,33472
8661,33472
8662,33536
8663,33600
8664,33728
8665,33856
8666,33792
8667,33664
8668,33600
8669,33600
8670,33600
8671,33600
8672,33600
8673,33664
8674,33664
8675,33600
8676,33600
8677,33664
8678,33600
8679,33536
8680,33472
8681,33408
8682,33344
8683,33280
8684,33280
8685,33344
8686,33408
8687,33472
8688,33536
8689,33536
8690,33408
8691,33344
8692,33344
8693,33344
8694,33344
8695,33280
8696,33280
8697,33408
8698,33472
8699,33472
8700,33536
8701,33856
8702,34304
8703,35008
8704,36160
8705,37376
8706,38144
8707,37824
8708,36224
8709,34240
8710,32448
8711,31296
8712,30784
8713,30720
8714,31040
8715,31680
8716,32384
8717,32960
8718,33408
8719,33728
8720,33856
8721,33856
8722,33920
8723,33920
8724,33856
8725,33856
8726,34048
8727,34112
8728,33984
8729,33792
8730,33792
8731,33792
8732,33664
8733,33536
8734,33536
8735,33600
8736,33664
8737,33728
8738,33664
8739,33600
8740,33792
8741,34048
8742,33984
8743,33728
8744,33920
8745,34368
8746,34496
8747,34432
8748,34368
8749,33984
8750,33728
8751,33792
8752,33728
8753,33344
8754,33152
8755,33280
8756,33600
8757,33728
8758,33792
8759,33856
8760,33984
8761,34112
8762,34240
8763,34368
8764,34432
8765,34496
8766,34368
8767,34112
8768,33856
8769,33792
8770,33920
8771,34688
8772,35968
8773,36480
8774,35200
8775,33152
8776,31936
8777,31488
8778,31680
8779,32256
8780,32704
8781,32640
8782,32768
8783,33280
8784,34176
8785,34944
8786,34496
8787,33536
8788,32832
8789,32576
8790,32512
8791,32768
8792,33344
8793,34496
8794,35392
8795,35072
8796,35008
8797,35008
8798,34304
8799,34176
8800,34688
8801,33728
8802,33024
8803,32896
8804,31744
8805,30656
8806,30208
8807,30464
8808,31232
8809,32192
8810,33088
8811,33728
8812,34112
8813,34560
8814,34944
8815,34944
8816,35200
8817,35264
8818,34944
8819,33920
8820,33664
8821,33344
8822,32320
8823,31488
8824,30976
8825,30656
8826,30848
8827,31488
8828,32640
8829,33856
8830,33792
8831,33408
8832,33344
8833,33280
8834,33344
8835,33600
8836,34496
8837,35648
8838,35904
8839,34624
8840,32960
8841,32640
8842,32576
8843,31680
8844,31552
8845,31680
8846,31616
8847,31936
8848,32448
8849,32704
8850,32832
8851,33152
8852,33472
8853,33920
8854,34496
8855,34688
8856,34752
8857,34432
8858,33920
8859,34816
8860,36096
8861,35712
8862,33408
8863,31360
8864,30528
8865,30848
8866,32192
8867,32960
8868,32640
8869,32448
8870,32448
8871,32576
8872,32896
8873,33216
8874,33472
8875,33600
8876,33856
8877,34112
8878,33984
8879,33664
8880,33408
8881,33344
8882,33280
8883,33152
8884,33344
8885,33792
8886,33984
8887,33728
8888,33472
8889,33728
8890,34496
8891,35072
8892,35648
8893,36672
8894,38144
8895,39488
8896,38592
8897,36160
8898,34112
8899,33216
8900,30848
8901,28928
8902,28416
8903,28992
8904,30144
8905,31552
8906,32896
8907,33984
8908,34688
8909,35072
8910,35264
8911,35264
8912,35072
8913,34816
8914,34560
8915,34304
8916,33984
8917,33664
8918,33408
8919,33216
8920,33024
8921,32832
8922,32768
8923,32832
8924,33024
8925,33216
8926,33472
8927,33664
8928,33856
8929,33920
8930,33984
8931,34048
8932,34112
8933,34176
8934,34240
8935,34432
8936,34432
8937,34304
8938,34112
8939,34112
8940,34112
8941,34176
8942,34304
8943,34432
8944,34496
8945,34496
8946,34688
8947,35008
8948,35008
8949,34752
8950,34560
8951,34560
8952,34560
8953,34560
8954,34880
8955,34688
8956,34304
8957,34176
8958,34048
8959,33664
8960,33472
8961,33472
8962,33472
8963,33600
8964,33792
8965,33920
8966,33984
8967,33984
8968,33984
8969,33984
8970,33920
8971,33856
8972,33792
8973,33792
8974,33728
8975,33664
8976,33728
8977,33856
8978,33984
8979,33984
8980,33984
8981,34048
8982,34624
8983,34880
8984,34112
8985,33536
8986,33280
8987,33280
8988,33408
8989,33600
8990,33792
8991,33920
8992,34048
8993,34112
8994,34176
8995,34112
8996,34048
8997,33984
8998,33920
8999,33856
9000,33728
9001,33728
9002,33728
9003,33792
9004,33792
9005,33792
9006,33792
9007,33792
9008,33728
9009,33792
9010,33856
9011,33792
9012,33792
9013,33792
9014,33792
9015,33728
9016,33728
9017,33728
9018,33728
9019,33664
9020,33536
9021,33472
9022,33600
9023,33728
9024,33728
9025,33600
9026,33536
9027,33792
9028,34048
9029,33920
9030,33664
9031,33664
9032,33728
9033,33728
9034,33664
9035,33600
9036,33536
9037,33600
9038,33664
9039,33728
9040,33856
9041,33984
9042,33984
9043,33984
9044,33920
9045,33856
9046,33792
9047,33792
9048,33856
9049,33984
9050,34112
9051,34176
9052,34176
9053,33984
9054,33792
9055,33728
9056,33728
9057,33856
9058,33728
9059,33536
9060,33408
9061,33344
9062,33344
9063,33344
9064,33408
9065,33600
9066,33664
9067,33728
9068,33792
9069,33920
9070,33920
9071,33856
9072,33792
9073,33856
9074,33856
9075,33792
9076,33728
9077,33920
9078,34368
9079,35008
9080,35904
9081,37056
9082,38272
9083,38720
9084,38016
9085,36352
9086,34048
9087,32000
9088,30784
9089,30272
9090,30336
9091,30848
9092,31680
9093,32384
9094,33088
9095,33536
9096,33856
9097,34176
9098,34240
9099,34304
9100,34368
9101,34432
9102,34624
9103,34560
9104,34176
9105,33856
9106,33792
9107,33792
9108,33728
9109,33600
9110,33600
9111,33664
9112,33664
9113,33664
9114,33792
9115,33920
9116,33920
9117,33920
9118,34048
9119,34112
9120,34112
9121,34048
9122,33984
9123,33984
9124,33984
9125,34048
9126,34112
9127,34176
9128,34304
9129,34368
9130,34176
9131,34176
9132,34304
9133,34304
9134,34304
9135,34304
9136,34368
9137,34496
9138,34560
9139,34560
9140,34624
9141,34560
9142,34304
9143,34048
9144,34048
9145,34048
9146,33920
9147,33792
9148,33728
9149,33664
9150,33600
9151,33600
9152,33472
9153,33408
9154,33344
9155,33344
9156,33344
9157,33344
9158,33344
9159,33280
9160,33344
9161,33408
9162,33280
9163,33088
9164,33088
9165,33344
9166,33408
9167,33216
9168,33152
9169,33216
9170,33280
9171,33408
9172,33472
9173,33600
9174,33664
9175,33664
9176,33728
9177,33664
9178,33536
9179,33472
9180,33408
9181,33536
9182,33664
9183,33664
9184,33600
9185,33536
9186,33536
9187,33472
9188,33472
9189,33472
9190,33536
9191,33600
9192,33600
9193,33472
9194,33344
9195,33280
9196,33216
9197,33280
9198,33344
9199,33472
9200,33472
9201,33472
9202,33536
9203,33472
9204,33408
9205,33408
9206,33472
9207,33472
9208,33408
9209,33472
9210,33536
9211,33536
9212,33472
9213,33408
9214,33280
9215,33280
9216,33280
9217,33280
9218,33280
9219,33280
9220,33280
9221,33344
9222,33408
9223,33472
9224,33472
9225,33408
9226,33408
9227,33472
9228,33536
9229,33536
9230,33536
9231,33600
9232,33600
9233,33600
9234,33728
9235,33664
9236,33600
9237,33536
9238,33408
9239,33472
9240,33472
9241,33472
9242,33408
9243,33408
9244,33472
9245,33408
9246,33472
9247,33536
9248,33664
9249,33856
9250,33856
9251,33792
9252,33664
9253,33600
9254,33472
9255,33408
9256,33408
9257,33280
9258,33088
9259,33088
9260,33152
9261,33216
9262,33216
9263,33280
9264,33280
9265,33344
9266,33408
9267,33600
9268,33600
9269,33600
9270,33536
9271,33472
9272,33536
9273,33536
9274,33408
9275,33344
9276,33344
9277,33664
9278,34112
9279,34880
9280,36096
9281,37440
9282,38592
9283,38976
9284,38080
9285,36096
9286,33728
9287,31680
9288,30272
9289,29696
9290,29952
9291,30656
9292,31360
9293,32064
9294,32704
9295,33280
9296,33600
9297,33920
9298,34176
9299,34304
9300,34176
9301,34048
9302,34112
9303,34112
9304,34048
9305,33984
9306,33856
9307,33728
9308,33664
9309,33536
9310,33472
9311,33536
9312,33600
9313,33664
9314,33664
9315,33728
9316,33792
9317,33856
9318,33856
9319,33920
9320,33920
9321,33920
9322,33920
9323,33920
9324,33856
9325,33920
9326,34048
9327,33984
9328,34176
9329,34240
9330,34176
9331,34112
9332,34112
9333,34176
9334,34368
9335,34432
9336,34304
9337,34240
9338,34240
9339,34240
9340,34304
9341,34304
9342,34304
9343,34304
9344,34176
9345,34048
9346,33920
9347,33920
9348,33920
9349,33856
9350,33664
9351,33472
9352,33408
9353,33344
9354,33152
9355,32960
9356,32960
9357,32896
9358,33024
9359,33088
9360,33216
9361,33280
9362,33408
9363,33472
9364,33472
9365,33472
9366,33600
9367,33664
9368,33664
9369,33600
9370,33472
9371,33536
9372,33472
9373,33408
9374,33280
9375,33280
9376,33280
9377,33344
9378,33408
9379,33408
9380,33472
9381,33600
9382,33664
9383,33728
9384,33664
9385,33600
9386,33664
9387,33664
9388,33600
9389,33472
9390,33472
9391,33472
9392,33536
9393,33600
9394,33600
9395,33536
9396,33536
9397,33536
9398,33408
9399,33344
9400,33344
9401,33408
9402,33472
9403,33408
9404,33408
9405,33536
9406,33664
9407,33536
9408,33408
9409,33344
9410,33408
9411,33408
9412,33408
9413,33472
9414,33536
9415,33472
9416,33472
9417,33408
9418,33344
9419,33408
9420,33472
9421,33536
9422,33536
9423,33536
9424,33472
9425,33472
9426,33536
9427,33600
9428,33472
9429,33344
9430,33344
9431,33344
9432,33344
9433,33408
9434,33472
9435,33600
9436,33472
9437,33408
9438,33408
9439,33408
9440,33472
9441,33536
9442,33600
9443,33600
9444,33600
9445,33536
9446,33600
9447,33728
9448,33856
9449,33728
9450,33600
9451,33536
9452,33344
9453,33152
9454,33088
9455,33088
9456,33280
9457,33408
9458,33472
9459,33600
9460,33664
9461,33664
9462,33600
9463,33536
9464,33600
9465,33664
9466,33600
9467,33664
9468,33664
9469,33728
9470,33664
9471,33536
9472,33472
9473,33472
9474,33408
9475,33472
9476,33600
9477,33600
9478,33536
9479,33472
9480,33472
9481,33536
9482,33536
9483,33536
9484,33536
9485,33600
9486,33664
9487,33664
9488,33664
9489,33728
9490,33856
9491,33856
9492,33664
9493,33664
9494,33664
9495,33664
9496,33600
9497,33664
9498,33856
9499,33856
9500,33664
9501,33536
9502,33472
9503,33472
9504,33408
9505,33408
9506,33472
9507,33536
9508,33472
9509,33408
9510,33472
9511,33600
9512,33536
9513,33408
9514,33408
9515,33472
9516,33600
9517,33600
9518,33600
9519,33600
9520,33664
9521,33664
9522,33600
9523,33536
9524,33536
9525,33600
9526,33600
9527,33728
9528,33984
9529,34432
9530,35328
9531,36544
9532,37888
9533,38784
9534,38848
9535,37568
9536,35200
9537,32896
9538,31104
9539,30208
9540,30016
9541,30336
9542,30976
9543,31808
9544,32576
9545,33216
9546,33728
9547,34112
9548,34240
9549,34304
9550,34368
9551,34368
9552,34304
9553,34304
9554,34176
9555,33920
9556,33792
9557,33792
9558,33728
9559,33664
9560,33664
9561,33664
9562,33664
9563,33728
9564,33856
9565,33920
9566,33984
9567,33984
9568,34112
9569,34176
9570,34048
9571,34048
9572,34048
9573,33920
9574,33728
9575,33728
9576,33792
9577,33920
9578,34048
9579,34176
9580,34240
9581,34304
9582,34304
9583,34240
9584,34240
9585,34368
9586,34560
9587,34560
9588,34432
9589,34368
9590,34304
9591,34304
9592,34240
9593,34112
9594,34112
9595,34048
9596,34048
9597,34048
9598,34048
9599,34048
9600,34048
9601,33984
9602,33856
9603,33600
9604,33472
9605,33408
9606,33472
9607,33600
9608,33600
9609,33408
9610,33280
9611,33280
9612,33216
9613,33216
9614,33280
9615,33344
9616,33280
9617,33344
9618,33408
9619,33472
9620,33472
9621,33536
9622,33600
9623,33728
9624,33664
9625,33600
9626,33664
9627,33664
9628,33664
9629,33600
9630,33536
9631,33536
9632,33536
9633,33536
9634,33600
9635,33664
9636,33664
9637,33664
9638,33664
9639,33664
9640,33600
9641,33536
9642,33536
9643,33600
9644,33664
9645,33664
9646,33600
9647,33600
9648,33600
9649,33600
9650,33536
9651,33600
9652,33664
9653,33472
9654,33472
9655,33472
9656,33472
9657,33472
9658,33408
9659,33408
9660,33536
9661,33600
9662,33664
9663,33600
9664,33600
9665,33600
9666,33536
9667,33600
9668,33664
9669,33664
9670,33600
9671,33600
9672,33600
9673,33600
9674,33536
9675,33408
9676,33408
9677,33408
9678,33472
9679,33536
9680,33536
9681,33536
9682,33472
9683,33472
9684,33600
9685,33664
9686,33600
9687,33600
9688,33536
9689,33600
9690,33728
9691,33728
9692,33600
9693,33472
9694,33536
9695,33664
9696,33664
9697,33600
9698,33472
9699,33408
9700,33408
9701,33472
9702,33664
9703,33728
9704,33792
9705,33856
9706,33856
9707,33728
9708,33664
9709,33664
9710,33856
9711,34048
9712,34112
9713,33920
9714,33728
9715,33664
9716,33600
9717,33536
9718,33536
9719,33536
9720,33472
9721,33344
9722,33344
9723,33344
9724,33408
9725,33408
9726,33408
9727,33472
9728,33536
9729,33600
9730,33664
9731,33664
9732,33664
9733,33664
9734,33664
9735,33728
9736,33728
9737,33600
9738,33536
9739,33600
9740,33664
9741,33728
9742,34112
9743,35008
9744,36416
9745,37888
9746,38656
9747,38400
9748,36992
9749,34816
9750,32640
9751,31168
9752,30336
9753,30208
9754,30592
9755,31296
9756,32128
9757,32960
9758,33536
9759,33920
9760,34112
9761,34240
9762,34240
9763,34176
9764,34176
9765,34112
9766,34048
9767,34048
9768,33984
9769,33856
9770,33792
9771,33728
9772,33728
9773,33792
9774,33792
9775,33792
9776,33792
9777,33728
9778,33792
9779,33856
9780,33984
9781,34112
9782,34048
9783,33984
9784,33920
9785,33856
9786,33856
9787,33856
9788,33984
9789,34112
9790,34176
9791,34176
9792,34176
9793,34240
9794,34304
9795,34304
9796,34240
9797,34304
9798,34496
9799,34624
9800,34496
9801,34304
9802,34368
9803,34432
9804,34304
9805,34176
9806,34112
9807,34112
9808,34112
9809,34112
9810,34112
9811,34112
9812,33984
9813,33920
9814,33792
9815,33664
9816,33600
9817,33536
9818,33536
9819,33408
9820,33344
9821,33472
9822,33600
9823,33408
9824,33216
9825,33152
9826,33216
9827,33280
9828,33280
9829,33280
9830,33344
9831,33536
9832,33600
9833,33600
9834,33728
9835,33728
9836,33600
9837,33600
9838,33600
9839,33664
9840,33728
9841,33664
9842,33664
9843,33664
9844,33664
9845,33600
9846,33536
9847,33536
9848,33536
9849,33536
9850,33600
9851,33728
9852,33728
9853,33728
9854,33728
9855,33664
9856,33600
9857,33536
9858,33472
9859,33536
9860,33600
9861,33664
9862,33664
9863,33600
9864,33600
9865,33664
9866,33728
9867,33600
9868,33408
9869,33408
9870,33536
9871,33472
9872,33408
9873,33344
9874,33344
9875,33408
9876,33472
9877,33600
9878,33664
9879,33664
9880,33600
9881,33600
9882,33600
9883,33536
9884,33600
9885,33536
9886,33472
9887,33344
9888,33344
9889,33408
9890,33408
9891,33408
9892,33472
9893,33536
9894,33600
9895,33600
9896,33600
9897,33600
9898,33664
9899,33728
9900,33728
9901,33728
9902,33728
9903,33664
9904,33536
9905,33408
9906,33344
9907,33344
9908,33344
9909,33408
9910,33472
9911,33536
9912,33536
9913,33536
9914,33600
9915,33664
9916,33664
9917,33600
9918,33600
9919,33536
9920,33600
9921,33600
9922,33536
9923,33472
9924,33472
9925,33536
9926,33536
9927,33664
9928,33664
9929,33728
9930,33792
9931,33856
9932,33792
9933,33664
9934,33600
9935,33600
9936,33600
9937,33536
9938,33600
9939,33664
9940,33856
9941,33920
9942,33856
9943,33856
9944,33792
9945,33600
9946,33472
9947,33408
9948,33408
9949,33344
9950,33344
9951,33408
9952,33472
9953,33408
9954,33472
9955,33344
9956,33344
9957,33408
9958,33472
9959,33600
9960,33664
9961,33664
9962,33536
9963,33536
9964,33536
9965,33536
9966,33472
9967,33536
9968,33728
9969,34176
9970,34816
9971,35776
9972,37120
9973,38400
9974,39040
9975,38464
9976,36544
9977,34240
9978,32000
9979,30592
9980,29952
9981,30080
9982,30656
9983,31360
9984,32128
9985,32832
9986,33344
9987,33664
9988,33984
9989,34240
9990,34304
9991,34240
9992,34112
9993,34112
9994,34048
9995,33984
9996,33920
9997,33920
9998,33984
9999,33920
10000,33984
10001,34048
10002,33792
10003,33536
10004,33472
10005,33472
10006,33536
10007,33664
10008,33728
10009,33792
10010,33920
10011,33984
10012,34048
10013,34112
10014,34112
10015,34176
10016,34112
10017,34176
10018,34240
10019,34368
10020,34368
10021,34240
10022,34112
10023,34176
10024,34304
10025,34240
10026,34240
10027,34368
10028,34432
10029,34368
10030,34368
10031,34368
10032,34368
10033,34368
10034,34304
10035,34304
10036,34240
10037,34176
10038,34112
10039,33984
10040,33984
10041,33856
10042,33792
10043,33728
10044,33728
10045,33600
10046,33344
10047,33216
10048,33152
10049,33216
10050,33280
10051,33216
10052,33216
10053,33216
10054,33216
10055,33280
10056,33408
10057,33472
10058,33472
10059,33536
10060,33664
10061,33600
10062,33472
10063,33408
10064,33408
10065,33536
10066,33664
10067,33600
10068,33600
10069,33536
10070,33600
10071,33664
10072,33600
10073,33536
10074,33536
10075,33472
10076,33408
10077,33408
10078,33408
10079,33472
10080,33536
10081,33728
10082,33792
10083,33856
10084,33792
10085,33664
10086,33472
10087,33408
10088,33408
10089,33344
10090,33344
10091,33344
10092,33408
10093,33472
10094,33472
10095,33472
10096,33536
10097,33600
10098,33664
10099,33664
10100,33600
10101,33472
10102,33408
10103,33408
10104,33536
10105,33600
10106,33408
10107,33344
10108,33408
10109,33408
10110,33408
10111,33472
10112,33472
10113,33408
10114,33408
10115,33472
10116,33472
10117,33408
10118,33472
10119,33536
10120,33472
10121,33472
10122,33600
10123,33664
10124,33536
10125,33408
10126,33344
10127,33408
10128,33472
10129,33472
10130,33472
10131,33472
10132,33472
10133,33472
10134,33408
10135,33408
10136,33472
10137,33472
10138,33472
10139,33536
10140,33600
10141,33600
10142,33600
10143,33664
10144,33664
10145,33536
10146,33408
10147,33344
10148,33408
10149,33472
10150,33536
10151,33600
10152,33536
10153,33536
10154,33472
10155,33472
10156,33536
10157,33600
10158,33536
10159,33536
10160,33600
10161,33536
10162,33472
10163,33472
10164,33472
10165,33536
10166,33600
10167,33600
10168,33600
10169,33600
10170,33536
10171,33472
10172,33472
10173,33536
10174,33600
10175,33664
10176,33600
10177,33600
10178,33600
10179,33600
10180,33728
10181,33792
10182,33792
10183,33728
10184,33664
10185,33664
10186,33728
10187,33728
10188,33664
10189,33728
10190,33856
10191,33856
10192,33792
10193,33664
10194,33664
10195,33600
10196,33536
10197,33408
10198,33344
10199,33344
10200,33280
10201,33280
10202,33408
10203,33472
10204,33536
10205,33664
10206,33664
10207,33664
10208,33600
10209,33536
10210,33536
10211,33664
10212,33664
10213,33664
10214,33664
10215,33600
10216,33536
10217,33664
10218,33984
10219,34368
10220,35136
10221,36288
10222,37632
10223,38720
10224,38720
10225,37248
10226,35072
10227,32768
10228,31168
10229,30336
10230,30208
10231,30592
10232,31296
10233,32064
10234,32768
10235,33344
10236,33792
10237,34048
10238,34112
10239,34112
10240,34112
10241,34112
10242,34048
10243,34112
10244,34112
10245,33984
10246,33920
10247,33856
10248,33792
10249,33728
10250,33728
10251,33728
10252,33792
10253,33920
10254,33920
10255,33792
10256,33792
10257,33792
10258,33856
10259,33792
10260,33856
10261,33984
10262,33920
10263,33920
10264,33920
10265,33984
10266,34048
10267,34112
10268,34112
10269,34176
10270,34304
10271,34304
10272,34304
10273,34240
10274,34176
10275,34240
10276,34304
10277,34304
10278,34368
10279,34368
10280,34368
10281,34368
10282,34368
10283,34240
10284,34176
10285,34176
10286,34176
10287,34048
10288,33920
10289,33920
10290,33920
10291,33984
10292,33856
10293,33728
10294,33600
10295,33472
10296,33408
10297,33344
10298,33344
10299,33344
10300,33344
10301,33408
10302,33472
10303,33536
10304,33408
10305,33344
10306,33408
10307,33472
10308,33472
10309,33472
10310,33472
10311,33536
10312,33600
10313,33600
10314,33600
10315,33600
10316,33536
10317,33472
10318,33536
10319,33600
10320,33664
10321,33600
10322,33600
10323,33664
10324,33600
10325,33472
10326,33472
10327,33536
10328,33600
10329,33600
10330,33728
10331,33792
10332,33728
10333,33600
10334,33600
10335,33664
10336,33664
10337,33600
10338,33536
10339,33536
10340,33536
10341,33600
10342,33536
10343,33536
10344,33536
10345,33600
10346,33536
10347,33536
10348,33600
10349,33600
10350,33600
10351,33536
10352,33536
10353,33536
10354,33472
10355,33536
10356,33536
10357,33600
10358,33536
10359,33536
10360,33600
10361,33664
10362,33600
10363,33536
10364,33408
10365,33472
10366,33472
10367,33472
10368,33472
10369,33472
10370,33536
10371,33536
10372,33472
10373,33472
10374,33536
10375,33536
10376,33600
10377,33600
10378,33664
10379,33664
10380,33600
10381,33600
10382,33600
10383,33664
10384,33600
10385,33536
10386,33536
10387,33536
10388,33472
10389,33344
10390,33408
10391,33408
10392,33472
10393,33536
10394,33600
10395,33728
10396,33728
10397,33664
10398,33792
10399,33856
10400,33792
10401,33728
10402,33728
10403,33664
10404,33536
10405,33472
10406,33600
10407,33728
10408,33792
10409,33856
10410,33856
10411,33856
10412,33792
10413,33664
10414,33600
10415,33600
10416,33664
10417,33664
10418,33408
10419,33280
10420,33280
10421,33280
10422,33344
10423,33408
10424,33408
10425,33408
10426,33472
10427,33600
10428,33728
10429,33728
10430,33664
10431,33600
10432,33600
10433,33536
10434,33536
10435,33600
10436,33728
10437,33856
10438,34176
10439,34816
10440,35904
10441,37184
10442,38080
10443,38400
10444,37568
10445,35712
10446,33536
10447,31680
10448,30656
10449,30336
10450,30464
10451,31424
10452,31936
10453,32768
10454,33344
10455,33728
10456,34048
10457,34240
10458,34432
10459,34304
10460,34176
10461,34112
10462,34112
10463,34048
10464,33920
10465,33856
10466,33792
10467,33728
10468,33792
10469,33856
10470,33856
10471,33792
10472,33792
10473,33920
10474,33984
10475,33984
10476,33984
10477,33920
10478,33920
10479,33920
10480,33920
10481,33984
10482,33984
10483,33984
10484,34048
10485,34048
10486,34048
10487,34112
10488,34112
10489,34112
10490,34176
10491,34240
10492,34304
10493,34368
10494,34368
10495,34432
10496,34432
10497,34432
10498,34432
10499,34432
10500,34368
10501,34432
10502,34496
10503,34368
10504,34176
10505,34048
10506,33984
10507,33984
10508,33920
10509,33792
10510,33728
10511,33792
10512,33728
10513,33664
10514,33600
10515,33536
10516,33536
10517,33408
10518,33344
10519,33280
10520,33280
10521,33280
10522,33344
10523,33408
10524,33472
10525,33408
10526,33408
10527,33408
10528,33472
10529,33536
10530,33600
10531,33664
10532,33664
10533,33664
10534,33600
10535,33472
10536,33472
10537,33536
10538,33536
10539,33600
10540,33664
10541,33792
10542,33728
10543,33600
10544,33600
10545,33664
10546,33664
10547,33600
10548,33600
10549,33600
10550,33600
10551,33600
10552,33600
10553,33600
10554,33600
10555,33536
10556,33600
10557,33600
10558,33600
10559,33472
10560,33408
10561,33472
10562,33472
10563,33536
10564,33600
10565,33600
10566,33600
10567,33536
10568,33472
10569,33536
10570,33600
10571,33472
10572,33408
10573,33408
10574,33472
10575,33472
10576,33536
10577,33664
10578,33728
10579,33664
10580,33536
10581,33472
10582,33536
10583,33536
10584,33472
10585,33536
10586,33600
10587,33600
10588,33600
10589,33536
10590,33600
10591,33600
10592,33536
10593,33536
10594,33600
10595,33728
10596,33664
10597,33536
10598,33536
10599,33472
10600,33408
10601,33408
10602,33472
10603,33536
10604,33600
10605,33600
10606,33600
10607,33600
10608,33600
10609,33536
10610,33472
10611,33536
10612,33600
10613,33664
10614,33792
10615,33728
10616,33536
10617,33472
10618,33472
10619,33536
10620,33600
10621,33664
10622,33728
10623,33792
10624,33792
10625,33728
10626,33600
10627,33664
10628,33728
10629,33728
10630,33728
10631,33856
10632,33984
10633,34048
10634,33920
10635,33792
10636,33664
10637,33600
10638,33536
10639,33472
10640,33408
10641,33408
10642,33408
10643,33408
10644,33408
10645,33408
10646,33408
10647,33408
10648,33536
10649,33664
10650,33664
10651,33728
10652,33792
10653,33792
10654,33728
10655,33664
10656,33664
10657,33664
10658,33536
10659,33536
10660,33856
10661,34432
10662,35328
10663,36544
10664,37888
10665,38848
10666,38592
10667,37056
10668,34752
10669,32512
10670,30976
10671,30144
10672,30144
10673,30656
10674,31488
10675,32256
10676,32960
10677,33536
10678,33920
10679,34176
10680,34240
10681,34240
10682,34240
10683,34176
10684,34112
10685,34048
10686,34048
10687,33984
10688,33920
10689,33920
10690,33856
10691,33728
10692,33664
10693,33664
10694,33792
10695,33920
10696,33920
10697,33856
10698,33856
10699,33856
10700,33920
10701,33984
10702,34048
10703,34048
10704,33984
10705,33920
10706,33920
10707,34048
10708,34048
10709,34048
10710,34112
10711,34304
10712,34368
10713,34304
10714,34240
10715,34176
10716,34240
10717,34240
10718,34304
10719,34368
10720,34432
10721,34368
10722,34304
10723,34304
10724,34432
10725,34432
10726,34304
10727,34176
10728,34112
10729,34048
10730,33984
10731,33856
10732,33856
10733,33792
10734,33664
10735,33600
10736,33600
10737,33536
10738,33408
10739,33280
10740,33280
10741,33280
10742,33280
10743,33280
10744,33344
10745,33408
10746,33408
10747,33408
10748,33472
10749,33472
10750,33408
10751,33344
10752,33344
10753,33472
10754,33472
10755,33472
10756,33600
10757,33728
10758,33728
10759,33728
10760,33728
10761,33792
10762,33792
10763,33728
10764,33664
10765,33600
10766,33600
10767,33600
10768,33600
10769,33536
10770,33600
10771,33536
10772,33536
10773,33600
10774,33664
10775,33664
10776,33536
10777,33472
10778,33536
10779,33536
10780,33536
10781,33536
10782,33536
10783,33536
10784,33536
10785,33536
10786,33600
10787,33600
10788,33600
10789,33472
10790,33472
10791,33536
10792,33472
10793,33472
10794,33472
10795,33536
10796,33600
10797,33600
10798,33600
10799,33600
10800,33600
10801,33472
10802,33472
10803,33472
10804,33472
10805,33408
10806,33408
10807,33472
10808,33472
10809,33472
10810,33536
10811,33600
10812,33728
10813,33664
10814,33536
10815,33536
10816,33536
10817,33536
10818,33536
10819,33536
10820,33536
10821,33472
10822,33408
10823,33472
10824,33536
10825,33600
10826,33536
10827,33472
10828,33536
10829,33536
10830,33536
10831,33600
10832,33664
10833,33600
10834,33536
10835,33472
10836,33472
10837,33472
10838,33536
10839,33536
10840,33600
10841,33600
10842,33600
10843,33600
10844,33600
10845,33664
10846,33664
10847,33600
10848,33600
10849,33600
10850,33664
10851,33600
10852,33600
10853,33664
10854,33664
10855,33664
10856,33664
10857,33728
10858,33728
10859,33664
10860,33664
10861,33792
10862,33984
10863,33984
10864,33920
10865,33792
10866,33664
10867,33664
10868,33536
10869,33472
10870,33408
10871,33344
10872,33216
10873,33280
10874,33344
10875,33408
10876,33408
10877,33472
10878,33536
10879,33600
10880,33664
10881,33664
10882,33664
10883,33600
10884,33600
10885,33600
10886,33664
10887,33728
10888,33600
10889,33536
10890,33728
10891,33984
10892,34560
10893,35328
10894,36608
10895,37952
10896,38720
10897,38464
10898,36928
10899,34688
10900,32448
10901,30848
10902,30144
10903,30208
10904,30720
10905,31488
10906,32320
10907,32960
10908,33472
10909,33792
10910,33984
10911,34176
10912,34176
10913,34176
10914,34112
10915,34112
10916,34112
10917,34048
10918,33920
10919,33856
10920,33856
10921,33792
10922,33792
10923,33792
10924,33856
