,ECG
0,33984
1,33920
2,33984
3,34432
4,34368
5,34048
6,33920
7,33856
8,33856
9,33792
10,33856
11,33856
12,33600
13,33536
14,33728
15,33920
16,33984
17,34112
18,33856
19,33728
20,33792
21,33600
22,33472
23,33216
24,33216
25,33280
26,33152
27,33088
28,33216
29,33344
30,33408
31,33600
32,33792
33,33664
34,33472
35,33472
36,33408
37,33600
38,33536
39,33280
40,33280
41,33600
42,33792
43,33792
44,33920
45,33920
46,33792
47,33536
48,33152
49,33024
50,33280
51,33792
52,34176
53,34112
54,33856
55,33792
56,33856
57,33920
58,33920
59,33472
60,32896
61,32896
62,33216
63,33344
64,32960
65,32832
66,33024
67,33216
68,33600
69,33920
70,34048
71,34048
72,34048
73,33920
74,33600
75,33600
76,34048
77,34176
78,34112
79,34112
80,33856
81,33664
82,34048
83,34560
84,34368
85,34112
86,33856
87,33856
88,33984
89,34240
90,34240
91,34304
92,34304
93,33984
94,33792
95,34176
96,34560
97,34624
98,34688
99,34624
100,34304
101,33792
102,33408
103,33024
104,33088
105,33152
106,33024
107,32960
108,33024
109,32896
110,32512
111,32192
112,32128
113,32448
114,32704
115,32832
116,33152
117,33728
118,35136
119,37248
120,38656
121,38592
122,37120
123,34880
124,32192
125,30336
126,29440
127,29376
128,30144
129,31104
130,31936
131,32704
132,33216
133,33536
134,33920
135,33984
136,33920
137,34240
138,34688
139,34496
140,33920
141,33664
142,33728
143,34240
144,34240
145,34304
146,34432
147,34368
148,34560
149,34752
150,34752
151,34688
152,35072
153,35136
154,34688
155,34176
156,33664
157,33088
158,32960
159,32832
160,32384
161,32000
162,31744
163,31488
164,31552
165,31936
166,32448
167,32640
168,33088
169,33536
170,33856
171,34240
172,34624
173,35136
174,35200
175,35008
176,34816
177,34816
178,34816
179,35008
180,35264
181,35200
182,34880
183,34304
184,34112
185,33920
186,33984
187,34496
188,34880
189,34624
190,34432
191,34432
192,34048
193,33920
194,34048
195,34176
196,34304
197,34432
198,34496
199,34624
200,34688
201,34560
202,34624
203,34944
204,35392
205,35520
206,35136
207,35008
208,35328
209,35712
210,35456
211,34880
212,34624
213,34496
214,34368
215,34432
216,34432
217,34304
218,34176
219,33856
220,33600
221,33600
222,33600
223,33536
224,33792
225,34048
226,34240
227,34432
228,34624
229,34432
230,34624
231,35008
232,34048
233,33216
234,32768
235,32832
236,33152
237,33536
238,34048
239,33920
240,33088
241,32256
242,31872
243,31808
244,32256
245,33280
246,33664
247,33472
248,33088
249,33088
250,33280
251,33088
252,33472
253,34048
254,34048
255,33600
256,33280
257,33344
258,33664
259,33984
260,33856
261,33728
262,33920
263,34496
264,35136
265,35520
266,35008
267,33728
268,32896
269,32768
270,33216
271,33728
272,34240
273,34432
274,34176
275,33920
276,33280
277,32896
278,32768
279,33024
280,33344
281,33984
282,34880
283,36224
284,37760
285,38976
286,39872
287,39488
288,37888
289,35904
290,33344
291,31232
292,30144
293,29952
294,30528
295,31744
296,32448
297,32512
298,32576
299,32896
300,33408
301,33984
302,34560
303,35200
304,35520
305,35392
306,35072
307,35136
308,34944
309,34496
310,33984
311,33600
312,33600
313,33728
314,33792
315,33984
316,34560
317,35136
318,35200
319,34304
320,33536
321,33344
322,33536
323,33984
324,34304
325,34560
326,34688
327,34816
328,34880
329,34944
330,34944
331,34880
332,34816
333,34752
334,34688
335,34624
336,34624
337,34624
338,34496
339,34304
340,34240
341,34240
342,34176
343,34176
344,34176
345,34304
346,34368
347,34368
348,34240
349,34240
350,34240
351,33984
352,33856
353,33920
354,33984
355,34048
356,34048
357,33920
358,33856
359,33792
360,33728
361,33728
362,33920
363,33984
364,33920
365,33920
366,34048
367,34112
368,34048
369,33984
370,33920
371,33920
372,33984
373,34112
374,34240
375,34432
376,34624
377,34176
378,33728
379,33344
380,33152
381,33280
382,33408
383,33600
384,33728
385,33792
386,33920
387,33984
388,34048
389,34112
390,33984
391,33792
392,33728
393,33600
394,33536
395,33472
396,33408
397,33408
398,33344
399,33280
400,33344
401,33344
402,33344
403,33408
404,33472
405,33536
406,33536
407,33536
408,33536
409,33472
410,33472
411,33472
412,33600
413,33664
414,33664
415,33792
416,33792
417,33728
418,33664
419,33664
420,33536
421,33344
422,33152
423,33024
424,32896
425,32832
426,32832
427,32832
428,33024
429,33088
430,33152
431,33152
432,33216
433,33344
434,33408
435,33280
436,33408
437,33408
438,33216
439,33152
440,33280
441,33408
442,33472
443,33792
444,34688
445,36224
446,37632
447,38336
448,37760
449,35904
450,33728
451,31872
452,30784
453,30336
454,30336
455,30848
456,31552
457,32320
458,32960
459,33344
460,33600
461,33664
462,33792
463,33856
464,33920
465,33984
466,33984
467,33984
468,33920
469,33728
470,33536
471,33408
472,33344
473,33280
474,33216
475,33280
476,33280
477,33280
478,33408
479,33472
480,33536
481,33536
482,33600
483,33664
484,33728
485,33728
486,33792
487,33920
488,34048
489,34048
490,33984
491,33984
492,33984
493,33984
494,34048
495,34112
496,34112
497,34112
498,34112
499,34112
500,34048
501,34048
502,34048
503,34048
504,34048
505,33984
506,33984
507,33920
508,33920
509,33792
510,33728
511,33792
512,33792
513,33792
514,33792
515,33792
516,33792
517,33728
518,33664
519,33600
520,33600
521,33536
522,33472
523,33408
524,33472
525,33536
526,33600
527,33536
528,33536
529,33664
530,33728
531,33728
532,33728
533,33664
534,33664
535,33600
536,33536
537,33600
538,33600
539,33600
540,33600
541,33600
542,33472
543,33344
544,33216
545,33152
546,33152
547,33152
548,33088
549,33088
550,33088
551,33088
552,33152
553,33280
554,33408
555,33536
556,33664
557,33728
558,33856
559,33856
560,33920
561,33920
562,33984
563,33920
564,33920
565,33984
566,34048
567,34048
568,34048
569,33984
570,33920
571,33856
572,33728
573,33600
574,33536
575,33472
576,33472
577,33472
578,33472
579,33472
580,33472
581,33536
582,33600
583,33664
584,33664
585,33728
586,33920
587,33920
588,33920
589,33920
590,33920
591,33920
592,33856
593,33728
594,33792
595,34048
596,34432
597,35264
598,36480
599,37760
600,38400
601,37696
602,36224
603,34432
604,32832
605,31872
606,31360
607,31296
608,31552
609,32128
610,32832
611,33472
612,34048
613,34304
614,34368
615,34432
616,34496
617,34496
618,34496
619,34496
620,34432
621,34368
622,34304
623,34240
624,34240
625,34240
626,34176
627,34176
628,34240
629,34240
630,34176
631,34176
632,34176
633,34240
634,34176
635,34112
636,34112
637,34112
638,34176
639,34176
640,34240
641,34304
642,34304
643,34368
644,34368
645,34432
646,34496
647,34496
648,34496
649,34496
650,34496
651,34496
652,34432
653,34368
654,34368
655,34304
656,34112
657,33984
658,33984
659,33984
660,34048
661,34048
662,34176
663,34304
664,34368
665,34240
666,34112
667,33920
668,33792
669,33792
670,33792
671,33856
672,33856
673,33920
674,33984
675,34048
676,34176
677,34304
678,34240
679,34048
680,33920
681,33856
682,33856
683,33920
684,33984
685,34048
686,34048
687,34048
688,33984
689,33984
690,34048
691,34176
692,34176
693,34112
694,34048
695,34112
696,34048
697,34048
698,33920
699,33792
700,33792
701,33792
702,33856
703,33856
704,33920
705,33920
706,34048
707,34112
708,34240
709,34240
710,34240
711,34240
712,34176
713,34112
714,34048
715,34176
716,34304
717,34368
718,34304
719,34176
720,34112
721,33984
722,33920
723,33856
724,33792
725,33792
726,33664
727,33600
728,33600
729,33664
730,33728
731,33728
732,33792
733,33856
734,33920
735,33920
736,33984
737,33984
738,33984
739,33984
740,33920
741,33920
742,33856
743,33792
744,33920
745,34304
746,34944
747,36096
748,37568
749,38720
750,38976
751,37312
752,35648
753,33536
754,31808
755,30784
756,30336
757,30528
758,31168
759,31936
760,32704
761,33408
762,33920
763,34304
764,34432
765,34560
766,34560
767,34624
768,34560
769,34432
770,34304
771,34240
772,34112
773,34048
774,33984
775,33984
776,33984
777,33984
778,34048
779,34048
780,33984
781,33920
782,33920
783,33984
784,33984
785,33856
786,33856
787,33856
788,33920
789,33984
790,34112
791,34240
792,34304
793,34432
794,34496
795,34624
796,34688
797,34624
798,34624
799,34752
800,34752
801,34688
802,34880
803,34880
804,34368
805,34048
806,34112
807,34048
808,33792
809,33664
810,33728
811,33728
812,33728
813,33792
814,33856
815,33856
816,33984
817,33984
818,33920
819,33792
820,33792
821,33728
822,33600
823,33600
824,33728
825,33984
826,34752
827,35328
828,35328
829,34176
830,33408
831,33216
832,33088
833,32896
834,33024
835,33280
836,33664
837,33856
838,34048
839,34560
840,34944
841,34880
842,35136
843,36032
844,35840
845,34304
846,33280
847,32768
848,32960
849,33920
850,33536
851,32320
852,31744
853,31744
854,31872
855,32320
856,33280
857,33664
858,34112
859,34368
860,34496
861,34560
862,34496
863,34304
864,34176
865,34240
866,34624
867,35200
868,35776
869,35200
870,34048
871,33792
872,33984
873,32960
874,31808
875,31744
876,31616
877,31552
878,31808
879,32384
880,32896
881,33344
882,33728
883,33984
884,34368
885,35072
886,35264
887,34624
888,33920
889,33408
890,33408
891,33664
892,33920
893,33920
894,33856
895,33728
896,34176
897,35456
898,37120
899,38464
900,38464
901,38208
902,37440
903,33280
904,31424
905,30080
906,29824
907,30528
908,31296
909,31936
910,32448
911,32960
912,33408
913,33792
914,34112
915,34432
916,34432
917,34752
918,34688
919,34752
920,34688
921,34496
922,34432
923,34112
924,33280
925,32960
926,33472
927,34176
928,33984
929,33344
930,33024
931,33088
932,33280
933,33792
934,34112
935,34368
936,34816
937,35392
938,35264
939,35200
940,35392
941,35968
942,35840
943,35136
944,34752
945,34816
946,34816
947,35136
948,35264
949,35392
950,35456
951,35456
952,35456
953,35520
954,35584
955,35648
956,35712
957,35776
958,35712
959,35584
960,35456
961,35328
962,35200
963,35072
964,34944
965,34752
966,34624
967,34432
968,34304
969,34240
970,34176
971,34048
972,33984
973,33920
974,33984
975,33984
976,33920
977,33984
978,34112
979,34240
980,34560
981,34816
982,34752
983,34688
984,34752
985,34496
986,34112
987,33920
988,34112
989,34304
990,34176
991,34112
992,34112
993,34176
994,34240
995,34304
996,34368
997,34432
998,34432
999,34368
1000,34304
1001,34240
1002,34304
1003,34432
1004,34176
1005,33984
1006,33920
1007,33920
1008,33856
1009,33856
1010,34368
1011,34944
1012,34816
1013,34240
1014,34432
1015,35136
1016,34432
1017,33536
1018,33152
1019,33280
1020,33792
1021,33856
1022,34304
1023,34432
1024,34432
1025,34368
1026,34304
1027,34368
1028,34368
1029,34304
1030,34112
1031,33856
1032,33728
1033,33728
1034,34048
1035,33984
1036,33856
1037,33536
1038,33664
1039,33856
1040,33984
1041,33856
1042,33600
1043,33536
1044,33664
1045,33856
1046,33728
1047,33600
1048,33856
1049,34368
1050,35712
1051,35904
1052,38080
1053,39296
1054,39488
1055,38336
1056,36160
1057,33792
1058,31872
1059,30720
1060,30400
1061,30720
1062,31296
1063,32000
1064,32832
1065,34496
1066,34560
1067,34496
1068,34048
1069,33856
1070,33792
1071,33920
1072,33984
1073,34048
1074,34112
1075,34112
1076,34048
1077,34112
1078,34176
1079,34176
1080,34240
1081,34304
1082,34368
1083,34304
1084,34176
1085,34176
1086,34176
1087,34112
1088,34112
1089,34240
1090,34560
1091,34688
1092,34496
1093,34304
1094,34112
1095,34112
1096,34048
1097,33856
1098,33920
1099,34240
1100,34560
1101,34560
1102,34432
1103,34368
1104,34432
1105,34432
1106,34432
1107,34432
1108,34432
1109,34432
1110,34432
1111,34432
1112,34368
1113,34240
1114,34112
1115,34112
1116,34048
1117,34048
1118,34048
1119,34176
1120,34112
1121,33856
1122,33728
1123,33664
1124,33792
1125,33984
1126,33920
1127,33792
1128,33728
1129,33536
1130,33408
1131,33408
1132,33472
1133,33600
1134,33728
1135,33856
1136,33984
1137,33984
1138,33984
1139,34048
1140,34112
1141,34048
1142,34048
1143,34048
1144,34112
1145,34176
1146,34112
1147,34240
1148,34496
1149,34368
1150,33984
1151,33536
1152,33344
1153,33408
1154,33472
1155,33600
1156,33600
1157,33920
1158,33920
1159,33920
1160,33920
1161,33984
1162,34048
1163,34048
1164,34112
1165,34048
1166,33984
1167,34048
1168,33984
1169,33792
1170,33600
1171,33536
1172,33600
1173,33728
1174,33856
1175,33984
1176,34112
1177,33984
1178,33984
1179,33984
1180,34048
1181,34112
1182,34240
1183,34304
1184,34176
1185,34112
1186,34112
1187,34240
1188,34304
1189,33920
1190,33600
1191,33344
1192,33152
1193,33152
1194,33280
1195,33408
1196,33472
1197,33600
1198,33728
1199,33728
1200,33664
1201,33600
1202,33664
1203,33792
1204,33984
1205,33984
1206,33984
1207,33856
1208,33792
1209,34048
1210,34368
1211,34816
1212,35840
1213,37248
1214,38592
1215,39104
1216,38912
1217,36416
1218,33856
1219,31680
1220,30528
1221,30080
1222,30336
1223,30976
1224,31808
1225,32640
1226,33344
1227,33984
1228,34368
1229,34496
1230,34432
1231,34368
1232,34368
1233,34368
1234,34240
1235,34304
1236,34304
1237,34112
1238,34048
1239,34048
1240,33792
1241,33536
1242,33536
1243,33536
1244,33728
1245,33920
1246,33984
1247,34048
1248,34112
1249,34176
1250,34240
1251,34304
1252,34368
1253,34432
1254,34496
1255,34432
1256,34432
1257,34432
1258,34496
1259,34432
1260,34432
1261,34496
1262,34752
1263,34944
1264,34688
1265,34432
1266,34240
1267,33984
1268,33920
1269,33984
1270,33984
1271,34112
1272,34112
1273,34112
1274,34112
1275,34112
1276,34112
1277,34112
1278,34112
1279,34176
1280,34176
1281,34112
1282,34112
1283,34048
1284,34048
1285,34112
1286,33984
1287,33728
1288,33472
1289,33408
1290,33472
1291,33536
1292,33600
1293,33664
1294,33856
1295,34112
1296,34112
1297,33920
1298,33792
1299,33984
1300,34176
1301,34048
1302,33856
1303,33856
1304,33920
1305,33920
1306,33856
1307,33792
1308,33856
1309,33920
1310,33920
1311,33920
1312,33920
1313,34048
1314,34048
1315,33984
1316,33984
1317,33920
1318,33856
1319,33792
1320,33792
1321,33792
1322,33856
1323,34112
1324,34432
1325,34304
1326,33792
1327,33472
1328,33472
1329,33600
1330,33600
1331,33536
1332,33536
1333,33600
1334,33664
1335,33792
1336,33856
1337,33984
1338,34112
1339,34176
1340,34176
1341,34048
1342,33920
1343,33920
1344,33920
1345,34048
1346,34176
1347,34112
1348,34048
1349,34176
1350,34560
1351,34560
1352,34240
1353,34048
1354,33984
1355,33856
1356,33600
1357,33472
1358,33536
1359,33536
1360,33536
1361,33600
1362,33664
1363,33664
1364,33728
1365,33792
1366,33856
1367,33856
1368,33856
1369,33920
1370,33984
1371,33984
1372,33920
1373,33856
1374,33984
1375,34048
1376,33984
1377,34176
1378,34112
1379,33856
1380,33856
1381,34112
1382,34944
1383,36352
1384,37824
1385,38784
1386,38720
1387,37312
1388,35136
1389,33088
1390,31744
1391,30912
1392,30592
1393,30720
1394,31296
1395,32256
1396,33024
1397,33664
1398,34048
1399,34240
1400,34368
1401,34496
1402,34496
1403,34624
1404,34816
1405,34560
1406,34176
1407,34048
1408,33984
1409,33920
1410,33856
1411,33984
1412,34112
1413,34240
1414,34304
1415,34560
1416,34688
1417,34368
1418,33984
1419,33856
1420,33920
1421,33920
1422,33984
1423,34112
1424,34240
1425,34368
1426,34432
1427,34432
1428,34560
1429,34688
1430,34816
1431,34752
1432,34688
1433,34688
1434,34624
1435,34432
1436,34368
1437,34368
1438,34368
1439,34432
1440,34432
1441,34496
1442,34496
1443,34432
1444,34240
1445,34112
1446,33920
1447,33856
1448,33856
1449,33984
1450,34048
1451,34112
1452,34112
1453,34176
1454,34176
1455,34112
1456,34048
1457,33984
1458,33856
1459,33728
1460,33728
1461,33728
1462,33792
1463,33792
1464,33856
1465,33920
1466,34048
1467,34176
1468,34176
1469,34176
1470,33984
1471,33856
1472,33856
1473,33856
1474,33920
1475,33984
1476,34048
1477,34112
1478,34304
1479,34240
1480,34176
1481,34112
1482,34048
1483,33984
1484,33856
1485,33856
1486,33984
1487,34112
1488,34048
1489,33984
1490,33984
1491,34112
1492,33920
1493,33792
1494,33856
1495,33856
1496,33856
1497,33856
1498,33856
1499,33856
1500,33856
1501,33792
1502,33792
1503,33856
1504,33920
1505,33920
1506,33856
1507,33920
1508,33984
1509,33984
1510,33984
1511,34048
1512,33984
1513,33856
1514,33856
1515,33920
1516,33984
1517,33920
1518,33920
1519,34048
1520,34240
1521,34240
1522,34048
1523,33856
1524,33920
1525,33984
1526,33920
1527,33920
1528,34048
1529,34048
1530,33984
1531,33920
1532,33984
1533,34048
1534,34048
1535,34112
1536,34240
1537,34368
1538,34304
1539,34240
1540,34176
1541,34112
1542,34176
1543,34304
1544,34176
1545,33920
1546,33792
1547,33728
1548,33664
1549,33536
1550,33600
1551,33728
1552,33728
1553,33728
1554,33792
1555,33856
1556,33920
1557,33984
1558,34048
1559,33984
1560,33984
1561,33920
1562,33984
1563,34112
1564,34496
1565,35008
1566,35840
1567,37120
1568,38528
1569,39552
1570,39488
1571,38080
1572,35712
1573,33216
1574,31296
1575,30272
1576,30080
1577,30464
1578,31296
1579,32320
1580,33280
1581,33728
1582,34048
1583,34304
1584,34496
1585,34560
1586,34624
1587,34688
1588,34624
1589,34432
1590,34240
1591,34112
1592,34112
1593,34176
1594,34240
1595,34304
1596,34240
1597,34112
1598,34112
1599,34240
1600,34304
1601,34368
1602,34368
1603,34304
1604,34240
1605,34176
1606,34240
1607,34368
1608,34432
1609,34432
1610,34432
1611,34432
1612,34432
1613,34432
1614,34496
1615,34560
1616,34688
1617,34816
1618,34816
1619,34752
1620,34688
1621,34560
1622,34496
1623,34432
1624,34432
1625,34496
1626,34432
1627,34368
1628,34304
1629,34240
1630,34240
1631,34240
1632,34240
1633,34240
1634,34176
1635,34048
1636,33984
1637,33920
1638,33856
1639,33856
1640,33856
1641,33856
1642,33856
1643,33920
1644,33984
1645,34048
1646,33984
1647,33856
1648,33728
1649,33792
1650,33920
1651,33984
1652,33984
1653,33984
1654,34048
1655,34240
1656,34240
1657,34112
1658,33984
1659,33920
1660,33920
1661,33920
1662,33984
1663,34048
1664,34048
1665,34112
1666,34176
1667,34176
1668,34112
1669,34176
1670,34176
1671,34112
1672,34048
1673,34048
1674,33920
1675,33792
1676,33728
1677,33664
1678,33728
1679,33856
1680,33984
1681,33984
1682,33984
1683,33920
1684,33856
1685,33856
1686,33856
1687,33856
1688,33920
1689,33920
1690,33920
1691,33984
1692,34048
1693,34112
1694,33984
1695,33920
1696,33984
1697,34112
1698,33984
1699,33920
1700,33856
1701,33920
1702,33856
1703,33856
1704,33856
1705,33728
1706,33728
1707,33792
1708,33856
1709,33920
1710,33984
1711,33984
1712,34048
1713,34176
1714,34176
1715,34176
1716,34112
1717,34112
1718,34112
1719,34176
1720,34240
1721,34240
1722,34176
1723,34112
1724,34176
1725,34304
1726,34368
1727,34432
1728,34432
1729,34304
1730,34048
1731,33856
1732,33856
1733,33856
1734,33728
1735,33664
1736,33664
1737,33728
1738,33728
1739,33728
1740,33792
1741,33920
1742,33984
1743,34048
1744,34112
1745,34240
1746,34240
1747,34048
1748,33984
1749,33920
1750,33920
1751,33920
1752,33984
1753,34176
1754,34368
1755,34816
1756,36352
1757,36352
1758,38592
1759,39744
1760,39744
1761,38336
1762,36032
1763,33344
1764,31296
1765,30272
1766,30080
1767,30528
1768,31296
1769,32256
1770,33152
1771,33728
1772,34048
1773,34304
1774,34496
1775,34624
1776,34688
1777,34688
1778,34752
1779,34752
1780,34624
1781,34560
1782,34432
1783,34304
1784,34112
1785,34048
1786,34048
1787,34048
1788,34048
1789,34048
1790,34176
1791,34240
1792,34304
1793,34368
1794,34432
1795,34496
1796,34496
1797,34496
1798,34560
1799,34624
1800,34688
1801,34624
1802,34624
1803,34688
1804,34688
1805,34624
1806,34560
1807,34560
1808,34624
1809,34624
1810,34624
1811,34624
1812,34624
1813,34560
1814,34496
1815,34432
1816,34432
1817,34432
1818,34368
1819,34304
1820,34304
1821,34368
1822,34304
1823,34304
1824,34304
1825,34240
1826,34176
1827,34176
1828,34112
1829,34048
1830,33920
1831,33792
1832,33728
1833,33728
1834,33664
1835,33664
1836,33664
1837,33728
1838,33856
1839,33856
1840,33920
1841,33984
1842,34048
1843,34048
1844,34176
1845,34240
1846,34176
1847,34048
1848,33920
1849,33920
1850,33984
1851,33920
1852,33856
1853,33856
1854,33856
1855,33856
1856,33856
1857,33920
1858,33984
1859,33984
1860,33984
1861,33984
1862,33984
1863,33984
1864,33984
1865,33984
1866,33984
1867,33984
1868,33984
1869,33984
1870,33984
1871,33920
1872,33920
1873,33920
1874,33856
1875,33856
1876,33792
1877,33728
1878,33728
1879,33792
1880,33728
1881,33728
1882,33792
1883,33856
1884,33856
1885,33920
1886,33920
1887,33920
1888,33920
1889,33920
1890,33920
1891,33984
1892,33984
1893,33920
1894,33792
1895,33728
1896,33728
1897,33728
1898,33792
1899,33856
1900,33856
1901,33856
1902,33856
1903,33856
1904,33920
1905,34048
1906,34048
1907,34112
1908,34176
1909,34112
1910,34048
1911,34112
1912,34240
1913,34240
1914,34176
1915,34112
1916,34176
1917,34112
1918,33984
1919,33920
1920,33856
1921,33728
1922,33664
1923,33600
1924,33600
1925,33600
1926,33664
1927,33664
1928,33792
1929,33856
1930,33920
1931,33984
1932,34112
1933,34240
1934,34176
1935,33984
1936,33856
1937,33856
1938,33856
1939,33728
1940,33536
1941,33600
1942,33920
1943,34496
1944,35520
1945,37056
1946,38528
1947,39488
1948,39296
1949,37824
1950,35520
1951,33024
1952,31424
1953,30528
1954,30400
1955,30784
1956,31360
1957,32192
1958,32960
1959,33536
1960,33792
1961,34048
1962,34240
1963,34368
1964,34368
1965,34304
1966,34368
1967,34368
1968,34240
1969,34112
1970,34112
1971,34048
1972,34048
1973,33984
1974,33920
1975,33792
1976,33600
1977,33280
1978,33088
1979,32960
1980,32896
1981,32768
1982,32640
1983,32576
1984,32640
1985,32704
1986,32896
1987,33216
1988,33344
1989,33408
1990,33600
1991,33728
1992,33664
1993,33600
1994,33600
1995,33600
1996,33536
1997,33472
1998,33600
1999,33920
2000,34112
2001,34048
2002,33920
2003,33920
2004,33984
2005,33984
2006,33920
2007,33920
2008,33920
2009,33920
2010,33984
2011,33920
2012,33792
2013,33664
2014,33600
2015,33600
2016,33536
2017,33408
2018,33344
2019,33280
2020,33280
2021,33216
2022,33152
2023,33152
2024,33280
2025,33280
2026,33344
2027,33472
2028,33664
2029,33920
2030,34112
2031,34240
2032,34304
2033,34368
2034,34304
2035,34304
2036,34304
2037,34368
2038,34432
2039,34304
2040,34176
2041,34240
2042,34304
2043,34304
2044,34240
2045,34240
2046,34304
2047,34240
2048,34176
2049,34176
2050,34112
2051,34112
2052,34240
2053,34496
2054,34688
2055,35008
2056,35200
2057,35200
2058,35136
2059,35072
2060,35008
2061,34880
2062,35008
2063,35200
2064,35136
2065,35008
2066,34816
2067,34048
2068,33024
2069,32576
2070,33088
2071,34112
2072,34176
2073,33792
2074,33600
2075,33280
2076,33280
2077,34240
2078,35712
2079,36544
2080,36480
2081,35840
2082,35648
2083,36032
2084,35712
2085,34624
2086,33920
2087,34048
2088,33600
2089,33088
2090,33728
2091,35008
2092,34816
2093,33600
2094,33216
2095,33088
2096,33344
2097,34304
2098,35328
2099,35264
2100,34368
2101,33856
2102,33536
2103,33472
2104,33536
2105,33344
2106,32960
2107,32832
2108,33152
2109,33600
2110,33600
2111,33664
2112,34176
2113,34496
2114,34752
2115,35648
2116,37056
2117,38016
2118,38336
2119,37632
2120,35904
2121,33856
2122,32128
2123,31168
2124,30848
2125,30976
2126,31424
2127,32128
2128,32896
2129,33472
2130,33920
2131,34112
2132,34304
2133,34304
2134,34368
2135,34432
2136,34496
2137,34560
2138,34432
2139,34240
2140,34304
2141,34368
2142,34304
2143,34688
2144,34752
2145,34048
2146,33536
2147,33216
2148,33216
2149,33856
2150,34624
2151,34688
2152,34304
2153,34112
2154,33792
2155,33344
2156,33024
2157,34048
2158,34624
2159,33472
2160,32960
2161,33408
2162,33728
2163,34304
2164,35328
2165,35840
2166,35136
2167,34368
2168,34048
2169,34496
2170,35456
2171,35520
2172,35200
2173,35392
2174,34496
2175,32832
2176,32256
2177,32768
2178,33024
2179,32832
2180,32832
2181,33152
2182,33536
2183,33856
2184,34176
2185,34368
2186,34432
2187,34432
2188,34368
2189,34240
2190,34176
2191,34048
2192,33984
2193,33920
2194,33984
2195,34240
2196,34880
2197,35328
2198,34560
2199,33344
2200,32768
2201,32768
2202,33088
2203,33536
2204,34048
2205,34496
2206,34752
2207,34880
2208,34944
2209,34880
2210,34624
2211,34560
2212,34496
2213,34432
2214,34368
2215,34240
2216,34112
2217,34048
2218,33984
2219,33920
2220,33792
2221,33728
2222,33664
2223,33600
2224,33664
2225,33728
2226,33728
2227,33664
2228,33600
2229,33664
2230,33664
2231,33728
2232,33792
2233,34048
2234,34240
2235,34240
2236,34048
2237,33856
2238,33600
2239,33280
2240,33088
2241,33024
2242,33088
2243,33216
2244,33408
2245,33536
2246,33600
2247,33728
2248,33728
2249,33728
2250,33664
2251,33600
2252,33600
2253,33600
2254,33344
2255,33024
2256,32896
2257,32832
2258,32960
2259,33088
2260,33152
2261,33024
2262,32960
2263,32960
2264,32896
2265,32832
2266,32896
2267,32896
2268,32832
2269,32832
2270,32960
2271,33088
2272,33280
2273,33408
2274,33728
2275,34432
2276,35584
2277,36928
2278,38080
2279,38336
2280,37248
2281,35072
2282,33408
2283,32000
2284,31296
2285,31040
2286,31040
2287,31488
2288,32192
2289,32896
2290,33408
2291,33728
2292,34048
2293,34304
2294,34304
2295,34176
2296,34112
2297,34048
2298,34048
2299,34112
2300,34176
2301,34176
2302,34240
2303,34368
2304,34304
2305,34240
2306,34304
2307,34496
2308,34496
2309,34048
2310,33856
2311,33856
2312,33792
2313,33856
2314,33920
2315,34048
2316,34240
2317,34368
2318,34432
2319,34560
2320,34688
2321,34688
2322,34432
2323,34240
2324,34304
2325,34304
2326,34112
2327,33920
2328,33984
2329,33984
2330,33856
2331,33728
2332,33664
2333,33728
2334,33728
2335,33792
2336,33792
2337,33856
2338,33920
2339,33920
2340,33856
2341,33920
2342,33920
2343,33792
2344,33664
2345,33536
2346,33472
2347,33344
2348,33216
2349,33216
2350,33408
2351,33408
2352,33472
2353,33472
2354,33536
2355,33664
2356,33664
2357,33664
2358,33664
2359,33664
2360,33600
2361,33536
2362,33536
2363,33536
2364,33536
2365,33600
2366,33664
2367,33600
2368,33600
2369,33600
2370,33600
2371,33536
2372,33408
2373,33344
2374,33344
2375,33344
2376,33344
2377,33280
2378,33344
2379,33408
2380,33408
2381,33408
2382,33472
2383,33472
2384,33344
2385,33216
2386,33152
2387,33216
2388,33216
2389,33216
2390,33152
2391,33152
2392,33152
2393,33216
2394,33216
2395,33280
2396,33280
2397,33216
2398,33152
2399,33152
2400,33280
2401,33472
2402,33536
2403,33536
2404,33472
2405,33216
2406,32896
2407,32768
2408,32576
2409,32448
2410,32448
2411,32640
2412,32704
2413,32704
2414,32704
2415,32832
2416,33024
2417,33152
2418,33088
2419,32896
2420,32768
2421,32832
2422,33024
2423,33024
2424,32960
2425,33024
2426,33024
2427,33024
2428,33024
2429,33216
2430,33728
2431,34560
2432,35776
2433,37312
2434,38208
2435,38144
2436,36800
2437,34688
2438,32320
2439,30592
2440,29696
2441,29376
2442,29696
2443,30400
2444,31296
2445,32192
2446,32896
2447,33344
2448,33600
2449,33792
2450,33920
2451,33984
2452,33856
2453,33600
2454,33408
2455,33344
2456,33408
2457,33408
2458,33344
2459,33280
2460,33280
2461,33280
2462,33344
2463,33408
2464,33408
2465,33536
2466,33664
2467,33728
2468,33856
2469,33856
2470,33664
2471,33664
2472,33664
2473,33600
2474,33536
2475,33536
2476,33600
2477,33536
2478,33600
2479,33728
2480,33856
2481,33856
2482,33920
2483,34048
2484,34112
2485,34112
2486,34112
2487,34112
2488,34048
2489,33984
2490,33792
2491,33664
2492,33600
2493,33536
2494,33472
2495,33344
2496,33280
2497,33280
2498,33280
2499,33344
2500,33408
2501,33344
2502,33280
2503,33280
2504,33216
2505,33216
2506,33216
2507,33280
2508,33280
2509,33280
2510,33280
2511,33216
2512,33216
2513,33344
2514,33472
2515,33536
2516,33536
2517,33472
2518,33344
2519,33280
2520,33408
2521,33408
2522,33408
2523,33472
2524,33536
2525,33664
2526,33792
2527,33792
2528,33728
2529,33600
2530,33600
2531,33600
2532,33664
2533,33792
2534,33792
2535,33728
2536,33664
2537,33664
2538,33600
2539,33600
2540,33600
2541,33536
2542,33408
2543,33280
2544,33344
2545,33472
2546,33664
2547,33792
2548,33856
2549,33856
2550,33920
2551,33984
2552,33984
2553,33984
2554,33984
2555,33920
2556,33920
2557,33920
2558,33920
2559,33856
2560,33728
2561,33664
2562,33536
2563,33536
2564,33536
2565,33472
2566,33408
2567,33280
2568,33280
2569,33472
2570,33536
2571,33472
2572,33408
2573,33472
2574,33600
2575,33664
2576,33728
2577,33728
2578,33664
2579,33600
2580,33536
2581,33536
2582,33536
2583,33728
2584,34048
2585,34624
2586,35456
2587,36672
2588,38016
2589,38912
2590,38976
2591,37760
2592,35520
2593,33088
2594,31104
2595,30144
2596,29952
2597,30336
2598,31104
2599,32000
2600,32768
2601,33344
2602,33792
2603,34048
2604,34176
2605,34304
2606,34368
2607,34496
2608,34624
2609,34368
2610,34112
2611,33856
2612,33792
2613,33856
2614,33856
2615,33792
2616,33728
2617,33728
2618,33792
2619,33792
2620,33920
2621,33984
2622,34048
2623,34112
2624,34176
2625,34240
2626,34240
2627,34304
2628,34432
2629,34496
2630,34496
2631,34304
2632,34304
2633,34368
2634,34304
2635,34176
2636,34112
2637,34176
2638,34240
2639,34304
2640,34304
2641,34368
2642,34368
2643,34368
2644,34304
2645,34304
2646,34304
2647,34240
2648,34176
2649,34176
2650,34176
2651,34112
2652,34048
2653,34048
2654,34112
2655,34048
2656,34048
2657,33920
2658,33536
2659,33280
2660,33216
2661,33216
2662,33280
2663,33344
2664,33408
2665,33536
2666,33664
2667,33728
2668,33728
2669,33792
2670,33920
2671,33984
2672,33984
2673,33984
2674,33984
2675,34112
2676,34112
2677,34112
2678,34176
2679,34176
2680,34048
2681,33856
2682,33856
2683,33792
2684,33728
2685,33664
2686,33664
2687,33792
2688,33856
2689,33856
2690,33920
2691,34048
2692,34176
2693,34112
2694,34048
2695,33984
2696,34048
2697,34048
2698,33920
2699,33792
2700,33792
2701,33728
2702,33664
2703,33728
2704,33920
2705,34048
2706,34112
2707,34112
2708,34048
2709,33856
2710,33792
2711,33728
2712,33856
2713,33984
2714,34048
2715,34176
2716,34176
2717,34112
2718,34048
2719,33984
2720,33984
2721,33856
2722,33792
2723,33792
2724,33664
2725,33600
2726,33600
2727,33728
2728,33856
2729,33728
2730,33728
2731,33728
2732,33792
2733,33728
2734,33664
2735,33664
2736,33728
2737,33792
2738,33792
2739,33856
2740,33920
2741,33984
2742,34240
2743,34688
2744,35456
2745,36608
2746,36800
2747,38080
2748,39168
2749,38592
2750,36416
2751,35904
2752,31744
2753,31552
2754,30144
2755,30464
2756,31232
2757,32128
2758,32960
2759,33536
2760,34048
2761,34368
2762,34624
2763,34624
2764,34560
2765,34560
2766,34496
2767,34432
2768,34304
2769,34240
2770,34240
2771,34176
2772,34176
2773,34240
2774,34240
2775,34240
2776,34240
2777,34240
2778,34240
2779,34176
2780,34240
2781,34240
2782,34432
2783,34624
2784,34304
2785,34176
2786,34304
2787,34432
2788,34368
2789,34368
2790,34432
2791,34496
2792,34560
2793,34688
2794,34752
2795,34816
2796,34816
2797,34816
2798,34816
2799,34816
2800,34816
2801,34752
2802,34752
2803,34560
2804,34496
2805,34496
2806,34496
2807,34432
2808,34304
2809,34176
2810,34112
2811,34176
2812,34176
2813,34048
2814,33920
2815,33920
2816,33856
2817,33920
2818,33856
2819,33920
2820,33920
2821,33856
2822,33792
2823,33792
2824,33856
2825,33856
2826,33856
2827,33984
2828,34112
2829,34176
2830,34176
2831,34176
2832,34176
2833,34176
2834,34176
2835,34176
2836,34176
2837,34112
2838,34048
2839,34048
2840,34176
2841,34176
2842,34176
2843,34112
2844,34048
2845,33920
2846,33856
2847,33792
2848,33856
2849,33920
2850,33984
2851,33984
2852,33920
2853,34048
2854,34048
2855,33984
2856,33984
2857,34048
2858,34112
2859,34112
2860,34112
2861,34112
2862,34112
2863,34048
2864,34112
2865,34176
2866,34240
2867,34240
2868,34176
2869,34176
2870,34304
2871,34368
2872,34304
2873,34240
2874,34240
2875,34112
2876,34048
2877,34048
2878,34176
2879,34176
2880,34176
2881,34304
2882,34368
2883,34368
2884,34240
2885,34240
2886,34240
2887,34240
2888,34112
2889,34048
2890,34048
2891,33984
2892,33920
2893,33856
2894,33856
2895,33984
2896,34048
2897,33984
2898,33920
2899,33984
2900,34112
2901,33984
2902,33920
2903,33856
2904,33856
2905,33856
2906,33920
2907,34112
2908,34432
2909,35008
2910,35840
2911,37312
2912,38720
2913,39744
2914,39744
2915,38400
2916,36096
2917,33472
2918,31488
2919,30528
2920,30464
2921,30976
2922,31616
2923,32448
2924,33216
2925,33920
2926,34368
2927,34560
2928,34624
2929,34624
2930,34624
2931,34560
2932,34560
2933,34560
2934,34496
2935,34432
2936,34496
2937,34496
2938,34432
2939,34368
2940,34368
2941,34368
2942,34240
2943,34304
2944,34432
2945,34560
2946,34624
2947,34496
2948,34432
2949,34432
2950,34432
2951,34432
2952,34496
2953,34624
2954,34624
2955,34624
2956,34688
2957,34624
2958,34880
2959,34880
2960,34880
2961,34880
2962,34944
2963,34944
2964,35072
2965,35136
2966,35072
2967,34944
2968,34880
2969,34816
2970,34624
2971,34432
2972,34304
2973,34240
2974,34304
2975,34304
2976,34240
2977,34176
2978,34112
2979,34112
2980,34176
2981,34304
2982,34304
2983,34304
2984,34240
2985,34176
2986,34240
2987,34176
2988,34112
2989,34112
2990,34176
2991,34176
2992,34176
2993,34176
2994,34176
2995,34176
2996,34176
2997,34240
2998,34368
2999,34432
3000,34368
3001,34304
3002,34304
3003,34368
3004,34432
3005,34304
3006,34240
3007,34304
3008,34304
3009,34304
3010,34304
3011,34304
3012,34304
3013,34304
3014,34368
3015,34432
3016,34496
3017,34368
3018,34176
3019,34112
3020,34048
3021,34048
3022,33984
3023,33984
3024,33984
3025,33984
3026,33984
3027,34048
3028,34112
3029,34112
3030,34112
3031,34176
3032,34176
3033,34112
3034,34112
3035,34176
3036,34240
3037,34240
3038,34112
3039,33984
3040,33984
3041,34048
3042,34048
3043,34048
3044,34048
3045,34112
3046,34176
3047,34176
3048,34176
3049,34176
3050,34112
3051,34112
3052,34176
3053,34304
3054,34368
3055,34432
3056,34432
3057,34368
3058,34304
3059,34240
3060,34112
3061,34112
3062,34048
3063,33920
3064,33856
3065,33856
3066,33856
3067,33856
3068,33792
3069,33856
3070,33856
3071,33856
3072,33856
3073,33920
3074,33984
3075,34048
3076,34048
3077,34176
3078,34304
3079,34496
3080,34368
3081,34304
3082,34432
3083,34880
3084,35776
3085,37120
3086,38592
3087,39616
3088,39616
3089,38144
3090,35840
3091,33280
3092,31424
3093,30528
3094,30400
3095,30848
3096,31552
3097,32384
3098,33152
3099,33792
3100,34240
3101,34560
3102,34752
3103,34880
3104,34944
3105,34880
3106,34816
3107,34752
3108,34688
3109,34688
3110,34688
3111,34560
3112,34432
3113,34304
3114,34240
3115,34304
3116,34304
3117,34240
3118,34176
3119,34240
3120,34368
3121,34368
3122,34432
3123,34560
3124,34624
3125,34624
3126,34624
3127,34688
3128,34816
3129,34816
3130,34752
3131,34752
3132,34816
3133,34944
3134,35008
3135,35008
3136,34880
3137,34816
3138,34688
3139,34560
3140,34624
3141,34688
3142,34688
3143,34624
3144,34560
3145,34496
3146,34368
3147,34304
3148,34368
3149,34432
3150,34432
3151,34432
3152,34432
3153,34432
3154,34432
3155,34368
3156,34240
3157,34048
3158,33984
3159,33920
3160,33856
3161,33856
3162,33856
3163,33792
3164,33792
3165,33920
3166,34048
3167,33984
3168,33984
3169,33984
3170,34048
3171,34112
3172,34048
3173,34112
3174,34240
3175,34304
3176,34304
3177,34240
3178,34176
3179,34112
3180,34176
3181,34176
3182,34240
3183,34368
3184,34368
3185,34240
3186,34048
3187,33920
3188,33856
3189,33856
3190,33920
3191,33984
3192,33984
3193,33920
3194,33856
3195,33856
3196,33856
3197,33920
3198,33984
3199,34048
3200,34048
3201,33984
3202,34048
3203,34112
3204,34240
3205,34176
3206,34048
3207,34048
3208,33984
3209,33920
3210,33920
3211,33920
3212,33920
3213,33856
3214,33856
3215,33984
3216,34048
3217,34048
3218,34112
3219,34112
3220,34176
3221,34176
3222,34112
3223,34176
3224,34304
3225,34432
3226,34368
3227,34304
3228,34240
3229,34176
3230,34112
3231,34112
3232,34112
3233,33920
3234,33728
3235,33600
3236,33600
3237,33600
3238,33600
3239,33600
3240,33728
3241,33856
3242,33920
3243,33984
3244,34048
3245,34112
3246,34112
3247,34112
3248,34112
3249,34112
3250,33984
3251,33920
3252,33920
3253,34048
3254,34304
3255,34752
3256,35712
3257,37120
3258,38400
3259,39040
3260,38464
3261,36800
3262,34560
3263,32512
3264,31296
3265,30784
3266,30848
3267,31296
3268,31936
3269,32704
3270,33472
3271,33984
3272,34304
3273,34560
3274,34752
3275,34752
3276,34624
3277,34496
3278,34432
3279,34368
3280,34304
3281,34368
3282,34304
3283,34240
3284,34240
3285,34176
3286,34112
3287,34112
3288,34112
3289,34176
3290,34304
3291,34368
3292,34304
3293,34304
3294,34368
3295,34432
3296,34496
3297,34560
3298,34624
3299,34688
3300,34688
3301,34688
3302,34752
3303,34688
3304,34624
3305,34560
3306,34624
3307,34560
3308,34624
3309,34624
3310,34560
3311,34560
3312,34496
3313,34432
3314,34432
3315,34496
3316,34560
3317,34496
3318,34368
3319,34304
3320,34176
3321,34112
3322,34048
3323,34048
3324,34048
3325,34112
3326,34048
3327,34048
3328,34112
3329,34112
3330,34048
3331,34048
3332,34048
3333,33920
3334,33792
3335,33664
3336,33792
3337,33792
3338,33728
3339,33664
3340,33728
3341,33792
3342,33856
3343,33920
3344,34112
3345,34240
3346,34176
3347,34176
3348,34304
3349,34368
3350,34240
3351,34112
3352,34048
3353,34048
3354,34112
3355,34112
3356,34112
3357,34048
3358,34048
3359,33984
3360,33984
3361,33984
3362,33984
3363,33920
3364,33920
3365,33920
3366,33984
3367,33984
3368,33920
3369,33920
3370,33920
3371,33920
3372,33856
3373,33856
3374,33920
3375,33856
3376,33664
3377,33664
3378,33664
3379,33664
3380,33728
3381,33728
3382,33856
3383,33920
3384,33920
3385,33984
3386,34048
3387,34112
3388,34176
3389,34240
3390,34304
3391,34304
3392,34304
3393,34240
3394,34176
3395,34240
3396,34240
3397,34240
3398,34240
3399,34304
3400,34240
3401,34048
3402,33984
3403,34048
3404,33984
3405,33920
3406,33792
3407,33792
3408,33728
3409,33600
3410,33664
3411,33792
3412,33920
3413,33984
3414,34048
3415,34112
3416,34176
3417,34048
3418,33792
3419,33728
3420,33664
3421,33728
3422,33792
3423,33920
3424,33984
3425,34112
3426,34496
3427,35328
3428,36544
3429,38016
3430,39168
3431,39488
3432,38464
3433,36416
3434,33920
3435,31872
3436,30720
3437,30400
3438,30656
3439,31296
3440,32192
3441,32960
3442,33472
3443,33856
3444,34240
3445,34432
3446,34496
3447,34496
3448,34560
3449,34560
3450,34496
3451,34368
3452,34240
3453,34176
3454,34176
3455,34176
3456,34240
3457,34304
3458,34368
3459,34240
3460,34176
3461,34176
3462,34112
3463,34048
3464,33984
3465,34112
3466,34176
3467,34240
3468,34304
3469,34368
3470,34560
3471,34624
3472,34688
3473,34752
3474,34816
3475,34816
3476,34816
3477,34816
3478,34816
3479,34752
3480,34752
3481,34688
3482,34688
3483,34624
3484,34496
3485,34432
3486,34432
3487,34432
3488,34432
3489,34368
3490,34368
3491,34432
3492,34304
3493,34176
3494,34176
3495,34112
3496,33984
3497,33920
3498,33920
3499,33984
3500,33920
3501,33792
3502,33664
3503,33728
3504,33728
3505,33728
3506,33728
3507,33792
3508,33920
3509,33920
3510,33920
3511,33984
3512,34048
3513,34048
3514,33984
3515,34048
3516,34048
3517,34048
3518,34048
3519,34112
3520,34112
3521,34048
3522,33984
3523,33984
3524,33984
3525,33984
3526,33920
3527,33984
3528,34048
3529,33984
3530,33984
3531,33984
3532,33984
3533,33984
3534,33984
3535,33984
3536,34048
3537,33984
3538,33920
3539,33920
3540,33984
3541,33984
3542,33984
3543,33920
3544,33920
3545,33920
3546,33920
3547,33984
3548,34112
3549,34112
3550,33984
3551,33856
3552,33792
3553,33792
3554,33856
3555,33856
3556,33792
3557,33856
3558,33856
3559,33856
3560,33920
3561,33984
3562,33984
3563,34048
3564,34112
3565,34240
3566,34176
3567,34112
3568,34048
3569,34112
3570,34112
3571,34240
3572,34368
3573,34432
3574,34304
3575,34240
3576,34112
3577,34112
3578,34112
3579,33984
3580,33792
3581,33664
3582,33600
3583,33600
3584,33600
3585,33664
3586,33792
3587,33920
3588,33920
3589,33984
3590,34048
3591,34112
3592,34112
3593,34112
3594,34112
3595,34048
3596,33856
3597,33856
3598,33984
3599,34368
3600,35008
3601,36032
3602,37504
3603,38976
3604,39744
3605,39232
3606,37376
3607,35008
3608,32576
3609,30976
3610,30272
3611,30336
3612,30912
3613,31744
3614,32576
3615,33280
3616,33856
3617,34240
3618,34432
3619,34560
3620,34624
3621,34688
3622,34624
3623,34624
3624,34560
3625,34368
3626,34304
3627,34240
3628,34176
3629,34176
3630,34112
3631,34176
3632,34240
3633,34240
3634,34240
3635,34368
3636,34432
3637,34432
3638,34368
3639,34432
3640,34560
3641,34624
3642,34624
3643,34496
3644,34432
3645,34432
3646,34432
3647,34432
3648,34560
3649,34688
3650,34752
3651,34752
3652,34752
3653,34880
3654,34880
3655,34816
3656,34688
3657,34624
3658,34560
3659,34496
3660,34496
3661,34496
3662,34432
3663,34304
3664,34176
3665,34176
3666,34176
3667,34112
3668,34176
3669,34240
3670,34304
3671,34176
3672,33984
3673,33792
3674,33728
3675,33664
3676,33664
3677,33792
3678,33856
3679,33920
3680,33920
3681,33856
3682,33856
3683,33984
3684,33984
3685,33920
3686,33920
3687,33920
3688,33856
3689,33856
3690,33920
3691,33984
3692,33984
3693,34048
3694,34112
3695,34176
3696,34176
3697,34112
3698,34112
3699,34112
3700,34048
3701,33984
3702,34048
3703,34048
3704,33984
3705,33920
3706,33920
3707,33920
3708,33920
3709,33984
3710,34048
3711,33984
3712,33856
3713,33728
3714,33792
3715,33856
3716,33856
3717,33856
3718,33856
3719,33920
3720,33984
3721,33984
3722,33920
3723,33920
3724,33920
3725,33984
3726,33920
3727,33920
3728,33920
3729,33920
3730,33984
3731,33984
3732,34112
3733,34240
3734,34304
3735,34240
3736,34176
3737,34176
3738,34240
3739,34368
3740,34432
3741,34304
3742,33984
3743,33664
3744,33536
3745,33536
3746,33472
3747,33472
3748,33536
3749,33600
3750,33664
3751,33664
3752,33664
3753,33728
3754,33792
3755,33792
3756,33792
3757,33856
3758,33856
3759,33920
3760,33920
3761,33920
3762,33920
3763,33920
3764,33920
3765,33984
3766,33920
3767,33856
3768,33920
3769,34240
3770,35008
3771,36224
3772,37568
3773,38720
3774,39104
3775,38080
3776,36096
3777,33856
3778,32128
3779,31104
3780,30720
3781,30848
3782,31680
3783,32192
3784,32896
3785,33536
3786,33984
3787,34240
3788,34368
3789,34496
3790,34624
3791,34688
3792,34560
3793,34432
3794,34368
3795,34304
3796,34240
3797,34176
3798,34176
3799,34112
3800,34048
3801,34048
3802,34112
3803,34240
3804,34368
3805,34368
3806,34304
3807,34368
3808,34368
3809,34304
3810,34368
3811,34496
3812,34752
3813,34752
3814,34624
3815,34560
3816,34624
3817,34496
3818,34368
3819,34432
3820,34496
3821,34560
3822,34624
3823,34688
3824,34752
3825,34816
3826,34880
3827,34816
3828,34752
3829,34688
3830,34624
3831,34496
3832,34432
3833,34432
3834,34368
3835,34304
3836,34304
3837,34240
3838,34112
3839,34048
3840,34048
3841,34048
3842,33920
3843,33856
3844,33792
3845,33792
3846,33792
3847,33664
3848,33664
3849,33728
3850,33792
3851,33856
3852,33920
3853,34048
3854,34048
3855,34048
3856,34112
3857,34048
3858,34048
3859,34048
3860,34112
3861,34176
3862,34176
3863,34048
3864,34048
3865,34048
3866,34112
3867,34112
3868,34112
3869,34112
3870,34048
3871,34048
3872,34112
3873,34240
3874,34240
3875,34112
3876,33984
3877,33920
3878,33920
3879,33920
3880,33920
3881,33984
3882,33984
3883,33984
3884,33984
3885,33984
3886,33984
3887,33984
3888,33984
3889,34048
3890,34048
3891,33984
3892,33920
3893,33984
3894,34048
3895,34048
3896,34048
3897,34112
3898,34176
3899,34112
3900,34048
3901,34048
3902,34048
3903,34112
3904,34176
3905,34176
3906,34240
3907,34368
3908,34432
3909,34368
3910,34240
3911,34176
3912,34048
3913,33920
3914,33856
3915,33856
3916,33856
3917,33792
3918,33664
3919,33664
3920,33728
3921,33792
3922,33920
3923,34048
3924,34048
3925,34048
3926,34048
3927,34048
3928,34048
3929,34048
3930,33920
3931,33920
3932,33984
3933,34048
3934,34304
3935,34880
3936,36032
3937,37376
3938,38720
3939,39488
3940,39104
3941,37440
3942,35072
3943,32768
3944,31232
3945,30528
3946,30400
3947,31040
3948,31552
3949,32384
3950,33152
3951,33728
3952,34176
3953,34496
3954,34688
3955,34688
3956,34624
3957,34496
3958,34432
3959,34432
3960,34496
3961,34496
3962,34368
3963,34176
3964,34048
3965,33984
3966,33984
3967,33984
3968,34048
3969,34176
3970,34240
3971,34304
3972,34304
3973,34368
3974,34432
3975,34432
3976,34432
3977,34496
3978,34560
3979,34560
3980,34624
3981,34624
3982,34624
3983,34624
3984,34624
3985,34688
3986,34752
3987,34752
3988,34688
3989,34688
3990,34688
3991,34688
3992,34624
3993,34496
3994,34496
3995,34496
3996,34496
3997,34432
3998,34432
3999,34432
4000,34368
4001,34368
4002,34368
4003,34304
4004,34176
4005,34048
4006,33984
4007,33920
4008,33856
4009,33856
4010,33792
4011,33792
4012,33728
4013,33664
4014,33664
4015,33728
4016,33792
4017,33856
4018,33920
4019,34048
4020,34048
4021,34048
4022,34048
4023,34048
4024,34048
4025,34112
4026,34112
4027,34112
4028,34176
4029,34176
4030,34112
4031,34112
4032,34112
4033,33984
4034,33920
4035,33920
4036,33920
4037,33920
4038,33920
4039,33920
4040,33920
4041,33984
4042,34048
4043,34048
4044,34048
4045,34048
4046,34048
4047,34048
4048,34048
4049,34048
4050,33984
4051,33984
4052,33984
4053,33920
4054,33856
4055,33856
4056,33856
4057,33920
4058,33920
4059,33920
4060,33984
4061,34112
4062,34176
4063,34240
4064,34176
4065,34240
4066,34240
4067,34176
4068,34176
4069,34240
4070,34368
4071,34304
4072,34176
4073,33984
4074,33984
4075,33856
4076,33728
4077,33664
4078,33600
4079,33600
4080,33600
4081,33600
4082,33792
4083,33792
4084,33856
4085,33856
4086,33920
4087,33984
4088,33984
4089,33920
4090,33984
4091,34048
4092,34048
4093,33984
4094,33920
4095,33792
4096,33792
4097,34048
4098,34432
4099,35200
4100,36416
4101,37824
4102,38784
4103,38784
4104,37504
4105,35456
4106,33344
4107,31808
4108,30912
4109,30592
4110,30848
4111,31552
4112,32320
4113,32960
4114,33600
4115,34048
4116,34368
4117,34560
4118,34624
4119,34688
4120,34688
4121,34624
4122,34624
4123,34624
4124,34624
4125,34560
4126,34496
4127,34496
4128,34368
4129,34240
4130,34176
4131,34112
4132,34112
4133,34112
4134,34112
4135,34240
4136,34368
4137,34432
4138,34368
4139,34432
4140,34560
4141,34560
4142,34560
4143,34496
4144,34560
4145,34560
4146,34560
4147,34560
4148,34624
4149,34688
4150,34752
4151,34752
4152,34816
4153,34752
4154,34688
4155,34560
4156,34560
4157,34560
4158,34560
4159,34496
4160,34496
4161,34496
4162,34432
4163,34304
4164,34304
4165,34304
4166,34304
4167,34240
4168,34112
4169,34048
4170,33984
4171,33920
4172,33920
4173,33920
4174,33920
4175,33920
4176,33920
4177,33856
4178,33856
4179,33856
4180,33920
4181,33984
4182,34048
4183,34048
4184,33984
4185,33984
4186,34048
4187,34176
4188,34112
4189,34112
4190,34240
4191,34240
4192,34240
4193,34240
4194,34240
4195,34240
4196,34176
4197,34176
4198,34240
4199,34240
4200,34240
4201,34176
4202,34176
4203,34176
4204,34048
4205,34048
4206,34048
4207,33984
4208,33920
4209,33920
4210,33984
4211,33984
4212,33984
4213,33984
4214,34112
4215,34176
4216,34304
4217,34240
4218,34240
4219,34304
4220,34304
4221,34240
4222,34304
4223,34304
4224,34304
4225,34304
4226,34304
4227,34304
4228,34240
4229,34112
4230,33984
4231,33984
4232,33920
4233,33856
4234,33792
4235,33728
4236,33664
4237,33664
4238,33664
4239,33664
4240,33728
4241,33792
4242,33856
4243,33920
4244,33984
4245,33984
4246,33920
4247,33984
4248,33984
4249,33920
4250,33856
4251,33856
4252,33920
4253,34240
4254,34880
4255,35904
4256,37248
4257,38528
4258,39104
4259,38464
4260,36672
4261,34432
4262,32448
4263,31168
4264,30720
4265,30720
4266,31168
4267,31872
4268,32640
4269,33280
4270,33856
4271,34112
4272,34368
4273,34496
4274,34560
4275,34560
4276,34496
4277,34432
4278,34432
4279,34368
4280,34304
4281,34304
4282,34240
4283,34240
4284,34176
4285,34176
4286,34176
4287,34176
4288,34176
4289,34240
4290,34304
4291,34304
4292,34240
4293,34176
4294,34240
4295,34304
4296,34368
4297,34368
4298,34368
4299,34368
4300,34368
4301,34432
4302,34496
4303,34560
4304,34624
4305,34624
4306,34624
4307,34624
4308,34560
4309,34496
4310,34496
4311,34496
4312,34496
4313,34496
4314,34432
4315,34432
4316,34368
4317,34240
4318,34240
4319,34240
4320,34240
4321,34176
4322,34112
4323,34048
4324,33984
4325,33920
4326,33856
4327,33792
4328,33792
4329,33728
4330,33664
4331,33664
4332,33664
4333,33664
4334,33728
4335,33792
4336,33856
4337,33984
4338,33984
4339,34048
4340,34048
4341,34112
4342,33984
4343,33920
4344,33984
4345,33984
4346,33984
4347,34048
4348,34112
4349,34112
4350,34112
4351,34048
4352,34112
4353,34048
4354,33984
4355,33856
4356,33920
4357,33920
4358,33856
4359,33792
4360,33856
4361,33856
4362,33920
4363,33920
4364,33920
4365,33920
4366,33984
4367,33984
4368,34048
4369,34112
4370,34176
4371,34176
4372,34176
4373,34176
4374,34240
4375,34240
4376,34304
4377,34368
4378,34432
4379,34368
4380,34240
4381,34112
4382,33984
4383,33920
4384,33856
4385,33728
4386,33728
4387,33664
4388,33664
4389,33728
4390,33728
4391,33728
4392,33664
4393,33664
4394,33728
4395,33728
4396,33792
4397,33856
4398,33856
4399,33856
4400,33792
4401,33792
4402,33792
4403,33856
4404,33984
4405,34240
4406,34816
4407,35776
4408,37120
4409,38528
4410,39424
4411,39232
4412,37696
4413,35392
4414,33024
4415,31424
4416,30592
4417,30336
4418,30720
4419,31488
4420,32320
4421,33088
4422,33664
4423,34112
4424,34368
4425,34496
4426,34496
4427,34496
4428,34496
4429,34432
4430,34368
4431,34304
4432,34304
4433,34240
4434,34176
4435,34112
4436,34176
4437,34176
4438,34176
4439,34240
4440,34304
4441,34368
4442,34304
4443,34304
4444,34368
4445,34368
4446,34368
4447,34368
4448,34368
4449,34432
4450,34496
4451,34496
4452,34560
4453,34624
4454,34688
4455,34688
4456,34752
4457,34816
4458,34816
4459,34752
4460,34752
4461,34816
4462,34816
4463,34688
4464,34624
4465,34624
4466,34560
4467,34368
4468,34304
4469,34304
4470,34304
4471,34240
4472,34176
4473,34176
4474,34112
4475,34112
4476,34048
4477,33984
4478,33984
4479,33856
4480,33792
4481,33728
4482,33728
4483,33728
4484,33728
4485,33664
4486,33728
4487,33728
4488,33728
4489,33792
4490,33856
4491,33856
4492,33856
4493,33920
4494,33984
4495,33984
4496,33984
4497,34048
4498,34112
4499,34112
4500,34048
4501,33984
4502,33984
4503,34048
4504,33984
4505,33920
4506,33920
4507,33920
4508,33856
4509,33792
4510,33728
4511,33728
4512,33728
4513,33728
4514,33856
4515,33920
4516,34048
4517,34112
4518,34176
4519,34304
4520,34304
4521,34176
4522,34048
4523,34048
4524,34048
4525,34048
4526,34048
4527,34048
4528,34048
4529,33920
4530,33856
4531,33792
4532,33728
4533,33664
4534,33600
4535,33600
4536,33536
4537,33536
4538,33536
4539,33664
4540,33664
4541,33664
4542,33728
4543,33856
4544,33920
4545,33920
4546,33856
4547,33792
4548,33792
4549,33728
4550,33664
4551,33728
4552,33728
4553,33856
4554,34176
4555,34752
4556,35712
4557,37120
4558,38528
4559,39424
4560,39168
4561,37568
4562,35136
4563,34752
4564,31168
4565,30336
4566,30144
4567,30592
4568,31360
4569,32128
4570,32832
4571,33408
4572,33920
4573,34176
4574,34304
4575,34368
4576,34304
4577,34304
4578,34240
4579,34240
4580,34176
4581,34112
4582,34048
4583,33984
4584,33984
4585,33984
4586,33984
4587,34048
4588,34048
4589,34176
4590,34240
4591,34240
4592,34240
4593,34240
4594,34240
4595,34176
4596,34176
4597,34240
4598,34432
4599,34496
4600,34496
4601,34496
4602,34432
4603,34432
4604,34368
4605,34432
4606,34496
4607,34560
4608,34496
4609,34560
4610,34624
4611,34624
4612,34624
4613,34560
4614,34560
4615,34496
4616,34368
4617,34304
4618,34304
4619,34176
4620,34112
4621,34112
4622,34112
4623,34048
4624,33984
4625,33856
4626,33856
4627,33792
4628,33728
4629,33664
4630,33664
4631,33728
4632,33728
4633,33728
4634,33792
4635,33856
4636,33920
4637,33984
4638,33920
4639,34176
4640,34176
4641,34048
4642,33984
4643,33920
4644,33920
4645,33856
4646,33792
4647,33792
4648,33792
4649,33856
4650,33856
4651,33856
4652,33920
4653,33920
4654,33984
4655,33984
4656,34048
4657,34048
4658,33984
4659,34048
4660,34112
4661,34112
4662,34112
4663,34176
4664,34240
4665,34176
4666,34176
4667,34112
4668,34048
4669,33984
4670,33920
4671,33920
4672,33984
4673,33984
4674,34048
4675,34112
4676,34240
4677,34240
4678,34176
4679,34112
4680,33984
4681,33920
4682,33856
4683,33792
4684,33792
4685,33728
4686,33664
4687,33600
4688,33600
4689,33664
4690,33728
4691,33792
4692,33728
4693,33728
4694,33728
4695,33728
4696,33792
4697,33792
4698,33856
4699,33792
4700,33728
4701,33728
4702,33920
4703,34240
4704,34816
4705,35776
4706,37248
4707,38592
4708,39360
4709,38976
4710,37376
4711,35008
4712,32576
4713,31040
4714,30336
4715,30272
4716,30784
4717,31488
4718,32256
4719,32960
4720,33472
4721,33856
4722,34176
4723,34368
4724,34432
4725,34432
4726,34432
4727,34368
4728,34304
4729,34304
4730,34240
4731,34176
4732,34176
4733,34176
4734,34176
4735,34176
4736,34176
4737,34112
4738,34048
4739,33984
4740,33984
4741,34048
4742,34112
4743,34176
4744,34240
4745,34240
4746,34240
4747,34304
4748,34368
4749,34368
4750,34432
4751,34560
4752,34688
4753,34688
4754,34752
4755,34816
4756,34816
4757,34816
4758,34752
4759,34688
4760,34688
4761,34624
4762,34496
4763,34432
4764,34240
4765,34112
4766,33984
4767,33920
4768,33856
4769,33920
4770,33920
4771,33920
4772,33920
4773,33984
4774,33984
4775,33920
4776,33920
4777,33920
4778,33792
4779,33664
4780,33664
4781,33728
4782,33664
4783,33600
4784,33536
4785,33536
4786,33536
4787,33600
4788,33728
4789,33728
4790,33728
4791,33728
4792,33728
4793,33856
4794,33920
4795,33856
4796,33856
4797,33920
4798,33984
4799,33984
4800,33984
4801,34048
4802,33984
4803,33920
4804,33920
4805,33920
4806,33856
4807,33856
4808,33856
4809,33856
4810,33856
4811,33920
4812,33856
4813,33920
4814,33984
4815,33920
4816,33856
4817,33792
4818,33856
4819,33984
4820,34048
4821,34112
4822,34240
4823,34240
4824,34176
4825,33984
4826,33920
4827,33856
4828,33856
4829,33792
4830,33664
4831,33536
4832,33472
4833,33472
4834,33536
4835,33600
4836,33664
4837,33664
4838,33792
4839,33792
4840,33856
4841,33856
4842,33856
4843,33920
4844,33856
4845,33856
4846,33856
4847,33920
4848,33984
4849,34240
4850,34816
4851,35712
4852,37056
4853,38464
4854,39168
4855,38848
4856,37312
4857,35072
4858,32832
4859,31360
4860,30592
4861,30464
4862,30784
4863,31552
4864,32384
4865,33152
4866,33792
4867,33728
4868,34304
4869,34496
4870,34560
4871,34560
4872,34496
4873,34496
4874,34368
4875,34368
4876,34304
4877,34304
4878,34240
4879,34304
4880,34368
4881,34304
4882,34240
4883,34176
4884,34176
4885,34240
4886,34240
4887,34240
4888,34240
4889,34240
4890,34240
4891,34304
4892,34432
4893,34496
4894,34496
4895,34432
4896,34496
4897,34560
4898,34688
4899,34752
4900,34816
4901,34880
4902,34816
4903,34752
4904,34688
4905,34688
4906,34688
4907,34624
4908,34496
4909,34496
4910,34432
4911,34368
4912,34304
4913,34304
4914,34368
4915,34304
4916,34240
4917,34176
4918,34240
4919,34176
4920,34048
4921,33984
4922,33920
4923,33856
4924,33856
4925,33856
4926,33792
4927,33728
4928,33728
4929,33856
4930,33920
4931,33920
4932,33920
4933,33920
4934,33984
4935,33984
4936,34048
4937,34176
4938,34176
4939,34240
4940,34240
4941,34176
4942,34176
4943,34176
4944,34112
4945,34048
4946,33984
4947,33984
4948,33984
4949,33984
4950,33984
4951,33984
4952,33984
4953,33920
4954,33920
4955,33984
4956,34048
4957,34112
4958,34176
4959,34176
4960,34304
4961,34304
4962,34368
4963,34304
4964,34304
4965,34240
4966,34240
4967,34240
4968,34304
4969,34304
4970,34304
4971,34240
4972,34176
4973,34048
4974,33856
4975,33728
4976,33664
4977,33664
4978,33600
4979,33536
4980,33600
4981,33664
4982,33664
4983,33664
4984,33664
4985,33728
4986,33856
4987,33920
4988,33984
4989,34048
4990,34048
4991,33920
4992,33792
4993,33664
4994,33600
4995,33600
4996,33792
4997,34304
4998,35008
4999,36224
5000,37696
5001,38976
5002,39552
5003,38720
5004,36736
5005,34176
5006,32000
5007,30656
5008,30144
5009,30336
5010,31040
5011,31872
5012,32576
5013,33280
5014,33792
5015,34112
5016,34304
5017,34240
5018,34368
5019,34368
5020,34368
5021,34368
5022,34368
5023,34304
5024,34176
5025,34112
5026,34112
5027,34112
5028,34112
5029,34048
5030,34048
5031,34048
5032,34048
5033,34112
5034,34176
5035,34240
5036,34240
5037,34240
5038,34304
5039,34432
5040,34560
5041,34560
5042,34560
5043,34560
5044,34560
5045,34560
5046,34624
5047,34688
5048,34688
5049,34688
5050,34688
5051,34624
5052,34624
5053,34560
5054,34624
5055,34560
5056,34496
5057,34432
5058,34432
5059,34432
5060,34496
5061,34496
5062,34432
5063,34368
5064,34304
5065,34176
5066,34112
5067,34048
5068,34112
5069,34048
5070,33984
5071,33856
5072,33856
5073,33856
5074,33792
5075,33856
5076,33856
5077,33792
5078,33728
5079,33792
5080,33856
5081,33920
5082,33984
5083,34048
5084,34048
5085,34112
5086,34112
5087,34112
5088,34112
5089,34112
5090,34112
5091,34112
5092,34112
5093,34176
5094,34112
5095,34112
5096,34112
5097,34112
5098,34048
5099,34048
5100,33984
5101,34048
5102,34048
5103,34048
5104,34112
5105,34112
5106,34112
5107,34048
5108,34112
5109,34176
5110,34240
5111,34176
5112,34112
5113,34176
5114,34240
5115,34304
5116,34240
5117,34304
5118,34368
5119,34368
5120,34304
5121,34240
5122,34112
5123,33984
5124,33792
5125,33728
5126,33728
5127,33600
5128,33536
5129,33536
5130,33600
5131,33728
5132,33728
5133,33792
5134,33792
5135,33856
5136,33920
5137,33920
5138,33984
5139,34048
5140,34112
5141,34048
5142,33984
5143,33920
5144,33920
5145,34048
5146,34432
5147,35136
5148,36224
5149,37632
5150,38976
5151,39552
5152,38784
5153,36736
5154,34240
5155,32000
5156,30656
5157,30144
5158,30272
5159,30976
5160,31872
5161,32640
5162,33408
5163,33856
5164,34176
5165,34432
5166,34496
5167,34560
5168,34560
5169,34496
5170,34432
5171,34304
5172,34240
5173,34176
5174,34112
5175,34048
5176,34048
5177,34048
5178,34048
5179,34112
5180,34176
5181,34176
5182,34176
5183,34176
5184,34240
5185,34304
5186,34304
5187,34368
5188,34432
5189,34496
5190,34560
5191,34560
5192,34624
5193,34688
5194,34688
5195,34688
5196,34688
5197,34752
5198,34752
5199,34752
5200,34752
5201,34816
5202,34752
5203,34624
5204,34560
5205,34496
5206,34432
5207,34368
5208,34304
5209,34304
5210,34304
5211,34240
5212,34240
5213,34240
5214,34176
5215,34112
5216,34048
5217,34048
5218,34048
5219,33984
5220,33856
5221,33792
5222,33792
5223,33792
5224,33728
5225,33792
5226,33856
5227,33792
5228,33792
5229,33856
5230,33856
5231,33920
5232,33856
5233,33920
5234,33984
5235,34048
5236,34112
5237,34112
5238,34112
5239,34112
5240,34112
5241,34112
5242,34112
5243,34112
5244,34112
5245,34112
5246,34048
5247,34048
5248,33984
5249,33920
5250,33856
5251,33856
5252,33856
5253,33856
5254,33984
5255,34048
5256,34112
5257,34176
5258,34176
5259,34176
5260,34176
5261,34176
5262,34176
5263,34176
5264,34240
5265,34304
5266,34304
5267,34304
5268,34368
5269,34240
5270,34176
5271,33984
5272,33856
5273,33792
5274,33664
5275,33600
5276,33536
5277,33536
5278,33536
5279,33600
5280,33664
5281,33728
5282,33792
5283,33792
5284,33792
5285,33920
5286,33984
5287,33920
5288,33920
5289,33920
5290,33856
5291,33792
5292,33664
5293,33664
5294,33792
5295,34112
5296,34752
5297,35968
5298,37376
5299,38592
5300,39104
5301,38208
5302,36352
5303,34112
5304,32256
5305,31168
5306,30720
5307,30784
5308,31232
5309,31936
5310,32704
5311,33344
5312,33856
5313,34176
5314,34368
5315,34432
5316,34432
5317,34432
5318,34368
5319,34240
5320,34176
5321,34112
5322,34112
5323,34048
5324,34112
5325,34112
5326,34176
5327,34176
5328,34176
5329,34176
5330,34240
5331,34304
5332,34368
5333,34368
5334,34368
5335,34432
5336,34432
5337,34432
5338,34432
5339,34496
5340,34496
5341,34432
5342,34432
5343,34432
5344,34432
5345,34496
5346,34560
5347,34688
5348,34688
5349,34688
5350,34688
5351,34752
5352,34688
5353,34560
5354,34496
5355,34432
5356,34432
5357,34368
5358,34368
5359,34368
5360,34368
5361,34240
5362,34240
5363,34176
5364,34112
5365,34048
5366,33920
5367,33856
5368,33792
5369,33728
5370,33664
5371,33664
5372,33728
5373,33792
5374,33792
5375,33856
5376,33920
5377,33920
5378,33920
5379,33920
5380,34048
5381,34112
5382,34112
5383,34112
5384,34112
5385,34112
5386,34048
5387,34048
5388,34112
5389,34112
5390,34112
5391,34176
5392,34176
5393,34112
5394,34048
5395,33920
5396,33920
5397,33920
5398,33984
5399,33984
5400,33920
5401,33984
5402,34048
5403,34112
5404,34176
5405,34304
5406,34304
5407,34240
5408,34240
5409,34240
5410,34240
5411,34304
5412,34368
5413,34432
5414,34496
5415,34368
5416,34240
5417,34112
5418,33920
5419,33792
5420,33728
5421,33600
5422,33600
5423,33536
5424,33472
5425,33536
5426,33600
5427,33664
5428,33664
5429,33728
5430,33856
5431,33920
5432,33984
5433,34048
5434,34112
5435,34048
5436,34048
5437,33920
5438,33856
5439,33792
5440,33792
5441,33920
5442,34432
5443,35072
5444,36160
5445,37504
5446,38592
5447,38784
5448,37696
5449,35712
5450,33600
5451,31872
5452,30976
5453,30592
5454,30784
5455,31360
5456,32192
5457,32960
5458,33536
5459,33920
5460,34240
5461,34368
5462,34432
5463,34496
5464,34496
5465,34432
5466,34368
5467,34240
5468,34240
5469,34112
5470,34112
5471,34048
5472,34112
5473,34112
5474,34112
5475,34112
5476,34176
5477,34176
5478,34176
5479,34240
5480,34304
5481,34368
5482,34368
5483,34432
5484,34496
5485,34560
5486,34496
5487,34496
5488,34496
5489,34560
5490,34624
5491,34624
5492,34624
5493,34688
5494,34752
5495,34752
5496,34688
5497,34688
5498,34624
5499,34560
5500,34496
5501,34496
5502,34432
5503,34368
5504,34304
5505,34304
5506,34240
5507,34240
5508,34240
5509,34176
5510,34112
5511,34048
5512,34048
5513,33984
5514,33984
5515,33920
5516,33856
5517,33856
5518,33920
5519,33856
5520,33792
5521,33792
5522,33856
5523,33792
5524,33792
5525,33792
5526,33856
5527,33920
5528,33920
5529,33920
5530,33984
5531,34048
5532,34112
5533,34112
5534,34176
5535,34176
5536,34112
5537,34112
5538,34112
5539,34112
5540,34112
5541,34112
5542,34112
5543,34048
5544,33984
5545,33856
5546,33856
5547,33856
5548,33856
5549,33856
5550,33920
5551,33984
5552,34048
5553,34112
5554,34176
5555,34240
5556,34240
5557,34176
5558,34176
5559,34176
5560,34240
5561,34304
5562,34368
5563,34432
5564,34432
5565,34368
5566,34176
5567,33920
5568,33792
5569,33664
5570,33536
5571,33472
5572,33408
5573,33408
5574,33408
5575,33536
5576,33664
5577,33728
5578,33792
5579,33792
5580,33856
5581,33920
5582,33920
5583,33984
5584,33984
5585,33920
5586,33792
5587,33728
5588,33728
5589,33792
5590,34048
5591,34496
5592,35392
5593,36608
5594,38016
5595,39040
5596,39104
5597,37760
5598,35520
5599,33088
5600,31360
5601,30464
5602,30272
5603,30528
5604,31232
5605,32128
5606,32896
5607,33536
5608,33920
5609,34176
5610,34304
5611,34368
5612,34304
5613,34304
5614,34304
5615,34240
5616,34176
5617,34112
5618,34112
5619,34112
5620,34048
5621,33920
5622,33920
5623,33920
5624,33920
5625,33984
5626,34048
5627,34048
5628,33984
5629,34048
5630,34112
5631,34176
5632,34176
5633,34240
5634,34304
5635,34368
5636,34368
5637,34432
5638,34560
5639,34624
5640,34624
5641,34624
5642,34624
5643,34560
5644,34560
5645,34496
5646,34432
5647,34368
5648,34368
5649,34304
5650,34304
5651,34304
5652,34240
5653,34176
5654,34112
5655,34112
5656,34048
5657,34048
5658,34048
5659,34048
5660,33984
5661,33856
5662,33792
5663,33792
5664,33792
5665,33728
5666,33664
5667,33600
5668,33600
5669,33536
5670,33472
5671,33536
5672,33600
5673,33600
5674,33664
5675,33664
5676,33792
5677,33792
5678,33792
5679,33856
5680,33856
5681,33856
5682,33792
5683,33856
5684,33920
5685,33920
5686,33920
5687,33920
5688,33920
5689,33920
5690,33920
5691,33920
5692,33920
5693,33856
5694,33792
5695,33728
5696,33728
5697,33728
5698,33728
5699,33664
5700,33664
5701,33728
5702,33792
5703,33856
5704,33920
5705,34048
5706,34112
5707,34048
5708,34048
5709,33920
5710,33856
5711,33856
5712,33920
5713,34048
5714,34112
5715,34112
5716,34048
5717,33984
5718,33856
5719,33728
5720,33600
5721,33536
5722,33472
5723,33408
5724,33280
5725,33280
5726,33344
5727,33408
5728,33408
5729,33536
5730,33600
5731,33664
5732,33664
5733,33728
5734,33728
5735,33728
5736,33664
5737,33600
5738,33664
5739,33664
5740,33600
5741,33600
5742,33920
5743,34432
5744,35328
5745,36672
5746,38208
5747,39296
5748,39232
5749,37824
5750,35392
5751,32960
5752,31040
5753,30080
5754,29888
5755,30336
5756,31168
5757,32000
5758,32768
5759,33408
5760,33920
5761,34112
5762,34304
5763,34368
5764,34368
5765,34304
5766,34304
5767,34176
5768,34112
5769,33984
5770,33856
5771,33856
5772,33856
5773,33856
5774,33856
5775,33856
5776,33984
5777,33984
5778,33984
5779,34048
5780,34112
5781,34240
5782,34240
5783,34240
5784,34304
5785,34304
5786,34304
5787,34240
5788,34304
5789,34368
5790,34496
5791,34560
5792,34560
5793,34560
5794,34560
5795,34560
5796,34560
5797,34560
5798,34560
5799,34560
5800,34560
5801,34496
5802,34496
5803,34432
5804,34368
5805,34368
5806,34304
5807,34176
5808,34112
5809,34112
5810,34112
5811,33984
5812,33920
5813,33792
5814,33792
5815,33728
5816,33728
5817,33728
5818,33728
5819,33728
5820,33792
5821,33792
5822,33792
5823,33792
5824,33792
5825,33792
5826,33856
5827,33856
5828,33856
5829,33920
5830,33984
5831,33984
5832,33984
5833,34048
5834,34048
5835,34048
5836,34048
5837,34048
5838,34048
5839,33984
5840,33984
5841,33984
5842,34048
5843,34112
5844,34112
5845,34112
5846,34048
5847,33984
5848,33856
5849,33856
5850,33856
5851,33920
5852,33920
5853,33920
5854,33856
5855,33856
5856,33856
5857,33920
5858,33984
5859,34048
5860,34112
5861,34176
5862,34304
5863,34368
5864,34304
5865,34176
5866,34112
5867,34176
5868,34176
5869,34240
5870,34368
5871,34368
5872,34368
5873,34176
5874,34048
5875,33984
5876,33920
5877,33792
5878,33664
5879,33600
5880,33536
5881,33536
5882,33600
5883,33600
5884,33664
5885,33728
5886,33792
5887,33792
5888,33856
5889,33920
5890,33984
5891,33984
5892,34048
5893,34048
5894,33984
5895,33920
5896,33856
5897,34048
5898,34304
5899,34880
5900,35840
5901,37248
5902,38656
5903,39360
5904,38976
5905,37248
5906,34880
5907,32512
5908,30976
5909,30272
5910,30272
5911,30848
5912,31616
5913,32512
5914,33280
5915,33856
5916,34176
5917,34432
5918,34560
5919,34560
5920,34560
5921,34560
5922,34496
5923,34432
5924,34368
5925,34240
5926,34176
5927,34048
5928,34048
5929,34048
5930,34048
5931,34048
5932,34112
5933,34112
5934,34240
5935,34240
5936,34304
5937,34304
5938,34368
5939,34432
5940,34496
5941,34496
5942,34624
5943,34560
5944,34560
5945,34624
5946,34624
5947,34688
5948,34752
5949,34752
5950,34752
5951,34816
5952,34816
5953,34752
5954,34752
5955,34688
5956,34688
5957,34560
5958,34496
5959,34560
5960,34496
5961,34432
5962,34368
5963,34304
5964,34240
5965,34240
5966,34176
5967,34176
5968,34176
5969,34112
5970,33984
5971,33920
5972,33920
5973,33856
5974,33856
5975,33856
5976,33856
5977,33856
5978,33792
5979,33792
5980,33856
5981,33856
5982,33856
5983,33920
5984,33984
5985,33984
5986,33984
5987,34048
5988,34048
5989,34048
5990,34112
5991,34112
5992,34112
5993,34112
5994,34112
5995,34176
5996,34240
5997,34304
5998,34176
5999,34048
6000,34048
6001,34048
6002,33984
6003,33856
6004,33856
6005,33856
6006,33856
6007,33856
6008,33856
6009,33920
6010,33920
6011,33920
6012,33984
6013,33984
6014,34048
6015,34048
6016,34112
6017,34176
6018,34240
6019,34240
6020,34240
6021,34240
6022,34240
6023,34176
6024,34048
6025,34112
6026,34176
6027,34240
6028,34368
6029,34432
6030,34432
6031,34304
6032,34112
6033,33984
6034,33920
6035,33792
6036,33664
6037,33536
6038,33536
6039,33600
6040,33600
6041,33600
6042,33728
6043,33856
6044,33856
6045,33856
6046,33920
6047,33920
6048,33920
6049,33920
6050,33984
6051,33984
6052,33920
6053,33856
6054,33856
6055,33920
6056,34176
6057,34688
6058,35648
6059,37056
6060,38400
6061,39040
6062,38528
6063,36864
6064,34688
6065,32640
6066,31296
6067,30720
6068,30656
6069,31040
6070,31744
6071,32576
6072,33216
6073,33728
6074,34048
6075,34304
6076,34432
6077,34560
6078,34496
6079,34496
6080,34496
6081,34432
6082,34304
6083,34176
6084,34176
6085,34176
6086,34176
6087,34176
6088,34112
6089,34112
6090,34112
6091,34176
6092,34240
6093,34240
6094,34240
6095,34240
6096,34304
6097,34368
6098,34432
6099,34496
6100,34496
6101,34560
6102,34560
6103,34624
6104,34624
6105,34624
6106,34624
6107,34624
6108,34624
6109,34688
6110,34752
6111,34752
6112,34752
6113,34752
6114,34624
6115,34496
6116,34432
6117,34368
6118,34304
6119,34304
6120,34240
6121,34240
6122,34240
6123,34176
6124,34176
6125,34176
6126,34176
6127,34112
6128,34112
6129,34048
6130,34048
6131,33984
6132,33856
6133,33856
6134,33856
6135,33792
6136,33792
6137,33856
6138,33856
6139,33920
6140,33920
6141,33984
6142,34048
6143,34048
6144,34048
6145,34048
6146,34112
6147,34112
6148,34112
6149,34176
6150,34176
6151,34176
6152,34176
6153,34112
6154,34112
6155,34176
6156,34176
6157,34176
6158,34112
6159,34112
6160,34112
6161,34048
6162,33984
6163,33984
6164,33984
6165,33920
6166,33920
6167,33984
6168,33984
6169,33984
6170,33984
6171,33984
6172,33920
6173,33920
6174,33920
6175,33920
6176,33984
6177,33984
6178,34048
6179,34112
6180,34240
6181,34240
6182,34240
6183,34240
6184,34176
6185,34112
6186,34112
6187,34176
6188,34304
6189,34368
6190,34432
6191,34432
6192,34368
6193,34240
6194,34048
6195,33984
6196,33920
6197,33856
6198,33728
6199,33664
6200,33664
6201,33664
6202,33600
6203,33600
6204,33664
6205,33792
6206,33792
6207,33856
6208,33920
6209,33920
6210,33984
6211,33984
6212,33984
6213,33920
6214,33920
6215,33856
6216,33920
6217,34176
6218,34688
6219,35456
6220,36672
6221,38144
6222,39232
6223,39232
6224,37952
6225,35776
6226,33408
6227,31616
6228,30656
6229,30400
6230,30784
6231,31488
6232,32192
6233,32960
6234,33600
6235,33984
6236,34304
6237,34432
6238,34560
6239,34624
6240,34560
6241,34496
6242,34368
6243,34304
6244,34240
6245,34240
6246,34240
6247,34176
6248,34176
6249,34176
6250,34240
6251,34240
6252,34176
6253,34176
6254,34240
6255,34304
6256,34304
6257,34368
6258,34368
6259,34432
6260,34496
6261,34496
6262,34496
6263,34560
6264,34624
6265,34688
6266,34688
6267,34752
6268,34752
6269,34752
6270,34752
6271,34816
6272,34880
6273,34816
6274,34688
6275,34624
6276,34624
6277,34560
6278,34496
6279,34496
6280,34496
6281,34432
6282,34368
6283,34368
6284,34368
6285,34368
6286,34368
6287,34304
6288,34240
6289,34240
6290,34112
6291,34048
6292,33984
6293,33920
6294,33920
6295,33856
6296,33856
6297,33920
6298,33920
6299,33920
6300,33856
6301,33920
6302,33920
6303,33984
6304,34048
6305,34112
6306,34176
6307,34176
6308,34240
6309,34240
6310,34304
6311,34240
6312,34176
6313,34176
6314,34240
6315,34176
6316,34112
6317,34112
6318,34112
6319,34112
6320,34048
6321,34048
6322,34048
6323,34048
6324,34048
6325,34048
6326,34048
6327,34048
6328,33984
6329,34048
6330,33984
6331,33920
6332,33856
6333,33920
6334,33984
6335,33984
6336,33920
6337,33920
6338,33984
6339,33984
6340,33984
6341,33984
6342,33984
6343,34048
6344,34048
6345,34048
6346,34048
6347,34048
6348,33984
6349,33920
6350,33984
6351,34112
6352,34176
6353,34240
6354,34240
6355,34240
6356,34176
6357,34112
6358,34112
6359,34176
6360,34176
6361,34240
6362,34368
6363,34432
6364,34432
6365,34368
6366,34240
6367,34112
6368,33984
6369,33856
6370,33792
6371,33664
6372,33600
6373,33536
6374,33536
6375,33600
6376,33664
6377,33728
6378,33792
6379,33856
6380,33920
6381,33984
6382,33984
6383,34048
6384,34048
6385,33984
6386,33920
6387,33856
6388,33920
6389,34176
6390,34752
6391,35712
6392,37120
6393,38464
6394,39424
6395,39360
6396,37824
6397,35456
6398,32960
6399,31168
6400,30272
6401,30144
6402,30592
6403,31424
6404,32256
6405,32960
6406,33536
6407,33920
6408,34240
6409,34368
6410,34432
6411,34496
6412,34496
6413,34368
6414,34304
6415,34240
6416,34176
6417,34176
6418,34176
6419,34112
6420,34176
6421,34176
6422,34176
6423,34176
6424,34176
6425,34304
6426,34304
6427,34240
6428,34240
6429,34304
6430,34240
6431,34240
6432,34304
6433,34368
6434,34368
6435,34432
6436,34560
6437,34624
6438,34688
6439,34688
6440,34688
6441,34752
6442,34752
6443,34688
6444,34688
6445,34752
6446,34752
6447,34624
6448,34624
6449,34624
6450,34560
6451,34432
6452,34304
6453,34304
6454,34304
6455,34304
6456,34240
6457,34176
6458,34240
6459,34176
6460,34176
6461,34112
6462,34048
6463,33984
6464,33920
6465,33984
6466,33984
6467,33984
6468,33856
6469,33792
6470,33792
6471,33856
6472,33920
6473,33984
6474,34048
6475,34048
6476,33984
6477,33984
6478,33984
6479,33984
6480,34048
6481,34048
6482,34048
6483,34048
6484,34048
6485,34112
6486,34112
6487,34112
6488,34112
6489,34112
6490,34112
6491,34112
6492,34112
6493,34112
6494,34048
6495,34048
6496,34112
6497,34048
6498,34048
6499,33984
6500,33920
6501,33856
6502,33856
6503,33856
6504,33920
6505,33984
6506,33920
6507,33920
6508,33984
6509,33984
6510,33920
6511,33920
6512,33984
6513,34048
6514,34048
6515,34048
6516,33984
6517,33920
6518,34048
6519,34048
6520,34112
6521,34240
6522,34240
6523,34240
6524,34176
6525,34176
6526,34112
6527,34112
6528,34240
6529,34368
6530,34368
6531,34368
6532,34368
6533,34368
6534,34304
6535,34176
6536,34112
6537,34048
6538,33984
6539,33920
6540,33792
6541,33728
6542,33728
6543,33728
6544,33728
6545,33792
6546,33792
6547,33792
6548,33856
6549,33984
6550,34048
6551,34048
6552,34048
6553,34048
6554,34048
6555,33984
6556,33920
6557,33984
6558,34112
6559,34432
6560,35136
6561,36160
6562,37568
6563,38912
6564,39360
6565,38528
6566,36672
6567,34304
6568,32256
6569,30976
6570,30464
6571,30592
6572,31168
6573,31936
6574,32768
6575,33472
6576,33856
6577,34240
6578,34496
6579,34624
6580,34624
6581,34560
6582,34432
6583,34432
6584,34432
6585,34368
6586,34368
6587,34304
6588,34304
6589,34304
6590,34304
6591,34304
6592,34304
6593,34240
6594,34176
6595,34176
6596,34176
6597,34240
6598,34240
6599,34304
6600,34368
6601,34432
6602,34432
6603,34432
6604,34496
6605,34560
6606,34560
6607,34560
6608,34624
6609,34688
6610,34688
6611,34688
6612,34752
6613,34816
6614,34752
6615,34752
6616,34688
6617,34624
6618,34560
6619,34496
6620,34432
6621,34368
6622,34304
6623,34240
6624,34240
6625,34240
6626,34240
6627,34240
6628,34176
6629,34112
6630,34112
6631,34048
6632,34048
6633,34048
6634,34048
6635,33984
6636,33920
6637,33856
6638,33792
6639,33792
6640,33728
6641,33792
6642,33856
6643,33920
6644,33984
6645,34112
6646,34112
6647,34112
6648,34112
6649,34176
6650,34176
6651,34176
6652,34176
6653,34176
6654,34176
6655,34176
6656,34176
6657,34176
6658,34176
6659,34112
6660,34048
6661,33984
6662,34048
6663,34112
6664,34112
6665,34112
6666,34112
6667,34048
6668,33920
6669,33920
6670,33984
6671,33984
6672,33920
6673,33984
6674,34048
6675,34048
6676,34048
6677,33984
6678,33984
6679,34048
6680,33984
6681,33984
6682,33984
6683,34048
6684,33984
6685,33984
6686,34048
6687,34112
6688,34176
6689,34176
6690,34176
6691,34176
6692,34176
6693,34176
6694,34176
6695,34240
6696,34304
6697,34304
6698,34368
6699,34432
6700,34432
6701,34304
6702,34112
6703,33920
6704,33856
6705,33792
6706,33728
6707,33728
6708,33728
6709,33664
6710,33664
6711,33728
6712,33728
6713,33728
6714,33792
6715,33920
6716,34048
6717,34048
6718,33984
6719,34048
6720,34048
6721,34048
6722,33984
6723,33856
6724,33856
6725,34048
6726,34560
6727,35200
6728,36416
6729,37888
6730,39104
6731,39424
6732,38464
6733,36416
6734,33920
6735,31872
6736,30720
6737,30336
6738,30528
6739,31104
6740,32000
6741,32832
6742,33472
6743,33920
6744,34240
6745,34432
6746,34496
6747,34496
6748,34496
6749,34432
6750,34432
6751,34368
6752,34304
6753,34304
6754,34304
6755,34240
6756,34176
6757,34112
6758,34112
6759,34112
6760,34112
6761,34112
6762,34112
6763,34240
6764,34304
6765,34304
6766,34304
6767,34304
6768,34304
6769,34304
6770,34432
6771,34496
6772,34496
6773,34560
6774,34624
6775,34624
6776,34624
6777,34688
6778,34688
6779,34752
6780,34752
6781,34688
6782,34688
6783,34752
6784,34688
6785,34560
6786,34496
6787,34432
6788,34368
6789,34240
6790,34304
6791,34304
6792,34304
6793,34304
6794,34304
6795,34240
6796,34240
6797,34176
6798,34048
6799,33984
6800,33920
6801,33792
6802,33792
6803,33856
6804,33856
6805,33856
6806,33728
6807,33728
6808,33856
6809,33856
6810,33920
6811,33920
6812,33984
6813,33984
6814,33984
6815,34048
6816,34112
6817,34112
6818,34112
6819,34176
6820,34176
6821,34176
6822,34176
6823,34112
6824,34112
6825,34112
6826,34112
6827,34048
6828,34048
6829,34048
6830,34048
6831,33984
6832,33984
6833,33984
6834,33920
6835,33920
6836,33920
6837,33984
6838,33920
6839,33920
6840,33984
6841,33984
6842,33984
6843,33920
6844,33920
6845,33984
6846,33984
6847,33984
6848,33920
6849,33920
6850,33920
6851,33920
6852,33920
6853,33920
6854,33920
6855,33984
6856,33920
6857,33920
6858,33984
6859,33920
6860,33920
6861,33920
6862,33984
6863,34048
6864,34048
6865,34112
6866,34112
6867,34112
6868,34048
6869,34112
6870,34176
6871,34176
6872,34112
6873,34048
6874,34048
6875,34112
6876,34176
6877,34112
6878,34176
6879,34240
6880,34240
6881,34176
6882,34176
6883,34112
6884,34048
6885,33920
6886,33856
6887,33792
6888,33728
6889,33664
6890,33664
6891,33792
6892,33856
6893,33856
6894,33856
6895,33920
6896,33920
6897,33920
6898,33984
6899,34048
6900,34048
6901,33984
6902,33984
6903,33920
6904,33984
6905,34304
6906,34816
6907,35584
6908,36864
6909,38400
6910,39488
6911,39680
6912,38464
6913,36160
6914,33536
6915,31488
6916,30400
6917,30144
6918,30464
6919,31232
6920,32064
6921,32896
6922,33408
6923,33920
6924,34240
6925,34496
6926,34624
6927,34624
6928,34624
6929,34624
6930,34496
6931,34368
6932,34368
6933,34304
6934,34304
6935,34176
6936,34176
6937,34176
6938,34112
6939,34112
6940,34176
6941,34240
6942,34304
6943,34240
6944,34240
6945,34304
6946,34304
6947,34304
6948,34304
6949,34432
6950,34560
6951,34496
6952,34496
6953,34560
6954,34624
6955,34624
6956,34624
6957,34688
6958,34752
6959,34752
6960,34688
6961,34688
6962,34688
6963,34688
6964,34688
6965,34624
6966,34560
6967,34496
6968,34432
6969,34304
6970,34304
6971,34304
6972,34240
6973,34240
6974,34240
6975,34176
6976,34112
6977,34112
6978,34048
6979,34048
6980,33984
6981,33984
6982,33920
6983,33856
6984,33792
6985,33728
6986,33728
6987,33792
6988,33792
6989,33856
6990,33984
6991,33984
6992,34048
6993,33984
6994,33984
6995,34048
6996,34048
6997,33984
6998,33984
6999,34048
7000,34112
7001,34176
7002,34112
7003,34112
7004,34112
7005,34048
7006,34048
7007,34048
7008,34048
7009,34048
7010,34048
7011,34048
7012,34048
7013,33984
7014,33920
7015,33920
7016,33984
7017,33984
7018,33984
7019,33920
7020,33920
7021,33920
7022,33920
7023,33856
7024,33856
7025,33920
7026,33920
7027,33856
7028,33920
7029,33920
7030,33856
7031,33792
7032,33856
7033,33856
7034,33920
7035,33920
7036,33984
7037,33984
7038,33920
7039,33920
7040,33920
7041,33984
7042,34048
7043,33984
7044,33984
7045,34048
7046,34112
7047,34112
7048,34176
7049,34176
7050,34112
7051,34048
7052,34048
7053,34112
7054,34112
7055,34176
7056,34304
7057,34304
7058,34176
7059,34048
7060,33984
7061,33920
7062,33856
7063,33792
7064,33664
7065,33664
7066,33664
7067,33728
7068,33728
7069,33792
7070,33856
7071,33920
7072,33920
7073,33984
7074,33984
7075,33984
7076,33984
7077,33984
7078,33984
7079,33920
7080,33920
7081,33984
7082,34304
7083,34880
7084,35840
7085,37184
7086,38720
7087,39616
7088,39424
7089,37888
7090,35520
7091,33024
7092,31232
7093,30336
7094,30208
7095,30656
7096,31424
7097,32256
7098,32960
7099,33600
7100,34112
7101,34368
7102,34560
7103,34624
7104,34688
7105,34624
7106,34496
7107,34432
7108,34368
7109,34304
7110,34240
7111,34176
7112,34176
7113,34176
7114,34112
7115,34176
7116,34240
7117,34240
7118,34240
7119,34304
7120,34304
7121,34304
7122,34304
7123,34304
7124,34368
7125,34368
7126,34432
7127,34432
7128,34496
7129,34560
7130,34624
7131,34624
7132,34688
7133,34688
7134,34752
7135,34752
7136,34752
7137,34752
7138,34688
7139,34624
7140,34688
7141,34624
7142,34560
7143,34496
7144,34432
7145,34432
7146,34368
7147,34304
7148,34240
7149,34240
7150,34304
7151,34304
7152,34240
7153,34240
7154,34240
7155,34176
7156,34048
7157,34048
7158,33984
7159,33920
7160,33920
7161,33856
7162,33856
7163,33792
7164,33792
7165,33792
7166,33856
7167,33920
7168,33920
7169,33920
7170,33984
7171,33984
7172,34048
7173,34048
7174,34112
7175,34176
7176,34176
7177,34112
7178,34112
7179,34176
7180,34176
7181,34176
7182,34112
7183,34112
7184,34048
7185,33984
7186,33984
7187,34048
7188,34048
7189,33984
7190,33984
7191,33984
7192,33984
7193,33920
7194,33920
7195,34048
7196,34048
7197,34048
7198,34048
7199,34048
7200,33984
7201,33920
7202,33984
7203,33984
7204,33984
7205,34048
7206,34048
7207,34112
7208,34048
7209,33984
7210,33920
7211,33920
7212,33920
7213,33984
7214,33984
7215,34048
7216,34048
7217,34112
7218,34112
7219,34176
7220,34176
7221,34176
7222,34112
7223,34112
7224,34176
7225,34240
7226,34240
7227,34368
7228,34368
7229,34368
7230,34240
7231,34048
7232,33984
7233,33856
7234,33792
7235,33728
7236,33728
7237,33728
7238,33728
7239,33728
7240,33728
7241,33792
7242,33856
7243,33920
7244,33984
7245,34048
7246,34048
7247,34048
7248,34048
7249,34048
7250,34112
7251,34112
7252,34048
7253,34176
7254,34496
7255,34944
7256,35840
7257,37120
7258,38464
7259,39168
7260,38656
7261,36992
7262,34688
7263,32704
7264,31232
7265,30528
7266,30528
7267,30912
7268,31680
7269,32512
7270,33280
7271,33856
7272,34240
7273,34496
7274,34688
7275,34752
7276,34688
7277,34624
7278,34560
7279,34496
7280,34432
7281,34304
7282,34240
7283,34176
7284,34048
7285,34048
7286,34048
7287,34112
7288,34176
7289,34240
7290,34240
7291,34240
7292,34304
7293,34240
7294,34304
7295,34368
7296,34432
7297,34496
7298,34560
7299,34624
7300,34688
7301,34624
7302,34624
7303,34688
7304,34752
7305,34688
7306,34624
7307,34624
7308,34624
7309,34624
7310,34624
7311,34624
7312,34624
7313,34624
7314,34560
7315,34496
7316,34560
7317,34496
7318,34432
7319,34432
7320,34432
7321,34304
7322,34240
7323,34176
7324,34112
7325,34112
7326,33984
7327,33984
7328,33984
7329,33920
7330,33920
7331,33856
7332,33856
7333,33856
7334,33856
7335,33856
7336,33920
7337,33984
7338,34048
7339,34048
7340,34112
7341,34112
7342,34048
7343,34048
7344,33984
7345,34048
7346,34048
7347,34112
7348,34176
7349,34176
7350,34176
7351,34112
7352,34112
7353,34112
7354,34176
7355,34112
7356,34048
7357,34048
7358,34112
7359,34112
7360,34048
7361,34048
7362,34112
7363,34048
7364,33984
7365,33984
7366,33984
7367,33984
7368,33920
7369,33920
7370,33984
7371,33984
7372,33920
7373,33984
7374,33984
7375,33984
7376,33920
7377,33920
7378,33984
7379,33984
7380,33984
7381,34048
7382,34112
7383,34176
7384,34176
7385,34176
7386,34240
7387,34240
7388,34176
7389,34112
7390,34048
7391,34112
7392,34176
7393,34176
7394,34304
7395,34368
7396,34304
7397,34176
7398,34112
7399,34048
7400,34048
7401,33920
7402,33856
7403,33792
7404,33792
7405,33728
7406,33728
7407,33792
7408,33856
7409,33856
7410,33920
7411,33920
7412,33984
7413,33984
7414,33984
7415,34048
7416,34112
7417,34112
7418,33984
7419,33856
7420,33984
7421,34304
7422,34816
7423,35712
7424,37056
7425,38528
7426,39424
7427,39168
7428,37632
7429,35328
7430,32960
7431,31360
7432,30528
7433,30336
7434,30784
7435,31488
7436,32320
7437,33152
7438,33728
7439,34176
7440,34432
7441,34624
7442,34688
7443,34688
7444,34624
7445,34560
7446,34496
7447,34368
7448,34304
7449,34240
7450,34176
7451,34112
7452,34112
7453,34112
7454,34112
7455,34112
7456,34112
7457,34176
7458,34240
7459,34304
7460,34368
7461,34432
7462,34432
7463,34432
7464,34432
7465,34496
7466,34496
7467,34560
7468,34560
7469,34624
7470,34688
7471,34688
7472,34688
7473,34688
7474,34752
7475,34752
7476,34688
7477,34688
7478,34688
7479,34688
7480,34624
7481,34560
7482,34560
7483,34496
7484,34368
7485,34304
7486,34240
7487,34240
7488,34176
7489,34176
7490,34176
7491,34176
7492,34176
7493,34048
7494,33984
7495,33920
7496,33920
7497,33856
7498,33856
7499,33856
7500,33856
7501,33856
7502,33856
7503,33856
7504,33856
7505,33920
7506,33920
7507,33920
7508,33984
7509,34048
7510,33984
7511,34048
7512,34112
7513,34176
7514,34176
7515,34112
7516,34048
7517,34048
7518,33984
7519,34048
7520,34048
7521,34112
7522,34112
7523,34112
7524,34112
7525,34112
7526,34048
7527,33984
7528,33984
7529,33984
7530,33984
7531,33984
7532,33984
7533,33984
7534,33984
7535,33920
7536,33920
7537,33856
7538,33920
7539,33920
7540,33984
7541,33984
7542,33920
7543,33856
7544,33856
7545,33920
7546,33984
7547,33984
7548,33984
7549,34048
7550,34048
7551,34048
7552,34048
7553,34112
7554,34112
7555,34112
7556,34176
7557,34176
7558,34112
7559,34048
7560,34048
7561,34112
7562,34240
7563,34240
7564,34176
7565,34048
7566,33984
7567,33920
7568,33920
7569,33856
7570,33792
7571,33728
7572,33728
7573,33728
7574,33792
7575,33792
7576,33792
7577,33856
7578,33920
7579,33984
7580,33984
7581,33920
7582,33984
7583,33984
7584,33920
7585,33984
7586,33920
7587,33920
7588,33984
7589,34240
7590,34688
7591,35456
7592,36736
7593,38144
7594,39296
7595,39616
7596,38464
7597,36288
7598,33664
7599,31616
7600,30464
7601,30144
7602,30400
7603,31104
7604,32000
7605,32768
7606,33472
7607,34176
7608,34432
7609,34560
7610,34688
7611,34688
7612,34624
7613,34560
7614,34432
7615,34368
7616,34240
7617,34176
7618,34112
7619,34112
7620,34112
7621,34112
7622,34240
7623,34240
7624,34240
7625,34240
7626,34240
7627,34240
7628,34304
7629,34368
7630,34432
7631,34496
7632,34496
7633,34432
7634,34432
7635,34432
7636,34560
7637,34624
7638,34624
7639,34624
7640,34624
7641,34752
7642,34816
7643,34816
7644,34752
7645,34688
7646,34688
7647,34560
7648,34496
7649,34496
7650,34560
7651,34560
7652,34432
7653,34368
7654,34304
7655,34304
7656,34240
7657,34240
7658,34240
7659,34240
7660,34176
7661,34048
7662,34048
7663,33984
7664,33920
7665,33920
7666,33920
7667,33920
7668,33792
7669,33792
7670,33856
7671,33856
7672,33856
7673,33856
7674,33984
7675,34048
7676,34048
7677,34048
7678,34112
7679,34176
7680,34176
7681,34176
7682,34112
7683,33984
7684,33920
7685,33920
7686,33984
7687,33984
7688,33984
7689,33984
7690,34048
7691,34112
7692,34112
7693,34048
7694,34112
7695,34176
7696,34176
7697,34112
7698,34048
7699,34048
7700,34048
7701,33984
7702,33984
7703,34048
7704,34048
7705,33920
7706,33920
7707,33920
7708,33984
7709,33920
7710,33856
7711,33856
7712,33856
7713,33920
7714,33920
7715,33984
7716,33984
7717,33920
7718,33920
7719,33920
7720,33920
7721,34048
7722,34112
7723,34176
7724,34176
7725,34240
7726,34240
7727,34240
7728,34176
7729,34112
7730,34048
7731,33984
7732,34048
7733,34112
7734,34112
7735,34048
7736,34112
7737,34176
7738,34112
7739,34112
7740,34048
7741,34048
7742,34048
7743,33984
7744,33984
7745,33984
7746,33984
7747,33920
7748,33792
7749,33664
7750,33728
7751,33792
7752,33792
7753,33792
7754,33792
7755,33792
7756,33792
7757,33920
7758,33920
7759,33920
7760,33856
7761,33856
7762,33920
7763,34176
7764,34624
7765,35392
7766,36608
7767,38016
7768,39104
7769,39232
7770,38144
7771,36032
7772,32768
7773,31424
7774,30464
7775,30080
7776,30336
7777,30976
7778,31808
7779,32576
7780,33152
7781,33600
7782,33984
7783,34304
7784,34432
7785,34496
7786,34496
7787,34496
7788,34432
7789,34304
7790,34240
7791,34176
7792,34240
7793,34240
7794,34240
7795,34304
7796,34368
7797,34240
7798,34176
7799,34176
7800,34176
7801,34176
7802,34112
7803,34048
7804,34048
7805,34112
7806,34112
7807,34176
7808,34240
7809,34432
7810,34496
7811,34624
7812,34752
7813,34816
7814,34816
7815,34880
7816,34944
7817,35008
7818,34944
7819,34816
7820,34688
7821,34624
7822,34496
7823,34432
7824,34368
7825,34304
7826,34304
7827,34304
7828,34304
7829,34304
7830,34304
7831,34304
7832,34304
7833,34304
7834,34304
7835,34240
7836,34176
7837,34240
7838,34176
7839,34112
7840,34048
7841,34048
7842,34048
7843,34112
7844,34048
7845,34048
7846,33984
7847,33984
7848,33984
7849,34048
7850,34048
7851,34112
7852,34112
7853,34112
7854,34176
7855,34240
7856,34240
7857,34304
7858,34240
7859,34240
7860,34176
7861,34112
7862,34048
7863,33984
7864,33984
7865,33984
7866,33984
7867,33984
7868,33984
7869,33984
7870,33984
7871,33920
7872,33920
7873,33920
7874,33920
7875,33984
7876,33984
7877,33984
7878,33920
7879,33856
7880,33792
7881,33792
7882,33856
7883,33920
7884,33920
7885,33856
7886,33792
7887,33728
7888,33792
7889,33856
7890,33920
7891,34048
7892,34240
7893,34240
7894,34176
7895,34112
7896,33984
7897,33984
7898,34048
7899,34112
7900,34176
7901,34304
7902,34304
7903,34304
7904,34240
7905,34112
7906,34048
7907,33920
7908,33920
7909,33792
7910,33728
7911,33664
7912,33664
7913,33664
7914,33728
7915,33664
7916,33664
7917,33728
7918,33792
7919,33856
7920,33984
7921,34048
7922,34048
7923,34048
7924,34112
7925,34112
7926,34176
7927,34112
7928,34240
7929,34560
7930,35072
7931,35968
7932,37248
7933,38656
7934,39488
7935,39296
7936,37824
7937,34560
7938,32960
7939,31296
7940,30400
7941,30272
7942,30720
7943,31488
7944,32320
7945,33088
7946,33728
7947,34176
7948,34432
7949,34624
7950,34624
7951,34624
7952,34560
7953,34560
7954,34496
7955,34432
7956,34368
7957,34368
7958,34368
7959,34368
7960,34368
7961,34304
7962,34240
7963,34240
7964,34240
7965,34304
7966,34304
7967,34304
7968,34304
7969,34240
7970,34304
7971,34304
7972,34304
7973,34368
7974,34496
7975,34624
7976,34688
7977,34688
7978,34752
7979,34816
7980,34816
7981,34752
7982,34752
7983,34752
7984,34752
7985,34688
7986,34752
7987,34752
7988,34688
7989,34624
7990,34624
7991,34624
7992,34496
7993,34368
7994,34304
7995,34368
7996,34304
7997,34240
7998,34176
7999,34112
8000,34112
8001,34048
8002,33984
8003,33984
8004,33920
8005,33856
8006,33856
8007,33920
8008,33984
8009,33920
8010,33920
8011,33920
8012,34048
8013,33984
8014,33920
8015,33920
8016,33984
8017,34048
8018,34112
8019,34112
8020,34176
8021,34176
8022,34176
8023,34176
8024,34240
8025,34240
8026,34176
8027,34112
8028,34112
8029,34176
8030,34112
8031,34048
8032,34048
8033,34048
8034,34048
8035,33984
8036,33984
8037,33984
8038,33984
8039,33984
8040,33984
8041,33984
8042,33984
8043,33920
8044,33920
8045,33984
8046,33984
8047,33984
8048,33984
8049,33920
8050,33920
8051,33920
8052,33856
8053,33856
8054,33856
8055,33920
8056,33920
8057,34048
8058,34112
8059,34176
8060,34112
8061,34176
8062,34176
8063,34176
8064,34112
8065,34048
8066,34048
8067,34048
8068,34048
8069,34048
8070,34112
8071,34112
8072,34112
8073,34112
8074,34112
8075,34048
8076,34048
8077,34048
8078,33984
8079,33792
8080,33664
8081,33600
8082,33664
8083,33728
8084,33728
8085,33792
8086,33792
8087,33920
8088,33920
8089,33920
8090,33984
8091,34048
8092,34048
8093,34048
8094,34112
8095,34112
8096,34048
8097,34048
8098,34240
8099,34688
8100,35456
8101,36544
8102,38720
8103,39296
8104,39808
8105,39040
8106,37056
8107,34432
8108,32128
8109,30656
8110,30016
8111,30208
8112,30976
8113,31872
8114,32704
8115,33408
8116,33984
8117,34368
8118,34560
8119,34688
8120,34752
8121,34752
8122,34688
8123,34624
8124,34432
8125,34304
8126,34176
8127,34112
8128,34176
8129,34240
8130,34176
8131,34176
8132,34176
8133,34112
8134,34112
8135,34176
8136,34304
8137,34432
8138,34432
8139,34368
8140,34432
8141,34496
8142,34496
8143,34560
8144,34624
8145,34752
8146,34816
8147,34688
8148,34624
8149,34688
8150,34752
8151,34688
8152,34624
8153,34688
8154,34688
8155,34688
8156,34688
8157,34688
8158,34688
8159,34560
8160,34496
8161,34496
8162,34560
8163,34560
8164,34432
8165,34368
8166,34432
8167,34240
8168,34176
8169,34048
8170,33920
8171,33792
8172,33728
8173,33728
8174,33728
8175,33600
8176,33600
8177,33536
8178,33536
8179,33664
8180,33664
8181,33664
8182,33792
8183,33856
8184,33920
8185,33984
8186,33984
8187,33984
8188,33920
8189,33920
8190,34048
8191,34112
8192,34112
8193,34048
8194,34112
8195,34112
8196,34112
8197,34240
8198,34240
8199,34176
8200,34048
8201,33920
8202,33984
8203,34112
8204,34048
8205,33920
8206,33920
8207,33984
8208,33920
8209,33984
8210,33984
8211,33984
8212,33984
8213,33984
8214,34048
8215,34048
8216,34048
8217,33920
8218,33920
8219,33920
8220,33920
8221,33856
8222,33856
8223,33792
8224,33792
8225,33920
8226,33856
8227,34048
8228,34112
8229,34112
8230,34176
8231,34176
8232,34240
8233,34240
8234,34176
8235,34112
8236,34112
8237,34112
8238,34112
8239,34176
8240,34304
8241,34240
8242,34176
8243,34112
8244,34112
8245,34048
8246,33920
8247,33856
8248,33856
8249,33792
8250,33664
8251,33728
8252,33856
8253,33856
8254,33792
8255,33856
8256,33792
8257,33984
8258,33984
8259,33984
8260,33984
8261,34048
8262,34048
8263,34048
8264,33984
8265,33920
8266,34048
8267,34368
8268,35072
8269,36224
8270,37888
8271,38080
8272,39680
8273,38848
8274,36864
8275,34368
8276,32192
8277,30912
8278,30336
8279,30464
8280,31040
8281,31808
8282,32640
8283,33280
8284,33792
8285,34176
8286,34176
8287,34560
8288,34624
8289,34560
8290,34496
8291,34368
8292,34304
8293,34304
8294,34304
8295,34304
8296,34240
8297,34240
8298,34304
8299,34304
8300,34240
8301,34240
8302,34240
8303,34240
8304,34304
8305,34304
8306,34368
8307,34368
8308,34368
8309,34368
8310,34368
8311,34432
8312,34496
8313,34560
8314,34560
8315,34624
8316,34560
8317,34560
8318,34624
8319,34688
8320,34752
8321,34752
8322,34752
8323,34688
8324,34624
8325,34560
8326,34496
8327,34496
8328,34496
8329,34432
8330,34368
8331,34304
8332,34304
8333,34240
8334,34240
8335,34240
8336,34176
8337,34112
8338,34048
8339,34048
8340,34048
8341,33920
8342,33792
8343,33792
8344,33792
8345,33792
8346,33792
8347,33792
8348,33856
8349,33984
8350,34048
8351,34112
8352,34304
8353,34240
8354,34112
8355,34048
8356,34112
8357,34176
8358,34176
8359,34112
8360,34112
8361,34048
8362,34112
8363,34112
8364,34112
8365,34112
8366,34112
8367,34048
8368,34048
8369,34048
8370,34048
8371,33984
8372,33984
8373,33984
8374,33984
8375,33984
8376,33984
8377,34048
8378,34048
8379,33984
8380,33984
8381,33984
8382,34048
8383,34048
8384,34048
8385,34048
8386,33984
8387,33920
8388,33920
8389,33920
8390,33984
8391,33984
8392,33984
8393,33984
8394,34048
8395,34112
8396,34112
8397,34048
8398,34112
8399,34112
8400,34112
8401,34048
8402,34048
8403,34112
8404,34112
8405,34112
8406,34176
8407,34304
8408,34304
8409,34304
8410,34240
8411,34240
8412,34176
8413,33984
8414,33920
8415,33792
8416,33728
8417,33664
8418,33664
8419,33728
8420,33792
8421,33856
8422,33856
8423,33856
8424,33856
8425,33920
8426,33984
8427,34048
8428,34048
8429,33920
8430,33920
8431,33856
8432,33856
8433,33856
8434,34112
8435,34560
8436,35520
8437,36608
8438,38016
8439,38976
8440,38976
8441,37696
8442,35584
8443,33408
8444,31808
8445,30976
8446,30656
8447,30848
8448,31424
8449,32256
8450,32960
8451,33600
8452,34048
8453,34240
8454,34368
8455,34496
8456,34560
8457,34624
8458,34560
8459,34432
8460,34368
8461,34304
8462,34240
8463,34176
8464,34176
8465,34112
8466,34112
8467,34112
8468,34112
8469,34112
8470,34176
8471,34176
8472,34240
8473,34240
8474,34304
8475,34368
8476,34432
8477,34496
8478,34560
8479,34560
8480,34624
8481,34624
8482,34624
8483,34624
8484,34624
8485,34688
8486,34752
8487,34688
8488,34624
8489,34688
8490,34688
8491,34624
8492,34560
8493,34560
8494,34560
8495,34496
8496,34432
8497,34368
8498,34368
8499,34368
8500,34240
8501,34176
8502,34176
8503,34240
8504,34176
8505,34112
8506,34112
8507,34048
8508,34048
8509,33920
8510,33920
8511,33920
8512,33856
8513,33792
8514,33728
8515,33792
8516,33856
8517,33856
8518,33920
8519,33984
8520,33984
8521,33984
8522,34048
8523,34112
8524,34176
8525,34176
8526,34176
8527,34176
8528,34112
8529,34048
8530,34048
8531,34048
8532,34112
8533,34112
8534,34112
8535,34112
8536,34112
8537,34112
8538,34048
8539,34048
8540,34112
8541,34112
8542,34048
8543,34048
8544,34048
8545,34048
8546,33984
8547,34048
8548,34048
8549,33984
8550,33920
8551,33856
8552,33920
8553,33920
8554,33920
8555,33920
8556,33984
8557,34048
8558,34048
8559,34048
8560,34176
8561,34304
8562,34240
8563,34240
8564,34240
8565,34240
8566,34240
8567,34176
8568,34176
8569,34304
8570,34368
8571,34176
8572,34048
8573,33920
8574,33856
8575,33856
8576,33792
8577,33728
8578,33664
8579,33664
8580,33664
8581,33728
8582,33792
8583,33856
8584,33856
8585,33920
8586,33984
8587,33984
8588,34048
8589,34048
8590,34112
8591,34048
8592,33984
8593,33984
8594,33984
8595,34048
8596,34112
8597,34560
8598,35264
8599,36352
8600,37760
8601,38976
8602,39232
8603,38208
8604,36160
8605,33792
8606,31872
8607,30784
8608,30400
8609,30592
8610,31232
8611,32128
8612,32896
8613,33536
8614,33984
8615,34304
8616,34496
8617,34624
8618,34688
8619,34624
8620,34560
8621,34496
8622,34432
8623,34368
8624,34240
8625,34176
8626,34176
8627,34176
8628,34176
8629,34176
8630,34240
8631,34240
8632,34240
8633,34176
8634,34112
8635,34176
8636,34240
8637,34304
8638,34304
8639,34368
8640,34432
8641,34432
8642,34432
8643,34496
8644,34560
8645,34624
8646,34688
8647,34688
8648,34752
8649,34752
8650,34752
8651,34688
8652,34752
8653,34752
8654,34688
8655,34560
8656,34496
8657,34432
8658,34368
8659,34304
8660,34304
8661,34304
8662,34240
8663,34240
8664,34240
8665,34112
8666,34048
8667,33920
8668,33920
8669,33856
8670,33920
8671,33856
8672,33792
8673,33728
8674,33664
8675,33600
8676,33664
8677,33728
8678,33856
8679,33856
8680,33856
8681,33920
8682,33920
8683,33984
8684,33984
8685,33984
8686,33984
8687,34048
8688,33984
8689,33984
8690,33984
8691,33984
8692,33984
8693,34048
8694,34112
8695,34112
8696,34112
8697,34112
8698,34112
8699,34112
8700,34112
8701,33984
8702,33984
8703,33984
8704,33984
8705,34048
8706,33984
8707,33984
8708,33920
8709,33920
8710,33920
8711,33984
8712,33920
8713,33920
8714,33856
8715,33920
8716,33920
8717,33984
8718,33984
8719,34048
8720,34112
8721,34112
8722,34176
8723,34176
8724,34176
8725,34112
8726,34112
8727,34112
8728,34176
8729,34176
8730,34176
8731,34240
8732,34176
8733,34048
8734,33984
8735,33920
8736,33856
8737,33792
8738,33664
8739,33600
8740,33600
8741,33600
8742,33600
8743,33664
8744,33728
8745,33792
8746,33856
8747,33856
8748,33920
8749,33920
8750,33920
8751,33920
8752,33984
8753,33984
8754,33920
8755,33856
8756,33920
8757,34176
8758,34752
8759,35648
8760,37056
8761,38592
8762,39616
8763,39424
8764,37888
8765,35520
8766,32832
8767,30976
8768,30016
8769,29952
8770,30464
8771,31296
8772,32192
8773,32960
8774,33600
8775,33984
8776,34240
8777,34432
8778,34560
8779,34560
8780,34496
8781,34432
8782,34368
8783,34240
8784,34176
8785,34112
8786,34048
8787,33984
8788,33920
8789,33920
8790,33984
8791,33984
8792,34048
8793,34048
8794,34112
8795,34240
8796,34240
8797,34240
8798,34240
8799,34240
8800,34240
8801,34240
8802,34304
8803,34432
8804,34496
8805,34560
8806,34624
8807,34624
8808,34624
8809,34624
8810,34624
8811,34624
8812,34624
8813,34560
8814,34560
8815,34560
8816,34432
8817,34432
8818,34368
8819,34368
8820,34304
8821,34240
8822,34240
8823,34176
8824,34112
8825,34048
8826,33984
8827,33920
8828,33920
8829,33856
8830,33856
8831,33728
8832,33728
8833,33728
8834,33664
8835,33600
8836,33600
8837,33664
8838,33664
8839,33664
8840,33728
8841,33728
8842,33664
8843,33728
8844,33792
8845,33856
8846,33856
8847,33920
8848,33984
8849,33984
8850,33984
8851,33920
8852,33920
8853,33920
8854,33920
8855,33920
8856,34048
8857,34048
8858,33920
8859,33856
8860,33792
8861,33728
8862,33664
8863,33600
8864,33600
8865,33664
8866,33664
8867,33728
8868,33792
8869,33792
8870,33856
8871,33792
8872,33792
8873,33792
8874,33792
8875,33792
8876,33856
8877,33856
8878,33920
8879,33920
8880,33984
8881,33984
8882,33984
8883,33920
8884,33856
8885,33920
8886,33984
8887,34048
8888,34048
8889,34112
8890,34048
8891,33920
8892,33792
8893,33664
8894,33664
8895,33664
8896,33664
8897,33600
8898,33536
8899,33472
8900,33536
8901,33536
8902,33600
8903,33664
8904,33728
8905,33792
8906,33792
8907,33856
8908,33856
8909,33856
8910,33856
8911,33856
8912,33792
8913,33664
8914,33600
8915,33792
8916,34112
8917,34688
8918,35648
8919,36992
8920,38400
8921,39168
8922,38720
8923,37120
8924,34816
8925,32576
8926,31040
8927,30336
8928,30272
8929,30720
8930,31488
8931,32448
8932,33088
8933,33664
8934,34048
8935,34304
8936,34496
8937,34560
8938,34560
8939,34560
8940,34560
8941,34432
8942,34304
8943,34176
8944,34048
8945,34048
8946,33984
8947,33920
8948,33920
8949,33920
8950,33984
8951,33920
8952,33984
8953,34048
8954,34112
8955,34176
8956,34176
8957,34304
8958,34368
8959,34432
8960,34496
8961,34560
8962,34560
8963,34496
8964,34496
8965,34560
8966,34624
8967,34624
8968,34560
8969,34560
8970,34560
8971,34560
8972,34560
8973,34496
8974,34496
8975,34496
8976,34432
8977,34368
8978,34368
8979,34304
8980,34304
8981,34240
8982,34112
8983,34048
8984,33984
8985,33984
8986,33984
8987,33920
8988,33920
8989,33856
8990,33792
8991,33728
8992,33664
8993,33664
8994,33600
8995,33600
8996,33600
8997,33600
8998,33664
8999,33728
9000,33792
9001,33856
9002,33856
9003,33920
9004,34048
9005,34048
9006,34048
9007,34048
9008,34048
9009,34048
9010,34048
9011,34048
9012,34048
9013,34048
9014,34048
9015,34048
9016,34048
9017,34048
9018,33984
9019,33920
9020,33920
9021,33920
9022,33856
9023,33920
9024,33984
9025,33984
9026,33984
9027,33920
9028,33920
9029,33920
9030,33920
9031,33984
9032,34112
9033,34112
9034,34112
9035,34112
9036,34176
9037,34176
9038,34176
9039,34240
9040,34304
9041,34240
9042,34240
9043,34240
9044,34176
9045,34048
9046,33920
9047,33856
9048,33792
9049,33728
9050,33664
9051,33600
9052,33600
9053,33664
9054,33728
9055,33792
9056,33920
9057,33920
9058,33984
9059,33984
9060,33984
9061,33984
9062,33984
9063,33984
9064,34048
9065,34048
9066,33984
9067,33856
9068,33792
9069,33984
9070,34496
9071,35200
9072,36352
9073,37760
9074,38784
9075,38848
9076,37632
9077,35520
9078,33536
9079,31872
9080,31040
9081,30720
9082,30848
9083,31360
9084,32128
9085,32896
9086,33536
9087,34048
9088,34304
9089,34496
9090,34624
9091,34624
9092,34496
9093,34432
9094,34368
9095,34368
9096,34304
9097,34240
9098,34240
9099,34240
9100,34176
9101,34112
9102,34112
9103,34176
9104,34176
9105,34240
9106,34240
9107,34304
9108,34304
9109,34304
9110,34304
9111,34368
9112,34368
9113,34496
9114,34560
9115,34624
9116,34624
9117,34624
9118,34624
9119,34688
9120,34688
9121,34688
9122,34752
9123,34752
9124,34752
9125,34688
9126,34624
9127,34624
9128,34560
9129,34496
9130,34432
9131,34368
9132,34368
9133,34304
9134,34304
9135,34240
9136,34240
9137,34240
9138,34112
9139,34048
9140,33984
9141,33984
9142,33920
9143,33856
9144,33856
9145,33856
9146,33792
9147,33728
9148,33792
9149,33792
9150,33792
9151,33792
9152,33856
9153,33920
9154,33984
9155,34112
9156,34112
9157,34176
9158,34176
9159,34176
9160,34112
9161,34112
9162,34176
9163,34112
9164,34176
9165,34176
9166,34112
9167,34048
9168,33984
9169,33984
9170,34048
9171,34048
9172,33984
9173,33984
9174,34048
9175,34112
9176,34112
9177,34112
9178,34176
9179,34112
9180,34112
9181,34176
9182,34176
9183,34176
9184,34176
9185,34176
9186,34176
9187,34112
9188,34048
9189,34048
9190,34048
9191,34048
9192,34112
9193,34176
9194,34304
9195,34368
9196,34432
9197,34368
9198,34304
9199,34176
9200,34112
9201,33984
9202,33920
9203,33856
9204,33792
9205,33728
9206,33664
9207,33728
9208,33728
9209,33728
9210,33792
9211,33856
9212,33920
9213,33920
9214,33920
9215,33920
9216,33920
9217,33856
9218,33920
9219,33920
9220,33920
9221,33920
9222,34048
9223,34432
9224,35008
9225,35904
9226,37312
9227,38784
9228,39424
9229,38976
9230,37312
9231,34880
9232,32768
9233,31296
9234,30528
9235,30464
9236,30912
9237,31616
9238,32384
9239,33088
9240,33600
9241,33984
9242,34240
9243,34432
9244,34496
9245,34496
9246,34496
9247,34496
9248,34432
9249,34368
9250,34304
9251,34368
9252,34304
9253,34304
9254,34368
9255,34304
9256,34240
9257,34112
9258,34112
9259,34048
9260,34112
9261,34176
9262,34240
9263,34240
9264,34304
9265,34368
9266,34368
9267,34432
9268,34496
9269,34560
9270,34688
9271,34816
9272,34880
9273,34880
9274,34816
9275,34752
9276,34688
9277,34752
9278,34816
9279,34688
9280,34624
9281,34560
9282,34496
9283,34496
9284,34432
9285,34368
9286,34368
9287,34304
9288,34240
9289,34176
9290,34240
9291,34240
9292,34240
9293,34240
9294,34176
9295,34048
9296,33920
9297,33856
9298,33792
9299,33728
9300,33664
9301,33664
9302,33728
9303,33728
9304,33728
9305,33792
9306,33856
9307,33920
9308,33920
9309,33984
9310,34048
9311,34176
9312,34176
9313,34176
9314,34240
9315,34304
9316,34304
9317,34176
9318,34176
9319,34112
9320,34048
9321,34048
9322,34048
9323,34048
9324,34048
9325,34048
9326,34048
9327,34048
9328,34048
9329,34048
9330,34048
9331,34048
9332,34048
9333,34048
9334,33984
9335,34048
9336,34048
9337,34048
9338,34048
9339,34112
9340,34176
9341,34176
9342,34240
9343,34304
9344,34368
9345,34240
9346,34112
9347,33984
9348,33984
9349,34048
9350,34112
9351,34112
9352,34176
9353,34240
9354,34240
9355,34176
9356,34112
9357,34112
9358,34048
9359,33920
9360,33920
9361,33856
9362,33792
9363,33728
9364,33728
9365,33792
9366,33856
9367,33920
9368,33984
9369,33984
9370,33984
9371,34048
9372,34112
9373,34048
9374,33984
9375,33856
9376,33792
9377,33728
9378,33728
9379,33792
9380,34112
9381,34816
9382,35712
9383,37056
9384,38528
9385,39616
9386,39680
9387,38336
9388,36032
9389,33536
9390,31552
9391,30528
9392,30272
9393,30656
9394,31424
9395,32192
9396,33024
9397,33536
9398,34048
9399,34304
9400,34496
9401,34560
9402,34624
9403,34560
9404,34560
9405,34496
9406,34560
9407,34432
9408,34240
9409,34112
9410,34048
9411,34048
9412,34112
9413,34048
9414,34112
9415,34112
9416,34176
9417,34176
9418,34304
9419,34432
9420,34432
9421,34432
9422,34432
9423,34496
9424,34496
9425,34560
9426,34688
9427,34752
9428,34752
9429,34816
9430,34816
9431,34880
9432,34944
9433,34944
9434,34880
9435,34816
9436,34752
9437,34560
9438,34496
9439,34432
9440,34368
9441,34368
9442,34240
9443,34176
9444,34176
9445,34176
9446,34176
9447,34176
9448,34176
9449,34176
9450,34112
9451,34112
9452,34048
9453,33984
9454,33920
9455,33920
9456,33920
9457,33856
9458,33792
9459,33728
9460,33728
9461,33728
9462,33728
9463,33728
9464,33792
9465,33792
9466,33728
9467,33728
9468,33664
9469,33728
9470,33792
9471,33856
9472,33920
9473,33984
9474,34048
9475,34112
9476,34112
9477,34112
9478,34112
9479,34112
9480,34176
9481,34176
9482,34240
9483,34176
9484,34176
9485,34176
9486,34176
9487,34112
9488,33984
9489,33920
9490,33920
9491,33792
9492,33856
9493,33856
9494,33856
9495,33920
9496,33920
9497,33984
9498,33984
9499,33984
9500,34048
9501,34112
9502,34176
9503,34304
9504,34304
9505,34304
9506,34368
9507,34368
9508,34304
9509,34112
9510,34112
9511,34176
9512,34176
9513,34176
9514,34176
9515,34176
9516,34240
9517,34176
9518,34112
9519,34048
9520,33984
9521,33920
9522,33856
9523,33856
9524,33856
9525,33856
9526,33856
9527,33920
9528,33984
9529,33984
9530,34048
9531,34048
9532,34048
9533,34048
9534,34048
9535,34048
9536,34048
9537,33984
9538,33920
9539,33920
9540,33920
9541,33920
9542,34112
9543,34496
9544,35264
9545,36480
9546,38016
9547,39104
9548,39296
9549,38144
9550,35840
9551,33216
9552,31168
9553,30144
9554,29824
9555,30144
9556,30848
9557,31744
9558,32576
9559,33280
9560,33792
9561,34240
9562,34432
9563,34496
9564,34560
9565,34624
9566,34624
9567,34496
9568,34368
9569,34304
9570,34240
9571,34176
9572,34176
9573,34112
9574,34112
9575,34048
9576,34048
9577,34048
9578,34048
9579,34048
9580,34112
9581,34176
9582,34240
9583,34240
9584,34304
9585,34432
9586,34432
9587,34496
9588,34560
9589,34624
9590,34688
9591,34752
9592,34816
9593,34816
9594,34880
9595,34880
9596,34816
9597,34752
9598,34752
9599,34816
9600,34752
9601,34688
9602,34624
9603,34560
9604,34496
9605,34496
9606,34496
9607,34560
9608,34560
9609,34432
9610,34432
9611,34368
9612,34304
9613,34304
9614,34240
9615,34304
9616,34240
9617,34112
9618,34048
9619,33984
9620,33920
9621,33856
9622,33792
9623,33792
9624,33920
9625,33984
9626,33984
9627,33984
9628,34048
9629,34048
9630,34048
9631,34112
9632,34240
9633,34240
9634,34240
9635,34304
9636,34304
9637,34368
9638,34304
9639,34304
9640,34368
9641,34368
9642,34304
9643,34240
9644,34240
9645,34240
9646,34304
9647,34176
9648,34112
9649,34112
9650,34048
9651,34112
9652,34048
9653,33984
9654,33984
9655,33920
9656,33984
9657,34112
9658,34176
9659,34176
9660,34176
9661,34176
9662,34240
9663,34240
9664,34112
9665,34048
9666,33984
9667,33920
9668,33984
9669,34112
9670,34304
9671,34432
9672,34432
9673,34368
9674,34240
9675,34112
9676,33984
9677,33856
9678,33728
9679,33600
9680,33472
9681,33344
9682,33344
9683,33408
9684,33536
9685,33600
9686,33728
9687,33728
9688,33792
9689,33920
9690,33920
9691,33856
9692,33856
9693,33792
9694,33792
9695,33792
9696,33792
9697,33920
9698,34112
9699,34496
9700,35264
9701,36480
9702,37888
9703,38912
9704,38976
9705,37696
9706,35648
9707,33344
9708,31872
9709,31040
9710,30784
9711,31040
9712,31552
9713,32256
9714,32960
9715,33600
9716,34112
9717,34432
9718,34560
9719,34624
9720,34624
9721,34560
9722,34560
9723,34496
9724,34432
9725,34368
9726,34368
9727,34368
9728,34304
9729,34240
9730,34240
9731,34176
9732,34176
9733,34176
9734,34176
9735,34240
9736,34304
9737,34368
9738,34304
9739,34368
9740,34432
9741,34496
9742,34496
9743,34496
9744,34560
9745,34624
9746,34688
9747,34688
9748,34752
9749,34816
9750,34816
9751,34816
9752,34752
9753,34688
9754,34624
9755,34560
9756,34560
9757,34496
9758,34432
9759,34304
9760,34240
9761,34240
9762,34240
9763,34176
9764,34112
9765,34112
9766,34112
9767,33984
9768,33920
9769,33920
9770,33856
9771,33792
9772,33664
9773,33600
9774,33536
9775,33536
9776,33600
9777,33600
9778,33664
9779,33728
9780,33728
9781,33792
9782,33920
9783,33920
9784,33920
9785,33984
9786,34048
9787,34048
9788,33984
9789,33984
9790,33984
9791,33984
9792,34048
9793,34048
9794,34112
9795,34048
9796,33984
9797,33984
9798,33984
9799,33920
9800,33984
9801,34048
9802,33984
9803,33920
9804,33920
9805,33856
9806,33856
9807,33920
9808,33984
9809,33984
9810,33984
9811,34048
9812,34112
9813,34176
9814,34240
9815,34304
9816,34240
9817,34112
9818,33984
9819,34048
9820,34176
9821,34304
9822,34368
9823,34432
9824,34432
9825,34304
9826,34112
9827,33920
9828,33792
9829,33664
9830,33536
9831,33536
9832,33536
9833,33536
9834,33600
9835,33664
9836,33728
9837,33792
9838,33728
9839,33728
9840,33792
9841,33856
9842,33856
9843,33792
9844,33856
9845,33856
9846,33856
9847,33728
9848,33664
9849,33664
9850,33920
9851,34368
9852,35136
9853,36352
9854,37760
9855,38784
9856,38912
9857,37120
9858,35648
9859,33472
9860,31808
9861,30848
9862,30528
9863,30720
9864,31296
9865,32064
9866,32768
9867,33344
9868,33856
9869,34112
9870,34304
9871,34368
9872,34432
9873,34368
9874,34368
9875,34304
9876,34240
9877,34112
9878,34048
9879,33984
9880,33920
9881,33984
9882,34048
9883,33984
9884,33920
9885,33984
9886,33984
9887,34048
9888,34112
9889,34176
9890,34304
9891,34368
9892,34368
9893,34304
9894,34304
9895,34368
9896,34432
9897,34368
9898,34432
9899,34496
9900,34560
9901,34560
9902,34560
9903,34560
9904,34496
9905,34496
9906,34496
9907,34496
9908,34496
9909,34368
9910,34304
9911,34240
9912,34240
9913,34176
9914,34176
9915,34048
9916,34048
9917,33984
9918,33920
9919,33920
9920,33920
9921,33792
9922,33728
9923,33728
9924,33664
9925,33600
9926,33600
9927,33600
9928,33600
9929,33664
9930,33664
9931,33664
9932,33664
9933,33664
9934,33728
9935,33792
9936,33920
9937,33920
9938,33920
9939,33984
9940,33984
9941,33920
9942,33920
9943,33920
9944,34048
9945,34112
9946,34048
9947,34048
9948,33984
9949,33920
9950,33920
9951,33920
9952,33984
9953,34048
9954,33984
9955,33920
9956,33856
9957,33920
9958,33920
9959,33920
9960,33920
9961,33856
9962,33856
9963,33856
9964,33920
9965,34048
9966,34176
9967,34112
9968,34176
9969,34112
9970,34048
9971,33984
9972,34048
9973,34176
9974,34240
9975,34368
9976,34432
9977,34368
9978,34176
9979,33984
9980,33856
9981,33792
9982,33728
9983,33664
9984,33664
9985,33664
9986,33664
9987,33600
9988,33600
9989,33600
9990,33600
9991,33600
9992,33600
9993,33600
9994,33664
9995,33792
9996,33728
9997,33920
9998,33984
9999,33920
10000,33792
10001,33856
10002,34112
10003,34624
10004,35456
10005,36800
10006,38976
10007,38976
10008,39232
10009,37760
10010,35584
10011,33344
10012,32832
10013,30848
10014,30656
10015,30784
10016,31232
10017,31936
10018,32640
10019,33216
10020,33600
10021,33920
10022,33920
10023,34176
10024,34240
10025,34368
10026,34432
10027,34368
10028,34560
10029,34752
10030,34816
10031,34816
10032,35072
10033,35264
10034,34752
10035,33984
10036,33408
10037,33344
10038,33152
10039,33344
10040,33600
10041,33600
10042,34112
10043,34176
10044,34304
10045,34496
10046,34560
10047,34560
10048,34944
10049,35264
10050,35392
10051,35520
10052,35648
10053,35392
10054,35072
10055,34944
10056,34368
10057,34304
10058,33728
10059,33920
10060,34048
10061,34048
10062,34176
10063,34432
10064,34560
10065,34752
10066,35264
10067,35776
10068,35712
10069,36352
10070,35904
10071,34112
10072,32512
10073,32064
10074,32192
10075,32576
10076,33088
10077,33152
10078,33408
10079,33728
10080,34048
10081,34304
10082,34304
10083,34304
10084,34752
10085,34688
10086,33600
10087,32832
10088,32960
10089,33664
10090,33856
10091,34304
10092,34688
10093,34048
10094,33280
10095,32640
10096,32896
10097,32960
10098,33792
10099,33984
10100,34560
10101,35072
10102,34880
10103,34432
10104,34368
10105,33792
10106,33280
10107,33216
10108,33216
10109,33280
10110,33472
10111,33664
10112,33664
10113,34048
10114,34368
10115,34816
10116,34752
10117,34688
10118,34176
10119,34368
10120,34560
10121,34752
10122,34688
10123,34624
10124,34496
10125,34112
10126,34240
10127,34240
10128,34560
10129,34368
10130,34368
10131,34496
10132,34496
10133,34816
10134,34688
10135,34432
10136,33920
10137,33600
10138,33216
10139,33024
10140,33344
10141,33728
10142,33728
10143,33984
10144,34176
10145,34176
10146,34432
10147,35008
10148,35072
10149,34816
10150,34240
10151,33920
10152,33792
10153,33536
10154,33472
10155,33856
10156,34560
10157,34880
10158,34752
10159,34944
10160,35776
10161,37184
10162,38720
10163,39808
10164,39808
10165,38400
10166,36224
10167,33792
10168,31936
10169,31040
10170,30848
10171,31104
10172,31808
10173,32448
10174,33088
10175,33664
10176,34176
10177,34496
10178,34688
10179,34944
10180,35008
10181,34816
10182,34688
10183,34496
10184,34240
10185,34176
10186,34368
10187,34304
10188,34112
10189,33984
10190,33984
10191,33984
10192,34112
10193,34432
10194,34624
10195,34688
10196,34432
10197,34112
10198,33984
10199,33920
10200,33856
10201,33984
10202,34176
10203,34304
10204,34368
10205,34496
10206,34624
10207,34752
10208,34880
10209,35072
10210,35264
10211,35264
10212,35200
10213,35008
10214,34816
10215,34816
10216,34944
10217,35008
10218,34688
10219,34368
10220,34304
10221,34368
10222,34368
10223,34176
10224,33984
10225,33984
10226,33984
10227,33984
10228,33856
10229,33664
10230,33600
10231,33600
10232,33536
10233,33600
10234,33728
10235,33920
10236,34048
10237,33984
10238,33856
10239,33856
10240,33984
10241,34176
10242,34048
10243,33792
10244,33664
10245,33664
10246,33664
10247,33792
10248,33920
10249,34048
10250,34112
10251,34112
10252,34112
10253,34176
10254,34432
10255,34624
10256,34432
10257,34112
10258,33856
10259,33856
10260,33984
10261,34048
10262,33984
10263,34048
10264,34112
10265,34176
10266,34240
10267,34240
10268,34176
10269,34048
10270,34048
10271,34176
10272,34176
10273,34048
10274,33984
10275,33920
10276,33856
10277,33856
10278,34048
10279,34304
10280,34304
10281,34304
10282,34304
10283,34240
10284,34112
10285,34112
10286,34048
10287,33984
10288,34048
10289,34112
10290,34240
10291,34368
10292,34432
10293,34368
10294,34240
10295,34048
10296,33920
10297,33920
10298,34112
10299,34240
10300,34048
10301,33664
10302,33600
10303,33536
10304,33472
10305,33472
10306,33664
10307,33664
10308,33792
10309,33856
10310,33920
10311,33856
10312,33920
10313,34048
10314,34048
10315,34048
10316,34112
10317,34240
10318,34432
10319,34752
10320,35456
10321,36736
10322,38400
10323,39616
10324,39744
10325,38272
10326,35776
10327,33216
10328,31232
10329,30016
10330,29760
10331,30272
10332,31104
10333,32000
10334,32832
10335,33536
10336,34112
10337,34432
10338,34624
10339,34752
10340,34880
10341,35008
10342,35136
10343,34944
10344,34560
10345,34240
10346,33984
10347,33920
10348,33920
10349,33792
10350,33792
10351,33856
10352,34048
10353,34240
10354,34240
10355,34304
10356,34304
10357,34240
10358,34240
10359,34368
10360,34496
10361,34560
10362,34624
10363,34688
10364,34688
10365,34560
10366,34496
10367,34624
10368,34752
10369,34944
10370,34944
10371,34944
10372,34944
10373,35072
10374,35136
10375,34944
10376,34624
10377,34560
10378,34432
10379,34368
10380,34368
10381,34368
10382,34368
10383,34368
10384,34368
10385,34432
10386,34432
10387,34368
10388,34176
10389,33984
10390,33920
10391,33920
10392,33856
10393,33856
10394,33856
10395,33792
10396,33728
10397,33792
10398,33920
10399,34048
10400,33984
10401,33856
10402,33792
10403,33792
10404,33856
10405,34112
10406,34176
10407,34112
10408,33984
10409,33984
10410,34048
10411,34048
10412,34112
10413,34112
10414,34112
10415,34112
10416,34112
10417,34112
10418,34112
10419,34112
10420,34048
10421,34048
10422,34048
10423,34112
10424,34240
10425,34368
10426,34368
10427,34176
10428,33984
10429,33792
10430,33728
10431,33792
10432,33856
10433,33856
10434,33856
10435,33920
10436,33984
10437,33984
10438,33920
10439,34048
10440,34048
10441,33984
10442,33984
10443,34048
10444,34112
10445,34240
10446,34304
10447,34368
10448,34368
10449,34240
10450,34176
10451,34304
10452,34432
10453,34496
10454,34496
10455,34432
10456,34304
10457,34176
10458,33984
10459,33856
10460,33792
10461,33728
10462,33664
10463,33792
10464,33856
10465,33792
10466,33792
10467,33792
10468,33792
10469,33856
10470,33856
10471,33920
10472,34048
10473,34176
10474,34176
10475,34048
10476,33984
10477,33984
10478,33984
10479,33984
10480,33920
10481,34176
10482,34688
10483,35200
10484,36160
10485,37440
10486,38720
10487,39296
10488,38592
10489,36736
10490,34432
10491,32256
10492,30976
10493,30336
10494,30400
10495,30976
10496,31808
10497,32704
10498,33408
10499,33920
10500,34240
10501,34496
10502,34688
10503,34752
10504,34688
10505,34624
10506,34624
10507,34560
10508,34496
10509,34368
10510,34368
10511,34368
10512,34304
10513,34176
10514,34112
10515,33984
10516,33984
10517,34048
10518,34176
10519,34176
10520,34240
10521,34240
10522,34304
10523,34368
10524,34432
10525,34496
10526,34560
10527,34624
10528,34688
10529,34688
10530,34816
10531,34816
10532,34880
10533,34944
10534,34944
10535,34944
10536,34880
10537,34752
10538,34688
10539,34624
10540,34624
10541,34560
10542,34496
10543,34496
10544,34432
10545,34304
10546,34240
10547,34240
10548,34176
10549,34176
10550,34176
10551,34176
10552,34240
10553,34240
10554,34176
10555,34176
10556,34112
10557,34048
10558,33856
10559,33728
10560,33664
10561,33664
10562,33600
10563,33600
10564,33728
10565,33856
10566,33920
10567,33920
10568,33984
10569,34112
10570,34176
10571,34176
10572,34240
10573,34240
10574,34240
10575,34240
10576,34240
10577,34240
10578,34176
10579,34112
10580,34112
10581,34176
10582,34112
10583,34112
10584,34176
10585,34176
10586,34112
10587,34048
10588,34048
10589,33984
10590,33920
10591,33856
10592,33856
10593,33920
10594,33984
10595,33984
10596,34048
10597,34048
10598,34176
10599,34240
10600,34368
10601,34368
10602,34368
10603,34304
10604,34304
10605,34240
10606,34240
10607,34304
10608,34304
10609,34304
10610,34368
10611,34432
10612,34368
10613,34304
10614,34112
10615,33984
10616,33920
10617,33856
10618,33792
10619,33728
10620,33664
10621,33664
10622,33728
10623,33856
10624,33920
10625,33920
10626,33920
10627,33920
10628,33984
10629,33984
10630,34048
10631,34048
10632,34048
10633,34048
10634,33984
10635,33920
10636,33856
10637,33920
10638,34240
10639,34816
10640,35776
10641,37184
10642,38400
10643,39104
10644,38656
10645,37056
10646,34880
10647,32768
10648,31360
10649,30656
10650,30592
10651,30976
10652,31744
10653,32512
10654,33216
10655,33792
10656,34304
10657,34496
10658,34624
10659,34688
10660,34624
10661,34560
10662,34496
10663,34432
10664,34368
10665,34304
10666,34240
10667,34176
10668,34240
10669,34304
10670,34304
10671,34240
10672,34176
10673,34176
10674,34176
10675,34240
10676,34368
10677,34432
10678,34496
10679,34496
10680,34432
10681,34496
10682,34624
10683,34688
10684,34688
10685,34752
10686,34752
10687,34688
10688,34688
10689,34688
10690,34688
10691,34752
10692,34752
10693,34752
10694,34816
10695,34752
10696,34688
10697,34688
10698,34688
10699,34560
10700,34496
10701,34432
10702,34432
10703,34368
10704,34304
10705,34240
10706,34176
10707,34176
10708,34176
10709,34176
10710,34112
10711,34048
10712,33920
10713,33856
10714,33856
10715,33856
10716,33856
10717,33792
10718,33856
10719,33856
10720,33920
10721,33920
10722,33984
10723,34112
10724,34240
10725,34240
10726,34176
10727,34176
10728,34176
10729,34176
10730,34240
10731,34240
10732,34176
10733,34112
10734,34048
10735,34112
10736,34176
10737,34176
10738,34176
10739,34112
10740,34112
10741,34112
10742,34112
10743,34112
10744,34112
10745,34048
10746,33984
10747,33984
10748,33984
10749,34048
10750,34048
10751,34048
10752,34112
10753,34176
10754,34176
10755,34240
10756,34240
10757,34240
10758,34304
10759,34304
10760,34176
10761,34112
10762,34176
10763,34240
10764,34368
10765,34432
10766,34496
10767,34432
10768,34368
10769,34304
10770,34176
10771,34048
10772,33984
10773,33920
10774,33856
10775,33728
10776,33728
10777,33728
10778,33728
10779,33792
10780,33856
10781,33856
10782,33856
10783,33856
10784,33920
10785,33984
10786,34048
10787,33984
10788,33984
10789,33984
10790,33920
10791,33856
10792,33920
10793,34176
10794,34688
10795,35456
10796,36672
10797,38144
10798,39232
10799,39424
10800,38272
10801,36096
10802,33728
10803,31872
10804,30784
10805,30400
10806,30592
10807,31296
10808,32128
10809,32896
10810,33472
10811,33984
10812,34240
10813,34432
10814,34560
10815,34624
10816,34624
10817,34560
10818,34560
10819,34496
10820,34432
10821,34432
10822,34496
10823,34496
10824,34432
10825,34304
10826,34112
10827,34112
10828,34176
10829,34112
10830,34112
10831,34176
10832,34176
10833,34240
10834,34240
10835,34304
10836,34432
10837,34496
10838,34560
10839,34624
10840,34752
10841,34752
10842,34816
10843,34880
10844,34944
10845,34944
10846,34880
10847,34944
10848,34944
10849,34944
10850,34880
10851,34880
10852,34816
10853,34688
10854,34560
10855,34432
10856,34368
10857,34304
10858,34240
10859,34176
10860,34112
10861,34112
10862,34048
10863,33984
10864,33984
10865,34048
10866,33984
10867,33984
10868,33984
10869,33984
10870,33920
10871,33920
10872,33856
10873,33920
10874,33984
10875,33984
10876,33984
10877,34048
10878,34112
10879,34048
10880,33984
10881,33920
10882,33920
10883,33984
10884,33984
10885,34048
10886,34048
10887,34112
10888,34112
10889,34176
10890,34112
10891,34048
10892,34112
10893,34112
10894,34112
10895,34112
10896,34112
10897,34176
10898,34240
10899,34304
10900,34304
10901,34112
10902,33984
10903,33920
10904,33792
10905,33664
10906,33600
10907,33664
10908,33728
10909,33792
10910,33920
10911,33984
10912,34048
10913,34176
10914,34304
10915,34368
10916,34368
10917,34304
10918,34304
10919,34304
10920,34368
10921,34368
10922,34432
10923,34496
10924,34624
