,ECG
0,34048
1,33984
2,34176
3,34432
4,34560
5,34560
6,34368
7,34176
8,33920
9,33664
10,33600
11,33792
12,34048
13,33920
14,33472
15,33024
16,32576
17,32576
18,32960
19,32960
20,32704
21,32448
22,32384
23,32448
24,32576
25,32704
26,32832
27,32960
28,33152
29,33408
30,33664
31,33984
32,34112
33,33920
34,33920
35,33984
36,34176
37,34240
38,34048
39,33600
40,33408
41,33408
42,33472
43,33600
44,33856
45,34112
46,34240
47,34048
48,33600
49,33344
50,33472
51,33664
52,33600
53,33536
54,33664
55,33856
56,33920
57,33728
58,33600
59,33600
60,33600
61,33600
62,33728
63,33984
64,34112
65,34048
66,33984
67,33856
68,33792
69,33792
70,33856
71,34048
72,34240
73,34496
74,34560
75,34752
76,34624
77,34304
78,34112
79,33984
80,33856
81,33792
82,33664
83,33472
84,33536
85,33856
86,33728
87,33472
88,33408
89,33472
90,33472
91,33664
92,33984
93,34112
94,34240
95,34176
96,34304
97,34496
98,34688
99,34560
100,34176
101,33984
102,33856
103,33792
104,33856
105,33920
106,33856
107,33728
108,33920
109,34240
110,34048
111,33600
112,33152
113,32896
114,32960
115,33216
116,33664
117,33920
118,34176
119,34432
120,34432
121,34176
122,33856
123,33664
124,33728
125,33792
126,33920
127,33920
128,33920
129,33920
130,34048
131,34304
132,34496
133,34432
134,34112
135,33984
136,34496
137,35584
138,37056
139,38912
140,40576
141,40640
142,39104
143,36992
144,34880
145,33216
146,32000
147,31360
148,31168
149,31488
150,32192
151,32832
152,33344
153,33728
154,33728
155,33600
156,33408
157,33216
158,33216
159,33472
160,33536
161,33600
162,33664
163,33856
164,34176
165,34176
166,34048
167,33984
168,33984
169,33920
170,33792
171,33792
172,33920
173,34048
174,34240
175,34432
176,34496
177,34240
178,34048
179,33984
180,33984
181,34048
182,34240
183,34432
184,34432
185,34432
186,34560
187,34880
188,34944
189,34944
190,34752
191,34496
192,34304
193,34240
194,34368
195,34496
196,34624
197,34880
198,35008
199,35008
200,35072
201,35456
202,35712
203,35328
204,34752
205,34176
206,33920
207,33792
208,33856
209,33984
210,34048
211,33792
212,33536
213,33280
214,32960
215,32768
216,32640
217,32640
218,32832
219,33024
220,32960
221,32960
222,32960
223,33024
224,33088
225,33344
226,33408
227,33152
228,33024
229,33216
230,33472
231,33600
232,33600
233,33408
234,33280
235,33088
236,32832
237,32768
238,32896
239,33216
240,33600
241,33984
242,33984
243,33856
244,33856
245,34048
246,34048
247,33984
248,33984
249,34048
250,34240
251,34240
252,34176
253,34048
254,33664
255,33408
256,33536
257,33792
258,33920
259,33856
260,33728
261,33664
262,33600
263,33536
264,33408
265,33408
266,33472
267,33728
268,33984
269,34304
270,34624
271,34752
272,34560
273,34176
274,33984
275,33984
276,33920
277,33664
278,33472
279,33600
280,33664
281,33664
282,33728
283,33792
284,33984
285,33920
286,33856
287,33792
288,33984
289,34176
290,34176
291,34112
292,34304
293,34432
294,34432
295,34304
296,34240
297,34432
298,34560
299,34368
300,33920
301,33536
302,33408
303,33408
304,33536
305,33792
306,34048
307,34240
308,34304
309,34304
310,34112
311,33728
312,33536
313,33536
314,33856
315,34048
316,34240
317,34112
318,33792
319,33728
320,33792
321,33920
322,33856
323,33920
324,34240
325,34688
326,34624
327,34240
328,33856
329,33728
330,33792
331,34048
332,34368
333,34496
334,34560
335,34560
336,34304
337,34112
338,34112
339,34368
340,34880
341,35008
342,34816
343,34624
344,34432
345,34816
346,35840
347,37632
348,39744
349,41344
350,40960
351,38848
352,36160
353,33856
354,32384
355,31424
356,31104
357,31232
358,31744
359,32256
360,32640
361,33024
362,33344
363,33280
364,33152
365,33280
366,33664
367,33920
368,33792
369,33664
370,33728
371,33920
372,34112
373,34304
374,34112
375,33792
376,33664
377,33664
378,33728
379,33856
380,33920
381,33856
382,33856
383,33856
384,33920
385,34048
386,34176
387,34240
388,34304
389,34304
390,34304
391,34368
392,34432
393,34496
394,34560
395,34624
396,34688
397,34752
398,34752
399,34944
400,35264
401,35392
402,35456
403,35456
404,35392
405,35328
406,35136
407,34944
408,34880
409,34752
410,34432
411,34048
412,33856
413,33792
414,33792
415,33920
416,34240
417,34304
418,34048
419,33792
420,33536
421,33280
422,33152
423,33408
424,33536
425,33088
426,32640
427,32384
428,32448
429,32640
430,32704
431,32640
432,32640
433,32576
434,32640
435,32768
436,32896
437,33216
438,33344
439,33152
440,33088
441,33280
442,33664
443,33792
444,33600
445,33408
446,33344
447,33600
448,33792
449,33536
450,33216
451,33088
452,33216
453,33344
454,33536
455,33728
456,33792
457,33792
458,33984
459,34368
460,34432
461,34176
462,33856
463,33728
464,33728
465,33792
466,33728
467,33792
468,33984
469,34048
470,34048
471,33984
472,33984
473,33856
474,33728
475,33792
476,33728
477,33856
478,34048
479,34112
480,33984
481,33728
482,33728
483,33984
484,34112
485,33984
486,33792
487,33792
488,33792
489,33600
490,33472
491,33536
492,33664
493,33856
494,33856
495,33792
496,33600
497,33664
498,33792
499,33920
500,34112
501,34304
502,34496
503,34560
504,34304
505,33984
506,33856
507,33792
508,33728
509,33856
510,33984
511,34048
512,33920
513,33728
514,33664
515,34048
516,34496
517,34432
518,34112
519,33792
520,33600
521,33536
522,33728
523,33984
524,34048
525,33920
526,33792
527,33856
528,33984
529,33920
530,33856
531,33792
532,33792
533,33920
534,34112
535,34176
536,34048
537,33984
538,33984
539,34112
540,34112
541,33856
542,33664
543,33600
544,33600
545,33664
546,33664
547,33728
548,33792
549,33984
550,33984
551,33856
552,33728
553,33600
554,33728
555,34048
556,34176
557,34240
558,34112
559,33920
560,33728
561,33600
562,33664
563,33920
564,34176
565,34368
566,34240
567,34112
568,34240
569,34880
570,36096
571,37824
572,40064
573,41664
574,41408
575,39744
576,37568
577,35200
578,32896
579,31232
580,30272
581,30080
582,30528
583,31168
584,31744
585,32256
586,32768
587,33216
588,33600
589,33792
590,33792
591,33728
592,33792
593,33792
594,33728
595,33792
596,33920
597,34048
598,34112
599,34176
600,34176
601,34112
602,34112
603,34176
604,34048
605,33792
606,33728
607,33792
608,33920
609,33856
610,33856
611,33856
612,33920
613,33984
614,34112
615,34240
616,34240
617,34176
618,34048
619,33984
620,34048
621,34240
622,34432
623,34560
624,34688
625,34880
626,35008
627,35072
628,35072
629,34944
630,34816
631,34880
632,35200
633,35776
634,36032
635,35776
636,35136
637,34432
638,34048
639,33856
640,33856
641,33792
642,33664
643,33472
644,33408
645,33344
646,33216
647,33088
648,32960
649,32896
650,32896
651,32960
652,33216
653,33216
654,33088
655,33024
656,32960
657,33152
658,33664
659,33792
660,33344
661,32960
662,32640
663,32320
664,32256
665,32256
666,32384
667,32576
668,32832
669,33024
670,33216
671,33344
672,33600
673,33792
674,33920
675,34048
676,34240
677,34304
678,34176
679,33856
680,33664
681,33536
682,33664
683,33728
684,33792
685,33920
686,33856
687,33792
688,33856
689,34048
690,34176
691,34176
692,34240
693,34112
694,33856
695,33536
696,33344
697,33216
698,33280
699,33408
700,33472
701,33600
702,33728
703,33920
704,34048
705,34176
706,34176
707,34048
708,33920
709,33856
710,33920
711,33920
712,33920
713,33920
714,33984
715,34112
716,34112
717,33920
718,33856
719,33792
720,33728
721,33728
722,33792
723,33856
724,33856
725,33984
726,34048
727,33984
728,33984
729,34048
730,34176
731,34240
732,34048
733,33984
734,33920
735,33920
736,33856
737,33728
738,33728
739,33856
740,34304
741,35008
742,35328
743,34944
744,34112
745,33216
746,32832
747,32832
748,32832
749,32960
750,33152
751,33344
752,33408
753,33344
754,33280
755,33472
756,33664
757,33792
758,33856
759,33920
760,33920
761,33856
762,33920
763,33984
764,34176
765,34240
766,34240
767,34176
768,34048
769,33856
770,33856
771,33920
772,33984
773,34048
774,33920
775,33728
776,33536
777,33472
778,33408
779,33472
780,33664
781,33792
782,33792
783,33856
784,33856
785,34048
786,34176
787,34240
788,34176
789,34112
790,33984
791,33920
792,33856
793,33920
794,33920
795,33984
796,34240
797,35136
798,36608
799,38528
800,40192
801,40576
802,39488
803,37568
804,35584
805,33984
806,32768
807,32128
808,32128
809,32192
810,32128
811,32384
812,32832
813,33088
814,32832
815,32320
816,32000
817,32000
818,32192
819,32576
820,32896
821,33216
822,33536
823,33728
824,33856
825,33856
826,33920
827,33984
828,33984
829,34048
830,34048
831,34112
832,34112
833,34176
834,34176
835,34304
836,34368
837,34432
838,34432
839,34432
840,34368
841,34304
842,34240
843,34240
844,34176
845,34176
846,34368
847,34624
848,34752
849,34752
850,34688
851,34752
852,34688
853,34624
854,34560
855,34496
856,34560
857,34688
858,34880
859,34944
860,34944
861,35008
862,35264
863,35584
864,35456
865,34816
866,34240
867,33792
868,33664
869,33472
870,33280
871,33024
872,32896
873,32896
874,32960
875,32960
876,32896
877,32704
878,32640
879,32704
880,32768
881,32896
882,33024
883,33216
884,33280
885,33216
886,33152
887,33280
888,33664
889,33792
890,33472
891,33024
892,32896
893,33152
894,33408
895,33472
896,33472
897,33472
898,33408
899,33152
900,32960
901,32960
902,33088
903,33344
904,33536
905,33856
906,34176
907,34112
908,33984
909,33920
910,33856
911,33792
912,33920
913,33984
914,34048
915,34048
916,34112
917,34112
918,34048
919,33984
920,34176
921,34432
922,34560
923,34624
924,34432
925,34240
926,34112
927,34048
928,34048
929,34112
930,34432
931,34368
932,33984
933,33664
934,33472
935,33472
936,33536
937,33664
938,33728
939,33792
940,33920
941,33984
942,34240
943,34496
944,34560
945,34496
946,34496
947,34368
948,34176
949,33920
950,33664
951,33664
952,33920
953,34048
954,33856
955,33728
956,33664
957,33792
958,33856
959,34048
960,34368
961,34624
962,34432
963,34048
964,33984
965,33984
966,33984
967,34048
968,33984
969,34048
970,34112
971,34048
972,33920
973,33984
974,34112
975,34304
976,34432
977,34368
978,34432
979,34624
980,34752
981,34496
982,33984
983,33728
984,33792
985,33920
986,33984
987,34112
988,34176
989,34112
990,34112
991,33856
992,33600
993,33536
994,33536
995,33536
996,33600
997,33664
998,33792
999,33856
1000,33984
1001,34112
1002,34304
1003,34432
1004,34304
1005,34176
1006,34176
1007,34176
1008,34112
1009,34240
1010,34240
1011,33792
1012,33408
1013,33280
1014,33280
1015,33536
1016,33792
1017,34112
1018,34240
1019,34432
1020,34944
1021,35968
1022,37696
1023,39872
1024,41344
1025,41280
1026,40000
1027,37952
1028,35584
1029,33344
1030,31680
1031,30784
1032,30592
1033,30848
1034,31296
1035,31680
1036,32064
1037,32384
1038,32640
1039,32960
1040,33344
1041,33536
1042,33600
1043,33600
1044,33664
1045,33792
1046,33728
1047,33600
1048,33600
1049,33856
1050,34240
1051,34560
1052,34624
1053,34304
1054,33856
1055,33664
1056,33664
1057,33792
1058,33856
1059,34048
1060,33984
1061,33856
1062,33792
1063,33856
1064,33984
1065,34112
1066,34112
1067,34176
1068,34112
1069,34176
1070,34240
1071,34496
1072,34880
1073,35136
1074,35072
1075,35008
1076,34944
1077,34816
1078,34688
1079,34880
1080,35200
1081,35264
1082,35072
1083,35008
1084,34880
1085,34816
1086,34688
1087,34496
1088,34304
1089,34176
1090,34304
1091,34432
1092,34368
1093,34176
1094,33920
1095,33664
1096,33536
1097,33344
1098,33088
1099,32832
1100,32768
1101,32704
1102,32704
1103,32768
1104,32896
1105,32960
1106,33024
1107,33024
1108,33024
1109,33024
1110,32960
1111,33088
1112,33216
1113,33280
1114,33216
1115,33216
1116,33408
1117,33600
1118,33856
1119,33984
1120,33792
1121,33664
1122,33792
1123,34048
1124,34304
1125,34560
1126,34304
1127,33792
1128,33472
1129,33216
1130,33216
1131,33280
1132,33344
1133,33408
1134,33472
1135,33664
1136,33856
1137,34048
1138,34048
1139,33856
1140,33728
1141,33664
1142,33664
1143,33664
1144,33600
1145,33664
1146,33792
1147,33920
1148,34112
1149,34240
1150,34240
1151,34368
1152,34304
1153,34304
1154,34368
1155,34432
1156,34304
1157,34048
1158,33728
1159,33664
1160,33664
1161,33664
1162,33728
1163,33728
1164,33664
1165,33600
1166,33600
1167,33728
1168,33856
1169,33984
1170,34048
1171,33984
1172,33920
1173,34048
1174,34240
1175,34176
1176,34048
1177,33984
1178,34048
1179,33984
1180,33728
1181,33600
1182,33664
1183,33856
1184,33856
1185,33792
1186,33728
1187,33664
1188,33728
1189,33792
1190,33792
1191,33792
1192,33920
1193,34048
1194,34112
1195,34176
1196,34176
1197,34048
1198,33984
1199,34048
1200,34176
1201,34240
1202,34432
1203,34496
1204,34432
1205,34112
1206,33728
1207,33664
1208,33856
1209,34112
1210,34112
1211,33728
1212,33472
1213,33408
1214,33472
1215,33600
1216,33728
1217,33856
1218,33984
1219,34048
1220,34112
1221,34112
1222,34048
1223,34048
1224,33920
1225,33856
1226,33792
1227,33856
1228,33984
1229,34240
1230,34368
1231,34304
1232,34304
1233,34304
1234,33984
1235,33664
1236,33536
1237,33472
1238,33536
1239,33600
1240,33792
1241,33920
1242,33984
1243,34048
1244,34048
1245,34048
1246,34240
1247,34432
1248,34368
1249,34432
1250,35200
1251,36480
1252,38400
1253,40640
1254,41792
1255,40960
1256,38912
1257,36480
1258,34304
1259,32512
1260,31360
1261,30848
1262,30912
1263,31296
1264,31872
1265,32192
1266,32512
1267,32832
1268,33088
1269,33088
1270,33088
1271,33280
1272,33536
1273,33792
1274,33920
1275,33856
1276,33664
1277,33600
1278,33728
1279,33920
1280,33920
1281,33920
1282,33920
1283,33792
1284,33792
1285,33984
1286,33984
1287,33920
1288,33984
1289,33984
1290,33984
1291,34048
1292,34048
1293,34176
1294,34368
1295,34624
1296,34880
1297,34944
1298,34688
1299,34368
1300,34112
1301,34048
1302,33984
1303,34112
1304,34304
1305,34496
1306,34560
1307,34688
1308,34816
1309,34944
1310,35072
1311,35136
1312,35136
1313,35136
1314,35136
1315,35072
1316,35072
1317,35072
1318,35136
1319,34944
1320,34816
1321,34816
1322,34432
1323,33984
1324,33792
1325,33856
1326,33536
1327,33088
1328,32832
1329,32640
1330,32448
1331,32448
1332,32384
1333,32448
1334,32576
1335,32576
1336,32576
1337,32640
1338,32768
1339,32960
1340,33280
1341,33280
1342,33280
1343,33152
1344,33088
1345,33024
1346,33088
1347,33344
1348,33664
1349,33728
1350,33536
1351,33344
1352,33280
1353,33344
1354,33600
1355,33856
1356,34048
1357,34112
1358,34048
1359,34048
1360,34048
1361,34112
1362,34304
1363,34240
1364,33920
1365,33856
1366,33728
1367,33536
1368,33280
1369,33216
1370,33408
1371,33664
1372,33728
1373,33664
1374,33536
1375,33472
1376,33536
1377,33536
1378,33536
1379,33664
1380,33856
1381,34112
1382,34304
1383,34240
1384,34112
1385,34240
1386,34304
1387,34240
1388,34112
1389,34176
1390,34496
1391,34112
1392,33792
1393,33728
1394,33920
1395,33984
1396,33920
1397,33728
1398,33472
1399,33280
1400,33280
1401,33344
1402,33472
1403,33536
1404,33664
1405,33856
1406,33920
1407,34112
1408,34240
1409,34176
1410,33984
1411,33856
1412,33984
1413,34048
1414,33920
1415,33920
1416,34240
1417,34368
1418,34112
1419,33664
1420,33408
1421,33472
1422,33664
1423,33920
1424,33984
1425,33920
1426,33920
1427,33856
1428,33856
1429,33856
1430,33856
1431,33984
1432,34240
1433,34048
1434,33792
1435,33728
1436,33664
1437,33600
1438,33728
1439,33984
1440,33920
1441,33984
1442,33984
1443,34112
1444,34240
1445,34176
1446,34112
1447,33984
1448,33792
1449,33664
1450,33600
1451,33664
1452,33792
1453,33664
1454,33536
1455,33472
1456,33408
1457,33408
1458,33472
1459,33792
1460,33920
1461,33920
1462,33856
1463,33920
1464,34112
1465,34112
1466,34176
1467,33920
1468,33984
1469,34048
1470,33984
1471,33472
1472,33408
1473,33472
1474,33600
1475,33600
1476,35264
1477,36928
1478,38912
1479,40704
1480,40704
1481,40064
1482,38016
1483,35776
1484,33792
1485,33664
1486,31552
1487,31040
1488,30848
1489,31104
1490,31104
1491,32256
1492,32640
1493,32896
1494,33152
1495,33472
1496,33728
1497,33856
1498,33792
1499,33664
1500,33664
1501,33856
1502,33728
1503,33536
1504,33472
1505,33408
1506,33600
1507,33664
1508,33728
1509,33920
1510,34112
1511,34304
1512,34176
1513,33920
1514,33664
1515,33600
1516,33728
1517,33792
1518,33792
1519,33792
1520,33728
1521,33856
1522,33984
1523,34048
1524,34176
1525,34112
1526,34496
1527,34560
1528,34432
1529,34432
1530,34432
1531,34752
1532,35008
1533,34944
1534,34688
1535,34624
1536,34688
1537,34496
1538,34240
1539,34112
1540,34048
1541,34304
1542,34368
1543,34368
1544,34304
1545,34240
1546,34112
1547,34112
1548,34240
1549,34048
1550,33984
1551,33344
1552,33088
1553,32832
1554,32640
1555,32576
1556,32768
1557,32832
1558,33088
1559,33280
1560,33216
1561,32896
1562,32704
1563,32512
1564,32384
1565,32448
1566,32704
1567,32832
1568,32832
1569,32896
1570,32896
1571,32960
1572,32960
1573,32960
1574,33152
1575,33088
1576,33408
1577,33472
1578,33472
1579,33344
1580,33344
1581,33344
1582,33344
1583,33408
1584,33600
1585,33600
1586,33856
1587,33728
1588,33600
1589,33344
1590,33344
1591,33472
1592,33600
1593,33472
1594,33280
1595,33280
1596,33280
1597,33344
1598,33408
1599,33472
1600,33472
1601,33408
1602,33408
1603,33600
1604,33792
1605,33728
1606,33536
1607,33408
1608,33344
1609,33344
1610,33472
1611,33600
1612,33664
1613,33728
1614,33664
1615,33600
1616,33536
1617,33600
1618,33792
1619,33984
1620,33856
1621,33408
1622,33088
1623,32896
1624,32896
1625,33024
1626,33216
1627,33344
1628,33408
1629,33536
1630,33664
1631,33664
1632,33856
1633,33984
1634,33984
1635,33792
1636,33728
1637,33536
1638,33408
1639,33408
1640,33600
1641,33728
1642,33664
1643,33536
1644,33408
1645,33408
1646,33472
1647,33600
1648,33664
1649,33664
1650,33600
1651,33536
1652,33536
1653,33536
1654,33472
1655,33536
1656,33920
1657,34176
1658,34112
1659,33984
1660,33920
1661,33536
1662,33408
1663,33344
1664,33344
1665,33344
1666,33472
1667,33600
1668,33792
1669,33920
1670,33792
1671,33536
1672,33344
1673,33152
1674,33152
1675,33152
1676,33280
1677,33408
1678,33536
1679,33664
1680,33728
1681,33600
1682,33344
1683,33280
1684,33344
1685,33600
1686,33728
1687,33792
1688,33792
1689,33728
1690,33728
1691,33792
1692,33856
1693,33792
1694,33728
1695,33856
1696,33920
1697,34112
1698,34752
1699,35968
1700,37696
1701,39744
1702,40896
1703,40256
1704,38400
1705,36224
1706,34304
1707,32768
1708,31808
1709,31360
1710,31360
1711,31488
1712,31616
1713,31808
1714,32128
1715,32576
1716,32896
1717,33088
1718,33152
1719,33152
1720,33216
1721,33280
1722,33280
1723,33280
1724,33344
1725,33408
1726,33472
1727,33600
1728,33792
1729,34048
1730,34112
1731,34112
1732,33856
1733,33728
1734,33856
1735,33920
1736,33920
1737,33984
1738,34176
1739,34176
1740,33984
1741,33856
1742,33856
1743,33792
1744,33856
1745,33984
1746,34176
1747,34304
1748,34304
1749,34240
1750,34304
1751,34368
1752,34432
1753,34560
1754,34496
1755,34432
1756,34368
1757,34304
1758,34304
1759,34368
1760,34496
1761,34624
1762,34688
1763,34752
1764,34816
1765,34752
1766,34624
1767,34624
1768,34688
1769,34752
1770,34624
1771,34304
1772,33984
1773,33728
1774,33472
1775,33152
1776,33024
1777,32832
1778,32704
1779,32576
1780,32448
1781,32320
1782,32384
1783,32448
1784,32576
1785,32704
1786,32832
1787,32960
1788,33152
1789,33152
1790,33088
1791,33088
1792,33088
1793,33152
1794,33152
1795,33216
1796,33472
1797,33856
1798,34048
1799,34048
1800,33984
1801,34048
1802,34048
1803,33728
1804,33536
1805,33472
1806,33536
1807,33600
1808,33408
1809,33152
1810,33024
1811,33088
1812,33344
1813,33536
1814,33728
1815,33792
1816,33920
1817,34112
1818,34304
1819,34368
1820,34240
1821,34176
1822,34240
1823,34368
1824,33984
1825,33408
1826,33088
1827,33280
1828,33600
1829,33728
1830,33728
1831,33664
1832,33600
1833,33600
1834,33728
1835,33920
1836,34048
1837,33984
1838,33920
1839,33856
1840,33856
1841,33984
1842,34048
1843,33984
1844,34112
1845,34112
1846,33920
1847,33920
1848,33984
1849,33920
1850,33792
1851,33792
1852,33920
1853,33920
1854,33856
1855,33728
1856,33664
1857,33600
1858,33600
1859,33792
1860,34048
1861,34112
1862,34048
1863,34048
1864,34112
1865,34304
1866,34368
1867,34432
1868,34304
1869,34176
1870,33984
1871,33920
1872,33920
1873,33984
1874,34048
1875,34048
1876,33920
1877,33856
1878,33920
1879,34048
1880,34048
1881,33984
1882,33856
1883,33792
1884,33856
1885,33920
1886,33856
1887,33920
1888,34048
1889,34112
1890,34112
1891,34048
1892,33984
1893,33856
1894,33920
1895,34112
1896,34176
1897,33984
1898,33728
1899,33472
1900,33472
1901,33600
1902,33856
1903,34048
1904,33984
1905,33856
1906,33600
1907,33472
1908,33472
1909,33536
1910,33664
1911,33920
1912,34176
1913,34240
1914,34240
1915,34176
1916,34176
1917,34176
1918,34368
1919,35200
1920,36480
1921,38272
1922,40320
1923,41472
1924,40896
1925,39040
1926,36800
1927,34624
1928,32960
1929,31872
1930,31104
1931,30976
1932,31360
1933,31872
1934,32256
1935,32384
1936,32448
1937,32640
1938,32896
1939,33280
1940,33472
1941,33600
1942,33664
1943,33664
1944,33728
1945,33856
1946,33984
1947,34112
1948,34432
1949,34560
1950,34368
1951,34176
1952,34304
1953,34304
1954,34240
1955,33920
1956,33600
1957,33344
1958,33408
1959,33600
1960,33792
1961,33984
1962,34304
1963,34688
1964,34816
1965,34560
1966,34368
1967,34304
1968,34368
1969,34368
1970,34368
1971,34496
1972,34496
1973,34560
1974,34624
1975,34624
1976,34688
1977,34752
1978,34880
1979,35008
1980,35200
1981,35456
1982,35520
1983,35328
1984,35008
1985,34752
1986,34688
1987,34752
1988,34752
1989,34688
1990,34624
1991,34496
1992,34304
1993,33920
1994,33536
1995,33280
1996,33152
1997,33216
1998,33216
1999,33088
2000,32960
2001,32896
2002,32768
2003,32704
2004,32704
2005,32768
2006,32960
2007,33024
2008,33216
2009,33472
2010,33472
2011,33280
2012,33152
2013,33088
2014,33344
2015,33664
2016,33792
2017,33920
2018,33856
2019,33600
2020,33408
2021,33280
2022,33344
2023,33600
2024,33920
2025,34048
2026,33984
2027,33920
2028,33728
2029,33600
2030,33600
2031,33664
2032,33792
2033,33792
2034,33856
2035,33984
2036,33984
2037,33856
2038,33856
2039,33856
2040,33984
2041,34368
2042,34496
2043,34304
2044,34048
2045,33984
2046,33792
2047,33536
2048,33472
2049,33600
2050,33728
2051,33728
2052,33728
2053,33792
2054,33984
2055,34304
2056,34560
2057,34496
2058,34240
2059,33920
2060,33792
2061,33984
2062,34304
2063,34240
2064,34048
2065,33920
2066,33856
2067,33856
2068,33984
2069,34112
2070,34176
2071,34112
2072,34048
2073,33984
2074,33984
2075,33984
2076,33984
2077,34048
2078,34048
2079,34176
2080,34240
2081,34240
2082,34240
2083,34240
2084,34176
2085,34112
2086,33984
2087,33856
2088,33856
2089,33984
2090,34112
2091,34240
2092,34176
2093,34112
2094,34048
2095,34048
2096,34048
2097,34048
2098,34112
2099,34304
2100,34240
2101,33920
2102,33664
2103,33600
2104,33856
2105,34240
2106,34560
2107,34624
2108,34496
2109,34368
2110,34240
2111,34112
2112,33920
2113,33728
2114,33664
2115,33728
2116,33920
2117,33984
2118,33920
2119,33856
2120,33792
2121,33728
2122,33664
2123,33536
2124,33536
2125,33664
2126,33856
2127,33984
2128,34176
2129,34304
2130,34496
2131,34624
2132,34368
2133,34176
2134,34240
2135,34304
2136,34304
2137,34368
2138,34432
2139,34560
2140,35136
2141,36160
2142,37952
2143,40064
2144,41280
2145,40512
2146,38720
2147,36544
2148,34560
2149,32960
2150,31808
2151,31168
2152,31040
2153,31232
2154,31680
2155,32128
2156,32512
2157,33152
2158,33536
2159,33664
2160,33600
2161,33664
2162,33856
2163,33856
2164,33664
2165,33600
2166,33664
2167,33728
2168,33792
2169,33920
2170,34112
2171,34176
2172,34176
2173,34048
2174,33920
2175,33792
2176,33984
2177,34368
2178,34496
2179,34368
2180,34112
2181,33984
2182,33920
2183,33920
2184,34112
2185,34304
2186,34368
2187,34368
2188,34368
2189,34496
2190,34560
2191,34688
2192,34752
2193,34560
2194,34496
2195,34560
2196,34880
2197,35264
2198,35200
2199,35072
2200,35008
2201,34944
2202,34816
2203,34688
2204,34752
2205,34688
2206,34752
2207,34816
2208,34880
2209,34880
2210,34816
2211,34752
2212,34560
2213,34368
2214,34304
2215,34240
2216,33920
2217,33600
2218,33280
2219,32960
2220,32768
2221,32832
2222,32896
2223,32896
2224,32768
2225,32768
2226,32960
2227,33152
2228,33152
2229,32960
2230,32768
2231,32832
2232,33024
2233,33280
2234,33472
2235,33728
2236,33856
2237,33920
2238,33792
2239,33664
2240,33728
2241,33856
2242,33792
2243,33536
2244,33408
2245,33408
2246,33536
2247,33600
2248,33728
2249,33856
2250,33856
2251,33984
2252,34112
2253,33984
2254,33920
2255,33984
2256,34176
2257,34240
2258,34112
2259,33856
2260,33920
2261,34112
2262,34112
2263,33920
2264,33664
2265,33536
2266,33664
2267,33792
2268,33792
2269,33856
2270,33856
2271,33856
2272,33920
2273,34048
2274,33984
2275,33856
2276,33984
2277,34368
2278,34688
2279,34624
2280,34368
2281,34112
2282,33792
2283,33600
2284,33664
2285,33664
2286,33600
2287,33600
2288,33728
2289,33920
2290,33984
2291,33984
2292,33984
2293,33920
2294,33920
2295,33920
2296,33856
2297,33984
2298,34176
2299,34240
2300,34304
2301,34240
2302,34240
2303,34304
2304,34304
2305,34112
2306,33792
2307,33792
2308,33856
2309,33728
2310,33664
2311,33728
2312,33728
2313,33856
2314,33920
2315,33984
2316,34112
2317,34240
2318,34368
2319,34176
2320,33856
2321,33600
2322,33472
2323,33408
2324,33472
2325,33536
2326,33664
2327,33792
2328,33728
2329,33664
2330,33728
2331,33920
2332,34176
2333,34240
2334,34048
2335,33792
2336,33536
2337,33472
2338,33600
2339,33664
2340,33728
2341,33792
2342,33856
2343,33920
2344,34048
2345,34048
2346,34112
2347,34176
2348,34240
2349,34304
2350,34304
2351,34112
2352,33792
2353,33600
2354,33728
2355,33984
2356,34112
2357,34112
2358,34112
2359,34112
2360,34048
2361,34304
2362,35072
2363,36352
2364,38144
2365,39936
2366,40512
2367,39552
2368,37760
2369,35840
2370,34048
2371,32512
2372,31552
2373,31040
2374,31168
2375,31616
2376,32384
2377,32960
2378,33152
2379,33280
2380,33472
2381,33792
2382,33792
2383,33472
2384,33088
2385,32896
2386,32960
2387,33216
2388,33536
2389,33728
2390,33728
2391,33728
2392,33920
2393,33984
2394,33920
2395,34048
2396,34368
2397,34496
2398,34240
2399,33728
2400,33536
2401,33600
2402,33728
2403,33792
2404,33984
2405,34112
2406,34048
2407,33984
2408,34048
2409,34176
2410,34304
2411,34432
2412,34368
2413,34368
2414,34496
2415,34560
2416,34688
2417,34752
2418,34944
2419,35008
2420,35008
2421,34880
2422,34816
2423,34816
2424,34816
2425,34816
2426,34880
2427,35072
2428,35136
2429,34944
2430,34688
2431,34368
2432,34112
2433,33984
2434,33920
2435,33856
2436,33792
2437,33600
2438,33472
2439,33600
2440,33664
2441,33408
2442,33152
2443,33024
2444,32960
2445,32960
2446,32832
2447,32576
2448,32512
2449,32576
2450,32768
2451,33024
2452,33216
2453,33344
2454,33408
2455,33344
2456,33280
2457,33152
2458,33088
2459,33088
2460,33152
2461,33344
2462,33664
2463,33984
2464,33920
2465,33792
2466,33856
2467,33856
2468,33920
2469,33920
2470,33856
2471,33600
2472,33344
2473,33280
2474,33536
2475,33728
2476,33984
2477,34112
2478,34112
2479,33920
2480,34048
2481,34304
2482,34240
2483,33856
2484,33536
2485,33472
2486,33664
2487,33856
2488,33792
2489,33664
2490,33600
2491,33664
2492,33856
2493,34048
2494,33984
2495,33920
2496,34112
2497,34240
2498,34240
2499,33984
2500,33728
2501,33600
2502,33536
2503,33600
2504,33728
2505,33856
2506,33920
2507,33920
2508,33920
2509,33984
2510,33856
2511,33728
2512,33792
2513,33856
2514,33920
2515,33984
2516,34176
2517,34112
2518,33920
2519,33920
2520,33984
2521,34176
2522,34176
2523,34048
2524,33920
2525,33856
2526,33856
2527,33984
2528,34112
2529,34176
2530,34240
2531,34240
2532,34240
2533,34304
2534,34368
2535,34368
2536,34304
2537,34304
2538,34368
2539,34432
2540,34368
2541,33984
2542,33728
2543,33792
2544,33920
2545,34048
2546,33984
2547,34048
2548,34240
2549,34496
2550,34624
2551,34432
2552,33984
2553,33664
2554,33536
2555,33536
2556,33600
2557,33472
2558,33408
2559,33536
2560,33792
2561,33920
2562,34048
2563,34112
2564,34176
2565,34240
2566,34240
2567,34112
2568,33984
2569,33856
2570,33920
2571,34048
2572,34240
2573,34368
2574,34496
2575,34368
2576,34240
2577,34240
2578,34368
2579,34560
2580,35264
2581,36544
2582,38400
2583,40000
2584,40448
2585,39488
2586,37824
2587,36032
2588,34560
2589,33280
2590,32256
2591,31552
2592,31424
2593,31616
2594,32000
2595,32576
2596,32960
2597,33216
2598,33216
2599,33216
2600,33344
2601,33536
2602,33728
2603,33728
2604,33728
2605,33728
2606,33792
2607,33856
2608,34048
2609,34304
2610,34496
2611,34432
2612,34240
2613,34112
2614,34240
2615,34496
2616,34560
2617,34432
2618,34176
2619,33984
2620,33984
2621,33984
2622,33984
2623,33856
2624,33920
2625,34048
2626,34368
2627,34432
2628,34368
2629,34240
2630,34176
2631,34240
2632,34432
2633,34624
2634,34752
2635,34880
2636,34944
2637,35136
2638,35136
2639,34944
2640,34816
2641,34816
2642,34880
2643,34816
2644,34816
2645,34880
2646,34816
2647,34688
2648,34688
2649,34496
2650,34176
2651,33984
2652,33856
2653,33920
2654,33856
2655,33664
2656,33408
2657,33280
2658,33024
2659,32896
2660,32896
2661,32896
2662,32896
2663,32832
2664,32896
2665,33088
2666,33344
2667,33344
2668,33344
2669,33344
2670,33280
2671,33344
2672,33536
2673,33600
2674,33536
2675,33536
2676,33792
2677,33920
2678,34048
2679,33984
2680,33792
2681,33728
2682,33600
2683,33472
2684,33408
2685,33472
2686,33536
2687,33664
2688,33728
2689,33728
2690,33728
2691,33792
2692,33856
2693,33984
2694,34112
2695,34176
2696,34112
2697,33920
2698,33728
2699,33664
2700,33728
2701,33920
2702,34048
2703,34048
2704,34112
2705,34176
2706,34304
2707,34304
2708,34048
2709,33664
2710,33472
2711,33536
2712,33728
2713,33920
2714,33984
2715,33920
2716,33856
2717,33856
2718,33920
2719,34048
2720,34176
2721,34176
2722,34048
2723,33792
2724,33664
2725,33600
2726,33664
2727,33984
2728,34240
2729,34112
2730,33920
2731,33920
2732,33856
2733,33856
2734,34048
2735,34112
2736,33856
2737,33728
2738,33728
2739,33728
2740,33728
2741,33856
2742,34048
2743,34112
2744,34112
2745,34048
2746,33856
2747,33664
2748,33728
2749,33856
2750,33920
2751,34048
2752,34240
2753,34176
2754,34176
2755,34496
2756,34496
2757,34176
2758,33856
2759,33600
2760,33408
2761,33472
2762,33600
2763,33728
2764,33920
2765,33984
2766,34048
2767,33920
2768,33792
2769,33920
2770,34048
2771,34048
2772,34048
2773,33984
2774,33792
2775,33664
2776,33664
2777,33728
2778,34048
2779,34176
2780,34112
2781,33984
2782,33920
2783,33856
2784,33728
2785,33536
2786,33408
2787,33472
2788,33600
2789,33728
2790,33984
2791,34304
2792,34560
2793,34496
2794,34496
2795,35008
2796,36288
2797,38208
2798,40192
2799,41152
2800,40320
2801,38400
2802,36224
2803,34240
2804,32576
2805,31424
2806,30912
2807,31040
2808,31744
2809,32320
2810,32576
2811,32896
2812,33152
2813,33408
2814,33600
2815,33600
2816,33472
2817,33600
2818,33664
2819,33664
2820,33728
2821,33600
2822,33408
2823,33472
2824,33600
2825,33792
2826,33920
2827,34048
2828,33984
2829,33984
2830,34048
2831,34048
2832,34112
2833,34368
2834,34432
2835,34304
2836,34176
2837,34112
2838,33984
2839,34048
2840,34176
2841,34112
2842,34112
2843,34240
2844,34240
2845,34240
2846,34368
2847,34688
2848,35072
2849,35136
2850,34944
2851,34752
2852,34752
2853,34944
2854,35136
2855,35072
2856,35008
2857,35008
2858,34880
2859,34560
2860,34368
2861,34368
2862,34432
2863,34496
2864,34496
2865,34240
2866,34048
2867,33920
2868,33920
2869,33856
2870,33728
2871,33600
2872,33472
2873,33344
2874,33216
2875,33152
2876,33088
2877,33024
2878,33088
2879,33152
2880,33216
2881,33600
2882,33792
2883,33344
2884,32704
2885,32320
2886,32320
2887,32448
2888,32640
2889,32768
2890,32896
2891,33216
2892,33472
2893,33728
2894,33792
2895,33728
2896,33600
2897,33536
2898,33600
2899,33728
2900,33728
2901,33856
2902,33920
2903,33984
2904,33984
2905,33984
2906,33920
2907,33920
2908,34048
2909,34048
2910,33920
2911,33792
2912,33664
2913,33472
2914,33472
2915,33408
2916,33536
2917,33600
2918,33728
2919,33920
2920,34048
2921,34176
2922,34240
2923,34176
2924,34048
2925,33920
2926,33856
2927,33920
2928,33920
2929,33920
2930,33920
2931,33856
2932,33792
2933,33792
2934,33792
2935,33792
2936,33984
2937,34240
2938,34112
2939,33856
2940,33984
2941,33984
2942,33792
2943,33664
2944,33728
2945,33856
2946,33920
2947,33984
2948,33984
2949,33984
2950,33920
2951,33856
2952,33920
2953,33920
2954,33728
2955,33664
2956,33792
2957,34048
2958,34176
2959,34112
2960,33856
2961,33664
2962,33600
2963,33664
2964,33728
2965,33792
2966,33792
2967,33856
2968,33856
2969,33920
2970,34048
2971,34176
2972,34240
2973,34304
2974,34368
2975,34304
2976,34304
2977,34240
2978,34368
2979,34304
2980,34048
2981,33920
2982,33984
2983,34112
2984,33984
2985,33856
2986,33856
2987,33792
2988,33984
2989,34112
2990,33984
2991,33728
2992,33472
2993,33344
2994,33280
2995,33408
2996,33472
2997,33536
2998,33664
2999,33792
3000,33856
3001,33856
3002,33984
3003,33920
3004,33856
3005,33856
3006,33920
3007,34048
3008,34112
3009,34112
3010,34176
3011,34112
3012,34112
3013,34048
3014,34048
3015,34240
3016,34368
3017,34368
3018,34560
3019,35328
3020,36928
3021,38848
3022,40704
3023,41216
3024,40128
3025,37952
3026,35520
3027,33600
3028,32128
3029,31232
3030,31040
3031,31360
3032,31744
3033,32128
3034,32448
3035,32704
3036,32960
3037,33216
3038,33408
3039,33472
3040,33536
3041,33728
3042,34048
3043,34240
3044,34176
3045,33920
3046,33600
3047,33600
3048,33600
3049,33472
3050,33408
3051,33344
3052,33344
3053,33536
3054,33664
3055,33792
3056,33984
3057,34112
3058,34240
3059,34304
3060,34240
3061,34240
3062,34112
3063,34048
3064,34176
3065,34496
3066,34688
3067,34624
3068,34496
3069,34496
3070,34432
3071,34304
3072,34432
3073,34624
3074,34880
3075,34880
3076,34688
3077,34560
3078,34560
3079,34688
3080,34880
3081,34944
3082,34944
3083,34944
3084,34944
3085,35008
3086,35008
3087,34880
3088,34688
3089,34560
3090,34432
3091,34240
3092,34176
3093,34240
3094,34176
3095,33856
3096,33344
3097,32896
3098,32704
3099,32576
3100,32576
3101,32640
3102,32704
3103,32704
3104,32704
3105,32832
3106,32896
3107,32960
3108,33024
3109,33088
3110,33152
3111,33216
3112,33216
3113,33280
3114,33280
3115,33344
3116,33408
3117,33536
3118,33600
3119,33664
3120,33664
3121,33664
3122,33856
3123,34176
3124,34368
3125,34304
3126,34048
3127,33792
3128,33472
3129,33280
3130,33152
3131,33152
3132,33280
3133,33408
3134,33600
3135,33728
3136,33792
3137,33856
3138,33920
3139,33920
3140,33856
3141,33856
3142,33920
3143,34048
3144,34048
3145,34112
3146,34112
3147,34112
3148,34112
3149,34048
3150,33984
3151,33984
3152,33984
3153,33792
3154,33728
3155,33664
3156,33664
3157,33856
3158,33984
3159,34048
3160,34048
3161,34112
3162,34176
3163,33984
3164,33792
3165,33600
3166,33600
3167,33664
3168,33920
3169,33920
3170,33856
3171,33792
3172,33728
3173,33856
3174,34048
3175,34176
3176,34176
3177,34176
3178,34048
3179,34048
3180,34048
3181,34048
3182,33984
3183,34048
3184,34240
3185,34240
3186,34112
3187,33984
3188,33856
3189,33920
3190,34048
3191,34048
3192,33920
3193,33920
3194,33920
3195,33984
3196,34048
3197,34048
3198,34048
3199,33984
3200,33920
3201,33856
3202,33728
3203,33664
3204,33664
3205,33920
3206,34304
3207,34432
3208,33984
3209,33600
3210,33472
3211,33600
3212,33792
3213,33920
3214,33856
3215,33472
3216,33280
3217,33280
3218,33344
3219,33408
3220,33536
3221,33664
3222,33792
3223,33856
3224,33984
3225,34048
3226,34112
3227,34112
3228,34176
3229,34240
3230,34368
3231,34304
3232,34240
3233,34176
3234,34176
3235,34368
3236,34432
3237,34432
3238,34432
3239,34496
3240,34624
3241,35264
3242,36736
3243,38720
3244,40320
3245,40640
3246,39360
3247,37248
3248,35008
3249,33152
3250,31808
3251,30976
3252,31360
3253,31936
3254,32448
3255,32448
3256,32960
3257,33088
3258,33152
3259,33216
3260,33344
3261,33344
3262,33728
3263,33856
3264,33856
3265,33856
3266,33920
3267,33984
3268,33920
3269,33856
3270,33792
3271,33920
3272,34048
3273,34112
3274,34176
3275,34112
3276,33984
3277,33856
3278,33856
3279,33920
3280,33920
3281,33920
3282,33984
3283,34048
3284,34112
3285,34048
3286,34240
3287,34432
3288,34624
3289,34752
3290,34688
3291,34432
3292,34432
3293,34496
3294,34560
3295,34496
3296,34496
3297,34560
3298,34624
3299,34752
3300,34752
3301,35008
3302,35008
3303,35072
3304,35136
3305,35072
3306,34944
3307,34816
3308,34752
3309,34752
3310,34688
3311,34560
3312,34304
3313,33792
3314,33472
3315,33408
3316,33472
3317,33152
3318,32896
3319,32896
3320,33024
3321,32960
3322,32768
3323,32640
3324,32640
3325,32576
3326,32448
3327,32512
3328,32576
3329,32768
3330,32832
3331,32960
3332,33024
3333,33216
3334,33344
3335,33344
3336,33472
3337,33728
3338,33856
3339,33792
3340,33792
3341,33856
3342,33792
3343,33728
3344,33792
3345,33600
3346,33408
3347,33472
3348,33728
3349,33856
3350,33728
3351,33600
3352,33600
3353,33728
3354,33728
3355,33664
3356,33664
3357,33664
3358,33792
3359,33856
3360,33920
3361,33984
3362,33984
3363,33920
3364,34048
3365,34048
3366,33920
3367,33920
3368,33984
3369,33728
3370,33664
3371,33600
3372,33664
3373,33728
3374,33728
3375,33856
3376,33984
3377,34048
3378,34048
3379,34176
3380,34240
3381,34176
3382,33792
3383,33536
3384,33536
3385,33728
3386,33920
3387,34048
3388,33984
3389,33984
3390,33984
3391,33984
3392,33920
3393,33920
3394,33920
3395,33984
3396,34048
3397,33984
3398,33984
3399,34048
3400,34048
3401,34048
3402,34048
3403,34240
3404,34368
3405,34176
3406,33984
3407,33856
3408,33856
3409,33792
3410,33792
3411,33920
3412,33984
3413,33920
3414,33920
3415,33920
3416,33920
3417,33920
3418,33920
3419,33984
3420,33984
3421,34048
3422,34176
3423,34304
3424,34240
3425,34176
3426,34048
3427,33984
3428,33856
3429,33728
3430,33728
3431,33728
3432,33664
3433,33728
3434,33792
3435,33856
3436,33664
3437,33472
3438,33408
3439,33536
3440,33728
3441,33792
3442,33920
3443,33920
3444,33792
3445,33792
3446,33920
3447,33920
3448,33856
3449,33856
3450,33792
3451,33792
3452,33792
3453,33856
3454,33920
3455,33984
3456,33984
3457,34048
3458,34176
3459,34368
3460,34432
3461,34176
3462,33984
3463,34368
3464,35392
3465,37120
3466,39168
3467,40640
3468,40448
3469,38912
3470,36736
3471,34880
3472,33344
3473,32192
3474,31424
3475,31232
3476,31616
3477,32064
3478,32384
3479,32576
3480,32832
3481,33280
3482,33472
3483,33536
3484,33536
3485,33536
3486,33472
3487,33472
3488,33600
3489,33792
3490,33856
3491,33792
3492,33792
3493,33920
3494,34112
3495,34240
3496,34240
3497,34240
3498,34176
3499,34112
3500,33920
3501,33856
3502,33856
3503,33792
3504,33728
3505,33792
3506,33920
3507,33984
3508,33920
3509,33920
3510,34048
3511,34112
3512,34304
3513,34496
3514,34560
3515,34560
3516,34560
3517,34624
3518,34624
3519,34560
3520,34560
3521,34688
3522,34944
3523,35072
3524,35200
3525,35136
3526,35008
3527,34880
3528,34816
3529,34688
3530,34560
3531,34624
3532,34688
3533,34496
3534,34048
3535,33664
3536,33472
3537,33536
3538,33664
3539,33664
3540,33472
3541,33344
3542,33408
3543,33280
3544,33152
3545,32960
3546,32832
3547,32832
3548,32960
3549,33024
3550,33024
3551,33152
3552,33280
3553,33280
3554,33344
3555,33280
3556,33152
3557,33152
3558,33152
3559,33216
3560,33152
3561,33280
3562,33408
3563,33536
3564,33664
3565,33600
3566,33600
3567,33664
3568,33728
3569,33792
3570,33856
3571,33920
3572,33920
3573,33792
3574,33728
3575,33664
3576,33728
3577,33792
3578,33856
3579,33856
3580,33856
3581,33792
3582,33856
3583,33856
3584,33920
3585,33792
3586,33664
3587,33536
3588,33536
3589,33536
3590,33600
3591,33728
3592,33728
3593,33792
3594,33856
3595,33920
3596,33920
3597,33856
3598,33856
3599,33920
3600,33984
3601,34048
3602,34112
3603,34048
3604,34048
3605,34048
3606,33984
3607,33920
3608,33984
3609,33984
3610,33792
3611,33664
3612,33664
3613,33792
3614,33856
3615,33728
3616,33664
3617,33728
3618,33856
3619,33920
3620,33920
3621,34048
3622,34176
3623,34176
3624,33984
3625,33984
3626,34048
3627,34112
3628,34112
3629,34048
3630,34112
3631,34240
3632,34304
3633,34368
3634,34304
3635,34112
3636,33984
3637,33920
3638,34112
3639,34304
3640,34496
3641,34432
3642,34304
3643,34176
3644,34048
3645,33856
3646,33664
3647,33600
3648,33664
3649,33728
3650,33920
3651,34048
3652,34112
3653,34112
3654,34048
3655,33984
3656,33920
3657,34048
3658,34048
3659,33984
3660,33856
3661,33728
3662,33728
3663,33792
3664,33920
3665,33920
3666,33984
3667,34048
3668,34112
3669,34048
3670,33984
3671,33792
3672,33728
3673,33728
3674,33728
3675,33728
3676,33920
3677,34048
3678,34112
3679,34240
3680,34304
3681,34176
3682,34112
3683,34496
3684,35584
3685,37376
3686,39296
3687,40320
3688,40000
3689,38528
3690,36672
3691,34944
3692,33600
3693,32512
3694,31808
3695,31616
3696,31808
3697,32000
3698,32320
3699,32704
3700,33024
3701,33216
3702,33536
3703,33792
3704,33920
3705,33856
3706,33728
3707,33600
3708,33472
3709,33408
3710,33536
3711,33664
3712,33728
3713,33728
3714,33792
3715,33920
3716,33984
3717,34048
3718,34176
3719,34304
3720,34304
3721,34304
3722,34240
3723,34048
3724,33920
3725,33856
3726,33920
3727,34112
3728,34304
3729,34368
3730,34304
3731,34304
3732,34304
3733,34368
3734,34496
3735,34560
3736,34496
3737,34496
3738,34496
3739,34688
3740,34752
3741,34752
3742,34880
3743,34880
3744,34816
3745,34688
3746,34560
3747,34496
3748,34624
3749,34688
3750,34752
3751,34752
3752,34688
3753,34624
3754,34624
3755,34560
3756,34368
3757,34048
3758,33920
3759,33728
3760,33600
3761,33472
3762,33408
3763,33216
3764,33024
3765,32960
3766,32960
3767,32960
3768,33024
3769,32960
3770,32960
3771,33024
3772,33152
3773,33216
3774,33344
3775,33344
3776,33408
3777,33344
3778,33216
3779,33216
3780,33344
3781,33472
3782,33664
3783,33792
3784,33792
3785,33728
3786,33664
3787,33664
3788,33728
3789,33856
3790,33792
3791,33728
3792,33792
3793,33856
3794,33856
3795,33856
3796,33856
3797,33792
3798,33792
3799,33792
3800,33792
3801,33728
3802,33792
3803,33856
3804,33984
3805,34048
3806,34112
3807,34112
3808,34048
3809,33856
3810,33792
3811,33728
3812,33664
3813,33600
3814,33728
3815,33984
3816,34112
3817,34112
3818,33920
3819,33792
3820,33792
3821,33856
3822,33792
3823,33728
3824,33664
3825,33728
3826,33856
3827,33984
3828,34112
3829,34048
3830,33984
3831,34048
3832,34176
3833,34048
3834,33856
3835,33792
3836,33792
3837,33856
3838,33984
3839,33984
3840,33984
3841,33984
3842,34048
3843,34112
3844,34048
3845,33920
3846,33856
3847,33792
3848,33792
3849,33856
3850,33920
3851,33856
3852,33856
3853,33920
3854,33920
3855,33920
3856,33984
3857,33920
3858,33728
3859,33792
3860,33984
3861,34176
3862,34112
3863,34048
3864,34048
3865,34176
3866,34368
3867,34496
3868,34560
3869,34432
3870,33984
3871,33664
3872,33536
3873,33600
3874,33664
3875,33728
3876,33856
3877,33984
3878,34112
3879,34176
3880,34112
3881,33920
3882,33728
3883,33600
3884,33600
3885,33664
3886,33792
3887,33792
3888,33728
3889,33792
3890,33792
3891,33856
3892,33856
3893,33728
3894,33664
3895,33920
3896,34048
3897,34112
3898,34048
3899,34112
3900,34048
3901,33984
3902,33920
3903,33920
3904,33984
3905,34112
3906,34176
3907,34112
3908,34432
3909,35456
3910,37120
3911,39232
3912,41024
3913,41152
3914,39808
3915,37760
3916,35712
3917,33984
3918,32512
3919,31488
3920,31104
3921,31424
3922,31872
3923,32192
3924,32320
3925,32448
3926,32640
3927,32896
3928,33088
3929,33152
3930,33280
3931,33472
3932,33600
3933,33664
3934,33600
3935,33600
3936,33728
3937,33856
3938,33920
3939,33984
3940,33984
3941,34048
3942,34112
3943,34240
3944,34240
3945,34240
3946,34112
3947,33984
3948,33856
3949,33792
3950,33920
3951,34048
3952,34048
3953,34048
3954,34048
3955,34176
3956,34240
3957,34304
3958,34304
3959,34304
3960,34304
3961,34304
3962,34368
3963,34432
3964,34432
3965,34560
3966,34688
3967,34816
3968,34880
3969,35008
3970,35072
3971,35072
3972,35072
3973,35200
3974,35008
3975,34688
3976,34560
3977,34432
3978,34240
3979,34176
3980,34176
3981,34176
3982,33984
3983,33792
3984,33600
3985,33472
3986,33280
3987,33024
3988,32960
3989,32896
3990,32896
3991,33024
3992,33088
3993,33024
3994,32832
3995,32832
3996,33024
3997,33088
3998,33088
3999,33152
4000,33088
4001,32896
4002,32896
4003,33024
4004,33216
4005,33472
4006,33600
4007,33664
4008,33664
4009,33664
4010,33600
4011,33536
4012,33536
4013,33600
4014,33664
4015,33600
4016,33664
4017,33792
4018,34048
4019,34176
4020,34048
4021,33920
4022,33856
4023,33920
4024,33920
4025,33856
4026,33792
4027,33728
4028,33856
4029,33792
4030,33664
4031,33664
4032,33728
4033,33728
4034,33792
4035,33856
4036,33792
4037,33792
4038,33792
4039,33856
4040,33984
4041,34048
4042,34048
4043,33920
4044,33856
4045,33920
4046,33920
4047,33728
4048,33664
4049,33664
4050,33728
4051,33728
4052,33792
4053,33984
4054,34176
4055,34048
4056,33792
4057,33600
4058,33664
4059,33792
4060,33856
4061,33920
4062,33984
4063,34112
4064,34048
4065,33920
4066,33984
4067,34048
4068,33984
4069,33728
4070,33536
4071,33600
4072,33728
4073,33920
4074,33984
4075,33984
4076,33984
4077,33984
4078,33856
4079,33856
4080,33856
4081,33856
4082,33984
4083,34112
4084,34112
4085,34048
4086,33920
4087,33792
4088,33728
4089,33856
4090,34048
4091,34176
4092,34176
4093,34112
4094,34112
4095,34048
4096,33984
4097,33920
4098,33792
4099,33728
4100,33664
4101,33728
4102,33856
4103,34048
4104,34176
4105,34304
4106,34240
4107,34112
4108,33920
4109,33792
4110,33728
4111,33600
4112,33536
4113,33472
4114,33472
4115,33600
4116,33856
4117,34048
4118,33920
4119,33728
4120,33728
4121,33856
4122,33920
4123,33920
4124,33920
4125,33920
4126,33856
4127,33792
4128,33728
4129,33792
4130,33792
4131,33920
4132,33984
4133,33984
4134,33984
4135,34240
4136,34880
4137,36160
4138,38016
4139,40192
4140,41728
4141,41472
4142,39808
4143,37440
4144,35136
4145,33216
4146,31680
4147,30720
4148,30400
4149,30592
4150,31104
4151,31680
4152,32256
4153,32704
4154,33024
4155,33280
4156,33344
4157,33408
4158,33536
4159,33600
4160,33664
4161,33664
4162,33728
4163,33920
4164,33984
4165,34112
4166,34176
4167,34048
4168,33728
4169,33536
4170,33600
4171,33664
4172,33792
4173,33856
4174,33792
4175,33856
4176,33856
4177,33984
4178,34112
4179,34112
4180,34048
4181,34048
4182,34304
4183,34432
4184,34304
4185,34240
4186,34240
4187,34304
4188,34432
4189,34560
4190,34560
4191,34688
4192,34816
4193,34880
4194,34816
4195,34752
4196,34752
4197,34752
4198,34816
4199,34880
4200,34944
4201,34944
4202,34944
4203,34880
4204,34816
4205,34560
4206,34368
4207,34176
4208,34048
4209,33856
4210,33728
4211,33600
4212,33408
4213,33408
4214,33408
4215,33280
4216,33088
4217,32896
4218,32832
4219,32704
4220,32704
4221,32768
4222,32768
4223,32832
4224,32832
4225,32768
4226,32896
4227,32960
4228,33088
4229,33152
4230,33088
4231,33024
4232,33088
4233,33280
4234,33408
4235,33536
4236,33600
4237,33600
4238,33792
4239,33920
4240,33920
4241,33856
4242,33792
4243,33792
4244,33728
4245,33664
4246,33600
4247,33600
4248,33664
4249,33792
4250,33856
4251,33792
4252,33728
4253,33728
4254,33792
4255,33920
4256,34112
4257,34112
4258,33920
4259,33728
4260,33664
4261,33792
4262,33792
4263,33792
4264,33920
4265,33984
4266,33856
4267,33728
4268,33664
4269,33664
4270,33664
4271,33664
4272,33728
4273,33856
4274,33856
4275,33792
4276,33792
4277,33728
4278,33792
4279,33856
4280,34048
4281,34176
4282,34048
4283,33984
4284,33920
4285,33792
4286,33728
4287,33856
4288,33792
4289,33728
4290,33728
4291,33792
4292,33856
4293,33920
4294,34048
4295,34048
4296,33984
4297,33984
4298,33984
4299,33984
4300,33920
4301,33792
4302,33600
4303,33600
4304,33664
4305,33664
4306,33792
4307,33984
4308,33984
4309,33984
4310,34048
4311,34112
4312,34112
4313,34048
4314,33920
4315,33856
4316,33792
4317,33664
4318,33664
4319,33728
4320,33856
4321,34048
4322,34176
4323,34176
4324,34176
4325,34176
4326,34112
4327,34112
4328,33984
4329,33856
4330,33792
4331,33664
4332,33536
4333,33472
4334,33600
4335,33792
4336,34048
4337,34176
4338,34176
4339,34112
4340,34112
4341,34112
4342,34112
4343,34112
4344,34048
4345,33856
4346,33664
4347,33408
4348,33344
4349,33280
4350,33472
4351,33664
4352,33728
4353,33728
4354,33664
4355,33728
4356,33856
4357,34048
4358,34240
4359,34304
4360,34176
4361,34112
4362,33984
4363,33984
4364,34112
4365,34240
4366,34240
4367,34176
4368,34624
4369,35776
4370,37760
4371,40064
4372,41408
4373,41024
4374,39360
4375,37184
4376,34944
4377,33024
4378,31680
4379,30976
4380,30912
4381,31232
4382,31680
4383,32064
4384,32384
4385,32640
4386,32896
4387,33088
4388,33280
4389,33472
4390,33664
4391,33728
4392,33600
4393,33536
4394,33728
4395,33792
4396,33728
4397,33792
4398,33984
4399,34112
4400,34176
4401,34048
4402,33920
4403,33920
4404,33920
4405,33728
4406,33600
4407,33664
4408,33856
4409,33920
4410,33984
4411,34176
4412,34368
4413,34432
4414,34496
4415,34432
4416,34304
4417,34240
4418,34432
4419,34688
4420,34560
4421,34368
4422,34304
4423,34432
4424,34560
4425,34816
4426,35008
4427,35200
4428,35072
4429,34880
4430,34752
4431,34688
4432,34688
4433,34752
4434,34944
4435,35072
4436,34880
4437,34624
4438,34432
4439,34368
4440,34368
4441,34240
4442,34048
4443,33856
4444,33664
4445,33408
4446,33152
4447,33024
4448,32896
4449,32832
4450,32960
4451,32960
4452,32832
4453,32768
4454,32576
4455,32512
4456,32512
4457,32576
4458,32704
4459,32896
4460,33088
4461,33280
4462,33408
4463,33600
4464,33792
4465,33728
4466,33536
4467,33280
4468,33088
4469,33152
4470,33344
4471,33472
4472,33472
4473,33600
4474,33664
4475,33664
4476,33792
4477,33920
4478,33856
4479,33728
4480,33664
4481,33728
4482,33856
4483,33920
4484,33984
4485,33984
4486,34048
4487,34048
4488,33984
4489,33920
4490,33984
4491,34048
4492,34048
4493,34048
4494,33920
4495,33792
4496,33728
4497,33728
4498,33664
4499,33792
4500,33920
4501,33856
4502,33792
4503,33728
4504,33664
4505,33728
4506,33856
4507,33984
4508,34112
4509,34176
4510,33984
4511,33792
4512,33792
4513,33856
4514,33920
4515,33856
4516,33856
4517,33856
4518,33792
4519,33664
4520,33664
4521,33728
4522,33920
4523,34048
4524,34112
4525,34112
4526,34112
4527,34112
4528,34176
4529,34048
4530,33792
4531,33792
4532,33920
4533,33920
4534,33856
4535,33920
4536,33984
4537,33984
4538,33920
4539,33792
4540,33728
4541,33728
4542,33920
4543,34112
4544,34240
4545,34304
4546,34304
4547,34176
4548,34112
4549,33984
4550,33856
4551,33856
4552,33984
4553,34112
4554,34048
4555,33920
4556,33792
4557,33728
4558,33856
4559,33984
4560,34048
4561,33920
4562,33792
4563,33856
4564,34048
4565,34112
4566,34048
4567,33984
4568,34048
4569,34112
4570,34112
4571,33984
4572,33856
4573,33792
4574,33728
4575,33600
4576,33408
4577,33344
4578,33472
4579,33536
4580,33664
4581,33728
4582,33856
4583,33920
4584,33984
4585,33920
4586,33920
4587,33920
4588,33920
4589,33984
4590,34048
4591,34112
4592,34112
4593,34112
4594,34176
4595,34240
4596,34240
4597,34112
4598,33984
4599,34176
4600,35136
4601,36672
4602,38848
4603,40768
4604,41152
4605,39808
4606,37888
4607,35712
4608,33792
4609,32192
4610,31168
4611,30784
4612,30912
4613,31424
4614,32000
4615,32448
4616,32832
4617,33280
4618,33600
4619,33664
4620,33472
4621,33408
4622,33600
4623,33728
4624,33664
4625,33536
4626,33472
4627,33536
4628,33600
4629,33856
4630,34048
4631,34048
4632,33984
4633,33984
4634,33920
4635,33920
4636,33984
4637,34048
4638,34048
4639,34048
4640,34240
4641,34304
4642,34112
4643,33984
4644,33984
4645,34112
4646,34112
4647,34176
4648,34368
4649,34496
4650,34368
4651,34240
4652,34176
4653,34176
4654,34176
4655,34368
4656,34560
4657,34624
4658,34688
4659,34880
4660,35008
4661,35072
4662,35072
4663,35008
4664,34880
4665,34880
4666,34880
4667,34880
4668,34816
4669,34752
4670,34560
4671,34368
4672,34048
4673,33920
4674,33856
4675,33536
4676,33152
4677,32960
4678,32832
4679,32768
4680,32832
4681,32832
4682,32832
4683,32768
4684,32832
4685,32960
4686,33024
4687,32960
4688,32960
4689,33024
4690,33088
4691,33088
4692,33024
4693,33024
4694,33280
4695,33536
4696,33664
4697,33536
4698,33344
4699,33280
4700,33408
4701,33728
4702,33792
4703,33664
4704,33600
4705,33664
4706,33664
4707,33792
4708,33920
4709,33984
4710,33856
4711,33728
4712,33664
4713,33536
4714,33536
4715,33600
4716,33728
4717,33856
4718,33920
4719,33920
4720,33984
4721,33920
4722,33984
4723,34048
4724,33856
4725,33728
4726,33664
4727,33792
4728,33856
4729,33856
4730,33792
4731,33792
4732,33856
4733,33920
4734,33920
4735,33920
4736,33920
4737,33856
4738,33792
4739,33792
4740,33792
4741,33856
4742,33920
4743,34048
4744,33984
4745,33856
4746,33856
4747,33984
4748,34048
4749,33984
4750,33856
4751,33664
4752,33536
4753,33536
4754,33664
4755,33728
4756,33792
4757,33792
4758,33792
4759,33984
4760,34176
4761,34304
4762,34240
4763,34176
4764,34112
4765,33984
4766,33920
4767,33856
4768,33984
4769,33984
4770,33856
4771,33728
4772,33728
4773,33792
4774,33856
4775,33920
4776,33920
4777,33920
4778,34048
4779,33984
4780,33920
4781,33792
4782,33728
4783,33856
4784,33984
4785,34048
4786,34304
4787,34304
4788,34112
4789,33920
4790,33856
4791,33856
4792,33792
4793,33856
4794,33984
4795,34112
4796,34240
4797,34112
4798,34048
4799,33984
4800,33856
4801,33664
4802,33536
4803,33536
4804,33600
4805,33600
4806,33600
4807,33600
4808,33664
4809,33856
4810,33920
4811,33792
4812,33664
4813,33664
4814,33664
4815,33728
4816,33856
4817,33984
4818,34048
4819,33984
4820,33856
4821,33856
4822,33984
4823,34112
4824,34112
4825,34048
4826,33984
4827,34240
4828,35008
4829,36480
4830,38464
4831,40512
4832,41152
4833,40256
4834,38336
4835,36096
4836,34112
4837,32512
4838,31360
4839,30848
4840,30912
4841,31232
4842,31936
4843,32512
4844,32832
4845,32960
4846,33152
4847,33344
4848,33472
4849,33536
4850,33664
4851,33728
4852,33664
4853,33600
4854,33536
4855,33536
4856,33600
4857,33728
4858,33856
4859,33984
4860,33984
4861,34048
4862,33984
4863,33920
4864,33856
4865,33920
4866,33984
4867,33984
4868,34112
4869,34304
4870,34496
4871,34496
4872,34304
4873,34240
4874,34432
4875,34368
4876,34176
4877,34048
4878,34112
4879,34240
4880,34240
4881,34304
4882,34368
4883,34560
4884,34880
4885,35072
4886,34944
4887,34752
4888,34816
4889,34944
4890,35008
4891,34816
4892,34560
4893,34432
4894,34432
4895,34624
4896,34816
4897,34816
4898,34624
4899,34432
4900,34176
4901,33984
4902,33728
4903,33664
4904,33536
4905,33344
4906,33152
4907,33088
4908,33088
4909,33024
4910,32960
4911,32960
4912,32896
4913,32832
4914,32768
4915,32832
4916,32832
4917,32832
4918,32896
4919,33024
4920,33216
4921,33216
4922,33152
4923,33280
4924,33408
4925,33408
4926,33344
4927,33280
4928,33280
4929,33408
4930,33472
4931,33472
4932,33408
4933,33408
4934,33472
4935,33600
4936,33664
4937,33664
4938,33728
4939,33728
4940,33856
4941,34176
4942,34176
4943,34048
4944,33984
4945,34048
4946,33984
4947,33984
4948,34048
4949,33984
4950,33792
4951,33600
4952,33600
4953,33600
4954,33664
4955,33728
4956,33792
4957,33920
4958,34048
4959,33920
4960,33856
4961,33920
4962,33856
4963,33792
4964,33664
4965,33536
4966,33600
4967,33728
4968,33792
4969,33856
4970,33920
4971,34048
4972,34048
4973,33920
4974,33856
4975,33792
4976,33856
4977,33920
4978,33984
4979,34048
4980,33984
4981,33920
4982,33856
4983,33792
4984,33792
4985,33856
4986,33920
4987,34112
4988,34176
4989,33920
4990,33792
4991,33792
4992,33792
4993,33792
4994,33728
4995,33792
4996,33856
4997,33984
4998,34112
4999,34112
5000,33984
5001,33792
5002,33600
5003,33472
5004,33472
5005,33600
5006,33792
5007,34048
5008,34176
5009,34368
5010,34432
5011,34368
5012,34240
5013,34048
5014,33984
5015,34112
5016,34176
5017,33920
5018,33792
5019,33664
5020,33664
5021,33664
5022,33792
5023,33920
5024,34048
5025,34112
5026,34048
5027,33984
5028,33856
5029,33728
5030,33600
5031,33664
5032,33792
5033,33856
5034,33728
5035,33728
5036,33792
5037,33792
5038,33792
5039,33856
5040,33728
5041,33728
5042,33792
5043,33920
5044,34048
5045,34112
5046,34112
5047,33920
5048,33856
5049,34048
5050,34240
5051,34304
5052,34176
5053,34048
5054,33984
5055,34176
5056,34816
5057,36032
5058,37952
5059,40128
5060,41344
5061,40832
5062,39104
5063,36864
5064,34752
5065,33088
5066,31808
5067,31040
5068,30912
5069,31296
5070,32192
5071,32576
5072,32960
5073,33088
5074,33152
5075,33216
5076,33408
5077,33472
5078,33472
5079,33536
5080,33728
5081,33792
5082,33728
5083,33728
5084,33792
5085,33920
5086,33856
5087,33856
5088,33856
5089,33856
5090,33792
5091,33856
5092,33920
5093,33984
5094,34112
5095,34240
5096,34304
5097,34240
5098,34112
5099,34048
5100,34112
5101,34176
5102,34368
5103,34432
5104,34496
5105,34624
5106,34752
5107,34816
5108,34688
5109,34688
5110,34560
5111,34432
5112,34432
5113,34560
5114,34560
5115,34560
5116,34624
5117,34688
5118,34880
5119,35072
5120,35136
5121,34944
5122,34816
5123,34688
5124,34688
5125,34688
5126,34624
5127,34432
5128,34112
5129,33920
5130,33856
5131,33792
5132,33600
5133,33408
5134,33152
5135,33024
5136,32960
5137,32896
5138,32896
5139,32896
5140,32960
5141,32832
5142,32640
5143,32640
5144,32704
5145,32704
5146,32768
5147,32896
5148,33088
5149,33152
5150,33280
5151,33344
5152,33472
5153,33600
5154,33600
5155,33600
5156,33664
5157,33536
5158,33408
5159,33408
5160,33600
5161,33664
5162,33792
5163,33856
5164,33856
5165,33920
5166,33920
5167,33856
5168,33664
5169,33600
5170,33728
5171,33792
5172,33856
5173,33920
5174,34112
5175,34240
5176,34048
5177,33856
5178,33856
5179,33856
5180,33792
5181,33728
5182,33728
5183,33664
5184,33792
5185,33920
5186,33984
5187,33920
5188,33856
5189,33792
5190,33728
5191,33792
5192,33856
5193,33984
5194,34112
5195,34112
5196,34176
5197,34112
5198,33856
5199,33664
5200,33728
5201,33856
5202,33920
5203,33920
5204,33856
5205,33856
5206,34048
5207,34176
5208,34048
5209,33920
5210,33856
5211,33856
5212,33920
5213,33856
5214,33728
5215,33664
5216,33728
5217,33728
5218,33792
5219,33792
5220,33920
5221,34112
5222,34368
5223,34368
5224,34112
5225,33792
5226,33664
5227,33728
5228,33856
5229,33856
5230,33856
5231,33792
5232,33728
5233,33728
5234,33792
5235,33920
5236,34048
5237,34112
5238,34112
5239,34176
5240,34176
5241,34112
5242,33984
5243,33792
5244,33728
5245,33792
5246,33856
5247,33984
5248,34304
5249,34304
5250,34112
5251,33856
5252,33728
5253,33664
5254,33664
5255,33664
5256,33664
5257,33728
5258,33728
5259,33664
5260,33536
5261,33600
5262,33728
5263,33792
5264,33984
5265,34048
5266,33920
5267,33920
5268,33856
5269,33856
5270,33856
5271,33920
5272,33984
5273,34176
5274,34176
5275,33984
5276,33920
5277,34048
5278,34048
5279,33984
5280,34304
5281,35136
5282,36608
5283,38720
5284,40832
5285,41472
5286,40320
5287,38144
5288,35712
5289,33664
5290,32128
5291,31232
5292,30912
5293,31040
5294,31552
5295,32064
5296,32512
5297,32832
5298,33152
5299,33344
5300,33344
5301,33472
5302,33536
5303,33600
5304,33600
5305,33536
5306,33472
5307,33600
5308,33792
5309,33920
5310,33920
5311,33920
5312,33856
5313,33856
5314,33856
5315,33984
5316,34048
5317,34176
5318,34176
5319,34112
5320,34048
5321,34112
5322,34176
5323,34112
5324,34176
5325,34240
5326,34304
5327,34368
5328,34496
5329,34496
5330,34368
5331,34304
5332,34304
5333,34368
5334,34560
5335,34688
5336,34752
5337,34816
5338,34688
5339,34624
5340,34624
5341,34752
5342,34880
5343,35072
5344,35136
5345,35072
5346,35008
5347,35008
5348,35072
5349,35008
5350,34880
5351,34624
5352,34304
5353,34112
5354,33984
5355,33856
5356,33664
5357,33408
5358,33216
5359,33152
5360,33152
5361,32960
5362,32768
5363,32768
5364,32704
5365,32768
5366,32704
5367,32640
5368,32640
5369,32704
5370,32832
5371,32896
5372,32960
5373,33024
5374,33088
5375,33216
5376,33280
5377,33344
5378,33408
5379,33408
5380,33408
5381,33536
5382,33536
5383,33536
5384,33472
5385,33536
5386,33664
5387,33856
5388,33920
5389,33920
5390,33856
5391,33600
5392,33408
5393,33472
5394,33664
5395,33792
5396,33856
5397,33920
5398,33984
5399,33984
5400,33856
5401,33728
5402,33728
5403,33728
5404,33792
5405,33984
5406,33984
5407,34048
5408,34048
5409,34048
5410,33984
5411,33792
5412,33600
5413,33664
5414,33792
5415,34048
5416,34240
5417,34176
5418,34048
5419,33984
5420,33856
5421,33728
5422,33664
5423,33728
5424,33792
5425,33920
5426,33984
5427,33984
5428,33984
5429,33920
5430,33856
5431,33856
5432,33920
5433,34048
5434,34112
5435,34176
5436,34176
5437,34112
5438,34048
5439,33984
5440,33856
5441,33792
5442,33728
5443,33728
5444,33792
5445,33920
5446,33856
5447,34112
5448,34176
5449,34112
5450,33920
5451,33984
5452,34048
5453,33984
5454,33856
5455,33792
5456,33856
5457,33984
5458,34048
5459,34048
5460,34048
5461,33984
5462,34112
5463,34304
5464,34176
5465,33920
5466,33728
5467,33600
5468,33600
5469,33728
5470,33984
5471,34176
5472,34304
5473,34240
5474,34176
5475,34112
5476,33984
5477,33984
5478,33920
5479,33856
5480,33856
5481,33792
5482,33856
5483,33792
5484,33792
5485,33664
5486,33536
5487,33600
5488,33728
5489,33920
5490,33920
5491,33920
5492,33984
5493,34048
5494,34176
5495,34240
5496,34176
5497,34048
5498,33984
5499,34048
5500,34112
5501,34112
5502,34240
5503,34176
5504,34048
5505,34496
5506,35584
5507,37248
5508,39296
5509,40832
5510,40640
5511,39168
5512,37248
5513,35264
5514,33472
5515,32064
5516,31232
5517,31104
5518,31296
5519,31616
5520,32000
5521,32448
5522,32832
5523,33280
5524,33536
5525,33792
5526,33984
5527,33792
5528,33408
5529,33088
5530,33088
5531,33280
5532,33600
5533,33856
5534,34048
5535,34176
5536,34112
5537,33984
5538,33920
5539,33920
5540,34048
5541,34112
5542,34304
5543,34496
5544,34752
5545,34688
5546,34176
5547,33664
5548,33344
5549,33344
5550,33536
5551,33664
5552,33664
5553,33728
5554,33856
5555,33984
5556,34112
5557,34240
5558,34368
5559,34560
5560,34816
5561,34944
5562,35072
5563,35008
5564,35008
5565,35008
5566,35072
5567,35136
5568,35264
5569,35200
5570,35008
5571,34752
5572,34432
5573,34176
5574,34176
5575,34432
5576,34496
5577,34304
5578,34112
5579,33984
5580,33792
5581,33600
5582,33344
5583,33152
5584,33088
5585,32960
5586,32896
5587,32896
5588,33088
5589,33088
5590,33088
5591,33088
5592,33152
5593,33024
5594,32832
5595,32768
5596,32896
5597,33024
5598,32960
5599,32960
5600,33152
5601,33216
5602,33152
5603,33088
5604,33216
5605,33280
5606,33536
5607,33728
5608,33792
5609,33856
5610,33792
5611,33728
5612,33600
5613,33536
5614,33664
5615,33728
5616,33728
5617,33792
5618,33856
5619,33984
5620,34112
5621,34240
5622,34176
5623,34048
5624,34048
5625,33984
5626,33728
5627,33664
5628,33664
5629,33536
5630,33408
5631,33472
5632,33600
5633,33664
5634,33664
5635,33536
5636,33600
5637,33664
5638,33728
5639,33856
5640,33920
5641,33792
5642,33728
5643,33920
5644,34048
5645,34176
5646,34432
5647,34560
5648,34368
5649,34176
5650,33984
5651,33792
5652,33728
5653,33728
5654,33728
5655,33664
5656,33664
5657,33664
5658,33664
5659,33792
5660,33920
5661,34112
5662,34048
5663,34048
5664,33984
5665,33856
5666,33728
5667,33664
5668,33728
5669,33856
5670,33920
5671,33984
5672,34048
5673,34112
5674,33984
5675,33984
5676,34112
5677,34240
5678,34304
5679,34304
5680,34240
5681,33984
5682,33792
5683,33728
5684,33664
5685,33536
5686,33408
5687,33536
5688,33792
5689,34048
5690,34176
5691,34240
5692,34240
5693,34304
5694,34176
5695,33920
5696,33664
5697,33600
5698,33664
5699,33728
5700,33792
5701,33792
5702,33728
5703,33664
5704,33856
5705,34048
5706,34112
5707,34176
5708,34112
5709,33920
5710,33792
5711,33856
5712,33920
5713,33792
5714,33728
5715,33792
5716,33792
5717,33792
5718,33728
5719,33856
5720,34560
5721,35840
5722,37760
5723,39808
5724,40704
5725,39936
5726,38144
5727,36224
5728,34624
5729,33344
5730,32384
5731,31680
5732,31296
5733,31360
5734,31808
5735,32320
5736,32768
5737,33152
5738,33344
5739,33536
5740,33600
5741,33728
5742,33920
5743,34048
5744,33984
5745,33856
5746,33728
5747,33728
5748,33728
5749,33728
5750,33856
5751,33920
5752,33856
5753,33856
5754,33856
5755,33856
5756,33792
5757,33856
5758,33984
5759,34112
5760,34176
5761,34240
5762,34240
5763,34240
5764,34368
5765,34304
5766,34112
5767,34048
5768,34176
5769,34240
5770,34368
5771,34496
5772,34560
5773,34560
5774,34432
5775,34432
5776,34496
5777,34624
5778,34688
5779,34624
5780,34624
5781,34752
5782,34880
5783,35008
5784,35008
5785,34880
5786,34752
5787,34560
5788,34432
5789,34432
5790,34432
5791,34496
5792,34304
5793,33920
5794,33536
5795,33408
5796,33344
5797,33280
5798,33280
5799,33280
5800,33280
5801,33280
5802,33280
5803,33280
5804,33024
5805,32832
5806,32896
5807,32896
5808,32960
5809,32960
5810,32960
5811,33024
5812,33152
5813,33408
5814,33472
5815,33472
5816,33408
5817,33408
5818,33472
5819,33536
5820,33664
5821,33792
5822,33984
5823,34112
5824,33856
5825,33600
5826,33472
5827,33408
5828,33600
5829,33792
5830,33920
5831,33920
5832,33856
5833,33856
5834,33920
5835,33856
5836,33792
5837,33920
5838,34112
5839,34176
5840,33984
5841,33792
5842,33664
5843,33600
5844,33728
5845,33792
5846,33792
5847,33792
5848,33792
5849,33920
5850,33984
5851,34112
5852,34176
5853,34048
5854,33792
5855,33664
5856,33664
5857,33792
5858,33856
5859,33856
5860,33792
5861,33792
5862,33920
5863,34112
5864,34176
5865,34112
5866,34048
5867,33984
5868,34048
5869,33920
5870,33792
5871,33792
5872,33856
5873,33856
5874,33792
5875,33728
5876,33728
5877,33856
5878,33984
5879,34112
5880,34176
5881,34048
5882,34112
5883,34112
5884,33920
5885,33728
5886,33728
5887,33856
5888,33984
5889,34048
5890,34176
5891,34304
5892,34496
5893,34496
5894,34368
5895,34176
5896,34048
5897,33920
5898,33856
5899,33664
5900,33408
5901,33344
5902,33408
5903,33536
5904,33664
5905,33728
5906,33856
5907,33984
5908,34112
5909,34112
5910,34176
5911,34240
5912,34176
5913,34048
5914,33984
5915,33920
5916,33920
5917,33984
5918,33920
5919,33984
5920,34048
5921,34048
5922,34304
5923,34880
5924,35968
5925,37504
5926,39168
5927,40064
5928,39488
5929,38080
5930,36288
5931,34688
5932,33472
5933,32576
5934,31872
5935,31680
5936,31872
5937,32256
5938,32640
5939,32896
5940,33024
5941,33152
5942,33344
5943,33472
5944,33664
5945,33728
5946,33728
5947,33792
5948,33856
5949,33792
5950,33792
5951,33792
5952,33856
5953,33920
5954,33920
5955,33920
5956,33984
5957,34048
5958,34112
5959,34176
5960,34240
5961,34240
5962,34240
5963,34240
5964,34240
5965,34240
5966,34304
5967,34368
5968,34304
5969,34240
5970,34240
5971,34240
5972,34304
5973,34176
5974,34112
5975,34240
5976,34368
5977,34560
5978,34752
5979,34880
5980,34880
5981,34880
5982,34880
5983,34880
5984,34944
5985,34944
5986,34816
5987,34752
5988,34752
5989,34816
5990,34880
5991,34752
5992,34624
5993,34560
5994,34432
5995,34240
5996,33984
5997,33792
5998,33600
5999,33408
6000,33280
6001,33216
6002,33152
6003,33088
6004,33024
6005,33152
6006,33344
6007,33344
6008,33088
6009,32832
6010,32704
6011,32640
6012,32640
6013,32832
6014,33024
6015,33280
6016,33472
6017,33536
6018,33536
6019,33536
6020,33536
6021,33472
6022,33472
6023,33600
6024,33792
6025,33728
6026,33536
6027,33536
6028,33728
6029,33792
6030,33792
6031,33792
6032,33792
6033,33920
6034,33920
6035,33984
6036,34112
6037,33920
6038,33792
6039,33664
6040,33600
6041,33600
6042,33600
6043,33728
6044,33856
6045,33984
6046,34048
6047,33984
6048,33984
6049,34048
6050,34112
6051,34112
6052,34112
6053,34112
6054,34112
6055,33984
6056,33920
6057,33984
6058,34048
6059,34112
6060,34112
6061,33920
6062,33600
6063,33536
6064,33536
6065,33600
6066,33728
6067,33920
6068,33984
6069,34048
6070,33984
6071,33920
6072,33792
6073,33792
6074,33728
6075,33728
6076,33984
6077,34048
6078,34112
6079,34176
6080,34240
6081,34304
6082,34432
6083,34560
6084,34432
6085,34176
6086,34048
6087,33984
6088,33984
6089,34048
6090,34048
6091,33984
6092,33920
6093,33920
6094,33984
6095,33920
6096,33856
6097,33856
6098,33984
6099,34048
6100,34048
6101,33984
6102,33984
6103,33984
6104,33984
6105,34048
6106,34112
6107,34112
6108,33984
6109,33856
6110,33664
6111,33600
6112,33792
6113,33920
6114,33984
6115,34048
6116,33920
6117,33792
6118,33728
6119,33664
6120,33664
6121,33792
6122,33920
6123,33984
6124,34048
6125,34112
6126,34240
6127,34304
6128,34496
6129,34944
6130,35904
6131,37440
6132,39232
6133,40832
6134,40896
6135,39488
6136,37312
6137,34944
6138,32960
6139,31744
6140,31040
6141,30784
6142,30848
6143,31296
6144,31872
6145,32448
6146,32960
6147,33280
6148,33408
6149,33536
6150,33600
6151,33664
6152,33728
6153,33728
6154,33728
6155,33728
6156,33792
6157,33856
6158,33984
6159,34048
6160,34176
6161,34368
6162,34368
6163,34304
6164,34112
6165,33984
6166,33920
6167,33984
6168,34112
6169,34048
6170,34048
6171,33984
6172,33984
6173,34048
6174,34112
6175,34176
6176,34368
6177,34496
6178,34624
6179,34752
6180,34752
6181,34624
6182,34624
6183,34688
6184,34752
6185,34944
6186,35072
6187,35008
6188,34880
6189,34880
6190,34816
6191,34880
6192,35008
6193,35136
6194,35072
6195,35008
6196,35008
6197,35072
6198,34944
6199,34688
6200,34368
6201,34240
6202,34176
6203,34048
6204,33856
6205,33600
6206,33280
6207,33088
6208,32960
6209,32896
6210,32896
6211,32832
6212,32896
6213,32832
6214,32704
6215,32576
6216,32576
6217,32704
6218,32832
6219,32960
6220,33088
6221,33280
6222,33408
6223,33472
6224,33472
6225,33408
6226,33408
6227,33536
6228,33728
6229,33792
6230,33856
6231,33984
6232,33984
6233,33856
6234,33664
6235,33600
6236,33536
6237,33472
6238,33536
6239,33536
6240,33664
6241,33792
6242,33856
6243,33856
6244,33792
6245,33856
6246,33920
6247,33984
6248,34112
6249,34176
6250,34048
6251,33856
6252,33728
6253,33792
6254,33920
6255,33984
6256,33984
6257,33984
6258,33728
6259,33600
6260,33600
6261,33536
6262,33472
6263,33664
6264,33792
6265,33856
6266,33984
6267,34048
6268,34112
6269,34048
6270,33984
6271,33984
6272,34112
6273,34176
6274,34240
6275,34304
6276,34048
6277,33856
6278,33664
6279,33664
6280,33792
6281,33856
6282,33920
6283,33984
6284,33920
6285,34048
6286,34176
6287,34048
6288,33856
6289,33600
6290,33600
6291,33600
6292,33664
6293,33792
6294,33984
6295,33984
6296,33920
6297,33920
6298,33984
6299,34048
6300,34048
6301,33984
6302,33856
6303,33664
6304,33600
6305,33664
6306,33792
6307,34048
6308,34304
6309,34304
6310,34240
6311,33984
6312,33856
6313,33792
6314,33856
6315,33984
6316,33984
6317,33856
6318,33664
6319,33600
6320,33664
6321,33728
6322,33792
6323,33856
6324,33792
6325,33728
6326,33728
6327,33856
6328,33920
6329,33984
6330,34048
6331,34048
6332,33984
6333,33984
6334,34048
6335,34112
6336,34304
6337,34432
6338,34624
6339,35072
6340,35904
6341,37440
6342,39424
6343,41088
6344,41088
6345,39552
6346,37248
6347,35200
6348,33536
6349,32192
6350,31104
6351,30720
6352,30976
6353,31552
6354,32064
6355,32512
6356,32768
6357,32960
6358,33088
6359,33216
6360,33344
6361,33472
6362,33664
6363,33728
6364,33600
6365,33664
6366,33792
6367,33856
6368,33920
6369,33984
6370,33984
6371,33856
6372,33856
6373,33984
6374,34112
6375,34176
6376,34112
6377,34176
6378,34368
6379,34368
6380,34240
6381,34112
6382,34240
6383,34176
6384,34112
6385,33984
6386,33984
6387,34048
6388,34368
6389,34432
6390,34496
6391,34496
6392,34304
6393,34240
6394,34304
6395,34496
6396,34688
6397,34752
6398,34816
6399,34880
6400,34944
6401,34944
6402,35008
6403,35008
6404,35072
6405,35008
6406,34944
6407,34816
6408,34624
6409,34432
6410,34176
6411,34112
6412,34112
6413,33984
6414,33728
6415,33472
6416,33152
6417,32960
6418,32704
6419,32576
6420,32448
6421,32320
6422,32256
6423,32320
6424,32512
6425,32640
6426,32640
6427,32512
6428,32512
6429,32576
6430,32704
6431,32768
6432,32832
6433,32960
6434,33088
6435,33152
6436,33152
6437,33152
6438,33152
6439,33280
6440,33408
6441,33344
6442,33280
6443,33152
6444,33152
6445,33280
6446,33408
6447,33472
6448,33536
6449,33472
6450,33472
6451,33472
6452,33408
6453,33344
6454,33408
6455,33600
6456,33856
6457,33664
6458,33472
6459,33344
6460,33344
6461,33408
6462,33600
6463,33536
6464,33408
6465,33344
6466,33344
6467,33408
6468,33536
6469,33536
6470,33472
6471,33408
6472,33472
6473,33408
6474,33536
6475,33600
6476,33600
6477,33600
6478,33600
6479,33600
6480,33600
6481,33600
6482,33536
6483,33408
6484,33280
6485,33408
6486,33664
6487,33728
6488,33600
6489,33408
6490,33280
6491,33280
6492,33344
6493,33536
6494,33664
6495,33728
6496,33664
6497,33536
6498,33472
6499,33472
6500,33408
6501,33344
6502,33408
6503,33472
6504,33472
6505,33536
6506,33472
6507,33408
6508,33408
6509,33472
6510,33472
6511,33472
6512,33536
6513,33600
6514,33792
6515,33792
6516,33792
6517,33792
6518,33920
6519,33856
6520,33472
6521,33152
6522,33088
6523,33280
6524,33408
6525,33408
6526,33408
6527,33408
6528,33472
6529,33664
6530,33664
6531,33536
6532,33408
6533,33344
6534,33280
6535,33280
6536,33344
6537,33344
6538,33408
6539,33344
6540,33344
6541,33472
6542,33600
6543,33600
6544,33472
6545,33408
6546,33472
6547,33600
6548,33536
6549,33600
6550,33664
6551,33792
6552,33856
6553,33984
6554,34112
6555,34112
6556,34176
6557,34368
6558,34752
6559,35648
6560,36992
6561,38976
6562,40576
6563,40448
6564,38848
6565,36672
6566,34560
6567,32704
6568,31360
6569,30592
6570,30592
6571,30976
6572,31488
6573,32000
6574,32384
6575,32768
6576,33088
6577,33088
6578,33024
6579,33024
6580,33088
6581,33088
6582,33152
6583,33280
6584,33280
6585,33344
6586,33472
6587,33664
6588,33792
6589,33728
6590,33728
6591,33728
6592,33728
6593,33792
6594,33792
6595,33792
6596,33856
6597,33920
6598,33984
6599,34112
6600,34048
6601,33920
6602,33920
6603,33920
6604,34112
6605,34176
6606,34240
6607,34368
6608,34432
6609,34368
6610,34368
6611,34432
6612,34432
6613,34432
6614,34560
6615,34688
6616,34816
6617,34944
6618,35072
6619,35072
6620,35200
6621,35136
6622,34944
6623,34880
6624,34880
6625,34752
6626,34688
6627,34560
6628,34432
6629,34240
6630,34112
6631,33984
6632,33856
6633,33600
6634,33344
6635,33152
6636,32960
6637,32960
6638,32960
6639,32896
6640,32896
6641,32896
6642,32768
6643,32704
6644,32640
6645,32512
6646,32512
6647,32768
6648,32960
6649,33152
6650,33216
6651,33344
6652,33472
6653,33600
6654,33600
6655,33408
6656,33088
6657,33024
6658,33088
6659,33216
6660,33536
6661,33856
6662,33856
6663,33728
6664,33792
6665,33792
6666,33920
6667,34112
6668,34112
6669,34112
6670,34048
6671,33920
6672,33856
6673,33792
6674,33792
6675,33664
6676,33664
6677,33792
6678,33792
6679,33664
6680,33600
6681,33536
6682,33664
6683,33856
6684,33856
6685,33920
6686,34048
6687,33984
6688,33856
6689,33920
6690,33920
6691,33856
6692,33728
6693,33664
6694,33728
6695,33856
6696,33984
6697,34112
6698,34112
6699,34112
6700,34112
6701,34048
6702,33984
6703,34048
6704,34176
6705,34112
6706,33984
6707,34048
6708,34112
6709,34304
6710,34368
6711,34176
6712,33984
6713,33984
6714,34112
6715,34112
6716,34048
6717,33920
6718,33920
6719,34048
6720,34112
6721,34176
6722,34112
6723,33920
6724,33792
6725,33856
6726,34176
6727,34368
6728,34432
6729,34368
6730,34176
6731,34112
6732,34048
6733,33920
6734,33856
6735,33856
6736,33920
6737,34048
6738,34048
6739,33984
6740,33920
6741,33920
6742,33984
6743,34112
6744,34304
6745,34368
6746,34304
6747,34240
6748,34240
6749,34112
6750,33984
6751,33920
6752,33856
6753,33728
6754,33792
6755,33856
6756,33856
6757,33792
6758,33856
6759,33984
6760,34112
6761,34112
6762,34112
6763,34176
6764,34240
6765,34176
6766,34048
6767,33984
6768,33920
6769,33984
6770,34048
6771,33984
6772,34112
6773,34240
6774,34304
6775,34304
6776,34240
6777,34432
6778,35136
6779,36608
6780,38464
6781,40064
6782,40256
6783,39104
6784,37248
6785,35392
6786,33920
6787,32896
6788,32320
6789,31872
6790,31744
6791,31936
6792,32320
6793,32768
6794,33216
6795,33472
6796,33600
6797,33536
6798,33472
6799,33600
6800,33664
6801,33664
6802,33728
6803,33728
6804,33728
6805,33728
6806,33792
6807,33984
6808,34176
6809,34304
6810,34368
6811,34304
6812,34176
6813,33984
6814,33984
6815,34048
6816,33984
6817,33920
6818,33920
6819,33920
6820,34048
6821,34176
6822,34240
6823,34304
6824,34176
6825,34176
6826,34240
6827,34432
6828,34560
6829,34624
6830,34624
6831,34688
6832,34816
6833,34816
6834,34944
6835,35136
6836,35136
6837,35008
6838,34816
6839,34816
6840,34752
6841,34752
6842,34752
6843,34752
6844,34880
6845,34944
6846,34880
6847,34688
6848,34560
6849,34496
6850,34368
6851,34240
6852,34048
6853,33664
6854,33344
6855,33216
6856,33088
6857,33024
6858,32960
6859,32832
6860,32832
6861,32896
6862,33024
6863,33088
6864,33152
6865,33216
6866,33408
6867,33536
6868,33472
6869,33472
6870,33536
6871,33536
6872,33472
6873,33472
6874,33344
6875,33408
6876,33408
6877,33344
6878,33344
6879,33344
6880,33536
6881,33792
6882,33856
6883,33984
6884,34048
6885,33984
6886,33984
6887,34176
6888,34432
6889,34176
6890,34048
6891,34112
6892,34176
6893,34112
6894,33984
6895,33920
6896,33920
6897,33920
6898,33792
6899,33728
6900,33664
6901,33856
6902,34112
6903,34368
6904,34432
6905,34368
6906,34176
6907,34112
6908,34176
6909,34112
6910,33984
6911,33984
6912,34048
6913,34112
6914,34112
6915,33984
6916,33920
6917,33856
6918,33920
6919,34112
6920,34240
6921,34176
6922,34176
6923,34368
6924,34368
6925,34240
6926,34240
6927,34176
6928,34112
6929,34112
6930,34112
6931,33920
6932,33792
6933,33728
6934,33792
6935,33984
6936,34176
6937,34176
6938,34176
6939,34176
6940,34112
6941,34112
6942,34112
6943,34176
6944,34176
6945,34240
6946,34432
6947,34368
6948,34304
6949,34112
6950,34112
6951,34240
6952,34112
6953,33856
6954,33856
6955,33856
6956,33856
6957,33984
6958,34112
6959,34048
6960,33984
6961,33984
6962,34048
6963,33856
6964,33664
6965,33600
6966,33600
6967,33600
6968,33408
6969,33472
6970,33600
6971,33728
6972,33792
6973,33792
6974,33920
6975,33984
6976,34048
6977,34112
6978,34176
6979,34240
6980,34368
6981,34368
6982,34240
6983,34048
6984,33920
6985,33984
6986,34304
6987,35008
6988,36224
6989,38016
6990,39872
6991,40640
6992,39872
6993,38080
6994,36096
6995,34304
6996,33088
6997,32192
6998,31616
6999,31424
7000,31616
7001,31936
7002,32320
7003,32704
7004,33024
7005,33344
7006,33536
7007,33600
7008,33600
7009,33664
7010,33728
7011,33856
7012,33984
7013,34112
7014,34304
7015,34432
7016,34432
7017,34048
7018,33792
7019,33664
7020,33728
7021,33920
7022,33920
7023,33920
7024,33920
7025,33920
7026,33856
7027,33792
7028,33856
7029,33856
7030,33984
7031,34176
7032,34240
7033,34368
7034,34432
7035,34368
7036,34304
7037,34304
7038,34368
7039,34368
7040,34496
7041,34688
7042,34944
7043,35264
7044,35328
7045,35136
7046,34880
7047,34688
7048,34624
7049,34624
7050,34624
7051,34560
7052,34560
7053,34624
7054,34752
7055,34752
7056,34560
7057,34368
7058,34240
7059,34176
7060,34048
7061,33792
7062,33664
7063,33472
7064,33280
7065,33152
7066,33024
7067,32896
7068,32704
7069,32640
7070,32704
7071,32704
7072,32704
7073,32832
7074,32896
7075,33024
7076,33024
7077,32896
7078,32704
7079,32704
7080,32896
7081,33088
7082,33280
7083,33472
7084,33728
7085,33792
7086,33792
7087,33792
7088,33600
7089,33472
7090,33472
7091,33728
7092,33856
7093,33920
7094,33920
7095,33856
7096,33664
7097,33600
7098,33728
7099,33792
7100,33728
7101,33664
7102,33600
7103,33600
7104,33664
7105,33728
7106,33856
7107,33920
7108,33984
7109,34048
7110,34048
7111,33856
7112,33728
7113,33728
7114,33792
7115,33856
7116,33728
7117,33664
7118,33664
7119,33728
7120,33792
7121,33792
7122,33664
7123,33600
7124,33728
7125,33920
7126,34112
7127,33984
7128,33792
7129,33664
7130,33664
7131,33664
7132,33728
7133,33728
7134,33728
7135,33664
7136,33728
7137,33728
7138,33536
7139,33472
7140,33472
7141,33536
7142,33600
7143,33664
7144,33856
7145,34048
7146,34112
7147,33984
7148,33920
7149,33984
7150,34048
7151,33984
7152,33856
7153,33728
7154,33728
7155,33792
7156,33792
7157,33920
7158,33920
7159,33856
7160,33984
7161,33984
7162,33664
7163,33408
7164,33472
7165,33472
7166,33536
7167,33600
7168,33728
7169,33792
7170,33856
7171,33984
7172,33856
7173,33728
7174,33536
7175,33280
7176,33152
7177,33152
7178,33344
7179,33408
7180,33472
7181,33408
7182,33472
7183,33536
7184,33728
7185,33856
7186,33728
7187,33664
7188,33664
7189,33792
7190,33792
7191,33792
7192,33792
7193,33600
7194,33536
7195,33728
7196,33792
7197,33728
7198,33664
7199,33856
7200,34752
7201,36096
7202,37952
7203,39936
7204,40576
7205,39808
7206,38016
7207,35904
7208,33856
7209,32576
7210,31680
7211,30976
7212,30720
7213,30912
7214,31424
7215,31936
7216,32192
7217,32320
7218,32576
7219,32768
7220,33024
7221,33280
7222,33536
7223,33728
7224,33600
7225,33408
7226,33280
7227,33216
7228,33216
7229,33280
7230,33344
7231,33408
7232,33472
7233,33600
7234,33728
7235,33792
7236,33728
7237,33664
7238,33536
7239,33472
7240,33472
7241,33472
7242,33472
7243,33664
7244,33792
7245,33792
7246,33856
7247,33856
7248,33856
7249,33792
7250,33856
7251,33984
7252,34112
7253,34048
7254,33984
7255,33984
7256,34176
7257,34368
7258,34496
7259,34496
7260,34560
7261,34688
7262,34752
7263,34688
7264,34496
7265,34240
7266,34112
7267,34048
7268,34112
7269,34112
7270,33984
7271,33920
7272,33792
7273,33472
7274,33216
7275,32960
7276,32832
7277,32768
7278,32832
7279,32768
7280,32512
7281,32384
7282,32256
7283,32320
7284,32448
7285,32512
7286,32640
7287,32576
7288,32512
7289,32320
7290,32256
7291,32320
7292,32320
7293,32448
7294,32576
7295,32768
7296,33024
7297,33152
7298,33088
7299,33088
7300,33088
7301,33152
7302,33280
7303,33472
7304,33664
7305,33600
7306,33408
7307,33472
7308,33472
7309,33280
7310,33088
7311,32960
7312,33024
7313,33088
7314,33152
7315,33216
7316,33344
7317,33472
7318,33408
7319,33408
7320,33472
7321,33536
7322,33536
7323,33600
7324,33600
7325,33536
7326,33408
7327,33216
7328,33280
7329,33344
7330,33344
7331,33344
7332,33344
7333,33344
7334,33280
7335,33280
7336,33408
7337,33536
7338,33536
7339,33600
7340,33600
7341,33600
7342,33472
7343,33344
7344,33344
7345,33408
7346,33408
7347,33536
7348,33472
7349,33344
7350,33344
7351,33472
7352,33536
7353,33472
7354,33408
7355,33472
7356,33600
7357,33664
7358,33472
7359,33280
7360,33408
7361,33600
7362,33664
7363,33472
7364,33408
7365,33472
7366,33408
7367,33344
7368,33472
7369,33536
7370,33472
7371,33472
7372,33472
7373,33600
7374,33856
7375,33984
7376,33856
7377,33600
7378,33472
7379,33408
7380,33344
7381,33280
7382,33280
7383,33536
7384,33728
7385,33664
7386,33472
7387,33344
7388,33280
7389,33344
7390,33408
7391,33472
7392,33472
7393,33536
7394,33472
7395,33408
7396,33344
7397,33344
7398,33344
7399,33472
7400,33536
7401,33536
7402,33536
7403,33536
7404,33536
7405,33536
7406,33664
7407,33728
7408,33664
7409,33536
7410,33408
7411,33472
7412,33536
7413,33600
7414,33536
7415,34368
7416,35648
7417,37568
7418,39808
7419,41280
7420,40960
7421,39296
7422,36928
7423,34624
7424,32768
7425,31360
7426,30400
7427,30208
7428,30720
7429,31360
7430,31936
7431,32384
7432,32832
7433,33152
7434,33280
7435,33216
7436,33216
7437,33216
7438,33280
7439,33472
7440,33536
7441,33536
7442,33472
7443,33408
7444,33344
7445,33344
7446,33408
7447,33536
7448,33664
7449,33664
7450,33664
7451,33792
7452,33920
7453,33984
7454,33984
7455,34048
7456,34112
7457,34112
7458,34112
7459,34048
7460,33856
7461,33664
7462,33600
7463,33792
7464,33856
7465,33856
7466,33856
7467,33984
7468,34112
7469,34240
7470,34432
7471,34688
7472,34816
7473,34880
7474,34944
7475,34880
7476,34688
7477,34624
7478,34432
7479,34304
7480,34304
7481,34432
7482,34560
7483,34624
7484,34560
7485,34304
7486,34176
7487,33984
7488,33856
7489,33664
7490,33472
7491,33408
7492,33344
7493,33152
7494,32960
7495,32832
7496,32704
7497,32512
7498,32448
7499,32512
7500,32448
7501,32448
7502,32384
7503,32384
7504,32576
7505,32896
7506,33088
7507,33152
7508,33152
7509,33152
7510,33024
7511,32960
7512,33152
7513,33344
7514,33472
7515,33600
7516,33664
7517,33472
7518,33344
7519,33344
7520,33536
7521,33792
7522,33920
7523,33856
7524,33664
7525,33536
7526,33472
7527,33600
7528,33664
7529,33664
7530,33728
7531,33792
7532,33920
7533,33792
7534,33536
7535,33344
7536,33216
7537,33408
7538,33536
7539,33664
7540,33664
7541,33536
7542,33408
7543,33408
7544,33472
7545,33600
7546,33664
7547,33664
7548,33664
7549,33664
7550,33664
7551,33664
7552,33792
7553,33792
7554,33664
7555,33600
7556,33664
7557,33792
7558,34048
7559,34176
7560,33920
7561,33664
7562,33472
7563,33408
7564,33344
7565,33408
7566,33472
7567,33536
7568,33600
7569,33664
7570,33792
7571,33792
7572,33600
7573,33600
7574,33728
7575,33792
7576,33792
7577,33792
7578,33856
7579,33856
7580,33664
7581,33472
7582,33536
7583,33728
7584,33856
7585,33856
7586,33792
7587,33792
7588,33792
7589,33664
7590,33472
7591,33408
7592,33408
7593,33344
7594,33344
7595,33600
7596,33856
7597,33920
7598,33856
7599,33792
7600,33472
7601,33216
7602,33152
7603,33216
7604,33344
7605,33536
7606,33728
7607,33856
7608,33856
7609,33536
7610,33216
7611,33152
7612,33216
7613,33344
7614,33472
7615,33664
7616,33856
7617,34048
7618,34112
7619,34048
7620,33856
7621,33728
7622,33792
7623,33856
7624,33920
7625,33984
7626,34048
7627,34432
7628,35136
7629,36480
7630,38400
7631,40448
7632,41536
7633,40768
7634,38720
7635,36224
7636,33920
7637,32128
7638,31040
7639,30656
7640,30848
7641,31232
7642,31680
7643,32064
7644,32448
7645,32704
7646,32832
7647,32896
7648,32896
7649,33088
7650,33280
7651,33536
7652,33600
7653,33536
7654,33536
7655,33600
7656,33728
7657,33984
7658,33984
7659,33856
7660,33728
7661,33728
7662,33728
7663,33728
7664,33920
7665,33984
7666,33984
7667,33920
7668,33920
7669,33856
7670,33920
7671,34048
7672,34048
7673,33984
7674,34048
7675,34112
7676,34112
7677,33984
7678,33984
7679,33984
7680,34112
7681,34368
7682,34560
7683,34560
7684,34688
7685,34688
7686,34688
7687,34752
7688,34816
7689,34752
7690,34752
7691,34752
7692,34816
7693,34944
7694,34944
7695,34816
7696,34560
7697,34304
7698,34112
7699,33984
7700,33792
7701,33728
7702,33600
7703,33472
7704,33280
7705,33024
7706,32832
7707,32640
7708,32576
7709,32640
7710,32576
7711,32576
7712,32576
7713,32640
7714,32768
7715,32768
7716,32896
7717,33024
7718,33024
7719,33024
7720,33024
7721,33024
7722,33024
7723,33088
7724,33344
7725,33536
7726,33408
7727,33216
7728,33088
7729,33088
7730,33024
7731,33216
7732,33472
7733,33600
7734,33728
7735,33728
7736,33664
7737,33600
7738,33664
7739,33728
7740,33728
7741,33664
7742,33728
7743,33728
7744,33792
7745,33792
7746,33792
7747,33792
7748,33792
7749,33792
7750,33856
7751,33920
7752,33984
7753,33920
7754,33856
7755,33792
7756,33792
7757,33856
7758,33856
7759,33920
7760,33856
7761,33728
7762,33728
7763,33600
7764,33536
7765,33664
7766,33664
7767,33664
7768,33728
7769,33792
7770,33920
7771,33792
7772,33600
7773,33536
7774,33600
7775,33664
7776,33792
7777,33920
7778,34048
7779,34048
7780,33920
7781,33664
7782,33344
7783,33216
7784,33088
7785,33088
7786,33152
7787,33344
7788,33536
7789,33600
7790,33664
7791,33728
7792,33792
7793,33664
7794,33536
7795,33536
7796,33472
7797,33344
7798,33088
7799,32960
7800,32960
7801,33088
7802,33216
7803,33280
7804,33344
7805,33472
7806,33600
7807,33472
7808,33344
7809,33344
7810,33280
7811,33280
7812,33216
7813,33088
7814,33088
7815,33088
7816,33024
7817,32960
7818,32896
7819,32960
7820,32960
7821,32896
7822,32832
7823,32896
7824,32960
7825,32896
7826,32960
7827,33024
7828,33088
7829,33152
7830,33216
7831,33344
7832,33664
7833,33920
7834,34176
7835,34368
7836,34880
7837,36160
7838,38080
7839,39808
7840,40320
7841,38848
7842,36416
7843,33920
7844,32128
7845,31040
7846,30528
7847,30592
7848,30976
7849,31360
7850,31616
7851,31936
7852,32384
7853,32832
7854,32896
7855,32768
7856,32768
7857,32896
7858,32960
7859,33024
7860,33024
7861,33024
7862,33024
7863,33024
7864,33152
7865,33344
7866,33472
7867,33408
7868,33344
7869,33408
7870,33536
7871,33728
7872,33856
7873,33984
7874,34048
7875,34112
7876,33856
7877,33536
7878,33344
7879,33344
7880,33536
7881,33728
7882,33856
7883,33856
7884,33984
7885,34240
7886,34368
7887,34304
7888,34304
7889,34432
7890,34624
7891,34688
7892,34624
7893,34560
7894,34560
7895,34880
7896,35136
7897,35136
7898,34880
7899,34752
7900,34752
7901,34816
7902,34944
7903,34880
7904,34624
7905,34368
7906,34112
7907,33984
7908,33920
7909,33920
7910,33792
7911,33536
7912,33408
7913,33280
7914,33152
7915,32960
7916,32832
7917,32768
7918,32704
7919,32768
7920,32832
7921,32704
7922,32640
7923,32768
7924,32896
7925,32896
7926,33024
7927,33280
7928,33280
7929,33024
7930,32832
7931,32896
7932,33088
7933,33088
7934,33088
7935,33024
7936,33024
7937,33152
7938,33344
7939,33664
7940,33920
7941,33984
7942,33792
7943,33600
7944,33664
7945,33856
7946,33792
7947,33472
7948,33344
7949,33344
7950,33408
7951,33536
7952,33664
7953,33792
7954,33920
7955,34112
7956,34176
7957,34048
7958,33920
7959,33920
7960,33984
7961,34048
7962,33920
7963,33920
7964,34176
7965,34304
7966,34304
7967,34240
7968,34112
7969,34048
7970,34112
7971,34176
7972,34176
7973,34176
7974,34112
7975,34112
7976,34176
7977,34048
7978,33920
7979,33856
7980,33792
7981,33920
7982,34048
7983,34176
7984,34240
7985,34304
7986,34368
7987,34304
7988,34176
7989,34176
7990,34368
7991,34432
7992,34304
7993,33984
7994,33728
7995,33536
7996,33472
7997,33664
7998,33920
7999,34112
8000,34176
8001,34304
8002,34176
8003,33920
8004,33728
8005,33664
8006,33600
8007,33664
8008,33856
8009,34048
8010,33984
8011,33920
8012,33984
8013,34240
8014,34304
8015,34176
8016,33856
8017,33664
8018,33600
8019,33728
8020,33856
8021,34048
8022,34240
8023,34432
8024,34496
8025,34496
8026,34624
8027,34880
8028,34880
8029,34624
8030,34560
8031,35200
8032,36736
8033,38784
8034,40192
8035,39744
8036,37952
8037,36096
8038,34560
8039,33344
8040,32576
8041,32128
8042,31936
8043,32128
8044,32512
8045,32960
8046,33408
8047,33664
8048,33792
8049,33984
8050,34240
8051,34368
8052,34432
8053,34368
8054,34304
8055,34176
8056,34176
8057,34176
8058,34240
8059,34304
8060,34368
8061,34432
8062,34368
8063,34112
8064,33984
8065,33984
8066,33984
8067,34048
8068,34176
8069,34432
8070,34496
8071,34368
8072,34176
8073,34112
8074,34112
8075,34112
8076,34240
8077,34496
8078,34752
8079,34688
8080,34432
8081,34368
8082,34432
8083,34560
8084,34560
8085,34624
8086,34752
8087,34816
8088,34944
8089,34944
8090,35008
8091,35136
8092,35264
8093,35456
8094,35456
8095,35264
8096,35072
8097,35008
8098,34944
8099,34880
8100,34944
8101,34880
8102,34624
8103,34304
8104,33984
8105,33664
8106,33536
8107,33536
8108,33472
8109,33280
8110,33152
8111,33152
8112,33152
8113,33024
8114,32832
8115,32768
8116,32832
8117,32960
8118,33088
8119,33088
8120,33152
8121,33280
8122,33216
8123,33152
8124,33088
8125,33024
8126,33024
8127,32960
8128,33024
8129,33152
8130,33408
8131,33600
8132,33792
8133,33920
8134,34112
8135,33920
8136,33664
8137,33664
8138,33664
8139,33728
8140,34048
8141,33920
8142,33664
8143,33600
8144,33920
8145,34112
8146,34112
8147,34048
8148,33920
8149,33728
8150,33728
8151,33792
8152,33984
8153,34240
8154,34240
8155,34048
8156,33856
8157,33920
8158,33984
8159,34112
8160,34304
8161,34432
8162,34304
8163,34176
8164,34048
8165,34112
8166,34176
8167,34304
8168,34304
8169,34304
8170,34432
8171,34304
8172,34112
8173,33984
8174,33920
8175,33984
8176,34112
8177,34176
8178,34240
8179,34304
8180,34368
8181,34240
8182,33984
8183,33920
8184,33984
8185,34176
8186,34368
8187,34624
8188,34816
8189,34816
8190,34688
8191,34624
8192,34624
8193,34624
8194,34560
8195,34176
8196,33920
8197,33920
8198,33984
8199,33984
8200,34048
8201,34112
8202,33984
8203,33856
8204,34112
8205,34560
8206,34688
8207,34560
8208,34304
8209,34112
8210,34048
8211,34048
8212,34112
8213,34112
8214,34176
8215,34304
8216,34432
8217,34368
8218,34112
8219,34240
8220,35008
8221,36416
8222,38272
8223,39744
8224,39680
8225,38336
8226,36480
8227,34816
8228,33536
8229,32640
8230,32192
8231,31936
8232,32000
8233,32192
8234,32448
8235,32832
8236,33152
8237,33344
8238,33600
8239,33792
8240,33984
8241,33920
8242,33856
8243,33920
8244,33728
8245,33600
8246,33728
8247,33984
8248,33920
8249,33856
8250,34112
8251,34304
8252,34176
8253,33920
8254,33728
8255,33600
8256,33600
8257,33792
8258,33920
8259,33920
8260,33856
8261,33792
8262,33792
8263,33856
8264,33920
8265,33920
8266,34112
8267,34240
8268,34304
8269,34496
8270,34688
8271,34816
8272,34944
8273,35072
8274,35136
8275,35136
8276,35136
8277,35328
8278,35456
8279,35264
8280,35328
8281,35456
8282,35136
8283,34688
8284,34496
8285,34496
8286,34432
8287,34304
8288,34176
8289,34048
8290,33920
8291,33984
8292,34048
8293,34048
8294,33856
8295,33728
8296,33536
8297,33408
8298,33216
8299,33152
8300,33152
8301,33088
8302,33152
8303,33472
8304,33664
8305,33536
8306,33088
8307,32512
8308,32256
8309,32192
8310,32448
8311,32832
8312,33088
8313,33280
8314,33408
8315,33536
8316,33728
8317,33984
8318,34048
8319,33984
8320,33728
8321,33600
8322,33600
8323,33664
8324,33792
8325,33920
8326,33856
8327,33664
8328,33536
8329,33536
8330,33536
8331,33600
8332,33664
8333,33856
8334,33856
8335,33728
8336,33664
8337,33792
8338,34048
8339,34112
8340,33984
8341,33792
8342,33600
8343,33600
8344,33664
8345,33792
8346,33984
8347,34112
8348,34240
8349,34176
8350,33984
8351,33792
8352,33728
8353,34048
8354,34304
8355,34368
8356,34176
8357,34112
8358,34048
8359,34048
8360,33856
8361,33792
8362,33664
8363,33728
8364,33792
8365,33664
8366,33536
8367,33536
8368,33728
8369,33792
8370,33920
8371,33984
8372,34048
8373,33984
8374,33728
8375,33472
8376,33408
8377,33344
8378,33344
8379,33408
8380,33408
8381,33536
8382,33664
8383,33600
8384,33472
8385,33344
8386,33280
8387,33344
8388,33344
8389,33472
8390,33536
8391,33344
8392,33280
8393,33536
8394,33728
8395,33856
8396,33856
8397,33984
8398,34496
8399,35392
8400,36864
8401,38784
8402,40256
8403,40064
8404,38528
8405,36608
8406,34816
8407,33280
8408,32064
8409,31232
8410,30848
8411,30976
8412,31360
8413,31936
8414,32512
8415,32832
8416,33024
8417,33152
8418,33280
8419,33344
8420,33344
8421,33408
8422,33408
8423,33408
8424,33472
8425,33344
8426,33216
8427,33088
8428,33152
8429,33536
8430,33856
8431,33728
8432,33472
8433,33408
8434,33472
8435,33536
8436,33792
8437,33920
8438,34048
8439,33984
8440,33920
8441,33984
8442,33984
8443,33984
8444,34048
8445,34432
8446,34560
8447,34304
8448,34112
8449,33984
8450,33920
8451,34048
8452,34368
8453,34624
8454,34560
8455,34496
8456,34688
8457,34752
8458,34496
8459,34304
8460,34304
8461,34368
8462,34240
8463,34112
8464,34112
8465,34240
8466,34368
8467,34432
8468,34368
8469,34304
8470,34240
8471,34112
8472,33856
8473,33600
8474,33280
8475,33024
8476,32896
8477,32832
8478,32832
8479,32896
8480,32832
8481,32768
8482,32832
8483,32960
8484,33216
8485,33472
8486,33408
8487,33216
8488,33088
8489,33088
8490,33088
8491,33152
8492,33344
8493,33472
8494,33408
8495,33344
8496,33280
8497,33344
8498,33408
8499,33472
8500,33600
8501,33856
8502,34048
8503,34048
8504,34048
8505,34112
8506,34304
8507,34368
8508,34368
8509,34304
8510,33984
8511,33600
8512,33344
8513,33472
8514,33728
8515,33984
8516,34176
8517,34176
8518,33920
8519,33792
8520,33728
8521,33792
8522,33856
8523,33920
8524,33984
8525,34112
8526,34112
8527,34112
8528,34112
8529,34176
8530,34368
8531,34368
8532,34176
8533,34112
8534,34048
8535,33984
8536,34176
8537,34368
8538,34432
8539,34496
8540,34368
8541,34176
8542,34048
8543,33920
8544,33792
8545,33792
8546,33856
8547,33984
8548,33984
8549,33856
8550,33792
8551,33728
8552,33600
8553,33536
8554,33472
8555,33280
8556,33216
8557,33472
8558,33792
8559,33984
8560,34048
8561,34048
8562,33984
8563,33856
8564,33792
8565,33728
8566,33728
8567,33856
8568,34048
8569,34240
8570,34176
8571,33984
8572,33920
8573,33984
8574,34112
8575,34176
8576,33984
8577,33856
8578,34048
8579,34816
8580,36352
8581,38400
8582,40320
8583,40384
8584,38976
8585,36992
8586,35136
8587,33664
8588,32704
8589,32128
8590,31744
8591,31680
8592,32000
8593,32384
8594,32768
8595,33088
8596,33344
8597,33664
8598,33792
8599,33792
8600,33856
8601,33920
8602,33984
8603,34048
8604,34176
8605,34176
8606,34240
8607,34240
8608,34176
8609,34112
8610,34112
8611,34112
8612,34176
8613,34048
8614,33984
8615,34048
8616,34112
8617,34112
8618,34240
8619,34240
8620,34176
8621,34176
8622,34304
8623,34496
8624,34560
8625,34432
8626,34432
8627,34496
8628,34560
8629,34688
8630,34944
8631,35136
8632,34880
8633,34560
8634,34560
8635,34688
8636,34752
8637,34816
8638,34880
8639,34944
8640,35072
8641,35200
8642,35328
8643,35328
8644,35264
8645,35264
8646,35136
8647,34880
8648,34688
8649,34624
8650,34624
8651,34624
8652,34368
8653,33856
8654,33408
8655,33216
8656,33088
8657,32896
8658,32832
8659,32832
8660,32896
8661,33024
8662,33088
8663,33088
8664,33152
8665,33280
8666,33472
8667,33536
8668,33472
8669,33344
8670,33024
8671,32832
8672,32960
8673,33152
8674,33344
8675,33408
8676,33408
8677,33536
8678,33600
8679,33600
8680,33536
8681,33472
8682,33536
8683,33600
8684,33728
8685,33728
8686,33792
8687,33728
8688,33792
8689,34048
8690,34112
8691,33920
8692,33728
8693,33664
8694,33664
8695,33600
8696,33408
8697,33216
8698,33216
8699,33344
8700,33472
8701,33600
8702,33728
8703,33792
8704,33920
8705,33984
8706,33920
8707,33728
8708,33600
8709,33728
8710,33856
8711,34048
8712,34240
8713,34368
8714,34432
8715,34368
8716,34304
8717,34304
8718,34304
8719,34432
8720,34176
8721,33856
8722,33664
8723,33664
8724,33856
8725,34176
8726,34432
8727,34560
8728,34560
8729,34432
8730,34304
8731,34048
8732,33856
8733,33600
8734,33600
8735,33600
8736,33664
8737,33792
8738,33856
8739,33920
8740,33856
8741,33728
8742,33728
8743,33856
8744,33920
8745,33728
8746,33536
8747,33600
8748,33600
8749,33728
8750,33856
8751,33856
8752,34176
8753,34304
8754,34304
8755,34624
8756,35328
8757,36672
8758,38528
8759,40384
8760,40960
8761,39744
8762,37632
8763,37312
8764,33344
8765,31744
8766,30976
8767,30656
8768,30848
8769,31424
8770,32064
8771,32448
8772,32704
8773,32896
8774,33152
8775,33408
8776,33536
8777,33472
8778,33216
8779,33088
8780,33088
8781,33280
8782,33472
8783,33408
8784,33600
8785,33728
8786,33792
8787,33920
8788,33920
8789,33664
8790,33408
8791,33280
8792,33216
8793,33408
8794,33664
8795,33792
8796,33920
8797,33920
8798,33856
8799,33728
8800,33792
8801,33856
8802,34048
8803,34112
8804,34112
8805,34240
8806,34368
8807,34432
8808,34560
8809,34688
8810,34944
8811,35008
8812,34816
8813,34752
8814,34432
8815,34432
8816,34624
8817,34752
8818,34752
8819,34624
8820,34496
8821,34368
8822,34304
8823,34240
8824,34240
8825,34176
8826,33920
8827,33792
8828,33664
8829,33472
8830,33216
8831,33024
8832,32832
8833,32832
8834,32576
8835,32448
8836,32320
8837,32320
8838,32256
8839,32192
8840,32192
8841,32256
8842,32448
8843,32704
8844,32832
8845,32960
8846,32768
8847,32576
8848,32576
8849,32576
8850,32576
8851,32704
8852,32896
8853,32896
8854,32960
8855,33152
8856,33344
8857,33408
8858,33472
8859,33536
8860,33664
8861,33664
8862,33600
8863,33600
8864,33600
8865,33536
8866,33472
8867,33472
8868,33536
8869,33664
8870,33792
8871,33856
8872,33920
8873,33984
8874,33920
8875,33728
8876,33472
8877,33344
8878,33216
8879,33152
8880,33088
8881,33152
8882,33472
8883,33728
8884,33728
8885,33600
8886,33408
8887,33344
8888,33472
8889,33728
8890,33984
8891,34048
8892,33984
8893,33728
8894,33536
8895,33664
8896,33728
8897,33856
8898,34112
8899,34304
8900,34432
8901,34432
8902,34176
8903,33920
8904,33728
8905,33536
8906,33600
8907,33856
8908,34048
8909,34048
8910,34112
8911,34112
8912,33920
8913,33600
8914,33472
8915,33344
8916,33280
8917,33152
8918,33216
8919,33216
8920,33216
8921,33216
8922,33280
8923,33472
8924,33600
8925,33472
8926,33344
8927,33280
8928,33408
8929,33472
8930,33408
8931,33408
8932,33408
8933,33536
8934,33600
8935,33728
8936,33792
8937,33792
8938,33792
8939,34240
8940,35136
8941,36544
8942,38464
8943,40000
8944,39872
8945,38464
8946,36352
8947,34240
8948,32512
8949,31488
8950,30976
8951,30848
8952,31040
8953,31424
8954,31936
8955,32448
8956,32832
8957,33088
8958,33152
8959,33088
8960,33152
8961,33344
8962,33536
8963,33792
8964,33792
8965,33728
8966,33536
8967,33280
8968,33216
8969,33472
8970,33600
8971,33728
8972,33792
8973,33728
8974,33664
8975,33600
8976,33536
8977,33600
8978,33728
8979,33792
8980,33792
8981,33920
8982,34112
8983,34240
8984,34304
8985,34304
8986,34240
8987,34048
8988,33984
8989,33984
8990,33984
8991,34112
8992,34176
8993,34368
8994,34624
8995,34816
8996,34752
8997,34688
8998,34752
8999,34816
9000,34816
9001,34752
9002,34816
9003,35072
9004,35072
9005,34816
9006,34560
9007,34368
9008,34176
9009,34176
9010,34112
9011,33856
9012,33472
9013,33152
9014,33024
9015,32960
9016,32832
9017,32704
9018,32512
9019,32448
9020,32384
9021,32384
9022,32448
9023,32320
9024,32256
9025,32256
9026,32256
9027,32384
9028,32576
9029,32832
9030,32960
9031,32960
9032,32960
9033,33152
9034,33280
9035,33280
9036,33216
9037,33280
9038,33344
9039,33280
9040,33344
9041,33536
9042,33664
9043,33664
9044,33472
9045,33088
9046,32896
9047,33024
9048,33344
9049,33664
9050,33536
9051,33344
9052,33152
9053,33152
9054,33216
9055,33408
9056,33472
9057,33472
9058,33472
9059,33600
9060,33664
9061,33792
9062,33728
9063,33536
9064,33472
9065,33472
9066,33536
9067,33664
9068,33600
9069,33472
9070,33536
9071,33792
9072,33984
9073,33920
9074,33856
9075,33664
9076,33536
9077,33536
9078,33344
9079,33024
9080,32768
9081,32768
9082,32896
9083,33152
9084,33536
9085,33856
9086,33984
9087,33856
9088,33728
9089,33728
9090,33728
9091,33664
9092,33664
9093,33728
9094,33728
9095,33664
9096,33792
9097,34048
9098,34112
9099,34112
9100,33984
9101,33728
9102,33536
9103,33408
9104,33280
9105,33216
9106,33024
9107,32960
9108,32960
9109,33024
9110,33024
9111,33088
9112,33088
9113,33152
9114,33216
9115,33344
9116,33536
9117,33600
9118,33792
9119,33984
9120,34112
9121,33856
9122,33472
9123,33280
9124,33280
9125,33344
9126,33344
9127,33280
9128,33280
9129,33600
9130,34432
9131,35840
9132,37824
9133,39232
9134,39168
9135,37888
9136,36160
9137,34368
9138,33024
9139,32128
9140,31680
9141,31488
9142,31616
9143,31936
9144,32192
9145,32384
9146,32512
9147,32640
9148,32896
9149,33088
9150,33152
9151,33152
9152,33152
9153,33152
9154,33024
9155,32960
9156,33024
9157,33152
9158,33280
9159,33344
9160,33408
9161,33536
9162,33600
9163,33600
9164,33536
9165,33472
9166,33472
9167,33472
9168,33472
9169,33472
9170,33472
9171,33536
9172,33728
9173,34048
9174,34048
9175,33792
9176,33600
9177,33472
9178,33536
9179,33600
9180,33472
9181,33216
9182,33152
9183,33344
9184,33600
9185,33856
9186,33984
9187,34048
9188,34112
9189,34176
9190,34240
9191,34304
9192,34240
9193,34240
9194,34304
9195,34304
9196,34240
9197,34112
9198,33984
9199,33792
9200,33536
9201,33280
9202,33152
9203,33088
9204,32960
9205,32832
9206,32704
9207,32640
9208,32640
9209,32448
9210,32192
9211,31936
9212,31872
9213,31936
9214,32000
9215,32064
9216,32192
9217,32320
9218,32384
9219,32320
9220,32512
9221,32704
9222,32704
9223,32704
9224,32640
9225,32640
9226,32704
9227,32768
9228,32832
9229,32896
9230,33024
9231,33216
9232,33216
9233,33088
9234,32960
9235,32896
9236,32896
9237,32960
9238,32960
9239,33088
9240,33216
9241,33280
9242,33216
9243,33088
9244,33088
9245,33216
9246,33088
9247,32896
9248,32768
9249,32768
9250,32832
9251,32960
9252,33024
9253,32896
9254,32832
9255,32832
9256,32896
9257,32960
9258,33088
9259,33152
9260,33152
9261,33024
9262,33024
9263,33024
9264,33088
9265,33280
9266,33408
9267,33472
9268,33408
9269,33344
9270,33280
9271,33216
9272,33216
9273,33216
9274,33152
9275,33088
9276,33152
9277,33216
9278,33344
9279,33344
9280,33216
9281,33216
9282,33280
9283,33408
9284,33408
9285,33280
9286,33152
9287,33152
9288,33152
9289,33152
9290,33216
9291,33280
9292,33408
9293,33472
9294,33472
9295,33408
9296,33536
9297,33536
9298,33280
9299,32960
9300,32832
9301,32704
9302,32704
9303,32768
9304,32896
9305,32960
9306,33152
9307,33344
9308,33536
9309,33472
9310,33344
9311,33280
9312,33344
9313,33536
9314,33536
9315,33472
9316,33344
9317,33216
9318,33280
9319,33472
9320,33600
9321,33600
9322,33600
9323,33856
9324,34816
9325,36416
9326,38336
9327,39616
9328,39424
9329,38016
9330,36096
9331,34112
9332,32512
9333,31488
9334,30912
9335,30784
9336,31104
9337,31488
9338,31872
9339,32192
9340,32384
9341,32512
9342,32640
9343,32768
9344,32960
9345,33088
9346,33152
9347,33152
9348,33088
9349,33152
9350,33216
9351,33216
9352,33216
9353,33280
9354,33280
9355,33280
9356,33344
9357,33408
9358,33344
9359,33408
9360,33408
9361,33344
9362,33408
9363,33408
9364,33472
9365,33472
9366,33536
9367,33600
9368,33664
9369,33728
9370,33920
9371,33984
9372,33920
9373,33984
9374,34048
9375,34112
9376,34112
9377,34048
9378,34048
9379,34048
9380,34048
9381,34112
9382,34176
9383,34368
9384,34624
9385,34688
9386,34752
9387,34816
9388,34688
9389,34304
9390,33920
9391,33664
9392,33664
9393,33664
9394,33472
9395,33280
9396,33088
9397,33088
9398,33024
9399,32896
9400,32832
9401,32768
9402,32704
9403,32640
9404,32640
9405,32512
9406,32384
9407,32384
9408,32512
9409,32640
9410,32768
9411,32768
9412,32832
9413,32896
9414,32960
9415,32960
9416,32960
9417,33088
9418,33088
9419,33152
9420,33216
9421,33280
9422,33408
9423,33472
9424,33408
9425,33408
9426,33472
9427,33536
9428,33664
9429,33728
9430,33600
9431,33472
9432,33536
9433,33600
9434,33600
9435,33536
9436,33472
9437,33472
9438,33472
9439,33600
9440,33600
9441,33600
9442,33536
9443,33472
9444,33536
9445,33728
9446,33920
9447,33984
9448,33856
9449,33728
9450,33600
9451,33536
9452,33600
9453,33664
9454,33728
9455,33792
9456,33920
9457,33984
9458,33792
9459,33664
9460,33664
9461,33664
9462,33728
9463,33792
9464,33728
9465,33728
9466,33600
9467,33536
9468,33536
9469,33472
9470,33472
9471,33600
9472,33664
9473,33728
9474,33984
9475,34176
9476,34176
9477,33920
9478,33728
9479,33664
9480,33664
9481,33856
9482,33856
9483,33600
9484,33600
9485,33664
9486,33728
9487,33728
9488,33728
9489,33728
9490,33664
9491,33664
9492,33600
9493,33344
9494,33152
9495,33088
9496,33152
9497,33216
9498,33280
9499,33408
9500,33536
9501,33664
9502,33664
9503,33728
9504,33792
9505,33856
9506,33984
9507,33984
9508,33984
9509,33984
9510,33920
9511,33792
9512,33600
9513,33408
9514,33408
9515,33600
9516,33856
9517,34304
9518,35328
9519,36864
9520,38976
9521,40384
9522,40000
9523,38528
9524,36352
9525,34368
9526,32704
9527,31680
9528,31104
9529,31168
9530,31552
9531,31936
9532,32128
9533,32320
9534,32576
9535,32960
9536,33344
9537,33472
9538,33408
9539,33280
9540,33088
9541,32896
9542,32832
9543,32832
9544,33088
9545,33344
9546,33472
9547,33408
9548,33472
9549,33600
9550,33600
9551,33600
9552,33728
9553,33920
9554,33984
9555,33856
9556,33792
9557,33984
9558,34176
9559,34176
9560,33920
9561,33664
9562,33536
9563,33536
9564,33664
9565,33792
9566,33856
9567,33856
9568,33920
9569,33984
9570,34112
9571,34240
9572,34496
9573,34816
9574,35136
9575,35264
9576,35136
9577,34816
9578,34688
9579,34816
9580,34944
9581,34880
9582,34688
9583,34560
9584,34432
9585,34432
9586,34368
9587,34240
9588,34048
9589,33792
9590,33408
9591,33152
9592,33088
9593,33024
9594,33088
9595,33088
9596,32960
9597,32768
9598,32640
9599,32768
9600,32896
9601,32896
9602,32704
9603,32640
9604,32640
9605,32704
9606,32768
9607,32832
9608,32832
9609,32960
9610,33152
9611,33408
9612,33664
9613,33792
9614,33664
9615,33536
9616,33472
9617,33472
9618,33536
9619,33600
9620,33600
9621,33536
9622,33472
9623,33536
9624,33792
9625,33984
9626,33792
9627,33472
9628,33280
9629,33408
9630,33728
9631,33920
9632,33920
9633,33792
9634,33728
9635,33728
9636,33856
9637,33856
9638,33920
9639,33984
9640,33984
9641,33920
9642,33728
9643,33600
9644,33472
9645,33536
9646,33664
9647,33664
9648,33792
9649,33856
9650,33920
9651,33984
9652,34048
9653,34112
9654,34176
9655,34176
9656,34176
9657,34112
9658,34048
9659,33984
9660,33984
9661,33984
9662,33856
9663,33728
9664,33600
9665,33664
9666,33856
9667,33984
9668,34048
9669,34048
9670,33920
9671,33792
9672,33728
9673,33792
9674,33856
9675,33984
9676,34112
9677,34432
9678,34560
9679,34304
9680,33984
9681,33792
9682,33664
9683,33664
9684,33728
9685,34048
9686,34496
9687,34432
9688,34048
9689,33728
9690,33600
9691,33600
9692,33664
9693,33792
9694,33856
9695,33792
9696,33792
9697,33728
9698,33664
9699,33664
9700,33728
9701,33856
9702,34112
9703,34048
9704,33856
9705,33664
9706,33664
9707,33792
9708,34048
9709,34176
9710,34112
9711,33856
9712,33728
9713,33856
9714,34048
9715,33984
9716,34240
9717,34880
9718,35648
9719,36928
9720,38848
9721,40768
9722,41344
9723,40128
9724,37824
9725,35328
9726,33216
9727,31744
9728,30912
9729,30912
9730,31296
9731,31872
9732,32384
9733,32768
9734,33088
9735,33280
9736,33280
9737,33216
9738,33280
9739,33280
9740,33344
9741,33408
9742,33600
9743,33792
9744,33856
9745,33856
9746,34048
9747,34240
9748,34240
9749,34048
9750,33792
9751,33664
9752,33664
9753,33792
9754,33984
9755,34112
9756,34176
9757,34048
9758,33920
9759,33856
9760,33920
9761,33984
9762,34048
9763,34176
9764,34368
9765,34560
9766,34560
9767,34560
9768,34560
9769,34752
9770,34688
9771,34624
9772,34560
9773,34624
9774,34816
9775,34880
9776,34816
9777,34880
9778,34880
9779,34944
9780,35008
9781,35072
9782,35008
9783,34944
9784,34752
9785,34624
9786,34560
9787,34432
9788,34368
9789,34240
9790,34048
9791,33856
9792,33728
9793,33664
9794,33472
9795,33088
9796,32768
9797,32576
9798,32448
9799,32512
9800,32640
9801,32768
9802,32896
9803,33024
9804,32960
9805,32896
9806,32960
9807,33088
9808,33088
9809,33216
9810,33344
9811,33344
9812,33344
9813,33280
9814,33280
9815,33408
9816,33664
9817,33856
9818,34048
9819,34304
9820,34048
9821,33664
9822,33408
9823,33280
9824,33280
9825,33280
9826,33216
9827,33408
9828,33728
9829,33856
9830,33984
9831,33984
9832,33920
9833,33856
9834,33792
9835,33856
9836,33984
9837,34048
9838,33920
9839,33728
9840,33664
9841,33728
9842,33856
9843,33856
9844,33728
9845,33664
9846,33728
9847,33792
9848,33856
9849,33856
9850,33984
9851,33984
9852,33920
9853,33856
9854,33792
9855,33792
9856,33856
9857,33920
9858,33856
9859,33856
9860,34048
9861,34176
9862,34112
9863,33920
9864,33792
9865,33728
9866,33856
9867,34048
9868,34176
9869,34176
9870,34112
9871,33984
9872,33728
9873,33600
9874,33728
9875,33856
9876,33920
9877,33920
9878,33920
9879,33984
9880,34112
9881,34112
9882,34112
9883,34112
9884,34176
9885,34176
9886,34112
9887,33920
9888,33856
9889,33856
9890,33792
9891,33728
9892,33856
9893,34048
9894,34176
9895,34304
9896,34304
9897,34112
9898,33792
9899,33600
9900,33600
9901,33600
9902,33664
9903,33600
9904,33536
9905,33600
9906,33664
9907,33856
9908,33984
9909,33856
9910,33728
9911,33600
9912,33536
9913,33600
9914,33728
9915,33920
9916,34048
9917,34112
9918,34112
9919,34112
9920,34176
9921,34304
9922,34560
9923,35072
9924,36096
9925,37696
9926,39808
9927,41664
9928,41664
9929,39936
9930,37440
9931,34944
9932,32832
9933,31424
9934,30848
9935,30976
9936,31296
9937,31744
9938,32192
9939,32704
9940,33152
9941,33472
9942,33408
9943,33088
9944,32832
9945,32768
9946,32832
9947,33088
9948,33408
9949,33536
9950,33472
9951,33408
9952,33536
9953,33728
9954,33920
9955,34048
9956,34112
9957,34240
9958,34368
9959,34304
9960,34176
9961,34112
9962,34048
9963,34048
9964,34176
9965,34112
9966,33984
9967,33920
9968,34048
9969,34112
9970,34176
9971,34304
9972,34432
9973,34496
9974,34624
9975,34752
9976,34880
9977,34880
9978,34880
9979,34752
9980,34752
9981,34880
9982,34880
9983,34816
9984,34752
9985,34752
9986,34880
9987,35008
9988,35072
9989,34880
9990,34688
9991,34560
9992,34560
9993,34624
9994,34560
9995,34304
9996,34176
9997,33728
9998,33216
9999,32896
10000,32704
10001,32640
10002,32640
10003,32704
10004,32768
10005,32896
10006,32832
10007,32768
10008,32768
10009,32768
10010,32832
10011,32896
10012,33088
10013,33216
10014,33280
10015,33216
10016,33216
10017,33280
10018,33280
10019,33280
10020,33280
10021,33280
10022,33216
10023,33216
10024,33408
10025,33600
10026,33664
10027,33792
10028,33792
10029,33792
10030,33728
10031,33536
10032,33472
10033,33408
10034,33536
10035,33600
10036,33600
10037,33600
10038,33728
10039,33856
10040,33920
10041,33920
10042,33856
10043,33728
10044,33472
10045,33600
10046,33792
10047,33600
10048,33408
10049,33344
10050,33344
10051,33408
10052,33536
10053,33600
10054,33664
10055,33728
10056,33792
10057,33856
10058,33920
10059,33920
10060,33920
10061,33920
10062,33920
10063,33792
10064,33664
10065,33600
10066,33728
10067,33920
10068,33920
10069,33728
10070,33600
10071,33408
10072,33280
10073,33280
10074,33472
10075,33728
10076,33920
10077,33984
10078,33856
10079,33728
10080,33664
10081,33664
10082,33728
10083,33920
10084,34048
10085,34176
10086,34176
10087,34112
10088,33984
10089,33856
10090,33664
10091,33664
10092,33792
10093,33984
10094,34176
10095,34112
10096,33920
10097,33792
10098,33600
10099,33536
10100,33536
10101,33792
10102,34176
10103,34240
10104,34048
10105,33792
10106,33664
10107,33600
10108,33600
10109,33728
10110,33792
10111,33664
10112,33536
10113,33472
10114,33536
10115,33600
10116,33664
10117,33792
10118,33856
10119,33728
10120,33536
10121,33472
10122,33536
10123,33792
10124,34048
10125,33984
10126,33792
10127,33664
10128,33728
10129,33984
10130,34048
10131,34048
10132,34304
10133,35072
10134,36416
10135,38272
10136,40320
10137,41280
10138,40512
10139,38592
10140,36288
10141,34240
10142,32704
10143,31488
10144,30912
10145,30912
10146,31296
10147,31808
10148,32320
10149,32640
10150,32832
10151,32896
10152,32896
10153,32960
10154,33024
10155,33152
10156,33152
10157,33216
10158,33344
10159,33472
10160,33408
10161,33408
10162,33664
10163,33856
10164,33920
10165,33984
10166,33984
10167,33984
10168,34048
10169,33984
10170,33920
10171,33856
10172,33792
10173,33728
10174,33792
10175,33792
10176,33792
10177,33920
10178,34112
10179,34240
10180,34240
10181,34240
10182,34240
10183,34176
10184,34048
10185,33984
10186,34112
10187,34368
10188,34496
10189,34560
10190,34624
10191,34752
10192,34752
10193,34560
10194,34432
10195,34560
10196,34560
10197,34432
10198,34432
10199,34368
10200,34304
10201,34240
10202,34176
10203,34112
10204,34112
10205,33984
10206,33728
10207,33472
10208,33408
10209,33280
10210,33152
10211,33024
10212,32960
10213,33024
10214,33024
10215,32960
10216,32896
10217,32960
10218,32832
10219,32704
10220,32704
10221,32640
10222,32512
10223,32576
10224,32704
10225,32896
10226,33088
10227,33344
10228,33344
10229,33280
10230,33344
10231,33408
10232,33472
10233,33472
10234,33408
10235,33344
10236,33408
10237,33600
10238,33920
10239,34112
10240,34240
10241,34176
10242,34048
10243,33792
10244,33600
10245,33600
10246,33728
10247,33856
10248,33600
10249,33216
10250,32960
10251,32832
10252,32896
10253,33088
10254,33344
10255,33536
10256,33600
10257,33664
10258,33728
10259,33792
10260,33984
10261,34112
10262,33920
10263,33792
10264,33792
10265,33856
10266,33984
10267,33920
10268,33664
10269,33408
10270,33280
10271,33344
10272,33408
10273,33536
10274,33664
10275,33664
10276,33792
10277,33984
10278,33920
10279,33792
10280,33664
10281,33600
10282,33600
10283,33664
10284,33664
10285,33728
10286,33856
10287,33920
10288,34048
10289,34112
10290,34240
10291,34240
10292,34048
10293,33920
10294,33792
10295,33536
10296,33344
10297,33344
10298,33536
10299,33728
10300,33728
10301,33728
10302,33664
10303,33664
10304,33728
10305,33664
10306,33536
10307,33472
10308,33536
10309,33728
10310,33984
10311,34176
10312,34176
10313,33984
10314,33728
10315,33536
10316,33536
10317,33728
10318,33856
10319,33856
10320,33600
10321,33344
10322,33216
10323,33280
10324,33472
10325,33600
10326,33600
10327,33664
10328,33792
10329,33920
10330,34048
10331,33984
10332,33856
10333,33728
10334,33728
10335,33728
10336,33792
10337,34048
10338,34112
10339,33984
10340,34240
10341,35008
10342,36544
10343,38656
10344,40704
10345,41280
10346,40000
10347,37760
10348,35392
10349,33344
10350,31936
10351,31040
10352,30784
10353,31040
10354,31424
10355,31872
10356,32256
10357,32640
10358,32896
10359,33088
10360,33280
10361,33408
10362,33600
10363,33536
10364,33408
10365,33344
10366,33344
10367,33408
10368,33408
10369,33600
10370,33792
10371,33856
10372,33856
10373,33792
10374,33600
10375,33536
10376,33600
10377,33728
10378,33792
10379,33920
10380,34048
10381,34176
10382,34304
10383,34240
10384,33920
10385,33600
10386,33536
10387,33664
10388,33920
10389,34176
10390,34304
10391,34432
10392,34496
10393,34560
10394,34624
10395,34688
10396,34752
10397,34752
10398,34624
10399,34496
10400,34496
10401,34624
10402,34752
10403,34816
10404,34944
10405,34944
10406,34752
10407,34624
10408,34496
10409,34368
10410,34176
10411,33984
10412,33920
10413,33920
10414,33792
10415,33536
10416,33408
10417,33344
10418,33344
10419,33152
10420,32896
10421,32704
10422,32576
10423,32448
10424,32448
10425,32512
10426,32576
10427,32640
10428,32832
10429,32896
10430,32960
10431,32896
10432,32768
10433,32704
10434,32832
10435,33024
10436,33216
10437,33472
10438,33600
10439,33664
10440,33536
10441,33344
10442,33280
10443,33280
10444,33344
10445,33344
10446,33408
10447,33408
10448,33536
10449,33728
10450,33856
10451,33856
10452,33792
10453,33920
10454,33792
10455,33600
10456,33472
10457,33408
10458,33408
10459,33344
10460,33408
10461,33536
10462,33728
10463,33856
10464,33856
10465,33728
10466,33728
10467,33856
10468,33984
10469,33856
10470,33664
10471,33664
10472,33664
10473,33664
10474,33728
10475,33600
10476,33472
10477,33472
10478,33472
10479,33600
10480,33792
10481,33856
10482,33920
10483,33920
10484,33856
10485,33728
10486,33600
10487,33472
10488,33408
10489,33344
10490,33344
10491,33408
10492,33600
10493,33920
10494,34176
10495,34112
10496,33856
10497,33600
10498,33536
10499,33536
10500,33664
10501,33792
10502,33792
10503,33728
10504,33792
10505,33920
10506,33856
10507,33792
10508,33792
10509,33920
10510,34048
10511,33984
10512,33920
10513,33728
10514,33600
10515,33408
10516,33280
10517,33216
10518,33344
10519,33536
10520,33728
10521,33792
10522,33792
10523,33792
10524,33728
10525,33600
10526,33408
10527,33280
10528,33280
10529,33344
10530,33344
10531,33280
10532,33344
10533,33472
10534,33728
10535,33920
10536,33984
10537,33856
10538,33792
10539,33792
10540,33856
10541,33856
10542,33920
10543,33984
10544,33920
10545,33920
10546,34048
10547,34752
10548,34752
10549,37184
10550,37376
10551,40256
10552,39744
10553,37888
10554,35648
10555,33728
10556,32384
10557,31424
10558,31040
10559,31104
10560,31552
10561,31936
10562,32320
10563,32640
10564,32960
10565,33280
10566,33600
10567,33728
10568,33600
10569,33536
10570,33472
10571,33408
10572,33408
10573,33472
10574,33536
10575,33600
10576,33728
10577,33920
10578,34048
10579,33856
10580,33600
10581,33536
10582,33536
10583,33536
10584,33664
10585,33792
10586,33856
10587,33856
10588,33856
10589,33792
10590,33856
10591,33920
10592,34112
10593,34240
10594,34048
10595,33856
10596,33856
10597,33984
10598,34240
10599,34432
10600,34432
10601,34496
10602,34496
10603,34688
10604,34752
10605,34560
10606,34304
10607,34304
10608,34368
10609,34432
10610,34368
10611,34368
10612,34432
10613,34496
10614,34368
10615,34304
10616,34368
10617,34432
10618,34368
10619,34112
10620,33792
10621,33344
10622,33152
10623,33152
10624,33088
10625,33024
10626,32832
10627,32704
10628,32704
10629,32832
10630,32896
10631,32896
10632,32768
10633,32576
10634,32448
10635,32384
10636,32512
10637,32704
10638,32832
10639,32896
10640,32832
10641,32960
10642,33152
10643,33280
10644,33280
10645,33216
10646,33216
10647,33280
10648,33408
10649,33536
10650,33472
10651,33472
10652,33600
10653,33536
10654,33216
10655,33088
10656,33152
10657,33216
10658,33344
10659,33472
10660,33408
10661,33472
10662,33600
10663,33792
10664,33984
10665,33984
10666,33856
10667,33856
10668,33792
10669,33728
10670,33664
10671,33600
10672,33536
10673,33536
10674,33664
10675,33664
10676,33600
10677,33600
10678,33600
10679,33536
10680,33728
10681,33984
10682,33984
10683,33728
10684,33600
10685,33472
10686,33600
10687,33664
10688,33664
10689,33600
10690,33472
10691,33344
10692,33344
10693,33408
10694,33536
10695,33536
10696,33600
10697,33728
10698,33920
10699,33984
10700,34048
10701,33984
10702,33856
10703,33728
10704,33664
10705,33664
10706,33600
10707,33536
10708,33472
10709,33408
10710,33472
10711,33600
10712,33856
10713,34048
10714,34112
10715,34112
10716,34112
10717,34048
10718,33920
10719,33792
10720,33856
10721,33984
10722,33920
10723,33728
10724,33728
10725,33728
10726,33856
10727,33856
10728,33728
10729,33728
10730,33728
10731,33792
10732,33920
10733,33920
10734,33856
10735,33920
10736,33920
10737,33728
10738,33664
10739,33728
10740,33792
10741,33792
10742,33856
10743,34432
10744,35712
10745,37696
10746,39680
10747,40448
10748,39552
10749,37888
10750,36032
10751,34176
10752,32512
10753,31424
10754,30912
10755,30976
10756,31488
10757,32128
10758,32448
10759,32704
10760,32960
10761,33216
10762,33536
10763,33728
10764,33920
10765,33792
10766,33728
10767,33856
10768,34048
10769,33856
10770,33536
10771,33472
10772,33472
10773,33536
10774,33600
10775,33536
10776,33408
10777,33408
10778,33536
10779,33792
10780,34112
10781,34304
10782,34240
10783,34112
10784,33920
10785,33792
10786,33728
10787,33856
10788,34048
10789,34048
10790,34048
10791,33984
10792,33856
10793,33856
10794,34048
10795,34304
10796,34560
10797,34624
10798,34624
10799,34688
10800,34688
10801,34688
10802,34688
10803,34560
10804,34496
10805,34496
10806,34624
10807,34752
10808,34688
10809,34432
10810,34304
10811,34368
10812,34432
10813,34368
10814,34240
10815,34112
10816,33920
10817,33728
10818,33408
10819,33152
10820,32896
10821,32832
10822,32832
10823,32832
10824,32768
10825,32704
10826,32640
10827,32512
10828,32512
10829,32576
10830,32640
10831,32640
10832,32896
10833,33024
10834,32896
10835,32896
10836,33024
10837,33216
10838,33152
10839,33088
10840,33024
10841,32960
10842,32896
10843,33024
10844,33152
10845,33408
10846,33664
10847,33856
10848,33920
10849,33920
10850,33792
10851,33664
10852,33664
10853,33664
10854,33472
10855,33280
10856,33152
10857,33152
10858,33152
10859,33216
10860,33280
10861,33408
10862,33600
10863,33728
10864,33856
10865,33920
10866,33984
10867,34048
10868,34048
10869,33984
10870,33920
10871,33920
10872,33728
10873,33600
10874,33536
10875,33536
10876,33600
10877,33856
10878,33984
10879,34112
10880,34240
10881,34176
10882,34112
10883,33920
10884,33536
10885,33408
10886,33408
10887,33344
10888,33280
10889,33472
10890,33536
10891,33536
10892,33536
10893,33728
10894,33920
10895,33920
10896,33856
10897,33856
10898,33920
10899,34112
10900,34176
10901,34240
10902,34048
10903,33728
10904,33472
10905,33344
10906,33600
10907,33792
10908,33984
10909,34112
10910,33920
10911,33728
10912,33664
10913,33664
10914,33600
10915,33536
10916,33472
10917,33408
10918,33472
10919,33600
10920,33856
10921,33792
10922,33600
10923,33472
10924,33472
