,ECG
0,35008
1,34880
2,34368
3,34304
4,34432
5,34560
6,34240
7,33792
8,33728
9,33984
10,34176
11,34496
12,34880
13,35264
14,35328
15,34880
16,34368
17,34048
18,33984
19,33856
20,33856
21,33664
22,33152
23,32640
24,32384
25,32384
26,32320
27,32192
28,32192
29,32256
30,32384
31,32384
32,32128
33,31808
34,31872
35,32000
36,32128
37,32256
38,32512
39,33152
40,33152
41,32832
42,32512
43,32320
44,32256
45,32320
46,32576
47,32896
48,33344
49,33792
50,34112
51,34112
52,33792
53,33344
54,33024
55,32960
56,33088
57,33216
58,33344
59,33344
60,33280
61,33152
62,33152
63,33408
64,33664
65,33728
66,33600
67,33472
68,33472
69,33600
70,33536
71,33280
72,32960
73,32896
74,33216
75,33408
76,33536
77,33536
78,33472
79,33408
80,33408
81,33344
82,33408
83,33600
84,33856
85,33920
86,33920
87,34048
88,34112
89,34240
90,34304
91,34496
92,34304
93,33856
94,33728
95,33664
96,33600
97,33664
98,33920
99,33792
100,33408
101,33280
102,33408
103,33600
104,34112
105,34304
106,34496
107,34368
108,34048
109,33728
110,33600
111,33600
112,33536
113,33472
114,33600
115,33792
116,33728
117,33664
118,33792
119,33984
120,34048
121,33984
122,34112
123,34304
124,34432
125,34368
126,34176
127,33920
128,33984
129,34304
130,34752
131,34944
132,34688
133,34304
134,33728
135,33088
136,32704
137,32448
138,32256
139,32320
140,32512
141,32832
142,33152
143,33408
144,33920
145,34240
146,34688
147,34496
148,34048
149,33792
150,33856
151,33920
152,34048
153,34368
154,34560
155,34496
156,34240
157,34240
158,34368
159,34048
160,34048
161,34752
162,36288
163,38336
164,40064
165,40128
166,38784
167,36992
168,35072
169,33216
170,31808
171,30848
172,30464
173,30656
174,31296
175,31680
176,32192
177,32640
178,32960
179,33216
180,33344
181,33536
182,33664
183,33728
184,33856
185,33920
186,33856
187,33664
188,33600
189,33664
190,33728
191,33664
192,33600
193,33728
194,33920
195,33984
196,34112
197,34112
198,33792
199,33344
200,33152
201,33280
202,33408
203,33664
204,33856
205,33984
206,34176
207,34304
208,34368
209,34304
210,34176
211,34112
212,34176
213,34240
214,34048
215,33856
216,33536
217,33344
218,33344
219,33664
220,33984
221,34432
222,34752
223,34880
224,35008
225,35136
226,35328
227,35584
228,35712
229,35328
230,35008
231,34432
232,34112
233,33920
234,33728
235,33344
236,33024
237,32704
238,32320
239,31936
240,31744
241,31872
242,32128
243,32000
244,31552
245,31424
246,31552
247,32064
248,32704
249,33216
250,33152
251,32896
252,32512
253,32512
254,32768
255,32768
256,32512
257,32384
258,32384
259,32384
260,32320
261,32384
262,32640
263,32832
264,33344
265,33600
266,33536
267,33152
268,33024
269,33088
270,33024
271,32960
272,32896
273,33152
274,33472
275,33792
276,33792
277,33536
278,33344
279,33344
280,33472
281,33344
282,33152
283,33152
284,33408
285,33408
286,33536
287,33536
288,33280
289,33088
290,33024
291,33024
292,33216
293,33280
294,33344
295,33408
296,33408
297,33408
298,33280
299,33088
300,33088
301,33024
302,33088
303,33088
304,33216
305,33216
306,33344
307,33600
308,33856
309,33920
310,33920
311,33920
312,33984
313,33664
314,33088
315,32960
316,32896
317,33088
318,33216
319,33408
320,33408
321,33088
322,32832
323,32832
324,33024
325,33344
326,33472
327,33472
328,33408
329,33344
330,33344
331,33472
332,33536
333,33472
334,33408
335,33472
336,33664
337,33856
338,33984
339,33984
340,33536
341,33216
342,33344
343,33408
344,33152
345,32704
346,32448
347,32512
348,32896
349,32896
350,33024
351,33280
352,33280
353,33472
354,33408
355,33024
356,32960
357,32960
358,33152
359,33152
360,33728
361,34176
362,33984
363,33280
364,32896
365,33024
366,33280
367,33216
368,33152
369,33152
370,33280
371,33536
372,33280
373,33024
374,33024
375,33216
376,33344
377,33600
378,34240
379,35392
380,37120
381,39424
382,39744
383,40192
384,39936
385,39104
386,35008
387,33280
388,31488
389,31296
390,31040
391,31168
392,31296
393,31424
394,31488
395,31488
396,31680
397,32000
398,32320
399,32512
400,32704
401,32832
402,32896
403,33088
404,33088
405,33152
406,33472
407,33472
408,33536
409,33600
410,33536
411,33344
412,33408
413,33600
414,33664
415,33664
416,33280
417,32896
418,33024
419,32960
420,33024
421,33152
422,33280
423,33408
424,33344
425,33472
426,33664
427,33664
428,33728
429,33920
430,34304
431,34496
432,34432
433,34240
434,34112
435,34048
436,34176
437,34368
438,34368
439,34368
440,34368
441,34368
442,34432
443,34688
444,34880
445,34880
446,34816
447,34752
448,34560
449,34304
450,34048
451,33792
452,33536
453,32960
454,32896
455,32704
456,32448
457,32320
458,32064
459,32000
460,31936
461,31936
462,32064
463,32320
464,32384
465,32064
466,31744
467,31680
468,31808
469,32000
470,32128
471,32256
472,32384
473,32960
474,32960
475,33152
476,32960
477,32832
478,32832
479,32704
480,32384
481,32192
482,32320
483,32704
484,32960
485,33152
486,33280
487,33344
488,33536
489,33536
490,33984
491,33728
492,33472
493,33280
494,33216
495,33152
496,33024
497,32960
498,33152
499,33216
500,33280
501,33408
502,33600
503,33600
504,33728
505,33984
506,33856
507,33408
508,32896
509,32832
510,32896
511,32832
512,32768
513,32704
514,32832
515,33152
516,33344
517,33472
518,33536
519,33600
520,33792
521,34112
522,34240
523,34048
524,33984
525,33472
526,33088
527,32960
528,33088
529,33024
530,33344
531,33280
532,33344
533,33536
534,33600
535,33536
536,33280
537,33024
538,33088
539,33216
540,33152
541,33152
542,33152
543,33216
544,33344
545,33472
546,33472
547,33408
548,33408
549,33536
550,33728
551,33728
552,33600
553,33472
554,33472
555,33600
556,33792
557,33984
558,34048
559,33984
560,33728
561,33344
562,32960
563,32896
564,32832
565,33280
566,33408
567,33408
568,33472
569,33472
570,33280
571,33088
572,33088
573,33152
574,33216
575,33344
576,33344
577,33280
578,33344
579,33280
580,33664
581,33920
582,33856
583,33792
584,33856
585,34048
586,34048
587,33664
588,33024
589,32576
590,32448
591,32512
592,32640
593,33088
594,33024
595,33408
596,33408
597,33536
598,33536
599,33472
600,33664
601,33600
602,33600
603,33728
604,33792
605,33792
606,33792
607,33792
608,33536
609,33344
610,33600
611,34048
612,34176
613,34368
614,34432
615,36736
616,38976
617,40640
618,40576
619,39040
620,36864
621,34816
622,33088
623,31872
624,31104
625,30720
626,30848
627,31232
628,31936
629,31872
630,32256
631,32448
632,32576
633,32640
634,32576
635,32704
636,32896
637,33152
638,33152
639,33152
640,33024
641,33024
642,33088
643,33216
644,33344
645,33536
646,33792
647,34048
648,33856
649,33728
650,33216
651,33024
652,33216
653,33600
654,33984
655,34176
656,34176
657,34112
658,34112
659,33856
660,33600
661,33408
662,33472
663,33920
664,33920
665,34048
666,33728
667,33472
668,33536
669,33536
670,33856
671,34048
672,34240
673,34560
674,35072
675,35392
676,35520
677,35392
678,35136
679,34944
680,34752
681,34496
682,34176
683,34112
684,34176
685,34304
686,34368
687,34112
688,33920
689,33920
690,33856
691,33344
692,32640
693,32064
694,31616
695,31360
696,31360
697,31616
698,32128
699,32128
700,32000
701,31936
702,32128
703,32448
704,32384
705,32576
706,32640
707,32896
708,33152
709,33280
710,33088
711,32832
712,32640
713,32640
714,32768
715,33024
716,33408
717,33728
718,33472
719,33408
720,32896
721,32704
722,32704
723,32768
724,32960
725,33280
726,33536
727,33664
728,33664
729,33664
730,33728
731,33856
732,33856
733,33664
734,33600
735,33152
736,32832
737,32832
738,33216
739,33216
740,33728
741,33728
742,33536
743,33344
744,33280
745,33216
746,33152
747,33088
748,33152
749,33344
750,33472
751,33600
752,33728
753,33728
754,33728
755,33984
756,34176
757,34112
758,34112
759,34176
760,34240
761,33984
762,33536
763,33344
764,33152
765,32896
766,32576
767,32512
768,32576
769,32768
770,32960
771,33344
772,33664
773,33792
774,33856
775,33920
776,33920
777,33792
778,33728
779,33664
780,33664
781,33664
782,33728
783,33728
784,33600
785,33344
786,33088
787,33216
788,33600
789,33536
790,33600
791,33664
792,33792
793,33792
794,33856
795,34048
796,33856
797,33536
798,33216
799,33152
800,33216
801,33472
802,33536
803,33600
804,33536
805,33344
806,33280
807,33344
808,33344
809,33344
810,33472
811,33664
812,33728
813,33728
814,33536
815,33472
816,33536
817,33536
818,33472
819,33600
820,33728
821,33664
822,33472
823,33536
824,33536
825,33472
826,33280
827,33344
828,33600
829,33792
830,33728
831,33472
832,33088
833,32896
834,33024
835,33280
836,33600
837,33792
838,33984
839,33984
840,33984
841,33920
842,33728
843,34176
844,34240
845,36288
846,38784
847,40832
848,41216
849,39680
850,37440
851,35200
852,33728
853,32448
854,31552
855,31104
856,31232
857,31424
858,31872
859,31872
860,32576
861,32640
862,32640
863,32768
864,32960
865,33024
866,32960
867,32960
868,33152
869,33216
870,33152
871,33088
872,33088
873,33024
874,32960
875,33280
876,33536
877,33664
878,33728
879,33664
880,33728
881,33728
882,33792
883,34048
884,34048
885,33792
886,33536
887,33536
888,33600
889,33536
890,33408
891,33600
892,33920
893,33920
894,33856
895,33792
896,33856
897,33920
898,33984
899,34240
900,34816
901,35264
902,35200
903,34816
904,34624
905,34560
906,34496
907,34304
908,34112
909,34112
910,33984
911,34112
912,34240
913,34048
914,33984
915,33856
916,33920
917,33792
918,33600
919,33408
920,33344
921,33216
922,33152
923,32896
924,32640
925,32512
926,32384
927,32192
928,32128
929,32064
930,32256
931,32384
932,32448
933,32512
934,32576
935,32704
936,32896
937,32960
938,33088
939,33024
940,32768
941,32576
942,32512
943,32640
944,32640
945,32960
946,33280
947,33664
948,33984
949,34112
950,34176
951,34048
952,33792
953,33472
954,33280
955,33280
956,33280
957,33280
958,33280
959,33280
960,33344
961,33600
962,33664
963,33472
964,33408
965,33344
966,33536
967,33664
968,33536
969,33344
970,33280
971,33280
972,33408
973,33536
974,33664
975,33728
976,33728
977,33600
978,33536
979,33472
980,33664
981,33600
982,33536
983,33664
984,33728
985,33600
986,33536
987,33536
988,33536
989,33536
990,33472
991,33472
992,33728
993,33728
994,33536
995,33280
996,32960
997,32896
998,33152
999,33216
1000,33408
1001,33600
1002,33792
1003,33792
1004,33856
1005,33920
1006,33984
1007,34048
1008,33920
1009,33792
1010,33728
1011,33728
1012,33728
1013,33984
1014,33984
1015,33664
1016,33088
1017,32768
1018,33024
1019,33344
1020,33728
1021,33792
1022,33408
1023,32960
1024,32832
1025,33024
1026,33344
1027,33792
1028,34176
1029,34176
1030,33920
1031,33536
1032,33280
1033,33216
1034,33280
1035,33472
1036,33408
1037,33408
1038,33536
1039,33600
1040,33664
1041,33664
1042,33600
1043,33792
1044,33984
1045,34048
1046,34048
1047,34048
1048,33984
1049,33664
1050,33024
1051,32704
1052,32768
1053,33216
1054,33472
1055,33664
1056,33792
1057,33984
1058,34048
1059,34176
1060,34624
1061,35392
1062,36608
1063,38400
1064,40128
1065,40448
1066,39360
1067,37376
1068,34688
1069,34432
1070,32384
1071,31488
1072,31232
1073,31296
1074,31360
1075,31552
1076,32000
1077,32320
1078,32512
1079,32640
1080,32704
1081,32768
1082,32896
1083,33280
1084,33280
1085,33280
1086,33088
1087,33088
1088,33408
1089,33664
1090,33792
1091,33600
1092,33408
1093,33408
1094,33664
1095,33856
1096,33920
1097,33920
1098,33856
1099,33728
1100,33856
1101,34112
1102,34176
1103,33984
1104,33728
1105,33344
1106,33152
1107,33216
1108,33344
1109,33536
1110,33920
1111,34304
1112,34560
1113,34816
1114,34880
1115,34752
1116,34752
1117,34752
1118,34496
1119,34368
1120,34304
1121,34368
1122,34688
1123,35072
1124,35008
1125,34560
1126,34112
1127,34048
1128,34368
1129,34816
1130,35136
1131,35072
1132,34560
1133,34048
1134,33664
1135,33280
1136,32960
1137,32704
1138,32576
1139,32576
1140,32512
1141,32512
1142,32512
1143,32576
1144,32576
1145,32384
1146,32192
1147,32064
1148,32256
1149,32576
1150,32832
1151,32832
1152,32576
1153,32320
1154,32256
1155,32320
1156,32576
1157,32896
1158,33152
1159,33280
1160,33408
1161,33600
1162,33536
1163,33152
1164,32896
1165,32896
1166,33088
1167,33344
1168,33344
1169,33280
1170,33216
1171,33152
1172,33280
1173,33408
1174,33408
1175,33600
1176,33728
1177,33728
1178,33728
1179,33664
1180,33792
1181,33920
1182,33792
1183,33536
1184,33408
1185,33408
1186,33344
1187,33280
1188,33472
1189,33600
1190,33664
1191,33600
1192,33472
1193,33280
1194,33088
1195,33152
1196,33344
1197,33536
1198,33728
1199,33792
1200,33792
1201,33472
1202,33280
1203,33344
1204,33280
1205,33152
1206,33216
1207,33280
1208,33536
1209,33664
1210,33984
1211,33984
1212,33728
1213,33408
1214,33408
1215,33600
1216,33728
1217,33664
1218,33600
1219,33536
1220,33472
1221,33536
1222,33600
1223,33728
1224,33792
1225,33856
1226,33600
1227,33344
1228,33280
1229,33344
1230,33472
1231,33536
1232,33664
1233,33728
1234,33664
1235,33728
1236,33664
1237,33408
1238,33216
1239,33152
1240,33280
1241,33600
1242,33984
1243,34304
1244,34176
1245,33984
1246,33920
1247,33856
1248,33664
1249,33600
1250,33728
1251,33600
1252,33408
1253,33344
1254,33280
1255,33344
1256,33408
1257,33344
1258,32960
1259,32896
1260,32832
1261,33024
1262,33216
1263,33280
1264,33280
1265,33344
1266,33536
1267,33728
1268,33920
1269,34176
1270,34048
1271,33792
1272,33664
1273,33728
1274,33664
1275,33600
1276,33792
1277,33920
1278,33920
1279,33728
1280,33472
1281,33472
1282,33344
1283,33088
1284,33088
1285,33344
1286,33664
1287,33984
1288,34432
1289,35008
1290,36288
1291,38208
1292,40320
1293,41152
1294,40256
1295,38208
1296,35904
1297,33792
1298,32064
1299,31552
1300,31168
1301,31168
1302,31232
1303,31360
1304,31680
1305,31936
1306,32320
1307,32704
1308,33088
1309,33216
1310,33152
1311,32960
1312,32768
1313,32768
1314,32832
1315,33088
1316,33344
1317,33536
1318,33728
1319,33792
1320,33728
1321,33536
1322,33344
1323,33024
1324,32832
1325,32832
1326,33024
1327,33280
1328,33728
1329,33856
1330,33920
1331,33920
1332,33920
1333,34048
1334,34176
1335,34368
1336,34624
1337,34688
1338,34368
1339,33984
1340,33664
1341,33408
1342,33472
1343,33792
1344,33984
1345,33920
1346,33856
1347,34048
1348,34496
1349,34752
1350,35072
1351,35264
1352,35136
1353,34880
1354,34752
1355,34752
1356,35008
1357,35264
1358,35392
1359,35136
1360,34496
1361,33728
1362,33152
1363,32896
1364,32832
1365,32768
1366,32768
1367,32768
1368,32832
1369,32768
1370,32512
1371,32192
1372,32064
1373,31872
1374,31808
1375,31936
1376,32128
1377,32320
1378,32512
1379,32576
1380,32576
1381,32576
1382,32320
1383,32064
1384,32192
1385,32512
1386,32960
1387,33152
1388,33408
1389,33600
1390,33600
1391,33344
1392,33088
1393,33088
1394,33216
1395,33088
1396,33024
1397,33088
1398,33472
1399,33536
1400,33600
1401,33344
1402,33024
1403,33280
1404,33472
1405,33664
1406,33600
1407,33344
1408,33152
1409,33280
1410,33472
1411,33600
1412,33536
1413,33344
1414,33216
1415,33280
1416,33472
1417,33664
1418,33280
1419,33152
1420,33344
1421,33664
1422,33792
1423,33792
1424,33792
1425,33792
1426,33536
1427,33216
1428,33088
1429,33152
1430,33344
1431,33536
1432,33600
1433,33344
1434,33280
1435,33280
1436,33344
1437,33408
1438,33344
1439,33344
1440,33344
1441,33600
1442,33920
1443,34240
1444,34368
1445,34240
1446,33856
1447,33280
1448,32896
1449,32896
1450,33152
1451,33344
1452,33472
1453,33536
1454,33536
1455,33600
1456,33408
1457,33216
1458,33216
1459,33344
1460,33472
1461,33408
1462,33344
1463,33472
1464,33728
1465,33920
1466,34048
1467,33920
1468,33792
1469,33792
1470,33664
1471,33536
1472,33536
1473,33664
1474,33728
1475,33920
1476,34112
1477,34176
1478,34112
1479,33792
1480,33344
1481,33152
1482,33024
1483,33088
1484,33216
1485,33600
1486,33664
1487,33600
1488,33472
1489,33472
1490,33536
1491,33536
1492,33344
1493,33280
1494,33408
1495,33664
1496,33856
1497,33664
1498,33408
1499,33216
1500,33216
1501,33472
1502,33536
1503,33408
1504,33216
1505,33152
1506,33280
1507,33536
1508,33472
1509,33408
1510,33600
1511,33856
1512,33728
1513,33536
1514,33472
1515,33664
1516,33984
1517,34240
1518,34176
1519,34176
1520,34432
1521,35328
1522,37056
1523,39488
1524,40896
1525,40896
1526,39360
1527,37120
1528,35008
1529,33088
1530,31552
1531,30592
1532,30336
1533,30656
1534,31232
1535,31744
1536,32128
1537,32640
1538,32896
1539,32832
1540,32768
1541,32768
1542,32896
1543,32960
1544,32896
1545,32896
1546,32960
1547,33152
1548,33408
1549,33536
1550,33600
1551,33664
1552,33728
1553,33792
1554,33728
1555,33728
1556,33728
1557,33728
1558,33792
1559,33920
1560,33792
1561,33472
1562,33152
1563,33088
1564,33280
1565,33472
1566,33728
1567,33984
1568,34112
1569,34304
1570,34368
1571,34176
1572,34048
1573,34048
1574,33984
1575,33920
1576,33984
1577,34112
1578,34432
1579,34624
1580,34880
1581,35072
1582,35008
1583,34880
1584,34816
1585,34816
1586,34816
1587,34752
1588,34688
1589,34496
1590,34240
1591,33920
1592,33856
1593,34112
1594,34240
1595,33920
1596,33344
1597,33088
1598,32896
1599,32576
1600,32192
1601,31872
1602,31744
1603,31808
1604,31872
1605,31936
1606,32000
1607,32192
1608,32384
1609,32512
1610,32640
1611,32640
1612,32640
1613,32704
1614,32704
1615,32704
1616,32832
1617,32832
1618,32960
1619,33216
1620,33472
1621,33408
1622,33152
1623,32896
1624,32640
1625,32704
1626,32832
1627,33024
1628,33344
1629,33472
1630,33472
1631,33600
1632,33920
1633,34176
1634,33856
1635,33408
1636,33088
1637,32960
1638,33088
1639,33280
1640,33664
1641,33728
1642,33728
1643,33600
1644,33472
1645,33344
1646,33216
1647,33088
1648,33088
1649,33152
1650,33472
1651,33920
1652,34176
1653,34240
1654,33984
1655,33536
1656,33216
1657,33280
1658,33408
1659,33472
1660,33472
1661,33472
1662,33408
1663,33472
1664,33536
1665,33600
1666,33664
1667,33792
1668,33920
1669,33856
1670,33664
1671,33280
1672,33152
1673,33216
1674,33408
1675,33600
1676,33728
1677,33728
1678,33536
1679,33408
1680,33280
1681,33280
1682,33536
1683,33664
1684,33600
1685,33728
1686,34048
1687,34176
1688,33984
1689,33600
1690,33024
1691,32768
1692,32896
1693,33088
1694,33216
1695,33344
1696,33664
1697,33984
1698,34176
1699,34048
1700,33664
1701,33536
1702,33536
1703,33664
1704,33792
1705,33664
1706,33344
1707,33216
1708,33216
1709,33472
1710,33792
1711,33920
1712,33600
1713,33088
1714,32960
1715,33152
1716,33408
1717,33344
1718,33344
1719,33472
1720,33664
1721,33600
1722,33536
1723,33408
1724,33280
1725,33280
1726,33536
1727,33664
1728,33600
1729,33600
1730,33600
1731,33664
1732,33792
1733,34560
1734,35200
1735,36544
1736,38336
1737,39744
1738,40128
1739,39104
1740,37376
1741,35392
1742,33728
1743,32384
1744,31552
1745,30976
1746,30848
1747,31168
1748,31872
1749,32256
1750,32832
1751,33152
1752,33152
1753,33216
1754,33152
1755,33152
1756,33088
1757,33152
1758,33216
1759,33216
1760,33152
1761,33216
1762,33344
1763,33472
1764,33600
1765,33792
1766,33856
1767,33792
1768,33728
1769,33472
1770,33280
1771,33152
1772,33152
1773,33216
1774,33408
1775,33664
1776,33984
1777,34048
1778,33920
1779,33728
1780,33600
1781,33728
1782,33920
1783,34048
1784,34048
1785,34048
1786,34048
1787,34176
1788,34304
1789,34368
1790,34304
1791,34176
1792,34112
1793,34240
1794,34240
1795,34432
1796,34752
1797,34880
1798,34816
1799,34624
1800,34368
1801,34112
1802,33856
1803,33600
1804,33536
1805,33600
1806,33600
1807,33536
1808,33408
1809,33408
1810,33344
1811,33344
1812,33472
1813,33600
1814,33408
1815,33024
1816,32576
1817,32320
1818,32256
1819,32256
1820,32320
1821,32512
1822,32512
1823,32320
1824,32192
1825,32320
1826,32640
1827,32960
1828,32896
1829,32768
1830,32896
1831,33088
1832,33088
1833,33088
1834,33152
1835,33344
1836,33280
1837,33152
1838,33088
1839,33088
1840,33088
1841,33280
1842,33408
1843,33472
1844,33600
1845,33728
1846,33600
1847,33344
1848,33152
1849,33088
1850,33216
1851,33408
1852,33536
1853,33664
1854,33728
1855,33664
1856,33792
1857,33856
1858,33664
1859,33536
1860,33472
1861,33472
1862,33344
1863,33216
1864,33152
1865,33216
1866,33216
1867,33280
1868,33408
1869,33728
1870,33856
1871,33792
1872,33792
1873,33792
1874,33600
1875,33344
1876,33344
1877,33472
1878,33664
1879,33920
1880,33728
1881,33344
1882,33088
1883,33024
1884,33088
1885,33024
1886,33024
1887,33088
1888,33344
1889,33728
1890,33984
1891,34112
1892,33984
1893,33920
1894,34112
1895,34240
1896,34048
1897,33664
1898,33408
1899,33408
1900,33472
1901,33536
1902,33472
1903,33408
1904,33408
1905,33472
1906,33472
1907,33536
1908,33472
1909,33408
1910,33472
1911,33536
1912,33472
1913,33216
1914,33088
1915,33216
1916,33536
1917,33728
1918,33728
1919,33536
1920,33344
1921,33408
1922,33472
1923,33536
1924,33472
1925,33408
1926,33472
1927,33472
1928,33344
1929,33216
1930,33408
1931,33792
1932,33920
1933,33792
1934,33536
1935,33408
1936,33408
1937,33664
1938,33856
1939,33856
1940,33600
1941,33216
1942,33024
1943,33408
1944,33856
1945,33984
1946,33984
1947,34368
1948,35456
1949,37120
1950,39040
1951,40384
1952,40064
1953,38528
1954,36480
1955,34688
1956,33472
1957,32512
1958,31808
1959,31360
1960,31232
1961,31232
1962,31552
1963,32000
1964,32448
1965,32576
1966,32640
1967,32768
1968,32960
1969,32960
1970,32896
1971,32832
1972,32832
1973,32896
1974,33088
1975,33344
1976,33600
1977,33728
1978,33792
1979,33600
1980,33536
1981,33408
1982,33408
1983,33344
1984,33152
1985,32960
1986,32960
1987,33152
1988,33472
1989,33792
1990,34048
1991,34176
1992,34176
1993,34112
1994,34048
1995,34048
1996,34112
1997,34304
1998,34432
1999,34432
2000,34496
2001,34496
2002,34304
2003,34112
2004,34048
2005,34624
2006,34752
2007,34944
2008,34944
2009,34816
2010,34368
2011,34112
2012,34112
2013,34240
2014,34496
2015,34688
2016,34816
2017,34944
2018,34752
2019,34432
2020,34112
2021,33856
2022,33472
2023,33152
2024,32960
2025,32896
2026,32832
2027,32768
2028,32512
2029,32256
2030,32192
2031,32192
2032,32128
2033,32000
2034,32000
2035,32128
2036,32192
2037,32000
2038,31936
2039,32128
2040,32320
2041,32320
2042,32320
2043,32448
2044,32640
2045,32832
2046,33088
2047,33216
2048,33280
2049,33280
2050,33216
2051,33216
2052,33280
2053,33408
2054,33600
2055,33856
2056,33920
2057,33856
2058,33728
2059,33536
2060,33536
2061,33536
2062,33472
2063,33280
2064,33152
2065,33280
2066,33600
2067,33664
2068,33408
2069,33152
2070,33024
2071,33024
2072,33216
2073,33280
2074,33344
2075,33344
2076,33280
2077,33216
2078,33280
2079,33280
2080,33344
2081,33408
2082,33536
2083,33536
2084,33536
2085,33536
2086,33600
2087,33728
2088,33792
2089,33856
2090,33920
2091,33856
2092,33664
2093,33536
2094,33600
2095,33792
2096,33856
2097,33792
2098,33664
2099,33536
2100,33408
2101,33344
2102,33408
2103,33536
2104,33536
2105,33472
2106,33472
2107,33408
2108,33280
2109,33216
2110,33152
2111,32960
2112,33024
2113,33152
2114,33344
2115,33408
2116,33408
2117,33472
2118,33536
2119,33600
2120,33728
2121,33792
2122,33856
2123,33920
2124,33920
2125,33728
2126,33408
2127,33280
2128,33344
2129,33408
2130,33728
2131,33856
2132,33664
2133,33280
2134,33216
2135,33344
2136,33536
2137,33472
2138,33472
2139,33472
2140,33216
2141,32832
2142,32704
2143,32960
2144,33408
2145,33792
2146,33920
2147,33920
2148,33600
2149,33280
2150,33152
2151,33344
2152,33664
2153,33856
2154,34112
2155,34304
2156,34432
2157,34240
2158,33728
2159,33472
2160,33920
2161,35136
2162,37120
2163,39488
2164,41088
2165,40768
2166,39104
2167,34496
2168,32320
2169,32064
2170,30656
2171,30592
2172,31168
2173,32192
2174,32256
2175,32384
2176,32192
2177,32320
2178,32448
2179,32448
2180,32768
2181,33216
2182,33472
2183,33600
2184,33664
2185,33600
2186,33600
2187,33472
2188,33216
2189,33152
2190,33088
2191,33536
2192,33664
2193,33600
2194,33536
2195,33472
2196,33472
2197,33536
2198,33664
2199,33792
2200,33856
2201,33920
2202,33920
2203,33984
2204,33984
2205,34112
2206,34240
2207,34240
2208,34432
2209,34368
2210,34624
2211,34624
2212,34432
2213,34176
2214,34112
2215,34112
2216,34176
2217,34240
2218,34496
2219,34432
2220,34496
2221,34560
2222,34816
2223,35008
2224,34944
2225,35008
2226,35008
2227,34816
2228,34816
2229,34816
2230,34624
2231,34112
2232,33728
2233,33728
2234,33856
2235,33728
2236,33344
2237,33024
2238,32640
2239,32192
2240,31808
2241,31680
2242,31552
2243,31488
2244,31616
2245,31808
2246,31936
2247,32128
2248,32256
2249,32256
2250,32256
2251,32384
2252,32448
2253,32768
2254,32768
2255,32832
2256,32832
2257,32896
2258,33152
2259,33408
2260,33408
2261,33280
2262,33280
2263,33280
2264,33472
2265,33920
2266,34240
2267,34112
2268,33536
2269,33408
2270,33216
2271,33152
2272,33216
2273,33344
2274,33664
2275,33920
2276,33856
2277,33600
2278,33408
2279,33408
2280,33536
2281,33600
2282,33472
2283,33344
2284,33152
2285,33088
2286,32960
2287,33088
2288,33344
2289,33536
2290,33664
2291,33856
2292,33856
2293,33728
2294,33664
2295,33792
2296,33920
2297,33856
2298,33664
2299,33472
2300,33536
2301,33856
2302,34112
2303,33856
2304,33600
2305,33536
2306,33344
2307,33024
2308,32960
2309,33280
2310,33728
2311,34048
2312,34240
2313,34496
2314,34752
2315,34496
2316,33728
2317,33088
2318,32704
2319,32768
2320,32768
2321,32768
2322,33024
2323,33408
2324,33664
2325,33728
2326,33728
2327,33920
2328,33984
2329,33664
2330,33344
2331,33152
2332,32960
2333,33024
2334,33344
2335,33664
2336,33792
2337,33536
2338,33152
2339,32960
2340,33152
2341,33600
2342,33728
2343,33472
2344,33024
2345,32768
2346,32832
2347,33024
2348,33408
2349,33664
2350,33664
2351,33664
2352,33728
2353,33728
2354,33728
2355,33792
2356,33856
2357,33856
2358,34048
2359,34240
2360,34176
2361,33984
2362,33920
2363,34112
2364,34048
2365,33728
2366,33472
2367,33600
2368,33856
2369,33792
2370,33408
2371,33280
2372,33856
2373,35008
2374,36672
2375,38656
2376,40128
2377,40064
2378,38592
2379,36544
2380,34688
2381,33280
2382,32384
2383,31680
2384,31232
2385,31232
2386,31488
2387,31936
2388,32256
2389,32448
2390,32640
2391,32832
2392,33152
2393,33472
2394,33472
2395,33472
2396,33536
2397,33728
2398,33792
2399,33536
2400,33088
2401,32960
2402,33088
2403,33408
2404,33792
2405,33920
2406,33856
2407,33600
2408,33600
2409,33600
2410,33536
2411,33536
2412,33600
2413,33792
2414,34048
2415,34240
2416,34240
2417,34176
2418,34240
2419,34176
2420,34176
2421,34368
2422,34560
2423,34368
2424,34112
2425,33984
2426,34048
2427,34112
2428,34112
2429,34240
2430,34432
2431,34560
2432,34560
2433,34688
2434,34752
2435,34624
2436,34496
2437,34496
2438,34816
2439,35072
2440,35136
2441,34880
2442,34560
2443,34624
2444,34880
2445,34560
2446,33856
2447,33088
2448,32512
2449,32128
2450,32000
2451,32000
2452,32064
2453,32064
2454,32192
2455,32384
2456,32576
2457,32704
2458,32640
2459,32448
2460,32256
2461,32320
2462,32448
2463,32640
2464,32832
2465,33024
2466,32960
2467,32896
2468,32832
2469,32704
2470,32640
2471,32832
2472,33216
2473,33408
2474,33280
2475,33088
2476,32960
2477,33088
2478,33344
2479,33600
2480,33728
2481,33664
2482,33472
2483,33408
2484,33472
2485,33664
2486,33856
2487,34048
2488,34176
2489,34048
2490,33792
2491,33472
2492,33280
2493,33216
2494,33280
2495,33280
2496,33216
2497,33216
2498,33280
2499,33472
2500,33600
2501,33472
2502,33280
2503,33344
2504,33536
2505,33664
2506,33600
2507,33664
2508,33856
2509,33984
2510,33920
2511,33856
2512,33856
2513,33856
2514,33792
2515,33728
2516,33728
2517,33728
2518,33536
2519,33280
2520,33152
2521,33152
2522,33344
2523,33792
2524,34112
2525,33984
2526,33600
2527,33280
2528,33280
2529,33408
2530,33856
2531,34368
2532,34560
2533,34368
2534,34048
2535,33856
2536,33856
2537,33856
2538,33600
2539,33408
2540,33344
2541,33344
2542,33408
2543,33664
2544,33984
2545,34240
2546,34304
2547,34112
2548,33792
2549,33536
2550,33536
2551,33792
2552,33984
2553,33984
2554,33984
2555,33920
2556,33856
2557,33856
2558,33920
2559,33984
2560,34048
2561,33984
2562,33856
2563,33728
2564,33792
2565,33920
2566,33856
2567,33728
2568,33856
2569,34112
2570,34240
2571,34176
2572,34048
2573,34176
2574,34304
2575,34240
2576,34496
2577,35200
2578,36480
2579,38464
2580,40512
2581,41152
2582,39872
2583,37696
2584,35456
2585,33728
2586,32704
2587,32064
2588,31616
2589,31488
2590,31680
2591,32256
2592,32832
2593,32960
2594,33024
2595,33088
2596,33280
2597,33280
2598,33280
2599,33408
2600,33728
2601,33920
2602,33984
2603,33856
2604,33600
2605,33472
2606,33664
2607,34112
2608,34432
2609,34304
2610,33984
2611,33792
2612,33792
2613,34112
2614,34560
2615,34624
2616,34240
2617,33856
2618,33664
2619,33792
2620,34112
2621,34368
2622,34368
2623,34368
2624,34368
2625,34432
2626,34496
2627,34560
2628,34560
2629,34560
2630,34624
2631,34752
2632,35008
2633,35136
2634,35200
2635,35264
2636,35392
2637,35392
2638,35392
2639,35328
2640,35328
2641,35392
2642,35392
2643,35264
2644,35072
2645,34880
2646,34880
2647,34816
2648,34496
2649,34176
2650,33856
2651,33728
2652,33728
2653,33600
2654,33472
2655,33088
2656,32576
2657,32256
2658,32064
2659,31936
2660,32000
2661,32128
2662,32256
2663,32640
2664,32896
2665,33088
2666,33088
2667,32960
2668,32960
2669,33024
2670,33088
2671,33152
2672,33088
2673,32960
2674,33088
2675,33408
2676,33728
2677,33856
2678,33600
2679,33216
2680,32960
2681,33024
2682,33152
2683,33408
2684,33792
2685,33920
2686,33664
2687,33472
2688,33472
2689,33664
2690,33920
2691,34112
2692,34048
2693,33792
2694,33536
2695,33408
2696,33600
2697,33792
2698,33856
2699,33920
2700,33920
2701,33920
2702,33792
2703,33600
2704,33472
2705,33472
2706,33472
2707,33536
2708,33664
2709,33664
2710,33664
2711,33664
2712,33728
2713,33920
2714,34176
2715,34368
2716,34304
2717,33920
2718,33600
2719,33408
2720,33408
2721,33408
2722,33472
2723,33536
2724,33472
2725,33536
2726,33600
2727,33664
2728,33600
2729,33536
2730,33472
2731,33600
2732,33600
2733,33728
2734,33920
2735,34048
2736,34048
2737,33920
2738,33792
2739,33664
2740,33472
2741,33472
2742,33408
2743,33344
2744,33408
2745,33664
2746,33728
2747,33664
2748,33472
2749,33280
2750,33216
2751,33280
2752,33408
2753,33472
2754,33472
2755,33472
2756,33536
2757,33600
2758,33728
2759,33984
2760,34176
2761,34048
2762,33728
2763,33536
2764,33664
2765,33920
2766,33920
2767,33472
2768,32960
2769,32832
2770,32960
2771,33088
2772,33344
2773,33600
2774,33600
2775,33344
2776,33024
2777,32960
2778,33152
2779,33088
2780,33216
2781,33152
2782,33152
2783,33280
2784,33408
2785,33472
2786,33344
2787,33088
2788,33088
2789,33152
2790,33152
2791,33088
2792,33152
2793,33344
2794,33408
2795,33408
2796,33536
2797,33600
2798,33664
2799,33600
2800,33792
2801,33984
2802,34048
2803,33984
2804,33856
2805,33664
2806,33792
2807,34496
2808,35776
2809,37376
2810,39104
2811,40384
2812,39872
2813,38016
2814,35904
2815,33984
2816,32448
2817,31168
2818,30400
2819,30016
2820,30272
2821,30976
2822,31552
2823,31936
2824,32320
2825,32512
2826,32512
2827,32576
2828,32640
2829,32640
2830,32576
2831,32704
2832,32832
2833,32832
2834,32704
2835,32640
2836,32768
2837,32960
2838,33088
2839,33280
2840,33344
2841,33408
2842,33280
2843,33216
2844,33408
2845,33600
2846,33536
2847,33408
2848,33344
2849,33280
2850,33088
2851,32960
2852,33024
2853,33152
2854,33472
2855,33792
2856,33920
2857,33984
2858,34112
2859,34048
2860,33984
2861,33920
2862,33792
2863,33600
2864,33600
2865,33792
2866,33984
2867,33920
2868,34048
2869,34304
2870,34304
2871,34304
2872,34368
2873,34432
2874,34496
2875,34624
2876,34816
2877,34688
2878,34432
2879,33856
2880,33280
2881,32960
2882,32768
2883,32640
2884,32384
2885,32128
2886,32064
2887,32064
2888,32128
2889,32192
2890,32192
2891,32320
2892,32384
2893,32192
2894,31872
2895,31680
2896,31616
2897,31680
2898,31744
2899,31680
2900,31616
2901,31680
2902,31936
2903,32192
2904,32256
2905,32384
2906,32448
2907,32704
2908,32896
2909,33152
2910,33408
2911,33600
2912,33664
2913,33536
2914,33344
2915,33088
2916,32960
2917,33024
2918,33216
2919,33216
2920,33088
2921,32896
2922,32768
2923,32640
2924,32768
2925,32960
2926,33280
2927,33280
2928,33152
2929,33152
2930,33408
2931,33728
2932,33920
2933,33984
2934,33728
2935,33216
2936,32832
2937,32832
2938,32896
2939,33088
2940,33152
2941,33280
2942,33280
2943,33280
2944,33344
2945,33344
2946,33408
2947,33600
2948,33600
2949,33536
2950,33408
2951,33344
2952,33472
2953,33664
2954,33600
2955,33472
2956,33216
2957,33024
2958,32960
2959,33024
2960,33152
2961,33152
2962,33152
2963,33280
2964,33408
2965,33408
2966,33408
2967,33536
2968,33728
2969,33920
2970,33920
2971,33856
2972,33920
2973,33728
2974,33408
2975,33024
2976,32896
2977,32832
2978,32832
2979,33024
2980,33280
2981,33536
2982,33792
2983,33920
2984,33792
2985,33600
2986,33472
2987,33344
2988,33344
2989,33472
2990,33600
2991,33664
2992,33792
2993,33728
2994,33472
2995,33152
2996,33152
2997,33408
2998,33664
2999,33664
3000,33536
3001,33536
3002,33856
3003,34304
3004,34304
3005,33728
3006,33408
3007,33344
3008,33216
3009,33088
3010,32960
3011,32960
3012,33216
3013,33664
3014,33856
3015,33856
3016,33728
3017,33664
3018,33536
3019,33216
3020,33152
3021,33280
3022,33472
3023,33600
3024,33472
3025,33472
3026,33536
3027,33536
3028,33408
3029,33280
3030,33280
3031,33408
3032,33344
3033,33344
3034,33472
3035,33664
3036,33792
3037,33600
3038,33344
3039,33280
3040,33344
3041,33280
3042,33344
3043,33536
3044,33792
3045,34048
3046,34304
3047,34368
3048,34176
3049,34176
3050,34816
3051,36096
3052,37888
3053,39872
3054,40768
3055,39936
3056,37888
3057,35584
3058,33536
3059,32448
3060,31488
3061,30848
3062,30528
3063,30592
3064,30848
3065,31360
3066,32000
3067,32640
3068,33024
3069,33216
3070,33344
3071,33472
3072,33344
3073,33216
3074,33152
3075,33280
3076,33344
3077,33472
3078,33536
3079,33600
3080,33472
3081,33152
3082,33088
3083,33152
3084,33280
3085,33344
3086,33280
3087,33408
3088,33792
3089,34048
3090,34048
3091,33920
3092,33984
3093,34176
3094,34240
3095,33920
3096,33728
3097,33728
3098,33600
3099,33408
3100,33408
3101,33664
3102,34112
3103,34304
3104,34176
3105,34048
3106,34048
3107,34112
3108,34240
3109,34432
3110,34688
3111,34816
3112,35136
3113,35264
3114,35200
3115,35136
3116,34816
3117,34368
3118,34240
3119,34304
3120,34432
3121,34432
3122,34176
3123,33728
3124,33472
3125,33408
3126,33408
3127,33344
3128,33152
3129,32704
3130,32320
3131,32128
3132,32064
3133,31936
3134,32000
3135,32192
3136,32384
3137,32384
3138,32384
3139,32512
3140,32640
3141,32768
3142,32832
3143,32768
3144,32704
3145,32768
3146,32896
3147,33216
3148,33600
3149,33856
3150,33920
3151,33728
3152,33536
3153,33408
3154,33408
3155,33344
3156,33216
3157,33024
3158,33024
3159,33280
3160,33472
3161,33344
3162,33088
3163,33024
3164,33152
3165,33344
3166,33600
3167,33728
3168,33728
3169,33792
3170,33920
3171,34048
3172,34048
3173,33856
3174,33664
3175,33472
3176,33280
3177,33216
3178,33344
3179,33472
3180,33408
3181,33472
3182,33856
3183,34240
3184,34176
3185,33856
3186,33600
3187,33472
3188,33408
3189,33344
3190,33408
3191,33600
3192,33792
3193,33856
3194,33728
3195,33536
3196,33408
3197,33280
3198,33088
3199,33024
3200,33088
3201,33344
3202,33600
3203,33664
3204,33600
3205,33600
3206,33664
3207,33792
3208,33728
3209,33600
3210,33728
3211,33984
3212,34048
3213,33984
3214,34112
3215,34112
3216,33920
3217,33536
3218,33152
3219,33024
3220,33088
3221,33216
3222,33280
3223,33280
3224,33280
3225,33408
3226,33664
3227,33984
3228,34112
3229,33984
3230,33920
3231,33856
3232,33728
3233,33728
3234,33664
3235,33600
3236,33536
3237,33664
3238,33728
3239,33472
3240,33216
3241,33216
3242,33600
3243,33792
3244,33600
3245,33408
3246,33408
3247,33472
3248,33664
3249,33536
3250,33216
3251,33216
3252,33344
3253,33600
3254,33920
3255,33920
3256,33728
3257,33536
3258,33472
3259,33472
3260,33472
3261,33216
3262,32960
3263,32896
3264,33152
3265,33408
3266,33472
3267,33600
3268,33792
3269,34112
3270,34432
3271,34496
3272,34176
3273,33920
3274,33728
3275,33664
3276,33664
3277,33600
3278,33408
3279,33344
3280,33280
3281,33280
3282,33408
3283,33664
3284,33856
3285,34048
3286,34304
3287,35072
3288,36544
3289,38592
3290,40832
3291,41216
3292,40064
3293,38016
3294,35968
3295,33664
3296,32768
3297,31680
3298,30976
3299,30848
3300,30976
3301,31168
3302,31488
3303,32000
3304,32512
3305,32768
3306,32896
3307,33088
3308,33088
3309,32832
3310,32960
3311,33152
3312,33344
3313,33344
3314,33408
3315,33344
3316,33408
3317,33664
3318,34112
3319,34304
3320,33920
3321,33280
3322,33024
3323,32960
3324,32960
3325,33024
3326,33152
3327,33280
3328,33536
3329,33664
3330,33856
3331,34048
3332,34432
3333,34880
3334,34944
3335,34432
3336,33792
3337,33408
3338,33472
3339,33792
3340,34176
3341,34368
3342,34496
3343,34816
3344,34944
3345,34880
3346,34816
3347,34688
3348,34496
3349,34368
3350,34496
3351,34880
3352,35328
3353,35520
3354,35392
3355,35072
3356,34688
3357,34432
3358,34240
3359,34048
3360,33792
3361,33536
3362,33344
3363,33088
3364,32896
3365,32704
3366,32512
3367,32256
3368,31936
3369,31808
3370,31872
3371,32064
3372,32192
3373,32320
3374,32448
3375,32512
3376,32512
3377,32576
3378,32576
3379,32640
3380,32640
3381,32704
3382,32768
3383,33024
3384,33216
3385,33216
3386,32960
3387,32768
3388,32768
3389,33024
3390,33280
3391,33344
3392,33472
3393,33600
3394,33728
3395,33728
3396,33792
3397,33856
3398,33664
3399,33344
3400,33216
3401,33216
3402,33216
3403,33216
3404,33152
3405,33152
3406,33344
3407,33536
3408,33600
3409,33664
3410,33728
3411,33856
3412,33984
3413,34112
3414,33984
3415,33728
3416,33472
3417,33408
3418,33536
3419,33600
3420,33664
3421,33728
3422,33728
3423,33728
3424,33664
3425,33664
3426,33792
3427,33856
3428,33728
3429,33536
3430,33472
3431,33600
3432,33664
3433,33536
3434,33344
3435,33280
3436,33152
3437,33152
3438,33152
3439,33344
3440,33472
3441,33664
3442,33856
3443,34048
3444,34240
3445,34304
3446,34112
3447,33920
3448,33920
3449,34112
3450,34240
3451,34496
3452,34752
3453,34432
3454,33408
3455,32576
3456,32384
3457,32704
3458,33152
3459,33408
3460,33536
3461,33472
3462,33216
3463,33088
3464,33088
3465,33024
3466,32960
3467,32896
3468,32960
3469,33216
3470,33536
3471,33792
3472,34048
3473,34240
3474,33984
3475,33536
3476,33280
3477,33280
3478,33472
3479,33600
3480,33600
3481,33664
3482,33856
3483,33920
3484,33792
3485,33856
3486,34112
3487,34112
3488,33792
3489,33472
3490,33472
3491,33664
3492,33728
3493,33536
3494,33408
3495,33344
3496,33408
3497,33664
3498,33984
3499,34368
3500,34432
3501,34048
3502,33472
3503,33088
3504,33024
3505,33088
3506,33216
3507,33344
3508,33536
3509,33792
3510,33920
3511,33856
3512,33792
3513,33920
3514,33856
3515,33536
3516,33216
3517,33152
3518,33088
3519,33216
3520,33472
3521,33600
3522,33664
3523,33728
3524,33792
3525,33728
3526,33664
3527,33728
3528,33984
3529,34240
3530,34304
3531,33984
3532,33472
3533,33152
3534,33280
3535,33600
3536,33856
3537,33920
3538,33984
3539,33984
3540,33920
3541,34048
3542,34624
3543,35776
3544,37632
3545,39936
3546,41536
3547,41088
3548,39232
3549,36928
3550,34816
3551,32896
3552,31488
3553,30656
3554,30336
3555,30528
3556,31040
3557,31552
3558,31808
3559,31936
3560,32128
3561,32320
3562,32512
3563,32832
3564,33152
3565,33408
3566,33600
3567,33728
3568,33664
3569,33536
3570,33472
3571,33600
3572,33728
3573,33792
3574,33664
3575,33344
3576,33024
3577,33024
3578,33408
3579,33856
3580,33792
3581,33600
3582,33728
3583,33856
3584,33792
3585,33600
3586,33472
3587,33408
3588,33600
3589,34112
3590,34496
3591,34368
3592,33920
3593,33536
3594,33536
3595,33728
3596,34048
3597,34368
3598,34880
3599,35200
3600,35136
3601,35008
3602,34944
3603,35136
3604,35456
3605,35456
3606,35264
3607,35008
3608,34880
3609,34944
3610,35072
3611,34944
3612,34624
3613,34112
3614,33856
3615,33664
3616,33664
3617,33664
3618,33728
3619,33728
3620,33600
3621,33280
3622,32768
3623,32384
3624,32192
3625,32000
3626,31872
3627,31872
3628,32064
3629,32192
3630,32256
3631,32512
3632,32640
3633,32448
3634,32064
3635,31936
3636,32192
3637,32576
3638,32832
3639,32896
3640,32960
3641,33216
3642,33472
3643,33664
3644,33600
3645,33344
3646,33024
3647,32896
3648,33024
3649,33472
3650,33856
3651,34112
3652,33920
3653,33600
3654,33216
3655,32960
3656,32896
3657,32896
3658,33024
3659,33216
3660,33344
3661,33536
3662,33664
3663,33728
3664,33984
3665,34176
3666,34048
3667,33664
3668,33344
3669,33408
3670,33664
3671,33600
3672,33280
3673,33152
3674,33216
3675,33344
3676,33664
3677,33984
3678,34048
3679,33920
3680,33536
3681,33280
3682,33344
3683,33536
3684,33728
3685,33920
3686,33920
3687,33728
3688,33600
3689,33408
3690,33344
3691,33408
3692,33408
3693,33344
3694,33472
3695,33664
3696,33920
3697,34176
3698,34176
3699,34112
3700,33984
3701,33920
3702,33792
3703,33600
3704,33536
3705,33664
3706,33600
3707,33344
3708,33280
3709,33472
3710,33600
3711,33600
3712,33472
3713,33344
3714,33280
3715,33472
3716,33600
3717,33600
3718,33472
3719,33472
3720,33728
3721,33920
3722,33984
3723,33856
3724,33792
3725,33728
3726,33728
3727,33728
3728,33792
3729,34112
3730,34240
3731,34048
3732,33728
3733,33664
3734,33600
3735,33472
3736,33344
3737,33408
3738,33472
3739,33536
3740,33600
3741,33792
3742,33792
3743,33792
3744,33664
3745,33536
3746,33408
3747,33280
3748,33216
3749,33408
3750,33792
3751,34304
3752,34496
3753,34304
3754,34048
3755,33856
3756,33728
3757,33536
3758,33216
3759,32960
3760,33024
3761,33152
3762,33280
3763,33344
3764,33408
3765,33600
3766,33856
3767,33664
3768,33472
3769,33472
3770,33728
3771,33984
3772,34048
3773,34112
3774,33920
3775,33728
3776,33664
3777,33664
3778,33856
3779,33792
3780,33792
3781,34048
3782,34112
3783,34432
3784,34944
3785,35904
3786,37824
3787,39744
3788,41024
3789,40576
3790,38976
3791,36736
3792,34816
3793,33024
3794,31616
3795,30720
3796,30592
3797,30976
3798,31488
3799,32000
3800,32256
3801,32512
3802,32576
3803,32896
3804,33152
3805,33088
3806,32832
3807,32832
3808,33024
3809,33280
3810,33664
3811,33920
3812,33920
3813,33728
3814,33664
3815,33728
3816,33728
3817,33536
3818,33408
3819,33408
3820,33536
3821,33600
3822,33600
3823,33664
3824,33600
3825,33472
3826,33536
3827,33792
3828,34240
3829,34496
3830,34304
3831,33920
3832,33792
3833,33920
3834,34112
3835,34176
3836,34176
3837,34240
3838,34240
3839,34176
3840,34240
3841,34368
3842,34368
3843,34368
3844,34496
3845,34880
3846,35136
3847,35136
3848,34880
3849,34816
3850,34944
3851,35008
3852,34752
3853,34496
3854,34496
3855,34560
3856,34560
3857,34304
3858,33728
3859,33600
3860,33536
3861,33408
3862,33088
3863,32640
3864,32256
3865,32128
3866,32128
3867,32128
3868,32000
3869,32192
3870,32448
3871,32640
3872,32512
3873,32384
3874,32256
3875,32256
3876,32448
3877,32768
3878,33024
3879,33280
3880,33536
3881,33536
3882,33152
3883,32768
3884,32576
3885,32768
3886,33088
3887,33280
3888,33408
3889,33536
3890,33664
3891,33664
3892,33536
3893,33472
3894,33536
3895,33728
3896,33728
3897,33536
3898,33344
3899,33280
3900,33344
3901,33536
3902,33600
3903,33536
3904,33472
3905,33408
3906,33408
3907,33472
3908,33600
3909,33536
3910,33408
3911,33472
3912,33600
3913,33600
3914,33408
3915,33344
3916,33280
3917,33280
3918,33408
3919,33600
3920,33728
3921,33664
3922,33664
3923,33664
3924,33792
3925,33728
3926,33600
3927,33664
3928,33920
3929,34112
3930,34240
3931,34240
3932,33984
3933,33600
3934,33216
3935,33088
3936,33088
3937,33152
3938,33472
3939,33856
3940,33984
3941,33792
3942,33344
3943,33088
3944,33024
3945,33280
3946,33472
3947,33536
3948,33472
3949,33408
3950,33600
3951,33984
3952,34240
3953,34048
3954,33792
3955,33536
3956,33408
3957,33536
3958,33920
3959,34176
3960,34048
3961,33792
3962,33664
3963,33472
3964,33216
3965,33216
3966,33280
3967,33408
3968,33536
3969,33600
3970,33600
3971,33664
3972,33728
3973,33664
3974,33600
3975,33792
3976,34048
3977,34176
3978,34048
3979,33856
3980,33728
3981,33856
3982,33792
3983,33600
3984,33408
3985,33280
3986,33280
3987,33472
3988,33472
3989,33728
3990,33792
3991,33472
3992,33472
3993,33600
3994,33472
3995,33344
3996,33216
3997,33152
3998,33216
3999,33344
4000,33472
4001,33472
4002,33728
4003,33792
4004,33792
4005,33920
4006,34048
4007,33984
4008,33984
4009,34112
4010,33920
4011,33408
4012,33024
4013,32960
4014,33088
4015,33280
4016,33536
4017,33792
4018,33920
4019,33856
4020,33856
4021,34112
4022,34304
4023,34240
4024,34304
4025,34752
4026,36160
4027,36352
4028,37760
4029,41216
4030,40768
4031,38912
4032,36480
4033,34368
4034,32768
4035,31616
4036,30912
4037,30656
4038,30912
4039,31616
4040,32192
4041,32384
4042,32448
4043,32640
4044,32960
4045,33152
4046,33280
4047,33408
4048,33344
4049,33216
4050,33216
4051,33344
4052,33472
4053,33472
4054,33216
4055,33088
4056,33280
4057,33536
4058,33728
4059,33792
4060,33856
4061,33856
4062,33664
4063,33408
4064,33344
4065,33216
4066,33216
4067,33152
4068,33408
4069,33536
4070,33792
4071,34176
4072,34432
4073,34560
4074,34560
4075,34496
4076,34432
4077,34304
4078,34368
4079,34368
4080,34368
4081,34240
4082,34240
4083,34240
4084,34560
4085,34816
4086,35136
4087,35264
4088,35264
4089,35136
4090,35008
4091,35072
4092,35264
4093,35200
4094,34880
4095,34560
4096,34368
4097,34176
4098,33792
4099,33344
4100,33152
4101,32960
4102,32896
4103,32896
4104,32960
4105,32704
4106,32320
4107,32192
4108,32000
4109,31872
4110,32000
4111,32064
4112,32064
4113,32192
4114,32448
4115,32512
4116,32448
4117,32640
4118,32704
4119,32768
4120,32640
4121,32768
4122,32768
4123,32768
4124,33024
4125,33152
4126,33024
4127,32896
4128,32832
4129,32960
4130,33088
4131,33280
4132,33408
4133,33536
4134,33600
4135,33600
4136,33664
4137,33792
4138,34112
4139,34432
4140,34304
4141,33728
4142,33344
4143,33344
4144,33728
4145,34048
4146,34112
4147,33920
4148,33408
4149,32896
4150,32768
4151,32896
4152,33344
4153,33280
4154,33472
4155,33408
4156,33472
4157,33600
4158,33792
4159,33984
4160,34176
4161,34112
4162,33856
4163,33664
4164,33600
4165,33664
4166,33664
4167,33792
4168,33920
4169,33920
4170,33728
4171,33536
4172,33536
4173,33472
4174,33344
4175,33344
4176,33600
4177,33856
4178,33920
4179,33856
4180,33792
4181,33792
4182,33856
4183,33920
4184,33920
4185,33664
4186,33408
4187,33152
4188,33088
4189,32960
4190,32896
4191,33024
4192,33344
4193,33344
4194,33920
4195,34176
4196,34112
4197,33920
4198,33728
4199,33600
4200,33536
4201,33600
4202,33728
4203,33600
4204,33536
4205,33600
4206,33728
4207,33728
4208,33664
4209,33664
4210,33792
4211,33856
4212,33792
4213,33472
4214,33344
4215,33472
4216,33728
4217,33856
4218,33792
4219,33600
4220,33408
4221,33408
4222,33472
4223,33600
4224,33792
4225,33920
4226,33920
4227,33792
4228,33856
4229,33920
4230,33856
4231,33600
4232,33408
4233,33344
4234,33408
4235,33728
4236,34048
4237,33984
4238,33792
4239,33664
4240,33472
4241,33280
4242,33280
4243,33536
4244,33792
4245,33984
4246,34112
4247,34112
4248,34048
4249,33920
4250,33856
4251,33472
4252,33088
4253,32896
4254,32960
4255,33216
4256,33536
4257,33536
4258,33408
4259,33472
4260,33664
4261,33920
4262,34048
4263,34048
4264,33920
4265,33792
4266,33792
4267,33920
4268,34112
4269,34624
4270,35712
4271,37632
4272,40128
4273,41920
4274,41408
4275,38848
4276,38464
4277,34368
4278,32640
4279,31744
4280,31488
4281,31232
4282,30976
4283,31040
4284,31360
4285,31936
4286,32576
4287,32960
4288,32896
4289,32640
4290,32576
4291,32768
4292,33024
4293,33152
4294,33216
4295,33344
4296,33536
4297,33984
4298,34304
4299,34240
4300,33920
4301,33600
4302,33408
4303,33344
4304,33344
4305,33216
4306,33152
4307,33344
4308,33536
4309,33664
4310,34048
4311,34304
4312,34240
4313,34048
4314,33856
4315,33728
4316,33664
4317,33728
4318,33984
4319,34112
4320,33920
4321,33728
4322,33600
4323,33600
4324,33920
4325,34496
4326,34944
4327,35008
4328,34816
4329,34752
4330,34880
4331,35072
4332,35264
4333,35392
4334,35456
4335,35456
4336,35392
4337,35328
4338,35392
4339,35136
4340,34496
4341,33664
4342,33408
4343,33408
4344,33280
4345,33088
4346,32832
4347,32640
4348,32576
4349,32704
4350,32704
4351,32384
4352,32128
4353,32000
4354,31936
4355,31936
4356,32064
4357,32192
4358,32320
4359,32448
4360,32576
4361,32768
4362,32768
4363,32704
4364,32704
4365,32832
4366,33088
4367,33344
4368,33472
4369,33216
4370,32960
4371,32832
4372,32896
4373,33152
4374,33280
4375,33344
4376,33664
4377,33600
4378,33920
4379,33728
4380,33536
4381,33472
4382,33344
4383,33280
4384,33408
4385,33664
4386,33664
4387,33408
4388,33280
4389,33152
4390,33152
4391,33536
4392,33536
4393,33856
4394,33856
4395,33792
4396,33792
4397,33792
4398,33728
4399,33536
4400,33472
4401,33408
4402,33408
4403,33472
4404,33664
4405,33856
4406,33920
4407,33728
4408,33472
4409,33280
4410,33152
4411,33408
4412,33408
4413,33664
4414,33728
4415,33728
4416,33792
4417,34048
4418,34240
4419,34304
4420,34176
4421,33984
4422,33856
4423,33856
4424,33920
4425,33792
4426,33472
4427,33344
4428,33216
4429,33280
4430,33472
4431,33728
4432,33664
4433,33664
4434,33664
4435,33536
4436,33408
4437,33472
4438,33728
4439,33856
4440,33792
4441,33472
4442,33216
4443,33280
4444,33472
4445,33600
4446,33728
4447,33728
4448,33792
4449,33856
4450,34112
4451,34304
4452,34112
4453,33728
4454,33408
4455,33536
4456,33920
4457,34176
4458,34176
4459,34176
4460,34176
4461,33920
4462,33856
4463,33536
4464,33344
4465,33216
4466,33216
4467,33216
4468,33728
4469,33792
4470,33728
4471,33664
4472,33728
4473,33728
4474,33728
4475,33664
4476,33472
4477,33344
4478,33536
4479,33664
4480,33728
4481,33792
4482,33728
4483,33472
4484,33216
4485,33280
4486,33472
4487,33536
4488,33536
4489,33728
4490,33920
4491,33984
4492,34112
4493,34240
4494,34176
4495,34048
4496,33856
4497,33792
4498,33792
4499,33664
4500,33664
4501,34240
4502,34304
4503,35840
4504,37696
4505,40064
4506,41792
4507,41792
4508,40000
4509,37248
4510,34624
4511,32640
4512,31488
4513,30976
4514,30848
4515,31040
4516,31744
4517,31744
4518,31872
4519,31936
4520,32192
4521,32576
4522,32960
4523,33152
4524,33280
4525,33536
4526,33856
4527,33920
4528,33792
4529,33536
4530,33280
4531,33280
4532,33216
4533,33472
4534,33472
4535,33600
4536,33792
4537,33792
4538,33728
4539,33920
4540,34240
4541,34176
4542,33920
4543,33664
4544,33536
4545,33536
4546,33600
4547,33408
4548,33344
4549,33600
4550,33984
4551,33920
4552,33856
4553,33728
4554,33920
4555,34048
4556,34240
4557,34560
4558,34944
4559,35200
4560,35264
4561,35072
4562,34944
4563,35008
4564,35072
4565,34944
4566,34560
4567,34368
4568,34304
4569,34304
4570,34496
4571,34688
4572,34560
4573,34176
4574,33920
4575,33920
4576,33984
4577,33984
4578,33792
4579,33472
4580,33024
4581,32576
4582,32192
4583,32064
4584,32128
4585,32320
4586,32192
4587,32064
4588,32000
4589,32256
4590,32448
4591,32640
4592,32640
4593,32512
4594,32384
4595,32384
4596,32512
4597,32576
4598,32576
4599,32512
4600,32640
4601,33152
4602,33216
4603,33280
4604,33088
4605,33088
4606,33344
4607,33344
4608,33152
4609,32896
4610,33152
4611,33536
4612,33600
4613,33408
4614,33216
4615,33216
4616,33408
4617,33664
4618,33600
4619,33536
4620,33536
4621,33408
4622,33408
4623,33792
4624,33920
4625,33856
4626,33728
4627,33472
4628,33216
4629,33152
4630,33344
4631,33664
4632,33728
4633,33600
4634,33472
4635,33536
4636,33856
4637,33856
4638,33856
4639,33728
4640,33664
4641,33600
4642,33536
4643,33344
4644,33280
4645,33408
4646,33472
4647,33344
4648,33216
4649,33344
4650,33536
4651,33728
4652,33856
4653,33920
4654,33984
4655,33792
4656,33344
4657,33216
4658,33280
4659,33408
4660,33600
4661,33600
4662,33472
4663,33600
4664,33856
4665,33984
4666,33792
4667,33536
4668,33344
4669,33408
4670,33536
4671,33728
4672,33792
4673,33728
4674,33856
4675,34240
4676,34432
4677,34176
4678,33792
4679,33408
4680,33280
4681,33408
4682,33536
4683,33600
4684,33408
4685,33152
4686,33152
4687,33280
4688,33280
4689,33280
4690,33280
4691,33344
4692,33472
4693,33600
4694,33472
4695,33344
4696,33408
4697,33600
4698,33664
4699,33728
4700,33664
4701,33536
4702,33536
4703,33664
4704,33792
4705,33728
4706,33664
4707,33728
4708,33664
4709,33536
4710,33216
4711,33344
4712,33472
4713,33472
4714,33344
4715,33216
4716,33152
4717,33344
4718,33536
4719,33408
4720,33152
4721,33088
4722,33472
4723,34496
4724,36288
4725,38528
4726,40832
4727,40896
4728,39744
4729,37760
4730,35520
4731,33728
4732,32448
4733,31680
4734,31296
4735,31104
4736,31296
4737,31552
4738,31680
4739,31808
4740,32064
4741,32384
4742,32512
4743,32768
4744,33024
4745,33536
4746,34176
4747,34240
4748,33920
4749,33536
4750,33216
4751,33088
4752,33088
4753,33024
4754,32896
4755,32896
4756,33152
4757,33536
4758,33664
4759,33600
4760,33408
4761,33408
4762,33536
4763,33856
4764,34112
4765,34112
4766,34112
4767,34176
4768,34048
4769,33920
4770,33920
4771,33856
4772,33408
4773,33024
4774,33024
4775,33344
4776,33792
4777,33792
4778,33664
4779,33536
4780,33600
4781,33984
4782,34176
4783,34560
4784,34880
4785,35008
4786,35072
4787,34880
4788,34752
4789,34752
4790,34560
4791,34240
4792,33984
4793,33792
4794,33856
4795,34048
4796,34240
4797,33984
4798,33472
4799,32960
4800,32640
4801,32448
4802,32448
4803,32512
4804,32576
4805,32448
4806,32256
4807,32128
4808,32064
4809,32128
4810,32256
4811,32192
4812,32064
4813,32000
4814,32128
4815,32512
4816,33024
4817,33152
4818,33344
4819,33216
4820,33088
4821,33152
4822,33088
4823,32960
4824,32960
4825,32960
4826,33024
4827,33088
4828,33024
4829,32960
4830,33152
4831,33408
4832,33408
4833,33344
4834,33280
4835,33344
4836,33600
4837,33920
4838,33984
4839,33856
4840,33792
4841,33664
4842,33536
4843,33408
4844,33344
4845,33408
4846,33536
4847,33472
4848,33536
4849,33728
4850,33856
4851,33728
4852,33344
4853,33088
4854,33216
4855,33536
4856,33728
4857,33728
4858,33856
4859,34304
4860,34496
4861,34240
4862,33856
4863,33728
4864,33600
4865,33280
4866,32960
4867,32960
4868,33152
4869,33472
4870,33856
4871,33984
4872,33984
4873,34048
4874,34112
4875,34048
4876,33792
4877,33536
4878,33536
4879,33664
4880,33920
4881,34112
4882,34048
4883,33984
4884,33856
4885,33856
4886,33920
4887,33920
4888,33920
4889,33984
4890,34112
4891,34112
4892,33984
4893,33728
4894,33536
4895,33728
4896,34176
4897,34368
4898,34112
4899,33600
4900,33280
4901,33216
4902,33280
4903,33280
4904,33216
4905,33216
4906,33344
4907,33664
4908,33920
4909,34048
4910,33920
4911,33728
4912,33536
4913,33536
4914,33408
4915,33408
4916,33600
4917,33792
4918,34112
4919,34304
4920,34368
4921,34304
4922,34176
4923,34240
4924,34304
4925,34240
4926,34432
4927,35200
4928,36928
4929,39104
4930,40896
4931,41024
4932,39680
4933,37504
4934,35328
4935,33536
4936,31872
4937,31360
4938,31040
4939,31296
4940,31744
4941,32256
4942,32512
4943,32384
4944,32320
4945,32576
4946,33088
4947,33600
4948,33792
4949,33536
4950,33280
4951,33024
4952,33088
4953,33280
4954,33472
4955,33536
4956,33664
4957,33728
4958,33792
4959,33792
4960,33792
4961,34048
4962,34176
4963,34240
4964,34304
4965,34304
4966,34304
4967,34368
4968,34048
4969,33536
4970,33216
4971,33280
4972,33536
4973,33920
4974,34176
4975,34432
4976,34496
4977,34368
4978,34304
4979,34304
4980,34432
4981,34560
4982,34880
4983,35200
4984,35328
4985,35008
4986,34688
4987,34688
4988,34816
4989,34944
4990,35072
4991,35392
4992,35328
4993,35072
4994,34880
4995,34688
4996,34688
4997,34688
4998,34624
4999,34496
5000,34368
5001,34176
5002,33728
5003,33216
5004,32896
5005,32704
5006,32512
5007,32384
5008,32192
5009,32192
5010,32128
5011,32064
5012,32000
5013,32064
5014,32128
5015,32192
5016,32320
5017,32704
5018,33152
5019,33344
5020,33152
5021,33024
5022,32960
5023,32960
5024,32896
5025,33088
5026,33600
5027,34048
5028,33984
5029,33664
5030,33536
5031,33664
5032,33600
5033,33280
5034,32896
5035,32768
5036,32768
5037,33152
5038,33600
5039,33984
5040,34112
5041,33920
5042,33728
5043,33728
5044,33664
5045,33664
5046,33792
5047,33920
5048,33920
5049,33792
5050,33792
5051,34048
5052,34176
5053,33984
5054,33664
5055,33408
5056,33600
5057,33920
5058,33984
5059,33664
5060,33216
5061,33088
5062,33152
5063,33344
5064,33856
5065,34304
5066,34368
5067,33984
5068,33728
5069,33600
5070,33408
5071,33152
5072,33088
5073,33280
5074,33472
5075,33728
5076,33984
5077,33920
5078,33920
5079,34176
5080,34496
5081,34304
5082,33920
5083,33728
5084,33664
5085,33536
5086,33280
5087,33216
5088,33472
5089,33856
5090,33920
5091,33664
5092,33600
5093,33664
5094,33728
5095,33856
5096,33792
5097,33728
5098,33728
5099,33856
5100,33984
5101,33984
5102,33920
5103,33728
5104,33600
5105,33472
5106,33344
5107,33280
5108,33280
5109,33408
5110,33472
5111,33408
5112,33344
5113,33344
5114,33344
5115,33280
5116,33408
5117,33472
5118,33536
5119,33536
5120,33664
5121,33856
5122,33984
5123,33920
5124,33728
5125,33664
5126,33984
5127,34240
5128,34112
5129,33728
5130,33472
5131,33344
5132,33344
5133,33728
5134,34112
5135,34240
5136,34432
5137,35136
5138,36480
5139,38464
5140,40384
5141,40832
5142,39616
5143,37440
5144,35200
5145,33344
5146,31936
5147,31168
5148,30912
5149,30912
5150,30912
5151,31040
5152,31424
5153,32064
5154,32576
5155,32832
5156,32896
5157,32768
5158,32768
5159,33024
5160,33344
5161,33792
5162,33792
5163,33664
5164,33472
5165,33600
5166,34048
5167,34176
5168,34112
5169,33920
5170,33920
5171,33856
5172,33728
5173,33664
5174,33600
5175,33408
5176,33152
5177,32960
5178,32960
5179,33152
5180,33472
5181,33920
5182,34048
5183,33984
5184,33792
5185,33728
5186,33856
5187,33984
5188,34176
5189,34304
5190,34368
5191,34368
5192,34240
5193,34368
5194,34432
5195,34432
5196,34624
5197,34880
5198,35008
5199,34880
5200,34688
5201,34624
5202,34880
5203,35072
5204,35008
5205,34816
5206,34560
5207,34304
5208,34304
5209,34304
5210,34176
5211,33984
5212,33600
5213,33408
5214,33152
5215,32704
5216,32192
5217,32000
5218,32000
5219,32064
5220,32000
5221,31872
5222,31872
5223,31936
5224,31872
5225,32000
5226,32192
5227,32192
5228,32384
5229,32704
5230,33024
5231,33152
5232,33152
5233,33152
5234,33152
5235,33024
5236,32832
5237,32640
5238,32512
5239,32512
5240,32768
5241,33152
5242,33280
5243,33280
5244,33344
5245,33472
5246,33536
5247,33536
5248,33344
5249,33152
5250,33024
5251,33216
5252,33472
5253,33728
5254,33856
5255,33792
5256,33536
5257,33216
5258,33088
5259,33088
5260,33408
5261,33856
5262,34176
5263,33984
5264,33472
5265,33152
5266,33280
5267,33472
5268,33600
5269,33472
5270,33152
5271,32768
5272,32768
5273,33088
5274,33344
5275,33536
5276,33664
5277,33664
5278,33728
5279,33728
5280,33792
5281,33920
5282,33856
5283,33664
5284,33536
5285,33344
5286,33088
5287,32960
5288,32960
5289,33088
5290,33344
5291,33408
5292,33472
5293,33792
5294,34112
5295,34112
5296,33600
5297,33216
5298,33152
5299,33408
5300,33600
5301,33408
5302,33344
5303,33344
5304,33216
5305,33216
5306,33344
5307,33408
5308,33536
5309,33728
5310,33856
5311,33984
5312,34176
5313,34176
5314,33856
5315,33536
5316,33536
5317,33600
5318,33408
5319,33152
5320,33088
5321,33152
5322,33152
5323,33152
5324,33152
5325,33344
5326,33664
5327,34048
5328,34176
5329,33920
5330,33536
5331,33472
5332,33536
5333,33600
5334,33536
5335,33408
5336,33216
5337,33344
5338,33600
5339,33728
5340,33728
5341,33344
5342,33216
5343,33280
5344,33280
5345,33216
5346,33216
5347,33472
5348,33984
5349,34304
5350,34304
5351,34112
5352,33920
5353,33728
5354,33536
5355,33536
5356,34048
5357,34624
5358,35648
5359,37440
5360,39552
5361,40640
5362,39936
5363,38144
5364,36160
5365,34432
5366,32960
5367,31936
5368,31360
5369,31040
5370,30912
5371,31296
5372,31616
5373,32000
5374,32256
5375,32512
5376,32832
5377,32960
5378,33152
5379,33408
5380,33600
5381,33472
5382,33280
5383,33152
5384,33344
5385,33472
5386,33600
5387,33600
5388,33664
5389,33664
5390,33600
5391,33472
5392,33344
5393,33536
5394,33856
5395,33920
5396,33792
5397,33792
5398,33792
5399,33664
5400,33408
5401,33344
5402,33344
5403,33344
5404,33472
5405,33600
5406,33664
5407,33792
5408,34176
5409,34304
5410,34048
5411,33920
5412,33920
5413,34176
5414,34496
5415,34688
5416,34752
5417,34880
5418,35008
5419,34944
5420,34752
5421,34496
5422,34368
5423,34368
5424,34368
5425,34368
5426,34496
5427,34560
5428,34560
5429,34304
5430,33856
5431,33408
5432,33088
5433,33024
5434,33024
5435,32896
5436,32704
5437,32384
5438,32192
5439,32128
5440,32128
5441,32128
5442,32256
5443,32384
5444,32448
5445,32512
5446,32448
5447,32320
5448,32320
5449,32448
5450,32576
5451,32704
5452,32832
5453,32768
5454,32640
5455,32768
5456,33024
5457,33152
5458,33088
5459,33088
5460,33152
5461,33024
5462,33024
5463,33216
5464,33408
5465,33408
5466,33408
5467,33344
5468,33216
5469,33152
5470,33088
5471,33280
5472,33664
5473,33600
5474,33280
5475,33088
5476,33152
5477,33152
5478,32960
5479,33024
5480,33280
5481,33600
5482,33536
5483,33280
5484,32960
5485,32896
5486,32896
5487,33088
5488,33344
5489,33536
5490,33664
5491,33792
5492,33728
5493,33664
5494,33664
5495,33600
5496,33280
5497,33152
5498,33088
5499,33088
5500,33216
5501,33344
5502,33600
5503,33728
5504,33664
5505,33664
5506,33664
5507,33600
5508,33536
5509,33472
5510,33600
5511,33728
5512,33792
5513,33792
5514,33600
5515,33344
5516,33152
5517,33088
5518,33088
5519,33088
5520,33024
5521,32896
5522,33024
5523,33280
5524,33536
5525,33728
5526,33792
5527,33792
5528,33856
5529,33920
5530,33920
5531,33984
5532,33856
5533,33536
5534,33280
5535,33344
5536,33472
5537,33408
5538,33280
5539,33216
5540,33216
5541,33280
5542,33536
5543,33728
5544,33600
5545,33408
5546,33536
5547,33728
5548,33792
5549,33600
5550,33472
5551,33344
5552,33280
5553,33216
5554,33216
5555,33280
5556,33536
5557,33856
5558,34048
5559,33984
5560,33984
5561,34688
5562,36096
5563,37696
5564,39232
5565,40128
5566,39296
5567,37888
5568,36288
5569,34496
5570,33152
5571,32128
5572,31360
5573,30912
5574,30912
5575,31296
5576,31680
5577,32192
5578,32832
5579,33280
5580,33344
5581,33024
5582,32704
5583,32576
5584,32640
5585,32896
5586,33152
5587,33280
5588,33472
5589,33472
5590,33408
5591,33472
5592,33536
5593,33536
5594,33536
5595,33600
5596,33728
5597,33728
5598,33600
5599,33728
5600,33856
5601,33536
5602,33472
5603,33600
5604,33856
5605,33856
5606,33728
5607,33536
5608,33408
5609,33536
5610,33728
5611,33920
5612,33920
5613,34048
5614,34112
5615,34176
5616,34304
5617,34368
5618,34368
5619,34368
5620,34560
5621,34880
5622,34752
5623,34560
5624,34560
5625,34624
5626,34816
5627,34816
5628,34816
5629,34688
5630,34624
5631,34496
5632,34304
5633,33984
5634,33664
5635,33344
5636,33216
5637,33088
5638,32832
5639,32576
5640,32384
5641,32320
5642,32256
5643,32192
5644,32192
5645,32320
5646,32320
5647,32192
5648,32192
5649,32256
5650,32576
5651,32704
5652,32576
5653,32448
5654,32384
5655,32512
5656,32640
5657,32768
5658,32960
5659,33024
5660,32960
5661,33152
5662,33280
5663,33280
5664,33280
5665,33472
5666,33600
5667,33472
5668,33280
5669,33152
5670,33216
5671,33472
5672,33536
5673,33664
5674,33600
5675,33280
5676,32960
5677,32960
5678,33024
5679,33024
5680,33024
5681,33088
5682,33152
5683,33280
5684,33472
5685,33664
5686,33856
5687,33792
5688,33728
5689,33600
5690,33472
5691,33536
5692,33600
5693,33664
5694,33792
5695,33856
5696,33664
5697,33664
5698,33728
5699,33664
5700,33408
5701,33216
5702,33152
5703,33216
5704,33216
5705,33216
5706,33216
5707,33280
5708,33216
5709,33216
5710,33344
5711,33600
5712,33600
5713,33472
5714,33344
5715,33536
5716,33856
5717,33792
5718,33600
5719,33600
5720,33664
5721,33600
5722,33344
5723,33024
5724,32960
5725,33152
5726,33536
5727,33856
5728,34240
5729,34496
5730,34496
5731,34112
5732,33600
5733,33344
5734,33408
5735,33600
5736,33792
5737,34048
5738,34304
5739,34048
5740,33408
5741,32768
5742,32640
5743,32704
5744,33024
5745,33280
5746,33408
5747,33472
5748,33472
5749,33408
5750,33408
5751,33472
5752,33600
5753,33920
5754,34112
5755,33984
5756,33792
5757,33728
5758,33856
5759,33920
5760,33984
5761,34112
5762,34176
5763,33856
5764,33664
5765,33728
5766,33600
5767,33280
5768,33024
5769,33024
5770,33152
5771,33152
5772,32896
5773,32768
5774,32768
5775,32768
5776,33216
5777,33472
5778,33664
5779,33536
5780,33472
5781,33536
5782,33728
5783,33984
5784,34176
5785,34368
5786,34176
5787,33664
5788,33344
5789,33216
5790,33152
5791,33152
5792,33216
5793,33536
5794,33856
5795,33984
5796,34240
5797,35136
5798,36672
5799,38848
5800,40896
5801,41280
5802,40064
5803,38016
5804,35776
5805,33856
5806,31168
5807,30336
5808,30272
5809,30784
5810,31424
5811,31424
5812,31744
5813,32384
5814,32512
5815,32576
5816,32896
5817,33280
5818,33664
5819,33792
5820,33600
5821,33344
5822,33152
5823,33088
5824,33088
5825,33152
5826,33152
5827,33152
5828,33472
5829,33536
5830,33536
5831,33536
5832,33728
5833,33728
5834,33856
5835,34112
5836,34240
5837,34176
5838,33984
5839,33792
5840,33728
5841,33728
5842,33664
5843,33792
5844,34176
5845,34368
5846,34176
5847,33792
5848,33600
5849,33600
5850,33664
5851,33856
5852,34112
5853,34432
5854,34688
5855,34944
5856,35136
5857,35200
5858,35136
5859,34688
5860,34240
5861,34176
5862,34240
5863,34880
5864,35072
5865,34816
5866,34688
5867,33984
5868,33792
5869,33664
5870,33536
5871,33344
5872,33216
5873,33024
5874,32960
5875,32768
5876,32512
5877,32448
5878,32512
5879,32512
5880,32320
5881,32192
5882,32064
5883,32000
5884,32000
5885,32192
5886,32384
5887,32640
5888,32704
5889,32704
5890,32704
5891,32832
5892,32896
5893,32768
5894,32768
5895,33024
5896,32960
5897,33216
5898,33152
5899,33280
5900,33536
5901,33536
5902,33408
5903,33216
5904,33280
5905,33344
5906,33216
5907,32960
5908,32832
5909,32960
5910,33280
5911,33536
5912,33600
5913,33728
5914,33728
5915,33472
5916,33344
5917,33216
5918,33408
5919,33728
5920,33856
5921,33792
5922,33600
5923,33408
5924,33280
5925,33280
5926,33408
5927,33600
5928,33792
5929,33792
5930,33664
5931,33600
5932,33472
5933,33472
5934,33664
5935,33792
5936,33728
5937,33280
5938,33088
5939,33024
5940,33216
5941,33536
5942,33728
5943,33728
5944,33792
5945,33792
5946,33600
5947,33344
5948,33152
5949,33024
5950,33216
5951,33152
5952,33472
5953,33664
5954,33856
5955,33856
5956,33664
5957,33536
5958,33664
5959,33920
5960,34112
5961,33920
5962,33536
5963,33344
5964,33344
5965,33344
5966,33344
5967,33408
5968,33600
5969,33792
5970,33792
5971,33728
5972,33408
5973,33280
5974,33280
5975,33536
5976,33600
5977,33472
5978,33408
5979,33536
5980,33792
5981,33920
5982,33856
5983,33600
5984,33472
5985,33472
5986,33408
5987,33472
5988,33600
5989,33792
5990,33856
5991,33920
5992,33920
5993,33792
5994,33664
5995,33472
5996,33280
5997,33216
5998,33280
5999,33472
6000,33600
6001,33600
6002,33920
6003,33856
6004,33536
6005,33280
6006,33216
6007,33216
6008,33152
6009,33024
6010,32960
6011,33024
6012,33024
6013,33152
6014,33280
6015,33536
6016,33728
6017,33728
6018,33792
6019,33792
6020,33856
6021,33792
6022,33728
6023,33664
6024,33728
6025,33792
6026,33920
6027,34048
6028,34112
6029,34240
6030,34176
6031,34112
6032,34816
6033,36032
6034,37888
6035,40640
6036,40768
6037,40832
6038,39040
6039,36672
6040,33856
6041,33472
6042,31616
6043,30912
6044,30592
6045,30848
6046,31296
6047,31744
6048,32000
6049,32320
6050,32576
6051,32832
6052,33216
6053,33408
6054,33280
6055,33152
6056,33152
6057,33472
6058,33600
6059,33472
6060,33600
6061,33984
6062,34496
6063,34624
6064,34432
6065,34176
6066,34048
6067,33920
6068,33664
6069,33600
6070,33792
6071,33792
6072,33920
6073,33984
6074,33984
6075,34112
6076,34432
6077,34880
6078,35072
6079,35008
6080,34816
6081,34688
6082,34496
6083,34496
6084,34624
6085,34688
6086,34624
6087,34560
6088,34624
6089,34752
6090,35392
6091,35520
6092,36096
6093,35968
6094,35712
6095,35520
6096,35520
6097,35648
6098,35712
6099,35584
6100,35456
6101,35520
6102,35392
6103,35072
6104,34880
6105,34624
6106,34496
6107,34368
6108,34240
6109,33920
6110,33536
6111,33280
6112,33216
6113,33280
6114,33280
6115,33216
6116,33088
6117,32960
6118,32832
6119,32768
6120,32768
6121,32768
6122,33024
6123,33280
6124,33344
6125,33280
6126,33216
6127,33600
6128,33856
6129,33856
6130,33728
6131,33472
6132,33408
6133,33664
6134,33984
6135,34112
6136,34112
6137,33728
6138,33408
6139,33408
6140,33664
6141,33856
6142,34176
6143,34304
6144,34176
6145,33856
6146,33792
6147,33920
6148,34112
6149,34176
6150,34176
6151,34240
6152,34240
6153,34176
6154,34048
6155,34112
6156,34176
6157,34112
6158,34048
6159,34048
6160,34048
6161,33984
6162,33792
6163,33728
6164,33728
6165,33728
6166,33856
6167,34048
6168,34304
6169,34368
6170,34304
6171,34112
6172,33984
6173,33792
6174,33600
6175,33664
6176,33792
6177,33920
6178,33984
6179,34048
6180,34112
6181,34112
6182,34048
6183,34048
6184,34048
6185,34048
6186,34176
6187,34176
6188,34240
6189,34304
6190,34304
6191,33984
6192,33472
6193,33088
6194,33024
6195,33408
6196,33408
6197,33536
6198,33536
6199,33664
6200,33792
6201,33856
6202,33920
6203,33984
6204,33984
6205,33920
6206,33920
6207,34112
6208,34368
6209,34432
6210,33984
6211,33536
6212,33280
6213,33408
6214,33728
6215,33792
6216,33664
6217,33664
6218,33728
6219,33728
6220,33536
6221,33408
6222,33280
6223,33344
6224,33536
6225,33792
6226,33600
6227,33280
6228,33216
6229,33472
6230,34048
6231,34048
6232,34432
6233,34240
6234,33856
6235,33408
6236,33088
6237,33024
6238,33152
6239,33280
6240,33344
6241,33344
6242,33408
6243,33472
6244,33728
6245,33920
6246,33856
6247,33472
6248,33216
6249,33152
6250,33216
6251,33408
6252,33728
6253,33792
6254,33600
6255,33408
6256,33152
6257,33280
6258,33536
6259,33728
6260,33728
6261,33600
6262,33856
6263,34560
6264,35776
6265,37888
6266,39232
6267,39936
6268,39104
6269,37376
6270,35520
6271,33984
6272,32576
6273,31424
6274,30592
6275,30400
6276,30720
6277,31360
6278,32064
6279,32512
6280,32448
6281,32384
6282,32320
6283,32576
6284,32896
6285,32960
6286,32896
6287,32768
6288,32640
6289,32768
6290,33152
6291,33280
6292,32960
6293,32704
6294,32640
6295,32768
6296,33024
6297,33472
6298,33792
6299,33728
6300,33216
6301,32960
6302,32832
6303,32960
6304,33024
6305,33024
6306,32960
6307,33088
6308,33280
6309,33536
6310,33600
6311,33536
6312,33472
6313,33472
6314,33472
6315,33344
6316,33408
6317,33600
6318,33792
6319,33792
6320,33792
6321,33792
6322,34048
6323,34304
6324,34496
6325,34560
6326,34432
6327,34240
6328,34048
6329,33856
6330,33664
6331,33600
6332,33664
6333,33856
6334,33856
6335,33344
6336,33216
6337,32768
6338,32512
6339,32448
6340,32640
6341,32832
6342,32768
6343,32320
6344,31808
6345,31680
6346,31808
6347,31872
6348,32000
6349,32192
6350,32320
6351,32192
6352,31936
6353,31872
6354,31872
6355,31936
6356,31936
6357,32064
6358,32320
6359,32576
6360,32704
6361,32704
6362,32768
6363,32704
6364,32640
6365,32704
6366,33152
6367,33472
6368,33280
6369,32896
6370,32512
6371,32384
6372,32448
6373,32768
6374,33024
6375,32960
6376,32768
6377,32640
6378,32640
6379,32640
6380,32640
6381,32704
6382,32704
6383,32832
6384,33024
6385,33152
6386,33088
6387,33088
6388,33280
6389,33472
6390,33408
6391,33280
6392,33216
6393,33216
6394,33152
6395,33152
6396,33280
6397,33536
6398,33856
6399,34048
6400,33984
6401,33536
6402,32960
6403,32448
6404,32384
6405,32768
6406,32832
6407,32832
6408,32576
6409,32448
6410,32640
6411,32896
6412,32960
6413,33280
6414,33728
6415,33920
6416,33792
6417,33664
6418,33472
6419,33344
6420,33216
6421,33216
6422,33472
6423,33792
6424,33984
6425,33984
6426,33856
6427,33664
6428,33600
6429,33792
6430,34048
6431,34048
6432,33920
6433,33728
6434,33664
6435,33536
6436,33344
6437,33280
6438,33408
6439,33600
6440,33920
6441,33984
6442,33792
6443,33472
6444,33344
6445,33344
6446,33280
6447,33280
6448,33472
6449,33792
6450,34048
6451,34176
6452,34304
6453,34304
6454,34176
6455,33664
6456,33344
6457,33088
6458,32896
6459,32896
6460,33344
6461,33472
6462,33536
6463,33408
6464,33344
6465,33408
6466,33664
6467,33984
6468,34176
6469,34112
6470,33856
6471,33728
6472,33792
6473,33856
6474,33856
6475,33792
6476,33920
6477,34112
6478,34240
6479,34240
6480,33984
6481,33664
6482,33792
6483,34624
6484,36288
6485,38464
6486,40576
6487,41024
6488,39808
6489,37824
6490,35520
6491,33728
6492,32384
6493,31616
6494,31360
6495,31680
6496,31808
6497,31872
6498,32000
6499,32256
6500,32512
6501,32832
6502,33152
6503,33344
6504,33216
6505,32960
6506,32832
6507,32896
6508,33152
6509,33536
6510,33920
6511,33984
6512,34048
6513,33984
6514,33792
6515,33728
6516,33792
6517,33920
6518,33984
6519,33792
6520,33664
6521,33600
6522,33664
6523,33792
6524,34048
6525,34112
6526,33984
6527,33856
6528,33728
6529,33600
6530,33472
6531,33344
6532,33408
6533,33536
6534,33792
6535,34112
6536,34368
6537,34624
6538,34816
6539,34688
6540,34496
6541,34560
6542,34752
6543,34752
6544,34688
6545,34688
6546,34880
6547,35328
6548,35648
6549,35264
6550,34752
6551,34496
6552,34496
6553,34368
6554,34112
6555,33856
6556,33856
6557,34048
6558,33920
6559,33280
6560,32512
6561,32320
6562,32256
6563,32320
6564,32384
6565,32320
6566,32192
6567,32000
6568,31872
6569,32256
6570,32704
6571,32768
6572,32512
6573,32320
6574,32384
6575,32576
6576,32640
6577,32576
6578,32640
6579,32832
6580,33088
6581,33344
6582,33664
6583,33664
6584,33344
6585,33088
6586,33088
6587,33152
6588,33280
6589,33344
6590,33280
6591,33280
6592,33344
6593,33280
6594,33344
6595,33280
6596,33280
6597,33472
6598,33600
6599,33344
6600,33152
6601,33152
6602,33088
6603,33024
6604,32960
6605,33024
6606,33280
6607,33536
6608,33536
6609,33408
6610,33280
6611,33280
6612,33408
6613,33600
6614,33920
6615,33984
6616,33856
6617,33664
6618,33408
6619,33344
6620,33472
6621,33664
6622,33600
6623,33472
6624,33216
6625,33088
6626,33216
6627,33344
6628,33536
6629,33792
6630,34112
6631,34176
6632,34176
6633,34048
6634,33792
6635,33408
6636,33408
6637,33536
6638,33600
6639,33536
6640,33408
6641,33344
6642,33280
6643,33088
6644,32960
6645,33088
6646,33344
6647,33472
6648,33344
6649,33344
6650,33472
6651,33664
6652,33856
6653,33792
6654,33536
6655,33408
6656,33472
6657,33600
6658,33664
6659,33728
6660,33600
6661,33472
6662,33472
6663,33472
6664,33536
6665,33600
6666,33600
6667,33664
6668,33728
6669,33728
6670,33600
6671,33472
6672,33280
6673,33088
6674,32896
6675,32896
6676,33088
6677,33216
6678,33280
6679,33152
6680,33088
6681,33088
6682,33216
6683,33472
6684,33792
6685,33920
6686,33664
6687,33472
6688,33344
6689,33472
6690,33664
6691,34048
6692,34304
6693,34176
6694,33664
6695,33216
6696,33024
6697,33216
6698,33472
6699,33664
6700,33856
6701,34048
6702,34688
6703,35648
6704,37120
6705,39360
6706,40960
6707,40960
6708,39232
6709,36864
6710,34560
6711,32704
6712,31488
6713,30784
6714,30592
6715,30912
6716,31488
6717,32128
6718,32704
6719,33216
6720,33280
6721,33088
6722,32896
6723,32768
6724,32768
6725,32960
6726,33152
6727,33216
6728,33280
6729,33472
6730,33792
6731,33856
6732,33792
6733,33728
6734,33792
6735,33984
6736,33856
6737,33536
6738,33280
6739,33152
6740,33344
6741,33536
6742,33536
6743,33472
6744,33536
6745,33472
6746,33600
6747,33856
6748,34240
6749,34560
6750,34496
6751,34176
6752,33792
6753,33728
6754,33920
6755,34176
6756,34304
6757,34432
6758,34816
6759,35264
6760,35456
6761,35264
6762,35008
6763,34944
6764,34944
6765,34880
6766,34816
6767,34880
6768,34944
6769,35072
6770,35200
6771,35008
6772,34624
6773,34176
6774,33920
6775,33792
6776,33664
6777,33472
6778,33152
6779,32960
6780,32896
6781,32832
6782,32832
6783,32832
6784,32832
6785,32768
6786,32448
6787,32128
6788,32000
6789,32064
6790,32192
6791,32320
6792,32768
6793,33152
6794,33216
6795,32960
6796,32576
6797,32320
6798,32320
6799,32640
6800,32896
6801,32960
6802,33152
6803,33216
6804,33280
6805,33152
6806,33088
6807,33024
6808,32960
6809,33088
6810,33216
6811,33408
6812,33472
6813,33536
6814,33600
6815,33600
6816,33664
6817,33984
6818,34240
6819,33984
6820,33600
6821,33344
6822,33344
6823,33344
6824,33216
6825,33216
6826,33216
6827,33088
6828,33152
6829,33408
6830,33728
6831,33792
6832,33600
6833,33280
6834,33280
6835,33344
6836,33344
6837,33344
6838,33472
6839,33536
6840,33536
6841,33536
6842,33792
6843,33984
6844,34048
6845,33728
6846,33536
6847,33408
6848,33408
6849,33472
6850,33472
6851,33344
6852,33152
6853,33152
6854,33216
6855,33216
6856,33216
6857,33408
6858,33792
6859,33920
6860,33856
6861,33536
6862,33216
6863,33152
6864,33280
6865,33344
6866,33216
6867,33216
6868,33472
6869,33664
6870,33536
6871,33344
6872,33280
6873,33280
6874,33408
6875,33536
6876,33600
6877,33792
6878,33792
6879,33664
6880,33344
6881,33344
6882,33472
6883,33664
6884,33792
6885,33664
6886,33344
6887,33152
6888,33024
6889,33088
6890,33408
6891,33536
6892,33536
6893,33472
6894,33344
6895,33408
6896,33472
6897,33600
6898,33728
6899,33856
6900,33792
6901,33664
6902,33536
6903,33344
6904,33280
6905,33088
6906,32960
6907,32960
6908,33280
6909,33856
6910,34176
6911,33920
6912,33472
6913,33216
6914,33152
6915,32960
6916,32960
6917,33152
6918,33408
6919,33408
6920,33216
6921,33344
6922,33536
6923,33728
6924,33792
6925,33600
6926,33344
6927,33088
6928,33088
6929,33280
6930,33600
6931,33664
6932,33728
6933,33792
6934,33664
6935,33472
6936,33472
6937,33664
6938,34048
6939,34368
6940,34496
6941,34432
6942,34944
6943,36416
6944,38720
6945,40448
6946,40576
6947,38976
6948,36672
6949,34560
6950,32256
6951,31360
6952,30592
6953,30336
6954,30464
6955,30848
6956,31488
6957,32192
6958,32640
6959,32704
6960,32512
6961,32256
6962,32320
6963,32640
6964,33024
6965,33216
6966,33216
6967,33024
6968,32896
6969,32832
6970,33024
6971,33280
6972,33280
6973,33280
6974,33280
6975,33216
6976,33344
6977,33408
6978,33344
6979,33216
6980,33216
6981,33344
6982,33472
6983,33664
6984,33728
6985,33856
6986,33856
6987,33728
6988,33472
6989,33408
6990,33472
6991,33664
6992,33984
6993,34112
6994,34048
6995,33920
6996,34112
6997,34432
6998,34688
6999,34688
7000,34688
7001,34688
7002,34496
7003,34240
7004,34240
7005,34432
7006,34624
7007,34816
7008,34752
7009,34432
7010,34112
7011,34048
7012,34432
7013,34688
7014,34496
7015,33600
7016,33280
7017,33152
7018,33216
7019,33280
7020,32832
7021,32320
7022,31936
7023,31936
7024,32192
7025,32640
7026,33024
7027,33024
7028,32768
7029,32512
7030,32256
7031,32064
7032,32192
7033,32320
7034,32384
7035,32256
7036,32256
7037,32576
7038,33088
7039,33408
7040,33280
7041,33152
7042,33216
7043,33152
7044,33152
7045,33088
7046,33152
7047,33088
7048,33024
7049,33088
7050,33280
7051,33408
7052,33472
7053,33728
7054,33856
7055,33600
7056,33280
7057,33088
7058,33216
7059,33408
7060,33472
7061,33472
7062,33664
7063,33728
7064,33536
7065,33408
7066,33280
7067,33280
7068,33280
7069,33280
7070,33600
7071,33664
7072,33472
7073,33216
7074,33152
7075,33280
7076,33280
7077,33344
7078,33600
7079,33792
7080,33728
7081,33536
7082,33152
7083,32960
7084,33088
7085,33344
7086,33408
7087,33344
7088,33344
7089,33344
7090,33408
7091,33344
7092,33472
7093,33536
7094,33408
7095,33344
7096,33472
7097,33664
7098,33728
7099,33664
7100,33408
7101,33088
7102,32768
7103,32704
7104,32960
7105,33408
7106,33536
7107,33536
7108,33536
7109,33472
7110,33408
7111,33472
7112,33600
7113,33664
7114,33728
7115,33664
7116,33536
7117,33472
7118,33664
7119,33792
7120,33600
7121,33536
7122,33664
7123,33600
7124,33536
7125,33536
7126,33536
7127,33472
7128,33152
7129,33024
7130,33088
7131,33344
7132,33664
7133,33664
7134,33344
7135,33280
7136,33408
7137,33536
7138,33472
7139,33408
7140,33088
7141,32896
7142,32832
7143,32960
7144,33216
7145,33344
7146,33344
7147,33152
7148,33024
7149,32960
7150,33024
7151,33280
7152,33536
7153,33472
7154,33216
7155,33152
7156,33216
7157,33408
7158,33728
7159,34048
7160,34176
7161,33984
7162,33664
7163,33600
7164,34112
7165,35584
7166,37760
7167,40000
7168,40832
7169,39936
7170,37952
7171,35776
7172,33728
7173,32064
7174,30912
7175,30272
7176,30208
7177,30592
7178,30912
7179,31424
7180,32000
7181,32448
7182,32768
7183,33024
7184,33472
7185,33792
7186,33664
7187,33280
7188,32960
7189,33024
7190,33088
7191,33024
7192,32832
7193,32896
7194,33152
7195,33344
7196,33344
7197,33280
7198,33152
7199,33216
7200,33472
7201,33600
7202,33536
7203,33408
7204,33344
7205,33216
7206,33088
7207,33088
7208,33216
7209,33472
7210,33792
7211,34048
7212,34240
7213,34176
7214,34048
7215,33984
7216,33920
7217,33920
7218,34048
7219,34304
7220,34368
7221,34304
7222,34304
7223,34560
7224,34624
7225,34496
7226,34432
7227,34432
7228,34432
7229,34304
7230,34240
7231,34176
7232,34304
7233,34432
7234,34368
7235,34176
7236,34048
7237,34240
7238,34304
7239,33920
7240,33344
7241,32896
7242,32640
7243,32512
7244,32384
7245,32256
7246,32192
7247,32128
7248,32000
7249,32000
7250,32192
7251,32512
7252,32512
7253,32384
7254,32384
7255,32640
7256,32832
7257,32768
7258,32640
7259,32512
7260,32384
7261,32320
7262,32512
7263,32768
7264,32896
7265,33088
7266,33344
7267,33536
7268,33792
7269,33920
7270,33856
7271,33472
7272,33088
7273,33152
7274,33408
7275,33536
7276,33536
7277,33600
7278,33472
7279,32960
7280,32704
7281,32640
7282,32960
7283,33152
7284,33152
7285,33152
7286,33152
7287,33280
7288,33536
7289,33664
7290,33600
7291,33472
7292,33472
7293,33408
7294,33408
7295,33600
7296,33728
7297,33792
7298,33728
7299,33728
7300,33792
7301,33856
7302,33664
7303,33408
7304,33408
7305,33344
7306,33280
7307,33216
7308,33408
7309,33536
7310,33408
7311,33280
7312,33344
7313,33472
7314,33600
7315,33664
7316,33536
7317,33280
7318,33152
7319,33088
7320,33216
7321,33472
7322,33664
7323,33664
7324,33792
7325,33984
7326,34176
7327,34048
7328,33856
7329,33920
7330,34112
7331,34048
7332,33856
7333,33600
7334,33408
7335,33408
7336,33408
7337,33344
7338,33344
7339,33216
7340,33216
7341,33216
7342,33280
7343,33216
7344,33152
7345,33152
7346,33280
7347,33536
7348,33920
7349,34112
7350,34112
7351,33792
7352,33408
7353,33216
7354,33152
7355,33280
7356,33408
7357,33600
7358,33728
7359,33792
7360,33600
7361,33216
7362,32832
7363,32832
7364,33088
7365,33408
7366,33664
7367,33856
7368,33984
7369,33920
7370,33792
7371,33728
7372,33664
7373,33600
7374,33536
7375,33600
7376,33792
7377,33920
7378,33856
7379,33920
7380,34560
7381,35840
7382,37824
7383,40256
7384,41216
7385,40128
7386,38272
7387,35712
7388,33536
7389,32128
7390,31296
7391,30848
7392,30784
7393,31040
7394,31424
7395,31936
7396,32448
7397,32704
7398,32576
7399,32576
7400,32832
7401,32896
7402,32960
7403,33280
7404,33728
7405,33856
7406,33664
7407,33472
7408,33536
7409,33472
7410,33280
7411,33280
7412,33344
7413,33344
7414,33408
7415,33600
7416,33664
7417,33536
7418,33408
7419,33408
7420,33728
7421,33856
7422,33984
7423,33984
7424,33856
7425,33984
7426,34176
7427,34304
7428,34240
7429,34048
7430,33856
7431,33664
7432,33728
7433,33856
7434,34048
7435,34496
7436,34752
7437,34688
7438,34496
7439,34368
7440,34368
7441,34560
7442,34880
7443,35072
7444,34944
7445,34880
7446,34944
7447,34752
7448,34432
7449,34240
7450,34240
7451,34432
7452,34432
7453,34112
7454,33664
7455,33152
7456,33024
7457,33088
7458,33152
7459,32960
7460,32640
7461,32512
7462,32512
7463,32320
7464,32064
7465,31872
7466,31680
7467,31680
7468,31808
7469,32000
7470,32448
7471,32960
7472,33472
7473,33664
7474,33344
7475,32832
7476,32640
7477,32640
7478,32640
7479,32512
7480,32512
7481,32704
7482,33152
7483,33600
7484,33792
7485,33792
7486,33536
7487,33344
7488,33152
7489,33088
7490,33280
7491,33344
7492,33472
7493,33600
7494,33600
7495,33536
7496,33664
7497,33600
7498,33344
7499,33216
7500,33216
7501,33344
7502,33472
7503,33472
7504,33600
7505,33856
7506,33920
7507,33728
7508,33408
7509,33280
7510,33472
7511,33664
7512,33536
7513,33216
7514,32960
7515,33216
7516,33728
7517,33728
7518,33408
7519,33088
7520,32896
7521,32896
7522,33088
7523,33280
7524,33472
7525,33664
7526,33728
7527,33728
7528,33792
7529,33856
7530,33856
7531,33664
7532,33536
7533,33472
7534,33472
7535,33600
7536,33792
7537,33792
7538,33536
7539,33472
7540,33856
7541,34176
7542,34048
7543,33472
7544,33088
7545,33024
7546,33088
7547,33344
7548,33408
7549,33280
7550,33088
7551,32960
7552,33024
7553,33216
7554,33472
7555,33600
7556,33472
7557,33536
7558,33664
7559,33856
7560,34112
7561,34240
7562,34112
7563,33920
7564,33792
7565,33856
7566,34048
7567,34240
7568,33984
7569,33664
7570,33600
7571,33792
7572,33728
7573,33600
7574,33600
7575,33600
7576,33536
7577,33408
7578,33216
7579,33088
7580,32704
7581,32576
7582,32576
7583,32832
7584,33088
7585,33344
7586,33600
7587,33728
7588,33856
7589,34112
7590,34176
7591,34112
7592,33984
7593,34112
7594,33984
7595,33408
7596,33152
7597,33088
7598,33216
7599,33472
7600,33728
7601,33792
7602,34048
7603,34624
7604,35584
7605,37120
7606,39168
7607,41088
7608,41472
7609,40000
7610,37184
7611,35392
7612,33664
7613,32192
7614,31104
7615,30464
7616,30464
7617,30656
7618,30912
7619,31168
7620,31616
7621,32128
7622,32576
7623,32960
7624,33088
7625,33216
7626,33280
7627,33472
7628,33792
7629,33984
7630,33920
7631,33856
7632,33664
7633,33792
7634,34112
7635,34176
7636,33920
7637,33600
7638,33280
7639,32896
7640,32704
7641,32640
7642,32832
7643,33152
7644,33536
7645,33472
7646,33600
7647,34112
7648,34432
7649,34560
7650,34496
7651,34432
7652,34496
7653,34688
7654,34752
7655,34816
7656,34496
7657,34112
7658,33984
7659,34048
7660,34112
7661,34048
7662,34176
7663,34432
7664,34816
7665,34752
7666,34688
7667,34624
7668,34560
7669,34560
7670,34624
7671,34688
7672,34688
7673,34624
7674,34368
7675,34112
7676,33920
7677,33664
7678,33536
7679,33408
7680,33344
7681,33152
7682,32192
7683,31872
7684,31936
7685,31872
7686,32384
7687,32448
7688,32320
7689,32064
7690,31808
7691,31744
7692,31808
7693,32128
7694,32576
7695,32960
7696,33152
7697,32960
7698,32768
7699,32768
7700,32768
7701,33152
7702,33024
7703,32960
7704,33152
7705,33280
7706,33280
7707,33152
7708,33024
7709,33088
7710,33344
7711,33728
7712,33792
7713,33600
7714,33408
7715,33408
7716,33472
7717,33472
7718,33344
7719,33344
7720,33280
7721,33344
7722,33728
7723,33728
7724,33600
7725,33536
7726,33536
7727,33536
7728,33408
7729,33152
7730,32960
7731,33216
7732,33536
7733,33728
7734,33536
7735,33408
7736,33280
7737,33600
7738,33664
7739,33408
7740,33280
7741,33216
7742,33280
7743,33408
7744,33600
7745,33664
7746,33536
7747,33280
7748,33152
7749,33408
7750,33344
7751,33664
7752,33856
7753,33920
7754,33920
7755,33856
7756,33664
7757,33024
7758,33088
7759,33344
7760,33472
7761,33536
7762,33664
7763,33728
7764,33472
7765,33088
7766,32960
7767,33216
7768,33536
7769,33728
7770,33664
7771,33600
7772,33728
7773,33792
7774,33792
7775,33664
7776,33280
7777,32960
7778,32960
7779,33152
7780,33280
7781,33344
7782,33344
7783,33408
7784,33536
7785,33600
7786,33600
7787,33600
7788,33536
7789,33472
7790,33408
7791,33664
7792,33536
7793,33216
7794,32832
7795,32768
7796,32960
7797,33024
7798,33024
7799,33024
7800,33024
7801,33280
7802,33472
7803,33408
7804,33152
7805,33152
7806,33408
7807,33728
7808,33984
7809,33792
7810,33664
7811,33856
7812,33792
7813,33536
7814,33280
7815,33152
7816,33472
7817,34304
7818,35712
7819,38464
7820,38528
7821,40704
7822,39744
7823,38016
7824,35712
7825,35584
7826,32512
7827,31424
7828,30848
7829,30848
7830,30848
7831,31552
7832,31680
7833,31872
7834,32256
7835,32512
7836,32704
7837,32832
7838,33152
7839,33728
7840,33728
7841,33728
7842,33472
7843,33152
7844,32960
7845,32768
7846,32768
7847,33280
7848,33728
7849,33920
7850,33792
7851,33600
7852,33280
7853,33024
7854,33024
7855,33024
7856,33664
7857,33920
7858,33984
7859,34112
7860,34048
7861,34240
7862,34240
7863,34240
7864,34112
7865,33792
7866,33600
7867,33664
7868,33792
7869,33984
7870,34176
7871,34496
7872,34560
7873,34496
7874,34432
7875,34368
7876,34176
7877,34112
7878,34112
7879,34176
7880,34368
7881,34816
7882,35200
7883,35392
7884,35264
7885,34752
7886,34176
7887,33920
7888,33920
7889,33984
7890,33856
7891,33664
7892,33600
7893,33408
7894,32832
7895,32704
7896,32384
7897,32384
7898,32448
7899,32576
7900,32768
7901,32832
7902,32960
7903,32832
7904,32448
7905,32320
7906,32576
7907,33216
7908,33344
7909,32640
7910,32512
7911,32000
7912,31936
7913,32064
7914,32448
7915,32768
7916,32960
7917,33088
7918,33216
7919,33216
7920,33216
7921,33280
7922,33472
7923,33664
7924,34176
7925,34176
7926,34176
7927,33856
7928,33472
7929,32960
7930,32896
7931,32640
7932,32832
7933,32960
7934,33280
7935,33536
7936,33792
7937,34048
7938,34048
7939,33856
7940,33600
7941,33344
7942,33280
7943,33408
7944,33920
7945,33856
7946,34048
7947,33664
7948,33344
7949,33408
7950,33664
7951,33600
7952,33408
7953,33280
7954,33216
7955,33280
7956,33344
7957,33600
7958,33984
7959,34176
7960,34048
7961,33728
7962,33536
7963,33536
7964,33728
7965,33728
7966,33792
7967,33664
7968,33600
7969,33600
7970,33728
7971,33984
7972,34112
7973,34112
7974,33920
7975,33472
7976,33216
7977,33216
7978,33280
7979,33472
7980,33536
7981,33536
7982,33472
7983,33408
7984,33408
7985,33408
7986,33344
7987,33536
7988,33856
7989,33920
7990,33856
7991,33920
7992,33984
7993,33664
7994,33472
7995,33664
7996,33920
7997,33728
7998,33280
7999,32960
8000,32960
8001,33216
8002,33664
8003,34304
8004,34752
8005,34816
8006,34560
8007,34048
8008,33536
8009,33280
8010,33216
8011,33152
8012,33216
8013,33472
8014,33664
8015,33792
8016,33856
8017,33920
8018,34048
8019,34368
8020,35072
8021,36352
8022,38144
8023,39744
8024,40256
8025,39360
8026,37760
8027,35840
8028,34176
8029,32384
8030,32320
8031,30912
8032,30848
8033,31232
8034,31744
8035,32384
8036,32896
8037,33152
8038,33408
8039,33536
8040,33600
8041,33344
8042,32896
8043,32640
8044,32768
8045,33024
8046,33344
8047,33664
8048,33664
8049,33472
8050,33408
8051,33536
8052,33600
8053,33792
8054,33920
8055,34048
8056,34240
8057,34240
8058,33792
8059,33344
8060,33280
8061,33408
8062,33856
8063,34240
8064,34368
8065,34112
8066,34112
8067,34176
8068,34176
8069,34048
8070,33984
8071,34048
8072,34176
8073,34176
8074,34176
8075,34240
8076,34496
8077,34880
8078,35072
8079,34880
8080,34560
8081,34432
8082,34432
8083,34432
8084,34624
8085,34624
8086,34816
8087,34880
8088,34752
8089,34368
8090,33984
8091,33664
8092,33664
8093,33536
8094,33472
8095,33664
8096,33792
8097,33664
8098,33280
8099,32960
8100,32768
8101,32576
8102,32320
8103,32256
8104,32448
8105,32512
8106,32576
8107,32512
8108,32448
8109,32448
8110,32448
8111,32512
8112,32704
8113,32896
8114,33024
8115,33280
8116,33664
8117,33728
8118,33536
8119,33280
8120,33280
8121,33408
8122,33344
8123,33216
8124,33152
8125,33088
8126,33088
8127,33408
8128,33920
8129,34048
8130,33664
8131,33344
8132,33280
8133,33408
8134,33600
8135,33792
8136,33792
8137,33792
8138,33728
8139,33728
8140,33664
8141,33600
8142,33536
8143,33664
8144,33728
8145,33728
8146,33728
8147,33728
8148,33664
8149,33536
8150,33472
8151,33664
8152,33792
8153,33728
8154,33344
8155,33280
8156,33216
8157,33152
8158,33152
8159,33280
8160,33344
8161,33344
8162,33472
8163,33728
8164,33792
8165,33664
8166,33600
8167,33664
8168,33728
8169,33728
8170,33664
8171,33792
8172,33984
8173,34048
8174,34112
8175,34112
8176,34112
8177,34240
8178,34240
8179,33984
8180,33536
8181,33216
8182,33152
8183,33408
8184,33664
8185,33728
8186,33664
8187,33728
8188,33920
8189,34112
8190,34112
8191,33984
8192,33792
8193,33792
8194,33792
8195,33728
8196,33664
8197,33536
8198,33408
8199,33216
8200,33216
8201,33344
8202,33472
8203,33536
8204,33920
8205,33920
8206,34752
8207,34816
8208,34688
8209,34368
8210,33856
8211,33280
8212,32960
8213,33088
8214,33408
8215,33728
8216,33792
8217,33984
8218,34624
8219,35904
8220,37888
8221,40064
8222,40896
8223,39872
8224,37888
8225,35904
8226,34304
8227,33024
8228,31936
8229,31296
8230,31040
8231,31296
8232,31808
8233,32512
8234,33152
8235,33280
8236,33088
8237,32896
8238,32896
8239,33280
8240,33536
8241,33792
8242,33792
8243,33536
8244,33024
8245,32896
8246,32896
8247,33216
8248,33408
8249,33472
8250,33600
8251,33728
8252,33792
8253,33856
8254,33984
8255,34048
8256,33920
8257,33856
8258,33792
8259,33984
8260,34048
8261,33984
8262,33728
8263,33472
8264,33280
8265,33344
8266,33600
8267,33920
8268,34048
8269,34112
8270,34304
8271,34496
8272,34432
8273,34240
8274,34112
8275,34112
8276,34304
8277,34496
8278,34880
8279,35200
8280,35136
8281,35072
8282,35136
8283,35264
8284,35264
8285,35072
8286,34816
8287,34624
8288,34560
8289,34496
8290,34048
8291,33600
8292,33216
8293,33024
8294,33024
8295,33088
8296,33024
8297,32768
8298,32576
8299,32768
8300,32768
8301,32512
8302,32256
8303,32064
8304,32064
8305,32192
8306,32384
8307,32512
8308,32512
8309,32448
8310,32448
8311,32448
8312,32640
8313,32960
8314,33280
8315,33344
8316,33472
8317,33472
8318,33600
8319,33600
8320,33472
8321,33344
8322,33472
8323,33600
8324,33664
8325,33664
8326,33472
8327,33344
8328,33344
8329,33280
8330,33152
8331,33216
8332,33344
8333,33408
8334,33344
8335,33216
8336,32960
8337,32832
8338,32832
8339,33088
8340,33344
8341,33536
8342,33856
8343,34112
8344,33984
8345,33792
8346,33408
8347,33216
8348,33088
8349,33216
8350,33472
8351,33792
8352,33920
8353,33920
8354,33856
8355,33664
8356,33408
8357,33408
8358,33856
8359,34112
8360,33728
8361,33088
8362,32640
8363,32512
8364,32832
8365,33088
8366,33280
8367,33408
8368,33408
8369,33216
8370,33216
8371,33472
8372,33728
8373,33664
8374,33536
8375,33600
8376,33600
8377,33472
8378,33408
8379,33216
8380,33152
8381,33024
8382,32960
8383,33152
8384,33408
8385,33408
8386,33408
8387,33472
8388,33664
8389,33728
8390,33536
8391,33152
8392,33024
8393,33024
8394,33024
8395,32960
8396,33088
8397,33280
8398,33408
8399,33600
8400,33536
8401,33344
8402,32960
8403,32768
8404,32896
8405,33152
8406,33472
8407,33792
8408,34048
8409,34048
8410,34112
8411,34112
8412,33792
8413,33472
8414,33472
8415,33600
8416,33728
8417,33856
8418,33920
8419,34752
8420,35840
8421,37696
8422,39872
8423,40832
8424,39936
8425,37888
8426,35776
8427,34048
8428,32768
8429,31680
8430,30784
8431,30400
8432,30592
8433,31040
8434,31936
8435,32320
8436,32576
8437,32640
8438,32704
8439,32768
8440,32896
8441,33088
8442,33152
8443,33216
8444,33472
8445,33664
8446,33600
8447,33408
8448,33216
8449,33152
8450,33216
8451,33472
8452,33664
8453,33600
8454,33344
8455,33216
8456,33088
8457,33344
8458,33792
8459,34112
8460,34112
8461,34112
8462,34112
8463,33920
8464,33792
8465,33728
8466,33728
8467,33472
8468,33280
8469,33344
8470,33344
8471,33472
8472,33792
8473,34240
8474,34432
8475,34432
8476,34688
8477,35008
8478,35264
8479,35200
8480,34752
8481,34112
8482,33856
8483,33728
8484,33984
8485,34112
8486,34176
8487,34048
8488,33856
8489,33920
8490,33984
8491,33920
8492,33664
8493,33280
8494,33088
8495,33088
8496,33024
8497,32896
8498,32832
8499,32448
8500,32000
8501,31744
8502,31616
8503,31616
8504,31616
8505,31744
8506,31936
8507,32064
8508,32064
8509,32000
8510,32000
8511,32064
8512,32256
8513,32576
8514,32960
8515,33152
8516,33024
8517,32768
8518,32576
8519,32512
8520,32576
8521,32896
8522,33344
8523,33472
8524,33088
8525,32704
8526,32448
8527,32448
8528,32768
8529,33280
8530,33536
8531,33344
8532,32896
8533,32512
8534,32320
8535,32256
8536,32256
8537,32448
8538,32640
8539,32960
8540,33088
8541,33216
8542,33408
8543,33472
8544,33344
8545,33152
8546,33088
8547,32960
8548,33024
8549,33088
8550,32960
8551,32832
8552,32896
8553,33088
8554,33280
8555,33280
8556,33152
8557,33024
8558,33152
8559,33344
8560,33472
8561,33408
8562,33280
8563,33216
8564,33024
8565,32704
8566,32576
8567,33024
8568,33536
8569,33536
8570,33280
8571,33024
8572,32704
8573,32576
8574,32704
8575,32768
8576,32832
8577,32960
8578,33088
8579,33152
8580,33344
8581,33216
8582,32896
8583,32768
8584,32832
8585,33088
8586,33344
8587,33408
8588,33408
8589,33408
8590,33344
8591,33216
8592,33024
8593,32832
8594,32704
8595,32768
8596,32960
8597,33024
8598,33024
8599,32960
8600,32896
8601,32960
8602,33088
8603,33088
8604,33088
8605,33152
8606,33216
8607,33216
8608,33216
8609,33344
8610,33536
8611,33728
8612,33920
8613,33984
8614,34048
8615,33728
8616,33600
8617,34176
8618,35648
8619,37632
8620,39232
8621,39360
8622,38016
8623,36160
8624,33984
8625,32576
8626,31552
8627,30976
8628,30720
8629,31104
8630,31616
8631,32192
8632,32576
8633,32832
8634,32960
8635,32832
8636,32576
8637,32448
8638,32704
8639,33088
8640,33088
8641,32832
8642,32576
8643,32576
8644,32832
8645,33152
8646,33216
8647,33152
8648,33088
8649,33024
8650,32832
8651,32704
8652,32640
8653,32768
8654,32896
8655,33216
8656,33472
8657,33472
8658,33472
8659,33344
8660,33280
8661,33280
8662,33600
8663,33792
8664,34048
8665,33984
8666,33856
8667,33792
8668,33728
8669,33728
8670,33728
8671,33728
8672,33728
8673,33792
8674,34048
8675,34432
8676,34816
8677,34880
8678,34496
8679,34176
8680,34048
8681,34112
8682,34304
8683,34368
8684,34176
8685,33984
8686,33920
8687,33664
8688,33408
8689,33216
8690,33152
8691,33280
8692,33472
8693,33344
8694,32896
8695,32704
8696,32576
8697,32512
8698,32512
8699,32384
8700,32256
8701,32064
8702,32000
8703,32128
8704,32320
8705,32576
8706,32704
8707,32768
8708,32704
8709,32576
8710,32448
8711,32192
8712,32256
8713,32640
8714,33280
8715,33536
8716,33600
8717,33536
8718,33408
8719,33152
8720,33024
8721,33024
8722,33344
8723,33600
8724,33472
8725,33472
8726,33536
8727,33472
8728,33408
8729,33216
8730,33216
8731,33280
8732,33536
8733,33728
8734,33664
8735,33408
8736,33280
8737,33152
8738,33152
8739,33152
8740,33152
8741,33024
8742,33024
8743,33088
8744,33152
8745,33280
8746,33472
8747,33856
8748,34048
8749,33920
8750,33728
8751,33472
8752,33344
8753,33280
8754,33152
8755,33024
8756,32960
8757,33088
8758,33344
8759,33408
8760,33280
8761,33216
8762,33216
8763,33216
8764,33344
8765,33408
8766,33408
8767,33344
8768,33408
8769,33408
8770,33280
8771,33280
8772,33216
8773,33024
8774,32960
8775,33024
8776,33216
8777,33408
8778,33536
8779,33600
8780,33536
8781,33536
8782,33472
8783,33280
8784,33152
8785,33024
8786,32896
8787,32768
8788,32896
8789,33152
8790,33344
8791,33536
8792,33600
8793,33536
8794,33408
8795,33280
8796,33088
8797,33024
8798,33088
8799,33344
8800,33664
8801,33792
8802,33728
8803,33664
8804,33792
8805,33856
8806,33984
8807,34624
8808,35968
8809,37824
8810,39680
8811,40384
8812,39552
8813,37760
8814,35584
8815,33600
8816,32128
8817,31232
8818,30848
8819,31040
8820,31296
8821,31360
8822,31552
8823,31808
8824,32128
8825,32512
8826,32768
8827,32960
8828,33088
8829,33216
8830,33408
8831,33536
8832,33664
8833,33792
8834,33984
8835,33984
8836,33856
8837,33856
8838,33856
8839,33728
8840,33536
8841,33344
8842,33280
8843,33280
8844,33280
8845,33280
8846,33344
8847,33408
8848,33600
8849,33792
8850,33856
8851,33792
8852,33728
8853,33664
8854,33920
8855,34240
8856,34432
8857,34240
8858,34048
8859,33856
8860,33856
8861,34176
8862,34432
8863,34496
8864,34496
8865,34624
8866,34880
8867,34816
8868,34496
8869,34240
8870,34112
8871,34240
8872,34496
8873,34752
8874,34688
8875,34560
8876,34304
8877,34112
8878,33856
8879,33728
8880,33472
8881,33152
8882,33088
8883,33280
8884,33280
8885,32896
8886,32384
8887,32064
8888,31936
8889,31936
8890,32064
8891,32320
8892,32640
8893,32768
8894,32640
8895,32384
8896,32384
8897,32640
8898,32832
8899,32896
8900,32832
8901,32832
8902,32768
8903,32640
8904,32448
8905,32512
8906,32576
8907,32704
8908,32832
8909,32832
8910,32896
8911,32960
8912,32896
8913,33088
8914,33536
8915,33856
8916,33664
8917,33408
8918,33408
8919,33472
8920,33472
8921,33344
8922,33344
8923,33664
8924,33728
8925,33600
8926,33280
8927,33088
8928,33024
8929,33280
8930,33472
8931,33408
8932,33344
8933,33408
8934,33728
8935,33984
8936,33792
8937,33344
8938,33088
8939,33280
8940,33600
8941,33536
8942,33152
8943,32960
8944,32896
8945,33024
8946,33344
8947,33536
8948,33600
8949,33600
8950,33600
8951,33600
8952,33600
8953,33664
8954,33600
8955,33664
8956,33856
8957,33984
8958,33920
8959,33792
8960,33856
8961,33984
8962,33664
8963,33280
8964,33088
8965,33088
8966,33024
8967,32896
8968,32960
8969,33152
8970,33536
8971,33792
8972,33920
8973,34048
8974,34048
8975,33984
8976,33792
8977,33536
8978,33472
8979,33600
8980,33600
8981,33472
8982,33216
8983,33024
8984,33024
8985,33216
8986,33344
8987,33408
8988,33472
8989,33472
8990,33600
8991,33664
8992,33600
8993,33472
8994,33344
8995,33280
8996,33344
8997,33344
8998,33344
8999,33408
9000,33600
9001,34176
9002,34688
9003,34688
9004,34432
9005,34560
9006,35136
9007,36096
9008,37568
9009,39296
9010,39872
9011,38976
9012,37184
9013,35328
9014,33600
9015,32256
9016,31360
9017,30976
9018,31040
9019,31424
9020,31936
9021,32448
9022,33088
9023,33472
9024,33664
9025,33792
9026,33920
9027,33792
9028,33472
9029,33280
9030,33344
9031,33536
9032,33600
9033,33408
9034,33152
9035,33152
9036,33216
9037,33408
9038,33728
9039,33856
9040,33728
9041,33536
9042,33472
9043,33536
9044,33600
9045,33792
9046,33920
9047,34112
9048,34240
9049,34304
9050,34304
9051,34368
9052,34368
9053,34112
9054,33792
9055,33728
9056,33984
9057,34240
9058,34560
9059,34816
9060,35008
9061,35008
9062,34944
9063,34880
9064,34880
9065,34944
9066,35264
9067,35456
9068,35200
9069,34688
9070,34368
9071,34304
9072,34432
9073,34944
9074,35328
9075,35136
9076,34624
9077,34112
9078,33856
9079,33920
9080,33920
9081,33664
9082,33280
9083,32960
9084,32832
9085,32640
9086,32448
9087,32320
9088,32320
9089,32320
9090,32256
9091,32192
9092,32256
9093,32384
9094,32512
9095,32448
9096,32384
9097,32512
9098,32832
9099,33152
9100,33280
9101,33152
9102,33088
9103,33088
9104,33344
9105,33536
9106,33408
9107,33216
9108,33344
9109,33472
9110,33536
9111,33536
9112,33664
9113,33856
9114,33984
9115,34048
9116,33984
9117,33920
9118,33920
9119,33792
9120,33728
9121,33664
9122,33408
9123,33024
9124,32832
9125,33024
9126,33344
9127,33408
9128,33344
9129,33408
9130,33472
9131,33600
9132,33792
9133,33920
9134,33984
9135,33984
9136,33792
9137,33664
9138,33600
9139,33664
9140,33856
9141,34112
9142,34176
9143,34240
9144,34112
9145,33792
9146,33472
9147,33216
9148,33216
9149,33216
9150,33408
9151,33472
9152,33472
9153,33344
9154,33216
9155,33216
9156,33408
9157,33728
9158,34112
9159,34048
9160,33728
9161,33600
9162,33792
9163,33856
9164,33728
9165,33664
9166,33792
9167,34112
9168,34432
9169,34304
9170,33856
9171,33536
9172,33344
9173,33280
9174,33344
9175,33472
9176,33344
9177,33088
9178,32960
9179,33152
9180,33536
9181,33728
9182,33664
9183,33472
9184,33536
9185,33728
9186,33792
9187,33792
9188,34048
9189,34176
9190,33920
9191,33408
9192,33024
9193,32960
9194,33088
9195,33280
9196,33408
9197,33664
9198,33984
9199,34048
9200,33792
9201,33600
9202,33472
9203,33408
9204,33536
9205,33920
9206,34112
9207,33856
9208,33600
9209,33600
9210,33728
9211,33792
9212,33984
9213,34112
9214,34112
9215,33984
9216,34304
9217,35264
9218,36864
9219,38912
9220,40448
9221,40320
9222,39040
9223,37056
9224,35008
9225,33216
9226,32064
9227,31488
9228,31424
9229,31488
9230,31680
9231,31936
9232,32384
9233,32832
9234,32960
9235,32832
9236,32768
9237,32768
9238,32768
9239,32896
9240,33152
9241,33536
9242,33984
9243,34176
9244,33856
9245,33536
9246,33472
9247,33728
9248,33984
9249,33920
9250,33600
9251,33408
9252,33408
9253,33600
9254,33984
9255,34240
9256,34304
9257,34112
9258,33856
9259,33664
9260,33664
9261,33728
9262,33728
9263,33664
9264,33600
9265,33536
9266,33856
9267,34304
9268,34496
9269,34304
9270,33984
9271,33920
9272,34048
9273,34304
9274,34432
9275,34624
9276,34880
9277,35136
9278,35136
9279,34880
9280,34752
9281,34816
9282,35200
9283,35456
9284,35136
9285,34432
9286,33920
9287,33792
9288,33600
9289,33280
9290,32960
9291,32768
9292,32896
9293,33088
9294,33216
9295,33024
9296,32704
9297,32512
9298,32448
9299,32640
9300,32704
9301,32640
9302,32576
9303,32576
9304,32640
9305,32704
9306,32704
9307,32704
9308,32704
9309,32896
9310,33088
9311,33216
9312,33152
9313,33152
9314,33088
9315,33088
9316,33024
9317,33024
9318,33408
9319,33728
9320,33920
9321,33728
9322,33408
9323,33344
9324,33216
9325,33024
9326,32960
9327,33216
9328,33536
9329,33600
9330,33600
9331,33856
9332,33920
9333,33856
9334,33728
9335,33728
9336,33792
9337,33664
9338,33536
9339,33472
9340,33472
9341,33472
9342,33472
9343,33600
9344,33664
9345,33792
9346,33856
9347,33728
9348,33664
9349,33728
9350,33728
9351,33664
9352,33472
9353,33280
9354,33280
9355,33408
9356,33536
9357,33728
9358,33664
9359,33600
9360,33664
9361,33856
9362,33792
9363,33664
9364,33600
9365,33792
9366,34112
9367,34112
9368,33728
9369,33472
9370,33472
9371,33728
9372,33792
9373,33600
9374,33280
9375,33088
9376,33216
9377,33536
9378,33664
9379,33792
9380,33600
9381,33280
9382,33088
9383,33216
9384,33472
9385,33664
9386,33792
9387,33856
9388,33984
9389,33984
9390,33984
9391,33984
9392,33856
9393,33600
9394,33536
9395,33600
9396,33536
9397,33472
9398,33344
9399,33344
9400,33472
9401,33536
9402,33728
9403,33792
9404,33664
9405,33664
9406,33792
9407,33728
9408,33472
9409,33280
9410,33408
9411,33792
9412,34112
9413,33920
9414,33664
9415,33728
9416,34048
9417,34496
9418,35136
9419,36416
9420,38144
9421,39808
9422,40128
9423,38976
9424,37312
9425,35584
9426,34048
9427,32832
9428,31936
9429,31360
9430,31232
9431,31360
9432,31744
9433,32256
9434,32512
9435,32640
9436,32960
9437,33280
9438,33344
9439,33024
9440,32896
9441,33088
9442,33216
9443,33152
9444,33088
9445,33472
9446,33856
9447,34304
9448,34368
9449,34112
9450,33664
9451,33344
9452,33152
9453,33152
9454,33280
9455,33536
9456,33792
9457,33920
9458,33920
9459,33728
9460,33664
9461,33792
9462,33984
9463,34112
9464,34048
9465,34048
9466,34112
9467,34176
9468,34112
9469,34048
9470,33984
9471,34048
9472,34048
9473,34112
9474,34368
9475,34816
9476,35264
9477,35456
9478,35392
9479,35136
9480,34944
9481,34944
9482,35072
9483,34752
9484,34176
9485,33792
9486,33664
9487,33600
9488,33536
9489,33600
9490,33728
9491,33728
9492,33472
9493,33344
9494,33216
9495,33024
9496,32960
9497,33024
9498,33152
9499,33024
9500,32704
9501,32256
9502,32128
9503,32192
9504,32256
9505,32192
9506,32192
9507,32384
9508,32512
9509,32704
9510,32960
9511,33024
9512,32960
9513,33088
9514,33280
9515,33408
9516,33600
9517,33728
9518,33856
9519,33856
9520,33664
9521,33344
9522,33344
9523,33600
9524,33600
9525,33280
9526,32960
9527,32832
9528,33152
9529,33600
9530,33920
9531,33728
9532,33536
9533,33408
9534,33344
9535,33344
9536,33408
9537,33536
9538,33728
9539,33856
9540,33664
9541,33536
9542,33600
9543,33728
9544,33728
9545,33664
9546,33600
9547,33536
9548,33600
9549,33664
9550,33536
9551,33280
9552,33152
9553,33152
9554,33280
9555,33472
9556,33664
9557,33792
9558,33984
9559,33920
9560,33600
9561,33216
9562,33024
9563,33216
9564,33664
9565,33856
9566,33792
9567,33792
9568,33728
9569,33728
9570,33984
9571,34240
9572,34368
9573,34112
9574,33664
9575,33408
9576,33280
9577,33152
9578,33024
9579,33024
9580,33216
9581,33536
9582,33600
9583,33536
9584,33600
9585,33536
9586,33728
9587,34112
9588,34176
9589,33984
9590,33856
9591,33536
9592,33536
9593,33792
9594,33984
9595,33664
9596,33216
9597,33088
9598,33216
9599,33472
9600,33472
9601,33472
9602,33664
9603,33920
9604,34048
9605,33664
9606,33344
9607,33344
9608,33472
9609,33664
9610,33984
9611,34048
9612,33792
9613,33472
9614,33216
9615,33280
9616,33472
9617,33664
9618,33728
9619,33664
9620,33600
9621,33664
9622,33536
9623,33280
9624,33152
9625,33216
9626,33280
9627,33344
9628,33664
9629,33792
9630,33792
9631,33792
9632,33984
9633,34048
9634,34176
9635,34048
9636,33920
9637,33856
9638,33792
9639,33792
9640,33920
9641,33920
9642,33664
9643,33664
9644,33856
9645,33792
9646,33856
9647,34240
9648,35200
9649,36864
9650,39040
9651,40896
9652,40960
9653,39360
9654,37056
9655,34880
9656,33088
9657,32000
9658,31488
9659,31168
9660,31168
9661,31360
9662,31808
9663,32256
9664,32384
9665,32512
9666,32576
9667,32704
9668,32896
9669,33152
9670,33280
9671,33536
9672,33792
9673,33728
9674,33344
9675,32960
9676,32896
9677,33152
9678,33600
9679,33856
9680,33856
9681,33728
9682,33664
9683,33728
9684,33600
9685,33472
9686,33472
9687,33344
9688,33408
9689,33536
9690,33600
9691,33536
9692,33664
9693,33856
9694,33920
9695,34048
9696,34240
9697,34368
9698,34432
9699,34560
9700,34688
9701,34944
9702,35072
9703,34816
9704,34496
9705,34432
9706,34624
9707,34816
9708,34816
9709,34880
9710,34880
9711,34880
9712,34816
9713,34496
9714,34240
9715,34176
9716,34304
9717,34368
9718,34240
9719,34176
9720,34048
9721,33792
9722,33536
9723,33280
9724,33216
9725,33216
9726,33088
9727,32896
9728,32768
9729,32768
9730,32832
9731,32896
9732,32768
9733,32640
9734,32384
9735,32320
9736,32576
9737,32832
9738,32896
9739,33088
9740,33088
9741,32640
9742,32000
9743,31616
9744,31680
9745,32064
9746,32640
9747,33280
9748,33408
9749,33344
9750,33280
9751,33216
9752,33216
9753,33344
9754,33536
9755,33664
9756,33664
9757,33600
9758,33600
9759,33728
9760,33984
9761,34048
9762,33856
9763,33600
9764,33280
9765,33216
9766,33536
9767,33728
9768,33344
9769,32896
9770,32896
9771,33088
9772,33216
9773,33344
9774,33536
9775,33664
9776,33600
9777,33408
9778,33408
9779,33472
9780,33600
9781,33920
9782,34048
9783,33856
9784,33536
9785,33536
9786,33664
9787,33728
9788,33536
9789,33408
9790,33472
9791,33728
9792,33856
9793,33792
9794,33664
9795,33472
9796,33472
9797,33600
9798,33536
9799,33408
9800,33280
9801,33472
9802,33920
9803,34176
9804,34240
9805,34112
9806,33792
9807,33344
9808,33280
9809,33280
9810,33472
9811,33664
9812,33600
9813,33472
9814,33536
9815,33600
9816,33600
9817,33472
9818,33472
9819,33536
9820,33792
9821,34048
9822,33984
9823,33728
9824,33536
9825,33600
9826,33856
9827,33920
9828,33792
9829,33600
9830,33408
9831,33216
9832,33088
9833,33216
9834,33472
9835,33856
9836,34176
9837,34240
9838,33920
9839,33536
9840,33472
9841,33792
9842,33792
9843,33536
9844,33344
9845,33344
9846,33344
9847,33280
9848,33280
9849,33216
9850,33024
9851,33024
9852,33216
9853,33600
9854,34048
9855,34304
9856,34112
9857,33920
9858,33920
9859,34112
9860,34112
9861,33792
9862,33408
9863,33280
9864,33472
9865,33920
9866,34304
9867,34560
9868,34816
9869,35456
9870,37056
9871,39296
9872,40832
9873,40832
9874,39552
9875,37376
9876,34880
9877,32576
9878,31168
9879,30592
9880,30592
9881,30912
9882,31424
9883,31936
9884,32384
9885,32768
9886,33024
9887,33280
9888,33472
9889,33536
9890,33536
9891,33408
9892,33280
9893,33408
9894,33472
9895,33408
9896,33216
9897,33152
9898,33152
9899,33280
9900,33664
9901,34112
9902,34368
9903,34176
9904,33984
9905,34048
9906,34240
9907,34112
9908,33664
9909,33408
9910,33536
9911,33856
9912,34048
9913,33856
9914,33600
9915,33600
9916,33856
9917,34048
9918,34176
9919,34176
9920,34048
9921,34112
9922,34368
9923,34688
9924,34944
9925,35072
9926,35072
9927,34944
9928,34752
9929,34624
9930,34496
9931,34368
9932,34432
9933,34496
9934,34496
9935,34560
9936,34624
9937,34496
9938,34624
9939,34816
9940,34816
9941,34496
9942,34048
9943,33792
9944,33728
9945,33472
9946,33024
9947,32704
9948,32512
9949,32448
9950,32512
9951,32448
9952,32448
9953,32320
9954,32128
9955,32000
9956,32000
9957,32256
9958,32448
9959,32768
9960,33024
9961,33280
9962,33344
9963,33088
9964,32768
9965,32704
9966,32640
9967,32640
9968,32960
9969,33408
9970,33600
9971,33472
9972,33216
9973,33152
9974,33280
9975,33472
9976,33664
9977,33728
9978,33792
9979,33920
9980,33984
9981,33792
9982,33408
9983,33152
9984,33280
9985,33408
9986,33472
9987,33536
9988,33728
9989,33920
9990,33792
9991,33408
9992,33152
9993,33216
9994,33408
9995,33664
9996,33792
9997,33728
9998,33600
9999,33792
10000,34112
10001,34240
10002,34176
10003,33856
10004,33408
10005,33088
10006,32960
10007,33088
10008,33472
10009,33856
10010,33920
10011,33792
10012,33728
10013,33728
10014,33536
10015,33344
10016,33344
10017,33600
10018,33728
10019,33920
10020,33920
10021,33920
10022,34048
10023,34112
10024,34048
10025,33792
10026,33664
10027,33664
10028,33664
10029,33536
10030,33408
10031,33536
10032,33728
10033,33728
10034,33664
10035,33600
10036,33408
10037,33536
10038,33792
10039,33856
10040,33856
10041,33664
10042,33472
10043,33280
10044,33152
10045,33088
10046,33216
10047,33536
10048,33792
10049,33920
10050,34048
10051,34112
10052,33984
10053,33728
10054,33600
10055,33600
10056,33728
10057,33664
10058,33536
10059,33536
10060,33728
10061,33984
10062,34432
10063,34496
10064,34304
10065,33984
10066,33536
10067,33152
10068,33088
10069,33152
10070,33152
10071,33216
10072,33344
10073,33472
10074,33600
10075,33664
10076,33728
10077,34112
10078,34752
10079,35776
10080,37376
10081,39104
10082,40448
10083,40320
10084,38976
10085,37184
10086,35200
10087,33536
10088,32384
10089,31744
10090,31296
10091,31104
10092,31296
10093,31680
10094,32128
10095,32512
10096,32768
10097,32960
10098,33216
10099,33344
10100,33280
10101,33152
10102,33280
10103,33472
10104,33600
10105,33728
10106,33792
10107,33728
10108,33600
10109,33536
10110,33600
10111,33792
10112,33920
10113,33856
10114,33856
10115,33856
10116,33856
10117,33792
10118,33792
10119,33664
10120,33536
10121,33408
10122,33728
10123,34112
10124,34496
10125,34496
10126,34048
10127,33728
10128,33728
10129,33984
10130,34240
10131,34240
10132,34176
10133,34240
10134,34368
10135,34560
10136,34496
10137,34240
10138,34176
10139,34176
10140,34240
10141,34304
10142,34368
10143,34688
10144,34944
10145,34944
10146,34816
10147,34624
10148,34432
10149,34368
10150,34496
10151,34560
10152,34304
10153,33856
10154,33472
10155,33280
10156,33088
10157,33088
10158,32896
10159,32576
10160,32256
10161,32064
10162,32064
10163,32384
10164,32832
10165,32768
10166,32512
10167,32512
10168,32512
10169,32512
10170,32512
10171,32704
10172,32896
10173,32896
10174,32832
10175,32896
10176,33152
10177,33536
10178,33664
10179,33728
10180,33600
10181,33408
10182,33536
10183,33664
10184,33792
10185,33792
10186,33536
10187,33344
10188,33280
10189,33280
10190,33472
10191,33600
10192,33600
10193,33600
10194,33664
10195,33792
10196,33728
10197,33600
10198,33664
10199,33920
10200,34368
10201,34560
10202,34176
10203,33664
10204,33408
10205,33344
10206,33216
10207,33152
10208,33152
10209,33344
10210,33472
10211,33408
10212,33344
10213,33344
10214,33664
10215,34048
10216,34112
10217,33920
10218,33664
10219,33728
10220,34048
10221,34432
10222,34560
10223,34368
10224,33920
10225,33536
10226,33344
10227,33216
10228,33280
10229,33600
10230,33984
10231,34240
10232,34112
10233,33920
10234,33792
10235,33856
10236,33984
10237,34112
10238,34048
10239,34112
10240,34048
10241,33792
10242,33472
10243,33408
10244,33408
10245,33536
10246,33728
10247,33984
10248,34240
10249,34176
10250,33920
10251,33600
10252,33600
10253,33728
10254,33856
10255,33984
10256,34112
10257,34176
10258,34048
10259,33792
10260,33664
10261,33664
10262,33728
10263,33856
10264,33856
10265,33728
10266,33792
10267,33856
10268,33792
10269,33728
10270,33728
10271,33920
10272,34112
10273,34112
10274,33920
10275,33856
10276,33920
10277,33984
10278,33920
10279,33920
10280,34048
10281,34112
10282,34112
10283,34048
10284,34240
10285,35072
10286,36608
10287,39488
10288,40512
10289,41152
10290,40192
10291,38272
10292,36224
10293,34368
10294,32832
10295,31936
10296,31552
10297,31744
10298,32192
10299,32512
10300,32448
10301,32384
10302,32640
10303,32960
10304,33216
10305,33408
10306,33408
10307,33408
10308,33536
10309,33728
10310,33856
10311,33920
10312,34112
10313,34240
10314,34112
10315,33792
10316,33792
10317,34176
10318,34240
10319,34176
10320,33984
10321,33728
10322,33600
10323,33536
10324,33600
10325,33792
10326,34112
10327,34368
10328,34496
10329,34432
10330,34304
10331,34304
10332,34432
10333,34496
10334,34560
10335,34624
10336,34816
10337,34944
10338,35008
10339,34944
10340,35008
10341,35136
10342,35328
10343,35392
10344,35200
10345,34944
10346,34752
10347,34624
10348,34624
10349,34752
10350,34816
10351,34944
10352,35200
10353,35456
10354,35392
10355,35072
10356,34816
10357,34560
10358,34240
10359,33856
10360,33600
10361,33600
10362,33472
10363,33216
10364,32960
10365,32768
10366,32704
10367,32704
10368,32704
10369,32832
10370,32896
10371,32896
10372,32832
10373,32768
10374,32512
10375,32320
10376,32384
10377,32704
10378,33088
10379,33344
10380,33344
10381,33216
10382,33088
10383,33152
10384,33280
10385,33600
10386,33792
10387,33920
10388,33920
10389,33984
10390,34240
10391,34496
10392,34368
10393,34176
10394,33920
10395,33664
10396,33536
10397,33408
10398,33344
10399,33472
10400,33728
10401,33984
10402,33920
10403,33600
10404,33344
10405,33472
10406,33728
10407,34112
10408,34176
10409,33920
10410,33536
10411,33344
10412,33600
10413,34112
10414,34368
10415,34176
10416,33920
10417,33728
10418,33728
10419,33728
10420,33600
10421,33536
10422,33600
10423,33600
10424,33728
10425,33856
10426,33920
10427,33920
10428,33920
10429,33920
10430,33920
10431,34048
10432,34112
10433,33792
10434,33472
10435,33536
10436,33792
10437,34176
10438,34240
10439,34176
10440,33728
10441,33408
10442,33216
10443,33344
10444,33664
10445,33920
10446,34112
10447,34176
10448,33920
10449,33536
10450,33408
10451,33536
10452,33856
10453,33856
10454,33792
10455,33856
10456,34304
10457,34688
10458,34560
10459,34176
10460,33792
10461,33536
10462,33280
10463,33152
10464,33344
10465,33728
10466,33920
10467,33728
10468,33536
10469,33344
10470,33152
10471,33152
10472,33536
10473,33792
10474,33920
10475,33792
10476,33664
10477,33600
10478,33664
10479,33792
10480,34112
10481,34368
10482,34432
10483,34176
10484,33984
10485,33856
10486,33792
10487,34048
10488,34176
10489,33920
10490,33536
10491,33536
10492,33664
10493,33792
10494,34048
10495,34688
10496,35904
10497,37824
10498,40256
10499,41344
10500,39808
10501,37952
10502,35648
10503,33728
10504,32256
10505,31360
10506,31232
10507,31616
10508,31872
10509,31872
10510,31936
10511,32192
10512,32640
10513,32960
10514,33088
10515,33152
10516,33152
10517,33344
10518,33472
10519,33600
10520,33664
10521,33728
10522,33856
10523,33920
10524,33856
10525,33792
10526,33856
10527,33856
10528,33728
10529,33600
10530,33472
10531,33344
10532,33344
10533,33280
10534,33280
10535,33600
10536,34112
10537,34496
10538,34496
10539,34304
10540,34304
10541,34304
10542,34112
10543,33856
10544,33920
10545,34112
10546,34176
10547,34112
10548,33984
10549,33792
10550,33856
10551,34176
10552,34560
10553,34688
10554,34752
10555,34624
10556,34624
10557,35008
10558,35584
10559,35840
10560,35520
10561,35072
10562,34688
10563,34496
10564,34496
10565,34304
10566,33984
10567,33728
10568,33536
10569,33472
10570,33472
10571,33472
10572,33216
10573,33024
10574,32896
10575,32896
10576,32896
10577,32832
10578,32640
10579,32448
10580,32576
10581,32640
10582,32576
10583,32320
10584,32192
10585,32256
10586,32256
10587,32384
10588,32832
10589,33216
10590,33152
10591,32832
10592,32576
10593,32512
10594,32768
10595,33216
10596,33472
10597,33408
10598,33280
10599,33344
10600,33536
10601,33536
10602,33472
10603,33536
10604,33728
10605,33792
10606,33600
10607,33536
10608,33408
10609,33344
10610,33472
10611,33600
10612,33408
10613,33024
10614,32768
10615,32832
10616,33088
10617,33472
10618,33664
10619,33664
10620,33664
10621,33792
10622,33856
10623,33856
10624,33728
10625,33728
10626,33920
10627,34048
10628,33792
10629,33344
10630,32960
10631,32896
10632,33216
10633,33600
10634,33536
10635,33344
10636,33088
10637,33088
10638,33408
10639,33920
10640,34240
10641,34112
10642,33984
10643,34048
10644,33984
10645,33856
10646,33728
10647,33664
10648,33536
10649,33344
10650,33152
10651,33088
10652,33088
10653,33024
10654,33216
10655,33472
10656,33600
10657,33664
10658,33600
10659,33472
10660,33472
10661,33536
10662,33536
10663,33408
10664,33472
10665,33920
10666,34240
10667,34048
10668,33728
10669,33472
10670,33536
10671,33728
10672,33664
10673,33344
10674,33024
10675,33024
10676,33344
10677,33600
10678,33664
10679,33792
10680,34112
10681,34112
10682,33984
10683,33856
10684,33728
10685,33408
10686,33024
10687,32832
10688,32832
10689,32960
10690,33152
10691,33344
10692,33408
10693,33408
10694,33472
10695,33536
10696,33472
10697,33472
10698,33472
10699,33664
10700,33728
10701,33856
10702,33984
10703,33984
10704,33920
10705,33728
10706,33664
10707,33856
10708,34048
10709,33920
10710,33536
10711,33280
10712,33152
10713,33280
10714,33536
10715,33792
10716,34368
10717,35456
10718,36800
10719,38336
10720,40000
10721,40384
10722,39232
10723,37312
10724,35200
10725,33536
10726,32384
10727,31552
10728,30848
10729,30592
10730,30912
10731,31424
10732,31872
10733,32192
10734,32448
10735,32896
10736,33280
10737,33472
10738,33408
10739,33472
10740,33472
10741,33408
10742,33536
10743,33344
10744,33088
10745,33024
10746,33280
10747,33728
10748,34112
10749,34112
10750,33664
10751,33024
10752,32704
10753,32640
10754,32768
10755,33088
10756,33408
10757,33472
10758,33536
10759,33728
10760,33920
10761,34112
10762,34112
10763,33984
10764,33920
10765,34048
10766,34368
10767,34624
10768,34560
10769,34176
10770,33856
10771,33792
10772,33792
10773,33920
10774,33984
10775,33920
10776,33984
10777,34048
10778,34176
10779,34560
10780,34944
10781,35136
10782,34944
10783,34496
10784,34304
10785,34432
10786,34432
10787,34176
10788,33984
10789,34048
10790,33920
10791,33600
10792,33216
10793,33024
10794,32896
10795,32768
10796,32576
10797,32640
10798,32640
10799,32768
10800,32960
10801,32832
10802,32512
10803,32192
10804,32128
10805,32128
10806,32320
10807,32512
10808,32576
10809,32704
10810,32896
10811,33024
10812,33024
10813,32960
10814,32896
10815,32960
10816,33216
10817,33600
10818,33792
10819,33792
10820,33856
10821,33664
10822,33536
10823,33280
10824,32896
10825,32768
10826,32832
10827,32960
10828,33152
10829,33536
10830,33728
10831,33536
10832,33216
10833,33152
10834,33280
10835,33536
10836,33664
10837,33728
10838,33856
10839,33920
10840,33856
10841,33600
10842,33472
10843,33472
10844,33472
10845,33472
10846,33344
10847,33344
10848,33472
10849,33600
10850,33792
10851,33792
10852,33600
10853,33408
10854,33408
10855,33664
10856,33984
10857,34048
10858,33664
10859,33280
10860,33152
10861,33344
10862,33600
10863,33792
10864,33856
10865,33792
10866,33664
10867,33600
10868,33472
10869,33408
10870,33344
10871,33216
10872,33344
10873,33792
10874,34048
10875,33920
10876,33600
10877,33408
10878,33344
10879,33536
10880,33792
10881,33856
10882,33664
10883,33408
10884,33280
10885,33408
10886,33600
10887,33792
10888,33728
10889,33344
10890,33152
10891,33216
10892,33600
10893,33856
10894,33792
10895,33664
10896,33472
10897,33216
10898,33216
10899,33344
10900,33600
10901,33792
10902,33728
10903,33664
10904,33408
10905,33344
10906,33408
10907,33792
10908,34112
10909,34048
10910,33792
10911,33600
10912,33600
10913,33664
10914,33792
10915,34048
10916,34176
10917,34176
10918,34112
10919,34112
10920,34176
10921,34112
10922,33856
10923,33856
10924,34496
