,ECG
0,33600
1,33536
2,33536
3,33472
4,33472
5,33472
6,33472
7,33472
8,33536
9,33600
10,33664
11,33664
12,33728
13,33792
14,33792
15,33856
16,33856
17,33856
18,33856
19,33920
20,33920
21,33920
22,33920
23,33920
24,33920
25,33920
26,33984
27,34048
28,34048
29,34112
30,34048
31,34048
32,33984
33,33984
34,33920
35,33920
36,33984
37,34048
38,34112
39,34048
40,34048
41,34048
42,34048
43,34048
44,33984
45,33920
46,33856
47,33792
48,33728
49,33664
50,33600
51,33472
52,33408
53,33344
54,33344
55,33408
56,33472
57,33472
58,33600
59,33728
60,33856
61,33920
62,34048
63,34048
64,34048
65,34048
66,34048
67,34048
68,34112
69,34176
70,34176
71,34240
72,34240
73,34240
74,34240
75,34176
76,34112
77,33984
78,33856
79,33792
80,33728
81,33728
82,33792
83,33984
84,34240
85,34432
86,34560
87,34560
88,34560
89,34496
90,34432
91,34368
92,34368
93,34304
94,34176
95,34112
96,34112
97,34048
98,34048
99,34048
100,34112
101,34048
102,33984
103,33984
104,33984
105,33984
106,34048
107,34048
108,34112
109,34176
110,34176
111,34176
112,34240
113,34240
114,34240
115,34240
116,34240
117,34112
118,34048
119,34048
120,34176
121,34432
122,34944
123,35712
124,36992
125,38272
126,39488
127,40128
128,39872
129,38464
130,36288
131,34112
132,32256
133,30976
134,30400
135,30400
136,30848
137,31552
138,32384
139,33536
140,33792
141,34240
142,34560
143,34688
144,34752
145,34752
146,34688
147,34688
148,34624
149,34560
150,34496
151,34432
152,34368
153,34304
154,34304
155,34304
156,34368
157,34368
158,34368
159,34432
160,34432
161,34368
162,34368
163,34368
164,34432
165,34496
166,34560
167,34560
168,34624
169,34560
170,34560
171,34560
172,34560
173,34496
174,34432
175,34368
176,34368
177,34368
178,34304
179,34304
180,34304
181,34304
182,34304
183,34304
184,34304
185,34240
186,34240
187,34304
188,34432
189,34496
190,34496
191,34496
192,34432
193,34368
194,34304
195,34240
196,34176
197,34112
198,33984
199,33920
200,33856
201,33856
202,33792
203,33728
204,33728
205,33728
206,33728
207,33792
208,33792
209,33792
210,33856
211,33920
212,33984
213,33984
214,34048
215,34048
216,34048
217,34048
218,34112
219,34112
220,34048
221,34048
222,33984
223,33984
224,33920
225,33856
226,33856
227,33856
228,33792
229,33792
230,33792
231,33792
232,33728
233,33792
234,33792
235,33920
236,33920
237,33984
238,34048
239,33984
240,33920
241,33920
242,33920
243,33984
244,33984
245,33920
246,33984
247,33920
248,33856
249,33728
250,33664
251,33536
252,33472
253,33408
254,33408
255,33472
256,33472
257,33536
258,33536
259,33600
260,33600
261,33664
262,33664
263,33664
264,33664
265,33728
266,33664
267,33600
268,33536
269,33600
270,33792
271,34176
272,34688
273,35456
274,36864
275,37760
276,38784
277,39232
278,38912
279,37632
280,35776
281,33920
282,32192
283,30976
284,30208
285,30080
286,30336
287,30976
288,31808
289,32704
290,33088
291,33664
292,34048
293,34240
294,34368
295,34432
296,34368
297,34368
298,34304
299,34176
300,34112
301,34048
302,33984
303,33984
304,33920
305,33920
306,33920
307,33920
308,33920
309,33984
310,33984
311,33984
312,33984
313,34048
314,34048
315,34048
316,34112
317,34112
318,34112
319,34112
320,34048
321,34112
322,34112
323,34112
324,34112
325,34112
326,34112
327,34112
328,34112
329,34112
330,34112
331,34112
332,34112
333,34112
334,34112
335,34112
336,34112
337,34112
338,34112
339,34112
340,34112
341,34176
342,34176
343,34240
344,34176
345,34176
346,34176
347,34112
348,34048
349,33920
350,33856
351,33856
352,33792
353,33728
354,33728
355,33728
356,33728
357,33792
358,33856
359,33920
360,33984
361,33984
362,33984
363,34048
364,34048
365,34112
366,34112
367,34112
368,34112
369,34112
370,34112
371,34112
372,34112
373,34112
374,34048
375,34048
376,34048
377,34048
378,34112
379,34176
380,34176
381,34176
382,34112
383,34048
384,33984
385,33984
386,33984
387,34048
388,34112
389,34048
390,34048
391,33984
392,33920
393,33920
394,33792
395,33664
396,33600
397,33536
398,33536
399,33536
400,33600
401,33664
402,33664
403,33664
404,33664
405,33600
406,33664
407,33664
408,33728
409,33792
410,33728
411,33600
412,33472
413,33536
414,33728
415,34112
416,34688
417,35520
418,36672
419,38144
420,39232
421,39808
422,39616
423,38400
424,36096
425,34368
426,32512
427,31040
428,30272
429,29952
430,30208
431,30720
432,31424
433,32064
434,32704
435,33216
436,33728
437,34240
438,34624
439,34752
440,34752
441,34752
442,34752
443,34816
444,34752
445,34560
446,34368
447,34240
448,34112
449,33984
450,33920
451,33984
452,34048
453,34112
454,34048
455,34048
456,34112
457,34112
458,34112
459,34112
460,34112
461,34112
462,34112
463,34112
464,34176
465,34176
466,34240
467,34304
468,34240
469,34176
470,34112
471,34176
472,34240
473,34240
474,34240
475,34240
476,34240
477,34176
478,34112
479,34048
480,34112
481,34112
482,34112
483,34176
484,34240
485,34240
486,34240
487,34176
488,34112
489,34112
490,34048
491,33984
492,33920
493,33856
494,33792
495,33792
496,33792
497,33792
498,33792
499,33728
500,33792
501,33920
502,33920
503,33920
504,33920
505,33984
506,33984
507,34048
508,34112
509,34176
510,34176
511,34176
512,34176
513,34176
514,34048
515,34048
516,34112
517,34112
518,34112
519,34112
520,34112
521,33984
522,33856
523,33728
524,33664
525,33600
526,33600
527,33728
528,33856
529,33856
530,33920
531,33728
532,33664
533,33664
534,33664
535,33600
536,33600
537,33728
538,33728
539,33664
540,33472
541,33472
542,33472
543,33472
544,33344
545,33280
546,33152
547,33216
548,33216
549,33280
550,33344
551,33408
552,33472
553,33536
554,33600
555,33664
556,33728
557,33920
558,33984
559,33984
560,34368
561,34816
562,35456
563,36224
564,37312
565,38656
566,39680
567,40192
568,39680
569,37824
570,35520
571,33280
572,31552
573,30400
574,30272
575,30016
576,30464
577,31232
578,32064
579,32768
580,33408
581,33920
582,34112
583,34176
584,34112
585,34112
586,33984
587,33920
588,33856
589,33792
590,33728
591,33728
592,33664
593,33600
594,33472
595,33472
596,33536
597,33536
598,33600
599,33664
600,33664
601,33728
602,33792
603,33856
604,33856
605,33920
606,33984
607,33984
608,34048
609,34112
610,34112
611,34112
612,34112
613,34112
614,34112
615,34176
616,34176
617,34176
618,34176
619,34240
620,34304
621,34304
622,34304
623,34304
624,34304
625,34304
626,34368
627,34368
628,34368
629,34432
630,34496
631,34496
632,34496
633,34496
634,34496
635,34432
636,34368
637,34240
638,34112
639,33984
640,33856
641,33792
642,33728
643,33664
644,33728
645,33728
646,33792
647,33856
648,33920
649,33920
650,33984
651,34048
652,34112
653,34112
654,34112
655,34176
656,34176
657,34176
658,34240
659,34240
660,34240
661,34176
662,34176
663,34240
664,34240
665,34240
666,34304
667,34368
668,34432
669,34432
670,34304
671,34240
672,34176
673,34176
674,34112
675,34176
676,34176
677,34176
678,34112
679,34048
680,33984
681,33920
682,33856
683,33728
684,33664
685,33536
686,33536
687,33600
688,33600
689,33600
690,33600
691,33600
692,33664
693,33728
694,33728
695,33792
696,33856
697,33856
698,33792
699,33728
700,33664
701,33728
702,33920
703,34240
704,34816
705,35712
706,36928
707,38272
708,39424
709,39936
710,39488
711,37888
712,35648
713,33472
714,31744
715,30528
716,29888
717,29952
718,30400
719,31040
720,31808
721,32640
722,33280
723,33792
724,34112
725,34304
726,34368
727,34432
728,34432
729,34304
730,34304
731,34240
732,34176
733,34048
734,33984
735,33920
736,33920
737,33856
738,33856
739,33920
740,33920
741,33920
742,33984
743,33984
744,33984
745,34048
746,34048
747,34048
748,34048
749,34048
750,34048
751,34048
752,34048
753,34048
754,34112
755,34112
756,34176
757,34112
758,34112
759,34112
760,34112
761,34112
762,34112
763,34112
764,34112
765,34048
766,34048
767,34048
768,34112
769,34112
770,34112
771,34112
772,34112
773,34112
774,34112
775,34112
776,34112
777,34048
778,34048
779,33984
780,33920
781,33792
782,33728
783,33664
784,33600
785,33536
786,33536
787,33536
788,33600
789,33600
790,33664
791,33728
792,33792
793,33920
794,33920
795,33984
796,34048
797,34112
798,34112
799,34112
800,34112
801,34112
802,34112
803,34176
804,34240
805,34240
806,34304
807,34240
808,34240
809,34176
810,34112
811,34112
812,34112
813,34048
814,34048
815,34048
816,33984
817,33920
818,33920
819,33856
820,33792
821,33728
822,33600
823,33536
824,33472
825,33472
826,33472
827,33536
828,33600
829,33600
830,33600
831,33600
832,33664
833,33664
834,33728
835,33728
836,33728
837,33600
838,33600
839,33600
840,33792
841,34112
842,34624
843,35456
844,36672
845,37824
846,38784
847,39232
848,38784
849,37376
850,35584
851,33792
852,32192
853,31040
854,30400
855,30336
856,30656
857,31232
858,32000
859,32704
860,33216
861,33728
862,34048
863,34240
864,34368
865,34432
866,34432
867,34432
868,34368
869,34304
870,34240
871,34176
872,34176
873,34048
874,34048
875,33984
876,33984
877,33920
878,33920
879,33984
880,34048
881,34048
882,34048
883,34112
884,34112
885,34112
886,34176
887,34176
888,34240
889,34240
890,34240
891,34240
892,34240
893,34240
894,34240
895,34176
896,34176
897,34176
898,34112
899,34176
900,34176
901,34176
902,34176
903,34176
904,34176
905,34176
906,34240
907,34240
908,34240
909,34304
910,34304
911,34304
912,34304
913,34304
914,34240
915,34176
916,34112
917,34048
918,33984
919,33856
920,33792
921,33728
922,33728
923,33664
924,33664
925,33664
926,33728
927,33792
928,33792
929,33856
930,33920
931,33984
932,34048
933,34112
934,34176
935,34240
936,34304
937,34240
938,34240
939,34240
940,34240
941,34304
942,34368
943,34432
944,34432
945,34432
946,34432
947,34368
948,34304
949,34176
950,34176
951,34176
952,34176
953,34176
954,34112
955,34112
956,34112
957,34048
958,33984
959,33856
960,33792
961,33664
962,33600
963,33600
964,33600
965,33600
966,33600
967,33664
968,33728
969,33728
970,33792
971,33792
972,33856
973,33856
974,33856
975,33856
976,33792
977,33728
978,33856
979,34176
980,34624
981,35328
982,36480
983,37888
984,39104
985,39872
986,39872
987,38720
988,36672
989,34432
990,32448
991,31040
992,30208
993,30016
994,30272
995,30912
996,31680
997,32448
998,33088
999,33600
1000,33984
1001,34240
1002,34368
1003,34432
1004,34432
1005,34368
1006,34368
1007,34304
1008,34240
1009,34176
1010,34176
1011,34112
1012,34048
1013,34048
1014,33984
1015,33984
1016,33984
1017,33984
1018,34048
1019,34048
1020,34048
1021,34112
1022,34112
1023,34112
1024,34176
1025,34176
1026,34176
1027,34176
1028,34176
1029,34176
1030,34176
1031,34240
1032,34240
1033,34240
1034,34240
1035,34240
1036,34240
1037,34240
1038,34240
1039,34240
1040,34240
1041,34240
1042,34240
1043,34240
1044,34240
1045,34304
1046,34240
1047,34304
1048,34240
1049,34240
1050,34240
1051,34240
1052,34176
1053,34176
1054,34176
1055,34112
1056,34048
1057,33920
1058,33856
1059,33856
1060,33792
1061,33792
1062,33728
1063,33728
1064,33728
1065,33792
1066,33792
1067,33792
1068,33856
1069,33856
1070,33920
1071,33920
1072,33984
1073,34048
1074,34048
1075,34112
1076,34112
1077,34176
1078,34176
1079,34176
1080,34176
1081,34176
1082,34176
1083,34176
1084,34176
1085,34112
1086,34112
1087,34048
1088,34112
1089,34048
1090,33984
1091,33984
1092,33984
1093,34112
1094,34176
1095,34176
1096,34112
1097,34048
1098,33984
1099,33984
1100,33984
1101,34048
1102,33984
1103,33984
1104,33920
1105,33856
1106,33856
1107,33792
1108,33792
1109,33728
1110,33664
1111,33664
1112,33600
1113,33600
1114,33664
1115,33664
1116,33664
1117,33728
1118,33728
1119,33728
1120,33792
1121,33792
1122,33856
1123,33792
1124,33728
1125,33728
1126,33856
1127,34112
1128,34624
1129,35264
1130,36224
1131,37568
1132,38784
1133,39680
1134,39808
1135,38720
1136,36608
1137,34304
1138,32256
1139,30848
1140,30016
1141,29888
1142,30208
1143,30912
1144,31744
1145,32512
1146,33216
1147,33728
1148,34048
1149,34240
1150,34368
1151,34432
1152,34432
1153,34432
1154,34304
1155,34304
1156,34240
1157,34112
1158,34048
1159,33984
1160,33984
1161,33984
1162,33920
1163,33920
1164,33984
1165,33984
1166,33984
1167,33984
1168,34048
1169,34048
1170,34048
1171,34112
1172,34112
1173,34176
1174,34176
1175,34176
1176,34176
1177,34176
1178,34176
1179,34176
1180,34176
1181,34176
1182,34176
1183,34112
1184,34176
1185,34176
1186,34176
1187,34176
1188,34240
1189,34240
1190,34240
1191,34240
1192,34176
1193,34176
1194,34176
1195,34176
1196,34240
1197,34240
1198,34304
1199,34304
1200,34304
1201,34304
1202,34240
1203,34176
1204,34048
1205,33984
1206,33920
1207,33856
1208,33792
1209,33728
1210,33664
1211,33664
1212,33664
1213,33664
1214,33664
1215,33664
1216,33664
1217,33728
1218,33728
1219,33792
1220,33856
1221,33920
1222,33984
1223,33984
1224,34048
1225,34048
1226,34048
1227,34048
1228,34048
1229,34112
1230,34112
1231,34112
1232,34176
1233,34112
1234,34048
1235,33984
1236,33920
1237,33920
1238,33920
1239,33856
1240,33920
1241,33920
1242,34048
1243,34048
1244,34048
1245,34048
1246,33984
1247,33984
1248,33920
1249,33920
1250,33984
1251,33984
1252,33984
1253,33984
1254,33920
1255,33920
1256,33856
1257,33792
1258,33664
1259,33536
1260,33472
1261,33408
1262,33408
1263,33472
1264,33536
1265,33600
1266,33600
1267,33664
1268,33664
1269,33728
1270,33728
1271,33728
1272,33792
1273,33792
1274,33728
1275,33664
1276,33664
1277,33792
1278,34112
1279,34560
1280,35200
1281,36160
1282,37376
1283,38400
1284,39040
1285,38912
1286,37760
1287,35840
1288,33920
1289,32256
1290,31040
1291,30336
1292,30144
1293,30464
1294,31040
1295,31744
1296,32448
1297,33152
1298,33664
1299,34048
1300,34304
1301,34432
1302,34432
1303,34368
1304,34304
1305,34240
1306,34240
1307,34176
1308,34112
1309,34048
1310,34048
1311,33984
1312,33984
1313,33984
1314,33984
1315,33984
1316,33984
1317,33984
1318,33984
1319,33984
1320,34048
1321,34048
1322,34048
1323,34048
1324,34048
1325,34048
1326,34112
1327,34112
1328,34112
1329,34112
1330,34176
1331,34176
1332,34176
1333,34176
1334,34176
1335,34176
1336,34176
1337,34176
1338,34176
1339,34112
1340,34112
1341,34112
1342,34112
1343,34176
1344,34176
1345,34176
1346,34176
1347,34176
1348,34176
1349,34240
1350,34240
1351,34240
1352,34240
1353,34240
1354,34240
1355,34176
1356,34112
1357,34048
1358,33920
1359,33856
1360,33792
1361,33728
1362,33664
1363,33664
1364,33664
1365,33728
1366,33728
1367,33792
1368,33856
1369,33920
1370,33984
1371,34048
1372,34112
1373,34176
1374,34176
1375,34240
1376,34240
1377,34304
1378,34304
1379,34240
1380,34240
1381,34240
1382,34240
1383,34176
1384,34176
1385,34176
1386,34112
1387,34112
1388,34048
1389,34048
1390,34112
1391,34176
1392,34240
1393,34240
1394,34240
1395,34240
1396,34176
1397,34112
1398,34112
1399,34048
1400,34048
1401,34112
1402,34048
1403,34048
1404,33984
1405,33984
1406,33984
1407,33920
1408,33856
1409,33728
1410,33664
1411,33664
1412,33664
1413,33664
1414,33664
1415,33664
1416,33728
1417,33728
1418,33792
1419,33792
1420,33792
1421,33792
1422,33856
1423,33856
1424,33792
1425,33728
1426,33792
1427,34048
1428,34432
1429,35072
1430,35840
1431,36992
1432,38208
1433,39104
1434,39424
1435,38784
1436,37120
1437,35136
1438,33152
1439,31616
1440,30656
1441,30208
1442,30336
1443,30912
1444,31552
1445,32320
1446,33024
1447,33664
1448,34048
1449,34304
1450,34432
1451,34496
1452,34496
1453,34496
1454,34432
1455,34368
1456,34304
1457,34304
1458,34240
1459,34176
1460,34112
1461,34048
1462,34048
1463,34048
1464,34048
1465,34048
1466,34048
1467,34048
1468,34112
1469,34048
1470,33984
1471,33984
1472,34048
1473,34112
1474,34112
1475,34112
1476,34176
1477,34176
1478,34176
1479,34112
1480,34112
1481,34176
1482,34176
1483,34176
1484,34176
1485,34112
1486,34112
1487,34112
1488,34048
1489,34048
1490,34048
1491,34048
1492,34112
1493,34112
1494,34176
1495,34176
1496,34176
1497,34176
1498,34240
1499,34240
1500,34240
1501,34240
1502,34240
1503,34240
1504,34176
1505,34112
1506,34048
1507,34048
1508,33920
1509,33856
1510,33792
1511,33792
1512,33792
1513,33728
1514,33728
1515,33792
1516,33856
1517,33920
1518,33920
1519,33984
1520,33984
1521,34048
1522,34112
1523,34176
1524,34176
1525,34176
1526,34176
1527,34112
1528,34112
1529,34112
1530,34112
1531,34112
1532,34112
1533,34112
1534,34112
1535,34112
1536,34048
1537,33984
1538,33920
1539,33920
1540,33920
1541,33920
1542,33984
1543,33920
1544,33920
1545,33920
1546,33856
1547,33792
1548,33856
1549,33792
1550,33728
1551,33792
1552,33792
1553,33856
1554,33920
1555,33920
1556,34048
1557,34176
1558,34240
1559,34240
1560,34304
1561,34240
1562,34112
1563,33984
1564,33984
1565,33920
1566,33856
1567,33856
1568,33856
1569,33792
1570,33792
1571,33792
1572,33792
1573,33792
1574,33728
1575,33664
1576,33600
1577,33600
1578,33664
1579,33664
1580,33728
1581,33792
1582,33792
1583,33792
1584,33792
1585,33792
1586,33792
1587,33792
1588,33728
1589,33664
1590,33600
1591,33600
1592,33856
1593,34240
1594,34944
1595,35520
1596,36608
1597,37888
1598,39104
1599,39872
1600,39680
1601,38144
1602,35776
1603,33472
1604,31552
1605,30336
1606,29824
1607,29952
1608,30592
1609,31424
1610,32128
1611,32896
1612,33472
1613,33856
1614,34112
1615,34304
1616,34368
1617,34432
1618,34432
1619,34432
1620,34368
1621,34240
1622,34176
1623,34112
1624,34112
1625,34048
1626,33920
1627,33856
1628,33792
1629,33792
1630,33792
1631,33856
1632,33856
1633,33920
1634,33984
1635,33984
1636,33984
1637,33984
1638,33984
1639,34048
1640,34112
1641,34176
1642,34176
1643,34112
1644,34112
1645,34048
1646,33984
1647,33984
1648,33984
1649,33984
1650,33984
1651,34048
1652,34048
1653,34048
1654,34048
1655,34048
1656,34048
1657,34048
1658,34112
1659,34112
1660,34112
1661,34176
1662,34176
1663,34176
1664,34240
1665,34240
1666,34240
1667,34240
1668,34304
1669,34368
1670,34368
1671,34368
1672,34304
1673,34240
1674,34176
1675,34112
1676,34112
1677,34048
1678,34048
1679,33984
1680,33920
1681,33920
1682,33920
1683,33920
1684,33920
1685,33984
1686,33984
1687,34048
1688,34112
1689,34112
1690,34176
1691,34176
1692,34176
1693,34176
1694,34176
1695,34176
1696,34176
1697,34112
1698,34176
1699,34112
1700,34112
1701,34112
1702,34112
1703,34048
1704,34048
1705,33984
1706,33984
1707,33984
1708,33920
1709,33920
1710,33920
1711,33856
1712,33856
1713,33856
1714,33856
1715,33920
1716,33984
1717,34048
1718,34176
1719,34176
1720,34176
1721,34176
1722,34112
1723,34048
1724,34048
1725,34048
1726,34112
1727,34112
1728,34048
1729,34048
1730,33984
1731,33920
1732,33856
1733,33728
1734,33600
1735,33536
1736,33536
1737,33536
1738,33536
1739,33536
1740,33600
1741,33664
1742,33664
1743,33728
1744,33792
1745,33792
1746,33856
1747,33792
1748,33792
1749,33664
1750,33664
1751,33728
1752,33984
1753,34368
1754,34944
1755,35840
1756,36992
1757,38144
1758,39040
1759,39232
1760,38400
1761,36672
1762,34560
1763,32576
1764,31168
1765,30272
1766,30080
1767,30336
1768,30976
1769,31744
1770,32512
1771,33152
1772,33728
1773,34112
1774,34304
1775,34432
1776,34496
1777,34432
1778,34368
1779,34368
1780,34240
1781,34176
1782,34112
1783,34048
1784,33984
1785,33984
1786,33920
1787,33920
1788,33920
1789,33920
1790,33920
1791,33984
1792,33984
1793,34048
1794,34048
1795,34048
1796,34048
1797,34048
1798,34048
1799,34048
1800,34048
1801,34048
1802,34112
1803,34176
1804,34112
1805,34112
1806,34048
1807,34048
1808,33984
1809,33984
1810,33984
1811,33920
1812,33920
1813,33920
1814,33920
1815,33920
1816,33920
1817,33920
1818,33920
1819,33920
1820,33920
1821,33920
1822,33984
1823,33984
1824,34048
1825,34112
1826,34112
1827,34176
1828,34176
1829,34176
1830,34112
1831,34112
1832,34112
1833,34112
1834,34048
1835,33984
1836,33984
1837,33920
1838,33920
1839,33920
1840,33984
1841,33984
1842,33920
1843,33920
1844,33984
1845,34048
1846,34048
1847,34112
1848,34112
1849,34112
1850,34112
1851,34112
1852,34112
1853,34048
1854,34048
1855,34048
1856,34048
1857,34048
1858,33984
1859,33984
1860,33920
1861,33920
1862,33856
1863,33856
1864,33856
1865,33856
1866,33856
1867,33792
1868,33792
1869,33792
1870,33792
1871,33792
1872,33792
1873,33792
1874,33792
1875,33792
1876,33792
1877,33792
1878,33856
1879,33856
1880,33920
1881,33984
1882,34112
1883,34112
1884,34112
1885,34048
1886,33984
1887,33984
1888,33984
1889,33984
1890,33984
1891,33984
1892,33984
1893,33920
1894,33920
1895,33920
1896,33856
1897,33728
1898,33664
1899,33600
1900,33536
1901,33536
1902,33600
1903,33600
1904,33664
1905,33664
1906,33728
1907,33728
1908,33728
1909,33792
1910,33728
1911,33728
1912,33728
1913,33664
1914,33600
1915,33728
1916,33920
1917,34240
1918,34688
1919,35456
1920,36480
1921,37568
1922,38400
1923,38720
1924,37824
1925,36736
1926,35136
1927,33472
1928,32000
1929,30976
1930,30464
1931,30400
1932,30784
1933,31424
1934,32128
1935,32832
1936,33472
1937,33920
1938,34240
1939,34432
1940,34496
1941,34560
1942,34496
1943,34432
1944,34368
1945,34240
1946,34176
1947,34112
1948,34048
1949,33984
1950,33984
1951,33920
1952,33920
1953,33984
1954,33920
1955,33920
1956,33984
1957,34048
1958,34048
1959,34048
1960,33984
1961,33984
1962,34048
1963,34048
1964,34048
1965,34048
1966,34048
1967,34048
1968,34048
1969,34112
1970,34112
1971,34048
1972,34048
1973,33984
1974,33984
1975,33920
1976,33920
1977,33856
1978,33856
1979,33856
1980,33856
1981,33856
1982,33856
1983,33920
1984,33920
1985,33920
1986,33920
1987,33920
1988,33984
1989,34048
1990,34112
1991,34176
1992,34240
1993,34304
1994,34304
1995,34304
1996,34304
1997,34304
1998,34304
1999,34240
2000,34176
2001,34176
2002,34112
2003,34176
2004,34176
2005,34176
2006,34176
2007,34240
2008,34240
2009,34304
2010,34304
2011,34368
2012,34368
2013,34368
2014,34304
2015,34304
2016,34304
2017,34304
2018,34240
2019,34176
2020,34176
2021,34176
2022,34112
2023,34112
2024,34048
2025,34048
2026,34048
2027,34048
2028,34048
2029,34048
2030,33984
2031,33984
2032,33984
2033,33920
2034,33920
2035,33920
2036,33856
2037,33920
2038,33856
2039,33856
2040,33856
2041,33920
2042,33920
2043,33984
2044,34112
2045,34240
2046,34304
2047,34304
2048,34240
2049,34176
2050,34112
2051,34112
2052,34112
2053,34176
2054,34112
2055,34112
2056,34112
2057,34048
2058,33984
2059,33856
2060,33728
2061,33664
2062,33600
2063,33600
2064,33600
2065,33664
2066,33728
2067,33728
2068,33792
2069,33792
2070,33856
2071,33920
2072,33920
2073,33920
2074,33920
2075,33856
2076,33792
2077,33792
2078,33984
2079,34240
2080,34688
2081,35328
2082,36288
2083,37440
2084,38464
2085,39040
2086,38976
2087,37824
2088,35968
2089,34048
2090,32320
2091,31040
2092,30336
2093,30208
2094,30592
2095,31232
2096,32000
2097,32768
2098,33408
2099,33856
2100,34176
2101,34368
2102,34496
2103,34560
2104,34560
2105,34432
2106,34368
2107,34240
2108,34112
2109,34048
2110,33984
2111,33984
2112,33984
2113,33984
2114,33984
2115,33984
2116,33984
2117,33984
2118,33984
2119,33984
2120,33984
2121,34048
2122,34048
2123,34048
2124,34048
2125,34048
2126,34048
2127,34048
2128,34048
2129,34048
2130,34048
2131,34048
2132,34048
2133,34048
2134,33984
2135,33920
2136,33920
2137,33920
2138,33920
2139,33856
2140,33792
2141,33792
2142,33728
2143,33728
2144,33728
2145,33728
2146,33728
2147,33728
2148,33792
2149,33856
2150,33920
2151,33920
2152,33984
2153,34048
2154,34112
2155,34176
2156,34176
2157,34176
2158,34176
2159,34176
2160,34240
2161,34176
2162,34176
2163,34112
2164,34112
2165,34112
2166,34112
2167,34112
2168,34176
2169,34176
2170,34240
2171,34240
2172,34240
2173,34240
2174,34240
2175,34304
2176,34304
2177,34304
2178,34240
2179,34176
2180,34112
2181,34112
2182,34112
2183,34048
2184,34048
2185,33984
2186,33984
2187,33920
2188,33920
2189,33920
2190,33984
2191,33984
2192,33920
2193,33856
2194,33856
2195,33856
2196,33856
2197,33856
2198,33792
2199,33856
2200,33856
2201,33856
2202,33856
2203,33920
2204,33920
2205,33920
2206,33920
2207,33920
2208,33920
2209,33920
2210,33920
2211,33920
2212,33920
2213,33920
2214,34048
2215,34112
2216,34176
2217,34240
2218,34240
2219,34176
2220,34112
2221,34112
2222,34112
2223,34048
2224,34048
2225,34048
2226,34048
2227,33984
2228,33920
2229,33856
2230,33792
2231,33728
2232,33600
2233,33536
2234,33536
2235,33600
2236,33664
2237,33664
2238,33728
2239,33792
2240,33792
2241,33792
2242,33856
2243,33856
2244,33856
2245,33792
2246,33728
2247,33664
2248,33792
2249,33984
2250,34368
2251,34880
2252,35712
2253,36864
2254,38144
2255,38912
2256,39296
2257,38720
2258,37120
2259,35008
2260,33024
2261,31488
2262,30528
2263,30144
2264,30336
2265,30848
2266,31616
2267,32384
2268,33088
2269,33920
2270,34048
2271,34368
2272,34496
2273,34496
2274,34496
2275,34368
2276,34304
2277,34304
2278,34240
2279,34176
2280,34112
2281,34112
2282,34048
2283,34048
2284,34048
2285,33984
2286,34048
2287,34048
2288,33984
2289,33984
2290,33984
2291,33984
2292,33984
2293,33984
2294,33984
2295,34048
2296,34048
2297,33984
2298,34048
2299,34048
2300,34048
2301,34112
2302,34112
2303,34176
2304,34112
2305,34048
2306,33984
2307,33920
2308,33856
2309,33792
2310,33792
2311,33792
2312,33792
2313,33792
2314,33792
2315,33792
2316,33792
2317,33856
2318,33792
2319,33792
2320,33856
2321,33920
2322,33984
2323,34048
2324,34048
2325,34112
2326,34176
2327,34240
2328,34240
2329,34240
2330,34240
2331,34240
2332,34240
2333,34176
2334,34176
2335,34176
2336,34176
2337,34240
2338,34240
2339,34240
2340,34240
2341,34240
2342,34240
2343,34240
2344,34240
2345,34240
2346,34240
2347,34240
2348,34240
2349,34240
2350,34176
2351,34112
2352,34112
2353,34112
2354,34048
2355,34048
2356,34048
2357,34048
2358,34048
2359,33984
2360,33984
2361,33984
2362,33984
2363,33920
2364,33920
2365,33856
2366,33920
2367,33856
2368,33856
2369,33856
2370,33856
2371,33792
2372,33856
2373,33856
2374,33856
2375,33856
2376,33856
2377,33856
2378,33856
2379,33856
2380,33856
2381,33856
2382,33856
2383,33856
2384,33856
2385,33856
2386,33856
2387,33920
2388,33920
2389,33856
2390,33984
2391,34048
2392,34112
2393,34112
2394,34112
2395,34112
2396,34048
2397,34048
2398,34048
2399,34112
2400,34112
2401,34112
2402,34112
2403,34048
2404,33984
2405,33920
2406,33856
2407,33728
2408,33600
2409,33536
2410,33472
2411,33472
2412,33536
2413,33536
2414,33600
2415,33664
2416,33728
2417,33792
2418,33856
2419,33920
2420,33920
2421,33920
2422,33856
2423,33792
2424,33728
2425,33856
2426,34112
2427,34560
2428,35136
2429,36032
2430,37184
2431,38272
2432,38912
2433,38912
2434,37888
2435,36096
2436,34176
2437,32448
2438,31168
2439,30400
2440,30208
2441,30528
2442,31104
2443,31872
2444,32576
2445,33216
2446,33728
2447,34112
2448,34368
2449,34432
2450,34496
2451,34496
2452,34496
2453,34432
2454,34368
2455,34304
2456,34176
2457,34112
2458,34048
2459,33984
2460,33984
2461,33920
2462,33920
2463,33920
2464,33920
2465,33920
2466,33920
2467,33984
2468,33984
2469,34048
2470,34048
2471,34048
2472,34048
2473,34112
2474,34112
2475,34112
2476,34048
2477,34112
2478,34112
2479,34048
2480,34048
2481,33984
2482,33984
2483,33920
2484,33792
2485,33792
2486,33792
2487,33728
2488,33728
2489,33728
2490,33728
2491,33728
2492,33728
2493,33728
2494,33728
2495,33792
2496,33792
2497,33856
2498,33856
2499,33920
2500,33984
2501,34048
2502,34048
2503,34112
2504,34112
2505,34112
2506,34176
2507,34176
2508,34176
2509,34240
2510,34240
2511,34240
2512,34240
2513,34176
2514,34176
2515,34240
2516,34240
2517,34304
2518,34304
2519,34304
2520,34304
2521,34368
2522,34304
2523,34368
2524,34304
2525,34240
2526,34176
2527,34176
2528,34176
2529,34176
2530,34112
2531,34112
2532,34112
2533,34112
2534,34112
2535,34112
2536,34112
2537,34112
2538,34112
2539,34048
2540,34048
2541,33984
2542,33984
2543,33920
2544,33856
2545,33856
2546,33856
2547,33920
2548,33920
2549,33984
2550,33984
2551,33920
2552,33984
2553,33984
2554,33984
2555,33920
2556,33920
2557,33920
2558,33984
2559,33984
2560,33984
2561,34048
2562,34176
2563,34240
2564,34240
2565,34240
2566,34176
2567,34112
2568,34048
2569,34048
2570,34048
2571,34048
2572,34112
2573,34112
2574,34048
2575,34048
2576,33984
2577,33856
2578,33792
2579,33728
2580,33664
2581,33600
2582,33600
2583,33664
2584,33664
2585,33664
2586,33664
2587,33728
2588,33792
2589,33856
2590,33856
2591,33920
2592,33856
2593,33856
2594,33792
2595,33728
2596,33792
2597,33984
2598,34368
2599,34816
2600,35520
2601,36608
2602,37824
2603,38784
2604,39232
2605,38912
2606,37504
2607,35456
2608,33408
2609,31744
2610,30592
2611,30144
2612,30208
2613,30720
2614,31424
2615,32192
2616,32960
2617,33600
2618,34048
2619,34304
2620,34496
2621,34560
2622,34560
2623,34560
2624,34496
2625,34432
2626,34304
2627,34240
2628,34112
2629,34048
2630,33984
2631,33984
2632,33984
2633,33984
2634,34048
2635,34048
2636,34048
2637,34048
2638,34112
2639,34112
2640,34112
2641,34112
2642,34112
2643,34112
2644,34112
2645,34112
2646,34112
2647,34112
2648,34112
2649,34048
2650,34048
2651,33984
2652,33984
2653,33984
2654,33984
2655,33920
2656,33920
2657,33920
2658,33920
2659,33856
2660,33792
2661,33792
2662,33728
2663,33728
2664,33728
2665,33792
2666,33792
2667,33792
2668,33792
2669,33792
2670,33856
2671,33856
2672,33856
2673,33920
2674,34048
2675,34112
2676,34176
2677,34176
2678,34240
2679,34240
2680,34240
2681,34240
2682,34240
2683,34304
2684,34304
2685,34304
2686,34304
2687,34304
2688,34304
2689,34240
2690,34240
2691,34240
2692,34240
2693,34240
2694,34240
2695,34240
2696,34240
2697,34240
2698,34176
2699,34176
2700,34176
2701,34112
2702,34112
2703,34048
2704,34048
2705,33984
2706,33984
2707,33984
2708,33984
2709,33984
2710,33984
2711,33984
2712,33984
2713,33920
2714,33920
2715,33920
2716,33920
2717,33856
2718,33856
2719,33856
2720,33920
2721,33920
2722,33920
2723,33920
2724,33920
2725,33856
2726,33856
2727,33920
2728,33920
2729,33856
2730,33856
2731,33792
2732,33856
2733,33856
2734,33856
2735,33856
2736,33856
2737,33856
2738,33920
2739,33984
2740,34048
2741,34176
2742,34240
2743,34240
2744,34304
2745,34304
2746,34240
2747,34176
2748,34112
2749,34048
2750,34048
2751,34048
2752,34048
2753,34048
2754,34048
2755,33984
2756,33920
2757,33920
2758,33792
2759,33728
2760,33600
2761,33472
2762,33472
2763,33472
2764,33536
2765,33600
2766,33728
2767,33792
2768,33792
2769,33792
2770,33856
2771,33920
2772,33856
2773,33728
2774,33664
2775,33600
2776,33664
2777,33856
2778,34176
2779,34688
2780,35456
2781,36608
2782,37824
2783,38784
2784,39232
2785,38848
2786,37312
2787,35200
2788,33152
2789,31488
2790,30528
2791,30144
2792,30272
2793,30784
2794,31552
2795,32320
2796,33088
2797,33664
2798,34112
2799,34368
2800,34496
2801,34496
2802,34496
2803,34432
2804,34368
2805,34304
2806,34304
2807,34176
2808,34112
2809,34048
2810,34048
2811,33984
2812,33984
2813,33920
2814,33920
2815,33920
2816,34048
2817,34112
2818,34176
2819,34112
2820,34048
2821,34048
2822,33984
2823,33920
2824,33920
2825,33984
2826,33984
2827,33984
2828,34048
2829,33984
2830,33984
2831,33984
2832,33984
2833,33984
2834,33984
2835,33984
2836,33984
2837,33984
2838,33984
2839,33856
2840,33792
2841,33728
2842,33664
2843,33664
2844,33664
2845,33664
2846,33664
2847,33664
2848,33664
2849,33728
2850,33792
2851,33856
2852,33920
2853,34048
2854,34112
2855,34112
2856,34176
2857,34176
2858,34176
2859,34176
2860,34240
2861,34304
2862,34304
2863,34304
2864,34240
2865,34240
2866,34240
2867,34304
2868,34304
2869,34240
2870,34176
2871,34112
2872,34176
2873,34176
2874,34176
2875,34176
2876,34176
2877,34176
2878,34176
2879,34112
2880,34112
2881,34112
2882,34112
2883,34048
2884,34048
2885,33984
2886,33920
2887,33920
2888,33792
2889,33792
2890,33856
2891,33856
2892,33856
2893,33856
2894,33856
2895,33856
2896,33856
2897,33856
2898,33856
2899,33856
2900,33856
2901,33792
2902,33792
2903,33856
2904,33856
2905,33856
2906,33920
2907,33920
2908,33792
2909,33728
2910,33728
2911,33792
2912,33792
2913,33856
2914,33920
2915,33920
2916,33920
2917,33920
2918,33920
2919,33984
2920,34048
2921,34176
2922,34240
2923,34240
2924,34240
2925,34176
2926,34048
2927,33984
2928,33920
2929,33920
2930,33984
2931,33984
2932,33984
2933,34048
2934,33984
2935,33920
2936,33920
2937,33856
2938,33728
2939,33600
2940,33536
2941,33536
2942,33600
2943,33664
2944,33728
2945,33728
2946,33728
2947,33728
2948,33728
2949,33728
2950,33792
2951,33728
2952,33728
2953,33664
2954,33728
2955,33920
2956,34240
2957,34752
2958,35520
2959,36544
2960,37760
2961,38848
2962,39424
2963,39168
2964,37632
2965,35456
2966,33280
2967,31552
2968,30400
2969,29888
2970,30016
2971,30592
2972,31360
2973,32192
2974,32960
2975,33536
2976,33984
2977,34240
2978,34368
2979,34496
2980,34496
2981,34368
2982,34304
2983,34240
2984,34176
2985,34112
2986,34048
2987,34048
2988,33984
2989,33984
2990,33984
2991,33984
2992,33920
2993,33856
2994,33856
2995,33920
2996,33856
2997,33856
2998,33856
2999,33856
3000,33856
3001,33920
3002,33920
3003,33984
3004,33984
3005,33984
3006,33984
3007,33984
3008,33984
3009,33984
3010,33984
3011,33920
3012,33856
3013,33856
3014,33792
3015,33728
3016,33664
3017,33664
3018,33600
3019,33600
3020,33600
3021,33600
3022,33600
3023,33600
3024,33664
3025,33664
3026,33664
3027,33664
3028,33728
3029,33792
3030,33856
3031,33856
3032,33920
3033,33984
3034,34048
3035,34048
3036,34112
3037,34176
3038,34176
3039,34176
3040,34240
3041,34240
3042,34304
3043,34304
3044,34368
3045,34368
3046,34368
3047,34304
3048,34240
3049,34176
3050,34176
3051,34176
3052,34240
3053,34240
3054,34240
3055,34176
3056,34112
3057,34048
3058,34048
3059,34048
3060,33984
3061,33984
3062,33984
3063,33920
3064,33920
3065,33920
3066,33920
3067,33920
3068,33856
3069,33792
3070,33792
3071,33856
3072,33920
3073,33920
3074,33920
3075,33856
3076,33920
3077,33856
3078,33856
3079,33856
3080,33856
3081,33856
3082,33984
3083,34048
3084,34112
3085,34176
3086,34176
3087,34112
3088,33984
3089,33984
3090,34048
3091,34048
3092,34112
3093,34048
3094,33984
3095,33920
3096,33856
3097,33728
3098,33600
3099,33536
3100,33472
3101,33472
3102,33536
3103,33536
3104,33536
3105,33600
3106,33664
3107,33728
3108,33728
3109,33792
3110,33792
3111,33792
3112,33792
3113,33792
3114,33664
3115,33600
3116,33664
3117,33856
3118,34176
3119,34624
3120,35392
3121,36544
3122,37696
3123,38656
3124,39040
3125,38656
3126,37120
3127,35200
3128,33280
3129,31680
3130,30656
3131,30208
3132,30336
3133,30848
3134,31552
3135,32256
3136,32960
3137,33600
3138,33984
3139,34240
3140,34368
3141,34432
3142,34432
3143,34432
3144,34432
3145,34304
3146,34240
3147,34176
3148,34048
3149,33984
3150,33920
3151,33920
3152,33984
3153,34048
3154,34048
3155,33984
3156,33984
3157,34048
3158,34048
3159,34048
3160,34048
3161,34048
3162,34048
3163,34048
3164,34112
3165,34112
3166,34112
3167,34112
3168,34048
3169,34048
3170,34048
3171,34112
3172,34048
3173,33984
3174,33920
3175,33856
3176,33856
3177,33792
3178,33728
3179,33792
3180,33792
3181,33728
3182,33664
3183,33664
3184,33664
3185,33600
3186,33664
3187,33664
3188,33728
3189,33728
3190,33792
3191,33856
3192,33920
3193,33984
3194,34048
3195,34112
3196,34176
3197,34240
3198,34240
3199,34240
3200,34304
3201,34304
3202,34304
3203,34240
3204,34240
3205,34304
3206,34304
3207,34304
3208,34304
3209,34304
3210,34304
3211,34240
3212,34240
3213,34176
3214,34112
3215,34048
3216,34048
3217,34048
3218,34048
3219,33984
3220,33920
3221,33920
3222,33920
3223,33856
3224,33856
3225,33920
3226,33856
3227,33856
3228,33856
3229,33920
3230,33984
3231,33920
3232,33920
3233,33920
3234,33856
3235,33792
3236,33792
3237,33792
3238,33792
3239,33792
3240,33856
3241,33856
3242,33920
3243,33920
3244,33856
3245,33920
3246,33920
3247,33984
3248,34112
3249,34240
3250,34304
3251,34304
3252,34240
3253,34240
3254,34112
3255,34048
3256,33920
3257,33856
3258,33920
3259,33984
3260,33920
3261,33984
3262,33920
3263,33920
3264,33856
3265,33792
3266,33728
3267,33600
3268,33600
3269,33536
3270,33600
3271,33536
3272,33536
3273,33664
3274,33728
3275,33792
3276,33792
3277,33856
3278,33856
3279,33856
3280,33792
3281,33728
3282,33728
3283,33856
3284,34048
3285,34432
3286,35072
3287,36096
3288,37440
3289,38784
3290,39488
3291,39616
3292,38592
3293,36416
3294,34048
3295,32000
3296,30656
3297,30016
3298,30016
3299,30464
3300,31296
3301,32128
3302,32896
3303,33536
3304,34048
3305,34368
3306,34496
3307,34560
3308,34560
3309,34496
3310,34432
3311,34368
3312,34304
3313,34240
3314,34176
3315,34112
3316,34048
3317,34048
3318,34048
3319,34048
3320,34048
3321,34112
3322,34048
3323,34048
3324,34048
3325,34048
3326,34048
3327,33984
3328,33984
3329,34048
3330,34048
3331,34112
3332,34112
3333,34176
3334,34176
3335,34176
3336,34176
3337,34176
3338,34176
3339,34048
3340,33984
3341,33920
3342,33920
3343,33920
3344,33856
3345,33792
3346,33728
3347,33728
3348,33664
3349,33728
3350,33728
3351,33792
3352,33792
3353,33728
3354,33728
3355,33792
3356,33920
3357,33984
3358,34112
3359,34176
3360,34240
3361,34240
3362,34304
3363,34432
3364,34432
3365,34496
3366,34560
3367,34624
3368,34560
3369,34560
3370,34560
3371,34496
3372,34496
3373,34432
3374,34432
3375,34304
3376,34304
3377,34304
3378,34304
3379,34304
3380,34240
3381,34176
3382,34112
3383,34048
3384,33984
3385,33920
3386,33920
3387,33984
3388,33984
3389,33984
3390,33984
3391,34048
3392,34048
3393,34048
3394,33984
3395,33984
3396,34048
3397,33984
3398,33984
3399,33920
3400,33920
3401,33920
3402,33856
3403,33856
3404,33856
3405,33792
3406,33792
3407,33792
3408,33856
3409,33856
3410,33856
3411,33920
3412,33984
3413,34048
3414,34112
3415,34240
3416,34240
3417,34240
3418,34176
3419,34176
3420,34112
3421,34176
3422,34176
3423,34176
3424,34112
3425,34112
3426,33984
3427,33856
3428,33792
3429,33728
3430,33664
3431,33600
3432,33536
3433,33536
3434,33600
3435,33600
3436,33600
3437,33664
3438,33728
3439,33728
3440,33728
3441,33792
3442,33856
3443,33920
3444,33856
3445,33728
3446,33600
3447,33600
3448,33728
3449,33920
3450,34240
3451,34752
3452,35520
3453,36736
3454,37952
3455,38848
3456,39104
3457,38464
3458,36864
3459,34880
3460,32960
3461,31488
3462,30528
3463,30144
3464,30272
3465,30784
3466,31488
3467,32256
3468,33024
3469,33536
3470,33920
3471,34240
3472,34368
3473,34432
3474,34432
3475,34368
3476,34304
3477,34240
3478,34176
3479,34176
3480,34112
3481,34048
3482,33984
3483,33920
3484,33920
3485,33920
3486,33920
3487,33856
3488,33792
3489,33856
3490,33856
3491,33856
3492,33856
3493,33920
3494,33920
3495,33984
3496,34048
3497,34048
3498,34048
3499,34048
3500,34048
3501,33984
3502,33920
3503,33856
3504,33856
3505,33792
3506,33728
3507,33728
3508,33728
3509,33728
3510,33728
3511,33664
3512,33600
3513,33664
3514,33600
3515,33600
3516,33600
3517,33536
3518,33600
3519,33600
3520,33664
3521,33728
3522,33728
3523,33792
3524,33856
3525,33920
3526,33984
3527,33984
3528,34112
3529,34176
3530,34176
3531,34176
3532,34240
3533,34240
3534,34304
3535,34240
3536,34240
3537,34240
3538,34240
3539,34240
3540,34176
3541,34176
3542,34176
3543,34112
3544,34112
3545,34048
3546,33984
3547,33984
3548,33984
3549,33984
3550,33984
3551,33984
3552,33920
3553,33920
3554,33920
3555,33856
3556,33792
3557,33792
3558,33792
3559,33792
3560,33792
3561,33792
3562,33856
3563,33856
3564,33856
3565,33856
3566,33856
3567,33984
3568,34112
3569,34176
3570,34240
3571,34176
3572,34048
3573,33856
3574,33792
3575,33856
3576,33984
3577,34048
3578,34048
3579,34048
3580,33984
3581,33920
3582,33856
3583,33856
3584,33792
3585,33728
3586,33664
3587,33600
3588,33600
3589,33600
3590,33600
3591,33600
3592,33664
3593,33664
3594,33664
3595,33728
3596,33728
3597,33728
3598,33728
3599,33728
3600,33664
3601,33664
3602,33664
3603,33856
3604,34304
3605,34560
3606,35264
3607,36352
3608,37504
3609,38400
3610,38656
3611,38144
3612,36800
3613,35200
3614,33600
3615,32192
3616,31168
3617,30656
3618,30592
3619,30912
3620,31424
3621,32128
3622,32832
3623,33472
3624,33984
3625,34304
3626,34432
3627,34496
3628,34496
3629,34496
3630,34432
3631,34368
3632,34304
3633,34240
3634,34176
3635,34112
3636,34048
3637,33984
3638,33984
3639,33920
3640,33920
3641,33920
3642,33984
3643,34048
3644,34048
3645,34048
3646,34048
3647,34048
3648,34048
3649,34048
3650,34048
3651,34048
3652,34048
3653,33984
3654,33984
3655,33984
3656,33920
3657,33920
3658,33984
3659,33984
3660,33920
3661,33856
3662,33792
3663,33792
3664,33728
3665,33728
3666,33728
3667,33728
3668,33728
3669,33728
3670,33792
3671,33856
3672,33856
3673,33856
3674,33856
3675,33920
3676,33984
3677,34048
3678,34112
3679,34176
3680,34240
3681,34240
3682,34304
3683,34304
3684,34304
3685,34304
3686,34304
3687,34368
3688,34432
3689,34432
3690,34368
3691,34240
3692,34240
3693,34240
3694,34176
3695,34112
3696,34112
3697,34176
3698,34176
3699,34240
3700,34176
3701,34112
3702,34048
3703,34112
3704,34112
3705,34048
3706,33984
3707,33984
3708,33984
3709,33984
3710,33920
3711,33856
3712,33920
3713,33856
3714,33856
3715,33792
3716,33856
3717,33920
3718,33920
3719,33920
3720,33984
3721,34048
3722,34176
3723,34240
3724,34240
3725,34240
3726,34176
3727,34176
3728,34112
3729,34112
3730,34112
3731,34112
3732,34112
3733,34048
3734,34048
3735,33920
3736,33856
3737,33792
3738,33792
3739,33728
3740,33664
3741,33600
3742,33536
3743,33536
3744,33536
3745,33600
3746,33664
3747,33728
3748,33792
3749,33792
3750,33792
3751,33856
3752,33920
3753,33920
3754,33856
3755,33792
3756,33792
3757,33920
3758,34176
3759,34624
3760,35328
3761,36416
3762,37632
3763,38592
3764,39104
3765,38912
3766,37632
3767,35712
3768,33728
3769,32064
3770,30848
3771,30336
3772,30336
3773,30720
3774,31360
3775,32128
3776,32896
3777,33536
3778,34048
3779,34304
3780,34432
3781,34496
3782,34560
3783,34560
3784,34496
3785,34368
3786,34304
3787,34176
3788,34176
3789,34112
3790,34112
3791,34048
3792,34048
3793,33984
3794,33984
3795,34048
3796,34048
3797,34112
3798,34112
3799,34112
3800,34112
3801,34176
3802,34176
3803,34176
3804,34176
3805,34112
3806,34048
3807,34048
3808,34048
3809,34048
3810,33984
3811,33984
3812,34048
3813,34048
3814,33984
3815,33984
3816,33920
3817,33920
3818,33856
3819,33792
3820,33728
3821,33792
3822,33792
3823,33792
3824,33728
3825,33792
3826,33792
3827,33792
3828,33792
3829,33792
3830,33856
3831,33920
3832,33984
3833,34048
3834,34176
3835,34240
3836,34368
3837,34432
3838,34496
3839,34496
3840,34432
3841,34432
3842,34368
3843,34368
3844,34368
3845,34304
3846,34304
3847,34304
3848,34240
3849,34176
3850,34176
3851,34112
3852,34112
3853,34112
3854,34112
3855,34112
3856,34112
3857,34112
3858,34112
3859,34112
3860,34048
3861,33984
3862,34048
3863,34048
3864,34048
3865,33984
3866,33920
3867,33920
3868,33920
3869,33856
3870,33856
3871,33856
3872,33856
3873,33856
3874,33856
3875,33920
3876,33920
3877,33920
3878,33984
3879,33984
3880,34048
3881,34176
3882,34240
3883,34304
3884,34304
3885,34240
3886,34112
3887,34048
3888,33984
3889,33984
3890,33984
3891,34048
3892,34048
3893,33984
3894,33920
3895,33856
3896,33792
3897,33792
3898,33664
3899,33600
3900,33600
3901,33600
3902,33600
3903,33664
3904,33728
3905,33664
3906,33664
3907,33728
3908,33792
3909,33792
3910,33792
3911,33728
3912,33600
3913,33536
3914,33536
3915,33664
3916,33856
3917,34304
3918,34880
3919,36416
3920,37120
3921,38272
3922,39168
3923,39488
3924,38848
3925,37056
3926,34880
3927,32832
3928,31232
3929,30272
3930,30016
3931,30208
3932,30784
3933,31552
3934,32512
3935,33088
3936,33664
3937,34048
3938,34304
3939,34432
3940,34496
3941,34496
3942,34496
3943,34368
3944,34240
3945,34176
3946,34112
3947,34048
3948,33984
3949,33920
3950,33920
3951,33920
3952,33920
3953,33856
3954,33856
3955,33920
3956,33984
3957,33984
3958,33984
3959,34048
3960,34048
3961,34048
3962,34048
3963,34048
3964,34048
3965,34048
3966,33984
3967,33984
3968,34048
3969,33984
3970,33984
3971,33984
3972,33920
3973,33920
3974,33856
3975,33856
3976,33856
3977,33856
3978,33856
3979,33920
3980,33920
3981,33920
3982,33856
3983,33792
3984,33792
3985,33728
3986,33664
3987,33728
3988,33792
3989,33920
3990,33984
3991,34048
3992,34112
3993,34176
3994,34240
3995,34176
3996,34240
3997,34304
3998,34304
3999,34368
4000,34368
4001,34368
4002,34368
4003,34432
4004,34432
4005,34432
4006,34304
4007,34176
4008,34112
4009,34048
4010,33984
4011,33984
4012,34048
4013,34112
4014,34176
4015,34304
4016,34304
4017,34304
4018,34304
4019,34176
4020,34112
4021,34112
4022,34112
4023,34048
4024,33984
4025,33984
4026,34048
4027,34112
4028,33984
4029,33856
4030,33856
4031,33920
4032,33920
4033,33856
4034,33856
4035,33920
4036,33856
4037,33792
4038,33920
4039,34048
4040,34240
4041,34368
4042,34432
4043,34432
4044,34368
4045,34176
4046,34112
4047,34048
4048,33920
4049,33856
4050,33856
4051,33920
4052,33856
4053,33792
4054,33664
4055,33600
4056,33536
4057,33472
4058,33344
4059,33280
4060,33280
4061,33344
4062,33408
4063,33472
4064,33536
4065,33536
4066,33600
4067,33664
4068,33664
4069,33600
4070,33536
4071,33472
4072,33344
4073,33280
4074,33344
4075,33536
4076,33792
4077,34240
4078,35008
4079,36160
4080,37248
4081,37952
4082,38144
4083,37376
4084,35456
4085,33152
4086,31040
4087,29568
4088,28864
4089,28864
4090,29376
4091,30208
4092,31104
4093,32000
4094,32768
4095,33408
4096,33856
4097,34112
4098,34304
4099,34368
4100,34304
4101,34304
4102,34304
4103,34304
4104,34304
4105,34240
4106,34112
4107,34112
4108,34176
4109,34176
4110,34048
4111,33920
4112,33984
4113,33984
4114,34048
4115,33984
4116,33984
4117,34048
4118,34048
4119,34048
4120,34048
4121,34112
4122,34176
4123,34240
4124,34240
4125,34176
4126,34176
4127,34048
4128,33984
4129,33856
4130,33792
4131,33728
4132,33728
4133,33792
4134,33792
4135,33856
4136,33920
4137,33984
4138,34048
4139,34048
4140,34048
4141,34048
4142,34112
4143,34112
4144,34048
4145,34176
4146,34176
4147,34240
4148,34240
4149,34304
4150,34240
4151,34176
4152,34304
4153,34560
4154,34560
4155,34496
4156,34368
4157,34240
4158,34176
4159,34112
4160,34112
4161,34176
4162,34176
4163,34240
4164,34304
4165,34304
4166,34304
4167,34240
4168,34240
4169,34176
4170,34176
4171,34176
4172,34176
4173,34176
4174,34112
4175,34176
4176,34112
4177,34048
4178,33984
4179,33920
4180,33920
4181,33920
4182,33920
4183,34048
4184,34048
4185,34112
4186,34176
4187,34240
4188,34240
4189,34240
4190,34304
4191,34368
4192,34432
4193,34496
4194,34560
4195,34496
4196,34368
4197,34304
4198,34304
4199,34368
4200,34432
4201,34432
4202,34304
4203,34176
4204,34112
4205,34112
4206,34240
4207,34176
4208,34112
4209,33856
4210,33728
4211,33664
4212,33664
4213,33664
4214,33728
4215,33792
4216,33856
4217,33920
4218,33920
4219,33856
4220,33920
4221,33984
4222,33984
4223,33920
4224,33856
4225,33792
4226,33856
4227,33984
4228,34304
4229,34880
4230,35776
4231,37056
4232,38208
4233,39104
4234,39104
4235,38336
4236,36544
4237,34560
4238,32768
4239,31360
4240,30528
4241,30336
4242,30656
4243,31232
4244,31936
4245,32640
4246,33344
4247,33920
4248,34240
4249,34240
4250,34560
4251,34560
4252,34496
4253,34432
4254,34368
4255,34368
4256,34304
4257,34176
4258,34112
4259,34112
4260,34176
4261,34112
4262,34112
4263,34048
4264,34048
4265,34112
4266,34112
4267,34048
4268,33984
4269,33984
4270,34048
4271,34112
4272,34112
4273,34176
4274,34112
4275,34112
4276,34112
4277,34112
4278,34176
4279,34176
4280,34176
4281,34112
4282,34112
4283,33984
4284,33920
4285,33856
4286,33856
4287,33856
4288,33792
4289,33728
4290,33728
4291,33728
4292,33728
4293,33728
4294,33728
4295,33728
4296,33792
4297,33792
4298,33856
4299,33920
4300,34048
4301,34048
4302,33984
4303,33984
4304,34112
4305,34304
4306,34368
4307,34368
4308,34304
4309,34176
4310,34176
4311,34176
4312,34240
4313,34304
4314,34304
4315,34304
4316,34304
4317,34368
4318,34432
4319,34368
4320,34240
4321,34112
4322,34112
4323,34112
4324,34048
4325,34048
4326,34048
4327,33984
4328,33984
4329,33984
4330,33984
4331,33920
4332,33856
4333,33856
4334,33856
4335,33920
4336,33920
4337,33920
4338,33920
4339,33920
4340,33856
4341,33856
4342,33984
4343,34112
4344,34240
4345,34240
4346,34240
4347,34240
4348,34176
4349,34048
4350,34048
4351,34048
4352,34048
4353,33984
4354,33984
4355,33920
4356,33920
4357,33856
4358,33792
4359,33728
4360,33664
4361,33536
4362,33536
4363,33536
4364,33600
4365,33600
4366,33664
4367,33728
4368,33792
4369,33856
4370,33792
4371,33792
4372,33728
4373,33664
4374,33664
4375,33664
4376,33664
4377,33664
4378,33856
4379,34176
4380,34624
4381,35264
4382,36352
4383,37760
4384,38912
4385,39488
4386,39360
4387,38016
4388,35840
4389,33600
4390,31744
4391,30528
4392,30016
4393,30144
4394,30656
4395,31424
4396,32256
4397,33024
4398,33600
4399,34048
4400,34304
4401,34432
4402,34432
4403,34368
4404,34304
4405,34240
4406,34240
4407,34240
4408,34176
4409,34112
4410,34048
4411,33984
4412,33984
4413,33984
4414,34048
4415,33984
4416,33984
4417,33984
4418,33984
4419,33984
4420,34048
4421,33984
4422,33984
4423,33920
4424,33920
4425,33984
4426,34048
4427,34048
4428,34048
4429,34048
4430,34048
4431,33984
4432,33984
4433,33920
4434,33920
4435,33856
4436,33856
4437,33792
4438,33792
4439,33728
4440,33664
4441,33600
4442,33600
4443,33600
4444,33600
4445,33600
4446,33600
4447,33664
4448,33664
4449,33728
4450,33792
4451,33792
4452,33792
4453,33856
4454,33984
4455,34112
4456,34112
4457,34112
4458,34240
4459,34304
4460,34304
4461,34368
4462,34368
4463,34368
4464,34368
4465,34432
4466,34368
4467,34176
4468,34112
4469,34048
4470,33984
4471,33984
4472,33984
4473,34048
4474,33984
4475,33920
4476,33856
4477,33856
4478,33920
4479,33920
4480,33920
4481,33856
4482,33792
4483,33792
4484,33792
4485,33792
4486,33856
4487,33856
4488,33920
4489,33920
4490,34048
4491,34112
4492,34112
4493,34048
4494,33920
4495,33856
4496,33856
4497,33856
4498,33856
4499,33856
4500,33920
4501,33984
4502,34048
4503,33984
4504,33920
4505,33792
4506,33792
4507,33728
4508,33664
4509,33664
4510,33728
4511,33728
4512,33792
4513,33728
4514,33664
4515,33600
4516,33600
4517,33664
4518,33728
4519,33728
4520,33728
4521,33664
4522,33536
4523,33536
4524,33664
4525,33984
4526,34432
4527,35072
4528,36160
4529,37440
4530,38528
4531,39104
4532,38912
4533,37696
4534,35840
4535,33920
4536,32192
4537,30976
4538,30336
4539,30208
4540,30592
4541,31168
4542,31936
4543,32640
4544,33280
4545,33792
4546,34176
4547,34432
4548,34496
4549,34432
4550,34432
4551,34432
4552,34368
4553,34240
4554,34240
4555,34112
4556,34048
4557,33984
4558,33920
4559,33920
4560,33920
4561,33920
4562,33920
4563,33984
4564,33984
4565,33920
4566,33920
4567,33920
4568,33984
4569,33984
4570,34048
4571,34048
4572,34048
4573,34048
4574,34048
4575,34112
4576,34112
4577,33920
4578,33856
4579,33792
4580,33792
4581,33792
4582,33728
4583,33728
4584,33664
4585,33664
4586,33664
4587,33664
4588,33728
4589,33792
4590,33792
4591,33728
4592,33664
4593,33728
4594,33728
4595,33856
4596,33920
4597,33984
4598,33984
4599,33984
4600,34048
4601,34112
4602,34176
4603,34176
4604,34240
4605,34240
4606,34240
4607,34304
4608,34368
4609,34368
4610,34368
4611,34240
4612,34176
4613,34176
4614,34176
4615,34176
4616,34176
4617,34240
4618,34240
4619,34176
4620,34112
4621,34112
4622,34112
4623,34112
4624,34048
4625,33984
4626,33920
4627,33856
4628,33856
4629,33856
4630,33920
4631,33920
4632,33920
4633,33920
4634,33920
4635,33920
4636,33920
4637,33920
4638,33920
4639,33920
4640,33984
4641,34112
4642,34176
4643,34176
4644,34112
4645,34112
4646,34112
4647,34176
4648,34176
4649,34112
4650,34112
4651,33984
4652,33984
4653,33920
4654,33792
4655,33728
4656,33664
4657,33600
4658,33600
4659,33600
4660,33600
4661,33664
4662,33728
4663,33792
4664,33856
4665,33920
4666,33920
4667,33856
4668,33856
4669,33856
4670,33728
4671,33664
4672,33728
4673,33792
4674,33984
4675,34368
4676,35008
4677,36032
4678,37376
4679,38592
4680,39424
4681,39552
4682,38400
4683,36288
4684,33984
4685,32192
4686,30912
4687,30272
4688,30208
4689,30592
4690,31232
4691,32064
4692,32832
4693,33472
4694,33920
4695,34176
4696,34368
4697,34496
4698,34496
4699,34432
4700,34368
4701,34368
4702,34304
4703,34240
4704,34176
4705,34176
4706,34112
4707,34048
4708,33984
4709,33920
4710,33856
4711,33856
4712,33920
4713,33984
4714,33984
4715,34048
4716,34112
4717,34112
4718,34112
4719,34112
4720,34112
4721,34112
4722,34112
4723,34112
4724,34112
4725,34112
4726,34112
4727,34112
4728,34112
4729,33984
4730,33920
4731,33856
4732,33792
4733,33728
4734,33792
4735,33792
4736,33728
4737,33728
4738,33728
4739,33728
4740,33792
4741,33792
4742,33792
4743,33856
4744,33856
4745,33920
4746,34048
4747,34112
4748,34176
4749,34176
4750,34240
4751,34304
4752,34368
4753,34368
4754,34368
4755,34432
4756,34496
4757,34496
4758,34432
4759,34368
4760,34304
4761,34304
4762,34304
4763,34240
4764,34240
4765,34240
4766,34176
4767,34176
4768,34112
4769,34048
4770,34048
4771,34048
4772,34048
4773,34048
4774,34048
4775,33984
4776,33984
4777,33984
4778,33856
4779,33856
4780,33920
4781,33984
4782,34048
4783,34112
4784,34176
4785,34176
4786,34112
4787,34048
4788,34048
4789,34112
4790,34112
4791,34048
4792,34048
4793,33984
4794,33920
4795,33856
4796,33792
4797,33664
4798,33600
4799,33536
4800,33472
4801,33472
4802,33472
4803,33536
4804,33600
4805,33664
4806,33664
4807,33728
4808,33728
4809,33792
4810,33856
4811,33792
4812,33728
4813,33664
4814,33536
4815,33536
4816,33792
4817,34240
4818,34816
4819,35776
4820,37056
4821,38336
4822,39232
4823,39488
4824,38848
4825,37120
4826,35008
4827,33088
4828,31488
4829,30464
4830,30016
4831,30144
4832,30720
4833,31424
4834,32192
4835,32896
4836,33536
4837,33984
4838,34304
4839,34432
4840,34496
4841,34496
4842,34368
4843,34304
4844,34240
4845,34176
4846,34112
4847,34048
4848,33984
4849,33856
4850,33792
4851,33792
4852,33856
4853,33856
4854,33920
4855,33984
4856,33984
4857,33920
4858,33920
4859,33984
4860,34048
4861,34048
4862,34048
4863,34112
4864,34112
4865,34048
4866,33984
4867,33984
4868,33984
4869,33984
4870,33920
4871,33856
4872,33856
4873,33792
4874,33664
4875,33664
4876,33600
4877,33536
4878,33536
4879,33600
4880,33600
4881,33664
4882,33600
4883,33600
4884,33600
4885,33600
4886,33664
4887,33728
4888,33792
4889,33856
4890,33856
4891,33920
4892,33984
4893,34112
4894,34112
4895,34112
4896,34112
4897,34176
4898,34176
4899,34176
4900,34176
4901,34176
4902,34176
4903,34176
4904,34176
4905,34176
4906,34112
4907,34112
4908,34048
4909,34048
4910,34048
4911,33984
4912,33984
4913,33984
4914,33984
4915,33856
4916,33792
4917,33856
4918,33920
4919,33984
4920,33984
4921,33984
4922,34048
4923,34048
4924,34048
4925,33984
4926,33984
4927,33920
4928,33920
4929,33984
4930,34048
4931,34048
4932,34048
4933,34048
4934,33984
4935,33984
4936,33856
4937,33792
4938,33728
4939,33664
4940,33536
4941,33472
4942,33472
4943,33536
4944,33536
4945,33536
4946,33600
4947,33664
4948,33664
4949,33728
4950,33728
4951,33792
4952,33792
4953,33792
4954,33792
4955,33728
4956,33600
4957,33664
4958,33856
4959,34240
4960,34688
4961,35392
4962,36416
4963,37632
4964,38528
4965,38912
4966,38528
4967,37248
4968,35520
4969,33664
4970,32256
4971,31168
4972,30528
4973,30336
4974,30592
4975,31168
4976,31936
4977,32640
4978,33280
4979,33792
4980,34176
4981,34432
4982,34496
4983,34560
4984,34496
4985,34432
4986,34368
4987,34304
4988,34240
4989,34176
4990,34112
4991,33984
4992,33920
4993,33920
4994,33920
4995,33920
4996,33984
4997,33984
4998,34048
4999,34048
5000,34112
5001,34176
5002,34176
5003,34176
5004,34176
5005,34176
5006,34240
5007,34240
5008,34176
5009,34112
5010,34048
5011,33984
5012,33984
5013,33984
5014,33984
5015,33920
5016,33920
5017,33856
5018,33856
5019,33792
5020,33728
5021,33664
5022,33664
5023,33664
5024,33728
5025,33792
5026,33920
5027,33920
5028,33920
5029,33984
5030,34112
5031,34112
5032,34112
5033,34112
5034,34112
5035,34112
5036,34112
5037,34112
5038,34112
5039,34176
5040,34176
5041,34176
5042,34240
5043,34304
5044,34304
5045,34304
5046,34304
5047,34304
5048,34240
5049,34240
5050,34240
5051,34240
5052,34240
5053,34240
5054,34240
5055,34240
5056,34240
5057,34176
5058,34112
5059,34112
5060,34112
5061,34048
5062,34048
5063,33984
5064,34048
5065,34112
5066,34240
5067,34304
5068,34304
5069,34240
5070,34240
5071,34112
5072,34048
5073,34048
5074,34048
5075,34048
5076,34048
5077,34048
5078,33920
5079,33792
5080,33728
5081,33792
5082,33856
5083,33792
5084,33664
5085,33536
5086,33472
5087,33472
5088,33536
5089,33600
5090,33600
5091,33600
5092,33664
5093,33728
5094,33728
5095,33728
5096,33728
5097,33728
5098,33728
5099,33664
5100,33728
5101,33920
5102,34240
5103,34816
5104,35840
5105,36928
5106,38208
5107,39232
5108,39616
5109,39104
5110,37376
5111,35136
5112,33024
5113,31360
5114,30400
5115,30080
5116,30272
5117,30848
5118,31616
5119,32384
5120,33024
5121,33536
5122,33920
5123,34240
5124,34432
5125,34496
5126,34560
5127,34496
5128,34368
5129,34304
5130,34240
5131,34176
5132,34112
5133,34048
5134,33984
5135,34048
5136,34048
5137,34048
5138,33984
5139,33984
5140,33920
5141,33984
5142,34048
5143,34112
5144,34112
5145,34112
5146,34112
5147,34048
5148,34112
5149,34112
5150,34112
5151,34176
5152,34240
5153,34240
5154,34176
5155,34112
5156,34048
5157,34048
5158,34048
5159,33920
5160,33856
5161,33792
5162,33664
5163,33664
5164,33664
5165,33664
5166,33728
5167,33664
5168,33664
5169,33728
5170,33728
5171,33792
5172,33856
5173,33984
5174,34048
5175,34112
5176,34112
5177,34176
5178,34112
5179,34048
5180,34048
5181,33984
5182,34048
5183,34048
5184,34112
5185,34176
5186,34176
5187,34240
5188,34176
5189,34176
5190,34112
5191,34112
5192,34176
5193,34176
5194,34176
5195,34176
5196,34176
5197,34176
5198,34176
5199,34112
5200,34112
5201,34112
5202,34048
5203,34048
5204,33920
5205,33920
5206,33856
5207,33856
5208,33856
5209,33856
5210,33920
5211,33920
5212,33920
5213,33920
5214,33920
5215,33920
5216,34048
5217,34176
5218,34304
5219,34240
5220,34112
5221,33984
5222,33920
5223,33920
5224,33984
5225,33984
5226,33920
5227,33856
5228,33856
5229,33856
5230,33856
5231,33856
5232,33792
5233,33664
5234,33600
5235,33536
5236,33600
5237,33600
5238,33600
5239,33664
5240,33728
5241,33728
5242,33792
5243,33792
5244,33856
5245,33856
5246,33856
5247,33792
5248,33728
5249,33664
5250,33792
5251,34112
5252,34688
5253,35456
5254,36736
5255,38016
5256,39168
5257,39936
5258,39680
5259,38080
5260,35712
5261,33344
5262,31488
5263,30336
5264,29888
5265,30080
5266,30720
5267,31488
5268,32320
5269,33088
5270,33600
5271,33984
5272,34240
5273,34304
5274,34368
5275,34432
5276,34432
5277,34432
5278,34368
5279,34240
5280,34112
5281,34048
5282,34048
5283,34048
5284,34048
5285,34048
5286,34048
5287,33984
5288,33984
5289,33984
5290,34048
5291,34112
5292,34176
5293,34112
5294,34112
5295,34112
5296,34048
5297,34048
5298,34048
5299,34112
5300,34176
5301,34176
5302,34176
5303,34176
5304,34176
5305,34112
5306,33984
5307,33984
5308,33920
5309,33920
5310,33856
5311,33856
5312,33856
5313,33920
5314,33856
5315,33856
5316,33792
5317,33856
5318,33856
5319,33856
5320,33920
5321,33920
5322,33984
5323,34048
5324,34112
5325,34112
5326,34112
5327,34176
5328,34176
5329,34176
5330,34176
5331,34176
5332,34176
5333,34176
5334,34112
5335,34176
5336,34240
5337,34240
5338,34176
5339,34176
5340,34176
5341,34176
5342,34176
5343,34240
5344,34304
5345,34304
5346,34304
5347,34240
5348,34176
5349,34176
5350,34176
5351,34112
5352,34112
5353,34048
5354,33984
5355,33920
5356,33984
5357,34048
5358,34048
5359,34048
5360,34048
5361,33984
5362,34048
5363,34112
5364,34112
5365,34176
5366,34048
5367,33920
5368,33856
5369,33856
5370,33920
5371,34048
5372,34048
5373,33984
5374,33856
5375,33856
5376,33856
5377,33856
5378,33728
5379,33600
5380,33536
5381,33536
5382,33600
5383,33664
5384,33600
5385,33600
5386,33600
5387,33600
5388,33664
5389,33728
5390,33728
5391,33792
5392,33792
5393,33792
5394,33792
5395,33728
5396,33664
5397,33792
5398,34112
5399,34560
5400,35264
5401,36352
5402,37696
5403,38848
5404,39360
5405,39168
5406,37824
5407,35840
5408,33728
5409,32000
5410,30784
5411,30208
5412,30208
5413,30592
5414,31296
5415,32064
5416,32832
5417,33472
5418,33984
5419,34304
5420,34368
5421,34432
5422,34432
5423,34304
5424,34176
5425,34112
5426,34112
5427,34048
5428,34048
5429,33984
5430,33984
5431,33984
5432,33984
5433,33984
5434,34048
5435,34048
5436,34112
5437,34048
5438,33984
5439,34048
5440,34112
5441,33984
5442,33984
5443,33984
5444,34048
5445,34048
5446,34048
5447,34048
5448,34112
5449,34112
5450,34048
5451,33984
5452,33984
5453,33920
5454,33856
5455,33856
5456,33920
5457,33920
5458,33856
5459,33792
5460,33792
5461,33792
5462,33728
5463,33728
5464,33728
5465,33664
5466,33664
5467,33664
5468,33792
5469,33920
5470,34048
5471,34048
5472,34048
5473,34048
5474,33984
5475,33984
5476,33984
5477,34048
5478,34112
5479,34176
5480,34176
5481,34112
5482,34112
5483,34112
5484,34176
5485,34240
5486,34240
5487,34176
5488,34112
5489,34176
5490,34176
5491,34176
5492,34176
5493,34176
5494,34176
5495,34176
5496,34176
5497,34176
5498,34112
5499,34048
5500,34048
5501,33984
5502,34048
5503,33984
5504,33856
5505,33792
5506,33792
5507,33792
5508,33856
5509,33856
5510,33856
5511,33856
5512,33792
5513,33792
5514,33792
5515,33856
5516,33920
5517,33920
5518,33920
5519,33920
5520,33856
5521,33856
5522,33856
5523,33856
5524,33856
5525,33856
5526,33920
5527,33920
5528,34048
5529,34112
5530,34112
5531,34112
5532,34048
5533,33984
5534,33920
5535,33984
5536,33984
5537,33984
5538,33920
5539,33984
5540,33984
5541,33984
5542,33920
5543,33856
5544,33792
5545,33728
5546,33728
5547,33728
5548,33728
5549,33792
5550,33792
5551,33792
5552,33856
5553,33856
5554,33856
5555,33856
5556,33856
5557,33920
5558,33856
5559,33728
5560,33728
5561,33856
5562,34176
5563,34624
5564,35328
5565,36416
5566,37760
5567,38912
5568,39680
5569,39104
5570,38080
5571,35904
5572,33664
5573,31872
5574,30656
5575,30080
5576,30208
5577,30720
5578,31424
5579,32256
5580,33024
5581,33600
5582,33984
5583,34240
5584,34432
5585,34432
5586,34432
5587,34432
5588,34432
5589,34432
5590,34368
5591,34304
5592,34240
5593,34176
5594,34112
5595,34048
5596,34048
5597,33984
5598,34048
5599,34048
5600,33984
5601,34048
5602,34048
5603,34048
5604,34048
5605,34112
5606,34176
5607,34240
5608,34240
5609,34240
5610,34240
5611,34240
5612,34176
5613,34176
5614,34176
5615,34176
5616,34176
5617,34176
5618,34048
5619,33984
5620,33920
5621,33792
5622,33856
5623,33920
5624,33920
5625,33920
5626,33856
5627,33856
5628,33856
5629,33920
5630,33920
5631,33920
5632,33984
5633,33984
5634,33984
5635,34048
5636,34048
5637,33984
5638,33984
5639,33984
5640,34048
5641,34112
5642,34176
5643,34176
5644,34176
5645,34176
5646,34176
5647,34176
5648,34240
5649,34240
5650,34304
5651,34304
5652,34240
5653,34176
5654,34176
5655,34176
5656,34112
5657,34112
5658,34176
5659,34112
5660,34112
5661,34048
5662,34048
5663,34048
5664,34048
5665,33984
5666,33920
5667,33920
5668,33984
5669,33920
5670,33920
5671,33920
5672,33920
5673,33856
5674,33792
5675,33792
5676,33856
5677,33984
5678,34112
5679,34112
5680,34112
5681,33984
5682,33920
5683,33984
5684,33984
5685,34048
5686,34048
5687,34112
5688,34112
5689,34048
5690,33984
5691,33920
5692,33792
5693,33664
5694,33536
5695,33472
5696,33408
5697,33408
5698,33472
5699,33472
5700,33472
5701,33472
5702,33536
5703,33664
5704,33728
5705,33728
5706,33792
5707,33856
5708,33856
5709,33792
5710,33728
5711,33664
5712,33792
5713,33984
5714,34240
5715,34816
5716,35776
5717,37056
5718,38208
5719,39040
5720,39104
5721,38080
5722,36288
5723,34240
5724,32384
5725,31104
5726,30336
5727,30208
5728,30528
5729,31168
5730,31872
5731,32640
5732,33280
5733,33920
5734,34368
5735,34368
5736,34368
5737,34432
5738,34432
5739,34368
5740,34304
5741,34240
5742,34176
5743,34176
5744,34112
5745,34112
5746,34048
5747,33984
5748,33984
5749,33984
5750,33984
5751,33984
5752,33984
5753,33984
5754,33984
5755,34048
5756,34112
5757,34176
5758,34240
5759,34176
5760,34176
5761,34176
5762,34176
5763,34240
5764,34176
5765,34176
5766,34176
5767,34112
5768,34112
5769,34048
5770,34048
5771,33984
5772,33984
5773,33984
5774,33856
5775,33792
5776,33728
5777,33728
5778,33792
5779,33856
5780,33856
5781,33856
5782,33856
5783,33920
5784,33920
5785,33984
5786,34048
5787,34112
5788,34048
5789,34048
5790,34048
5791,34048
5792,34112
5793,34112
5794,34112
5795,34048
5796,34112
5797,34112
5798,34112
5799,34176
5800,34240
5801,34240
5802,34240
5803,34176
5804,34176
5805,34176
5806,34240
5807,34240
5808,34240
5809,34176
5810,34112
5811,34112
5812,34112
5813,34048
5814,34048
5815,33984
5816,33984
5817,33920
5818,33920
5819,33984
5820,33984
5821,33984
5822,33920
5823,33920
5824,33856
5825,33856
5826,33856
5827,33856
5828,33856
5829,33792
5830,33792
5831,33792
5832,33856
5833,33920
5834,33920
5835,33984
5836,34112
5837,34240
5838,34304
5839,34240
5840,34176
5841,34112
5842,34048
5843,34048
5844,34048
5845,34048
5846,34112
5847,34048
5848,34048
5849,33984
5850,33920
5851,33856
5852,33792
5853,33664
5854,33600
5855,33536
5856,33536
5857,33600
5858,33600
5859,33600
5860,33600
5861,33664
5862,33728
5863,33728
5864,33728
5865,33792
5866,33856
5867,33792
5868,33792
5869,33728
5870,33792
5871,33920
5872,34240
5873,34752
5874,35520
5875,36608
5876,37824
5877,38784
5878,39232
5879,38784
5880,37248
5881,35264
5882,33344
5883,31808
5884,30400
5885,30272
5886,30336
5887,30848
5888,31552
5889,32256
5890,32960
5891,33536
5892,33920
5893,34176
5894,34368
5895,34496
5896,34496
5897,34496
5898,34432
5899,34368
5900,34304
5901,34176
5902,34112
5903,34048
5904,34048
5905,33984
5906,33920
5907,33920
5908,33984
5909,33984
5910,33984
5911,34048
5912,34048
5913,33984
5914,33984
5915,34048
5916,34112
5917,34176
5918,34176
5919,34176
5920,34176
5921,34176
5922,34112
5923,34048
5924,34048
5925,34048
5926,34048
5927,34048
5928,34048
5929,34048
5930,34048
5931,33984
5932,33920
5933,33920
5934,33856
5935,33792
5936,33728
5937,33792
5938,33856
5939,33856
5940,33920
5941,33984
5942,34048
5943,34112
5944,34176
5945,34112
5946,34112
5947,34048
5948,34048
5949,34048
5950,33984
5951,33984
5952,33984
5953,33920
5954,33920
5955,33984
5956,33984
5957,34112
5958,34176
5959,34304
5960,34240
5961,34176
5962,34112
5963,34112
5964,34176
5965,34176
5966,34240
5967,34240
5968,34176
5969,34176
5970,34112
5971,34112
5972,34112
5973,34048
5974,34048
5975,33984
5976,33984
5977,33920
5978,33856
5979,33728
5980,33664
5981,33664
5982,33728
5983,33792
5984,33856
5985,33920
5986,33920
5987,33920
5988,33984
5989,33984
5990,33984
5991,34112
5992,34112
5993,34048
5994,34048
5995,34112
5996,34112
5997,34048
5998,34048
5999,33984
6000,33920
6001,33792
6002,33728
6003,33664
6004,33600
6005,33536
6006,33472
6007,33472
6008,33472
6009,33472
6010,33600
6011,33664
6012,33664
6013,33728
6014,33728
6015,33792
6016,33792
6017,33856
6018,33920
6019,33856
6020,33792
6021,33664
6022,33728
6023,33856
6024,34176
6025,34624
6026,35456
6027,36608
6028,37760
6029,38592
6030,38784
6031,38144
6032,36544
6033,34432
6034,34112
6035,31680
6036,30784
6037,30400
6038,30528
6039,31040
6040,31744
6041,32448
6042,33152
6043,33728
6044,34112
6045,34304
6046,34432
6047,34432
6048,34432
6049,34368
6050,34368
6051,34368
6052,34304
6053,34240
6054,34176
6055,34112
6056,34112
6057,34112
6058,34048
6059,34048
6060,34048
6061,34112
6062,34112
6063,34048
6064,33984
6065,33984
6066,34112
6067,34048
6068,34112
6069,34176
6070,34304
6071,34304
6072,34304
6073,34304
6074,34240
6075,34176
6076,34112
6077,34112
6078,34048
6079,33984
6080,33984
6081,34048
6082,34048
6083,34048
6084,34048
6085,34048
6086,33984
6087,33984
6088,33920
6089,33856
6090,33792
6091,33792
6092,33856
6093,33920
6094,33856
6095,33984
6096,34048
6097,34048
6098,34048
6099,34048
6100,34048
6101,33984
6102,33984
6103,33984
6104,33984
6105,33920
6106,33920
6107,33920
6108,33984
6109,33920
6110,33984
6111,33984
6112,34048
6113,34112
6114,34176
6115,34240
6116,34240
6117,34176
6118,34176
6119,34176
6120,34176
6121,34112
6122,34048
6123,34112
6124,34048
6125,34112
6126,34112
6127,34112
6128,34048
6129,33984
6130,33920
6131,33920
6132,33856
6133,33856
6134,33792
6135,33856
6136,33856
6137,33856
6138,33792
6139,33728
6140,33728
6141,33792
6142,33856
6143,33856
6144,33920
6145,33984
6146,34112
6147,34176
6148,34176
6149,34176
6150,34112
6151,34048
6152,33984
6153,33920
6154,33920
6155,33984
6156,34048
6157,34048
6158,33984
6159,33984
6160,33920
6161,33856
6162,33728
6163,33600
6164,33536
6165,33536
6166,33536
6167,33536
6168,33664
6169,33600
6170,33600
6171,33664
6172,33728
6173,33792
6174,33856
6175,33856
6176,33856
6177,33856
6178,33728
6179,33664
6180,33664
6181,33920
6182,34240
6183,34816
6184,35520
6185,36672
6186,37952
6187,38976
6188,39552
6189,39232
6190,37632
6191,35392
6192,33216
6193,31488
6194,30400
6195,30016
6196,30208
6197,30784
6198,32064
6199,32128
6200,33088
6201,33664
6202,34112
6203,34368
6204,34496
6205,34496
6206,34432
6207,34368
6208,34368
6209,34368
6210,34304
6211,34176
6212,34048
6213,33984
6214,33920
6215,34048
6216,34048
6217,34048
6218,34048
6219,34112
6220,34112
6221,34048
6222,34048
6223,34048
6224,34112
6225,34112
6226,34176
6227,34304
6228,34304
6229,34240
6230,34240
6231,34240
6232,34240
6233,34176
6234,34176
6235,34176
6236,34176
6237,34176
6238,34176
6239,34112
6240,34112
6241,34048
6242,34048
6243,34048
6244,34048
6245,34048
6246,34048
6247,34048
6248,34048
6249,34048
6250,34048
6251,34048
6252,34112
6253,34176
6254,34176
6255,34176
6256,34176
6257,34112
6258,34112
6259,34048
6260,34048
6261,34112
6262,34112
6263,34048
6264,33984
6265,33984
6266,33920
6267,33920
6268,33984
6269,34112
6270,34176
6271,34176
6272,34176
6273,34176
6274,34176
6275,34176
6276,34176
6277,34176
6278,34112
6279,34112
6280,34048
6281,34048
6282,34048
6283,34112
6284,34112
6285,34112
6286,34048
6287,34048
6288,33984
6289,33984
6290,33920
6291,33920
6292,33856
6293,33856
6294,33856
6295,33856
6296,33856
6297,33856
6298,33856
6299,33920
6300,33920
6301,33856
6302,33792
6303,33856
6304,33856
6305,33920
6306,34048
6307,34112
6308,34176
6309,34176
6310,34112
6311,34112
6312,34112
6313,34112
6314,34112
6315,34112
6316,34048
6317,33984
6318,33984
6319,33920
6320,33856
6321,33728
6322,33600
6323,33536
6324,33408
6325,33344
6326,33408
6327,33472
6328,33600
6329,33664
6330,33728
6331,33728
6332,33792
6333,33792
6334,33792
6335,33792
6336,33792
6337,33792
6338,33728
6339,33664
6340,33728
6341,33920
6342,34240
6343,34688
6344,35456
6345,36544
6346,37760
6347,38720
6348,39232
6349,38784
6350,37248
6351,35264
6352,33280
6353,31680
6354,30592
6355,30080
6356,30144
6357,30720
6358,31424
6359,32192
6360,32960
6361,33600
6362,33984
6363,34240
6364,34432
6365,34432
6366,34496
6367,34496
6368,34432
6369,34304
6370,34176
6371,34048
6372,33984
6373,33984
6374,33984
6375,33920
6376,33920
6377,33920
6378,33984
6379,33984
6380,34048
6381,34048
6382,34048
6383,33984
6384,33984
6385,34048
6386,34112
6387,34112
6388,34112
6389,34176
6390,34176
6391,34176
6392,34112
6393,34112
6394,34112
6395,34112
6396,34048
6397,34048
6398,34048
6399,33984
6400,33920
6401,33920
6402,33856
6403,33856
6404,33920
6405,33920
6406,33984
6407,33984
6408,33984
6409,33984
6410,33920
6411,33920
6412,33920
6413,33920
6414,33984
6415,34048
6416,33984
6417,33920
6418,33920
6419,33920
6420,33920
6421,33856
6422,33792
6423,33792
6424,33792
6425,33792
6426,33792
6427,33856
6428,33920
6429,33920
6430,33984
6431,34048
6432,34112
6433,34176
6434,34176
6435,34112
6436,34112
6437,34048
6438,34048
6439,33984
6440,34048
6441,33984
6442,33984
6443,33920
6444,33920
6445,33984
6446,33984
6447,33984
6448,33920
6449,33856
6450,33792
6451,33728
6452,33728
6453,33728
6454,33664
6455,33600
6456,33664
6457,33792
6458,33856
6459,33920
6460,33984
6461,34048
6462,34048
6463,34048
6464,34048
6465,33984
6466,33920
6467,33856
6468,33920
6469,33920
6470,33920
6471,33920
6472,33920
6473,33920
6474,33920
6475,33856
6476,33792
6477,33664
6478,33536
6479,33472
6480,33472
6481,33536
6482,33600
6483,33600
6484,33536
6485,33472
6486,33536
6487,33536
6488,33600
6489,33664
6490,33728
6491,33728
6492,33728
6493,33728
6494,33664
6495,33600
6496,33600
6497,33792
6498,34176
6499,34624
6500,35328
6501,36288
6502,37440
6503,38336
6504,38784
6505,38400
6506,37056
6507,35328
6508,33664
6509,32192
6510,31104
6511,30464
6512,30400
6513,30720
6514,31360
6515,32000
6516,32704
6517,33344
6518,33856
6519,34240
6520,34432
6521,34560
6522,34560
6523,34496
6524,34368
6525,34304
6526,34240
6527,34240
6528,34176
6529,34112
6530,34048
6531,33984
6532,34048
6533,34048
6534,34048
6535,34048
6536,33984
6537,34048
6538,34112
6539,34112
6540,34048
6541,34048
6542,34048
6543,34176
6544,34240
6545,34240
6546,34240
6547,34240
6548,34176
6549,34240
6550,34240
6551,34176
6552,34176
6553,34176
6554,34176
6555,34112
6556,34048
6557,34048
6558,34048
6559,34048
6560,34048
6561,34048
6562,34048
6563,33984
6564,33920
6565,33920
6566,33920
6567,33984
6568,34048
6569,34048
6570,34112
6571,34176
6572,34176
6573,34176
6574,34112
6575,34048
6576,33984
6577,33920
6578,33856
6579,33792
6580,33856
6581,33856
6582,33856
6583,33920
6584,33920
6585,33984
6586,34048
6587,34112
6588,34112
6589,34176
6590,34176
6591,34240
6592,34240
6593,34240
6594,34176
6595,34112
6596,34112
6597,34048
6598,34048
6599,34112
6600,34176
6601,34176
6602,34112
6603,34112
6604,34048
6605,33984
6606,33984
6607,33920
6608,33856
6609,33792
6610,33728
6611,33728
6612,33792
6613,33792
6614,33792
6615,33856
6616,33920
6617,33984
6618,34048
6619,34176
6620,34176
6621,34176
6622,34112
6623,34048
6624,34048
6625,34048
6626,34048
6627,34048
6628,34048
6629,34112
6630,34048
6631,33984
6632,33856
6633,33728
6634,33600
6635,33536
6636,33408
6637,33408
6638,33472
6639,33536
6640,33600
6641,33664
6642,33728
6643,33728
6644,33792
6645,33856
6646,33792
6647,33792
6648,33792
6649,33792
6650,33728
6651,33664
6652,33728
6653,33920
6654,34240
6655,34816
6656,35584
6657,36672
6658,37952
6659,38848
6660,39232
6661,38784
6662,37248
6663,35200
6664,33152
6665,31616
6666,30592
6667,30208
6668,30272
6669,30784
6670,31424
6671,32192
6672,32960
6673,33600
6674,34112
6675,34368
6676,34560
6677,34624
6678,34688
6679,34688
6680,34624
6681,34496
6682,34368
6683,34304
6684,34112
6685,33856
6686,33728
6687,33728
6688,33728
6689,33792
6690,33792
6691,33856
6692,33920
6693,33984
6694,34048
6695,34048
6696,34112
6697,34176
6698,34176
6699,34240
6700,34176
6701,34176
6702,34176
6703,34176
6704,34176
6705,34112
6706,34048
6707,34048
6708,34048
6709,34048
6710,34048
6711,34112
6712,34176
6713,34112
6714,34112
6715,34048
6716,34048
6717,34048
6718,33984
6719,33984
6720,33920
6721,33920
6722,33984
6723,33984
6724,34048
6725,34048
6726,34048
6727,34048
6728,34048
6729,34048
6730,33920
6731,33856
6732,33856
6733,33856
6734,33920
6735,33920
6736,33792
6737,33664
6738,33600
6739,33664
6740,33728
6741,33856
6742,33792
6743,33792
6744,33856
6745,34048
6746,34112
6747,34176
6748,34176
6749,34176
6750,34048
6751,33984
6752,33984
6753,33920
6754,33920
6755,33856
6756,33728
6757,33408
6758,32896
6759,32576
6760,32768
6761,33600
6762,34496
6763,35008
6764,34944
6765,34624
6766,34240
6767,33920
6768,33728
6769,33664
6770,33664
6771,33664
6772,33664
6773,33344
6774,33088
6775,32960
6776,32832
6777,32704
6778,32640
6779,32768
6780,33152
6781,33600
6782,33920
6783,34368
6784,34496
6785,34496
6786,34304
6787,34112
6788,33920
6789,33920
6790,33856
6791,33728
6792,33728
6793,33728
6794,33728
6795,33600
6796,33536
6797,33536
6798,33600
6799,33728
6800,33728
6801,33728
6802,33728
6803,33792
6804,33792
6805,33920
6806,33984
6807,34048
6808,34112
6809,34048
6810,33920
6811,33984
6812,34048
6813,33920
6814,33856
6815,33856
6816,33984
6817,34240
6818,34496
6819,34944
6820,35776
6821,37056
6822,38400
6823,39232
6824,39424
6825,38656
6826,36928
6827,34816
6828,32768
6829,31104
6830,30272
6831,30080
6832,30464
6833,31168
6834,32000
6835,32832
6836,33472
6837,33792
6838,34048
6839,34240
6840,34304
6841,34368
6842,34496
6843,34624
6844,34688
6845,34624
6846,34496
6847,34368
6848,34368
6849,34304
6850,34176
6851,34176
6852,34112
6853,34112
6854,33984
6855,33856
6856,33856
6857,33920
6858,34048
6859,34176
6860,34240
6861,34304
6862,34304
6863,34240
6864,34240
6865,34368
6866,34432
6867,34496
6868,34432
6869,34368
6870,34304
6871,34240
6872,34240
6873,34240
6874,34240
6875,34240
6876,34240
6877,34304
6878,34304
6879,34240
6880,34368
6881,34368
6882,34304
6883,34176
6884,34112
6885,34112
6886,34112
6887,34048
6888,34176
6889,34240
6890,34432
6891,34496
6892,34432
6893,34304
6894,34240
6895,34176
6896,34112
6897,33984
6898,33920
6899,33920
6900,33792
6901,33792
6902,33792
6903,33856
6904,34048
6905,34048
6906,34048
6907,34048
6908,33984
6909,34048
6910,34176
6911,34240
6912,34240
6913,33984
6914,34048
6915,34240
6916,34304
6917,34304
6918,34112
6919,33984
6920,33920
6921,33856
6922,33792
6923,33920
6924,33984
6925,33984
6926,33984
6927,33856
6928,33664
6929,33600
6930,33600
6931,33600
6932,33472
6933,33472
6934,33472
6935,33472
6936,33536
6937,33664
6938,33856
6939,33984
6940,33984
6941,33984
6942,33920
6943,33856
6944,33728
6945,33728
6946,33664
6947,33600
6948,33664
6949,33920
6950,34112
6951,34048
6952,34048
6953,34048
6954,33984
6955,33856
6956,33728
6957,33856
6958,33984
6959,34112
6960,34048
6961,33920
6962,33792
6963,33792
6964,33600
6965,33408
6966,33280
6967,33216
6968,33152
6969,33344
6970,33472
6971,33472
6972,33408
6973,33344
6974,33536
6975,33664
6976,33792
6977,33792
6978,33728
6979,33728
6980,33664
6981,33536
6982,33472
6983,33408
6984,33664
6985,34048
6986,34560
6987,35200
6988,36096
6989,37312
6990,38464
6991,39296
6992,39360
6993,38080
6994,35648
6995,33792
6996,31872
6997,30528
6998,29888
6999,29952
7000,30400
7001,31168
7002,31936
7003,32704
7004,33344
7005,33728
7006,34048
7007,34304
7008,34432
7009,34560
7010,34560
7011,34560
7012,34432
7013,34112
7014,33792
7015,33600
7016,33728
7017,33984
7018,34240
7019,34304
7020,34304
7021,34240
7022,34176
7023,34176
7024,34048
7025,34048
7026,34112
7027,34112
7028,34112
7029,34112
7030,34112
7031,34048
7032,33664
7033,33024
7034,32640
7035,32896
7036,33600
7037,34240
7038,34688
7039,34816
7040,34688
7041,34432
7042,34048
7043,33792
7044,33600
7045,33216
7046,32768
7047,32256
7048,31296
7049,30464
7050,30528
7051,31168
7052,32000
7053,32704
7054,33344
7055,33792
7056,34176
7057,34496
7058,34880
7059,35264
7060,35520
7061,35456
7062,35136
7063,34816
7064,34624
7065,34560
7066,34368
7067,34240
7068,34176
7069,33920
7070,33728
7071,33728
7072,34112
7073,34304
7074,34432
7075,34560
7076,34688
7077,34752
7078,34624
7079,34560
7080,34688
7081,34752
7082,34688
7083,34560
7084,34368
7085,34304
7086,34304
7087,34496
7088,34432
7089,34112
7090,33856
7091,33984
7092,34368
7093,34752
7094,34816
7095,34752
7096,34560
7097,34432
7098,34240
7099,34176
7100,34176
7101,34176
7102,34432
7103,34688
7104,34752
7105,34560
7106,34432
7107,34304
7108,34240
7109,34240
7110,34304
7111,34304
7112,34240
7113,34368
7114,34560
7115,34688
7116,34624
7117,34496
7118,34304
7119,34176
7120,34048
7121,33984
7122,33984
7123,33920
7124,33728
7125,33600
7126,33472
7127,33536
7128,33728
7129,33792
7130,33920
7131,33856
7132,33728
7133,33856
7134,34112
7135,34304
7136,34304
7137,34240
7138,34176
7139,34240
7140,34304
7141,34240
7142,34240
7143,34176
7144,34304
7145,34432
7146,34624
7147,35072
7148,35904
7149,37184
7150,38400
7151,39104
7152,39040
7153,37888
7154,36224
7155,34432
7156,32832
7157,31552
7158,30848
7159,30592
7160,30720
7161,31104
7162,31616
7163,32320
7164,33216
7165,33984
7166,34432
7167,34752
7168,35008
7169,34880
7170,34688
7171,34368
7172,34048
7173,33920
7174,34176
7175,34304
7176,34496
7177,34624
7178,34560
7179,34432
7180,34368
7181,34368
7182,34304
7183,34112
7184,33920
7185,33920
7186,34176
7187,34496
7188,34432
7189,34304
7190,34368
7191,34560
7192,34752
7193,34880
7194,34880
7195,34688
7196,34496
7197,34304
7198,34240
7199,34240
7200,34048
7201,33856
7202,33856
7203,33792
7204,33792
7205,33920
7206,34048
7207,34048
7208,33984
7209,33920
7210,33984
7211,34112
7212,34176
7213,34240
7214,34240
7215,34176
7216,33984
7217,33792
7218,33792
7219,34112
7220,34304
7221,34304
7222,34048
7223,33664
7224,33536
7225,33664
7226,33920
7227,33984
7228,34112
7229,34368
7230,34496
7231,34560
7232,34560
7233,34432
7234,34368
7235,34304
7236,34176
7237,34176
7238,34112
7239,34112
7240,34112
7241,34048
7242,33920
7243,33856
7244,33664
7245,33472
7246,33472
7247,33472
7248,33600
7249,33728
7250,33856
7251,33920
7252,33792
7253,33792
7254,33920
7255,34112
7256,34176
7257,34176
7258,34240
7259,34176
7260,34112
7261,34048
7262,33920
7263,33792
7264,33664
7265,33664
7266,33664
7267,33728
7268,33728
7269,33728
7270,33792
7271,33856
7272,33920
7273,33984
7274,33984
7275,34048
7276,34112
7277,34176
7278,34176
7279,34240
7280,34304
7281,34240
7282,34112
7283,34048
7284,33920
7285,33920
7286,33856
7287,33792
7288,33728
7289,33728
7290,33664
7291,33600
7292,33536
7293,33472
7294,33472
7295,33536
7296,33664
7297,33728
7298,33792
7299,33792
7300,33856
7301,33920
7302,33920
7303,33920
7304,33920
7305,33920
7306,33920
7307,33984
7308,34176
7309,34496
7310,34816
7311,35520
7312,36608
7313,37952
7314,39104
7315,39552
7316,39040
7317,37632
7318,35648
7319,33792
7320,32192
7321,31040
7322,30464
7323,30400
7324,30848
7325,31360
7326,32000
7327,32704
7328,33280
7329,33728
7330,34048
7331,34240
7332,34432
7333,34496
7334,34496
7335,34432
7336,34368
7337,34368
7338,34368
7339,34304
7340,34176
7341,34048
7342,34048
7343,34048
7344,34112
7345,34176
7346,34176
7347,34304
7348,34368
7349,34432
7350,34432
7351,34432
7352,34496
7353,34432
7354,34432
7355,34368
7356,34304
7357,34176
7358,34112
7359,34048
7360,34048
7361,33984
7362,33984
7363,33920
7364,33856
7365,33856
7366,33792
7367,33664
7368,33600
7369,33600
7370,33536
7371,33536
7372,33472
7373,33472
7374,33472
7375,33472
7376,33536
7377,33664
7378,33664
7379,33728
7380,33792
7381,33856
7382,33792
7383,33728
7384,33664
7385,33536
7386,33472
7387,33408
7388,33344
7389,33344
7390,33344
7391,33280
7392,33280
7393,33280
7394,33280
7395,33280
7396,33344
7397,33344
7398,33408
7399,33408
7400,33408
7401,33472
7402,33472
7403,33408
7404,33408
7405,33408
7406,33408
7407,33408
7408,33344
7409,33280
7410,33152
7411,33024
7412,32896
7413,32832
7414,32704
7415,32576
7416,32512
7417,32512
7418,32512
7419,32576
7420,32640
7421,32768
7422,32832
7423,32896
7424,32960
7425,33088
7426,33152
7427,33152
7428,33280
7429,33408
7430,33472
7431,33536
7432,33600
7433,33600
7434,33600
7435,33600
7436,33664
7437,33728
7438,33728
7439,33792
7440,33792
7441,33792
7442,33728
7443,33792
7444,33856
7445,33792
7446,33728
7447,33728
7448,33728
7449,33792
7450,33792
7451,33856
7452,33856
7453,33920
7454,33984
7455,34048
7456,33984
7457,33984
7458,34048
7459,34112
7460,34112
7461,34112
7462,33984
7463,33920
7464,33920
7465,33920
7466,34112
7467,34496
7468,35072
7469,35968
7470,37248
7471,38656
7472,39616
7473,39936
7474,38848
7475,37632
7476,35712
7477,33856
7478,32256
7479,31232
7480,30720
7481,30720
7482,31040
7483,31680
7484,32320
7485,33088
7486,33792
7487,34240
7488,34624
7489,34816
7490,34880
7491,34944
7492,34944
7493,34880
7494,34816
7495,34688
7496,34624
7497,34560
7498,34432
7499,34432
7500,34432
7501,34496
7502,34496
7503,34496
7504,34496
7505,34496
7506,34496
7507,34432
7508,34432
7509,34496
7510,34560
7511,34560
7512,34624
7513,34624
7514,34624
7515,34560
7516,34560
7517,34624
7518,34688
7519,34624
7520,34496
7521,34432
7522,34368
7523,34368
7524,34432
7525,34368
7526,34368
7527,34432
7528,34432
7529,34432
7530,34432
7531,34432
7532,34368
7533,34368
7534,34368
7535,34304
7536,34304
7537,34304
7538,34304
7539,34304
7540,34304
7541,34176
7542,34112
7543,34112
7544,34112
7545,34112
7546,34048
7547,34112
7548,34112
7549,34048
7550,33984
7551,33984
7552,33984
7553,34048
7554,34112
7555,34240
7556,34304
7557,34304
7558,34368
7559,34432
7560,34368
7561,34240
7562,34112
7563,34048
7564,34048
7565,34048
7566,34048
7567,34112
7568,34176
7569,34176
7570,34176
7571,34112
7572,34048
7573,34048
7574,33920
7575,33856
7576,33792
7577,33856
7578,33920
7579,33984
7580,33920
7581,33856
7582,33792
7583,33856
7584,33856
7585,33920
7586,33984
7587,33984
7588,34048
7589,34176
7590,34240
7591,34240
7592,34048
7593,33920
7594,33920
7595,33856
7596,33984
7597,34048
7598,34112
7599,34112
7600,34048
7601,33984
7602,33856
7603,33792
7604,33728
7605,33664
7606,33536
7607,33472
7608,33472
7609,33472
7610,33536
7611,33600
7612,33728
7613,33792
7614,33856
7615,33920
7616,33920
7617,33984
7618,33920
7619,33856
7620,33792
7621,33728
7622,33728
7623,33792
7624,34176
7625,34368
7626,34944
7627,35840
7628,37120
7629,38336
7630,39168
7631,39424
7632,38720
7633,36928
7634,34816
7635,32768
7636,31232
7637,30272
7638,30016
7639,30528
7640,30976
7641,31680
7642,32512
7643,33280
7644,33856
7645,34240
7646,34432
7647,34496
7648,34496
7649,34432
7650,34304
7651,34240
7652,34176
7653,34112
7654,34048
7655,34048
7656,33984
7657,33920
7658,33920
7659,33856
7660,33856
7661,33856
7662,33920
7663,33984
7664,33984
7665,34048
7666,34048
7667,34048
7668,34176
7669,34240
7670,34176
7671,34176
7672,34240
7673,34240
7674,34176
7675,34176
7676,34176
7677,34304
7678,34304
7679,34304
7680,34240
7681,34240
7682,34240
7683,34240
7684,34240
7685,34176
7686,34112
7687,34048
7688,34048
7689,34112
7690,34112
7691,34176
7692,34240
7693,34304
7694,34304
7695,34304
7696,34176
7697,34176
7698,34176
7699,34048
7700,33984
7701,33920
7702,33920
7703,33856
7704,33792
7705,33728
7706,33728
7707,33728
7708,33728
7709,33792
7710,33856
7711,33920
7712,33920
7713,33856
7714,33792
7715,33792
7716,33856
7717,33856
7718,33856
7719,33856
7720,33920
7721,33984
7722,33984
7723,34048
7724,34048
7725,34048
7726,33984
7727,33920
7728,33920
7729,33856
7730,33792
7731,33792
7732,33792
7733,33792
7734,33792
7735,33792
7736,33792
7737,33856
7738,33984
7739,34112
7740,34112
7741,34112
7742,34048
7743,34048
7744,34048
7745,33984
7746,34048
7747,34048
7748,33984
7749,33920
7750,33856
7751,33856
7752,33856
7753,33856
7754,33856
7755,33792
7756,33664
7757,33472
7758,33408
7759,33472
7760,33536
7761,33536
7762,33536
7763,33600
7764,33664
7765,33664
7766,33728
7767,33728
7768,33792
7769,33792
7770,33792
7771,33792
7772,33728
7773,33664
7774,33856
7775,33856
7776,34240
7777,34752
7778,36608
7779,37824
7780,38848
7781,39232
7782,38912
7783,37632
7784,35840
7785,34112
7786,32512
7787,31360
7788,30400
7789,30336
7790,30272
7791,31040
7792,31808
7793,32512
7794,33152
7795,33664
7796,34048
7797,34304
7798,34304
7799,34368
7800,34432
7801,34432
7802,34432
7803,34240
7804,34176
7805,34112
7806,34176
7807,34048
7808,33984
7809,33984
7810,34048
7811,33984
7812,33984
7813,33920
7814,33920
7815,33984
7816,34048
7817,34112
7818,34112
7819,34048
7820,34048
7821,34112
7822,34112
7823,34048
7824,33984
7825,33984
7826,33984
7827,33984
7828,33984
7829,34048
7830,34048
7831,34048
7832,34112
7833,34048
7834,33984
7835,33984
7836,33984
7837,33984
7838,33920
7839,33856
7840,33920
7841,33984
7842,33984
7843,33920
7844,33856
7845,33856
7846,33856
7847,33856
7848,33792
7849,33728
7850,33728
7851,33792
7852,33728
7853,33600
7854,33536
7855,33472
7856,33472
7857,33472
7858,33472
7859,33536
7860,33536
7861,33536
7862,33536
7863,33472
7864,33536
7865,33600
7866,33664
7867,33728
7868,33792
7869,33792
7870,33792
7871,33856
7872,33920
7873,33920
7874,33920
7875,33984
7876,34112
7877,34112
7878,34112
7879,34048
7880,33984
7881,33984
7882,33856
7883,33792
7884,33856
7885,33856
7886,33920
7887,33920
7888,34048
7889,34112
7890,34112
7891,34112
7892,34048
7893,34048
7894,33984
7895,34048
7896,34112
7897,34176
7898,34112
7899,34048
7900,33984
7901,33920
7902,33856
7903,33856
7904,33856
7905,33792
7906,33728
7907,33664
7908,33664
7909,33664
7910,33600
7911,33600
7912,33536
7913,33600
7914,33728
7915,33728
7916,33728
7917,33792
7918,33792
7919,33792
7920,33792
7921,33792
7922,33728
7923,33856
7924,33856
7925,34368
7926,34880
7927,35520
7928,36480
7929,37696
7930,38720
7931,39168
7932,38912
7933,37632
7934,35776
7935,33920
7936,32256
7937,31104
7938,30336
7939,30272
7940,30592
7941,31168
7942,31936
7943,32704
7944,33344
7945,33856
7946,34176
7947,34432
7948,34560
7949,34560
7950,34624
7951,34560
7952,34432
7953,34368
7954,34304
7955,34304
7956,34176
7957,34048
7958,33984
7959,33920
7960,33984
7961,34048
7962,34048
7963,34112
7964,34176
7965,34240
7966,34240
7967,34304
7968,34368
7969,34368
7970,34368
7971,34368
7972,34368
7973,34368
7974,34368
7975,34304
7976,34304
7977,34304
7978,34304
7979,34368
7980,34368
7981,34304
7982,34240
7983,34240
7984,34176
7985,34176
7986,34176
7987,34176
7988,34176
7989,34240
7990,34304
7991,34304
7992,34368
7993,34304
7994,34240
7995,34176
7996,34176
7997,34176
7998,34176
7999,34112
8000,34112
8001,34112
8002,33984
8003,33984
8004,33920
8005,33920
8006,33856
8007,33664
8008,33600
8009,33664
8010,33792
8011,33920
8012,34048
8013,34112
8014,34048
8015,34048
8016,34048
8017,34048
8018,34048
8019,34112
8020,34176
8021,34176
8022,34176
8023,34176
8024,34112
8025,34176
8026,34240
8027,34304
8028,34176
8029,34112
8030,34112
8031,34048
8032,34048
8033,33920
8034,33920
8035,33984
8036,34048
8037,34176
8038,34240
8039,34176
8040,34048
8041,33984
8042,33856
8043,33920
8044,33856
8045,33920
8046,33856
8047,33856
8048,33856
8049,33856
8050,33856
8051,33792
8052,33792
8053,33664
8054,33600
8055,33472
8056,33472
8057,33408
8058,33344
8059,33280
8060,33408
8061,33408
8062,33536
8063,33600
8064,33728
8065,33728
8066,33664
8067,33664
8068,33600
8069,33536
8070,33472
8071,33472
8072,33472
8073,33728
8074,34048
8075,34496
8076,35200
8077,36160
8078,37248
8079,38208
8080,38848
8081,38720
8082,37504
8083,35584
8084,33664
8085,32064
8086,30912
8087,30272
8088,30400
8089,30400
8090,31232
8091,31936
8092,32704
8093,33280
8094,33792
8095,34112
8096,34240
8097,34368
8098,34432
8099,34368
8100,34304
8101,34240
8102,34112
8103,34048
8104,33984
8105,33920
8106,33856
8107,33856
8108,33856
8109,33920
8110,33984
8111,33984
8112,33984
8113,33920
8114,33984
8115,34048
8116,34112
8117,34176
8118,34304
8119,34240
8120,34432
8121,34496
8122,34624
8123,34624
8124,34560
8125,34496
8126,34496
8127,34368
8128,34304
8129,34240
8130,34240
8131,34176
8132,34176
8133,34112
8134,34176
8135,34176
8136,34112
8137,34048
8138,33984
8139,34048
8140,34048
8141,34112
8142,34112
8143,34176
8144,34112
8145,34112
8146,34048
8147,33984
8148,33920
8149,33856
8150,33792
8151,33856
8152,33856
8153,33856
8154,33792
8155,33792
8156,33728
8157,33728
8158,33664
8159,33664
8160,33664
8161,33664
8162,33664
8163,33792
8164,33792
8165,33920
8166,34048
8167,34112
8168,34240
8169,34304
8170,34304
8171,34304
8172,34304
8173,34304
8174,34240
8175,34176
8176,34112
8177,34112
8178,34048
8179,33984
8180,33984
8181,33920
8182,33792
8183,33792
8184,33856
8185,33920
8186,34048
8187,34176
8188,34240
8189,34240
8190,34240
8191,34112
8192,33984
8193,33856
8194,33792
8195,33792
8196,33856
8197,33920
8198,33920
8199,33920
8200,33856
8201,33792
8202,33728
8203,33664
8204,33536
8205,33472
8206,33408
8207,33472
8208,33536
8209,33536
8210,33600
8211,33600
8212,33600
8213,33664
8214,33728
8215,33728
8216,33728
8217,33792
8218,33728
8219,33728
8220,33664
8221,33792
8222,33984
8223,34304
8224,34944
8225,35776
8226,36928
8227,38144
8228,39104
8229,39488
8230,38848
8231,37120
8232,34880
8233,32768
8234,31232
8235,30208
8236,29952
8237,30208
8238,30784
8239,31488
8240,32256
8241,32960
8242,33536
8243,33920
8244,34176
8245,34368
8246,34496
8247,34560
8248,34496
8249,34368
8250,34240
8251,34112
8252,33984
8253,33920
8254,33856
8255,33856
8256,33856
8257,33856
8258,33856
8259,33920
8260,33920
8261,33984
8262,33920
8263,33984
8264,34048
8265,34112
8266,34176
8267,34176
8268,34176
8269,34176
8270,34112
8271,34112
8272,34112
8273,34176
8274,34240
8275,34240
8276,34304
8277,34304
8278,34304
8279,34368
8280,34368
8281,34304
8282,34304
8283,34304
8284,34368
8285,34368
8286,34432
8287,34432
8288,34368
8289,34368
8290,34304
8291,34176
8292,34112
8293,34112
8294,34112
8295,34048
8296,33920
8297,33920
8298,33856
8299,33792
8300,33728
8301,33664
8302,33600
8303,33600
8304,33600
8305,33664
8306,33664
8307,33664
8308,33664
8309,33664
8310,33728
8311,33792
8312,33856
8313,33920
8314,33984
8315,33984
8316,33984
8317,33984
8318,34048
8319,34048
8320,34112
8321,34112
8322,34048
8323,33984
8324,33984
8325,33984
8326,33984
8327,33984
8328,33984
8329,33920
8330,33984
8331,33920
8332,33920
8333,33920
8334,33920
8335,33984
8336,34112
8337,34176
8338,34240
8339,34176
8340,34112
8341,34048
8342,33984
8343,33920
8344,33856
8345,33920
8346,33920
8347,33920
8348,33856
8349,33856
8350,33792
8351,33792
8352,33728
8353,33600
8354,33536
8355,33472
8356,33536
8357,33472
8358,33472
8359,33472
8360,33536
8361,33600
8362,33664
8363,33728
8364,33728
8365,33728
8366,33664
8367,33728
8368,33728
8369,33728
8370,33600
8371,33600
8372,33792
8373,34176
8374,34688
8375,35520
8376,36672
8377,38016
8378,39104
8379,39680
8380,39296
8381,37760
8382,35520
8383,33344
8384,31616
8385,30464
8386,29888
8387,29952
8388,30464
8389,31232
8390,32128
8391,32832
8392,33408
8393,33856
8394,34176
8395,34432
8396,34496
8397,34496
8398,34496
8399,34432
8400,34304
8401,34176
8402,34112
8403,34048
8404,34048
8405,33984
8406,33984
8407,33984
8408,33920
8409,33920
8410,33984
8411,33984
8412,34048
8413,34048
8414,33984
8415,33984
8416,34048
8417,34112
8418,34176
8419,34176
8420,34176
8421,34240
8422,34304
8423,34304
8424,34240
8425,34240
8426,34240
8427,34240
8428,34240
8429,34240
8430,34240
8431,34304
8432,34304
8433,34240
8434,34240
8435,34304
8436,34240
8437,34176
8438,34176
8439,34176
8440,34176
8441,34240
8442,34240
8443,34240
8444,34112
8445,34048
8446,33984
8447,33984
8448,33984
8449,33984
8450,33920
8451,33792
8452,33728
8453,33728
8454,33728
8455,33728
8456,33664
8457,33664
8458,33728
8459,33792
8460,33792
8461,33856
8462,33856
8463,33920
8464,33920
8465,33920
8466,33920
8467,33984
8468,34112
8469,34112
8470,34112
8471,34112
8472,34112
8473,34048
8474,33984
8475,33984
8476,33984
8477,33984
8478,33984
8479,33920
8480,33920
8481,33920
8482,33856
8483,33856
8484,33920
8485,33920
8486,33984
8487,33984
8488,33984
8489,33984
8490,34048
8491,34112
8492,34112
8493,34176
8494,34112
8495,34048
8496,33984
8497,33984
8498,33984
8499,33920
8500,33920
8501,33920
8502,33920
8503,33856
8504,33792
8505,33728
8506,33728
8507,33664
8508,33536
8509,33472
8510,33472
8511,33536
8512,33600
8513,33600
8514,33664
8515,33728
8516,33728
8517,33728
8518,33728
8519,33728
8520,33664
8521,33664
8522,33728
8523,33728
8524,33664
8525,33664
8526,33792
8527,33984
8528,34368
8529,35008
8530,36032
8531,37312
8532,38592
8533,39424
8534,39552
8535,38656
8536,36672
8537,34432
8538,32448
8539,30976
8540,30208
8541,30016
8542,30336
8543,30976
8544,31744
8545,32576
8546,33280
8547,33792
8548,34176
8549,34368
8550,34496
8551,34496
8552,34496
8553,34432
8554,34368
8555,34240
8556,34176
8557,34176
8558,34112
8559,34112
8560,34112
8561,34048
8562,33984
8563,33984
8564,33984
8565,33984
8566,33984
8567,33984
8568,34048
8569,34112
8570,34176
8571,34240
8572,34304
8573,34304
8574,34304
8575,34304
8576,34304
8577,34304
8578,34240
8579,34240
8580,34240
8581,34240
8582,34240
8583,34304
8584,34304
8585,34304
8586,34240
8587,34112
8588,34112
8589,34112
8590,34176
8591,34176
8592,34112
8593,34176
8594,34240
8595,34240
8596,34240
8597,34304
8598,34368
8599,34304
8600,34176
8601,34112
8602,34048
8603,34112
8604,34112
8605,34048
8606,33856
8607,33792
8608,33728
8609,33792
8610,33856
8611,33856
8612,33728
8613,33728
8614,33792
8615,33920
8616,33920
8617,33984
8618,33984
8619,34048
8620,34112
8621,34112
8622,34112
8623,34048
8624,34048
8625,34112
8626,34112
8627,34112
8628,34112
8629,34048
8630,34048
8631,34048
8632,34048
8633,34048
8634,33920
8635,33856
8636,33856
8637,33856
8638,33856
8639,33920
8640,33920
8641,33920
8642,33792
8643,33792
8644,33856
8645,33856
8646,33856
8647,33856
8648,33856
8649,33984
8650,33984
8651,34048
8652,34176
8653,34240
8654,34240
8655,34176
8656,34112
8657,34048
8658,33984
8659,34048
8660,34048
8661,34048
8662,33984
8663,33920
8664,33920
8665,33856
8666,33728
8667,33536
8668,33472
8669,33472
8670,33536
8671,33536
8672,33600
8673,33664
8674,33728
8675,33728
8676,33728
8677,33728
8678,33728
8679,33792
8680,33856
8681,33856
8682,33792
8683,33664
8684,33600
8685,33536
8686,33664
8687,33792
8688,34112
8689,34688
8690,35584
8691,36736
8692,38016
8693,39040
8694,39616
8695,39296
8696,37824
8697,35648
8698,33472
8699,31680
8700,30464
8701,29952
8702,30080
8703,30656
8704,31424
8705,32192
8706,32896
8707,33472
8708,33920
8709,34176
8710,34368
8711,34496
8712,34496
8713,34496
8714,34432
8715,34368
8716,34304
8717,34240
8718,34176
8719,34176
8720,34112
8721,34048
8722,34048
8723,34048
8724,33984
8725,33920
8726,33984
8727,34048
8728,34048
8729,34112
8730,34112
8731,34176
8732,34176
8733,34176
8734,34240
8735,34240
8736,34240
8737,34240
8738,34240
8739,34240
8740,34304
8741,34304
8742,34304
8743,34304
8744,34304
8745,34304
8746,34176
8747,34112
8748,34176
8749,34176
8750,34112
8751,34048
8752,34048
8753,34048
8754,34112
8755,34112
8756,34176
8757,34176
8758,34240
8759,34240
8760,34240
8761,34240
8762,34176
8763,34112
8764,34048
8765,33984
8766,33920
8767,33856
8768,33792
8769,33856
8770,33792
8771,33664
8772,33664
8773,33728
8774,33792
8775,33856
8776,33920
8777,33984
8778,34048
8779,34112
8780,34112
8781,34048
8782,34048
8783,34048
8784,34048
8785,34048
8786,34176
8787,34176
8788,34176
8789,34112
8790,34048
8791,33984
8792,33984
8793,33984
8794,33984
8795,33920
8796,33856
8797,33792
8798,33792
8799,33856
8800,33856
8801,33856
8802,33792
8803,33792
8804,33792
8805,33792
8806,33792
8807,33792
8808,33856
8809,33856
8810,33920
8811,33984
8812,33984
8813,34048
8814,34112
8815,34048
8816,34048
8817,34048
8818,33984
8819,33984
8820,33984
8821,34048
8822,34048
8823,34048
8824,34048
8825,33984
8826,33920
8827,33792
8828,33664
8829,33600
8830,33536
8831,33536
8832,33536
8833,33600
8834,33600
8835,33600
8836,33600
8837,33600
8838,33600
8839,33664
8840,33728
8841,33792
8842,33856
8843,33856
8844,33856
8845,33856
8846,33792
8847,33728
8848,33792
8849,33984
8850,34368
8851,34880
8852,35712
8853,36928
8854,38208
8855,38976
8856,39232
8857,38656
8858,36992
8859,35008
8860,33152
8861,31616
8862,30656
8863,30272
8864,30400
8865,30976
8866,31616
8867,32320
8868,33024
8869,33536
8870,33984
8871,34304
8872,34496
8873,34560
8874,34560
8875,34496
8876,34432
8877,34304
8878,34304
8879,34176
8880,34048
8881,34048
8882,34048
8883,34048
8884,34048
8885,34048
8886,34048
8887,33984
8888,33984
8889,34048
8890,34048
8891,34176
8892,34240
8893,34240
8894,34240
8895,34240
8896,34240
8897,34240
8898,34304
8899,34240
8900,34112
8901,34176
8902,34304
8903,34368
8904,34304
8905,34240
8906,34240
8907,34176
8908,34176
8909,34176
8910,34176
8911,34176
8912,34176
8913,34240
8914,34176
8915,34112
8916,34048
8917,34048
8918,34112
8919,34176
8920,34176
8921,34176
8922,34176
8923,34176
8924,34176
8925,34112
8926,34112
8927,34048
8928,34048
8929,33984
8930,33856
8931,33856
8932,33792
8933,33664
8934,33728
8935,33792
8936,33856
8937,33920
8938,33984
8939,34048
8940,34112
8941,34112
8942,34112
8943,34112
8944,34112
8945,34112
8946,34176
8947,34240
8948,34176
8949,34176
8950,34112
8951,33984
8952,33984
8953,33984
8954,33984
8955,33984
8956,33984
8957,33984
8958,33920
8959,33792
8960,33728
8961,33792
8962,33792
8963,33856
8964,33856
8965,33984
8966,34048
8967,34048
8968,34112
8969,34240
8970,34240
8971,34176
8972,34112
8973,34112
8974,34048
8975,33920
8976,33856
8977,33856
8978,33856
8979,33984
8980,34048
8981,34048
8982,34176
8983,34112
8984,34048
8985,34112
8986,34112
8987,34048
8988,33984
8989,33920
8990,33920
8991,33856
8992,33792
8993,33728
8994,33728
8995,33728
8996,33664
8997,33536
8998,33472
8999,33536
9000,33600
9001,33600
9002,33664
9003,33664
9004,33664
9005,33728
9006,33792
9007,33856
9008,33856
9009,33792
9010,33792
9011,33792
9012,33728
9013,33600
9014,33536
9015,33600
9016,33856
9017,34368
9018,35072
9019,35968
9020,37248
9021,38400
9022,39168
9023,39296
9024,38400
9025,36544
9026,34432
9027,32512
9028,31168
9029,30336
9030,30144
9031,30464
9032,31104
9033,31808
9034,32576
9035,33152
9036,33792
9037,34176
9038,34304
9039,34432
9040,34432
9041,34496
9042,34432
9043,34368
9044,34304
9045,34240
9046,34112
9047,34112
9048,34112
9049,34112
9050,34112
9051,33984
9052,33984
9053,33920
9054,33984
9055,33984
9056,33984
9057,34048
9058,34176
9059,34176
9060,34112
9061,34176
9062,34240
9063,34304
9064,34368
9065,34304
9066,34304
9067,34240
9068,34240
9069,34176
9070,34112
9071,34176
9072,34176
9073,34176
9074,34112
9075,34112
9076,34112
9077,34112
9078,34112
9079,34112
9080,34176
9081,34112
9082,34048
9083,34048
9084,34048
9085,34176
9086,34176
9087,34240
9088,34240
9089,34176
9090,34112
9091,34048
9092,34048
9093,33984
9094,33920
9095,33856
9096,33792
9097,33792
9098,33728
9099,33728
9100,33728
9101,33664
9102,33728
9103,33792
9104,33856
9105,33856
9106,33984
9107,34048
9108,34048
9109,34048
9110,34048
9111,34048
9112,34112
9113,34176
9114,34176
9115,34176
9116,34176
9117,34048
9118,33984
9119,33856
9120,33792
9121,33792
9122,33792
9123,33856
9124,33856
9125,33856
9126,33792
9127,33728
9128,33792
9129,33920
9130,33984
9131,33984
9132,33920
9133,33792
9134,33728
9135,33792
9136,33792
9137,33856
9138,33856
9139,33792
9140,33728
9141,33728
9142,33792
9143,33920
9144,34048
9145,34112
9146,34112
9147,34112
9148,34112
9149,34048
9150,34112
9151,34048
9152,34112
9153,34112
9154,34048
9155,33984
9156,33920
9157,33856
9158,33856
9159,33792
9160,33664
9161,33600
9162,33536
9163,33472
9164,33472
9165,33536
9166,33600
9167,33664
9168,33664
9169,33728
9170,33728
9171,33728
9172,33792
9173,33792
9174,33856
9175,33792
9176,33728
9177,33664
9178,33664
9179,33856
9180,34112
9181,34496
9182,35072
9183,35904
9184,37056
9185,38208
9186,38976
9187,39040
9188,38144
9189,36352
9190,34432
9191,32640
9192,31232
9193,30464
9194,30208
9195,30528
9196,31104
9197,31872
9198,32576
9199,33344
9200,33856
9201,34176
9202,34304
9203,34368
9204,34368
9205,34368
9206,34368
9207,34368
9208,34304
9209,34176
9210,34112
9211,34048
9212,33984
9213,33984
9214,33984
9215,33984
9216,34048
9217,34048
9218,34048
9219,34048
9220,34048
9221,34048
9222,34048
9223,34048
9224,34112
9225,34176
9226,34240
9227,34240
9228,34304
9229,34304
9230,34304
9231,34304
9232,34240
9233,34240
9234,34240
9235,34176
9236,34240
9237,34240
9238,34176
9239,34112
9240,34112
9241,34112
9242,34112
9243,34112
9244,34176
9245,34112
9246,34112
9247,34048
9248,34048
9249,34112
9250,34112
9251,34176
9252,34176
9253,34176
9254,34176
9255,34112
9256,34048
9257,33984
9258,33856
9259,33792
9260,33728
9261,33664
9262,33600
9263,33600
9264,33664
9265,33664
9266,33664
9267,33664
9268,33728
9269,33792
9270,33920
9271,33984
9272,34048
9273,34112
9274,34048
9275,34048
9276,34048
9277,34112
9278,34112
9279,34112
9280,34112
9281,34048
9282,33984
9283,33984
9284,33920
9285,33920
9286,33920
9287,33920
9288,33920
9289,33856
9290,33856
9291,33856
9292,33792
9293,33728
9294,33664
9295,33728
9296,33728
9297,33792
9298,33792
9299,33920
9300,33984
9301,34048
9302,34048
9303,33984
9304,33984
9305,33984
9306,34048
9307,34112
9308,34112
9309,34048
9310,33984
9311,33984
9312,33984
9313,33920
9314,33856
9315,33792
9316,33728
9317,33664
9318,33600
9319,33536
9320,33472
9321,33536
9322,33536
9323,33600
9324,33664
9325,33664
9326,33664
9327,33728
9328,33728
9329,33728
9330,33728
9331,33792
9332,33856
9333,33792
9334,33600
9335,33536
9336,33664
9337,33856
9338,34240
9339,34752
9340,35520
9341,36672
9342,37824
9343,38592
9344,38784
9345,38272
9346,36800
9347,35072
9348,33408
9349,31680
9350,30848
9351,30400
9352,30400
9353,30784
9354,31360
9355,32128
9356,32832
9357,33536
9358,33984
9359,34304
9360,34496
9361,34624
9362,34688
9363,34560
9364,34368
9365,34304
9366,34240
9367,34176
9368,34112
9369,34112
9370,34112
9371,34112
9372,34112
9373,34112
9374,34112
9375,34112
9376,34112
9377,34176
9378,34112
9379,34048
9380,34048
9381,34048
9382,34112
9383,34176
9384,34304
9385,34304
9386,34240
9387,34176
9388,34112
9389,34112
9390,34176
9391,34240
9392,34240
9393,34304
9394,34304
9395,34304
9396,34240
9397,34240
9398,34240
9399,34176
9400,34112
9401,34176
9402,34176
9403,34176
9404,34240
9405,34240
9406,34240
9407,34240
9408,34176
9409,34176
9410,34176
9411,34176
9412,34176
9413,34112
9414,33920
9415,33920
9416,33920
9417,33792
9418,33664
9419,33664
9420,33664
9421,33728
9422,33728
9423,33792
9424,33792
9425,33792
9426,33792
9427,33856
9428,33920
9429,33984
9430,34112
9431,34112
9432,34112
9433,34176
9434,34112
9435,34048
9436,33984
9437,33984
9438,33984
9439,33984
9440,33984
9441,33984
9442,33984
9443,33984
9444,34048
9445,33984
9446,33920
9447,33856
9448,33920
9449,33920
9450,33856
9451,33856
9452,33920
9453,33920
9454,33984
9455,34048
9456,34112
9457,34112
9458,34112
9459,33984
9460,33920
9461,33856
9462,33920
9463,33984
9464,34048
9465,34112
9466,34112
9467,34176
9468,34112
9469,33984
9470,33856
9471,33728
9472,33600
9473,33536
9474,33472
9475,33408
9476,33408
9477,33472
9478,33536
9479,33600
9480,33664
9481,33728
9482,33792
9483,33856
9484,33920
9485,33920
9486,33920
9487,33856
9488,33792
9489,33792
9490,33920
9491,34112
9492,34432
9493,34944
9494,35840
9495,37056
9496,38272
9497,39040
9498,39168
9499,38400
9500,36608
9501,34560
9502,32640
9503,31296
9504,30400
9505,30208
9506,30464
9507,30976
9508,31680
9509,32448
9510,33152
9511,33728
9512,34112
9513,34368
9514,34496
9515,34496
9516,34496
9517,34496
9518,34432
9519,34368
9520,34304
9521,34240
9522,34176
9523,34112
9524,34048
9525,34048
9526,34048
9527,34048
9528,34048
9529,34048
9530,34048
9531,34112
9532,34176
9533,34176
9534,34176
9535,34176
9536,34240
9537,34304
9538,34304
9539,34304
9540,34304
9541,34368
9542,34368
9543,34368
9544,34432
9545,34496
9546,34432
9547,34368
9548,34368
9549,34304
9550,34368
9551,34304
9552,34304
9553,34304
9554,34304
9555,34304
9556,34240
9557,34240
9558,34176
9559,34176
9560,34112
9561,34112
9562,34176
9563,34240
9564,34176
9565,34112
9566,34112
9567,34048
9568,33984
9569,33920
9570,33856
9571,33856
9572,33792
9573,33728
9574,33600
9575,33536
9576,33600
9577,33664
9578,33792
9579,33856
9580,33856
9581,33920
9582,33920
9583,33920
9584,33984
9585,34048
9586,34048
9587,34112
9588,34112
9589,34112
9590,34112
9591,34112
9592,34112
9593,34112
9594,34112
9595,34048
9596,34048
9597,33984
9598,33920
9599,33920
9600,33920
9601,33856
9602,33856
9603,33856
9604,33856
9605,33856
9606,33920
9607,33984
9608,34048
9609,34112
9610,34112
9611,34048
9612,33984
9613,33984
9614,34048
9615,34112
9616,34112
9617,33984
9618,33920
9619,33920
9620,33856
9621,33792
9622,33792
9623,33792
9624,33728
9625,33664
9626,33536
9627,33408
9628,33472
9629,33536
9630,33536
9631,33600
9632,33664
9633,33792
9634,33856
9635,33856
9636,33856
9637,33856
9638,33856
9639,33728
9640,33664
9641,33536
9642,33536
9643,33664
9644,33984
9645,34432
9646,35008
9647,35904
9648,37056
9649,38208
9650,38976
9651,39232
9652,38528
9653,36672
9654,34496
9655,32512
9656,31104
9657,30272
9658,30016
9659,30336
9660,31040
9661,31872
9662,32640
9663,33472
9664,33472
9665,33984
9666,34112
9667,34240
9668,34304
9669,34304
9670,34304
9671,34176
9672,33984
9673,33920
9674,33984
9675,33920
9676,34048
9677,34240
9678,34304
9679,34240
9680,34176
9681,33984
9682,33920
9683,33856
9684,33920
9685,33920
9686,33920
9687,34048
9688,34048
9689,34048
9690,34048
9691,34240
9692,34240
9693,34048
9694,33984
9695,33984
9696,34176
9697,34304
9698,34304
9699,34240
9700,34176
9701,34112
9702,34112
9703,34176
9704,34176
9705,34240
9706,34304
9707,34176
9708,34112
9709,34048
9710,34112
9711,34240
9712,34304
9713,34240
9714,34240
9715,34304
9716,34176
9717,33920
9718,33728
9719,33600
9720,33600
9721,33600
9722,33472
9723,33344
9724,33280
9725,33280
9726,33408
9727,33408
9728,33472
9729,33600
9730,33536
9731,33408
9732,33472
9733,33600
9734,33728
9735,33856
9736,34048
9737,34112
9738,34112
9739,34048
9740,34112
9741,34240
9742,34304
9743,34432
9744,34368
9745,34304
9746,34176
9747,34048
9748,33984
9749,33920
9750,33920
9751,33984
9752,34048
9753,34048
9754,34048
9755,34048
9756,33920
9757,33920
9758,33920
9759,33856
9760,33920
9761,33856
9762,33920
9763,33920
9764,34048
9765,34176
9766,34176
9767,34176
9768,34240
9769,34176
9770,34048
9771,33984
9772,33920
9773,33920
9774,33984
9775,33920
9776,33920
9777,33984
9778,33920
9779,33856
9780,33728
9781,33664
9782,33664
9783,33664
9784,33600
9785,33600
9786,33600
9787,33600
9788,33600
9789,33600
9790,33600
9791,33600
9792,33600
9793,33728
9794,33792
9795,33792
9796,33664
9797,33664
9798,33664
9799,33600
9800,33728
9801,33984
9802,34368
9803,34880
9804,35712
9805,36800
9806,37952
9807,38784
9808,39168
9809,38656
9810,37120
9811,35200
9812,33280
9813,31488
9814,31360
9815,30208
9816,30336
9817,30784
9818,31488
9819,32256
9820,33024
9821,33600
9822,34048
9823,34368
9824,34560
9825,34560
9826,34560
9827,34496
9828,34368
9829,34304
9830,34240
9831,34240
9832,34176
9833,34176
9834,34176
9835,34112
9836,34048
9837,34048
9838,33984
9839,34048
9840,34048
9841,34112
9842,34176
9843,34240
9844,34176
9845,34240
9846,34240
9847,34304
9848,34304
9849,34368
9850,34432
9851,34432
9852,34432
9853,34432
9854,34368
9855,34368
9856,34368
9857,34432
9858,34432
9859,34432
9860,34368
9861,34432
9862,34368
9863,34368
9864,34368
9865,34304
9866,34240
9867,34240
9868,34240
9869,34240
9870,34304
9871,34304
9872,34240
9873,34112
9874,34048
9875,34048
9876,34048
9877,34048
9878,33984
9879,33856
9880,33728
9881,33664
9882,33664
9883,33664
9884,33600
9885,33600
9886,33600
9887,33664
9888,33728
9889,33664
9890,33728
9891,33792
9892,33856
9893,33856
9894,33984
9895,34048
9896,34112
9897,34112
9898,34112
9899,34112
9900,34112
9901,34048
9902,34048
9903,34112
9904,34048
9905,34112
9906,34048
9907,34048
9908,33984
9909,33984
9910,33920
9911,33920
9912,33920
9913,33856
9914,33792
9915,33792
9916,33792
9917,33920
9918,34048
9919,34048
9920,34048
9921,33984
9922,33984
9923,33920
9924,33984
9925,34048
9926,34048
9927,33984
9928,33920
9929,33856
9930,33856
9931,33856
9932,33856
9933,33728
9934,33728
9935,33600
9936,33472
9937,33408
9938,33408
9939,33472
9940,33536
9941,33600
9942,33664
9943,33664
9944,33664
9945,33664
9946,33664
9947,33728
9948,33728
9949,33728
9950,33792
9951,33728
9952,33600
9953,33600
9954,33792
9955,33984
9956,34240
9957,34816
9958,35712
9959,36864
9960,37952
9961,38656
9962,38720
9963,37888
9964,36288
9965,34496
9966,32832
9967,31552
9968,30720
9969,30400
9970,30592
9971,31040
9972,31616
9973,32320
9974,33024
9975,33600
9976,33984
9977,34240
9978,34496
9979,34496
9980,34496
9981,34432
9982,34432
9983,34368
9984,34304
9985,34176
9986,34176
9987,34112
9988,34112
9989,34048
9990,34048
9991,34048
9992,34112
9993,34048
9994,33984
9995,34048
9996,34048
9997,34112
9998,34176
9999,34240
10000,34240
10001,34304
10002,34240
10003,34240
10004,34240
10005,34304
10006,34368
10007,34368
10008,34368
10009,34368
10010,34368
10011,34368
10012,34368
10013,34304
10014,34240
10015,34240
10016,34240
10017,34240
10018,34304
10019,34304
10020,34304
10021,34240
10022,34176
10023,34176
10024,34112
10025,34176
10026,34112
10027,34112
10028,34112
10029,34112
10030,34112
10031,34048
10032,33984
10033,33856
10034,33792
10035,33728
10036,33664
10037,33664
10038,33600
10039,33600
10040,33600
10041,33664
10042,33664
10043,33664
10044,33728
10045,33792
10046,33920
10047,33984
10048,34112
10049,34176
10050,34176
10051,34176
10052,34176
10053,34176
10054,34112
10055,34176
10056,34176
10057,34240
10058,34240
10059,34176
10060,34112
10061,34048
10062,33984
10063,33984
10064,33984
10065,33984
10066,33984
10067,33984
10068,33920
10069,33856
10070,33920
10071,34048
10072,34176
10073,34240
10074,34240
10075,34176
10076,34112
10077,34048
10078,34112
10079,34048
10080,33984
10081,34048
10082,34048
10083,33984
10084,33920
10085,33856
10086,33856
10087,33856
10088,33728
10089,33600
10090,33536
10091,33600
10092,33600
10093,33664
10094,33728
10095,33728
10096,33792
10097,33792
10098,33856
10099,33792
10100,33792
10101,33728
10102,33728
10103,33792
10104,33792
10105,33728
10106,33728
10107,33792
10108,34048
10109,34432
10110,34944
10111,35712
10112,36864
10113,38400
10114,38400
10115,39360
10116,38848
10117,37248
10118,35264
10119,33280
10120,31680
10121,30656
10122,30144
10123,30272
10124,30784
10125,31488
10126,32192
10127,32960
10128,33856
10129,33856
10130,34368
10131,34432
10132,34496
10133,34560
10134,34560
10135,34432
10136,34368
10137,34240
10138,34240
10139,34176
10140,34176
10141,34176
10142,34112
10143,34048
10144,33984
10145,33984
10146,34048
10147,34112
10148,34176
10149,34176
10150,34240
10151,34240
10152,34240
10153,34240
10154,34240
10155,34176
10156,34240
10157,34304
10158,34432
10159,34368
10160,34496
10161,34432
10162,34432
10163,34432
10164,34432
10165,34432
10166,34496
10167,34432
10168,34368
10169,34304
10170,34304
10171,34304
10172,34304
10173,34304
10174,34304
10175,34240
10176,34240
10177,34176
10178,34240
10179,34240
10180,34240
10181,34176
10182,34048
10183,34048
10184,33984
10185,33856
10186,33792
10187,33728
10188,33728
10189,33664
10190,33664
10191,33600
10192,33536
10193,33536
10194,33536
10195,33600
10196,33664
10197,33728
10198,33792
10199,33856
10200,33920
10201,33984
10202,34048
10203,34176
10204,34176
10205,34112
10206,34112
10207,34176
10208,34176
10209,34176
10210,34112
10211,34048
10212,33984
10213,33984
10214,34048
10215,34048
10216,33984
10217,33920
10218,33856
10219,33856
10220,33856
10221,33856
10222,33856
10223,33856
10224,33920
10225,33856
10226,33792
10227,33856
10228,33920
10229,33920
10230,33984
10231,34048
10232,34112
10233,34112
10234,33984
10235,33920
10236,33984
10237,34048
10238,34048
10239,33984
10240,33984
10241,33984
10242,33920
10243,33856
10244,33792
10245,33728
10246,33664
10247,33600
10248,33472
10249,33472
10250,33472
10251,33536
10252,33536
10253,33600
10254,33664
10255,33792
10256,33856
10257,33792
10258,33728
10259,33792
10260,33856
10261,33856
10262,33792
10263,33728
10264,33728
10265,33792
10266,33984
10267,34304
10268,34752
10269,35520
10270,36608
10271,37824
10272,38784
10273,39360
10274,39040
10275,37504
10276,35392
10277,33280
10278,31616
10279,30464
10280,30016
10281,30144
10282,30720
10283,31360
10284,32128
10285,32896
10286,33536
10287,33984
10288,34240
10289,34432
10290,34496
10291,34496
10292,34496
10293,34432
10294,34304
10295,34176
10296,34176
10297,34112
10298,34048
10299,33984
10300,33984
10301,33984
10302,33984
10303,34048
10304,34112
10305,34048
10306,33920
10307,33920
10308,33984
10309,34048
10310,34112
10311,34240
10312,34304
10313,34304
10314,34304
10315,34304
10316,34368
10317,34432
10318,34432
10319,34368
10320,34368
10321,34368
10322,34304
10323,34304
10324,34304
10325,34304
10326,34304
10327,34304
10328,34304
10329,34304
10330,34304
10331,34304
10332,34240
10333,34240
10334,34240
10335,34176
10336,34240
10337,34240
10338,34176
10339,34048
10340,33984
10341,33920
10342,33856
10343,33792
10344,33728
10345,33664
10346,33664
10347,33600
10348,33472
10349,33472
10350,33472
10351,33472
10352,33536
10353,33600
10354,33600
10355,33536
10356,33600
10357,33664
10358,33728
10359,33856
10360,33920
10361,33920
10362,33920
10363,33920
10364,33920
10365,33920
10366,33984
10367,34048
10368,33984
10369,33984
10370,33984
10371,33984
10372,33984
10373,33920
10374,33920
10375,33856
10376,33856
10377,33856
10378,33856
10379,33792
10380,33728
10381,33728
10382,33728
10383,33728
10384,33792
10385,33792
10386,33856
10387,33920
10388,33984
10389,33920
10390,33920
10391,33920
10392,33856
10393,33856
10394,33920
10395,33984
10396,33920
10397,33856
10398,33792
10399,33792
10400,33792
10401,33728
10402,33664
10403,33536
10404,33408
10405,33344
10406,33344
10407,33344
10408,33408
10409,33472
10410,33472
10411,33536
10412,33600
10413,33600
10414,33600
10415,33600
10416,33600
10417,33600
10418,33600
10419,33600
10420,33600
10421,33536
10422,33600
10423,33728
10424,33984
10425,34496
10426,35136
10427,36160
10428,37440
10429,38336
10430,38912
10431,38720
10432,37632
10433,35840
10434,33984
10435,32320
10436,31104
10437,30336
10438,30144
10439,30400
10440,30976
10441,31680
10442,32384
10443,33088
10444,33664
10445,34048
10446,34304
10447,34432
10448,34496
10449,34496
10450,34432
10451,34432
10452,34304
10453,34176
10454,34048
10455,33984
10456,33984
10457,33984
10458,33920
10459,33856
10460,33792
10461,33856
10462,33920
10463,33984
10464,34048
10465,34048
10466,34048
10467,34048
10468,34048
10469,34112
10470,34112
10471,34176
10472,34176
10473,34176
10474,34176
10475,34176
10476,34240
10477,34240
10478,34240
10479,34240
10480,34240
10481,34304
10482,34304
10483,34304
10484,34240
10485,34176
10486,34176
10487,34304
10488,34240
10489,34176
10490,34176
10491,34240
10492,34240
10493,34176
10494,34112
10495,34048
10496,34048
10497,33984
10498,33920
10499,33856
10500,33920
10501,33856
10502,33856
10503,33792
10504,33728
10505,33600
10506,33600
10507,33600
10508,33600
10509,33664
10510,33664
10511,33728
10512,33728
10513,33856
10514,33856
10515,33920
10516,33984
10517,34048
10518,34048
10519,33984
10520,34048
10521,34176
10522,34240
10523,34176
10524,34112
10525,34112
10526,34112
10527,34112
10528,34176
10529,34176
10530,34112
10531,34112
10532,34048
10533,34048
10534,34048
10535,34048
10536,34112
10537,34240
10538,34240
10539,34240
10540,34176
10541,34048
10542,33984
10543,33984
10544,33984
10545,34048
10546,34048
10547,34048
10548,34048
10549,34048
10550,33984
10551,33920
10552,33856
10553,33792
10554,33728
10555,33664
10556,33536
10557,33536
10558,33536
10559,33600
10560,33664
10561,33728
10562,33792
10563,33920
10564,33856
10565,33792
10566,33792
10567,33792
10568,33792
10569,33728
10570,33728
10571,33664
10572,33664
10573,33728
10574,33984
10575,34304
10576,34752
10577,35456
10578,36544
10579,37696
10580,38656
10581,39232
10582,39040
10583,37760
10584,35840
10585,33920
10586,32192
10587,30976
10588,30336
10589,30208
10590,30592
10591,31232
10592,32064
10593,32896
10594,33472
10595,33920
10596,34176
10597,34368
10598,34496
10599,34560
10600,34560
10601,34496
10602,34432
10603,34368
10604,34304
10605,34240
10606,34112
10607,34048
10608,34112
10609,34112
10610,34048
10611,33984
10612,33984
10613,34112
10614,34112
10615,34176
10616,34176
10617,34176
10618,34176
10619,34176
10620,34240
10621,34304
10622,34368
10623,34368
10624,34368
10625,34368
10626,34368
10627,34368
10628,34368
10629,34432
10630,34496
10631,34496
10632,34496
10633,34496
10634,34432
10635,34432
10636,34368
10637,34368
10638,34304
10639,34304
10640,34304
10641,34304
10642,34304
10643,34304
10644,34240
10645,34240
10646,34176
10647,34048
10648,34048
10649,34048
10650,33984
10651,33856
10652,33728
10653,33664
10654,33600
10655,33600
10656,33600
10657,33600
10658,33600
10659,33600
10660,33600
10661,33664
10662,33664
10663,33664
10664,33664
10665,33728
10666,33856
10667,33920
10668,33984
10669,34048
10670,34048
10671,34048
10672,34112
10673,34048
10674,34112
10675,34112
10676,34112
10677,34176
10678,34112
10679,34048
10680,34048
10681,34048
10682,34112
10683,34112
10684,34048
10685,33984
10686,33920
10687,33920
10688,33856
10689,33856
10690,33856
10691,33920
10692,33984
10693,34048
10694,34112
10695,34176
10696,34112
10697,34048
10698,33984
10699,33984
10700,34048
10701,34112
10702,34112
10703,34048
10704,33920
10705,33920
10706,33984
10707,34048
10708,33920
10709,33792
10710,33600
10711,33408
10712,33344
10713,33344
10714,33472
10715,33472
10716,33600
10717,33664
10718,33664
10719,33728
10720,33728
10721,33792
10722,33856
10723,33856
10724,33920
10725,33984
10726,33920
10727,33856
10728,33856
10729,33920
10730,34112
10731,34560
10732,35328
10733,36416
10734,37696
10735,38720
10736,39360
10737,39168
10738,37760
10739,35648
10740,33600
10741,31872
10742,30720
10743,30272
10744,30400
10745,30848
10746,31488
10747,32192
10748,32832
10749,33408
10750,33792
10751,33984
10752,34176
10753,34368
10754,34304
10755,34304
10756,34304
10757,34304
10758,34240
10759,34176
10760,34176
10761,34112
10762,34112
10763,34112
10764,34112
10765,34048
10766,34048
10767,33984
10768,33920
10769,33856
10770,33856
10771,33920
10772,33984
10773,34048
10774,34112
10775,34112
10776,34112
10777,33984
10778,33664
10779,33280
10780,33024
10781,33024
10782,33280
10783,33600
10784,33920
10785,34176
10786,34368
10787,34496
10788,34496
10789,34496
10790,34432
10791,34368
10792,34432
10793,34368
10794,34368
10795,34368
10796,34432
10797,34432
10798,34432
10799,34432
10800,34368
10801,34240
10802,34112
10803,33984
10804,33856
10805,33792
10806,33728
10807,33728
10808,33664
10809,33664
10810,33600
10811,33600
10812,33664
10813,33600
10814,33600
10815,33600
10816,33728
10817,33792
10818,33856
10819,33920
10820,33984
10821,33984
10822,33984
10823,33984
10824,33984
10825,34048
10826,34112
10827,34176
10828,34176
10829,34176
10830,34176
10831,34176
10832,34240
10833,34240
10834,34176
10835,34176
10836,34112
10837,34112
10838,34048
10839,33984
10840,33856
10841,33920
10842,33984
10843,34048
10844,33984
10845,33920
10846,33856
10847,33920
10848,33920
10849,33984
10850,33984
10851,33984
10852,33984
10853,33920
10854,33984
10855,34048
10856,34112
10857,34176
10858,34240
10859,34304
10860,34240
10861,34176
10862,34176
10863,34112
10864,34048
10865,34048
10866,34048
10867,34112
10868,34176
10869,34112
10870,33984
10871,33920
10872,33792
10873,33664
10874,33536
10875,33536
10876,33600
10877,33600
10878,33664
10879,33792
10880,33856
10881,33856
10882,33920
10883,33920
10884,33856
10885,33856
10886,33856
10887,33920
10888,33984
10889,33920
10890,33856
10891,33792
10892,33920
10893,34176
10894,34496
10895,35072
10896,35904
10897,37056
10898,38336
10899,39424
10900,39872
10901,39104
10902,37184
10903,34816
10904,32704
10905,31168
10906,30272
10907,30016
10908,30336
10909,31040
10910,31872
10911,32640
10912,33280
10913,33792
10914,34048
10915,34240
10916,34368
10917,34496
10918,34496
10919,34432
10920,34368
10921,34368
10922,34304
10923,34240
10924,34176
