,ECG
0,33792
1,33792
2,33728
3,33728
4,33728
5,33792
6,33728
7,33728
8,33728
9,33792
10,33792
11,33728
12,33728
13,33792
14,33728
15,33728
16,33728
17,33856
18,33920
19,33920
20,34048
21,34176
22,34176
23,34112
24,34112
25,34240
26,34432
27,34432
28,34368
29,34368
30,34368
31,34240
32,34048
33,33920
34,33792
35,33536
36,33344
37,33344
38,33344
39,33344
40,33344
41,33408
42,33600
43,33664
44,33664
45,33728
46,33792
47,33856
48,33856
49,33856
50,33920
51,33984
52,33856
53,33664
54,33472
55,33280
56,33280
57,33856
58,35456
59,37568
60,39744
61,41472
62,42240
63,41408
64,38784
65,35392
66,32448
67,30592
68,29568
69,29312
70,29696
71,30464
72,31296
73,32064
74,32640
75,33152
76,33600
77,33792
78,33920
79,34112
80,34240
81,34240
82,34176
83,34176
84,34176
85,34112
86,34048
87,33984
88,33920
89,33920
90,33856
91,33856
92,33920
93,33920
94,33792
95,33728
96,33856
97,33856
98,33792
99,33792
100,33920
101,33984
102,33920
103,33920
104,33984
105,34112
106,34112
107,34048
108,34112
109,34176
110,34176
111,34112
112,34176
113,34304
114,34368
115,34304
116,34304
117,34304
118,34304
119,34176
120,34112
121,34112
122,34112
123,34048
124,33984
125,34048
126,34048
127,33984
128,33856
129,33856
130,33856
131,33728
132,33664
133,33600
134,33536
135,33472
136,33344
137,33344
138,33408
139,33408
140,33344
141,33344
142,33472
143,33472
144,33472
145,33472
146,33536
147,33600
148,33600
149,33600
150,33664
151,33664
152,33664
153,33600
154,33664
155,33792
156,33856
157,33856
158,33920
159,33984
160,33984
161,33920
162,33920
163,33984
164,33984
165,33920
166,33856
167,33920
168,33920
169,33792
170,33792
171,33856
172,33920
173,33856
174,33856
175,33920
176,33920
177,33920
178,33920
179,33920
180,33920
181,33920
182,33856
183,33856
184,33856
185,33856
186,33792
187,33792
188,33856
189,33856
190,33792
191,33792
192,33792
193,33856
194,33792
195,33856
196,33920
197,33984
198,33920
199,33792
200,33856
201,33920
202,33856
203,33856
204,33856
205,33920
206,33920
207,33856
208,33920
209,34048
210,33984
211,33920
212,33856
213,33920
214,33920
215,33920
216,33856
217,33920
218,33920
219,33920
220,33856
221,33920
222,33920
223,33920
224,33920
225,33984
226,34112
227,34176
228,34176
229,34176
230,34240
231,34240
232,34304
233,34432
234,34560
235,34624
236,34496
237,34432
238,34368
239,34240
240,34048
241,33856
242,33728
243,33664
244,33536
245,33472
246,33536
247,33664
248,33664
249,33664
250,33792
251,33856
252,33856
253,33856
254,33920
255,33984
256,33920
257,33920
258,33920
259,33984
260,33856
261,33600
262,33472
263,33664
264,34624
265,36096
266,38080
267,40128
268,41472
269,41728
270,40512
271,37952
272,35200
273,32768
274,31104
275,30144
276,29760
277,29952
278,30400
279,31360
280,32064
281,32768
282,33216
283,33664
284,33984
285,34176
286,34240
287,34304
288,34368
289,34368
290,34240
291,34176
292,34112
293,34112
294,34048
295,33984
296,34048
297,34048
298,34048
299,33984
300,33984
301,34048
302,34112
303,34112
304,34112
305,34176
306,34176
307,34112
308,34112
309,34176
310,34176
311,34176
312,34176
313,34240
314,34304
315,34240
316,34240
317,34368
318,34432
319,34368
320,34304
321,34368
322,34432
323,34368
324,34368
325,34368
326,34432
327,34368
328,34304
329,34304
330,34304
331,34304
332,34240
333,34176
334,34240
335,34176
336,34112
337,33984
338,34048
339,33984
340,33920
341,33792
342,33728
343,33728
344,33664
345,33536
346,33600
347,33600
348,33600
349,33536
350,33536
351,33600
352,33600
353,33600
354,33664
355,33728
356,33792
357,33728
358,33728
359,33792
360,33856
361,33856
362,33856
363,33920
364,33984
365,33920
366,33856
367,33920
368,33920
369,33856
370,33792
371,33792
372,33856
373,33920
374,33920
375,33920
376,33920
377,33856
378,33856
379,33792
380,33856
381,33856
382,33856
383,33856
384,33920
385,33856
386,33792
387,33792
388,33856
389,33920
390,33792
391,33728
392,33728
393,33728
394,33728
395,33728
396,33728
397,33728
398,33728
399,33664
400,33664
401,33664
402,33664
403,33664
404,33728
405,33728
406,33728
407,33728
408,33728
409,33728
410,33728
411,33664
412,33664
413,33728
414,33664
415,33664
416,33728
417,33792
418,33792
419,33792
420,33856
421,34048
422,34048
423,34112
424,34112
425,34112
426,34112
427,34112
428,34240
429,34368
430,34432
431,34304
432,34240
433,34240
434,34176
435,33984
436,33728
437,33600
438,33472
439,33344
440,33344
441,33408
442,33536
443,33536
444,33600
445,33536
446,33792
447,33792
448,33728
449,33792
450,33856
451,33856
452,33792
453,33856
454,33920
455,33856
456,33600
457,33344
458,33536
459,33536
460,35456
461,37440
462,39488
463,41088
464,41664
465,40768
466,38400
467,35520
468,33024
469,31296
470,30272
471,29824
472,29824
473,30208
474,30976
475,31808
476,32576
477,33088
478,33536
479,33920
480,34112
481,34240
482,34240
483,34304
484,34304
485,34176
486,34112
487,34176
488,34176
489,34112
490,34048
491,34048
492,34048
493,33984
494,33920
495,33984
496,34048
497,34048
498,33984
499,34048
500,34112
501,34176
502,34112
503,34112
504,34176
505,34240
506,34176
507,34176
508,34240
509,34304
510,34304
511,34304
512,34368
513,34368
514,34304
515,34304
516,34368
517,34432
518,34432
519,34368
520,34368
521,34432
522,34432
523,34368
524,34304
525,34368
526,34304
527,34240
528,34176
529,34240
530,34240
531,34176
532,34048
533,34048
534,33984
535,33856
536,33792
537,33792
538,33792
539,33728
540,33600
541,33600
542,33664
543,33664
544,33664
545,33664
546,33728
547,33728
548,33664
549,33728
550,33792
551,33856
552,33856
553,33856
554,33920
555,33984
556,33920
557,33920
558,33984
559,34048
560,33984
561,33920
562,33984
563,34048
564,33984
565,33920
566,33984
567,33984
568,33984
569,33920
570,33920
571,33984
572,33984
573,33920
574,33920
575,33984
576,33984
577,33856
578,33856
579,33856
580,33856
581,33792
582,33728
583,33792
584,33856
585,33856
586,33792
587,33792
588,33792
589,33728
590,33728
591,33728
592,33728
593,33728
594,33664
595,33664
596,33728
597,33728
598,33728
599,33728
600,33792
601,33792
602,33728
603,33728
604,33728
605,33728
606,33728
607,33728
608,33792
609,33792
610,33792
611,33792
612,33856
613,33920
614,33920
615,33792
616,33792
617,33856
618,33984
619,34048
620,34176
621,34368
622,34368
623,34304
624,34240
625,34368
626,34496
627,34496
628,34496
629,34432
630,34368
631,34240
632,34112
633,33984
634,33792
635,33536
636,33344
637,33280
638,33344
639,33344
640,33280
641,33408
642,33600
643,33600
644,33664
645,33728
646,33856
647,33856
648,33792
649,33792
650,33856
651,33920
652,33856
653,33728
654,33472
655,33280
656,33216
657,33536
658,34816
659,36736
660,38848
661,40768
662,41984
663,41792
664,39744
665,36544
666,33472
667,31168
668,29760
669,29248
670,29440
671,30208
672,31040
673,31744
674,32448
675,33024
676,33408
677,33664
678,33792
679,34048
680,34176
681,34176
682,34112
683,34112
684,34112
685,34048
686,33984
687,33984
688,34048
689,33984
690,33920
691,33920
692,33984
693,33984
694,33920
695,33920
696,33984
697,34048
698,33984
699,33920
700,34048
701,34048
702,34048
703,34048
704,34112
705,34176
706,34176
707,34176
708,34176
709,34240
710,34240
711,34240
712,34304
713,34368
714,34368
715,34240
716,34240
717,34304
718,34304
719,34176
720,34176
721,34176
722,34112
723,33984
724,33920
725,33920
726,33920
727,33792
728,33728
729,33664
730,33664
731,33600
732,33472
733,33408
734,33408
735,33344
736,33280
737,33216
738,33216
739,33152
740,33088
741,33088
742,33152
743,33216
744,33216
745,33280
746,33344
747,33344
748,33280
749,33344
750,33472
751,33536
752,33536
753,33472
754,33600
755,33664
756,33600
757,33664
758,33728
759,33792
760,33792
761,33728
762,33728
763,33792
764,33792
765,33728
766,33792
767,33856
768,33920
769,33856
770,33856
771,33920
772,33920
773,33856
774,33792
775,33856
776,33856
777,33728
778,33728
779,33856
780,33984
781,33984
782,33856
783,33792
784,33856
785,33792
786,33856
787,33920
788,33920
789,33920
790,33856
791,33856
792,33856
793,33792
794,33728
795,33728
796,33856
797,33856
798,33856
799,33920
800,33856
801,33984
802,33984
803,33920
804,33984
805,33984
806,33920
807,33920
808,33920
809,33920
810,33920
811,33856
812,33856
813,33984
814,33984
815,34048
816,34112
817,34240
818,34304
819,34240
820,34176
821,34432
822,34560
823,34624
824,34624
825,34560
826,34432
827,34368
828,34176
829,34048
830,33920
831,33664
832,33536
833,33472
834,33472
835,33536
836,33536
837,33600
838,33728
839,33792
840,33792
841,33856
842,33920
843,33984
844,33984
845,33984
846,34048
847,34048
848,33984
849,33792
850,33600
851,33472
852,33600
853,34496
854,36544
855,38080
856,40064
857,41344
858,41664
859,40576
860,38016
861,35200
862,32832
863,31232
864,30336
865,29888
866,30016
867,30528
868,31296
869,32000
870,32640
871,33216
872,33728
873,33984
874,34112
875,34240
876,34304
877,34304
878,34368
879,34368
880,34304
881,34240
882,34112
883,34048
884,34112
885,34176
886,34112
887,34112
888,34176
889,34176
890,34112
891,34048
892,34112
893,34112
894,34048
895,34048
896,34112
897,34112
898,34112
899,34176
900,34240
901,34304
902,34304
903,34304
904,34432
905,34368
906,34432
907,34368
908,34368
909,34432
910,34432
911,34368
912,34368
913,34432
914,34432
915,34368
916,34368
917,34432
918,34432
919,34368
920,34240
921,34240
922,34240
923,34240
924,34176
925,34112
926,34048
927,33920
928,33792
929,33792
930,33792
931,33728
932,33664
933,33728
934,33728
935,33664
936,33600
937,33600
938,33664
939,33664
940,33600
941,33600
942,33664
943,33728
944,33728
945,33728
946,33792
947,33792
948,33792
949,33792
950,33856
951,33920
952,33856
953,33856
954,33856
955,33920
956,33920
957,33920
958,33984
959,33984
960,33984
961,33984
962,33920
963,33984
964,33984
965,33920
966,33856
967,33920
968,33984
969,33920
970,33856
971,33920
972,33984
973,33920
974,33856
975,33856
976,33920
977,33856
978,33728
979,33792
980,33856
981,33856
982,33792
983,33856
984,33856
985,33856
986,33728
987,33728
988,33856
989,33856
990,33792
991,33728
992,33792
993,33792
994,33728
995,33664
996,33792
997,33920
998,33984
999,33920
1000,34048
1001,34112
1002,34112
1003,34048
1004,34112
1005,34240
1006,34368
1007,34368
1008,34432
1009,34432
1010,34368
1011,34240
1012,34112
1013,33984
1014,33728
1015,33536
1016,33344
1017,33280
1018,33344
1019,33344
1020,33344
1021,33472
1022,33536
1023,33600
1024,33600
1025,33728
1026,33856
1027,33856
1028,33792
1029,33792
1030,33856
1031,33792
1032,33728
1033,33664
1034,33536
1035,33408
1036,33344
1037,33856
1038,35200
1039,37120
1040,39168
1041,40768
1042,41600
1043,41088
1044,38272
1045,35840
1046,33408
1047,31552
1048,30336
1049,29696
1050,29696
1051,30144
1052,30848
1053,31616
1054,32384
1055,33024
1056,33472
1057,33728
1058,33984
1059,34176
1060,34240
1061,34176
1062,34176
1063,34240
1064,34240
1065,34176
1066,34112
1067,34112
1068,34048
1069,33984
1070,33920
1071,33984
1072,33984
1073,33920
1074,33856
1075,33856
1076,33984
1077,33984
1078,33984
1079,34048
1080,34112
1081,34112
1082,34112
1083,34112
1084,34176
1085,34240
1086,34176
1087,34176
1088,34304
1089,34368
1090,34368
1091,34304
1092,34368
1093,34432
1094,34432
1095,34368
1096,34368
1097,34368
1098,34368
1099,34368
1100,34304
1101,34368
1102,34368
1103,34304
1104,34240
1105,34240
1106,34176
1107,34112
1108,34048
1109,34112
1110,34048
1111,33856
1112,33792
1113,33792
1114,33728
1115,33664
1116,33600
1117,33600
1118,33600
1119,33472
1120,33408
1121,33472
1122,33600
1123,33664
1124,33600
1125,33664
1126,33728
1127,33728
1128,33664
1129,33728
1130,33856
1131,33792
1132,33728
1133,33792
1134,33920
1135,33920
1136,33856
1137,33792
1138,33920
1139,33984
1140,33920
1141,33920
1142,33920
1143,33920
1144,33856
1145,33856
1146,33856
1147,33920
1148,33856
1149,33792
1150,33856
1151,33920
1152,33920
1153,33856
1154,33792
1155,33792
1156,33792
1157,33728
1158,33728
1159,33792
1160,33856
1161,33792
1162,33728
1163,33792
1164,33792
1165,33792
1166,33728
1167,33792
1168,33792
1169,33664
1170,33664
1171,33664
1172,33728
1173,33792
1174,33728
1175,33728
1176,33792
1177,33792
1178,33728
1179,33728
1180,33792
1181,33792
1182,33792
1183,33792
1184,33856
1185,33792
1186,33792
1187,33728
1188,33856
1189,34048
1190,34048
1191,34048
1192,34048
1193,34048
1194,34112
1195,34176
1196,34368
1197,34496
1198,34432
1199,34304
1200,34176
1201,34240
1202,34176
1203,33920
1204,33664
1205,33536
1206,33408
1207,33280
1208,33216
1209,33280
1210,33344
1211,33408
1212,33408
1213,33536
1214,33664
1215,33664
1216,33664
1217,33728
1218,33792
1219,33792
1220,33728
1221,33728
1222,33792
1223,33664
1224,33344
1225,33152
1226,33152
1227,33664
1228,35008
1229,36928
1230,39168
1231,41088
1232,42112
1233,41664
1234,39424
1235,36160
1236,33088
1237,30784
1238,29632
1239,29248
1240,29504
1241,30144
1242,30976
1243,31808
1244,32512
1245,33024
1246,33472
1247,33856
1248,33984
1249,33984
1250,34048
1251,34112
1252,34176
1253,34112
1254,34048
1255,34112
1256,34112
1257,33984
1258,33984
1259,34048
1260,33984
1261,33920
1262,33856
1263,33856
1264,33920
1265,33856
1266,33792
1267,33792
1268,33920
1269,33920
1270,33920
1271,34048
1272,34176
1273,34176
1274,34112
1275,34112
1276,34240
1277,34304
1278,34240
1279,34304
1280,34368
1281,34432
1282,34432
1283,34432
1284,34432
1285,34496
1286,34432
1287,34432
1288,34496
1289,34560
1290,34496
1291,34368
1292,34304
1293,34304
1294,34304
1295,34240
1296,34176
1297,34240
1298,34240
1299,34112
1300,33984
1301,33856
1302,33728
1303,33600
1304,33536
1305,33536
1306,33472
1307,33408
1308,33344
1309,33344
1310,33344
1311,33344
1312,33280
1313,33280
1314,33408
1315,33408
1316,33408
1317,33536
1318,33664
1319,33664
1320,33600
1321,33600
1322,33664
1323,33728
1324,33664
1325,33600
1326,33664
1327,33728
1328,33664
1329,33600
1330,33728
1331,33792
1332,33792
1333,33728
1334,33728
1335,33728
1336,33664
1337,33600
1338,33664
1339,33728
1340,33664
1341,33600
1342,33664
1343,33792
1344,33728
1345,33600
1346,33600
1347,33664
1348,33600
1349,33600
1350,33664
1351,33792
1352,33792
1353,33728
1354,33664
1355,33728
1356,33728
1357,33600
1358,33472
1359,33472
1360,33536
1361,33600
1362,33664
1363,33664
1364,33600
1365,33600
1366,33536
1367,33856
1368,33856
1369,33664
1370,33536
1371,33472
1372,33536
1373,33600
1374,33600
1375,33664
1376,33664
1377,33664
1378,33600
1379,33472
1380,33472
1381,33472
1382,33536
1383,33600
1384,33856
1385,33984
1386,33984
1387,33984
1388,34112
1389,34240
1390,34112
1391,33920
1392,33920
1393,33984
1394,34048
1395,33920
1396,33856
1397,33728
1398,33536
1399,33280
1400,33152
1401,33024
1402,32960
1403,32896
1404,32960
1405,33152
1406,33216
1407,33280
1408,33344
1409,33344
1410,33280
1411,33344
1412,33472
1413,33472
1414,33472
1415,33472
1416,33472
1417,33536
1418,33472
1419,33216
1420,32896
1421,32960
1422,33728
1423,35392
1424,37504
1425,39552
1426,41024
1427,41536
1428,40384
1429,37568
1430,34688
1431,32064
1432,30400
1433,29504
1434,29440
1435,29824
1436,30464
1437,31104
1438,31936
1439,32704
1440,33024
1441,33280
1442,33664
1443,34112
1444,34304
1445,34368
1446,34304
1447,34368
1448,34496
1449,34304
1450,33984
1451,33920
1452,34048
1453,34048
1454,34112
1455,33984
1456,33920
1457,33728
1458,33728
1459,33728
1460,33920
1461,34176
1462,34432
1463,34560
1464,34432
1465,34368
1466,34368
1467,34368
1468,34496
1469,34560
1470,34560
1471,34560
1472,34624
1473,34624
1474,34496
1475,34432
1476,34432
1477,34624
1478,34816
1479,34752
1480,34752
1481,34688
1482,34560
1483,34496
1484,34560
1485,34624
1486,34560
1487,34176
1488,34048
1489,34304
1490,34304
1491,34176
1492,34304
1493,34432
1494,34496
1495,34432
1496,34176
1497,34048
1498,33984
1499,33856
1500,33536
1501,33536
1502,33472
1503,33472
1504,33408
1505,33408
1506,33536
1507,33536
1508,33472
1509,33536
1510,33600
1511,33664
1512,33600
1513,33408
1514,33408
1515,33536
1516,33536
1517,33600
1518,33728
1519,33728
1520,33536
1521,33408
1522,33664
1523,33856
1524,33920
1525,33920
1526,33920
1527,33920
1528,33856
1529,33856
1530,33792
1531,33792
1532,33664
1533,33664
1534,33728
1535,33792
1536,33792
1537,33728
1538,33728
1539,33792
1540,33792
1541,33600
1542,33408
1543,33472
1544,33600
1545,33536
1546,33600
1547,33728
1548,33664
1549,33536
1550,33408
1551,33344
1552,33280
1553,33280
1554,33280
1555,33344
1556,33408
1557,33472
1558,33408
1559,33472
1560,33600
1561,33664
1562,33600
1563,33472
1564,33472
1565,33408
1566,33280
1567,33280
1568,33536
1569,33600
1570,33664
1571,33792
1572,33856
1573,33792
1574,33792
1575,33856
1576,33984
1577,34176
1578,34304
1579,34304
1580,34176
1581,34176
1582,33984
1583,33792
1584,33664
1585,33536
1586,33280
1587,33088
1588,33024
1589,33088
1590,33152
1591,33216
1592,33280
1593,33408
1594,33408
1595,33408
1596,33408
1597,33600
1598,33664
1599,33600
1600,33408
1601,33536
1602,33664
1603,33600
1604,33408
1605,33280
1606,33344
1607,33728
1608,34560
1609,36160
1610,38144
1611,39808
1612,40768
1613,40640
1614,39232
1615,36736
1616,34240
1617,32320
1618,31104
1619,30272
1620,29824
1621,29888
1622,30592
1623,31424
1624,32128
1625,32640
1626,33152
1627,33600
1628,33728
1629,33792
1630,34048
1631,34240
1632,34176
1633,34048
1634,34048
1635,34176
1636,34240
1637,33984
1638,33792
1639,33792
1640,33792
1641,33664
1642,33664
1643,33792
1644,33792
1645,33728
1646,33792
1647,33984
1648,34112
1649,34048
1650,33920
1651,34048
1652,34304
1653,34240
1654,34176
1655,34176
1656,34304
1657,34304
1658,34240
1659,34112
1660,34176
1661,34176
1662,34048
1663,33984
1664,33984
1665,34048
1666,34112
1667,34176
1668,34240
1669,34240
1670,34176
1671,34048
1672,34048
1673,34176
1674,34240
1675,34304
1676,34240
1677,34304
1678,34176
1679,33984
1680,33984
1681,33920
1682,33792
1683,33664
1684,33536
1685,33536
1686,33536
1687,33408
1688,33344
1689,33408
1690,33472
1691,33472
1692,33472
1693,33536
1694,33600
1695,33600
1696,33536
1697,33664
1698,33728
1699,33664
1700,33600
1701,33664
1702,33792
1703,33856
1704,33792
1705,33792
1706,33920
1707,33920
1708,33792
1709,33728
1710,33728
1711,33792
1712,33792
1713,33728
1714,33728
1715,33728
1716,33792
1717,33856
1718,33920
1719,33856
1720,33728
1721,33664
1722,33728
1723,33728
1724,33856
1725,33920
1726,33984
1727,33984
1728,33792
1729,33472
1730,33472
1731,33664
1732,33728
1733,33728
1734,33664
1735,33600
1736,33600
1737,33600
1738,33728
1739,33920
1740,33984
1741,33792
1742,33472
1743,33344
1744,33600
1745,33792
1746,33856
1747,33856
1748,33792
1749,33728
1750,33728
1751,33792
1752,33856
1753,33920
1754,33984
1755,34048
1756,34240
1757,34240
1758,34112
1759,34048
1760,34240
1761,34368
1762,34304
1763,34240
1764,34304
1765,34304
1766,34176
1767,33984
1768,33856
1769,33728
1770,33536
1771,33408
1772,33344
1773,33408
1774,33408
1775,33472
1776,33536
1777,33664
1778,33792
1779,33920
1780,33984
1781,33984
1782,33856
1783,33728
1784,33664
1785,33664
1786,33728
1787,33792
1788,33728
1789,33472
1790,33344
1791,33792
1792,34944
1793,36736
1794,38784
1795,40576
1796,41536
1797,41344
1798,39488
1799,36736
1800,33792
1801,32064
1802,30784
1803,30016
1804,29760
1805,30016
1806,30656
1807,31488
1808,32256
1809,33024
1810,33536
1811,33856
1812,34048
1813,34176
1814,34304
1815,34432
1816,34432
1817,34240
1818,34048
1819,33984
1820,33984
1821,34048
1822,34240
1823,34304
1824,34176
1825,33984
1826,33984
1827,34048
1828,33984
1829,33856
1830,33856
1831,33984
1832,33984
1833,34048
1834,34112
1835,34240
1836,34176
1837,34048
1838,34048
1839,34240
1840,34304
1841,34176
1842,34112
1843,34240
1844,34432
1845,34496
1846,34432
1847,34368
1848,34368
1849,34368
1850,34240
1851,34368
1852,34432
1853,34368
1854,34304
1855,34368
1856,34368
1857,34368
1858,34240
1859,34240
1860,34240
1861,34176
1862,34176
1863,34112
1864,34048
1865,33920
1866,33728
1867,33728
1868,33856
1869,33920
1870,33792
1871,33600
1872,33600
1873,33664
1874,33664
1875,33472
1876,33472
1877,33728
1878,33920
1879,33856
1880,33792
1881,33792
1882,33792
1883,33792
1884,33792
1885,33920
1886,33856
1887,33856
1888,33792
1889,33792
1890,33920
1891,33856
1892,33792
1893,33984
1894,34112
1895,33984
1896,33856
1897,33856
1898,33920
1899,33792
1900,33728
1901,33856
1902,34048
1903,34176
1904,34176
1905,34048
1906,34048
1907,33984
1908,33856
1909,33728
1910,33792
1911,33920
1912,33856
1913,33792
1914,33728
1915,33792
1916,33792
1917,33664
1918,33664
1919,33856
1920,33920
1921,33856
1922,33856
1923,33920
1924,33984
1925,33984
1926,33920
1927,33920
1928,33792
1929,33664
1930,33728
1931,33856
1932,33920
1933,33792
1934,33728
1935,33792
1936,33856
1937,33920
1938,33920
1939,34048
1940,34048
1941,33920
1942,33792
1943,33920
1944,34176
1945,34240
1946,34112
1947,34176
1948,34496
1949,34688
1950,34688
1951,34560
1952,34432
1953,34368
1954,34304
1955,34112
1956,33920
1957,33600
1958,33344
1959,33280
1960,33344
1961,33472
1962,33408
1963,33344
1964,33408
1965,33536
1966,33664
1967,33664
1968,33600
1969,33664
1970,33792
1971,33856
1972,33984
1973,33984
1974,33920
1975,33664
1976,33472
1977,33344
1978,33344
1979,33600
1980,34624
1981,36480
1982,38592
1983,40640
1984,41920
1985,41792
1986,39872
1987,36800
1988,33728
1989,31424
1990,30016
1991,29440
1992,29504
1993,30080
1994,31040
1995,31872
1996,32512
1997,33216
1998,33728
1999,33984
2000,33984
2001,33984
2002,34112
2003,34240
2004,34176
2005,34112
2006,34048
2007,34048
2008,33984
2009,33920
2010,34048
2011,33984
2012,33920
2013,33920
2014,33984
2015,34048
2016,34112
2017,33984
2018,33856
2019,33920
2020,33984
2021,33984
2022,34112
2023,34240
2024,34240
2025,34112
2026,34048
2027,34112
2028,34176
2029,34176
2030,34240
2031,34368
2032,34432
2033,34368
2034,34432
2035,34496
2036,34560
2037,34432
2038,34368
2039,34432
2040,34432
2041,34432
2042,34368
2043,34368
2044,34368
2045,34304
2046,34176
2047,34048
2048,34048
2049,34048
2050,33984
2051,33920
2052,33984
2053,33920
2054,33856
2055,33728
2056,33664
2057,33600
2058,33472
2059,33344
2060,33472
2061,33408
2062,33344
2063,33344
2064,33472
2065,33664
2066,33600
2067,33472
2068,33408
2069,33536
2070,33664
2071,33600
2072,33600
2073,33664
2074,33600
2075,33536
2076,33536
2077,33664
2078,33728
2079,33728
2080,33664
2081,33728
2082,33856
2083,33920
2084,33856
2085,33856
2086,33728
2087,33536
2088,33600
2089,33792
2090,33920
2091,33920
2092,33728
2093,33792
2094,33920
2095,33984
2096,33856
2097,33792
2098,33728
2099,33856
2100,33728
2101,33664
2102,33664
2103,33600
2104,33472
2105,33536
2106,33728
2107,33920
2108,33920
2109,33920
2110,33920
2111,33920
2112,33856
2113,33792
2114,33792
2115,33728
2116,33728
2117,33728
2118,33792
2119,33856
2120,33792
2121,33728
2122,33728
2123,33856
2124,33920
2125,33856
2126,33792
2127,33856
2128,33792
2129,33728
2130,33856
2131,33984
2132,34048
2133,33984
2134,33984
2135,34048
2136,34176
2137,34176
2138,34240
2139,34432
2140,34624
2141,34560
2142,34432
2143,34368
2144,34304
2145,34240
2146,34112
2147,34048
2148,33920
2149,33664
2150,33536
2151,33408
2152,33472
2153,33408
2154,33408
2155,33344
2156,33472
2157,33728
2158,33792
2159,33728
2160,33984
2161,34112
2162,34176
2163,34112
2164,34048
2165,34112
2166,33984
2167,33600
2168,33216
2169,33216
2170,33664
2171,34816
2172,36608
2173,38720
2174,40512
2175,41664
2176,41472
2177,39872
2178,37120
2179,34304
2180,32128
2181,30720
2182,29952
2183,29824
2184,30208
2185,30912
2186,31744
2187,32448
2188,32960
2189,33472
2190,33856
2191,33984
2192,34112
2193,34176
2194,34304
2195,34304
2196,34304
2197,34368
2198,34432
2199,34368
2200,34240
2201,34112
2202,34176
2203,34176
2204,34048
2205,33984
2206,34112
2207,34176
2208,34112
2209,33984
2210,34112
2211,34176
2212,34176
2213,34112
2214,34048
2215,34048
2216,34112
2217,34176
2218,34304
2219,34432
2220,34496
2221,34432
2222,34432
2223,34432
2224,34368
2225,34496
2226,34560
2227,34560
2228,34368
2229,34112
2230,34112
2231,34240
2232,34368
2233,34368
2234,34496
2235,34432
2236,34496
2237,34304
2238,34240
2239,34368
2240,34368
2241,34240
2242,34048
2243,33920
2244,33728
2245,33728
2246,33792
2247,33792
2248,33728
2249,33664
2250,33600
2251,33664
2252,33728
2253,33600
2254,33536
2255,33472
2256,33536
2257,33536
2258,33600
2259,33664
2260,33792
2261,33792
2262,33664
2263,33600
2264,33792
2265,33728
2266,33792
2267,33728
2268,33728
2269,33728
2270,33856
2271,33856
2272,33984
2273,34048
2274,33984
2275,33920
2276,33920
2277,33920
2278,33984
2279,33920
2280,33856
2281,33856
2282,33792
2283,33600
2284,33600
2285,33664
2286,33664
2287,33792
2288,33792
2289,33856
2290,33856
2291,33856
2292,33792
2293,33792
2294,33728
2295,33600
2296,33472
2297,33472
2298,33408
2299,33408
2300,33472
2301,33600
2302,33664
2303,33664
2304,33600
2305,33728
2306,33920
2307,33920
2308,33920
2309,34112
2310,34048
2311,34368
2312,34496
2313,34624
2314,34560
2315,34752
2316,34560
2317,34496
2318,34368
2319,34112
2320,33728
2321,33472
2322,33408
2323,33280
2324,33088
2325,33024
2326,33344
2327,33600
2328,33792
2329,33920
2330,33984
2331,34048
2332,33920
2333,33792
2334,33792
2335,33856
2336,33792
2337,33728
2338,33728
2339,33600
2340,33472
2341,33344
2342,33728
2343,34816
2344,36544
2345,38528
2346,40320
2347,41408
2348,41344
2349,39616
2350,36992
2351,34496
2352,32512
2353,31040
2354,30080
2355,29760
2356,29952
2357,30464
2358,31296
2359,32064
2360,32768
2361,33216
2362,33536
2363,33856
2364,34048
2365,34112
2366,34112
2367,34112
2368,34176
2369,34176
2370,34112
2371,34048
2372,34112
2373,34176
2374,34112
2375,34112
2376,34112
2377,34112
2378,34048
2379,33920
2380,33856
2381,33920
2382,33920
2383,33856
2384,33920
2385,33856
2386,34112
2387,34048
2388,33984
2389,34048
2390,34112
2391,34240
2392,34368
2393,34432
2394,34496
2395,34432
2396,34304
2397,34176
2398,34176
2399,34176
2400,34112
2401,34112
2402,34240
2403,34304
2404,34304
2405,34240
2406,34304
2407,34304
2408,34368
2409,34432
2410,34496
2411,34368
2412,34176
2413,34048
2414,33984
2415,33920
2416,33664
2417,33536
2418,33600
2419,33792
2420,33856
2421,33792
2422,33728
2423,33600
2424,33536
2425,33600
2426,33664
2427,33728
2428,33792
2429,33728
2430,33664
2431,33728
2432,33728
2433,33664
2434,33664
2435,33728
2436,33792
2437,33792
2438,33792
2439,33856
2440,33920
2441,33856
2442,33792
2443,33856
2444,33920
2445,33856
2446,33728
2447,33856
2448,34048
2449,34112
2450,33984
2451,33920
2452,33984
2453,33984
2454,33920
2455,33984
2456,33856
2457,33856
2458,33920
2459,34048
2460,34176
2461,34176
2462,34048
2463,33984
2464,33984
2465,33920
2466,33728
2467,33600
2468,33664
2469,33792
2470,33856
2471,33856
2472,33984
2473,34112
2474,34048
2475,33984
2476,33984
2477,33984
2478,33920
2479,33728
2480,33728
2481,33728
2482,33728
2483,33600
2484,33664
2485,33792
2486,33920
2487,33856
2488,33792
2489,33920
2490,33856
2491,33856
2492,33792
2493,33856
2494,33856
2495,33856
2496,33856
2497,33984
2498,34048
2499,33856
2500,33728
2501,34048
2502,34496
2503,34752
2504,34816
2505,34816
2506,34816
2507,34688
2508,34496
2509,34304
2510,34176
2511,33984
2512,33664
2513,33472
2514,33344
2515,33280
2516,33152
2517,32960
2518,33024
2519,33536
2520,33536
2521,33856
2522,33984
2523,34112
2524,33984
2525,33792
2526,33792
2527,33856
2528,33792
2529,33728
2530,33600
2531,33408
2532,33344
2533,33536
2534,35136
2535,35328
2536,38016
2537,39936
2538,41408
2539,41792
2540,40640
2541,37824
2542,34752
2543,32320
2544,30720
2545,29760
2546,29504
2547,29952
2548,30720
2549,31744
2550,31808
2551,32960
2552,33408
2553,33792
2554,33920
2555,34112
2556,34304
2557,34304
2558,34176
2559,34176
2560,34304
2561,34432
2562,34368
2563,34368
2564,34368
2565,34304
2566,34304
2567,34240
2568,34112
2569,34048
2570,33920
2571,33728
2572,33728
2573,33920
2574,33984
2575,34048
2576,34112
2577,34240
2578,34240
2579,34240
2580,34176
2581,34304
2582,34368
2583,34432
2584,34432
2585,34368
2586,34432
2587,34496
2588,34560
2589,34624
2590,34624
2591,34560
2592,34496
2593,34624
2594,34688
2595,34624
2596,34560
2597,34496
2598,34496
2599,34368
2600,34176
2601,34176
2602,34240
2603,34240
2604,34176
2605,34176
2606,34176
2607,34112
2608,34048
2609,33984
2610,33984
2611,33920
2612,33792
2613,33728
2614,33664
2615,33728
2616,33792
2617,33664
2618,33600
2619,33664
2620,33664
2621,33600
2622,33600
2623,33664
2624,33664
2625,33728
2626,33728
2627,33792
2628,33856
2629,33856
2630,33920
2631,34048
2632,34048
2633,33984
2634,33920
2635,33920
2636,33920
2637,33920
2638,33856
2639,33856
2640,33792
2641,33600
2642,33536
2643,33664
2644,33856
2645,33984
2646,34048
2647,34112
2648,34112
2649,33984
2650,33856
2651,33728
2652,33728
2653,33728
2654,33664
2655,33600
2656,33728
2657,33792
2658,33728
2659,33664
2660,33600
2661,33536
2662,33536
2663,33600
2664,33792
2665,33856
2666,33792
2667,33664
2668,33664
2669,33728
2670,33728
2671,33664
2672,33728
2673,33856
2674,33792
2675,33728
2676,33600
2677,33600
2678,33536
2679,33472
2680,33536
2681,33600
2682,33728
2683,33728
2684,33728
2685,33920
2686,34048
2687,34048
2688,33984
2689,33984
2690,33984
2691,34048
2692,34112
2693,34240
2694,34368
2695,34368
2696,34368
2697,34304
2698,34240
2699,34048
2700,33920
2701,33728
2702,33600
2703,33472
2704,33280
2705,33088
2706,33152
2707,33216
2708,33216
2709,33216
2710,33344
2711,33536
2712,33536
2713,33408
2714,33472
2715,33600
2716,33664
2717,33600
2718,33664
2719,33728
2720,33664
2721,33536
2722,33280
2723,33152
2724,33280
2725,34048
2726,35584
2727,37568
2728,39616
2729,41024
2730,41472
2731,40192
2732,37376
2733,34240
2734,31424
2735,30016
2736,29248
2737,29120
2738,29504
2739,30272
2740,31104
2741,31808
2742,32384
2743,32960
2744,33408
2745,33664
2746,33792
2747,33920
2748,34048
2749,34112
2750,34048
2751,34048
2752,34112
2753,34048
2754,33856
2755,33664
2756,33664
2757,33856
2758,33856
2759,33856
2760,33920
2761,33920
2762,33920
2763,33920
2764,33984
2765,34048
2766,33856
2767,33728
2768,33792
2769,33984
2770,34176
2771,34176
2772,34240
2773,34240
2774,34240
2775,34304
2776,34368
2777,34496
2778,34560
2779,34624
2780,34560
2781,34560
2782,34496
2783,34496
2784,34432
2785,34432
2786,34560
2787,34560
2788,34496
2789,34368
2790,34304
2791,34432
2792,34560
2793,34496
2794,34432
2795,34368
2796,34176
2797,34048
2798,33984
2799,33984
2800,33856
2801,33792
2802,33920
2803,33984
2804,33984
2805,33856
2806,33792
2807,33792
2808,33728
2809,33664
2810,33664
2811,33664
2812,33664
2813,33664
2814,33728
2815,33856
2816,33856
2817,33856
2818,33920
2819,33984
2820,33920
2821,33856
2822,33920
2823,34048
2824,34112
2825,34048
2826,33984
2827,34048
2828,33984
2829,33856
2830,33856
2831,34048
2832,34176
2833,34176
2834,34048
2835,33984
2836,33920
2837,33856
2838,33792
2839,33856
2840,33920
2841,33920
2842,33920
2843,33984
2844,34048
2845,34112
2846,34048
2847,34048
2848,34112
2849,34112
2850,33984
2851,33792
2852,33856
2853,33920
2854,33792
2855,33728
2856,33728
2857,33792
2858,33792
2859,33856
2860,33984
2861,33984
2862,33792
2863,33728
2864,33792
2865,33920
2866,33920
2867,33728
2868,33664
2869,33664
2870,33664
2871,33664
2872,33664
2873,33792
2874,33920
2875,33984
2876,34048
2877,34112
2878,34112
2879,34048
2880,34048
2881,34240
2882,34496
2883,34560
2884,34496
2885,34496
2886,34432
2887,34112
2888,33792
2889,33536
2890,33472
2891,33344
2892,33280
2893,33344
2894,33472
2895,33536
2896,33472
2897,33472
2898,33536
2899,33664
2900,33792
2901,33920
2902,33920
2903,33920
2904,33920
2905,33984
2906,34048
2907,33984
2908,33728
2909,33472
2910,33536
2911,33920
2912,34816
2913,36480
2914,38528
2915,40384
2916,41280
2917,41024
2918,39360
2919,36800
2920,34368
2921,32384
2922,31040
2923,30272
2924,30016
2925,30208
2926,30720
2927,31488
2928,32192
2929,32768
2930,33280
2931,33728
2932,34112
2933,34240
2934,34240
2935,34368
2936,34432
2937,34368
2938,34304
2939,34368
2940,34432
2941,34368
2942,34240
2943,34176
2944,34240
2945,34176
2946,34048
2947,33984
2948,34048
2949,34176
2950,34240
2951,34240
2952,34304
2953,34304
2954,34304
2955,34304
2956,34304
2957,34368
2958,34304
2959,34112
2960,34048
2961,34048
2962,34112
2963,34240
2964,34432
2965,34560
2966,34624
2967,34624
2968,34624
2969,34688
2970,34688
2971,34560
2972,34496
2973,34496
2974,34560
2975,34432
2976,34304
2977,34240
2978,34304
2979,34304
2980,34240
2981,34176
2982,34176
2983,34048
2984,33984
2985,34048
2986,34176
2987,34176
2988,34048
2989,33984
2990,33920
2991,33856
2992,33792
2993,33792
2994,33792
2995,33856
2996,33792
2997,33792
2998,33792
2999,33792
3000,33728
3001,33728
3002,33792
3003,33856
3004,33984
3005,33984
3006,33920
3007,33920
3008,33920
3009,33856
3010,33920
3011,33984
3012,34048
3013,33984
3014,33984
3015,34048
3016,34048
3017,33984
3018,33984
3019,34048
3020,34048
3021,33984
3022,33856
3023,33792
3024,33792
3025,33792
3026,33856
3027,33984
3028,34112
3029,34112
3030,33984
3031,34048
3032,34048
3033,33920
3034,33856
3035,33792
3036,33792
3037,33792
3038,33728
3039,33728
3040,33792
3041,33792
3042,33792
3043,33856
3044,33984
3045,34112
3046,34112
3047,34176
3048,34240
3049,34432
3050,34560
3051,34688
3052,34752
3053,34752
3054,34560
3055,34304
3056,34176
3057,34112
3058,33920
3059,33600
3060,33408
3061,33408
3062,33344
3063,33152
3064,33088
3065,33280
3066,33408
3067,33472
3068,33600
3069,33792
3070,33920
3071,33984
3072,33984
3073,33920
3074,33856
3075,33792
3076,33728
3077,33664
3078,33664
3079,33408
3080,33152
3081,33152
3082,33664
3083,34880
3084,36608
3085,38592
3086,40448
3087,41472
3088,41280
3089,39424
3090,36672
3091,34048
3092,32000
3093,30656
3094,29888
3095,29760
3096,30016
3097,30720
3098,31552
3099,32256
3100,32832
3101,33280
3102,33664
3103,33920
3104,34112
3105,34240
3106,34240
3107,34240
3108,34240
3109,34176
3110,34112
3111,34112
3112,34112
3113,34048
3114,33984
3115,33984
3116,33984
3117,33920
3118,33920
3119,33984
3120,34112
3121,34048
3122,33984
3123,33984
3124,34048
3125,34048
3126,33920
3127,33920
3128,34048
3129,34112
3130,34112
3131,34112
3132,34112
3133,34176
3134,34176
3135,34176
3136,34240
3137,34176
3138,34176
3139,34240
3140,34304
3141,34368
3142,34368
3143,34240
3144,34176
3145,34176
3146,34176
3147,34176
3148,34240
3149,34304
3150,34240
3151,34112
3152,33984
3153,33920
3154,33792
3155,33728
3156,33664
3157,33728
3158,33728
3159,33664
3160,33600
3161,33600
3162,33472
3163,33472
3164,33408
3165,33472
3166,33472
3167,33472
3168,33536
3169,33600
3170,33728
3171,33728
3172,33664
3173,33664
3174,33728
3175,33792
3176,33792
3177,33792
3178,33856
3179,33920
3180,33856
3181,33856
3182,33856
3183,33920
3184,33984
3185,33984
3186,33920
3187,33920
3188,33920
3189,33920
3190,33856
3191,33856
3192,33856
3193,33792
3194,33792
3195,33856
3196,33728
3197,33664
3198,33792
3199,33920
3200,33920
3201,33792
3202,33792
3203,33856
3204,33856
3205,33856
3206,33728
3207,33728
3208,33664
3209,33728
3210,33728
3211,33856
3212,33920
3213,33856
3214,33728
3215,33728
3216,33792
3217,33728
3218,33728
3219,33792
3220,33856
3221,33856
3222,33792
3223,33792
3224,33920
3225,33920
3226,33792
3227,33792
3228,33792
3229,33856
3230,33792
3231,33792
3232,33856
3233,33920
3234,33984
3235,34048
3236,34112
3237,34176
3238,34176
3239,34176
3240,34176
3241,34304
3242,34432
3243,34560
3244,34624
3245,34688
3246,34560
3247,34368
3248,34112
3249,33856
3250,33536
3251,33344
3252,33344
3253,33344
3254,33280
3255,33344
3256,33408
3257,33472
3258,33536
3259,33600
3260,33664
3261,33792
3262,33856
3263,33920
3264,33920
3265,33920
3266,33856
3267,33856
3268,33728
3269,33600
3270,33408
3271,33216
3272,33280
3273,34048
3274,35840
3275,37824
3276,39936
3277,41408
3278,41984
3279,40768
3280,37952
3281,34752
3282,32128
3283,30336
3284,29504
3285,29440
3286,30016
3287,30784
3288,31488
3289,32192
3290,32832
3291,33344
3292,33664
3293,33856
3294,34048
3295,34176
3296,34176
3297,34176
3298,34176
3299,34240
3300,34176
3301,34112
3302,34112
3303,34112
3304,34048
3305,33920
3306,33856
3307,33856
3308,33792
3309,33792
3310,33792
3311,33920
3312,33984
3313,34048
3314,34048
3315,34112
3316,34112
3317,34048
3318,33984
3319,34048
3320,34176
3321,34176
3322,34176
3323,34304
3324,34432
3325,34432
3326,34368
3327,34368
3328,34496
3329,34496
3330,34432
3331,34368
3332,34368
3333,34432
3334,34432
3335,34368
3336,34432
3337,34368
3338,34304
3339,34176
3340,34240
3341,34240
3342,34176
3343,34112
3344,34048
3345,34048
3346,33920
3347,33728
3348,33664
3349,33664
3350,33664
3351,33600
3352,33536
3353,33600
3354,33600
3355,33472
3356,33344
3357,33408
3358,33472
3359,33472
3360,33408
3361,33536
3362,33600
3363,33600
3364,33600
3365,33728
3366,33728
3367,33728
3368,33728
3369,33728
3370,33856
3371,33792
3372,33728
3373,33792
3374,33920
3375,33856
3376,33856
3377,33856
3378,33920
3379,33856
3380,33728
3381,33664
3382,33728
3383,33792
3384,33728
3385,33664
3386,33728
3387,33792
3388,33792
3389,33728
3390,33728
3391,33792
3392,33792
3393,33664
3394,33600
3395,33728
3396,33728
3397,33664
3398,33664
3399,33728
3400,33664
3401,33600
3402,33664
3403,33728
3404,33728
3405,33728
3406,33664
3407,33792
3408,33856
3409,33664
3410,33600
3411,33600
3412,33664
3413,33664
3414,33600
3415,33664
3416,33728
3417,33664
3418,33664
3419,33600
3420,33728
3421,33728
3422,33728
3423,33728
3424,33792
3425,33856
3426,33856
3427,33920
3428,34112
3429,34240
3430,34112
3431,33984
3432,34112
3433,34304
3434,34432
3435,34432
3436,34496
3437,34496
3438,34368
3439,34240
3440,34112
3441,34048
3442,33792
3443,33472
3444,33344
3445,33280
3446,33216
3447,33088
3448,33152
3449,33280
3450,33280
3451,33280
3452,33344
3453,33472
3454,33536
3455,33536
3456,33664
3457,33728
3458,33728
3459,33664
3460,33536
3461,33344
3462,33152
3463,32896
3464,33024
3465,33920
3466,35584
3467,37632
3468,39744
3469,41216
3470,41728
3471,40448
3472,37568
3473,34304
3474,31680
3475,29952
3476,29120
3477,29056
3478,29568
3479,30400
3480,31232
3481,31872
3482,32448
3483,32960
3484,33280
3485,33536
3486,33728
3487,33856
3488,33920
3489,33856
3490,33856
3491,33920
3492,33856
3493,33792
3494,33792
3495,33920
3496,33984
3497,33920
3498,33856
3499,33856
3500,33856
3501,33856
3502,33792
3503,33856
3504,33856
3505,33792
3506,33792
3507,33856
3508,34048
3509,34112
3510,34112
3511,34112
3512,34176
3513,34240
3514,34304
3515,34368
3516,34496
3517,34496
3518,34432
3519,34368
3520,34432
3521,34432
3522,34368
3523,34368
3524,34496
3525,34560
3526,34496
3527,34432
3528,34368
3529,34368
3530,34240
3531,34240
3532,34304
3533,34432
3534,34368
3535,34240
3536,34176
3537,34240
3538,34176
3539,34112
3540,34048
3541,33984
3542,33920
3543,33856
3544,33728
3545,33728
3546,33728
3547,33728
3548,33664
3549,33728
3550,33728
3551,33664
3552,33664
3553,33728
3554,33856
3555,33856
3556,33856
3557,33920
3558,34048
3559,34048
3560,34048
3561,34048
3562,34048
3563,34048
3564,33984
3565,33984
3566,33984
3567,34048
3568,34048
3569,34112
3570,34240
3571,34240
3572,34176
3573,34112
3574,34048
3575,34048
3576,34048
3577,34048
3578,34048
3579,34048
3580,33920
3581,33856
3582,33920
3583,34048
3584,34048
3585,33984
3586,33984
3587,33984
3588,33920
3589,33856
3590,33920
3591,33920
3592,33920
3593,33920
3594,33920
3595,33984
3596,33920
3597,33856
3598,33728
3599,33856
3600,33984
3601,34048
3602,34048
3603,34048
3604,33984
3605,33984
3606,33920
3607,33984
3608,34112
3609,34176
3610,34176
3611,34176
3612,34240
3613,34304
3614,34304
3615,34368
3616,34560
3617,34688
3618,34624
3619,34624
3620,34496
3621,34368
3622,34112
3623,33856
3624,33728
3625,33664
3626,33536
3627,33472
3628,33408
3629,33408
3630,33472
3631,33472
3632,33536
3633,33664
3634,33728
3635,33728
3636,33792
3637,33856
3638,33856
3639,33856
3640,33920
3641,34048
3642,33984
3643,33728
3644,33472
3645,33472
3646,33984
3647,35200
3648,36992
3649,39040
3650,40640
3651,41280
3652,40576
3653,38528
3654,35904
3655,33600
3656,31872
3657,30784
3658,30272
3659,30080
3660,30272
3661,30848
3662,31616
3663,32320
3664,32896
3665,33344
3666,33792
3667,33984
3668,34112
3669,34176
3670,34240
3671,34240
3672,34176
3673,34176
3674,34176
3675,34176
3676,34112
3677,33984
3678,33984
3679,34048
3680,33984
3681,33920
3682,34048
3683,34112
3684,34112
3685,33984
3686,33984
3687,33984
3688,33984
3689,33984
3690,34048
3691,34176
3692,34176
3693,34176
3694,34048
3695,34112
3696,34176
3697,34176
3698,34176
3699,34240
3700,34304
3701,34304
3702,34240
3703,34304
3704,34304
3705,34240
3706,34176
3707,34240
3708,34304
3709,34304
3710,34240
3711,34240
3712,34304
3713,34304
3714,34176
3715,34112
3716,34176
3717,34112
3718,34048
3719,33984
3720,33920
3721,33920
3722,33856
3723,33856
3724,33856
3725,33792
3726,33728
3727,33664
3728,33664
3729,33728
3730,33728
3731,33664
3732,33600
3733,33600
3734,33600
3735,33664
3736,33664
3737,33728
3738,33792
3739,33792
3740,33792
3741,33920
3742,33920
3743,33920
3744,33920
3745,33920
3746,33920
3747,33920
3748,33920
3749,33984
3750,34048
3751,33984
3752,33920
3753,33920
3754,33920
3755,33920
3756,33856
3757,33856
3758,33920
3759,33920
3760,33856
3761,33792
3762,33856
3763,33920
3764,33856
3765,33856
3766,33856
3767,33856
3768,33792
3769,33728
3770,33792
3771,33856
3772,33792
3773,33792
3774,33856
3775,33920
3776,33856
3777,33792
3778,33792
3779,33856
3780,33792
3781,33792
3782,33920
3783,33984
3784,34048
3785,34048
3786,34048
3787,34176
3788,34304
3789,34368
3790,34432
3791,34560
3792,34624
3793,34560
3794,34432
3795,34304
3796,34112
3797,33856
3798,33600
3799,33472
3800,33472
3801,33344
3802,33216
3803,33216
3804,33280
3805,33408
3806,33408
3807,33536
3808,33664
3809,33728
3810,33728
3811,33792
3812,33920
3813,33920
3814,33856
3815,33856
3816,33856
3817,33792
3818,33536
3819,33344
3820,33536
3821,34176
3822,35648
3823,37568
3824,39616
3825,41088
3826,41472
3827,40320
3828,37824
3829,34944
3830,32704
3831,30976
3832,30080
3833,29824
3834,30016
3835,30528
3836,31296
3837,32128
3838,32768
3839,33280
3840,33664
3841,33856
3842,34112
3843,34176
3844,34240
3845,34304
3846,34304
3847,34240
3848,34112
3849,34112
3850,34112
3851,34112
3852,34048
3853,34048
3854,34112
3855,34112
3856,33984
3857,33984
3858,34112
3859,34112
3860,34112
3861,34112
3862,34176
3863,34112
3864,34112
3865,34112
3866,34176
3867,34240
3868,34176
3869,34176
3870,34304
3871,34368
3872,34368
3873,34304
3874,34368
3875,34432
3876,34368
3877,34368
3878,34432
3879,34496
3880,34496
3881,34368
3882,34368
3883,34432
3884,34432
3885,34304
3886,34240
3887,34240
3888,34176
3889,34048
3890,33984
3891,34048
3892,34176
3893,34112
3894,33984
3895,33920
3896,33920
3897,33792
3898,33664
3899,33728
3900,33728
3901,33664
3902,33536
3903,33536
3904,33536
3905,33536
3906,33536
3907,33600
3908,33664
3909,33728
3910,33728
3911,33728
3912,33792
3913,33792
3914,33792
3915,33792
3916,33856
3917,33920
3918,33920
3919,33920
3920,33920
3921,33984
3922,33920
3923,33792
3924,33856
3925,33920
3926,33920
3927,33792
3928,33792
3929,33856
3930,33856
3931,33792
3932,33728
3933,33792
3934,33792
3935,33728
3936,33664
3937,33792
3938,33856
3939,33792
3940,33664
3941,33664
3942,33728
3943,33728
3944,33664
3945,33664
3946,33664
3947,33600
3948,33664
3949,33728
3950,33856
3951,33792
3952,33792
3953,33792
3954,33792
3955,33728
3956,33728
3957,33728
3958,33728
3959,33728
3960,33664
3961,33792
3962,33984
3963,34048
3964,34048
3965,33984
3966,34048
3967,34176
3968,34304
3969,34432
3970,34560
3971,34624
3972,34560
3973,34368
3974,34304
3975,34240
3976,34112
3977,33792
3978,33472
3979,33344
3980,33216
3981,33088
3982,33024
3983,33152
3984,33280
3985,33280
3986,33344
3987,33536
3988,33664
3989,33728
3990,33792
3991,33792
3992,33792
3993,33728
3994,33728
3995,33728
3996,33728
3997,33472
3998,33152
3999,33088
4000,33408
4001,34368
4002,36096
4003,38208
4004,40256
4005,41792
4006,41664
4007,40064
4008,37120
4009,33856
4010,31552
4011,30080
4012,29504
4013,29568
4014,30144
4015,30912
4016,31744
4017,32448
4018,32896
4019,33216
4020,33728
4021,33984
4022,34048
4023,34112
4024,34112
4025,34176
4026,34176
4027,34048
4028,34048
4029,34176
4030,34176
4031,34112
4032,33984
4033,33984
4034,33920
4035,33856
4036,33792
4037,33920
4038,34048
4039,34048
4040,33984
4041,34048
4042,33984
4043,33920
4044,33984
4045,34112
4046,34112
4047,34112
4048,34112
4049,34304
4050,34240
4051,34240
4052,34304
4053,34368
4054,34304
4055,34432
4056,34432
4057,34496
4058,34560
4059,34432
4060,34368
4061,34304
4062,34304
4063,34240
4064,34176
4065,34112
4066,34112
4067,34240
4068,34112
4069,34112
4070,34048
4071,34048
4072,33856
4073,33728
4074,33728
4075,33728
4076,33728
4077,33728
4078,33728
4079,33664
4080,33600
4081,33536
4082,33600
4083,33600
4084,33536
4085,33472
4086,33472
4087,33600
4088,33600
4089,33600
4090,33664
4091,33728
4092,33728
4093,33664
4094,33664
4095,33664
4096,33664
4097,33728
4098,33792
4099,33728
4100,34048
4101,33984
4102,33920
4103,33920
4104,33920
4105,33792
4106,33728
4107,33792
4108,33856
4109,33856
4110,33792
4111,33792
4112,33856
4113,33792
4114,33728
4115,33664
4116,33728
4117,33792
4118,33792
4119,33792
4120,33792
4121,33792
4122,33728
4123,33728
4124,33856
4125,33792
4126,33792
4127,33792
4128,33792
4129,33792
4130,33664
4131,33664
4132,33664
4133,33664
4134,33728
4135,33664
4136,33728
4137,33792
4138,33792
4139,33728
4140,33728
4141,33792
4142,33728
4143,33664
4144,33664
4145,33728
4146,33728
4147,33664
4148,33664
4149,33664
4150,33664
4151,33792
4152,33920
4153,34112
4154,34176
4155,34112
4156,34112
4157,34112
4158,34240
4159,34304
4160,34368
4161,34368
4162,34304
4163,34112
4164,33856
4165,33664
4166,33472
4167,33152
4168,32896
4169,32896
4170,32896
4171,32896
4172,32960
4173,33024
4174,33152
4175,33216
4176,33280
4177,33344
4178,33472
4179,33600
4180,33600
4181,33600
4182,33728
4183,33792
4184,33664
4185,33408
4186,33152
4187,33024
4188,33088
4189,33792
4190,35392
4191,37440
4192,39616
4193,41152
4194,41600
4195,40576
4196,37888
4197,34752
4198,32128
4199,30144
4200,29952
4201,29440
4202,29824
4203,30592
4204,31488
4205,32128
4206,32640
4207,33152
4208,33536
4209,33792
4210,33984
4211,34112
4212,34176
4213,34176
4214,34176
4215,34112
4216,34176
4217,34112
4218,34048
4219,33984
4220,33984
4221,34048
4222,34048
4223,34048
4224,34112
4225,34176
4226,34112
4227,34048
4228,34112
4229,34240
4230,34176
4231,34112
4232,34112
4233,34240
4234,34240
4235,34240
4236,34240
4237,34368
4238,34368
4239,34304
4240,34368
4241,34432
4242,34496
4243,34496
4244,34496
4245,34496
4246,34560
4247,34560
4248,34496
4249,34432
4250,34432
4251,34368
4252,34368
4253,34368
4254,34432
4255,34304
4256,34176
4257,34176
4258,34240
4259,34240
4260,34176
4261,34176
4262,34176
4263,34176
4264,34112
4265,34048
4266,34112
4267,33984
4268,33856
4269,33728
4270,33728
4271,33792
4272,33728
4273,33728
4274,33856
4275,33792
4276,33856
4277,33856
4278,33856
4279,33920
4280,33920
4281,33920
4282,33920
4283,33984
4284,33984
4285,33984
4286,34048
4287,34112
4288,34112
4289,33984
4290,33920
4291,33984
4292,34048
4293,34112
4294,34048
4295,34112
4296,34112
4297,34048
4298,33984
4299,34048
4300,34112
4301,34112
4302,34048
4303,33984
4304,33984
4305,33984
4306,33920
4307,33920
4308,33984
4309,33984
4310,33856
4311,33792
4312,33856
4313,33856
4314,33856
4315,33856
4316,33920
4317,33984
4318,33920
4319,33920
4320,33856
4321,33920
4322,33856
4323,33856
4324,33920
4325,33984
4326,33920
4327,33792
4328,33856
4329,33920
4330,33856
4331,33792
4332,33856
4333,33984
4334,34112
4335,34048
4336,34176
4337,34240
4338,34304
4339,34304
4340,34368
4341,34560
4342,34688
4343,34624
4344,34496
4345,34496
4346,34432
4347,34240
4348,33984
4349,33728
4350,33536
4351,33408
4352,33344
4353,33344
4354,33408
4355,33472
4356,33472
4357,33536
4358,33664
4359,33728
4360,33728
4361,33792
4362,33920
4363,33984
4364,33920
4365,33856
4366,33856
4367,33856
4368,33792
4369,33600
4370,33472
4371,33600
4372,34304
4373,35712
4374,37632
4375,39616
4376,40896
4377,41216
4378,40192
4379,36800
4380,36416
4381,33024
4382,31488
4383,30528
4384,30144
4385,30080
4386,30400
4387,31168
4388,31872
4389,32512
4390,33088
4391,33600
4392,33984
4393,34176
4394,34176
4395,34112
4396,34176
4397,34176
4398,34176
4399,34176
4400,34304
4401,34304
4402,34176
4403,34112
4404,34112
4405,33984
4406,33920
4407,33920
4408,33984
4409,34048
4410,33984
4411,33920
4412,33920
4413,33984
4414,33984
4415,34048
4416,34048
4417,34112
4418,34112
4419,34112
4420,34112
4421,34176
4422,34176
4423,34176
4424,34240
4425,34176
4426,34240
4427,34240
4428,34304
4429,34304
4430,34176
4431,34112
4432,34048
4433,34176
4434,34176
4435,34176
4436,34240
4437,34240
4438,34240
4439,34112
4440,34048
4441,34112
4442,34176
4443,34048
4444,33920
4445,33920
4446,33920
4447,33792
4448,33728
4449,33728
4450,33728
4451,33664
4452,33600
4453,33600
4454,33600
4455,33600
4456,33472
4457,33472
4458,33536
4459,33664
4460,33664
4461,33728
4462,33792
4463,33856
4464,33856
4465,33792
4466,33856
4467,33856
4468,33856
4469,33856
4470,33792
4471,33920
4472,33920
4473,33856
4474,33856
4475,33920
4476,33920
4477,33856
4478,33920
4479,33984
4480,33984
4481,33856
4482,33792
4483,33856
4484,33856
4485,33792
4486,33792
4487,33792
4488,33856
4489,33728
4490,33728
4491,33856
4492,33920
4493,33856
4494,33856
4495,33792
4496,33792
4497,33728
4498,33664
4499,33728
4500,33792
4501,33856
4502,33792
4503,33792
4504,33920
4505,33856
4506,33728
4507,33728
4508,33728
4509,33792
4510,33792
4511,33792
4512,33856
4513,33856
4514,33920
4515,33856
4516,33984
4517,34176
4518,34176
4519,34176
4520,34304
4521,34496
4522,34560
4523,34560
4524,34624
4525,34624
4526,34496
4527,34304
4528,34176
4529,33856
4530,33728
4531,33472
4532,33280
4533,33280
4534,33344
4535,33280
4536,33280
4537,33472
4538,33600
4539,33664
4540,33728
4541,33792
4542,33856
4543,33920
4544,33920
4545,33856
4546,33984
4547,33920
4548,33792
4549,33664
4550,33472
4551,33280
4552,33472
4553,34368
4554,36160
4555,38208
4556,40128
4557,41408
4558,41664
4559,39936
4560,37312
4561,34496
4562,32320
4563,30848
4564,29952
4565,29696
4566,30080
4567,30848
4568,31552
4569,32256
4570,32896
4571,33408
4572,33728
4573,33984
4574,34176
4575,34240
4576,34240
4577,34304
4578,34304
4579,34368
4580,34304
4581,34240
4582,34176
4583,34112
4584,34112
4585,33984
4586,33984
4587,34048
4588,34048
4589,33984
4590,33920
4591,33920
4592,33984
4593,34048
4594,34048
4595,34048
4596,34176
4597,34112
4598,34112
4599,34112
4600,34240
4601,34304
4602,34240
4603,34240
4604,34304
4605,34368
4606,34304
4607,34304
4608,34368
4609,34368
4610,34240
4611,34176
4612,34240
4613,34304
4614,34304
4615,34240
4616,34304
4617,34368
4618,34304
4619,34240
4620,34176
4621,34176
4622,34176
4623,34112
4624,34048
4625,34048
4626,34048
4627,33920
4628,33856
4629,33792
4630,33728
4631,33664
4632,33600
4633,33600
4634,33600
4635,33600
4636,33600
4637,33600
4638,33664
4639,33664
4640,33600
4641,33664
4642,33792
4643,33792
4644,33728
4645,33728
4646,33792
4647,33792
4648,33792
4649,33792
4650,33920
4651,33984
4652,33920
4653,33856
4654,33920
4655,33984
4656,33856
4657,33792
4658,33856
4659,33856
4660,33856
4661,33856
4662,33856
4663,33920
4664,33792
4665,33728
4666,33728
4667,33728
4668,33728
4669,33664
4670,33664
4671,33728
4672,33728
4673,33664
4674,33728
4675,33792
4676,33792
4677,33728
4678,33728
4679,33792
4680,33792
4681,33728
4682,33728
4683,33792
4684,33792
4685,33728
4686,33664
4687,33664
4688,33728
4689,33664
4690,33600
4691,33664
4692,33664
4693,33664
4694,33600
4695,33664
4696,33792
4697,33856
4698,33920
4699,33984
4700,34112
4701,34176
4702,34112
4703,34176
4704,34304
4705,34432
4706,34496
4707,34496
4708,34496
4709,34368
4710,34240
4711,34048
4712,33920
4713,33728
4714,33472
4715,33216
4716,33152
4717,33216
4718,33216
4719,33216
4720,33216
4721,33408
4722,33536
4723,33536
4724,33600
4725,33664
4726,33728
4727,33792
4728,33792
4729,33856
4730,33856
4731,33728
4732,33600
4733,33408
4734,33280
4735,33152
4736,33536
4737,34752
4738,36608
4739,38784
4740,40640
4741,41792
4742,41600
4743,39552
4744,36416
4745,33408
4746,31232
4747,29888
4748,29312
4749,29504
4750,30208
4751,31040
4752,31808
4753,32512
4754,33088
4755,33536
4756,33728
4757,33920
4758,34048
4759,34176
4760,34176
4761,34112
4762,34112
4763,34112
4764,34048
4765,33984
4766,33920
4767,33984
4768,33920
4769,33856
4770,33792
4771,33856
4772,33856
4773,33856
4774,33856
4775,33984
4776,34048
4777,33984
4778,33920
4779,33984
4780,33984
4781,34048
4782,34048
4783,34176
4784,34240
4785,34240
4786,34176
4787,34240
4788,34368
4789,34368
4790,34240
4791,34240
4792,34368
4793,34432
4794,34368
4795,34368
4796,34368
4797,34368
4798,34304
4799,34240
4800,34240
4801,34240
4802,34112
4803,34048
4804,34112
4805,34112
4806,34048
4807,33984
4808,33984
4809,33984
4810,33920
4811,33728
4812,33664
4813,33664
4814,33600
4815,33600
4816,33600
4817,33664
4818,33600
4819,33536
4820,33472
4821,33472
4822,33536
4823,33536
4824,33472
4825,33600
4826,33600
4827,33600
4828,33600
4829,33600
4830,33664
4831,33728
4832,33728
4833,33792
4834,33856
4835,33792
4836,33728
4837,33792
4838,33920
4839,33920
4840,33856
4841,33856
4842,33920
4843,33920
4844,33792
4845,33792
4846,33792
4847,33856
4848,33792
4849,33728
4850,33792
4851,33856
4852,33792
4853,33664
4854,33664
4855,33728
4856,33728
4857,33664
4858,33728
4859,33856
4860,33856
4861,33792
4862,33728
4863,33728
4864,33600
4865,33536
4866,33600
4867,33664
4868,33664
4869,33600
4870,33600
4871,33600
4872,33600
4873,33536
4874,33472
4875,33600
4876,33664
4877,33664
4878,33600
4879,33600
4880,33600
4881,33472
4882,33472
4883,33472
4884,33536
4885,33472
4886,33344
4887,33344
4888,33408
4889,33472
4890,33536
4891,33600
4892,33728
4893,33856
4894,33792
4895,33728
4896,33856
4897,34112
4898,34240
4899,34304
4900,34304
4901,34304
4902,34176
4903,33984
4904,33792
4905,33600
4906,33344
4907,33152
4908,33024
4909,32960
4910,33024
4911,32960
4912,33088
4913,33280
4914,33408
4915,33408
4916,33472
4917,33536
4918,33600
4919,33600
4920,33664
4921,33728
4922,33792
4923,33792
4924,33600
4925,33408
4926,33216
4927,33152
4928,33664
4929,35008
4930,36928
4931,39040
4932,40768
4933,41728
4934,41408
4935,39168
4936,36224
4937,33408
4938,31424
4939,30272
4940,29696
4941,29760
4942,30336
4943,31168
4944,31936
4945,32576
4946,33152
4947,33664
4948,33920
4949,34048
4950,34176
4951,34304
4952,34368
4953,34368
4954,34432
4955,34368
4956,34304
4957,34112
4958,34048
4959,34048
4960,34112
4961,34112
4962,34048
4963,34112
4964,34112
4965,34048
4966,34048
4967,34112
4968,34176
4969,34176
4970,34176
4971,34240
4972,34240
4973,34240
4974,34240
4975,34304
4976,34432
4977,34432
4978,34432
4979,34432
4980,34496
4981,34432
4982,34368
4983,34368
4984,34432
4985,34432
4986,34432
4987,34432
4988,34496
4989,34496
4990,34432
4991,34368
4992,34432
4993,34432
4994,34368
4995,34304
4996,34368
4997,34368
4998,34304
4999,34240
5000,34176
5001,34176
5002,34112
5003,34048
5004,34048
5005,34048
5006,33920
5007,33792
5008,33792
5009,33856
5010,33856
5011,33792
5012,33728
5013,33728
5014,33728
5015,33792
5016,33792
5017,33920
5018,33984
5019,33984
5020,33920
5021,33984
5022,33984
5023,33984
5024,33920
5025,33984
5026,34048
5027,34048
5028,33984
5029,33984
5030,34112
5031,34176
5032,34112
5033,33984
5034,34048
5035,34048
5036,33920
5037,33856
5038,33920
5039,33984
5040,33984
5041,33920
5042,33984
5043,33984
5044,33984
5045,33984
5046,33984
5047,34048
5048,34048
5049,33984
5050,33920
5051,33984
5052,33920
5053,33856
5054,33856
5055,33856
5056,33792
5057,33728
5058,33728
5059,33856
5060,33856
5061,33792
5062,33792
5063,33856
5064,33920
5065,33920
5066,33792
5067,33792
5068,33856
5069,33856
5070,33984
5071,34048
5072,34112
5073,34112
5074,34112
5075,34176
5076,34240
5077,34240
5078,34304
5079,34496
5080,34624
5081,34560
5082,34432
5083,34368
5084,34368
5085,34304
5086,34048
5087,33728
5088,33536
5089,33408
5090,33280
5091,33216
5092,33280
5093,33408
5094,33472
5095,33536
5096,33664
5097,33728
5098,33728
5099,33728
5100,33792
5101,33856
5102,33920
5103,33856
5104,33920
5105,33920
5106,33728
5107,33536
5108,33344
5109,33472
5110,34176
5111,35584
5112,37504
5113,39488
5114,40896
5115,41216
5116,40192
5117,37888
5118,35264
5119,33024
5120,31488
5121,30592
5122,30208
5123,30144
5124,30464
5125,31168
5126,31936
5127,32576
5128,33024
5129,33408
5130,33728
5131,33984
5132,34048
5133,34176
5134,34304
5135,34304
5136,34240
5137,34176
5138,34176
5139,34112
5140,34048
5141,33920
5142,33920
5143,33984
5144,33920
5145,33856
5146,33856
5147,33920
5148,33984
5149,33984
5150,34048
5151,34048
5152,34048
5153,34048
5154,34048
5155,34176
5156,34176
5157,34112
5158,34048
5159,34176
5160,34240
5161,34240
5162,34176
5163,34176
5164,34240
5165,34240
5166,34240
5167,34304
5168,34368
5169,34304
5170,34240
5171,34240
5172,34304
5173,34240
5174,34176
5175,34176
5176,34176
5177,34176
5178,34112
5179,34176
5180,34176
5181,34176
5182,34048
5183,34048
5184,34048
5185,34048
5186,33920
5187,33792
5188,33792
5189,33728
5190,33664
5191,33536
5192,33600
5193,33664
5194,33600
5195,33536
5196,33600
5197,33792
5198,33856
5199,33792
5200,33792
5201,33856
5202,33856
5203,33728
5204,33728
5205,33792
5206,33856
5207,33856
5208,33920
5209,33984
5210,34048
5211,33984
5212,33984
5213,33984
5214,33984
5215,33984
5216,33920
5217,33920
5218,33984
5219,33984
5220,33984
5221,33984
5222,33984
5223,33984
5224,33920
5225,33920
5226,33984
5227,33920
5228,33856
5229,33856
5230,33856
5231,33856
5232,33792
5233,33792
5234,33856
5235,33920
5236,33920
5237,33920
5238,33920
5239,33920
5240,33792
5241,33728
5242,33792
5243,33856
5244,33856
5245,33856
5246,33856
5247,33920
5248,33920
5249,33920
5250,33920
5251,34048
5252,34176
5253,34240
5254,34240
5255,34368
5256,34560
5257,34624
5258,34624
5259,34688
5260,34688
5261,34560
5262,34304
5263,34176
5264,33984
5265,33664
5266,33472
5267,33344
5268,33344
5269,33344
5270,33280
5271,33344
5272,33536
5273,33600
5274,33600
5275,33728
5276,33856
5277,33856
5278,33856
5279,33856
5280,33920
5281,33920
5282,33920
5283,33856
5284,33728
5285,33536
5286,33408
5287,33536
5288,34560
5289,36288
5290,38272
5291,40128
5292,41408
5293,41600
5294,40000
5295,37184
5296,34368
5297,32128
5298,30656
5299,29824
5300,29696
5301,30144
5302,30912
5303,31616
5304,32320
5305,32960
5306,33408
5307,33728
5308,33920
5309,34112
5310,34304
5311,34304
5312,34304
5313,34304
5314,34304
5315,34176
5316,34112
5317,34112
5318,34112
5319,33984
5320,33920
5321,33920
5322,33984
5323,34048
5324,33984
5325,33920
5326,33984
5327,33984
5328,33920
5329,33984
5330,34048
5331,34112
5332,34048
5333,33984
5334,33984
5335,34112
5336,34176
5337,34240
5338,34304
5339,34432
5340,34368
5341,34304
5342,34304
5343,34432
5344,34432
5345,34368
5346,34368
5347,34432
5348,34368
5349,34368
5350,34304
5351,34304
5352,34304
5353,34240
5354,34176
5355,34240
5356,34240
5357,34176
5358,34048
5359,34048
5360,34112
5361,33984
5362,33856
5363,33792
5364,33792
5365,33728
5366,33664
5367,33664
5368,33728
5369,33664
5370,33600
5371,33600
5372,33664
5373,33664
5374,33664
5375,33664
5376,33792
5377,33856
5378,33792
5379,33728
5380,33856
5381,33920
5382,33920
5383,33856
5384,33856
5385,33920
5386,33856
5387,33792
5388,33856
5389,33920
5390,33984
5391,33984
5392,33920
5393,33920
5394,33920
5395,33856
5396,33792
5397,33792
5398,33792
5399,33728
5400,33792
5401,33920
5402,33856
5403,33728
5404,33664
5405,33728
5406,33856
5407,33792
5408,33728
5409,33792
5410,33728
5411,33664
5412,33664
5413,33664
5414,33728
5415,33664
5416,33664
5417,33664
5418,33728
5419,33664
5420,33600
5421,33664
5422,33792
5423,33792
5424,33728
5425,33664
5426,33664
5427,33728
5428,33728
5429,33728
5430,33920
5431,34048
5432,34112
5433,34048
5434,34112
5435,34240
5436,34304
5437,34368
5438,34368
5439,34432
5440,34304
5441,34112
5442,34048
5443,33984
5444,33728
5445,33344
5446,33152
5447,33088
5448,33024
5449,33024
5450,32960
5451,33024
5452,33152
5453,33152
5454,33152
5455,33280
5456,33408
5457,33408
5458,33408
5459,33472
5460,33536
5461,33536
5462,33472
5463,33472
5464,33280
5465,33024
5466,32768
5467,33024
5468,34112
5469,35968
5470,38016
5471,40000
5472,41344
5473,41408
5474,39680
5475,36480
5476,33792
5477,31424
5478,29952
5479,29248
5480,29312
5481,29952
5482,30784
5483,31552
5484,32256
5485,32832
5486,33280
5487,33536
5488,33792
5489,33984
5490,33984
5491,33920
5492,33984
5493,34048
5494,34048
5495,33920
5496,33856
5497,33920
5498,33984
5499,33920
5500,33856
5501,33920
5502,34048
5503,34048
5504,33984
5505,34048
5506,34048
5507,34048
5508,33984
5509,33984
5510,34048
5511,34048
5512,34112
5513,34176
5514,34240
5515,34240
5516,34240
5517,34240
5518,34304
5519,34368
5520,34368
5521,34304
5522,34368
5523,34368
5524,34304
5525,34304
5526,34368
5527,34432
5528,34368
5529,34304
5530,34368
5531,34432
5532,34432
5533,34432
5534,34432
5535,34432
5536,34368
5537,34240
5538,34240
5539,34304
5540,34240
5541,34048
5542,33984
5543,33984
5544,33984
5545,33920
5546,33856
5547,33856
5548,33792
5549,33728
5550,33728
5551,33792
5552,33792
5553,33792
5554,33792
5555,33856
5556,33920
5557,33920
5558,33920
5559,33984
5560,34112
5561,34112
5562,33984
5563,33984
5564,34112
5565,34176
5566,34176
5567,34176
5568,34176
5569,34240
5570,34176
5571,34112
5572,34112
5573,34176
5574,34112
5575,34112
5576,34112
5577,34176
5578,34176
5579,34112
5580,34176
5581,34240
5582,34112
5583,34048
5584,34048
5585,34112
5586,34048
5587,33920
5588,33856
5589,33792
5590,33664
5591,33472
5592,33408
5593,33408
5594,33408
5595,33344
5596,33344
5597,33472
5598,33600
5599,33600
5600,33664
5601,33728
5602,33792
5603,33856
5604,33984
5605,34112
5606,34240
5607,34240
5608,34176
5609,34240
5610,34432
5611,34624
5612,34624
5613,34624
5614,34560
5615,34496
5616,34304
5617,34176
5618,34048
5619,33920
5620,33664
5621,33408
5622,33344
5623,33280
5624,33216
5625,33280
5626,33344
5627,33472
5628,33536
5629,33536
5630,33664
5631,33856
5632,33856
5633,33792
5634,33792
5635,33856
5636,33856
5637,33728
5638,33728
5639,33600
5640,33344
5641,33216
5642,33664
5643,34944
5644,36800
5645,38848
5646,40448
5647,41280
5648,40896
5649,38848
5650,36160
5651,33792
5652,32064
5653,30848
5654,30144
5655,29952
5656,30336
5657,30976
5658,31616
5659,32256
5660,32896
5661,33408
5662,33728
5663,33984
5664,34176
5665,34240
5666,34176
5667,34176
5668,34240
5669,34304
5670,34176
5671,34112
5672,34112
5673,34176
5674,34048
5675,33984
5676,34048
5677,34112
5678,34048
5679,33920
5680,33920
5681,34048
5682,34112
5683,34176
5684,34112
5685,34176
5686,34112
5687,34048
5688,34112
5689,34240
5690,34304
5691,34240
5692,34112
5693,34176
5694,34176
5695,34176
5696,34176
5697,34240
5698,34304
5699,34240
5700,34176
5701,34240
5702,34304
5703,34304
5704,34176
5705,34176
5706,34176
5707,34112
5708,34048
5709,34048
5710,34112
5711,34176
5712,34112
5713,34048
5714,33984
5715,33984
5716,33920
5717,33856
5718,33920
5719,33984
5720,33856
5721,33792
5722,33792
5723,33792
5724,33728
5725,33664
5726,33664
5727,33728
5728,33728
5729,33664
5730,33728
5731,33792
5732,33792
5733,33856
5734,33920
5735,33984
5736,34048
5737,34048
5738,34048
5739,34112
5740,34112
5741,34048
5742,33984
5743,34048
5744,34112
5745,34112
5746,34048
5747,33984
5748,34048
5749,33984
5750,33984
5751,33920
5752,33856
5753,33792
5754,33664
5755,33600
5756,33664
5757,33664
5758,33664
5759,33600
5760,33600
5761,33664
5762,33600
5763,33536
5764,33600
5765,33664
5766,33664
5767,33728
5768,33792
5769,33856
5770,33728
5771,33664
5772,33600
5773,33664
5774,33600
5775,33536
5776,33600
5777,33600
5778,33600
5779,33600
5780,33600
5781,33728
5782,33856
5783,33856
5784,33984
5785,34112
5786,34176
5787,34112
5788,34176
5789,34368
5790,34496
5791,34432
5792,34496
5793,34496
5794,34432
5795,34304
5796,34240
5797,34112
5798,33984
5799,33728
5800,33408
5801,33280
5802,33280
5803,33280
5804,33280
5805,33408
5806,33600
5807,33664
5808,33664
5809,33728
5810,33792
5811,33920
5812,33920
5813,33920
5814,33984
5815,33984
5816,33920
5817,33792
5818,33600
5819,33408
5820,33344
5821,33792
5822,35136
5823,37056
5824,39232
5825,40960
5826,41856
5827,41536
5828,39296
5829,36224
5830,33408
5831,31360
5832,30208
5833,29824
5834,30016
5835,30912
5836,31616
5837,32256
5838,32896
5839,33408
5840,33728
5841,33984
5842,34112
5843,34368
5844,34432
5845,34368
5846,34304
5847,34304
5848,34304
5849,34304
5850,34112
5851,34048
5852,34112
5853,34048
5854,33984
5855,33984
5856,33984
5857,33920
5858,33856
5859,33728
5860,33728
5861,33728
5862,33664
5863,33728
5864,33792
5865,33664
5866,33600
5867,33664
5868,33792
5869,33792
5870,33728
5871,33792
5872,33856
5873,33920
5874,33920
5875,33984
5876,34112
5877,34112
5878,34048
5879,33984
5880,33984
5881,34048
5882,34048
5883,33984
5884,34048
5885,34048
5886,33984
5887,33920
5888,33856
5889,33792
5890,33728
5891,33664
5892,33600
5893,33600
5894,33600
5895,33536
5896,33472
5897,33472
5898,33408
5899,33216
5900,33152
5901,33152
5902,33216
5903,33088
5904,33024
5905,33152
5906,33280
5907,33280
5908,33344
5909,33536
5910,33472
5911,33472
5912,33472
5913,33472
5914,33536
5915,33600
5916,33600
5917,33664
5918,33728
5919,33792
5920,33792
5921,33856
5922,33920
5923,33856
5924,33728
5925,33664
5926,33728
5927,33728
5928,33728
5929,33792
5930,33728
5931,33920
5932,33856
5933,33792
5934,33856
5935,33920
5936,33856
5937,33856
5938,33856
5939,33984
5940,33920
5941,33856
5942,33792
5943,33856
5944,33920
5945,33856
5946,33856
5947,33920
5948,33920
5949,33856
5950,33856
5951,33920
5952,33920
5953,33792
5954,33728
5955,33728
5956,33728
5957,33792
5958,33856
5959,34048
5960,34176
5961,34240
5962,34240
5963,34304
5964,34368
5965,34432
5966,34560
5967,34688
5968,34752
5969,34752
5970,34624
5971,34496
5972,34432
5973,34240
5974,34048
5975,33792
5976,33600
5977,33472
5978,33280
5979,33216
5980,33280
5981,33344
5982,33344
5983,33408
5984,33600
5985,33600
5986,33728
5987,33792
5988,33920
5989,34048
5990,33984
5991,33920
5992,33984
5993,33984
5994,33856
5995,33536
5996,33280
5997,33280
5998,33792
5999,35200
6000,37120
6001,39424
6002,41280
6003,42112
6004,41024
6005,40832
6006,35584
6007,32576
6008,30528
6009,29504
6010,29312
6011,29696
6012,30464
6013,31296
6014,32192
6015,32256
6016,33088
6017,33472
6018,33792
6019,33984
6020,33984
6021,33984
6022,34048
6023,34048
6024,33920
6025,33856
6026,33856
6027,33792
6028,33664
6029,33664
6030,33664
6031,33664
6032,33600
6033,33536
6034,33600
6035,33728
6036,33728
6037,33728
6038,33792
6039,33856
6040,33984
6041,34048
6042,34112
6043,34432
6044,34880
6045,34880
6046,35328
6047,35584
6048,35712
6049,35648
6050,35520
6051,35520
6052,35392
6053,35264
6054,35072
6055,35008
6056,34880
6057,34752
6058,34560
6059,34560
6060,34496
6061,34496
6062,34432
6063,34496
6064,34560
6065,34560
6066,34432
6067,34368
6068,34368
6069,34304
6070,34240
6071,34176
6072,34176
6073,34112
6074,33984
6075,33856
6076,33920
6077,33920
6078,33792
6079,33728
6080,33792
6081,33856
6082,33792
6083,33728
6084,33728
6085,33792
6086,33792
6087,33856
6088,33920
6089,33984
6090,33984
6091,33920
6092,33920
6093,33984
6094,33984
6095,33920
6096,33920
6097,34048
6098,34112
6099,34048
6100,33920
6101,33984
6102,34048
6103,33984
6104,33920
6105,33920
6106,34048
6107,33984
6108,33984
6109,34048
6110,34112
6111,33984
6112,33856
6113,33856
6114,33984
6115,33984
6116,33920
6117,33792
6118,33792
6119,33728
6120,33728
6121,33664
6122,33728
6123,33792
6124,33792
6125,33792
6126,33792
6127,33792
6128,33728
6129,33664
6130,33728
6131,33792
6132,33792
6133,33792
6134,33856
6135,34048
6136,34048
6137,33984
6138,34048
6139,34112
6140,34240
6141,34368
6142,34432
6143,34496
6144,34496
6145,34432
6146,34304
6147,34304
6148,33984
6149,33536
6150,33472
6151,33344
6152,33344
6153,33280
6154,33216
6155,33280
6156,33344
6157,33408
6158,33408
6159,33536
6160,33664
6161,33664
6162,33728
6163,33792
6164,33984
6165,33920
6166,33856
6167,33792
6168,33664
6169,33472
6170,33152
6171,33344
6172,34304
6173,36032
6174,37952
6175,39744
6176,41024
6177,41216
6178,39744
6179,37120
6180,34496
6181,32512
6182,31040
6183,30208
6184,29952
6185,30208
6186,30784
6187,31360
6188,32064
6189,32704
6190,33216
6191,33536
6192,33856
6193,34176
6194,34368
6195,34304
6196,34304
6197,34304
6198,34240
6199,34112
6200,33984
6201,33984
6202,33984
6203,33856
6204,33728
6205,33792
6206,33856
6207,33856
6208,33792
6209,33856
6210,33856
6211,33984
6212,33920
6213,33984
6214,34112
6215,34112
6216,34048
6217,34048
6218,34112
6219,34240
6220,34176
6221,34176
6222,34240
6223,34240
6224,34112
6225,34048
6226,34112
6227,34112
6228,34048
6229,33984
6230,34048
6231,34176
6232,34176
6233,34112
6234,34112
6235,34240
6236,34240
6237,34176
6238,34176
6239,34176
6240,34176
6241,34048
6242,33920
6243,33984
6244,33984
6245,33920
6246,33792
6247,33792
6248,33792
6249,33728
6250,33600
6251,33664
6252,33728
6253,33600
6254,33600
6255,33600
6256,33856
6257,33792
6258,33664
6259,33728
6260,33728
6261,33728
6262,33728
6263,33664
6264,33792
6265,33920
6266,33920
6267,33920
6268,34048
6269,34176
6270,34112
6271,34048
6272,33920
6273,33920
6274,33792
6275,33792
6276,33856
6277,33920
6278,33984
6279,33984
6280,34048
6281,34112
6282,34112
6283,33984
6284,33856
6285,33856
6286,33856
6287,33728
6288,33728
6289,33856
6290,33856
6291,33856
6292,33792
6293,33856
6294,33856
6295,33728
6296,33664
6297,33728
6298,33792
6299,33728
6300,33728
6301,33728
6302,33856
6303,33856
6304,33792
6305,33920
6306,34048
6307,34176
6308,34112
6309,34048
6310,34176
6311,34176
6312,34304
6313,34496
6314,34752
6315,34752
6316,34624
6317,34496
6318,34368
6319,34304
6320,33920
6321,33536
6322,33344
6323,33280
6324,33152
6325,33088
6326,33088
6327,33280
6328,33280
6329,33344
6330,33344
6331,33600
6332,33792
6333,33728
6334,33728
6335,33792
6336,33920
6337,33856
6338,33792
6339,33728
6340,33536
6341,33216
6342,33088
6343,33408
6344,34496
6345,36160
6346,38208
6347,40320
6348,41664
6349,41600
6350,39744
6351,36800
6352,33856
6353,31616
6354,30144
6355,29440
6356,29440
6357,30016
6358,30784
6359,32064
6360,32128
6361,33024
6362,33408
6363,33664
6364,33856
6365,33984
6366,34048
6367,34048
6368,34112
6369,34048
6370,33984
6371,33920
6372,33920
6373,33920
6374,33792
6375,33792
6376,33856
6377,33920
6378,33920
6379,33856
6380,33920
6381,34048
6382,33984
6383,33920
6384,33856
6385,33984
6386,34112
6387,34048
6388,33920
6389,33920
6390,33984
6391,34048
6392,34048
6393,34112
6394,34176
6395,34176
6396,34112
6397,34112
6398,34176
6399,34240
6400,34176
6401,34176
6402,34176
6403,34176
6404,34048
6405,33984
6406,34112
6407,34112
6408,34112
6409,34176
6410,34240
6411,34240
6412,34048
6413,33920
6414,33856
6415,33920
6416,33856
6417,33792
6418,33792
6419,33792
6420,33728
6421,33664
6422,33728
6423,33792
6424,33728
6425,33664
6426,33664
6427,33792
6428,33664
6429,33536
6430,33472
6431,33600
6432,33728
6433,33728
6434,33792
6435,33792
6436,33984
6437,34048
6438,34048
6439,34112
6440,34112
6441,34048
6442,33920
6443,33984
6444,34048
6445,33984
6446,33920
6447,33984
6448,34112
6449,34048
6450,33920
6451,33984
6452,34176
6453,34240
6454,34112
6455,33920
6456,33920
6457,33920
6458,33792
6459,33792
6460,33856
6461,33856
6462,33792
6463,33792
6464,33984
6465,33984
6466,34048
6467,33984
6468,34048
6469,34112
6470,34176
6471,34176
6472,34368
6473,34560
6474,34624
6475,34688
6476,34752
6477,34752
6478,34688
6479,34560
6480,34496
6481,34368
6482,34112
6483,33728
6484,33408
6485,33344
6486,33216
6487,33152
6488,33088
6489,33216
6490,33344
6491,33472
6492,33536
6493,33664
6494,33728
6495,33792
6496,33792
6497,33856
6498,34048
6499,34176
6500,33984
6501,33856
6502,33728
6503,33600
6504,33280
6505,33216
6506,33728
6507,35136
6508,36992
6509,39936
6510,40064
6511,41408
6512,40832
6513,38720
6514,35968
6515,33728
6516,32000
6517,30784
6518,30080
6519,29952
6520,30208
6521,30720
6522,31360
6523,32128
6524,33024
6525,33088
6526,33600
6527,33984
6528,34176
6529,34240
6530,34368
6531,34496
6532,34496
6533,34304
6534,34112
6535,34048
6536,33984
6537,33856
6538,33792
6539,33920
6540,34048
6541,34048
6542,33920
6543,33856
6544,33920
6545,33984
6546,33984
6547,33984
6548,34048
6549,34176
6550,34176
6551,34176
6552,34240
6553,34176
6554,33984
6555,33984
6556,34112
6557,34240
6558,34240
6559,34176
6560,34112
6561,34176
6562,34176
6563,34176
6564,34176
6565,34304
6566,34368
6567,34432
6568,34432
6569,34304
6570,34112
6571,33920
6572,33856
6573,33984
6574,34048
6575,34048
6576,33984
6577,34048
6578,33984
6579,33856
6580,33856
6581,33792
6582,33792
6583,33664
6584,33664
6585,33600
6586,33600
6587,33536
6588,33536
6589,33536
6590,33728
6591,33728
6592,33600
6593,33536
6594,33600
6595,33664
6596,33728
6597,33728
6598,33728
6599,33664
6600,33664
6601,33728
6602,33920
6603,33984
6604,33920
6605,33920
6606,33984
6607,34112
6608,34112
6609,34112
6610,34112
6611,34112
6612,33920
6613,33664
6614,33600
6615,33664
6616,33728
6617,33664
6618,33728
6619,33792
6620,33792
6621,33792
6622,33856
6623,33984
6624,34112
6625,33984
6626,33920
6627,33920
6628,33984
6629,33984
6630,34048
6631,34112
6632,34240
6633,34368
6634,34432
6635,34432
6636,34432
6637,34432
6638,34432
6639,34496
6640,34432
6641,34304
6642,33984
6643,33792
6644,33728
6645,33408
6646,33152
6647,33152
6648,33408
6649,33472
6650,33408
6651,33216
6652,33088
6653,32896
6654,32832
6655,32896
6656,33088
6657,33344
6658,33536
6659,33664
6660,33856
6661,33920
6662,33792
6663,33472
6664,33216
6665,33472
6666,34432
6667,36288
6668,38464
6669,40256
6670,41344
6671,41536
6672,40128
6673,37504
6674,34624
6675,32448
6676,31424
6677,31168
6678,30720
6679,30336
6680,30400
6681,30784
6682,31168
6683,31616
6684,32128
6685,32640
6686,33152
6687,33600
6688,33856
6689,34048
6690,34368
6691,34496
6692,34368
6693,34304
6694,34368
6695,34368
6696,34240
6697,34112
6698,34112
6699,34048
6700,34048
6701,34112
6702,34112
6703,34048
6704,33984
6705,33984
6706,34048
6707,34176
6708,34112
6709,34112
6710,34112
6711,34176
6712,34176
6713,34112
6714,34112
6715,34176
6716,34240
6717,34240
6718,34368
6719,34624
6720,34624
6721,34624
6722,34752
6723,34816
6724,34688
6725,34496
6726,34432
6727,34304
6728,34112
6729,33856
6730,33600
6731,33664
6732,33920
6733,34048
6734,34048
6735,33984
6736,33984
6737,34112
6738,34176
6739,34048
6740,33856
6741,33792
6742,33728
6743,33728
6744,33792
6745,33856
6746,34112
6747,34304
6748,34560
6749,34304
6750,33856
6751,33664
6752,33728
6753,33920
6754,33856
6755,33920
6756,33984
6757,33856
6758,33472
6759,33152
6760,33088
6761,33344
6762,33280
6763,33280
6764,33536
6765,33856
6766,33856
6767,33728
6768,33792
6769,33920
6770,33984
6771,34112
6772,34112
6773,34112
6774,34048
6775,33984
6776,33856
6777,33856
6778,33920
6779,34112
6780,34304
6781,34560
6782,34624
6783,34560
6784,34432
6785,33664
6786,33088
6787,32960
6788,32832
6789,32704
6790,32896
6791,33280
6792,33536
6793,33856
6794,34112
6795,34176
6796,34176
6797,34304
6798,34560
6799,34816
6800,35200
6801,35072
6802,34560
6803,34240
6804,33984
6805,33920
6806,33984
6807,34112
6808,33856
6809,33472
6810,33344
6811,33344
6812,33472
6813,33344
6814,33088
6815,33216
6816,33728
6817,33920
6818,33728
6819,33664
6820,33664
6821,33600
6822,33600
6823,33792
6824,34112
6825,34432
6826,34560
6827,34368
6828,34048
6829,33728
6830,33472
6831,33920
6832,35456
6833,37440
6834,39616
6835,41280
6836,41984
6837,40832
6838,37888
6839,34688
6840,32384
6841,30912
6842,29952
6843,29568
6844,29952
6845,30848
6846,31808
6847,32576
6848,32896
6849,33216
6850,33728
6851,34176
6852,34368
6853,34432
6854,34432
6855,34432
6856,34240
6857,34112
6858,33920
6859,33856
6860,33856
6861,33920
6862,34112
6863,34560
6864,34880
6865,34816
6866,34560
6867,34304
6868,34176
6869,34048
6870,33984
6871,33664
6872,33472
6873,33600
6874,34112
6875,34368
6876,34240
6877,34176
6878,34176
6879,34240
6880,34432
6881,34112
6882,33856
6883,33984
6884,34176
6885,34624
6886,35008
6887,34752
6888,34176
6889,33792
6890,33728
6891,33792
6892,33856
6893,34112
6894,34368
6895,34496
6896,34560
6897,34688
6898,34624
6899,34112
6900,33600
6901,33728
6902,33856
6903,33856
6904,33600
6905,33536
6906,33536
6907,33472
6908,33408
6909,33152
6910,33024
6911,33088
6912,33152
6913,33280
6914,33408
6915,33664
6916,33792
6917,33792
6918,33728
6919,33728
6920,33856
6921,33856
6922,33920
6923,34048
6924,33920
6925,33728
6926,33728
6927,33856
6928,33856
6929,33600
6930,33216
6931,33152
6932,33472
6933,33664
6934,33792
6935,33728
6936,33728
6937,33536
6938,33344
6939,33280
6940,33600
6941,33792
6942,33856
6943,33984
6944,34240
6945,34624
6946,34560
6947,34112
6948,33664
6949,33536
6950,33600
6951,33664
6952,33664
6953,33536
6954,33408
6955,33088
6956,33024
6957,33216
6958,33344
6959,33664
6960,34304
6961,34624
6962,34240
6963,34048
6964,33920
6965,34048
6966,34176
6967,34368
6968,34368
6969,34432
6970,34560
6971,34368
6972,34240
6973,34368
6974,34304
6975,33856
6976,33216
6977,33152
6978,33152
6979,32896
6980,32704
6981,32896
6982,33152
6983,33216
6984,33408
6985,33536
6986,33600
6987,33664
6988,33600
6989,33664
6990,33984
6991,34112
6992,34240
6993,33984
6994,33408
6995,32960
6996,32832
6997,33408
6998,34816
6999,36864
7000,38976
7001,40896
7002,42048
7003,41728
7004,39616
7005,36224
7006,33088
7007,30848
7008,29632
7009,29440
7010,29952
7011,30528
7012,31104
7013,31616
7014,32320
7015,33088
7016,33472
7017,33536
7018,33600
7019,33856
7020,34176
7021,34304
7022,34240
7023,34176
7024,34240
7025,34112
7026,33984
7027,33856
7028,33664
7029,33472
7030,33600
7031,33920
7032,34048
7033,33984
7034,33984
7035,34048
7036,34112
7037,33984
7038,33856
7039,33792
7040,33920
7041,34048
7042,33984
7043,33984
7044,33920
7045,33984
7046,34112
7047,34304
7048,34432
7049,34624
7050,34752
7051,34688
7052,34496
7053,34304
7054,34048
7055,33856
7056,33984
7057,34240
7058,34432
7059,34496
7060,34560
7061,34432
7062,34240
7063,34112
7064,33984
7065,33920
7066,33728
7067,33792
7068,34112
7069,34240
7070,34176
7071,33920
7072,33728
7073,33664
7074,33536
7075,33344
7076,33280
7077,33280
7078,33216
7079,33344
7080,33344
7081,33280
7082,33536
7083,33984
7084,34496
7085,34816
7086,34304
7087,33600
7088,33152
7089,33088
7090,33536
7091,33856
7092,33664
7093,33472
7094,33600
7095,33984
7096,33984
7097,33920
7098,34176
7099,34624
7100,34688
7101,34304
7102,33856
7103,33664
7104,33600
7105,33600
7106,33792
7107,34304
7108,34624
7109,34432
7110,33856
7111,33536
7112,33536
7113,33472
7114,33536
7115,33472
7116,33600
7117,33984
7118,34240
7119,34432
7120,34368
7121,34496
7122,34496
7123,33856
7124,33216
7125,33280
7126,33600
7127,33536
7128,33344
7129,33408
7130,33728
7131,34176
7132,34496
7133,34624
7134,34752
7135,34496
7136,34496
7137,34880
7138,35392
7139,35264
7140,34944
7141,34752
7142,34240
7143,33856
7144,33280
7145,32896
7146,32640
7147,32448
7148,32320
7149,32576
7150,32896
7151,33152
7152,33344
7153,33600
7154,33984
7155,34368
7156,34240
7157,33856
7158,33472
7159,33472
7160,33856
7161,34432
7162,34240
7163,33728
7164,33280
7165,32896
7166,32896
7167,33728
7168,35392
7169,37376
7170,39872
7171,41664
7172,42176
7173,40704
7174,37632
7175,34240
7176,31552
7177,29888
7178,29184
7179,29248
7180,29888
7181,30784
7182,31552
7183,32192
7184,32768
7185,33408
7186,33792
7187,33920
7188,33856
7189,33984
7190,34176
7191,34240
7192,34176
7193,33984
7194,33728
7195,33664
7196,33408
7197,33216
7198,33280
7199,33472
7200,33216
7201,33024
7202,33216
7203,33664
7204,34048
7205,33792
7206,33216
7207,32960
7208,33024
7209,33408
7210,33728
7211,33984
7212,34048
7213,33984
7214,33664
7215,33280
7216,33216
7217,33344
7218,33536
7219,33856
7220,34112
7221,34048
7222,34048
7223,33920
7224,33728
7225,33920
7226,34176
7227,34304
7228,34304
7229,34112
7230,33984
7231,33600
7232,33408
7233,33536
7234,33920
7235,34048
7236,33984
7237,34048
7238,33920
7239,33920
7240,34112
7241,33984
7242,33536
7243,33280
7244,33280
7245,33408
7246,33728
7247,34240
7248,34176
7249,33536
7250,33088
7251,33024
7252,33408
7253,33856
7254,33856
7255,33536
7256,33664
7257,33984
7258,34048
7259,33856
7260,33728
7261,33792
7262,34048
7263,34112
7264,34048
7265,33792
7266,33920
7267,34176
7268,34560
7269,35072
7270,34816
7271,34048
7272,33536
7273,33920
7274,34368
7275,34048
7276,33472
7277,33152
7278,33280
7279,33536
7280,33728
7281,33984
7282,34304
7283,34624
7284,34752
7285,34496
7286,34240
7287,34048
7288,33792
7289,33792
7290,33984
7291,34432
7292,34624
7293,34432
7294,33920
7295,33856
7296,34048
7297,33856
7298,33664
7299,33856
7300,34112
7301,34368
7302,34688
7303,35328
7304,35584
7305,35264
7306,34816
7307,34624
7308,34432
7309,33856
7310,33280
7311,32768
7312,32640
7313,32960
7314,33280
7315,33472
7316,33664
7317,33728
7318,33664
7319,33536
7320,33728
7321,34176
7322,34624
7323,34752
7324,34560
7325,34368
7326,34240
7327,33792
7328,33472
7329,33472
7330,33344
7331,33792
7332,35584
7333,37760
7334,39616
7335,40640
7336,41088
7337,40128
7338,37632
7339,34880
7340,32704
7341,31488
7342,30592
7343,30080
7344,30080
7345,30528
7346,31424
7347,32320
7348,33152
7349,33664
7350,34112
7351,34304
7352,34496
7353,34816
7354,34752
7355,34304
7356,34048
7357,33984
7358,33856
7359,33600
7360,33536
7361,33664
7362,33856
7363,33984
7364,34176
7365,34304
7366,34240
7367,34176
7368,34112
7369,34240
7370,34304
7371,34240
7372,34368
7373,34880
7374,34944
7375,34240
7376,33600
7377,33344
7378,33536
7379,33792
7380,34176
7381,34176
7382,34048
7383,34048
7384,34176
7385,34048
7386,34304
7387,34752
7388,34944
7389,34432
7390,33856
7391,34048
7392,34176
7393,33600
7394,33408
7395,33856
7396,34560
7397,34752
7398,34624
7399,34624
7400,34496
7401,34048
7402,33472
7403,33216
7404,33472
7405,33856
7406,34304
7407,34880
7408,34816
7409,34304
7410,34176
7411,33856
7412,33472
7413,32960
7414,32512
7415,32832
7416,33472
7417,33536
7418,33792
7419,34240
7420,34112
7421,34176
7422,34368
7423,34432
7424,34496
7425,34304
7426,34112
7427,33664
7428,33600
7429,33600
7430,33664
7431,33920
7432,34048
7433,33920
7434,33536
7435,33600
7436,34112
7437,34496
7438,34304
7439,34112
7440,34240
7441,33984
7442,33984
7443,34048
7444,34112
7445,34112
7446,33792
7447,33344
7448,33408
7449,33792
7450,34176
7451,34496
7452,34816
7453,35200
7454,35456
7455,35008
7456,34560
7457,34304
7458,34496
7459,34752
7460,34624
7461,33856
7462,33344
7463,32768
7464,32192
7465,32192
7466,32384
7467,32512
7468,32768
7469,33152
7470,33728
7471,34048
7472,34176
7473,34176
7474,34048
7475,34048
7476,34176
7477,33984
7478,33408
7479,32960
7480,32640
7481,32384
7482,32576
7483,33344
7484,34944
7485,36992
7486,39360
7487,41280
7488,42048
7489,41280
7490,38912
7491,36224
7492,34048
7493,31680
7494,30016
7495,29184
7496,28736
7497,29056
7498,30016
7499,30976
7500,31936
7501,32896
7502,33728
7503,34432
7504,34880
7505,34688
7506,33984
7507,33344
7508,33344
7509,33664
7510,34304
7511,34240
7512,33920
7513,33408
7514,33152
7515,33280
7516,33536
7517,33920
7518,34304
7519,34560
7520,34624
7521,34432
7522,33792
7523,33408
7524,33280
7525,33408
7526,33536
7527,33664
7528,33856
7529,34112
7530,34176
7531,34112
7532,34112
7533,34176
7534,34176
7535,34304
7536,34496
7537,34304
7538,34176
7539,34048
7540,33920
7541,33984
7542,34112
7543,34432
7544,33984
7545,33600
7546,33472
7547,33344
7548,33280
7549,33472
7550,33600
7551,33792
7552,33728
7553,33792
7554,33920
7555,33984
7556,34176
7557,34240
7558,34240
7559,34176
7560,33792
7561,33344
7562,33280
7563,33344
7564,33344
7565,33472
7566,33536
7567,33728
7568,33792
7569,33664
7570,33472
7571,33408
7572,33408
7573,33536
7574,33728
7575,33984
7576,34048
7577,34112
7578,34176
7579,34176
7580,33984
7581,33920
7582,33856
7583,33984
7584,33984
7585,33920
7586,34048
7587,34176
7588,34432
7589,34752
7590,34688
7591,34304
7592,33856
7593,33280
7594,32896
7595,32896
7596,33088
7597,33408
7598,33536
7599,33728
7600,33920
7601,34112
7602,34176
7603,34240
7604,34176
7605,34048
7606,33920
7607,33920
7608,33984
7609,34048
7610,34048
7611,34240
7612,34304
7613,34368
7614,34304
7615,34368
7616,34624
7617,34880
7618,34880
7619,34816
7620,35072
7621,34624
7622,33856
7623,33344
7624,33024
7625,32896
7626,32768
7627,32896
7628,32960
7629,33024
7630,33152
7631,33280
7632,33472
7633,33664
7634,33856
7635,34048
7636,34176
7637,34240
7638,34240
7639,34304
7640,34240
7641,33984
7642,33600
7643,33216
7644,33152
7645,33600
7646,35392
7647,37760
7648,39808
7649,41024
7650,41280
7651,40192
7652,37632
7653,34816
7654,32576
7655,31040
7656,30080
7657,29760
7658,30080
7659,30592
7660,31296
7661,32000
7662,32896
7663,33664
7664,34048
7665,34240
7666,34240
7667,34176
7668,34240
7669,34240
7670,33984
7671,33792
7672,33664
7673,33600
7674,33664
7675,33792
7676,33984
7677,33984
7678,33984
7679,34048
7680,34368
7681,34560
7682,34240
7683,34048
7684,33984
7685,34368
7686,34624
7687,34368
7688,33920
7689,33792
7690,33792
7691,33856
7692,33920
7693,34112
7694,34304
7695,34240
7696,34368
7697,34368
7698,34432
7699,34368
7700,34496
7701,34432
7702,34496
7703,34816
7704,34880
7705,34496
7706,34112
7707,33984
7708,34176
7709,34496
7710,34560
7711,34240
7712,33856
7713,33600
7714,33536
7715,33792
7716,33920
7717,33792
7718,33728
7719,33728
7720,33856
7721,33920
7722,33856
7723,33792
7724,33856
7725,33792
7726,33920
7727,34176
7728,33984
7729,33920
7730,33728
7731,33856
7732,34048
7733,34048
7734,33856
7735,33664
7736,33536
7737,33472
7738,33472
7739,33664
7740,33664
7741,33856
7742,34240
7743,34240
7744,34176
7745,34112
7746,33920
7747,33856
7748,33856
7749,34112
7750,34304
7751,34176
7752,34048
7753,33920
7754,33792
7755,33600
7756,33536
7757,33664
7758,33664
7759,33600
7760,33664
7761,33984
7762,34112
7763,34048
7764,33920
7765,34048
7766,34048
7767,33984
7768,33984
7769,34176
7770,34112
7771,34112
7772,33856
7773,34048
7774,34304
7775,34496
7776,34624
7777,34624
7778,34368
7779,34176
7780,34176
7781,34048
7782,33856
7783,33728
7784,33408
7785,33344
7786,33088
7787,33088
7788,33216
7789,33344
7790,33472
7791,33600
7792,33664
7793,33728
7794,33664
7795,33600
7796,33600
7797,33728
7798,34112
7799,34304
7800,34240
7801,33728
7802,33088
7803,32576
7804,32512
7805,32960
7806,34496
7807,36672
7808,38784
7809,40640
7810,41664
7811,41408
7812,39488
7813,36416
7814,33408
7815,31232
7816,30080
7817,29504
7818,29568
7819,30144
7820,30976
7821,31744
7822,32512
7823,33280
7824,33792
7825,33920
7826,33728
7827,33728
7828,33984
7829,34112
7830,34112
7831,34112
7832,34240
7833,34304
7834,34240
7835,33984
7836,33920
7837,33856
7838,33856
7839,34048
7840,34240
7841,34112
7842,33728
7843,33472
7844,33536
7845,33536
7846,33984
7847,34048
7848,34048
7849,34112
7850,34240
7851,34304
7852,34240
7853,34240
7854,34368
7855,34304
7856,34176
7857,34112
7858,34176
7859,34304
7860,34240
7861,34304
7862,34368
7863,34368
7864,34240
7865,34176
7866,34240
7867,34368
7868,34496
7869,34496
7870,34432
7871,34240
7872,34048
7873,33920
7874,33984
7875,33920
7876,33856
7877,33600
7878,33472
7879,33536
7880,33664
7881,33728
7882,33664
7883,33728
7884,33728
7885,33600
7886,33536
7887,33472
7888,33472
7889,33600
7890,33600
7891,34048
7892,34048
7893,33984
7894,34048
7895,34240
7896,34496
7897,34176
7898,33728
7899,33472
7900,33216
7901,33024
7902,33088
7903,33344
7904,33792
7905,33792
7906,34112
7907,34240
7908,34176
7909,34048
7910,34048
7911,34048
7912,34112
7913,34112
7914,34176
7915,34112
7916,34112
7917,34048
7918,33984
7919,33984
7920,33920
7921,33920
7922,33792
7923,33728
7924,33792
7925,33856
7926,34048
7927,34368
7928,34624
7929,34752
7930,34560
7931,34432
7932,34240
7933,33984
7934,34112
7935,34048
7936,34304
7937,34048
7938,33920
7939,33920
7940,33856
7941,33536
7942,33216
7943,32960
7944,32960
7945,33088
7946,33216
7947,33344
7948,33536
7949,33856
7950,33856
7951,33920
7952,33792
7953,33920
7954,33984
7955,33920
7956,33792
7957,33920
7958,34176
7959,34112
7960,33792
7961,33536
7962,33344
7963,33152
7964,33344
7965,34432
7966,36288
7967,38336
7968,40128
7969,41408
7970,41472
7971,39936
7972,37056
7973,34176
7974,32000
7975,30528
7976,29696
7977,29568
7978,29952
7979,31040
7980,31104
7981,32448
7982,33024
7983,33472
7984,33920
7985,34304
7986,34560
7987,34560
7988,34368
7989,34176
7990,34112
7991,33984
7992,33792
7993,33728
7994,33728
7995,33664
7996,33920
7997,34048
7998,34048
7999,34048
8000,34048
8001,34048
8002,34048
8003,34240
8004,34560
8005,34624
8006,34368
8007,34176
8008,34176
8009,34112
8010,34048
8011,34240
8012,34304
8013,34048
8014,33792
8015,33728
8016,33856
8017,34048
8018,34368
8019,34432
8020,34496
8021,34496
8022,34368
8023,34112
8024,34112
8025,34048
8026,33856
8027,33792
8028,33856
8029,34048
8030,34112
8031,34048
8032,33984
8033,33984
8034,33984
8035,34048
8036,34112
8037,34112
8038,33920
8039,33728
8040,33664
8041,33792
8042,33792
8043,33536
8044,33536
8045,33728
8046,33792
8047,33664
8048,33536
8049,33536
8050,33536
8051,33600
8052,33728
8053,33792
8054,33920
8055,33856
8056,33728
8057,33600
8058,33664
8059,33728
8060,33856
8061,33984
8062,34048
8063,34112
8064,34176
8065,34176
8066,34240
8067,34112
8068,33856
8069,33728
8070,33920
8071,34176
8072,34048
8073,33856
8074,33792
8075,33792
8076,33792
8077,33920
8078,33984
8079,33792
8080,33664
8081,33600
8082,33664
8083,33792
8084,33984
8085,33920
8086,33920
8087,33792
8088,33792
8089,33792
8090,33984
8091,34112
8092,34048
8093,34048
8094,34176
8095,34304
8096,34368
8097,34304
8098,34240
8099,34304
8100,34368
8101,34432
8102,34368
8103,34432
8104,34624
8105,34496
8106,33984
8107,33600
8108,33408
8109,33408
8110,33280
8111,33216
8112,33216
8113,33216
8114,33216
8115,33152
8116,33536
8117,33728
8118,33728
8119,33664
8120,33856
8121,34112
8122,34176
8123,34048
8124,33920
8125,33728
8126,33472
8127,33152
8128,32960
8129,33216
8130,33984
8131,35584
8132,37504
8133,39680
8134,41408
8135,41792
8136,40384
8137,37760
8138,34752
8139,32256
8140,30656
8141,29952
8142,29888
8143,30208
8144,30976
8145,31040
8146,32320
8147,33088
8148,33536
8149,33600
8150,33792
8151,33984
8152,33920
8153,33920
8154,33984
8155,34112
8156,34112
8157,34112
8158,34048
8159,34048
8160,34048
8161,34176
8162,34112
8163,33920
8164,33728
8165,33600
8166,33664
8167,33856
8168,33856
8169,33856
8170,33984
8171,34176
8172,34304
8173,34240
8174,34176
8175,34304
8176,34368
8177,34304
8178,34048
8179,33920
8180,33920
8181,34048
8182,33984
8183,34176
8184,34368
8185,34432
8186,34368
8187,34240
8188,34304
8189,34304
8190,34176
8191,33920
8192,33920
8193,33984
8194,34048
8195,34112
8196,34048
8197,33984
8198,33920
8199,33984
8200,34176
8201,34240
8202,34240
8203,34240
8204,34048
8205,33984
8206,33600
8207,33344
8208,33344
8209,33536
8210,33728
8211,33664
8212,33664
8213,33600
8214,33472
8215,33408
8216,33536
8217,33664
8218,33664
8219,33792
8220,33728
8221,33856
8222,33792
8223,33728
8224,33792
8225,33920
8226,33984
8227,33984
8228,33984
8229,33920
8230,33920
8231,33984
8232,34176
8233,34112
8234,33920
8235,33728
8236,33728
8237,33856
8238,34048
8239,33856
8240,33728
8241,33728
8242,33856
8243,33792
8244,33856
8245,34048
8246,34176
8247,34176
8248,34112
8249,34112
8250,34048
8251,33792
8252,33664
8253,33600
8254,33600
8255,33472
8256,33408
8257,33472
8258,33600
8259,33792
8260,33856
8261,33984
8262,34112
8263,33920
8264,33856
8265,33792
8266,34176
8267,34368
8268,34240
8269,34048
8270,34048
8271,34368
8272,34688
8273,34688
8274,34496
8275,34496
8276,34496
8277,34368
8278,34176
8279,34048
8280,33664
8281,33152
8282,32768
8283,32832
8284,32960
8285,33088
8286,33216
8287,33344
8288,33472
8289,33600
8290,33600
8291,33664
8292,33664
8293,33728
8294,33984
8295,33920
8296,34112
8297,33856
8298,33408
8299,33088
8300,33024
8301,33408
8302,34496
8303,36352
8304,38528
8305,40512
8306,41728
8307,41792
8308,40128
8309,35776
8310,35328
8311,31488
8312,30080
8313,29504
8314,29504
8315,29952
8316,30720
8317,31552
8318,32192
8319,32768
8320,33280
8321,33792
8322,34176
8323,34240
8324,34304
8325,34240
8326,34304
8327,34176
8328,34176
8329,34368
8330,34560
8331,34432
8332,33984
8333,33792
8334,33664
8335,33600
8336,33600
8337,33664
8338,33792
8339,33856
8340,33856
8341,33984
8342,34176
8343,34240
8344,34112
8345,34176
8346,34368
8347,34496
8348,34304
8349,33984
8350,33984
8351,34048
8352,34048
8353,34112
8354,34368
8355,34304
8356,34304
8357,34304
8358,34368
8359,34432
8360,34368
8361,34304
8362,34368
8363,34432
8364,34368
8365,34176
8366,34048
8367,34176
8368,34176
8369,34048
8370,34048
8371,34048
8372,33984
8373,33920
8374,33984
8375,33920
8376,33920
8377,33856
8378,33856
8379,33792
8380,33920
8381,34112
8382,33920
8383,33664
8384,33536
8385,33344
8386,33152
8387,33152
8388,33344
8389,33280
8390,33280
8391,33408
8392,33792
8393,33920
8394,33792
8395,33792
8396,33856
8397,33920
8398,33920
8399,33984
8400,33920
8401,34112
8402,34112
8403,34048
8404,34112
8405,34240
8406,34176
8407,34368
8408,34688
8409,34624
8410,34112
8411,33728
8412,33472
8413,33344
8414,33280
8415,33216
8416,33408
8417,33472
8418,33536
8419,33536
8420,33600
8421,33728
8422,33728
8423,33728
8424,33792
8425,33920
8426,33984
8427,33920
8428,33920
8429,34048
8430,33984
8431,33920
8432,33728
8433,33728
8434,33792
8435,33728
8436,33600
8437,33600
8438,33792
8439,33984
8440,33920
8441,33856
8442,33792
8443,33728
8444,33600
8445,33792
8446,34112
8447,34368
8448,34368
8449,34240
8450,34048
8451,33984
8452,34176
8453,34560
8454,35008
8455,35264
8456,35008
8457,34560
8458,34176
8459,33728
8460,33472
8461,33216
8462,33088
8463,33088
8464,33088
8465,33024
8466,33088
8467,33152
8468,33280
8469,33408
8470,33600
8471,33792
8472,33856
8473,33856
8474,33856
8475,33792
8476,33920
8477,33984
8478,33984
8479,33920
8480,33664
8481,33408
8482,33344
8483,33920
8484,35328
8485,37248
8486,39488
8487,41280
8488,42176
8489,41088
8490,38528
8491,35200
8492,32448
8493,30592
8494,29568
8495,29312
8496,29952
8497,30912
8498,31744
8499,32128
8500,32576
8501,33024
8502,33408
8503,33792
8504,34176
8505,34368
8506,34240
8507,34112
8508,34048
8509,34304
8510,34496
8511,34368
8512,33984
8513,33856
8514,33920
8515,33856
8516,33792
8517,33856
8518,33920
8519,33920
8520,33920
8521,33984
8522,34048
8523,34048
8524,34112
8525,34240
8526,34240
8527,33984
8528,33856
8529,34176
8530,34560
8531,34560
8532,34240
8533,33984
8534,33984
8535,34112
8536,34240
8537,34432
8538,34624
8539,34560
8540,34304
8541,34112
8542,34176
8543,34176
8544,34240
8545,34240
8546,34368
8547,34432
8548,34496
8549,34432
8550,34432
8551,34496
8552,34368
8553,34112
8554,33856
8555,33856
8556,33600
8557,33408
8558,33408
8559,33600
8560,33792
8561,33856
8562,33856
8563,33984
8564,33856
8565,33856
8566,33856
8567,33920
8568,33920
8569,33728
8570,33472
8571,33472
8572,33728
8573,33792
8574,33856
8575,33856
8576,33728
8577,33664
8578,33664
8579,33728
8580,33920
8581,33984
8582,33920
8583,33856
8584,34048
8585,34176
8586,34112
8587,34048
8588,34112
8589,34112
8590,33984
8591,33984
8592,34048
8593,34048
8594,33856
8595,33792
8596,33984
8597,34112
8598,34048
8599,33984
8600,33984
8601,33984
8602,33920
8603,33728
8604,33664
8605,33664
8606,33664
8607,33600
8608,33728
8609,33856
8610,33856
8611,33728
8612,33728
8613,33856
8614,33920
8615,33792
8616,33728
8617,33664
8618,33664
8619,33664
8620,33664
8621,33728
8622,33792
8623,33664
8624,33600
8625,33792
8626,34048
8627,34176
8628,34176
8629,34304
8630,34624
8631,34496
8632,33984
8633,33408
8634,33088
8635,33024
8636,33088
8637,33280
8638,33792
8639,34240
8640,34560
8641,34688
8642,34944
8643,35136
8644,35136
8645,35200
8646,35328
8647,34944
8648,34176
8649,33408
8650,32832
8651,32640
8652,32704
8653,32768
8654,32832
8655,32832
8656,32832
8657,32960
8658,33216
8659,33536
8660,33792
8661,33984
8662,34240
8663,34496
8664,34688
8665,34624
8666,34496
8667,34240
8668,33920
8669,33600
8670,34048
8671,35392
8672,37248
8673,39552
8674,41216
8675,41728
8676,40768
8677,37888
8678,34624
8679,31872
8680,30272
8681,29568
8682,29632
8683,30272
8684,31168
8685,32128
8686,32960
8687,33728
8688,34368
8689,34752
8690,34752
8691,34624
8692,34624
8693,34688
8694,34560
8695,34304
8696,34176
8697,34304
8698,34560
8699,34624
8700,34496
8701,34176
8702,33792
8703,33472
8704,33408
8705,33600
8706,33920
8707,34048
8708,34048
8709,34240
8710,34560
8711,34560
8712,34240
8713,34304
8714,34560
8715,34816
8716,34432
8717,33984
8718,34048
8719,34176
8720,34112
8721,34304
8722,34432
8723,34304
8724,34240
8725,34304
8726,34496
8727,34752
8728,34688
8729,34176
8730,33600
8731,33408
8732,33792
8733,34240
8734,34560
8735,34368
8736,33920
8737,33920
8738,33984
8739,33792
8740,33600
8741,33344
8742,33472
8743,33536
8744,33536
8745,33536
8746,33536
8747,33536
8748,33408
8749,33408
8750,33472
8751,33536
8752,33600
8753,33600
8754,33600
8755,33536
8756,33472
8757,33344
8758,33152
8759,33088
8760,33024
8761,33024
8762,33216
8763,33344
8764,33536
8765,33792
8766,34240
8767,34432
8768,34176
8769,33792
8770,33536
8771,33856
8772,34432
8773,34432
8774,33728
8775,33344
8776,33472
8777,33792
8778,33728
8779,33472
8780,33216
8781,33088
8782,33408
8783,33792
8784,33920
8785,33856
8786,33472
8787,33216
8788,33216
8789,33536
8790,33792
8791,33792
8792,33728
8793,33920
8794,34368
8795,34752
8796,34560
8797,33920
8798,33792
8799,33664
8800,33344
8801,33280
8802,33792
8803,34368
8804,34560
8805,34176
8806,33472
8807,32896
8808,32384
8809,32064
8810,32128
8811,32512
8812,32960
8813,33472
8814,33344
8815,33344
8816,33664
8817,33920
8818,34176
8819,34560
8820,34560
8821,34176
8822,34048
8823,34112
8824,34176
8825,34304
8826,34432
8827,34624
8828,34560
8829,34368
8830,34048
8831,33856
8832,33536
8833,33152
8834,32960
8835,32896
8836,33216
8837,33600
8838,33408
8839,32896
8840,32896
8841,32960
8842,33152
8843,33152
8844,33024
8845,33024
8846,33152
8847,33408
8848,33408
8849,33280
8850,33280
8851,33664
8852,34688
8853,36416
8854,38272
8855,39424
8856,40320
8857,40704
8858,39680
8859,37120
8860,34304
8861,32000
8862,30848
8863,30592
8864,30528
8865,30272
8866,30400
8867,30976
8868,31808
8869,32640
8870,33280
8871,33920
8872,34240
8873,34304
8874,34176
8875,33984
8876,34176
8877,34560
8878,34688
8879,34432
8880,34368
8881,34560
8882,34368
8883,33856
8884,33664
8885,33664
8886,33856
8887,33920
8888,34176
8889,34816
8890,34880
8891,34240
8892,33792
8893,33728
8894,33728
8895,33728
8896,33728
8897,33856
8898,34048
8899,34304
8900,34496
8901,34752
8902,34944
8903,35200
8904,35520
8905,35392
8906,34880
8907,34432
8908,34304
8909,34560
8910,34432
8911,34304
8912,34304
8913,33728
8914,33408
8915,33600
8916,33856
8917,33792
8918,33792
8919,33856
8920,34048
8921,33856
8922,33792
8923,33792
8924,33984
8925,34560
8926,35008
8927,34880
8928,34688
8929,34944
8930,34816
8931,34048
8932,33344
8933,33216
8934,33472
8935,34176
8936,34752
8937,34304
8938,33600
8939,33984
8940,34432
8941,33536
8942,33216
8943,33216
8944,33152
8945,33216
8946,33536
8947,33984
8948,34368
8949,34368
8950,34304
8951,34368
8952,34432
8953,34496
8954,34560
8955,34816
8956,34880
8957,34752
8958,34432
8959,34112
8960,34624
8961,35456
8962,35648
8963,34880
8964,33664
8965,32512
8966,31808
8967,31872
8968,32576
8969,33280
8970,33792
8971,34240
8972,34688
8973,34944
8974,35008
8975,34688
8976,34240
8977,34304
8978,34752
8979,34752
8980,34944
8981,34944
8982,34176
8983,33408
8984,33088
8985,33088
8986,33280
8987,33344
8988,33664
8989,34304
8990,34688
8991,34816
8992,35008
8993,35200
8994,35200
8995,34816
8996,34432
8997,34240
8998,33920
8999,33472
9000,33152
9001,33024
9002,32896
9003,32768
9004,32704
9005,32832
9006,33024
9007,33216
9008,33408
9009,33664
9010,33856
9011,33920
9012,33920
9013,33920
9014,34048
9015,34048
9016,33920
9017,33664
9018,33472
9019,33472
9020,33664
9021,34624
9022,36416
9023,38464
9024,40256
9025,41344
9026,41280
9027,39552
9028,36864
9029,34304
9030,32448
9031,31232
9032,30464
9033,30208
9034,30528
9035,31232
9036,32128
9037,32960
9038,33728
9039,34432
9040,34880
9041,35136
9042,35264
9043,35392
9044,35456
9045,35392
9046,35136
9047,34816
9048,34560
9049,34560
9050,34752
9051,34944
9052,35008
9053,34816
9054,34560
9055,34560
9056,34624
9057,34496
9058,34368
9059,34432
9060,34752
9061,35328
9062,35648
9063,35328
9064,34880
9065,34688
9066,34752
9067,34176
9068,33664
9069,33408
9070,33280
9071,33600
9072,34112
9073,34560
9074,34880
9075,35392
9076,35712
9077,35584
9078,35072
9079,34560
9080,34368
9081,34368
9082,34368
9083,34496
9084,34752
9085,35136
9086,35264
9087,34752
9088,34304
9089,33984
9090,33792
9091,33600
9092,33600
9093,33792
9094,33984
9095,33984
9096,33984
9097,34048
9098,34112
9099,34048
9100,33984
9101,33920
9102,33920
9103,33856
9104,33728
9105,33728
9106,33728
9107,33728
9108,33664
9109,33728
9110,33728
9111,33792
9112,33792
9113,33920
9114,34112
9115,34368
9116,34560
9117,34752
9118,34944
9119,35136
9120,35200
9121,35392
9122,35712
9123,35968
9124,35840
9125,35584
9126,35072
9127,34560
9128,33920
9129,33408
9130,33088
9131,32832
9132,32512
9133,32320
9134,32256
9135,32448
9136,32640
9137,32896
9138,33280
9139,33664
9140,33984
9141,34176
9142,34432
9143,34688
9144,34944
9145,35008
9146,35072
9147,35072
9148,35008
9149,34944
9150,34816
9151,34816
9152,34816
9153,34688
9154,34496
9155,34368
9156,34368
9157,34368
9158,34304
9159,34304
9160,34176
9161,33984
9162,33728
9163,33472
9164,33408
9165,33344
9166,33216
9167,33088
9168,33088
9169,33088
9170,33088
9171,33088
9172,33216
9173,33344
9174,33280
9175,33280
9176,33280
9177,33408
9178,33344
9179,33280
9180,33344
9181,33408
9182,33280
9183,33024
9184,32832
9185,32896
9186,33472
9187,34944
9188,36928
9189,38976
9190,40512
9191,40960
9192,39872
9193,37248
9194,34176
9195,31488
9196,29696
9197,28864
9198,28736
9199,29184
9200,29952
9201,30912
9202,31872
9203,32512
9204,32960
9205,33280
9206,33600
9207,33792
9208,33856
9209,33856
9210,33920
9211,33920
9212,33792
9213,33600
9214,33600
9215,33600
9216,33536
9217,33536
9218,33600
9219,33664
9220,33600
9221,33600
9222,33664
9223,33792
9224,33856
9225,33792
9226,33856
9227,34048
9228,34048
9229,34112
9230,34112
9231,34176
9232,34240
9233,34176
9234,34240
9235,34304
9236,34304
9237,34176
9238,34176
9239,34304
9240,34496
9241,34496
9242,34432
9243,34496
9244,34496
9245,34432
9246,34304
9247,34304
9248,34368
9249,34368
9250,34304
9251,34304
9252,34304
9253,34176
9254,34048
9255,33984
9256,34048
9257,34048
9258,33984
9259,33920
9260,33920
9261,33856
9262,33664
9263,33536
9264,33600
9265,33600
9266,33536
9267,33536
9268,33600
9269,33600
9270,33536
9271,33344
9272,33280
9273,33408
9274,33472
9275,33472
9276,33536
9277,33664
9278,33728
9279,33664
9280,33728
9281,33792
9282,33856
9283,33792
9284,33792
9285,33792
9286,33856
9287,33856
9288,33856
9289,33920
9290,33984
9291,33920
9292,33792
9293,33792
9294,33856
9295,33856
9296,33792
9297,33792
9298,33792
9299,33728
9300,33728
9301,33792
9302,33920
9303,33920
9304,33856
9305,33792
9306,33856
9307,33856
9308,33792
9309,33728
9310,33728
9311,33792
9312,33728
9313,33792
9314,33920
9315,34048
9316,34176
9317,34176
9318,34176
9319,34240
9320,34368
9321,34560
9322,34688
9323,34816
9324,34752
9325,34624
9326,34496
9327,34304
9328,34112
9329,33792
9330,33664
9331,33600
9332,33536
9333,33344
9334,33216
9335,33216
9336,33216
9337,33344
9338,33536
9339,33792
9340,33856
9341,33856
9342,33920
9343,34112
9344,34176
9345,34048
9346,33920
9347,33664
9348,33408
9349,33152
9350,32960
9351,33344
9352,34432
9353,36288
9354,38400
9355,40512
9356,41856
9357,41920
9358,40000
9359,36864
9360,33856
9361,31488
9362,30080
9363,29632
9364,29952
9365,30720
9366,31424
9367,32064
9368,32704
9369,33216
9370,33536
9371,33728
9372,33984
9373,34176
9374,34304
9375,34304
9376,34304
9377,34304
9378,34240
9379,34048
9380,33984
9381,33984
9382,33920
9383,33792
9384,33856
9385,33984
9386,34048
9387,33984
9388,33984
9389,34112
9390,34176
9391,34176
9392,34112
9393,34112
9394,34048
9395,33984
9396,33984
9397,34048
9398,34240
9399,34240
9400,34176
9401,34240
9402,34240
9403,34304
9404,34304
9405,34240
9406,34304
9407,34240
9408,34240
9409,34112
9410,34112
9411,34176
9412,34176
9413,34176
9414,34240
9415,34240
9416,34176
9417,33984
9418,33984
9419,33984
9420,33856
9421,33728
9422,33728
9423,33792
9424,33664
9425,33600
9426,33536
9427,33600
9428,33664
9429,33600
9430,33536
9431,33472
9432,33408
9433,33344
9434,33344
9435,33408
9436,33344
9437,33280
9438,33216
9439,33344
9440,33408
9441,33472
9442,33472
9443,33664
9444,33728
9445,33600
9446,33536
9447,33600
9448,33664
9449,33728
9450,33728
9451,33856
9452,34048
9453,34048
9454,33984
9455,33856
9456,33792
9457,33728
9458,33664
9459,33664
9460,33664
9461,33600
9462,33472
9463,33472
9464,33600
9465,33728
9466,33792
9467,33728
9468,33728
9469,33792
9470,33728
9471,33600
9472,33536
9473,33600
9474,33664
9475,33664
9476,33600
9477,33728
9478,33728
9479,33728
9480,33728
9481,33920
9482,34048
9483,34112
9484,34048
9485,34048
9486,34112
9487,34176
9488,34240
9489,34368
9490,34560
9491,34560
9492,34560
9493,34496
9494,34432
9495,34304
9496,34112
9497,33728
9498,33472
9499,33280
9500,33024
9501,33024
9502,33024
9503,33088
9504,33088
9505,33344
9506,33664
9507,33792
9508,33856
9509,33728
9510,33728
9511,33792
9512,33856
9513,33856
9514,33728
9515,33664
9516,33088
9517,33088
9518,33920
9519,35520
9520,37568
9521,39488
9522,40960
9523,41408
9524,40128
9525,39808
9526,37440
9527,32640
9528,30784
9529,30656
9530,29440
9531,29696
9532,30272
9533,31040
9534,32064
9535,32704
9536,33024
9537,33280
9538,33536
9539,33856
9540,33856
9541,33856
9542,33792
9543,33920
9544,33920
9545,33792
9546,33664
9547,33664
9548,33600
9549,33536
9550,33536
9551,33536
9552,33536
9553,33472
9554,33536
9555,33536
9556,33536
9557,33408
9558,33472
9559,33472
9560,33664
9561,33728
9562,33728
9563,33792
9564,33856
9565,33792
9566,33664
9567,33664
9568,33792
9569,33856
9570,33856
9571,33856
9572,33920
9573,33792
9574,33728
9575,33600
9576,33664
9577,33792
9578,33856
9579,33920
9580,33920
9581,33984
9582,33984
9583,33920
9584,33984
9585,34304
9586,34176
9587,33920
9588,33792
9589,33856
9590,33728
9591,33536
9592,33408
9593,33408
9594,33344
9595,33344
9596,33408
9597,33536
9598,33472
9599,33280
9600,33216
9601,33344
9602,33472
9603,33536
9604,33536
9605,33664
9606,33792
9607,33536
9608,33280
9609,33344
9610,33536
9611,33600
9612,33728
9613,33984
9614,34048
9615,33984
9616,33856
9617,33792
9618,33792
9619,33984
9620,33920
9621,33920
9622,33920
9623,33920
9624,33792
9625,33600
9626,33536
9627,33600
9628,33600
9629,33664
9630,33728
9631,33792
9632,33664
9633,33600
9634,33600
9635,33856
9636,34112
9637,34240
9638,34304
9639,34304
9640,34176
9641,34048
9642,34112
9643,34304
9644,34368
9645,34304
9646,34240
9647,34304
9648,34368
9649,34048
9650,33984
9651,33856
9652,33728
9653,33600
9654,33408
9655,33408
9656,33408
9657,33408
9658,33344
9659,33344
9660,33472
9661,33536
9662,33600
9663,33600
9664,33664
9665,33664
9666,33664
9667,33792
9668,34048
9669,34176
9670,33856
9671,33600
9672,33472
9673,33408
9674,33664
9675,33664
9676,36288
9677,38400
9678,40128
9679,41024
9680,40896
9681,39296
9682,36608
9683,34112
9684,32128
9685,30784
9686,30016
9687,29696
9688,29952
9689,30784
9690,30848
9691,32256
9692,32832
9693,33344
9694,33728
9695,33920
9696,34048
9697,34304
9698,34496
9699,34560
9700,34688
9701,34560
9702,34176
9703,33856
9704,33600
9705,33728
9706,33920
9707,34048
9708,34048
9709,33984
9710,33920
9711,33920
9712,33920
9713,33920
9714,33984
9715,34112
9716,34176
9717,34176
9718,34176
9719,34240
9720,34240
9721,34176
9722,34240
9723,34240
9724,34240
9725,34176
9726,34304
9727,34368
9728,34368
9729,34368
9730,34560
9731,34688
9732,34560
9733,34240
9734,34048
9735,33984
9736,33984
9737,33984
9738,34048
9739,34112
9740,34112
9741,33984
9742,33984
9743,34112
9744,34048
9745,33984
9746,33920
9747,33984
9748,33920
9749,33792
9750,33728
9751,33792
9752,33920
9753,33856
9754,33728
9755,33600
9756,33664
9757,33728
9758,33600
9759,33664
9760,33664
9761,33728
9762,33728
9763,33856
9764,33984
9765,33920
9766,33728
9767,33728
9768,33856
9769,34048
9770,33984
9771,33856
9772,33920
9773,34048
9774,33984
9775,34048
9776,34048
9777,33984
9778,33920
9779,33856
9780,33856
9781,33920
9782,33920
9783,33856
9784,33984
9785,34112
9786,34048
9787,33856
9788,33664
9789,33728
9790,33728
9791,33664
9792,33792
9793,33920
9794,33920
9795,33856
9796,33792
9797,33856
9798,34048
9799,34240
9800,34304
9801,34176
9802,34048
9803,33920
9804,33920
9805,34240
9806,34560
9807,34688
9808,34624
9809,34496
9810,34432
9811,34304
9812,34112
9813,33920
9814,33856
9815,33664
9816,33408
9817,33152
9818,33152
9819,33216
9820,33216
9821,33216
9822,33344
9823,33536
9824,33600
9825,33600
9826,33792
9827,33856
9828,33792
9829,33664
9830,33664
9831,33728
9832,33664
9833,33408
9834,33216
9835,33216
9836,33408
9837,34304
9838,36032
9839,38592
9840,38848
9841,41344
9842,41408
9843,39872
9844,37120
9845,34176
9846,31744
9847,30272
9848,29568
9849,29504
9850,29952
9851,30848
9852,31744
9853,32448
9854,32960
9855,33344
9856,33728
9857,33920
9858,34048
9859,34112
9860,34304
9861,34304
9862,34176
9863,34048
9864,34048
9865,34048
9866,33984
9867,33920
9868,34048
9869,34176
9870,34112
9871,34048
9872,34112
9873,34176
9874,34048
9875,33856
9876,33856
9877,33984
9878,34048
9879,34112
9880,34304
9881,34432
9882,34368
9883,34176
9884,34048
9885,34112
9886,34240
9887,34368
9888,34432
9889,34496
9890,34496
9891,34368
9892,34240
9893,34240
9894,34240
9895,34176
9896,34176
9897,34304
9898,34432
9899,34240
9900,34176
9901,34176
9902,34240
9903,34240
9904,34112
9905,34048
9906,33984
9907,33856
9908,33664
9909,33664
9910,33728
9911,33792
9912,33728
9913,33664
9914,33600
9915,33600
9916,33536
9917,33536
9918,33664
9919,33728
9920,33664
9921,33472
9922,33536
9923,33792
9924,33792
9925,33792
9926,33856
9927,33920
9928,33856
9929,33792
9930,33728
9931,33856
9932,33920
9933,33856
9934,33792
9935,33856
9936,33984
9937,34048
9938,34048
9939,34048
9940,33984
9941,33856
9942,33728
9943,33792
9944,33920
9945,33920
9946,33856
9947,33856
9948,33856
9949,33856
9950,33920
9951,34048
9952,34176
9953,34048
9954,33856
9955,33664
9956,33664
9957,33664
9958,33728
9959,33792
9960,33920
9961,33984
9962,33984
9963,33984
9964,34112
9965,34176
9966,34176
9967,34176
9968,34304
9969,34496
9970,34560
9971,34560
9972,34560
9973,34624
9974,34432
9975,34368
9976,33984
9977,33728
9978,33472
9979,33280
9980,33152
9981,33152
9982,33152
9983,33088
9984,33216
9985,33408
9986,33600
9987,33600
9988,33664
9989,33920
9990,33856
9991,33728
9992,33664
9993,33728
9994,33856
9995,33856
9996,33600
9997,33280
9998,33216
9999,33600
10000,34624
10001,36544
10002,38848
10003,40832
10004,41920
10005,41536
10006,39424
10007,36288
10008,33408
10009,31168
10010,29888
10011,29376
10012,29504
10013,30080
10014,30976
10015,31936
10016,32512
10017,32960
10018,33408
10019,33792
10020,34048
10021,34176
10022,34176
10023,34240
10024,34240
10025,34240
10026,34240
10027,34240
10028,34112
10029,33856
10030,33664
10031,33728
10032,33792
10033,33856
10034,33856
10035,33920
10036,33984
10037,33984
10038,33984
10039,34112
10040,34112
10041,34048
10042,34048
10043,34112
10044,34304
10045,34240
10046,34112
10047,34112
10048,34240
10049,34304
10050,34304
10051,34304
10052,34368
10053,34368
10054,34368
10055,34368
10056,34496
10057,34432
10058,34368
10059,34304
10060,34304
10061,34368
10062,34304
10063,34112
10064,34176
10065,34176
10066,34176
10067,34048
10068,34112
10069,34112
10070,33920
10071,33728
10072,33728
10073,33728
10074,33600
10075,33472
10076,33408
10077,33536
10078,33536
10079,33472
10080,33472
10081,33536
10082,33536
10083,33600
10084,33600
10085,33664
10086,33664
10087,33664
10088,33600
10089,33664
10090,33792
10091,33792
10092,33792
10093,33792
10094,33920
10095,33920
10096,33792
10097,33728
10098,33792
10099,33920
10100,33792
10101,33792
10102,33920
10103,33984
10104,33920
10105,33856
10106,33920
10107,33920
10108,33792
10109,33792
10110,33920
10111,33984
10112,33984
10113,33920
10114,33856
10115,33920
10116,33856
10117,33728
10118,33728
10119,33856
10120,33856
10121,33664
10122,33600
10123,33728
10124,33728
10125,33728
10126,33728
10127,33856
10128,33920
10129,33920
10130,33856
10131,33984
10132,34112
10133,34112
10134,34112
10135,34112
10136,34112
10137,34112
10138,34240
10139,34560
10140,34560
10141,34624
10142,34560
10143,34432
10144,34432
10145,34176
10146,33920
10147,33728
10148,33600
10149,33408
10150,33152
10151,33088
10152,33216
10153,33408
10154,33472
10155,33472
10156,33472
10157,33536
10158,33536
10159,33536
10160,33664
10161,33792
10162,33792
10163,33792
10164,33856
10165,33920
10166,33600
10167,33152
10168,32960
10169,33280
10170,34368
10171,36224
10172,38464
10173,40576
10174,41856
10175,41664
10176,39552
10177,36416
10178,33408
10179,31104
10180,29760
10181,29312
10182,29568
10183,30144
10184,30912
10185,31744
10186,32448
10187,32960
10188,33280
10189,33536
10190,33792
10191,33920
10192,33984
10193,33984
10194,34048
10195,33984
10196,33856
10197,33856
10198,33792
10199,33728
10200,33664
10201,33664
10202,33728
10203,33856
10204,33856
10205,33728
10206,33728
10207,33664
10208,33600
10209,33536
10210,33600
10211,33792
10212,33792
10213,33792
10214,34048
10215,33984
10216,34176
10217,34112
10218,34112
10219,34176
10220,34240
10221,34176
10222,34176
10223,34240
10224,34304
10225,34304
10226,34304
10227,34368
10228,34432
10229,34304
10230,34176
10231,34176
10232,34176
10233,34176
10234,34112
10235,34112
10236,34176
10237,34112
10238,34048
10239,34048
10240,34048
10241,33920
10242,33792
10243,33856
10244,33984
10245,33920
10246,33728
10247,33664
10248,33728
10249,33728
10250,33728
10251,33664
10252,33728
10253,33728
10254,33728
10255,33728
10256,33856
10257,33920
10258,33984
10259,33856
10260,33792
10261,33856
10262,33920
10263,33984
10264,34112
10265,34240
10266,34240
10267,34112
10268,34112
10269,34176
10270,34176
10271,34112
10272,34048
10273,34176
10274,34240
10275,34112
10276,34048
10277,34048
10278,34112
10279,34112
10280,33984
10281,33984
10282,34048
10283,34112
10284,34112
10285,34112
10286,34176
10287,34112
10288,34048
10289,33984
10290,33920
10291,33920
10292,33856
10293,33792
10294,33920
10295,34048
10296,34048
10297,33984
10298,33984
10299,33984
10300,33984
10301,33984
10302,34112
10303,34240
10304,34368
10305,34368
10306,34304
10307,34304
10308,34368
10309,34496
10310,34624
10311,34688
10312,34624
10313,34496
10314,34432
10315,34368
10316,34240
10317,33920
10318,33664
10319,33600
10320,33536
10321,33408
10322,33280
10323,33344
10324,33472
10325,33600
10326,33600
10327,33728
10328,33792
10329,33856
10330,33856
10331,33856
10332,33920
10333,33984
10334,33984
10335,33984
10336,33856
10337,33536
10338,33344
10339,33536
10340,34496
10341,36352
10342,38400
10343,40320
10344,41536
10345,41472
10346,39744
10347,36864
10348,34176
10349,31424
10350,30720
10351,29952
10352,29888
10353,30208
10354,30848
10355,31552
10356,32320
10357,33088
10358,33536
10359,33792
10360,33984
10361,34176
10362,34304
10363,34240
10364,34240
10365,34240
10366,34176
10367,34048
10368,33984
10369,33984
10370,34048
10371,34048
10372,33984
10373,34048
10374,34112
10375,34176
10376,34112
10377,34048
10378,34112
10379,34176
10380,34112
10381,34112
10382,34176
10383,34176
10384,34112
10385,34176
10386,34176
10387,34112
10388,34048
10389,34112
10390,34240
10391,34304
10392,34240
10393,34240
10394,34368
10395,34432
10396,34368
10397,34240
10398,34176
10399,34176
10400,34048
10401,33984
10402,33984
10403,34112
10404,34048
10405,34048
10406,34048
10407,34176
10408,34176
10409,34048
10410,33984
10411,34048
10412,33920
10413,33792
10414,33664
10415,33728
10416,33728
10417,33600
10418,33600
10419,33664
10420,33664
10421,33536
10422,33536
10423,33600
10424,33728
10425,33664
10426,33664
10427,33664
10428,33664
10429,33664
10430,33600
10431,33600
10432,33728
10433,33792
10434,33856
10435,33856
10436,33920
10437,33920
10438,33920
10439,33920
10440,33984
10441,34048
10442,33984
10443,34048
10444,34112
10445,34048
10446,33920
10447,33792
10448,33792
10449,33856
10450,33792
10451,33792
10452,33792
10453,33856
10454,33920
10455,33856
10456,33792
10457,33792
10458,33728
10459,33664
10460,33664
10461,33728
10462,33728
10463,33664
10464,33728
10465,33792
10466,33792
10467,33600
10468,33600
10469,33664
10470,33664
10471,33664
10472,33664
10473,33792
10474,33920
10475,33920
10476,33984
10477,34112
10478,34176
10479,34240
10480,34304
10481,34560
10482,34816
10483,34880
10484,34752
10485,34624
10486,34560
10487,34368
10488,33984
10489,33664
10490,33536
10491,33408
10492,33152
10493,33088
10494,33152
10495,33216
10496,33216
10497,33344
10498,33536
10499,33664
10500,33728
10501,33792
10502,34048
10503,34304
10504,34368
10505,34368
10506,34368
10507,34176
10508,33728
10509,33088
10510,32576
10511,32576
10512,33088
10513,34496
10514,36544
10515,38784
10516,40768
10517,41792
10518,41280
10519,39104
10520,36096
10521,33216
10522,31104
10523,30080
10524,29824
10525,30016
10526,30592
10527,31424
10528,32320
10529,32896
10530,33280
10531,33472
10532,33792
10533,33984
10534,33984
10535,34048
10536,34176
10537,34240
10538,34240
10539,34176
10540,34176
10541,34176
10542,34112
10543,34048
10544,34112
10545,34176
10546,34176
10547,34176
10548,34240
10549,34304
10550,34240
10551,34240
10552,34304
10553,34368
10554,34240
10555,34048
10556,34048
10557,34112
10558,34048
10559,33792
10560,33728
10561,33920
10562,34176
10563,34432
10564,34560
10565,34688
10566,34624
10567,34560
10568,34560
10569,34560
10570,34560
10571,34496
10572,34432
10573,34432
10574,34496
10575,34496
10576,34496
10577,34496
10578,34432
10579,34304
10580,34112
10581,34112
10582,34112
10583,33984
10584,33920
10585,33856
10586,33856
10587,33792
10588,33664
10589,33600
10590,33664
10591,33664
10592,33664
10593,33664
10594,33728
10595,33792
10596,33728
10597,33600
10598,33600
10599,33664
10600,33728
10601,33600
10602,33664
10603,33792
10604,33856
10605,33920
10606,33984
10607,34048
10608,33984
10609,33856
10610,33792
10611,33920
10612,33984
10613,33920
10614,33856
10615,33920
10616,34048
10617,34048
10618,33984
10619,33984
10620,33856
10621,33664
10622,33536
10623,33536
10624,33664
10625,33664
10626,33728
10627,33856
10628,33920
10629,33984
10630,33856
10631,33792
10632,33856
10633,33856
10634,33792
10635,33664
10636,33664
10637,33728
10638,33728
10639,33728
10640,33792
10641,33920
10642,33856
10643,33792
10644,33792
10645,33792
10646,33664
10647,33536
10648,33600
10649,33792
10650,33728
10651,33664
10652,33664
10653,33856
10654,33920
10655,33792
10656,33792
10657,33984
10658,34112
10659,34112
10660,34112
10661,34112
10662,34048
10663,33984
10664,34112
10665,34368
10666,34560
10667,34560
10668,34368
10669,34240
10670,34240
10671,34048
10672,33792
10673,33600
10674,33408
10675,33280
10676,33216
10677,33216
10678,33344
10679,33408
10680,33408
10681,33472
10682,33664
10683,33664
10684,33600
10685,33600
10686,33664
10687,33664
10688,33664
10689,33728
10690,33792
10691,33664
10692,33280
10693,32960
10694,33152
10695,34112
10696,35840
10697,37952
10698,40128
10699,41664
10700,41920
10701,40384
10702,37504
10703,34432
10704,31872
10705,30208
10706,29248
10707,29248
10708,29760
10709,30528
10710,31360
10711,32192
10712,32896
10713,33344
10714,33600
10715,33792
10716,34112
10717,34240
10718,34368
10719,34368
10720,34368
10721,34240
10722,34048
10723,33984
10724,34048
10725,33920
10726,33792
10727,33664
10728,33728
10729,33728
10730,33664
10731,33728
10732,33920
10733,33984
10734,33920
10735,33920
10736,33984
10737,34048
10738,33984
10739,33984
10740,34048
10741,34112
10742,34112
10743,34048
10744,34240
10745,34368
10746,34432
10747,34304
10748,34304
10749,34368
10750,34368
10751,34368
10752,34240
10753,34240
10754,34240
10755,34176
10756,34112
10757,34112
10758,34112
10759,34112
10760,34048
10761,34112
10762,34112
10763,34048
10764,33856
10765,33856
10766,33792
10767,33664
10768,33600
10769,33664
10770,33792
10771,33728
10772,33600
10773,33536
10774,33600
10775,33472
10776,33408
10777,33344
10778,33472
10779,33536
10780,33536
10781,33536
10782,33664
10783,33792
10784,33792
10785,33856
10786,33920
10787,33984
10788,33920
10789,33792
10790,33792
10791,33856
10792,33792
10793,33728
10794,33792
10795,33920
10796,33920
10797,33792
10798,33792
10799,33856
10800,33856
10801,33792
10802,33728
10803,33792
10804,33792
10805,33728
10806,33664
10807,33792
10808,33856
10809,33792
10810,33728
10811,33728
10812,33792
10813,33792
10814,33664
10815,33664
10816,33664
10817,33728
10818,33664
10819,33664
10820,33792
10821,33792
10822,33728
10823,33792
10824,33856
10825,33920
10826,33856
10827,33792
10828,33920
10829,33984
10830,33920
10831,33856
10832,33856
10833,33856
10834,33792
10835,33792
10836,33920
10837,33984
10838,33984
10839,34048
10840,34176
10841,34368
10842,34368
10843,34304
10844,34368
10845,34496
10846,34688
10847,34688
10848,34688
10849,34688
10850,34560
10851,34432
10852,34240
10853,34048
10854,33856
10855,33664
10856,33536
10857,33600
10858,33664
10859,33664
10860,33664
10861,33728
10862,33856
10863,33856
10864,33856
10865,33984
10866,34112
10867,34176
10868,34112
10869,34176
10870,34240
10871,34176
10872,33920
10873,33600
10874,33536
10875,33792
10876,34752
10877,36480
10878,38592
10879,40576
10880,41536
10881,41408
10882,39744
10883,37056
10884,34368
10885,32320
10886,31040
10887,30336
10888,30144
10889,30336
10890,30976
10891,31872
10892,32576
10893,33152
10894,33664
10895,34048
10896,34240
10897,34368
10898,34432
10899,34496
10900,34496
10901,34368
10902,34368
10903,34304
10904,34304
10905,34176
10906,34112
10907,34112
10908,34176
10909,34176
10910,34112
10911,34176
10912,34240
10913,34240
10914,34240
10915,34240
10916,34368
10917,34304
10918,34240
10919,34240
10920,34304
10921,34304
10922,34304
10923,34240
10924,34304
