,ECG
0,35520
1,35712
2,35712
3,35648
4,35520
5,35520
6,35648
7,35200
8,34688
9,34304
10,34048
11,33536
12,33280
13,33088
14,32960
15,32896
16,33024
17,33472
18,33728
19,33344
20,32960
21,32704
22,32640
23,32768
24,33024
25,33536
26,33920
27,34176
28,34176
29,33792
30,33472
31,33344
32,33088
33,33088
34,33600
35,34304
36,34560
37,34624
38,34560
39,34560
40,34560
41,34688
42,34880
43,34816
44,34560
45,34624
46,34688
47,34688
48,35008
49,34944
50,34624
51,34624
52,34688
53,34432
54,34240
55,34240
56,34432
57,34624
58,34816
59,34944
60,35072
61,35008
62,35008
63,34944
64,34880
65,34944
66,35072
67,35264
68,35456
69,35520
70,35456
71,35200
72,34944
73,34624
74,34304
75,34048
76,33920
77,33792
78,33600
79,33472
80,33536
81,33600
82,33472
83,33472
84,33536
85,33664
86,33600
87,33600
88,33600
89,33728
90,33728
91,33728
92,34048
93,34432
94,34368
95,34112
96,33856
97,33600
98,33216
99,32960
100,33408
101,35136
102,37632
103,40384
104,42816
105,43776
106,42688
107,39616
108,36288
109,33536
110,32000
111,31488
112,31232
113,31104
114,31168
115,31296
116,31424
117,31744
118,32192
119,32576
120,33024
121,33344
122,33472
123,33472
124,33344
125,33280
126,33536
127,33792
128,34112
129,34560
130,34688
131,34304
132,33728
133,33408
134,33408
135,33600
136,33600
137,33728
138,33856
139,34112
140,34240
141,34368
142,34496
143,34624
144,34752
145,34816
146,34880
147,35008
148,35072
149,35008
150,35008
151,35136
152,35200
153,35200
154,35328
155,35520
156,35584
157,35648
158,35712
159,35840
160,35904
161,35712
162,35584
163,35648
164,35840
165,35904
166,35776
167,35712
168,35776
169,35648
170,35392
171,35584
172,36032
173,35520
174,34432
175,33536
176,33088
177,33024
178,32896
179,33024
180,33344
181,33280
182,33024
183,32640
184,32384
185,32640
186,33472
187,34624
188,35328
189,35136
190,34240
191,32832
192,31872
193,32192
194,33088
195,33536
196,33600
197,33280
198,32832
199,32448
200,32512
201,32896
202,33152
203,33344
204,33536
205,33792
206,34048
207,34176
208,34176
209,34304
210,34432
211,34368
212,34240
213,34176
214,34304
215,34304
216,34176
217,34112
218,34176
219,34176
220,34112
221,34112
222,34176
223,34176
224,34112
225,34048
226,34240
227,34368
228,34112
229,33920
230,33856
231,34048
232,33984
233,33920
234,34048
235,34368
236,34560
237,34752
238,34624
239,34688
240,35008
241,35136
242,35136
243,35072
244,34880
245,34560
246,34304
247,34176
248,34112
249,33856
250,33728
251,33920
252,33920
253,33664
254,33408
255,33280
256,33408
257,33472
258,33408
259,33536
260,33856
261,33920
262,33792
263,33792
264,33920
265,33856
266,33728
267,33728
268,33920
269,34048
270,33920
271,33600
272,33408
273,33408
274,33856
275,35712
276,38400
277,41408
278,44096
279,45248
280,43712
281,40384
282,36736
283,33856
284,32064
285,31360
286,31296
287,31552
288,31744
289,31744
290,31808
291,31936
292,32192
293,32512
294,32896
295,33216
296,33280
297,33472
298,33600
299,33536
300,33536
301,33664
302,33792
303,33728
304,33792
305,33984
306,34368
307,34240
308,34048
309,34112
310,34176
311,34112
312,33984
313,33920
314,34112
315,34240
316,34112
317,34112
318,34240
319,34560
320,34752
321,34496
322,34368
323,34368
324,34496
325,34496
326,34752
327,35136
328,35264
329,35072
330,35072
331,35136
332,35136
333,35264
334,35520
335,35712
336,35712
337,35520
338,35456
339,35648
340,35840
341,35776
342,35520
343,35392
344,35392
345,35200
346,34944
347,34816
348,34432
349,33984
350,33664
351,33536
352,33536
353,33280
354,32960
355,32768
356,32704
357,32704
358,32704
359,32832
360,33088
361,33024
362,32832
363,32832
364,33024
365,33024
366,32960
367,32960
368,33088
369,33216
370,33280
371,33408
372,33664
373,33920
374,33920
375,33728
376,33728
377,33856
378,33856
379,33792
380,33792
381,34048
382,34112
383,34176
384,34240
385,34304
386,34304
387,34176
388,33984
389,33856
390,33664
391,33536
392,33536
393,33728
394,33856
395,33792
396,33728
397,33792
398,33856
399,33856
400,33920
401,33984
402,34112
403,33984
404,33856
405,33920
406,34176
407,34176
408,34048
409,34176
410,34368
411,34432
412,34432
413,34368
414,34368
415,34368
416,34368
417,34496
418,34816
419,34944
420,34944
421,34944
422,34880
423,34752
424,34560
425,34304
426,34176
427,34112
428,33856
429,33536
430,33344
431,33280
432,33344
433,33600
434,33600
435,33600
436,33536
437,33600
438,33600
439,33728
440,33856
441,33728
442,33600
443,33792
444,33984
445,34112
446,34368
447,34304
448,34048
449,33536
450,33152
451,33024
452,33664
453,35392
454,38144
455,41600
456,44544
457,45440
458,43712
459,40320
460,36800
461,33984
462,32192
463,31360
464,31168
465,31296
466,31488
467,31936
468,32512
469,32832
470,32768
471,32640
472,32896
473,33152
474,33216
475,33152
476,33152
477,33216
478,33536
479,33728
480,33728
481,33728
482,33728
483,33664
484,33728
485,33920
486,33984
487,33920
488,34048
489,34240
490,34304
491,34176
492,34240
493,34368
494,34432
495,34304
496,34176
497,34176
498,34304
499,34496
500,34752
501,34880
502,34880
503,34816
504,35136
505,35200
506,35008
507,34752
508,34688
509,34944
510,35264
511,35456
512,35456
513,35392
514,35520
515,35584
516,35648
517,35584
518,35520
519,35520
520,35456
521,35456
522,35648
523,35584
524,35136
525,34816
526,34688
527,34432
528,33920
529,33408
530,33152
531,33152
532,33088
533,32960
534,32896
535,32896
536,32832
537,32704
538,32576
539,32704
540,32896
541,32896
542,32960
543,33216
544,33600
545,33600
546,33344
547,33344
548,33408
549,33472
550,33472
551,33664
552,33792
553,33856
554,33856
555,33920
556,33920
557,33792
558,33728
559,33856
560,33920
561,33984
562,33984
563,33984
564,34048
565,33920
566,33792
567,33664
568,33664
569,33728
570,33728
571,33664
572,33792
573,33920
574,33856
575,33728
576,33920
577,34368
578,34368
579,34048
580,33792
581,33728
582,33600
583,33600
584,33728
585,33856
586,33920
587,33856
588,34112
589,34368
590,34176
591,33920
592,33728
593,33664
594,33728
595,33664
596,33664
597,33856
598,34176
599,34240
600,34176
601,34112
602,33984
603,33792
604,33728
605,33920
606,34048
607,33920
608,33792
609,33856
610,33984
611,33984
612,33984
613,34048
614,34368
615,34496
616,34496
617,34560
618,34624
619,34624
620,34496
621,34304
622,34304
623,34432
624,34560
625,34560
626,34816
627,35072
628,35008
629,34816
630,34432
631,34176
632,33856
633,33664
634,33600
635,33664
636,33728
637,33536
638,33408
639,33536
640,33664
641,33472
642,33408
643,33728
644,33792
645,33600
646,33536
647,33600
648,33792
649,33920
650,33920
651,33984
652,33984
653,33920
654,33600
655,33280
656,33408
657,34304
658,36352
659,39296
660,42752
661,45184
662,45312
663,42880
664,39296
665,35904
666,33344
667,31744
668,31104
669,30976
670,31104
671,31360
672,31744
673,32192
674,32512
675,32768
676,33024
677,33152
678,33216
679,33344
680,33472
681,33728
682,33792
683,33728
684,33728
685,33728
686,33664
687,33600
688,33664
689,33920
690,34304
691,34432
692,34176
693,34048
694,34048
695,33984
696,33984
697,34176
698,34176
699,34176
700,34176
701,34176
702,34368
703,34432
704,34496
705,34560
706,34752
707,34752
708,34688
709,34688
710,34944
711,35008
712,34944
713,35008
714,35200
715,35264
716,35328
717,35392
718,35584
719,35648
720,35648
721,35584
722,35520
723,35584
724,35584
725,35584
726,35456
727,35328
728,35200
729,35008
730,34752
731,34560
732,34496
733,34368
734,34112
735,33856
736,33536
737,33216
738,33024
739,33024
740,33024
741,32832
742,32768
743,32896
744,32960
745,33024
746,33152
747,33280
748,33408
749,33472
750,33472
751,33472
752,33536
753,33472
754,33472
755,33600
756,33792
757,33920
758,33984
759,34048
760,34176
761,34240
762,34048
763,33856
764,33920
765,33920
766,33856
767,33920
768,34112
769,34240
770,34112
771,33856
772,33792
773,33856
774,33856
775,33984
776,34240
777,34176
778,33920
779,33728
780,33792
781,33920
782,33920
783,33856
784,33856
785,33920
786,33984
787,33984
788,33984
789,34048
790,34048
791,34048
792,34112
793,34240
794,34112
795,33920
796,33792
797,33792
798,33984
799,34048
800,34112
801,34112
802,34240
803,34112
804,34048
805,34048
806,34240
807,34176
808,34112
809,33984
810,33984
811,33984
812,33920
813,33920
814,34176
815,34368
816,34432
817,34496
818,34624
819,34752
820,34752
821,34816
822,35072
823,35200
824,35136
825,35008
826,34880
827,34880
828,34752
829,34496
830,34240
831,34048
832,33664
833,33408
834,33344
835,33408
836,33536
837,33600
838,33664
839,33792
840,33856
841,33856
842,33856
843,33920
844,34112
845,33984
846,33920
847,33920
848,33984
849,33920
850,33856
851,33920
852,33856
853,33536
854,33088
855,33024
856,34048
857,36032
858,38464
859,41280
860,43456
861,43840
862,41856
863,38784
864,35968
865,33856
866,32320
867,31488
868,31360
869,31488
870,31744
871,32064
872,32448
873,32768
874,32832
875,33024
876,33280
877,33536
878,33472
879,33536
880,33664
881,33728
882,33600
883,33536
884,33536
885,33664
886,33792
887,33984
888,34176
889,34176
890,34048
891,33920
892,33856
893,33984
894,34112
895,34176
896,34368
897,34496
898,34496
899,34368
900,34368
901,34432
902,34496
903,34560
904,34624
905,34688
906,34752
907,34752
908,34816
909,34816
910,34944
911,35136
912,35200
913,35264
914,35328
915,35328
916,35264
917,35264
918,35392
919,35520
920,35520
921,35456
922,35456
923,35456
924,35456
925,35456
926,35328
927,35264
928,35008
929,34752
930,34560
931,34496
932,34432
933,34048
934,33600
935,33408
936,33344
937,33152
938,33024
939,33088
940,33152
941,33216
942,33216
943,33344
944,33472
945,33472
946,33472
947,33344
948,33344
949,33344
950,33280
951,33280
952,33472
953,33536
954,33600
955,33600
956,33728
957,33792
958,33728
959,33728
960,33792
961,33856
962,33856
963,33984
964,33920
965,33856
966,33664
967,33664
968,33920
969,34048
970,33984
971,33920
972,33856
973,33920
974,33792
975,33600
976,33600
977,33792
978,33856
979,33856
980,33792
981,33920
982,33856
983,33792
984,33792
985,33984
986,33984
987,33728
988,33472
989,33536
990,33664
991,33728
992,33856
993,33984
994,34176
995,34240
996,34368
997,34496
998,34560
999,34496
1000,34496
1001,34496
1002,34560
1003,34624
1004,34688
1005,34752
1006,34944
1007,34880
1008,34496
1009,34176
1010,34048
1011,33984
1012,33728
1013,33536
1014,33408
1015,33408
1016,33408
1017,33344
1018,33472
1019,33664
1020,33728
1021,33728
1022,33728
1023,33856
1024,33792
1025,33664
1026,33664
1027,33920
1028,34112
1029,33920
1030,33792
1031,33728
1032,33600
1033,33280
1034,32960
1035,33024
1036,33920
1037,35584
1038,38080
1039,41088
1040,43776
1041,44736
1042,42688
1043,40000
1044,37056
1045,34304
1046,32320
1047,31488
1048,31232
1049,31168
1050,31168
1051,31488
1052,31936
1053,32256
1054,32512
1055,32768
1056,32960
1057,33024
1058,32960
1059,33024
1060,33216
1061,33472
1062,33600
1063,33728
1064,33792
1065,33856
1066,33984
1067,34112
1068,34048
1069,33984
1070,33984
1071,33984
1072,33984
1073,34176
1074,34240
1075,34048
1076,33920
1077,34112
1078,34240
1079,34176
1080,34176
1081,34240
1082,34368
1083,34432
1084,34496
1085,34624
1086,34688
1087,34624
1088,34752
1089,34880
1090,35008
1091,35008
1092,35200
1093,35456
1094,35584
1095,35584
1096,35520
1097,35584
1098,35648
1099,35648
1100,35648
1101,35648
1102,35520
1103,35520
1104,35456
1105,35456
1106,35520
1107,35328
1108,34880
1109,34624
1110,34432
1111,34304
1112,33984
1113,33728
1114,33600
1115,33536
1116,33216
1117,32896
1118,32960
1119,33216
1120,33088
1121,32704
1122,32576
1123,32768
1124,32832
1125,32832
1126,32896
1127,33024
1128,33152
1129,33152
1130,33216
1131,33344
1132,33536
1133,33600
1134,33664
1135,33728
1136,33792
1137,33728
1138,33664
1139,33664
1140,33728
1141,33792
1142,33856
1143,33856
1144,33856
1145,33920
1146,34048
1147,34240
1148,34304
1149,34112
1150,33856
1151,33728
1152,33792
1153,33728
1154,33600
1155,33664
1156,33984
1157,34176
1158,34112
1159,33856
1160,33856
1161,33792
1162,33536
1163,33408
1164,33472
1165,33600
1166,33728
1167,33792
1168,33984
1169,34048
1170,33984
1171,33984
1172,33984
1173,33984
1174,33856
1175,33728
1176,33728
1177,33856
1178,33856
1179,33728
1180,33792
1181,33984
1182,34048
1183,33984
1184,33984
1185,34176
1186,34304
1187,34304
1188,34368
1189,34368
1190,34496
1191,34432
1192,34496
1193,34560
1194,34688
1195,34752
1196,34880
1197,34816
1198,34880
1199,34816
1200,34624
1201,34496
1202,34432
1203,34304
1204,33984
1205,33728
1206,33536
1207,33472
1208,33536
1209,33600
1210,33600
1211,33600
1212,33600
1213,33664
1214,33728
1215,33920
1216,33856
1217,33728
1218,33728
1219,33920
1220,33984
1221,33920
1222,33920
1223,33920
1224,33792
1225,33472
1226,33216
1227,33216
1228,33792
1229,35328
1230,37760
1231,40896
1232,44160
1233,45440
1234,44416
1235,41280
1236,37760
1237,34752
1238,32576
1239,31488
1240,31168
1241,31168
1242,31424
1243,31680
1244,31872
1245,32064
1246,32256
1247,32512
1248,33024
1249,33408
1250,33344
1251,33280
1252,33472
1253,33536
1254,33664
1255,33792
1256,33920
1257,33920
1258,33728
1259,33664
1260,33856
1261,34112
1262,34112
1263,33984
1264,34048
1265,34304
1266,34112
1267,33984
1268,33984
1269,34176
1270,34240
1271,34240
1272,34304
1273,34496
1274,34624
1275,34624
1276,34688
1277,34752
1278,34816
1279,34880
1280,35072
1281,35072
1282,35008
1283,34880
1284,34816
1285,35008
1286,35264
1287,35520
1288,35584
1289,35584
1290,35712
1291,35712
1292,35712
1293,35648
1294,35712
1295,35648
1296,35520
1297,35456
1298,35456
1299,35328
1300,35200
1301,34944
1302,34752
1303,34560
1304,34240
1305,33920
1306,33600
1307,33344
1308,33024
1309,32768
1310,32768
1311,32832
1312,32832
1313,32896
1314,32768
1315,32768
1316,32704
1317,32768
1318,32960
1319,33280
1320,33280
1321,33280
1322,33216
1323,33344
1324,33408
1325,33472
1326,33600
1327,33856
1328,33856
1329,33728
1330,33792
1331,33920
1332,33920
1333,33792
1334,33728
1335,33856
1336,33984
1337,33920
1338,33856
1339,33920
1340,34048
1341,34048
1342,34048
1343,34112
1344,34176
1345,34112
1346,33984
1347,33984
1348,34048
1349,33920
1350,33856
1351,33792
1352,33792
1353,33792
1354,33728
1355,33728
1356,33920
1357,34112
1358,34048
1359,33920
1360,33920
1361,33920
1362,33792
1363,33728
1364,33728
1365,33856
1366,33920
1367,33856
1368,33856
1369,33984
1370,33984
1371,33920
1372,33920
1373,34112
1374,34112
1375,34048
1376,33984
1377,34048
1378,34048
1379,33920
1380,33856
1381,33984
1382,34048
1383,33920
1384,33920
1385,33984
1386,34112
1387,34112
1388,33984
1389,34048
1390,34240
1391,34112
1392,33920
1393,33920
1394,34112
1395,34304
1396,34304
1397,34240
1398,34432
1399,34560
1400,34624
1401,34560
1402,34560
1403,34560
1404,34496
1405,34560
1406,34816
1407,35136
1408,35200
1409,35264
1410,35200
1411,35008
1412,34688
1413,34368
1414,34176
1415,33984
1416,33792
1417,33600
1418,33600
1419,33856
1420,33792
1421,33600
1422,33536
1423,33664
1424,33792
1425,33856
1426,33856
1427,33856
1428,33984
1429,34048
1430,34048
1431,33984
1432,33984
1433,33920
1434,33984
1435,33920
1436,33664
1437,33280
1438,33408
1439,34560
1440,36864
1441,39744
1442,42752
1443,44672
1444,44480
1445,41920
1446,38464
1447,35264
1448,33216
1449,32000
1450,31360
1451,31232
1452,31488
1453,31808
1454,32064
1455,32320
1456,32512
1457,32768
1458,32896
1459,33088
1460,33408
1461,33728
1462,33728
1463,33728
1464,33792
1465,33856
1466,33792
1467,33792
1468,33856
1469,34048
1470,34304
1471,34368
1472,34368
1473,34176
1474,34048
1475,33920
1476,33984
1477,34240
1478,34240
1479,34240
1480,34240
1481,34432
1482,34560
1483,34432
1484,34368
1485,34368
1486,34624
1487,34816
1488,34816
1489,34816
1490,34944
1491,35008
1492,35072
1493,35136
1494,35200
1495,35136
1496,35136
1497,35136
1498,35264
1499,35584
1500,35584
1501,35456
1502,35456
1503,35584
1504,35584
1505,35584
1506,35648
1507,35776
1508,35648
1509,35392
1510,35200
1511,35136
1512,34752
1513,34496
1514,34432
1515,34304
1516,33984
1517,33600
1518,33280
1519,33216
1520,33088
1521,33024
1522,32960
1523,33024
1524,32960
1525,32832
1526,32768
1527,32896
1528,33088
1529,33152
1530,33152
1531,33280
1532,33472
1533,33536
1534,33664
1535,33920
1536,33984
1537,33664
1538,33472
1539,33408
1540,33600
1541,33728
1542,33664
1543,33728
1544,33856
1545,33920
1546,33792
1547,33728
1548,33792
1549,33920
1550,33920
1551,33984
1552,34112
1553,34112
1554,34112
1555,34112
1556,33984
1557,33856
1558,33856
1559,33920
1560,33856
1561,33856
1562,33792
1563,33728
1564,33856
1565,34048
1566,34112
1567,33984
1568,33920
1569,33984
1570,33920
1571,33728
1572,33600
1573,33664
1574,33728
1575,33728
1576,33728
1577,33856
1578,34048
1579,34112
1580,34176
1581,34176
1582,34240
1583,34176
1584,34240
1585,34304
1586,34368
1587,34368
1588,34432
1589,34624
1590,34880
1591,35008
1592,35072
1593,35200
1594,35392
1595,35136
1596,34688
1597,34304
1598,34176
1599,34112
1600,33984
1601,33792
1602,33728
1603,33792
1604,33664
1605,33536
1606,33472
1607,33600
1608,33600
1609,33472
1610,33600
1611,33792
1612,33792
1613,33856
1614,34048
1615,33984
1616,33856
1617,33792
1618,33984
1619,34240
1620,34048
1621,33728
1622,33408
1623,33280
1624,33792
1625,35456
1626,38080
1627,41216
1628,43840
1629,44608
1630,42880
1631,39744
1632,36544
1633,33984
1634,32256
1635,31488
1636,31232
1637,31360
1638,31360
1639,32064
1640,32320
1641,32512
1642,32704
1643,33088
1644,33472
1645,33536
1646,33408
1647,33472
1648,33600
1649,33664
1650,33856
1651,34112
1652,34240
1653,33920
1654,33664
1655,33600
1656,33664
1657,33728
1658,33792
1659,34048
1660,34240
1661,34240
1662,34176
1663,34240
1664,34496
1665,34496
1666,34432
1667,34432
1668,34432
1669,34368
1670,34304
1671,34496
1672,34688
1673,34752
1674,34688
1675,34560
1676,34624
1677,34816
1678,34880
1679,34816
1680,34944
1681,35264
1682,35392
1683,35328
1684,35264
1685,35392
1686,35456
1687,35520
1688,35520
1689,35520
1690,35520
1691,35456
1692,35392
1693,35392
1694,35392
1695,35264
1696,35072
1697,34880
1698,34688
1699,34304
1700,33920
1701,33600
1702,33344
1703,33152
1704,32896
1705,32768
1706,32704
1707,32640
1708,32576
1709,32832
1710,33088
1711,32960
1712,32832
1713,32768
1714,32896
1715,32960
1716,32960
1717,33152
1718,33152
1719,33408
1720,33408
1721,33408
1722,33536
1723,33728
1724,33728
1725,33664
1726,33600
1727,33728
1728,33856
1729,33984
1730,34048
1731,34112
1732,33984
1733,33856
1734,33664
1735,33792
1736,33984
1737,33920
1738,33728
1739,33664
1740,33728
1741,33728
1742,33728
1743,33856
1744,33984
1745,33920
1746,33920
1747,33920
1748,34048
1749,34048
1750,33920
1751,33920
1752,34048
1753,34176
1754,34048
1755,33920
1756,34048
1757,34112
1758,34048
1759,33984
1760,34112
1761,34112
1762,33856
1763,33664
1764,33664
1765,33728
1766,33728
1767,33792
1768,33984
1769,34048
1770,33984
1771,33920
1772,33984
1773,34112
1774,34048
1775,33984
1776,33984
1777,33984
1778,33920
1779,33856
1780,34112
1781,34304
1782,34432
1783,34496
1784,34368
1785,34368
1786,34368
1787,34368
1788,34432
1789,34688
1790,34816
1791,34816
1792,34944
1793,35008
1794,34944
1795,34624
1796,34368
1797,34112
1798,33920
1799,33664
1800,33408
1801,33408
1802,33536
1803,33472
1804,33472
1805,33472
1806,33664
1807,33728
1808,33600
1809,33536
1810,33728
1811,33856
1812,33728
1813,33728
1814,33920
1815,34112
1816,33920
1817,33728
1818,33664
1819,33472
1820,33216
1821,33024
1822,33344
1823,34496
1824,36736
1825,39680
1826,42880
1827,45248
1828,45184
1829,42496
1830,38976
1831,35776
1832,33280
1833,31680
1834,31104
1835,31104
1836,31232
1837,31360
1838,31488
1839,31744
1840,32064
1841,32320
1842,32576
1843,32960
1844,33216
1845,33280
1846,33344
1847,33472
1848,33600
1849,33536
1850,33472
1851,33536
1852,33792
1853,33984
1854,33984
1855,33856
1856,33920
1857,33856
1858,33728
1859,33728
1860,33920
1861,34112
1862,34112
1863,33984
1864,33984
1865,34048
1866,33984
1867,33920
1868,34048
1869,34240
1870,34304
1871,34496
1872,34688
1873,34880
1874,34688
1875,34624
1876,34752
1877,35008
1878,35072
1879,35072
1880,35136
1881,35392
1882,35520
1883,35520
1884,35584
1885,35712
1886,35712
1887,35648
1888,35712
1889,35968
1890,35904
1891,35648
1892,35456
1893,35328
1894,35200
1895,34880
1896,34624
1897,34496
1898,34368
1899,33920
1900,33472
1901,33344
1902,33152
1903,32960
1904,32832
1905,32704
1906,32576
1907,32576
1908,32448
1909,32448
1910,32640
1911,32832
1912,32832
1913,32896
1914,33088
1915,33152
1916,33088
1917,33024
1918,33216
1919,33408
1920,33408
1921,33408
1922,33536
1923,33664
1924,33856
1925,33792
1926,33792
1927,33920
1928,33856
1929,33728
1930,33664
1931,33728
1932,33856
1933,33920
1934,33920
1935,34048
1936,34112
1937,34048
1938,34048
1939,34048
1940,34048
1941,33984
1942,33920
1943,33984
1944,33984
1945,33920
1946,33920
1947,34048
1948,34176
1949,34176
1950,34112
1951,33920
1952,33856
1953,33792
1954,33728
1955,33792
1956,33920
1957,34048
1958,34176
1959,34240
1960,34304
1961,34368
1962,34112
1963,33856
1964,33792
1965,33920
1966,33920
1967,33920
1968,34112
1969,34176
1970,34048
1971,33984
1972,34048
1973,34112
1974,33984
1975,33856
1976,33856
1977,33984
1978,33984
1979,34048
1980,34048
1981,34112
1982,34048
1983,33984
1984,33984
1985,34048
1986,34112
1987,33984
1988,33856
1989,33920
1990,34048
1991,34240
1992,34368
1993,34240
1994,34112
1995,34048
1996,34048
1997,33984
1998,34048
1999,34112
2000,34240
2001,34368
2002,34688
2003,34880
2004,34880
2005,34752
2006,34688
2007,34752
2008,34688
2009,34688
2010,34880
2011,35072
2012,34944
2013,34688
2014,34560
2015,34624
2016,34176
2017,33728
2018,33536
2019,33472
2020,33536
2021,33600
2022,33600
2023,33472
2024,33408
2025,33472
2026,33600
2027,33792
2028,33728
2029,33536
2030,33472
2031,33664
2032,33792
2033,33856
2034,33920
2035,33984
2036,33984
2037,33920
2038,33728
2039,33472
2040,33344
2041,33792
2042,35328
2043,38080
2044,41472
2045,44352
2046,45504
2047,44160
2048,41024
2049,37440
2050,34432
2051,32448
2052,31488
2053,31168
2054,31232
2055,31424
2056,31680
2057,32000
2058,32192
2059,32384
2060,32640
2061,32960
2062,33024
2063,33088
2064,33216
2065,33536
2066,33728
2067,33728
2068,33664
2069,33728
2070,33792
2071,33728
2072,33792
2073,33984
2074,34176
2075,34112
2076,33984
2077,33984
2078,34048
2079,34048
2080,34048
2081,34112
2082,34304
2083,34304
2084,34240
2085,34240
2086,34368
2087,34368
2088,34368
2089,34496
2090,34688
2091,34688
2092,34688
2093,34752
2094,34880
2095,35136
2096,35392
2097,35456
2098,35456
2099,35392
2100,35328
2101,35456
2102,35712
2103,35840
2104,35904
2105,35904
2106,35968
2107,36032
2108,35840
2109,35648
2110,35520
2111,35520
2112,35264
2113,35008
2114,34880
2115,34816
2116,34496
2117,34176
2118,33984
2119,33856
2120,33536
2121,33216
2122,33088
2123,33024
2124,32896
2125,32768
2126,32832
2127,32896
2128,32896
2129,32832
2130,32832
2131,32960
2132,33152
2133,33216
2134,33152
2135,33280
2136,33472
2137,33472
2138,33472
2139,33536
2140,33728
2141,33728
2142,33664
2143,33728
2144,33920
2145,33856
2146,33792
2147,33856
2148,33984
2149,34048
2150,33984
2151,33856
2152,33920
2153,33984
2154,33920
2155,33792
2156,33856
2157,33984
2158,33984
2159,33920
2160,33920
2161,33984
2162,33984
2163,34048
2164,34240
2165,34368
2166,34176
2167,33984
2168,33856
2169,34048
2170,34176
2171,34240
2172,34240
2173,34048
2174,33792
2175,33664
2176,33664
2177,33728
2178,33856
2179,33856
2180,33856
2181,33920
2182,33984
2183,33984
2184,34048
2185,34048
2186,34176
2187,34176
2188,34048
2189,33984
2190,34048
2191,33920
2192,33856
2193,33856
2194,34112
2195,34176
2196,34112
2197,33984
2198,33920
2199,33920
2200,34048
2201,34112
2202,34048
2203,33984
2204,33856
2205,33920
2206,34112
2207,34240
2208,34112
2209,34112
2210,34304
2211,34560
2212,34496
2213,34368
2214,34368
2215,34624
2216,34688
2217,34496
2218,34496
2219,34688
2220,34880
2221,35136
2222,35200
2223,35264
2224,35136
2225,34880
2226,34752
2227,34496
2228,34304
2229,34048
2230,33856
2231,33728
2232,33728
2233,33600
2234,33472
2235,33472
2236,33536
2237,33536
2238,33536
2239,33600
2240,33792
2241,33920
2242,33984
2243,33984
2244,34048
2245,33984
2246,33920
2247,33920
2248,34048
2249,33984
2250,33792
2251,33408
2252,33216
2253,33408
2254,34432
2255,36480
2256,39296
2257,42368
2258,44096
2259,43776
2260,41472
2261,38336
2262,35392
2263,33152
2264,31936
2265,31488
2266,31360
2267,31360
2268,31552
2269,31936
2270,32320
2271,32640
2272,32960
2273,33280
2274,33536
2275,33536
2276,33472
2277,33536
2278,33664
2279,33600
2280,33600
2281,33664
2282,33792
2283,33728
2284,33664
2285,33728
2286,33984
2287,34112
2288,34112
2289,34176
2290,34432
2291,34368
2292,34176
2293,34048
2294,34176
2295,34240
2296,34304
2297,34560
2298,34816
2299,34816
2300,34560
2301,34432
2302,34496
2303,34560
2304,34496
2305,34560
2306,34752
2307,34944
2308,35072
2309,35136
2310,35200
2311,35200
2312,35264
2313,35392
2314,35520
2315,35648
2316,35712
2317,35776
2318,35904
2319,35968
2320,35968
2321,35712
2322,35520
2323,35456
2324,35328
2325,35136
2326,34880
2327,34816
2328,34752
2329,34432
2330,33984
2331,33792
2332,33664
2333,33344
2334,33024
2335,32832
2336,32704
2337,32640
2338,32576
2339,32768
2340,33024
2341,33152
2342,33152
2343,33216
2344,33280
2345,33280
2346,33216
2347,33152
2348,33216
2349,33280
2350,33280
2351,33344
2352,33472
2353,33664
2354,33792
2355,33728
2356,33664
2357,33600
2358,33600
2359,33728
2360,33856
2361,33920
2362,33984
2363,33920
2364,33792
2365,33792
2366,33792
2367,33728
2368,33728
2369,33792
2370,33856
2371,33856
2372,33792
2373,33792
2374,33856
2375,33792
2376,33728
2377,33856
2378,33984
2379,33920
2380,33856
2381,33856
2382,33984
2383,33920
2384,33792
2385,33728
2386,33920
2387,33920
2388,33792
2389,33728
2390,33728
2391,33792
2392,33728
2393,33792
2394,33920
2395,34048
2396,33984
2397,33728
2398,33664
2399,33792
2400,33792
2401,33792
2402,33856
2403,34048
2404,34176
2405,34112
2406,34048
2407,34176
2408,34112
2409,34048
2410,34112
2411,34112
2412,33920
2413,33728
2414,33664
2415,33728
2416,33792
2417,33792
2418,33856
2419,33984
2420,34112
2421,34048
2422,34112
2423,34176
2424,34240
2425,34176
2426,34176
2427,34368
2428,34560
2429,34496
2430,34304
2431,34304
2432,34432
2433,34560
2434,34624
2435,34560
2436,34560
2437,34624
2438,34560
2439,34560
2440,34688
2441,34752
2442,34688
2443,34560
2444,34560
2445,34560
2446,34304
2447,33984
2448,33792
2449,33728
2450,33536
2451,33408
2452,33536
2453,33664
2454,33728
2455,33728
2456,33856
2457,33920
2458,33792
2459,33728
2460,33664
2461,33728
2462,33600
2463,33600
2464,33728
2465,33792
2466,33792
2467,33600
2468,33408
2469,33216
2470,33280
2471,34048
2472,35968
2473,38784
2474,42112
2475,44672
2476,45440
2477,43712
2478,40448
2479,36736
2480,33792
2481,32000
2482,31168
2483,30912
2484,30912
2485,31104
2486,31488
2487,31808
2488,32128
2489,32448
2490,32704
2491,32896
2492,33088
2493,33216
2494,33280
2495,33344
2496,33344
2497,33408
2498,33536
2499,33728
2500,33664
2501,33536
2502,33536
2503,33728
2504,33792
2505,33728
2506,33728
2507,33920
2508,33920
2509,33984
2510,34048
2511,34112
2512,34176
2513,34048
2514,34048
2515,34176
2516,34368
2517,34432
2518,34368
2519,34432
2520,34496
2521,34560
2522,34624
2523,34816
2524,35008
2525,35008
2526,35072
2527,35264
2528,35584
2529,35584
2530,35392
2531,35328
2532,35584
2533,35776
2534,35776
2535,35712
2536,35712
2537,35712
2538,35584
2539,35584
2540,35584
2541,35712
2542,35712
2543,35392
2544,34944
2545,34624
2546,34176
2547,33792
2548,33600
2549,33536
2550,33280
2551,33024
2552,32832
2553,32896
2554,32960
2555,32832
2556,32640
2557,32640
2558,32640
2559,32704
2560,32640
2561,32704
2562,32768
2563,32768
2564,32896
2565,33280
2566,33472
2567,33408
2568,33216
2569,33216
2570,33344
2571,33344
2572,33344
2573,33472
2574,33728
2575,33728
2576,33664
2577,33664
2578,33856
2579,33984
2580,33856
2581,33792
2582,33920
2583,34048
2584,33984
2585,33920
2586,33984
2587,34112
2588,34048
2589,34048
2590,33920
2591,33856
2592,33856
2593,33856
2594,33920
2595,33984
2596,33920
2597,33984
2598,33984
2599,34048
2600,33984
2601,33856
2602,33856
2603,33920
2604,33920
2605,33856
2606,33856
2607,33984
2608,34048
2609,33984
2610,33920
2611,33984
2612,34112
2613,34048
2614,34048
2615,34112
2616,34240
2617,34176
2618,34048
2619,33984
2620,34112
2621,34240
2622,34240
2623,34240
2624,34304
2625,34304
2626,34112
2627,33984
2628,33984
2629,33984
2630,33920
2631,33920
2632,34176
2633,34240
2634,34176
2635,34176
2636,34240
2637,34304
2638,34240
2639,34112
2640,34176
2641,34304
2642,34176
2643,34112
2644,34112
2645,34240
2646,34368
2647,34496
2648,34496
2649,34304
2650,34048
2651,33856
2652,33856
2653,33984
2654,34048
2655,33984
2656,33920
2657,34048
2658,34176
2659,34176
2660,34176
2661,34304
2662,34240
2663,34112
2664,34048
2665,34176
2666,34304
2667,34432
2668,34560
2669,34624
2670,34688
2671,34560
2672,34368
2673,34432
2674,34816
2675,34944
2676,34944
2677,34944
2678,34944
2679,34944
2680,34688
2681,34368
2682,34176
2683,34048
2684,33856
2685,33600
2686,33536
2687,33600
2688,33536
2689,33472
2690,33600
2691,33792
2692,33856
2693,33728
2694,33792
2695,33920
2696,33920
2697,33920
2698,33856
2699,33984
2700,33984
2701,33856
2702,33728
2703,33664
2704,33536
2705,33216
2706,32960
2707,33344
2708,34752
2709,37056
2710,40128
2711,43328
2712,45440
2713,45184
2714,42496
2715,38720
2716,35392
2717,32896
2718,31360
2719,30912
2720,31104
2721,31296
2722,31488
2723,31744
2724,32256
2725,32448
2726,32512
2727,32704
2728,32960
2729,33088
2730,33088
2731,33088
2732,33280
2733,33408
2734,33472
2735,33472
2736,33600
2737,33792
2738,33728
2739,33664
2740,33728
2741,33920
2742,33856
2743,33856
2744,33856
2745,33984
2746,34112
2747,34048
2748,33984
2749,34176
2750,34176
2751,34048
2752,33984
2753,34112
2754,34240
2755,34368
2756,34432
2757,34688
2758,34752
2759,34624
2760,34560
2761,34688
2762,35008
2763,35072
2764,35072
2765,35200
2766,35392
2767,35456
2768,35520
2769,35584
2770,35712
2771,35776
2772,35776
2773,35776
2774,35904
2775,35904
2776,35840
2777,35712
2778,35584
2779,35456
2780,35264
2781,34880
2782,34624
2783,34368
2784,33920
2785,33600
2786,33408
2787,33280
2788,32960
2789,32768
2790,32704
2791,32768
2792,32768
2793,32768
2794,32768
2795,32768
2796,32768
2797,32640
2798,32704
2799,33024
2800,33280
2801,33280
2802,33216
2803,33152
2804,33216
2805,33280
2806,33408
2807,33536
2808,33600
2809,33728
2810,33792
2811,33728
2812,33728
2813,33728
2814,33664
2815,33792
2816,33984
2817,34112
2818,33984
2819,33920
2820,33984
2821,33984
2822,33920
2823,33984
2824,34048
2825,34048
2826,34048
2827,34176
2828,34368
2829,34368
2830,34112
2831,33984
2832,33984
2833,34048
2834,34048
2835,34112
2836,34112
2837,34112
2838,34048
2839,33984
2840,33984
2841,34048
2842,34048
2843,33920
2844,33792
2845,33856
2846,33856
2847,33792
2848,33792
2849,33984
2850,34176
2851,34240
2852,34112
2853,34176
2854,34304
2855,34176
2856,34112
2857,34112
2858,34048
2859,33984
2860,33984
2861,34048
2862,34176
2863,34112
2864,34048
2865,34048
2866,34176
2867,34048
2868,33920
2869,33984
2870,34112
2871,34112
2872,34048
2873,33920
2874,33984
2875,33984
2876,33984
2877,34048
2878,34176
2879,34176
2880,34112
2881,33984
2882,34112
2883,34176
2884,34176
2885,34176
2886,34304
2887,34240
2888,34048
2889,33920
2890,33920
2891,34112
2892,34176
2893,34112
2894,33984
2895,34112
2896,34176
2897,34048
2898,33984
2899,34048
2900,34112
2901,34048
2902,34112
2903,34176
2904,34304
2905,34240
2906,34112
2907,34112
2908,34176
2909,34240
2910,34304
2911,34432
2912,34560
2913,34496
2914,34368
2915,34368
2916,34624
2917,34752
2918,34624
2919,34624
2920,34816
2921,34880
2922,34944
2923,34944
2924,34880
2925,34816
2926,34624
2927,34304
2928,34048
2929,33856
2930,33664
2931,33472
2932,33664
2933,33920
2934,33920
2935,33728
2936,33600
2937,33728
2938,33728
2939,33664
2940,33728
2941,33920
2942,34112
2943,34112
2944,34048
2945,34048
2946,34112
2947,33984
2948,33856
2949,33536
2950,33152
2951,33152
2952,34240
2953,36416
2954,39296
2955,42304
2956,44288
2957,44096
2958,41984
2959,38656
2960,35520
2961,33280
2962,32000
2963,31488
2964,31296
2965,31424
2966,31680
2967,31936
2968,32128
2969,32384
2970,32704
2971,33024
2972,33152
2973,33344
2974,33536
2975,33600
2976,33792
2977,33856
2978,33664
2979,33600
2980,33536
2981,33536
2982,33664
2983,33856
2984,33920
2985,33856
2986,33984
2987,34240
2988,34304
2989,34112
2990,34048
2991,34112
2992,34112
2993,34112
2994,34176
2995,34304
2996,34432
2997,34304
2998,34240
2999,34368
3000,34496
3001,34624
3002,34624
3003,34688
3004,34816
3005,35008
3006,35136
3007,35072
3008,35008
3009,34944
3010,34944
3011,35072
3012,35328
3013,35456
3014,35584
3015,35648
3016,35776
3017,35904
3018,35968
3019,35712
3020,35584
3021,35456
3022,35200
3023,35072
3024,35072
3025,35072
3026,34816
3027,34624
3028,34368
3029,34112
3030,33664
3031,33280
3032,33152
3033,33216
3034,33088
3035,32896
3036,32640
3037,32704
3038,32704
3039,32576
3040,32512
3041,32704
3042,32896
3043,33024
3044,33024
3045,33152
3046,33280
3047,33280
3048,33280
3049,33344
3050,33472
3051,33472
3052,33472
3053,33536
3054,33728
3055,33856
3056,33920
3057,33856
3058,33856
3059,33792
3060,33792
3061,33920
3062,34048
3063,33984
3064,33920
3065,33856
3066,33920
3067,33984
3068,33920
3069,33856
3070,33920
3071,33920
3072,33792
3073,33728
3074,33792
3075,33984
3076,34048
3077,33984
3078,33984
3079,34112
3080,33984
3081,33792
3082,33728
3083,33792
3084,33856
3085,33856
3086,33792
3087,33920
3088,34048
3089,34176
3090,34112
3091,34048
3092,33792
3093,33600
3094,33536
3095,33664
3096,33792
3097,33792
3098,33856
3099,34112
3100,34240
3101,34176
3102,33984
3103,33920
3104,33984
3105,34048
3106,33984
3107,33920
3108,34048
3109,34048
3110,34048
3111,34112
3112,34368
3113,34368
3114,34304
3115,34048
3116,33920
3117,33856
3118,33792
3119,33792
3120,33920
3121,34048
3122,34176
3123,34240
3124,34112
3125,34048
3126,33984
3127,33984
3128,33984
3129,33984
3130,34048
3131,34112
3132,34240
3133,34432
3134,34432
3135,34304
3136,34368
3137,34560
3138,34816
3139,34688
3140,34624
3141,34752
3142,34880
3143,34816
3144,34752
3145,34752
3146,34688
3147,34432
3148,34112
3149,33920
3150,33920
3151,33792
3152,33600
3153,33408
3154,33408
3155,33344
3156,33408
3157,33600
3158,33792
3159,33920
3160,33728
3161,33536
3162,33728
3163,33792
3164,33664
3165,33600
3166,33664
3167,33856
3168,33856
3169,33664
3170,33344
3171,33152
3172,33344
3173,34368
3174,36608
3175,39744
3176,42944
3177,45120
3178,45184
3179,42816
3180,39104
3181,35648
3182,33152
3183,31744
3184,31040
3185,30848
3186,30976
3187,31296
3188,31680
3189,32000
3190,32256
3191,32512
3192,32704
3193,32832
3194,32896
3195,33088
3196,33408
3197,33536
3198,33536
3199,33600
3200,33728
3201,33600
3202,33536
3203,33664
3204,33920
3205,33984
3206,33856
3207,33920
3208,33920
3209,33920
3210,33792
3211,33792
3212,34048
3213,34304
3214,34240
3215,34240
3216,34368
3217,34432
3218,34368
3219,34240
3220,34304
3221,34432
3222,34560
3223,34624
3224,34880
3225,35008
3226,34880
3227,34752
3228,34816
3229,35072
3230,35200
3231,35264
3232,35456
3233,35776
3234,35840
3235,35840
3236,35840
3237,35904
3238,35968
3239,36032
3240,36032
3241,35904
3242,35776
3243,35520
3244,35328
3245,35136
3246,35072
3247,34816
3248,34496
3249,34048
3250,33728
3251,33408
3252,33152
3253,32960
3254,32768
3255,32640
3256,32512
3257,32512
3258,32640
3259,32576
3260,32384
3261,32384
3262,32704
3263,32832
3264,33024
3265,33024
3266,33152
3267,33408
3268,33344
3269,33152
3270,33152
3271,33280
3272,33344
3273,33344
3274,33472
3275,33792
3276,33856
3277,33728
3278,33600
3279,33664
3280,33664
3281,33664
3282,33664
3283,33792
3284,33920
3285,34048
3286,33984
3287,34048
3288,33984
3289,33792
3290,33664
3291,33664
3292,33920
3293,33920
3294,33856
3295,33920
3296,34048
3297,33984
3298,33856
3299,33856
3300,33920
3301,33792
3302,33728
3303,33792
3304,34048
3305,34048
3306,33856
3307,33792
3308,33792
3309,33728
3310,33600
3311,33600
3312,33792
3313,33984
3314,33920
3315,33920
3316,33984
3317,34176
3318,34176
3319,34048
3320,34112
3321,34176
3322,34112
3323,34048
3324,34048
3325,33984
3326,33920
3327,33920
3328,34112
3329,34176
3330,34048
3331,33920
3332,33856
3333,34048
3334,34112
3335,33984
3336,33984
3337,34048
3338,34112
3339,33920
3340,33792
3341,33920
3342,34240
3343,34304
3344,34176
3345,34112
3346,34304
3347,34432
3348,34240
3349,34176
3350,34176
3351,34112
3352,33984
3353,33920
3354,34048
3355,34240
3356,34240
3357,34304
3358,34368
3359,34432
3360,34432
3361,34496
3362,34560
3363,34752
3364,34688
3365,34624
3366,34752
3367,35264
3368,35264
3369,35200
3370,35136
3371,35072
3372,34816
3373,34432
3374,34112
3375,34048
3376,33984
3377,33856
3378,33600
3379,33664
3380,33728
3381,33664
3382,33664
3383,33728
3384,33728
3385,33664
3386,33664
3387,33856
3388,33984
3389,33920
3390,33856
3391,33920
3392,34048
3393,33920
3394,33856
3395,33856
3396,33984
3397,33600
3398,33216
3399,33536
3400,35136
3401,37760
3402,40960
3403,43968
3404,45568
3405,44736
3406,41600
3407,37824
3408,34688
3409,32512
3410,31360
3411,30976
3412,31040
3413,31296
3414,31488
3415,31680
3416,31936
3417,32320
3418,32576
3419,32704
3420,32896
3421,33344
3422,33600
3423,33408
3424,33216
3425,33280
3426,33472
3427,33600
3428,33472
3429,33472
3430,33472
3431,33536
3432,33664
3433,33856
3434,33856
3435,33920
3436,34048
3437,34240
3438,34112
3439,34048
3440,34048
3441,34304
3442,34240
3443,34176
3444,34176
3445,34368
3446,34496
3447,34432
3448,34496
3449,34752
3450,34880
3451,34880
3452,34816
3453,34880
3454,34944
3455,35008
3456,35136
3457,35136
3458,35648
3459,35712
3460,35776
3461,35840
3462,35968
3463,35904
3464,35776
3465,35584
3466,35712
3467,35584
3468,35520
3469,35520
3470,35648
3471,35264
3472,35136
3473,34944
3474,34304
3475,34048
3476,33792
3477,33536
3478,33280
3479,33088
3480,32896
3481,32768
3482,32832
3483,32768
3484,32512
3485,32384
3486,32384
3487,32320
3488,32512
3489,32576
3490,32832
3491,33088
3492,33088
3493,33152
3494,33280
3495,33344
3496,33344
3497,33216
3498,33152
3499,33344
3500,33536
3501,33600
3502,33600
3503,33728
3504,33856
3505,33984
3506,33984
3507,34048
3508,34112
3509,33920
3510,33728
3511,33728
3512,34048
3513,34304
3514,34176
3515,33984
3516,33920
3517,33856
3518,33792
3519,33856
3520,33984
3521,34048
3522,33920
3523,33856
3524,33984
3525,34112
3526,34112
3527,34048
3528,34048
3529,34112
3530,34176
3531,34176
3532,34176
3533,34176
3534,33984
3535,33856
3536,33984
3537,34176
3538,34112
3539,34048
3540,34048
3541,34176
3542,34048
3543,33984
3544,33984
3545,34112
3546,34176
3547,34112
3548,34112
3549,34304
3550,34560
3551,34432
3552,34240
3553,34112
3554,34176
3555,34048
3556,33984
3557,34112
3558,34368
3559,34368
3560,34368
3561,34240
3562,34176
3563,34112
3564,34048
3565,34048
3566,34176
3567,34176
3568,34176
3569,34240
3570,34304
3571,34240
3572,34048
3573,34048
3574,34240
3575,34240
3576,34112
3577,34048
3578,33984
3579,34112
3580,34176
3581,34240
3582,34304
3583,34368
3584,34368
3585,34368
3586,34368
3587,34432
3588,34496
3589,34560
3590,34752
3591,34752
3592,34624
3593,34496
3594,34624
3595,35072
3596,35392
3597,35264
3598,35136
3599,35136
3600,35008
3601,34688
3602,34496
3603,34304
3604,34176
3605,33984
3606,33792
3607,33728
3608,33856
3609,33856
3610,33664
3611,33664
3612,33792
3613,33856
3614,33792
3615,33792
3616,33920
3617,34112
3618,34176
3619,34176
3620,34048
3621,33984
3622,33856
3623,33728
3624,33728
3625,33600
3626,33280
3627,33280
3628,34048
3629,35840
3630,38400
3631,41472
3632,44096
3633,44992
3634,43328
3635,40064
3636,36800
3637,34176
3638,32448
3639,31424
3640,31040
3641,31232
3642,31552
3643,31808
3644,32064
3645,32384
3646,32640
3647,32704
3648,32768
3649,32960
3650,33216
3651,33408
3652,33600
3653,33728
3654,33856
3655,33856
3656,33920
3657,33984
3658,34048
3659,33984
3660,33984
3661,34048
3662,34112
3663,34176
3664,34048
3665,33920
3666,33984
3667,34048
3668,34048
3669,34112
3670,34304
3671,34496
3672,34560
3673,34560
3674,34624
3675,34624
3676,34624
3677,34688
3678,34816
3679,34880
3680,34816
3681,34752
3682,34944
3683,35200
3684,35264
3685,35264
3686,35200
3687,35264
3688,35456
3689,35456
3690,35456
3691,35648
3692,35840
3693,35840
3694,35776
3695,35840
3696,35968
3697,35840
3698,35712
3699,35584
3700,35584
3701,35392
3702,35072
3703,34688
3704,34368
3705,34112
3706,33792
3707,33728
3708,33664
3709,33280
3710,32896
3711,32768
3712,32704
3713,32576
3714,32576
3715,32768
3716,32960
3717,32960
3718,32896
3719,32896
3720,33088
3721,33216
3722,33280
3723,33280
3724,33344
3725,33408
3726,33472
3727,33536
3728,33600
3729,33728
3730,33856
3731,33920
3732,33792
3733,33728
3734,33728
3735,33600
3736,33600
3737,33728
3738,33728
3739,33664
3740,33664
3741,33856
3742,33920
3743,33856
3744,33856
3745,34048
3746,34176
3747,34112
3748,34112
3749,34048
3750,34048
3751,33856
3752,33728
3753,33728
3754,33856
3755,33920
3756,33984
3757,34176
3758,34176
3759,33984
3760,33728
3761,33664
3762,33920
3763,33920
3764,33792
3765,33728
3766,33920
3767,34048
3768,33920
3769,33728
3770,33856
3771,33984
3772,33920
3773,33792
3774,33728
3775,33856
3776,33920
3777,33856
3778,33856
3779,33920
3780,33984
3781,33984
3782,34048
3783,34240
3784,34112
3785,33984
3786,33856
3787,33920
3788,34112
3789,34176
3790,34240
3791,34432
3792,34624
3793,34624
3794,34560
3795,34368
3796,34368
3797,34496
3798,34560
3799,34624
3800,34880
3801,35072
3802,35008
3803,34816
3804,34688
3805,34432
3806,34112
3807,33856
3808,33792
3809,33664
3810,33472
3811,33408
3812,33472
3813,33664
3814,33664
3815,33600
3816,33536
3817,33536
3818,33536
3819,33600
3820,33536
3821,33664
3822,33728
3823,33792
3824,33856
3825,33920
3826,33792
3827,33728
3828,33664
3829,33472
3830,33152
3831,32960
3832,33728
3833,35648
3834,38400
3835,41600
3836,44224
3837,45120
3838,43520
3839,40064
3840,36544
3841,33792
3842,32128
3843,31232
3844,30848
3845,30976
3846,31360
3847,31680
3848,31936
3849,32192
3850,32576
3851,32832
3852,32960
3853,33152
3854,33472
3855,33600
3856,33472
3857,33408
3858,33472
3859,33600
3860,33728
3861,33792
3862,33792
3863,33920
3864,33856
3865,33728
3866,33728
3867,33984
3868,34048
3869,34176
3870,34176
3871,34368
3872,34368
3873,34176
3874,33984
3875,34112
3876,34240
3877,34368
3878,34368
3879,34432
3880,34496
3881,34560
3882,34688
3883,34816
3884,34816
3885,34752
3886,34816
3887,35008
3888,35200
3889,35264
3890,35328
3891,35520
3892,35712
3893,35840
3894,35840
3895,35840
3896,35904
3897,35840
3898,35712
3899,35712
3900,35776
3901,35712
3902,35584
3903,35520
3904,35456
3905,35200
3906,34880
3907,34496
3908,34112
3909,33728
3910,33344
3911,33152
3912,33216
3913,33024
3914,32768
3915,32640
3916,32704
3917,32704
3918,32512
3919,32384
3920,32384
3921,32640
3922,32896
3923,32960
3924,32960
3925,33088
3926,33216
3927,33152
3928,33088
3929,33152
3930,33344
3931,33536
3932,33600
3933,33600
3934,33600
3935,33536
3936,33536
3937,33664
3938,33792
3939,33856
3940,33792
3941,33792
3942,33920
3943,33920
3944,33792
3945,33792
3946,33856
3947,33984
3948,33984
3949,34112
3950,34176
3951,34112
3952,33856
3953,33728
3954,33792
3955,33792
3956,33728
3957,33792
3958,34048
3959,34176
3960,34176
3961,34112
3962,33984
3963,33920
3964,33728
3965,33600
3966,33728
3967,34048
3968,34048
3969,33856
3970,33728
3971,33856
3972,33856
3973,33792
3974,33728
3975,33856
3976,33984
3977,33856
3978,33856
3979,33920
3980,34048
3981,34048
3982,33984
3983,33920
3984,33920
3985,33792
3986,33728
3987,33920
3988,34112
3989,34176
3990,34112
3991,34304
3992,34368
3993,34112
3994,33920
3995,33856
3996,34048
3997,34048
3998,33984
3999,34048
4000,34176
4001,34176
4002,34048
4003,33984
4004,34048
4005,34112
4006,34048
4007,34112
4008,34240
4009,34176
4010,34048
4011,33920
4012,33920
4013,34048
4014,34112
4015,34176
4016,34240
4017,34496
4018,34752
4019,34752
4020,34432
4021,34368
4022,34368
4023,34304
4024,34304
4025,34496
4026,34624
4027,34688
4028,34624
4029,34816
4030,35008
4031,34880
4032,34688
4033,34560
4034,34368
4035,34112
4036,33856
4037,33664
4038,33664
4039,33536
4040,33536
4041,33600
4042,33728
4043,33856
4044,33856
4045,33664
4046,33600
4047,33664
4048,33664
4049,33728
4050,33792
4051,33856
4052,33920
4053,33792
4054,33856
4055,33856
4056,33664
4057,33344
4058,33152
4059,33088
4060,33280
4061,34496
4062,36928
4063,40128
4064,43264
4065,45248
4066,45056
4067,42560
4068,38912
4069,35520
4070,33024
4071,31680
4072,31168
4073,30976
4074,31232
4075,31616
4076,31936
4077,32128
4078,32384
4079,32704
4080,32832
4081,32896
4082,32896
4083,33088
4084,33344
4085,33472
4086,33600
4087,33600
4088,33664
4089,33664
4090,33664
4091,33664
4092,33792
4093,33792
4094,33792
4095,33792
4096,33984
4097,34112
4098,34048
4099,34112
4100,34240
4101,34240
4102,34240
4103,34176
4104,34176
4105,34176
4106,34176
4107,34176
4108,34368
4109,34624
4110,34752
4111,34752
4112,34816
4113,34944
4114,35008
4115,35008
4116,35072
4117,35200
4118,35200
4119,35264
4120,35392
4121,35648
4122,35968
4123,35968
4124,35904
4125,35840
4126,35840
4127,35776
4128,35776
4129,35840
4130,36032
4131,36032
4132,35776
4133,35584
4134,35328
4135,34944
4136,34496
4137,34112
4138,33984
4139,33792
4140,33472
4141,33216
4142,33088
4143,32960
4144,32640
4145,32448
4146,32512
4147,32640
4148,32640
4149,32576
4150,32640
4151,32768
4152,32832
4153,32896
4154,32960
4155,33088
4156,33088
4157,33216
4158,33408
4159,33664
4160,33600
4161,33344
4162,33216
4163,33344
4164,33472
4165,33536
4166,33536
4167,33600
4168,33728
4169,33728
4170,33792
4171,33920
4172,33984
4173,33856
4174,33792
4175,33984
4176,34176
4177,33984
4178,33792
4179,33792
4180,33920
4181,33984
4182,33984
4183,33920
4184,34048
4185,33920
4186,33664
4187,33600
4188,33664
4189,33728
4190,33792
4191,33792
4192,33920
4193,33984
4194,33920
4195,33984
4196,34048
4197,33984
4198,33856
4199,33728
4200,33664
4201,33728
4202,33792
4203,33856
4204,33792
4205,33920
4206,33920
4207,33920
4208,33984
4209,34112
4210,34112
4211,34112
4212,34048
4213,33984
4214,33856
4215,33728
4216,33792
4217,33920
4218,34048
4219,34112
4220,34048
4221,34048
4222,34112
4223,34112
4224,34048
4225,33984
4226,33984
4227,33920
4228,33856
4229,33920
4230,34112
4231,34176
4232,34112
4233,34176
4234,34240
4235,34176
4236,34176
4237,34048
4238,34048
4239,34048
4240,33920
4241,33920
4242,33920
4243,33984
4244,34112
4245,34176
4246,34112
4247,34048
4248,33984
4249,33984
4250,34048
4251,34176
4252,34112
4253,34048
4254,34112
4255,34304
4256,34368
4257,34368
4258,34496
4259,34816
4260,34816
4261,34560
4262,34432
4263,34496
4264,34496
4265,34560
4266,34624
4267,34752
4268,34880
4269,34880
4270,34816
4271,34944
4272,34880
4273,34688
4274,34432
4275,34112
4276,33920
4277,33664
4278,33536
4279,33472
4280,33600
4281,33600
4282,33536
4283,33664
4284,33856
4285,33792
4286,33728
4287,33728
4288,33728
4289,33792
4290,33728
4291,33600
4292,33728
4293,33984
4294,33920
4295,33728
4296,33536
4297,33408
4298,33216
4299,33280
4300,34240
4301,36352
4302,39168
4303,42304
4304,44800
4305,45504
4306,43584
4307,39680
4308,36160
4309,33664
4310,32128
4311,31232
4312,30976
4313,31296
4314,31616
4315,31808
4316,32064
4317,32448
4318,32704
4319,32768
4320,32768
4321,33024
4322,33280
4323,33408
4324,33536
4325,33728
4326,33920
4327,33920
4328,33792
4329,33792
4330,33856
4331,33856
4332,33856
4333,34112
4334,34368
4335,34240
4336,33984
4337,33856
4338,33920
4339,34048
4340,34048
4341,34048
4342,34240
4343,34496
4344,34496
4345,34432
4346,34432
4347,34624
4348,34752
4349,34752
4350,34752
4351,34816
4352,34880
4353,34944
4354,35136
4355,35264
4356,35264
4357,35200
4358,35136
4359,35264
4360,35392
4361,35456
4362,35584
4363,35776
4364,35968
4365,35968
4366,36032
4367,36096
4368,36096
4369,35840
4370,35648
4371,35520
4372,35520
4373,35328
4374,35008
4375,34752
4376,34624
4377,34368
4378,33984
4379,33600
4380,33344
4381,33088
4382,32832
4383,32704
4384,32896
4385,32768
4386,32576
4387,32384
4388,32448
4389,32576
4390,32576
4391,32640
4392,32832
4393,33024
4394,33088
4395,33152
4396,33280
4397,33408
4398,33408
4399,33472
4400,33600
4401,33792
4402,33792
4403,33664
4404,33664
4405,33728
4406,33856
4407,33856
4408,33856
4409,33984
4410,34176
4411,34368
4412,34176
4413,34048
4414,33984
4415,33856
4416,33792
4417,33856
4418,33856
4419,33792
4420,33728
4421,33792
4422,33984
4423,34112
4424,34112
4425,33984
4426,33984
4427,33984
4428,33920
4429,33856
4430,33920
4431,33984
4432,33920
4433,33984
4434,33984
4435,33984
4436,33920
4437,33920
4438,33856
4439,33856
4440,33920
4441,33984
4442,34048
4443,34112
4444,33856
4445,33728
4446,33728
4447,33984
4448,34048
4449,34048
4450,34048
4451,34112
4452,34048
4453,33920
4454,33792
4455,33920
4456,33984
4457,34048
4458,34112
4459,34176
4460,34048
4461,33920
4462,33856
4463,33984
4464,34112
4465,33984
4466,33984
4467,34048
4468,34176
4469,34112
4470,33920
4471,33856
4472,33920
4473,34048
4474,33984
4475,34048
4476,34304
4477,34496
4478,34368
4479,34304
4480,34304
4481,34432
4482,34496
4483,34496
4484,34496
4485,34496
4486,34624
4487,34688
4488,34816
4489,35008
4490,35008
4491,35008
4492,35008
4493,35008
4494,34752
4495,34368
4496,33984
4497,33792
4498,33600
4499,33472
4500,33472
4501,33536
4502,33600
4503,33664
4504,33728
4505,33856
4506,33920
4507,33984
4508,34112
4509,34112
4510,34048
4511,33920
4512,33856
4513,33792
4514,33856
4515,33920
4516,33984
4517,33984
4518,33856
4519,33472
4520,33216
4521,33472
4522,34944
4523,37248
4524,40128
4525,42880
4526,44224
4527,43328
4528,40512
4529,37312
4530,34752
4531,33024
4532,32000
4533,31616
4534,31552
4535,31808
4536,32000
4537,32192
4538,32448
4539,32832
4540,33024
4541,33088
4542,33216
4543,33472
4544,33664
4545,33600
4546,33664
4547,33856
4548,33920
4549,33920
4550,33856
4551,33856
4552,33920
4553,33856
4554,33984
4555,34048
4556,34048
4557,33920
4558,33920
4559,34048
4560,34240
4561,34240
4562,34176
4563,34240
4564,34368
4565,34368
4566,34432
4567,34624
4568,34624
4569,34560
4570,34560
4571,34496
4572,34624
4573,34816
4574,34944
4575,35200
4576,35328
4577,35200
4578,34944
4579,34944
4580,35072
4581,35328
4582,35520
4583,35712
4584,35840
4585,35904
4586,35840
4587,35712
4588,35712
4589,35776
4590,35712
4591,35584
4592,35520
4593,35328
4594,35136
4595,34944
4596,34816
4597,34496
4598,34112
4599,33664
4600,33344
4601,33280
4602,33216
4603,33024
4604,32832
4605,32640
4606,32640
4607,32576
4608,32576
4609,32640
4610,32832
4611,32960
4612,32896
4613,32960
4614,33088
4615,33088
4616,33088
4617,33088
4618,33280
4619,33408
4620,33472
4621,33408
4622,33408
4623,33408
4624,33344
4625,33344
4626,33600
4627,33792
4628,33792
4629,33728
4630,33728
4631,33792
4632,33728
4633,33728
4634,33856
4635,34048
4636,33920
4637,33792
4638,33792
4639,33856
4640,33856
4641,33856
4642,33856
4643,33984
4644,33984
4645,33920
4646,33856
4647,33920
4648,33984
4649,33920
4650,33728
4651,33792
4652,33856
4653,33792
4654,33792
4655,33984
4656,34176
4657,33920
4658,33728
4659,33664
4660,33792
4661,33984
4662,33984
4663,33920
4664,33984
4665,33984
4666,33856
4667,33728
4668,33792
4669,33984
4670,34048
4671,33920
4672,33856
4673,33920
4674,33920
4675,33856
4676,33920
4677,33920
4678,33920
4679,33856
4680,33920
4681,34176
4682,34112
4683,33984
4684,33920
4685,34048
4686,34112
4687,34048
4688,33984
4689,34240
4690,34368
4691,34368
4692,34368
4693,34496
4694,34496
4695,34496
4696,34432
4697,34624
4698,34816
4699,34880
4700,34880
4701,34880
4702,34944
4703,34880
4704,34688
4705,34496
4706,34304
4707,34048
4708,33856
4709,33792
4710,33664
4711,33536
4712,33472
4713,33536
4714,33728
4715,33792
4716,33856
4717,33856
4718,33920
4719,33920
4720,33856
4721,33856
4722,34048
4723,34176
4724,34112
4725,33920
4726,33792
4727,33728
4728,33536
4729,33280
4730,33216
4731,33664
4732,34880
4733,36800
4734,39872
4735,43136
4736,45056
4737,44736
4738,42112
4739,38528
4740,35392
4741,33024
4742,31680
4743,31232
4744,31232
4745,31296
4746,31424
4747,31680
4748,32064
4749,32384
4750,32640
4751,32896
4752,33024
4753,33088
4754,33088
4755,33280
4756,33536
4757,33728
4758,33728
4759,33728
4760,33856
4761,33856
4762,33664
4763,33536
4764,33664
4765,33792
4766,33792
4767,33792
4768,33920
4769,34048
4770,33984
4771,34048
4772,34112
4773,34240
4774,34240
4775,34304
4776,34368
4777,34560
4778,34560
4779,34560
4780,34624
4781,34624
4782,34560
4783,34560
4784,34752
4785,34944
4786,35008
4787,35072
4788,35136
4789,35328
4790,35392
4791,35456
4792,35584
4793,35712
4794,35712
4795,35648
4796,35712
4797,35776
4798,35904
4799,35904
4800,35968
4801,36032
4802,35968
4803,35712
4804,35392
4805,35072
4806,34880
4807,34624
4808,34304
4809,33856
4810,33600
4811,33280
4812,32960
4813,32768
4814,32768
4815,32832
4816,32640
4817,32448
4818,32448
4819,32576
4820,32576
4821,32576
4822,32704
4823,32768
4824,32768
4825,32832
4826,32960
4827,33216
4828,33344
4829,33344
4830,33344
4831,33408
4832,33408
4833,33472
4834,33408
4835,33472
4836,33472
4837,33472
4838,33536
4839,33792
4840,33920
4841,33984
4842,33920
4843,33920
4844,33920
4845,33920
4846,33920
4847,33856
4848,33856
4849,33856
4850,33856
4851,34048
4852,34176
4853,33984
4854,33792
4855,33856
4856,34112
4857,34112
4858,33920
4859,33856
4860,33856
4861,33856
4862,33728
4863,33728
4864,33856
4865,33984
4866,33920
4867,33920
4868,34048
4869,34048
4870,33920
4871,33856
4872,33856
4873,33920
4874,33920
4875,33920
4876,34048
4877,34304
4878,34304
4879,34176
4880,34048
4881,33984
4882,33920
4883,33920
4884,33984
4885,34176
4886,34304
4887,34176
4888,34048
4889,34048
4890,33984
4891,33920
4892,33920
4893,33984
4894,34112
4895,34112
4896,34048
4897,34176
4898,34240
4899,34112
4900,34048
4901,34112
4902,34304
4903,34304
4904,34240
4905,34176
4906,34112
4907,34048
4908,33984
4909,34048
4910,34304
4911,34368
4912,34176
4913,34112
4914,34112
4915,34176
4916,34112
4917,33984
4918,34112
4919,34304
4920,34304
4921,34240
4922,34432
4923,34688
4924,34624
4925,34432
4926,34432
4927,34624
4928,34688
4929,34688
4930,34688
4931,34752
4932,34816
4933,34816
4934,34688
4935,34560
4936,34496
4937,34240
4938,33984
4939,33920
4940,33984
4941,33792
4942,33600
4943,33408
4944,33408
4945,33408
4946,33472
4947,33536
4948,33728
4949,33856
4950,33792
4951,33856
4952,33984
4953,34048
4954,33984
4955,33856
4956,33920
4957,33920
4958,33792
4959,33536
4960,33344
4961,33344
4962,33920
4963,35648
4964,38272
4965,41472
4966,44224
4967,45312
4968,43904
4969,40896
4970,37248
4971,34176
4972,31872
4973,31232
4974,31040
4975,31104
4976,31424
4977,31808
4978,32064
4979,32192
4980,32320
4981,32576
4982,32832
4983,33024
4984,33216
4985,33472
4986,33664
4987,33536
4988,33344
4989,33280
4990,33408
4991,33472
4992,33472
4993,33600
4994,33920
4995,34048
4996,33984
4997,33856
4998,33856
4999,33920
5000,34112
5001,34112
5002,34176
5003,34112
5004,34112
5005,34240
5006,34368
5007,34496
5008,34560
5009,34496
5010,34496
5011,34624
5012,34560
5013,34560
5014,34688
5015,34880
5016,35008
5017,35072
5018,35072
5019,35264
5020,35264
5021,35328
5022,35456
5023,35776
5024,35904
5025,35840
5026,35840
5027,35968
5028,36032
5029,35904
5030,35840
5031,35840
5032,35904
5033,35840
5034,35712
5035,35456
5036,35200
5037,34816
5038,34432
5039,34112
5040,33856
5041,33472
5042,33152
5043,32960
5044,32960
5045,32768
5046,32576
5047,32576
5048,32640
5049,32576
5050,32448
5051,32384
5052,32448
5053,32576
5054,32704
5055,32832
5056,33088
5057,33216
5058,33152
5059,33216
5060,33280
5061,33408
5062,33472
5063,33600
5064,33728
5065,33792
5066,33664
5067,33536
5068,33472
5069,33600
5070,33664
5071,33728
5072,33792
5073,33984
5074,34048
5075,33856
5076,33792
5077,33856
5078,33856
5079,33792
5080,33728
5081,33856
5082,34176
5083,34240
5084,34112
5085,34112
5086,34112
5087,34048
5088,33920
5089,33920
5090,33984
5091,34048
5092,33984
5093,34048
5094,34112
5095,33984
5096,33728
5097,33600
5098,33728
5099,33920
5100,33984
5101,33920
5102,33920
5103,33920
5104,33856
5105,33792
5106,33920
5107,34048
5108,33984
5109,33984
5110,34048
5111,34240
5112,34112
5113,33984
5114,34112
5115,34368
5116,34432
5117,34304
5118,34112
5119,34112
5120,34176
5121,34048
5122,33984
5123,33984
5124,33984
5125,33984
5126,33984
5127,34048
5128,34176
5129,34112
5130,34048
5131,34112
5132,34240
5133,34176
5134,33984
5135,33920
5136,33984
5137,34048
5138,34112
5139,34176
5140,34240
5141,34112
5142,33920
5143,33856
5144,34176
5145,34304
5146,34112
5147,33920
5148,34048
5149,34112
5150,34048
5151,34048
5152,34176
5153,34176
5154,34176
5155,34176
5156,34112
5157,34112
5158,34048
5159,34048
5160,34240
5161,34624
5162,34816
5163,34816
5164,34752
5165,34752
5166,34624
5167,34496
5168,34496
5169,34688
5170,34816
5171,35008
5172,35136
5173,35072
5174,34944
5175,34688
5176,34496
5177,34368
5178,34176
5179,33920
5180,33664
5181,33600
5182,33728
5183,33728
5184,33600
5185,33664
5186,33856
5187,33792
5188,33728
5189,33728
5190,33856
5191,33856
5192,33792
5193,33856
5194,33984
5195,34048
5196,33984
5197,33920
5198,33920
5199,33792
5200,33536
5201,33280
5202,33728
5203,35328
5204,37824
5205,41024
5206,44160
5207,45696
5208,44672
5209,41600
5210,37888
5211,34880
5212,32256
5213,31360
5214,30912
5215,30976
5216,31168
5217,31360
5218,31680
5219,32128
5220,32448
5221,32576
5222,32704
5223,33088
5224,33344
5225,33472
5226,33600
5227,33664
5228,33856
5229,33792
5230,33664
5231,33600
5232,33728
5233,33728
5234,33664
5235,33856
5236,34176
5237,34176
5238,33920
5239,33856
5240,33984
5241,34048
5242,34176
5243,34240
5244,34368
5245,34432
5246,34368
5247,34368
5248,34432
5249,34560
5250,34688
5251,34752
5252,34880
5253,34816
5254,34816
5255,34944
5256,35008
5257,34944
5258,35008
5259,35264
5260,35392
5261,35520
5262,35648
5263,35712
5264,35840
5265,35904
5266,35904
5267,35968
5268,36032
5269,35968
5270,35840
5271,35712
5272,35712
5273,35712
5274,35520
5275,35264
5276,35072
5277,35136
5278,34880
5279,34304
5280,33728
5281,33472
5282,33088
5283,32640
5284,32448
5285,32512
5286,32576
5287,32576
5288,32640
5289,32768
5290,32768
5291,32640
5292,32704
5293,32832
5294,33024
5295,33024
5296,33024
5297,33152
5298,33344
5299,33344
5300,33408
5301,33664
5302,33600
5303,33472
5304,33408
5305,33536
5306,33728
5307,33792
5308,33728
5309,33664
5310,33920
5311,33920
5312,33792
5313,33728
5314,33792
5315,33792
5316,33856
5317,33792
5318,33920
5319,33984
5320,33984
5321,34048
5322,33984
5323,33920
5324,33792
5325,33664
5326,33664
5327,33792
5328,33792
5329,33792
5330,33856
5331,33984
5332,34112
5333,34176
5334,34112
5335,33984
5336,33856
5337,33728
5338,33728
5339,33920
5340,33984
5341,33920
5342,33920
5343,34048
5344,34112
5345,34048
5346,34112
5347,34048
5348,34112
5349,34048
5350,33920
5351,33856
5352,33984
5353,33984
5354,33920
5355,33984
5356,34176
5357,34176
5358,33984
5359,33920
5360,34048
5361,34112
5362,34048
5363,33984
5364,34048
5365,34176
5366,34176
5367,34112
5368,34112
5369,34176
5370,34112
5371,33984
5372,34048
5373,34176
5374,34176
5375,34112
5376,34240
5377,34368
5378,34432
5379,34432
5380,34432
5381,34624
5382,34560
5383,34368
5384,34432
5385,34560
5386,34624
5387,34624
5388,34816
5389,34944
5390,35136
5391,35200
5392,35136
5393,34752
5394,34496
5395,34048
5396,33728
5397,33600
5398,33664
5399,33664
5400,33536
5401,33536
5402,33600
5403,33600
5404,33664
5405,33728
5406,33920
5407,33856
5408,33920
5409,33856
5410,33856
5411,33920
5412,33728
5413,33600
5414,33664
5415,33792
5416,33728
5417,33600
5418,33408
5419,33152
5420,33344
5421,35200
5422,35392
5423,39296
5424,42368
5425,44416
5426,44288
5427,41856
5428,38464
5429,35328
5430,33152
5431,32000
5432,31488
5433,31232
5434,31296
5435,31552
5436,31872
5437,32192
5438,32384
5439,32576
5440,32832
5441,32960
5442,33088
5443,33216
5444,33408
5445,33472
5446,33600
5447,33664
5448,33728
5449,33792
5450,33728
5451,33856
5452,33856
5453,33920
5454,33920
5455,33984
5456,34240
5457,34240
5458,34112
5459,34048
5460,34048
5461,34112
5462,34112
5463,34368
5464,34368
5465,34304
5466,34176
5467,34112
5468,34240
5469,34560
5470,34624
5471,34624
5472,34688
5473,34816
5474,34816
5475,34752
5476,34880
5477,35200
5478,35392
5479,35392
5480,35392
5481,35520
5482,35712
5483,35776
5484,35840
5485,36032
5486,36224
5487,35968
5488,35776
5489,35840
5490,35840
5491,35648
5492,35456
5493,35392
5494,35264
5495,34816
5496,34432
5497,34240
5498,34240
5499,33984
5500,33536
5501,33216
5502,33152
5503,32960
5504,32768
5505,32640
5506,32640
5507,32768
5508,32768
5509,32704
5510,32832
5511,32896
5512,32832
5513,32832
5514,33088
5515,33472
5516,33536
5517,33344
5518,33216
5519,33280
5520,33280
5521,33216
5522,33344
5523,33600
5524,33664
5525,33600
5526,33664
5527,33792
5528,33792
5529,33664
5530,33664
5531,33856
5532,33984
5533,33984
5534,33920
5535,33920
5536,34048
5537,34048
5538,33984
5539,33856
5540,33792
5541,33728
5542,33600
5543,33600
5544,33920
5545,34048
5546,33856
5547,33792
5548,33856
5549,33920
5550,33920
5551,33856
5552,33856
5553,33856
5554,33792
5555,33792
5556,33856
5557,33856
5558,33792
5559,33856
5560,33920
5561,33920
5562,33856
5563,33856
5564,33984
5565,34048
5566,33984
5567,33920
5568,33920
5569,34048
5570,34048
5571,33920
5572,33856
5573,33920
5574,33920
5575,33920
5576,33920
5577,33984
5578,33984
5579,33920
5580,33856
5581,33920
5582,33920
5583,33856
5584,33728
5585,33856
5586,34048
5587,34112
5588,34112
5589,34112
5590,34112
5591,34048
5592,34048
5593,34176
5594,34496
5595,34752
5596,34624
5597,34496
5598,34496
5599,34496
5600,34432
5601,34432
5602,34688
5603,34944
5604,34880
5605,34816
5606,34752
5607,34752
5608,34624
5609,34304
5610,34048
5611,33856
5612,33600
5613,33408
5614,33472
5615,33600
5616,33600
5617,33600
5618,33600
5619,33664
5620,33664
5621,33536
5622,33536
5623,33792
5624,34048
5625,34048
5626,33920
5627,33984
5628,34048
5629,33984
5630,33792
5631,33600
5632,33280
5633,33024
5634,33280
5635,34496
5636,36736
5637,39808
5638,43008
5639,45248
5640,45376
5641,42880
5642,39104
5643,35712
5644,33408
5645,32128
5646,31360
5647,31040
5648,31232
5649,31424
5650,31552
5651,31680
5652,32064
5653,32512
5654,32896
5655,33088
5656,33216
5657,33216
5658,33280
5659,33280
5660,33408
5661,33536
5662,33600
5663,33600
5664,33728
5665,33920
5666,33920
5667,33792
5668,33856
5669,34048
5670,33984
5671,33920
5672,33920
5673,34112
5674,34048
5675,33920
5676,33856
5677,34048
5678,34240
5679,34304
5680,34304
5681,34432
5682,34560
5683,34560
5684,34560
5685,34624
5686,34752
5687,34752
5688,34880
5689,35072
5690,35264
5691,35328
5692,35328
5693,35392
5694,35584
5695,35648
5696,35648
5697,35776
5698,35904
5699,36032
5700,36032
5701,35968
5702,36032
5703,36096
5704,35968
5705,35776
5706,35648
5707,35456
5708,35136
5709,34816
5710,34688
5711,34624
5712,34176
5713,33728
5714,33408
5715,33280
5716,32960
5717,32512
5718,32448
5719,32512
5720,32576
5721,32576
5722,32448
5723,32512
5724,32576
5725,32576
5726,32576
5727,32768
5728,32960
5729,33152
5730,33408
5731,33408
5732,33408
5733,33280
5734,33216
5735,33408
5736,33600
5737,33472
5738,33344
5739,33472
5740,33792
5741,33856
5742,33664
5743,33472
5744,33536
5745,33536
5746,33472
5747,33472
5748,33728
5749,33984
5750,33984
5751,33920
5752,33984
5753,34176
5754,34048
5755,33984
5756,33984
5757,34048
5758,34048
5759,34048
5760,33984
5761,33984
5762,33920
5763,33728
5764,33856
5765,34112
5766,34048
5767,33920
5768,33792
5769,33792
5770,33792
5771,33792
5772,33728
5773,33792
5774,33856
5775,33856
5776,33920
5777,34048
5778,34112
5779,34048
5780,33920
5781,33920
5782,34048
5783,33984
5784,33920
5785,33920
5786,34112
5787,34176
5788,34176
5789,34240
5790,34304
5791,34240
5792,34112
5793,33984
5794,33984
5795,34112
5796,34112
5797,34048
5798,34176
5799,34368
5800,34176
5801,34112
5802,34112
5803,34240
5804,34112
5805,33984
5806,33984
5807,34112
5808,34176
5809,34176
5810,34112
5811,34176
5812,34304
5813,34432
5814,34560
5815,34624
5816,34624
5817,34624
5818,34624
5819,34816
5820,35072
5821,35008
5822,34880
5823,34880
5824,35008
5825,34944
5826,34752
5827,34624
5828,34624
5829,34240
5830,33728
5831,33472
5832,33536
5833,33536
5834,33536
5835,33664
5836,33920
5837,33856
5838,33664
5839,33472
5840,33536
5841,33536
5842,33536
5843,33600
5844,33728
5845,33920
5846,33920
5847,33856
5848,33920
5849,33984
5850,33728
5851,33280
5852,33024
5853,33280
5854,34496
5855,36736
5856,39936
5857,43328
5858,45440
5859,45184
5860,42496
5861,38848
5862,35456
5863,33024
5864,31680
5865,31104
5866,30976
5867,31104
5868,31424
5869,31808
5870,32192
5871,32384
5872,32448
5873,32576
5874,32768
5875,32832
5876,32960
5877,33152
5878,33472
5879,33600
5880,33536
5881,33600
5882,33792
5883,33792
5884,33920
5885,34048
5886,34048
5887,33984
5888,33920
5889,33856
5890,33856
5891,33920
5892,33984
5893,33984
5894,34048
5895,34112
5896,34176
5897,34240
5898,34304
5899,34368
5900,34304
5901,34304
5902,34368
5903,34624
5904,34752
5905,34752
5906,34688
5907,34944
5908,35072
5909,35200
5910,35392
5911,35648
5912,35584
5913,35456
5914,35456
5915,35712
5916,35840
5917,35776
5918,35776
5919,35904
5920,36160
5921,36032
5922,35840
5923,35840
5924,35904
5925,35776
5926,35584
5927,35328
5928,35200
5929,34816
5930,34368
5931,33984
5932,33792
5933,33472
5934,33152
5935,32960
5936,32960
5937,33088
5938,33024
5939,32960
5940,32768
5941,32576
5942,32384
5943,32384
5944,32576
5945,32768
5946,32832
5947,32960
5948,33216
5949,33408
5950,33344
5951,33280
5952,33280
5953,33408
5954,33472
5955,33600
5956,33728
5957,33856
5958,33920
5959,33856
5960,33792
5961,33856
5962,33920
5963,33856
5964,33920
5965,33984
5966,33984
5967,33856
5968,33792
5969,33856
5970,34112
5971,34048
5972,33792
5973,33664
5974,33792
5975,33920
5976,33984
5977,33984
5978,33984
5979,33920
5980,33792
5981,33856
5982,33984
5983,33920
5984,33792
5985,33792
5986,33920
5987,34112
5988,34240
5989,34240
5990,34112
5991,33984
5992,33856
5993,33792
5994,33792
5995,33856
5996,33792
5997,33728
5998,33856
5999,34048
6000,34176
6001,34112
6002,34048
6003,34048
6004,33984
6005,33856
6006,33856
6007,34112
6008,34112
6009,34048
6010,34112
6011,34240
6012,34240
6013,34112
6014,34112
6015,34112
6016,34240
6017,34176
6018,34112
6019,34176
6020,34240
6021,34176
6022,34048
6023,34112
6024,34176
6025,34176
6026,34176
6027,34240
6028,34304
6029,34240
6030,34176
6031,34176
6032,34240
6033,34240
6034,34176
6035,34240
6036,34432
6037,34688
6038,34688
6039,34688
6040,34688
6041,34688
6042,34816
6043,34880
6044,34944
6045,35008
6046,35136
6047,35072
6048,34944
6049,34944
6050,34752
6051,34496
6052,34240
6053,34048
6054,33856
6055,33600
6056,33472
6057,33600
6058,33792
6059,33920
6060,33920
6061,33920
6062,33984
6063,33920
6064,33792
6065,33728
6066,33792
6067,33792
6068,33792
6069,33856
6070,33984
6071,34048
6072,33920
6073,33728
6074,33600
6075,33280
6076,33088
6077,33664
6078,35392
6079,38080
6080,41152
6081,43840
6082,44864
6083,43456
6084,40192
6085,36736
6086,34048
6087,32384
6088,31424
6089,31040
6090,31168
6091,31552
6092,31808
6093,32000
6094,32256
6095,32640
6096,32896
6097,33088
6098,33088
6099,33216
6100,33408
6101,33408
6102,33408
6103,33600
6104,33664
6105,33728
6106,33728
6107,33856
6108,34048
6109,33984
6110,33856
6111,33792
6112,33856
6113,33920
6114,34048
6115,34112
6116,34176
6117,34304
6118,34368
6119,34432
6120,34432
6121,34304
6122,34240
6123,34240
6124,34496
6125,34560
6126,34432
6127,34432
6128,34560
6129,34688
6130,34688
6131,34688
6132,34880
6133,35072
6134,35072
6135,35136
6136,35328
6137,35584
6138,35648
6139,35584
6140,35584
6141,35712
6142,35712
6143,35712
6144,35712
6145,35840
6146,35776
6147,35712
6148,35648
6149,35584
6150,35520
6151,35328
6152,35136
6153,34944
6154,34752
6155,34176
6156,33600
6157,33216
6158,33024
6159,32832
6160,32640
6161,32640
6162,32704
6163,32640
6164,32576
6165,32704
6166,32960
6167,33152
6168,33088
6169,33088
6170,33152
6171,33152
6172,33152
6173,33216
6174,33344
6175,33472
6176,33472
6177,33536
6178,33792
6179,33856
6180,33792
6181,33664
6182,33600
6183,33664
6184,33664
6185,33536
6186,33536
6187,33600
6188,33664
6189,33664
6190,33856
6191,34112
6192,34112
6193,34048
6194,33920
6195,33984
6196,33984
6197,33920
6198,34048
6199,34176
6200,34112
6201,33920
6202,33728
6203,33920
6204,34048
6205,34048
6206,33920
6207,33984
6208,34176
6209,33984
6210,33728
6211,33728
6212,33856
6213,33728
6214,33664
6215,33728
6216,33984
6217,34176
6218,33984
6219,33792
6220,33856
6221,33856
6222,33856
6223,33856
6224,34048
6225,34048
6226,33984
6227,33920
6228,33984
6229,34112
6230,34176
6231,34304
6232,34368
6233,34368
6234,34304
6235,34368
6236,34432
6237,34496
6238,34560
6239,34688
6240,34880
6241,34944
6242,34752
6243,34432
6244,34240
6245,34112
6246,33920
6247,33664
6248,33472
6249,33408
6250,33536
6251,33536
6252,33408
6253,33472
6254,33600
6255,33600
6256,33536
6257,33472
6258,33536
6259,33600
6260,33536
6261,33600
6262,33792
6263,33792
6264,33792
6265,33792
6266,33856
6267,33920
6268,33856
6269,33792
6270,33600
6271,33408
6272,33664
6273,34816
6274,37184
6275,40320
6276,43200
6277,44736
6278,44032
6279,41280
6280,37760
6281,34688
6282,32704
6283,31680
6284,31232
6285,31232
6286,31424
6287,31744
6288,31936
6289,32192
6290,32512
6291,32768
6292,32960
6293,33152
6294,33344
6295,33536
6296,33472
6297,33408
6298,33664
6299,34048
6300,34048
6301,33664
6302,33536
6303,33728
6304,33792
6305,33792
6306,33792
6307,33984
6308,34176
6309,34240
6310,34240
6311,34240
6312,34368
6313,34432
6314,34432
6315,34432
6316,34560
6317,34560
6318,34368
6319,34368
6320,34496
6321,34752
6322,34752
6323,34752
6324,34944
6325,35008
6326,34944
6327,34880
6328,35008
6329,35264
6330,35392
6331,35456
6332,35584
6333,35712
6334,35776
6335,35776
6336,35840
6337,35904
6338,35968
6339,36032
6340,35968
6341,35840
6342,35776
6343,35648
6344,35456
6345,35328
6346,35136
6347,34752
6348,34368
6349,33984
6350,33792
6351,33472
6352,33024
6353,32832
6354,32832
6355,32640
6356,32448
6357,32320
6358,32448
6359,32512
6360,32512
6361,32576
6362,32832
6363,32896
6364,32832
6365,32768
6366,32960
6367,33152
6368,33152
6369,33152
6370,33216
6371,33280
6372,33280
6373,33344
6374,33472
6375,33728
6376,33856
6377,33920
6378,33856
6379,33792
6380,33728
6381,33600
6382,33600
6383,33728
6384,33792
6385,33728
6386,33728
6387,33920
6388,33856
6389,33792
6390,33792
6391,33856
6392,33984
6393,33920
6394,33920
6395,34048
6396,34048
6397,33984
6398,34048
6399,34112
6400,34176
6401,34112
6402,34048
6403,33984
6404,33984
6405,34048
6406,33984
6407,33792
6408,33664
6409,33536
6410,33408
6411,33536
6412,33856
6413,33984
6414,33856
6415,33856
6416,33984
6417,33984
6418,33920
6419,33856
6420,33984
6421,34048
6422,33984
6423,34048
6424,34176
6425,34368
6426,34368
6427,34304
6428,34240
6429,34368
6430,34496
6431,34304
6432,33920
6433,33792
6434,33664
6435,33600
6436,33664
6437,33856
6438,33920
6439,33856
6440,33920
6441,34048
6442,34176
6443,34240
6444,34368
6445,34496
6446,34560
6447,34560
6448,34560
6449,34624
6450,34688
6451,34624
6452,34560
6453,34688
6454,34816
6455,34816
6456,34752
6457,34688
6458,34880
6459,34752
6460,34368
6461,33920
6462,33728
6463,33600
6464,33472
6465,33408
6466,33472
6467,33472
6468,33472
6469,33536
6470,33728
6471,33792
6472,33600
6473,33536
6474,33664
6475,33920
6476,33984
6477,34048
6478,34176
6479,34240
6480,34240
6481,34048
6482,33728
6483,33536
6484,33472
6485,33472
6486,34112
6487,36096
6488,38912
6489,41984
6490,44544
6491,45376
6492,43648
6493,40128
6494,36480
6495,33728
6496,32000
6497,31168
6498,30912
6499,30912
6500,31232
6501,31552
6502,31936
6503,32256
6504,32576
6505,32768
6506,32960
6507,33088
6508,33280
6509,33344
6510,33408
6511,33472
6512,33600
6513,33792
6514,33792
6515,33728
6516,33856
6517,34048
6518,33984
6519,33984
6520,34048
6521,34048
6522,33984
6523,33856
6524,33728
6525,33856
6526,33984
6527,34112
6528,34176
6529,34368
6530,34304
6531,34240
6532,34368
6533,34624
6534,34816
6535,34816
6536,34944
6537,35264
6538,35456
6539,35392
6540,35136
6541,35072
6542,35200
6543,35264
6544,35328
6545,35456
6546,35648
6547,35712
6548,35840
6549,36032
6550,36224
6551,36160
6552,36096
6553,36096
6554,36096
6555,36032
6556,35840
6557,35648
6558,35520
6559,35328
6560,35008
6561,34624
6562,34368
6563,34240
6564,33792
6565,33472
6566,33408
6567,33344
6568,33024
6569,32768
6570,32704
6571,32832
6572,32704
6573,32384
6574,32192
6575,32384
6576,32512
6577,32704
6578,33088
6579,33536
6580,33664
6581,33664
6582,33664
6583,33664
6584,33600
6585,33408
6586,33344
6587,33536
6588,33664
6589,33600
6590,33472
6591,33536
6592,33728
6593,33792
6594,33792
6595,33792
6596,33792
6597,33792
6598,33728
6599,33792
6600,33920
6601,33984
6602,33984
6603,34048
6604,34240
6605,34368
6606,34176
6607,33984
6608,33856
6609,33856
6610,33920
6611,33920
6612,33856
6613,33792
6614,33728
6615,33792
6616,33856
6617,33856
6618,33856
6619,33856
6620,33984
6621,34112
6622,34112
6623,33984
6624,33856
6625,33920
6626,33984
6627,34112
6628,34112
6629,33856
6630,33664
6631,33664
6632,33792
6633,34112
6634,34240
6635,34176
6636,33984
6637,33856
6638,33856
6639,33856
6640,34048
6641,34112
6642,34048
6643,33920
6644,33856
6645,33920
6646,34048
6647,34048
6648,34112
6649,34176
6650,34304
6651,34112
6652,33920
6653,33856
6654,33920
6655,33920
6656,33856
6657,33920
6658,34048
6659,34176
6660,34176
6661,34112
6662,34112
6663,34176
6664,34240
6665,34432
6666,34432
6667,34496
6668,34368
6669,34304
6670,34240
6671,34432
6672,34496
6673,34496
6674,34688
6675,35008
6676,35008
6677,34880
6678,34752
6679,34688
6680,34560
6681,34304
6682,34048
6683,33920
6684,33856
6685,33792
6686,33728
6687,33792
6688,33728
6689,33600
6690,33536
6691,33664
6692,33728
6693,33664
6694,33664
6695,33792
6696,33984
6697,34048
6698,33984
6699,33984
6700,34112
6701,33984
6702,33792
6703,33600
6704,33536
6705,33472
6706,33408
6707,33984
6708,35904
6709,38528
6710,41536
6711,44224
6712,45248
6713,43968
6714,40640
6715,36992
6716,34112
6717,32256
6718,31232
6719,30912
6720,30976
6721,31424
6722,31808
6723,31936
6724,32128
6725,32448
6726,32704
6727,32960
6728,33216
6729,33536
6730,33728
6731,33792
6732,33728
6733,33728
6734,33728
6735,33600
6736,33536
6737,33600
6738,33792
6739,33856
6740,33984
6741,34112
6742,34176
6743,34048
6744,33856
6745,33792
6746,33984
6747,34176
6748,34368
6749,34560
6750,34688
6751,34496
6752,34368
6753,34304
6754,34368
6755,34368
6756,34368
6757,34432
6758,34688
6759,34880
6760,34880
6761,34944
6762,35136
6763,35328
6764,35456
6765,35456
6766,35584
6767,35776
6768,35840
6769,35776
6770,35840
6771,36032
6772,36096
6773,36096
6774,36032
6775,36032
6776,35968
6777,35776
6778,35584
6779,35520
6780,35392
6781,35136
6782,34816
6783,34560
6784,34368
6785,33984
6786,33600
6787,33344
6788,33216
6789,33088
6790,32960
6791,32832
6792,32896
6793,32768
6794,32704
6795,32704
6796,32896
6797,33024
6798,32896
6799,32896
6800,33152
6801,33280
6802,33088
6803,33024
6804,33152
6805,33408
6806,33408
6807,33408
6808,33472
6809,33664
6810,33728
6811,33728
6812,33856
6813,33856
6814,33728
6815,33728
6816,33664
6817,33728
6818,33600
6819,33472
6820,33600
6821,33856
6822,33920
6823,33792
6824,33856
6825,34240
6826,34368
6827,34240
6828,34048
6829,34048
6830,34048
6831,33984
6832,33856
6833,33728
6834,33728
6835,33664
6836,33728
6837,33920
6838,34112
6839,34112
6840,34048
6841,34048
6842,34240
6843,34176
6844,34048
6845,34112
6846,34240
6847,34240
6848,34112
6849,34048
6850,34176
6851,34176
6852,34112
6853,33984
6854,33984
6855,33984
6856,33920
6857,33920
6858,33984
6859,34176
6860,34240
6861,34112
6862,34048
6863,33984
6864,33856
6865,33792
6866,33856
6867,34048
6868,34176
6869,34176
6870,34240
6871,34304
6872,34304
6873,34240
6874,34304
6875,34368
6876,34368
6877,34496
6878,34688
6879,35136
6880,35520
6881,35456
6882,35264
6883,35456
6884,35264
6885,34752
6886,34176
6887,33664
6888,33728
6889,33728
6890,33664
6891,33664
6892,33728
6893,33728
6894,33728
6895,33728
6896,33856
6897,33920
6898,33920
6899,33856
6900,33920
6901,33984
6902,33920
6903,33856
6904,33920
6905,33984
6906,33920
6907,33856
6908,33856
6909,33728
6910,33408
6911,33088
6912,33536
6913,35136
6914,37632
6915,40704
6916,43648
6917,45248
6918,44288
6919,41280
6920,37632
6921,34496
6922,32384
6923,31168
6924,30720
6925,31040
6926,31808
6927,32064
6928,31936
6929,31872
6930,31936
6931,31936
6932,32192
6933,32512
6934,32768
6935,32832
6936,32896
6937,33088
6938,33344
6939,33408
6940,33344
6941,33472
6942,33664
6943,33728
6944,33792
6945,33856
6946,33984
6947,34048
6948,34048
6949,34112
6950,34176
6951,34240
6952,34176
6953,34048
6954,34176
6955,34304
6956,34432
6957,34432
6958,34432
6959,34496
6960,34496
6961,34496
6962,34560
6963,34752
6964,34880
6965,34880
6966,35008
6967,35200
6968,35456
6969,35520
6970,35584
6971,35584
6972,35648
6973,35712
6974,35712
6975,35776
6976,35968
6977,35968
6978,35968
6979,35968
6980,36032
6981,35904
6982,35712
6983,35648
6984,35584
6985,35328
6986,35072
6987,34816
6988,34624
6989,34240
6990,33920
6991,33600
6992,33344
6993,33152
6994,32832
6995,32640
6996,32640
6997,32832
6998,33216
6999,33280
7000,32960
7001,32640
7002,32512
7003,32448
7004,32448
7005,32640
7006,32704
7007,32704
7008,32896
7009,33088
7010,33088
7011,33024
7012,33024
7013,33280
7014,33472
7015,33600
7016,33728
7017,33984
7018,34048
7019,33984
7020,33856
7021,33856
7022,33984
7023,33920
7024,33856
7025,33984
7026,34048
7027,33792
7028,33664
7029,33728
7030,33920
7031,33984
7032,33920
7033,33792
7034,33920
7035,33920
7036,33984
7037,33984
7038,34112
7039,34368
7040,34368
7041,34176
7042,34112
7043,34048
7044,33920
7045,33856
7046,33856
7047,33920
7048,33856
7049,33920
7050,34048
7051,34176
7052,34176
7053,34112
7054,34048
7055,34112
7056,33984
7057,33856
7058,33920
7059,34112
7060,34176
7061,34112
7062,34112
7063,34112
7064,34048
7065,33984
7066,33984
7067,33984
7068,34048
7069,34112
7070,34240
7071,34240
7072,34176
7073,34112
7074,34112
7075,34112
7076,34048
7077,34176
7078,34304
7079,34304
7080,34176
7081,34048
7082,33984
7083,34176
7084,34304
7085,34176
7086,33984
7087,33920
7088,33920
7089,33920
7090,33920
7091,34048
7092,34176
7093,34176
7094,34240
7095,34304
7096,34624
7097,34560
7098,34432
7099,34432
7100,34496
7101,34560
7102,34624
7103,34944
7104,35200
7105,35264
7106,35200
7107,35008
7108,34944
7109,34560
7110,34176
7111,33856
7112,33728
7113,33728
7114,33664
7115,33536
7116,33536
7117,33600
7118,33600
7119,33600
7120,33728
7121,33984
7122,33920
7123,33856
7124,33920
7125,34048
7126,33984
7127,33856
7128,33792
7129,33984
7130,33920
7131,33984
7132,33856
7133,33728
7134,33408
7135,33088
7136,33344
7137,34688
7138,37056
7139,40128
7140,43264
7141,45312
7142,45056
7143,44800
7144,38720
7145,35520
7146,33280
7147,31808
7148,31680
7149,31040
7150,31168
7151,31296
7152,31488
7153,31744
7154,32192
7155,32512
7156,32704
7157,32896
7158,33152
7159,33344
7160,33472
7161,33536
7162,33664
7163,33792
7164,33728
7165,33728
7166,33792
7167,33856
7168,33792
7169,33920
7170,34112
7171,34176
7172,34112
7173,33984
7174,34048
7175,34176
7176,34176
7177,34176
7178,34112
7179,34176
7180,34304
7181,34176
7182,34240
7183,34240
7184,34496
7185,34624
7186,34496
7187,34624
7188,34688
7189,34752
7190,34880
7191,35072
7192,35264
7193,35328
7194,35328
7195,35520
7196,35712
7197,35776
7198,35840
7199,35776
7200,36096
7201,36096
7202,36096
7203,36032
7204,36096
7205,36032
7206,35904
7207,35776
7208,35776
7209,35712
7210,35456
7211,35136
7212,34880
7213,34624
7214,34560
7215,33984
7216,33728
7217,33600
7218,33280
7219,32896
7220,32704
7221,32704
7222,32704
7223,32576
7224,32640
7225,32832
7226,32896
7227,32768
7228,32704
7229,32896
7230,33024
7231,33024
7232,33024
7233,33152
7234,33280
7235,33216
7236,33280
7237,33472
7238,33664
7239,33728
7240,33664
7241,33728
7242,33792
7243,33792
7244,33728
7245,33792
7246,33984
7247,33984
7248,34048
7249,33984
7250,33984
7251,33920
7252,33792
7253,33792
7254,33920
7255,33984
7256,33856
7257,33856
7258,33984
7259,34048
7260,33920
7261,33856
7262,33920
7263,34048
7264,33984
7265,33856
7266,33856
7267,33920
7268,33920
7269,33856
7270,33920
7271,33984
7272,33920
7273,33856
7274,33856
7275,33984
7276,34112
7277,34112
7278,34048
7279,34048
7280,33984
7281,33920
7282,33984
7283,34048
7284,34048
7285,33984
7286,33984
7287,33984
7288,33984
7289,33856
7290,33856
7291,33920
7292,34112
7293,34176
7294,34048
7295,33920
7296,33984
7297,33984
7298,33984
7299,34048
7300,34240
7301,34240
7302,34176
7303,34048
7304,34112
7305,34176
7306,34176
7307,34240
7308,34304
7309,34368
7310,34240
7311,34112
7312,34112
7313,34240
7314,34176
7315,34112
7316,34112
7317,34240
7318,34240
7319,34112
7320,34048
7321,34112
7322,34176
7323,34112
7324,34176
7325,34304
7326,34368
7327,34368
7328,34496
7329,34816
7330,34944
7331,35008
7332,35008
7333,35136
7334,35200
7335,35072
7336,34944
7337,34816
7338,34624
7339,34304
7340,33920
7341,33856
7342,33856
7343,33728
7344,33600
7345,33600
7346,33664
7347,33600
7348,33600
7349,33600
7350,33728
7351,33792
7352,33792
7353,33792
7354,33920
7355,33984
7356,33984
7357,33856
7358,33984
7359,34048
7360,33856
7361,33600
7362,33280
7363,33280
7364,33856
7365,35392
7366,37888
7367,40960
7368,43584
7369,44544
7370,43136
7371,40128
7372,36928
7373,34176
7374,32384
7375,31488
7376,31232
7377,31296
7378,31488
7379,31936
7380,32256
7381,32448
7382,32640
7383,32768
7384,33024
7385,33088
7386,33152
7387,33280
7388,33536
7389,33664
7390,33728
7391,33920
7392,34112
7393,34048
7394,33920
7395,33856
7396,33920
7397,33984
7398,33984
7399,34048
7400,34176
7401,34240
7402,34176
7403,34176
7404,34304
7405,34304
7406,34240
7407,34240
7408,34368
7409,34496
7410,34496
7411,34496
7412,34560
7413,34688
7414,34688
7415,34624
7416,34624
7417,34880
7418,35072
7419,35136
7420,35072
7421,35136
7422,35136
7423,35136
7424,35264
7425,35520
7426,35648
7427,35648
7428,35648
7429,35712
7430,35840
7431,35776
7432,35648
7433,35648
7434,35648
7435,35456
7436,35328
7437,35328
7438,35264
7439,35008
7440,34560
7441,34240
7442,34048
7443,33856
7444,33536
7445,33344
7446,33344
7447,33152
7448,32832
7449,32640
7450,32640
7451,32704
7452,32768
7453,32704
7454,32704
7455,32832
7456,32832
7457,32832
7458,32960
7459,33088
7460,33152
7461,33216
7462,33280
7463,33280
7464,33472
7465,33472
7466,33536
7467,33664
7468,33728
7469,33600
7470,33536
7471,33664
7472,33856
7473,33984
7474,33920
7475,33792
7476,33792
7477,33664
7478,33600
7479,33728
7480,33856
7481,33856
7482,33856
7483,33856
7484,33920
7485,33920
7486,33920
7487,33920
7488,34048
7489,34048
7490,33984
7491,33856
7492,33856
7493,33792
7494,33728
7495,33664
7496,33792
7497,33920
7498,33920
7499,33792
7500,33856
7501,33920
7502,33856
7503,33856
7504,33792
7505,33920
7506,33920
7507,34048
7508,34176
7509,34176
7510,34112
7511,33984
7512,33984
7513,34112
7514,34112
7515,34112
7516,34112
7517,34304
7518,34368
7519,34368
7520,34560
7521,34752
7522,34944
7523,34944
7524,34880
7525,34816
7526,34752
7527,34496
7528,34176
7529,33984
7530,33856
7531,33664
7532,33536
7533,33536
7534,33664
7535,33664
7536,33536
7537,33536
7538,33664
7539,33664
7540,33600
7541,33664
7542,33856
7543,33920
7544,33856
7545,33856
7546,33920
7547,33984
7548,33920
7549,33920
7550,33984
7551,33856
7552,33472
7553,33152
7554,33216
7555,34176
7556,36160
7557,38848
7558,41920
7559,44224
7560,44480
7561,42304
7562,39040
7563,35968
7564,33536
7565,32064
7566,31232
7567,31040
7568,31168
7569,31360
7570,31744
7571,32256
7572,32640
7573,32704
7574,32704
7575,32832
7576,33024
7577,33088
7578,33088
7579,33216
7580,33408
7581,33472
7582,33536
7583,33600
7584,33792
7585,33792
7586,33728
7587,33728
7588,33792
7589,33792
7590,33728
7591,33728
7592,33984
7593,34048
7594,34048
7595,34112
7596,34240
7597,34432
7598,34432
7599,34368
7600,34496
7601,34560
7602,34496
7603,34496
7604,34560
7605,34624
7606,34624
7607,34560
7608,34624
7609,34816
7610,34944
7611,35008
7612,35136
7613,35392
7614,35520
7615,35648
7616,35712
7617,35904
7618,36032
7619,35968
7620,36032
7621,36096
7622,36096
7623,35904
7624,35776
7625,35648
7626,35584
7627,35328
7628,35072
7629,34816
7630,34624
7631,34304
7632,33920
7633,33600
7634,33408
7635,33280
7636,33024
7637,32832
7638,32768
7639,32640
7640,32512
7641,32384
7642,32448
7643,32576
7644,32640
7645,32704
7646,32832
7647,32960
7648,32960
7649,33024
7650,33088
7651,33152
7652,33088
7653,33088
7654,33152
7655,33344
7656,33408
7657,33408
7658,33472
7659,33600
7660,33664
7661,33728
7662,33728
7663,33856
7664,33856
7665,33856
7666,33856
7667,33984
7668,33984
7669,33856
7670,33792
7671,33920
7672,34048
7673,33920
7674,33792
7675,33728
7676,33856
7677,33920
7678,33856
7679,33856
7680,33920
7681,33792
7682,33728
7683,33728
7684,33920
7685,33920
7686,33856
7687,33856
7688,33856
7689,33856
7690,33856
7691,33792
7692,33920
7693,33984
7694,33920
7695,33920
7696,34048
7697,34112
7698,34048
7699,33920
7700,33920
7701,34048
7702,34048
7703,33984
7704,33984
7705,34048
7706,33984
7707,33856
7708,33920
7709,34048
7710,34112
7711,33984
7712,33920
7713,34048
7714,34112
7715,34048
7716,33984
7717,34112
7718,34240
7719,34176
7720,34304
7721,34496
7722,34688
7723,34624
7724,34496
7725,34496
7726,34560
7727,34560
7728,34560
7729,34688
7730,34816
7731,34816
7732,34752
7733,34688
7734,34752
7735,34752
7736,34496
7737,34240
7738,34112
7739,33920
7740,33728
7741,33600
7742,33600
7743,33664
7744,33536
7745,33472
7746,33536
7747,33664
7748,33664
7749,33664
7750,33664
7751,33728
7752,33664
7753,33600
7754,33600
7755,33792
7756,33856
7757,33856
7758,33856
7759,33856
7760,33600
7761,33152
7762,33152
7763,34240
7764,36416
7765,39360
7766,42560
7767,44992
7768,45376
7769,43072
7770,39424
7771,35968
7772,33600
7773,32000
7774,31232
7775,30976
7776,31168
7777,31360
7778,31616
7779,31936
7780,32256
7781,32512
7782,32576
7783,32704
7784,32960
7785,33216
7786,33216
7787,33344
7788,33600
7789,33728
7790,33728
7791,33664
7792,33664
7793,33792
7794,33856
7795,33856
7796,33856
7797,33984
7798,33856
7799,33728
7800,33792
7801,33920
7802,34048
7803,33984
7804,33984
7805,34112
7806,34240
7807,34176
7808,34176
7809,34432
7810,34560
7811,34560
7812,34496
7813,34560
7814,34688
7815,34688
7816,34688
7817,34880
7818,35136
7819,35200
7820,35136
7821,35200
7822,35392
7823,35520
7824,35584
7825,35712
7826,35840
7827,35840
7828,35776
7829,35712
7830,35904
7831,35904
7832,35840
7833,35776
7834,35776
7835,35648
7836,35328
7837,34944
7838,34688
7839,34368
7840,34048
7841,33728
7842,33536
7843,33344
7844,33024
7845,32768
7846,32640
7847,32640
7848,32512
7849,32448
7850,32512
7851,32768
7852,32768
7853,32704
7854,32768
7855,32960
7856,33088
7857,33152
7858,33152
7859,33280
7860,33216
7861,33152
7862,33152
7863,33344
7864,33600
7865,33600
7866,33472
7867,33536
7868,33664
7869,33664
7870,33664
7871,33728
7872,33920
7873,33856
7874,33728
7875,33664
7876,33792
7877,33792
7878,33728
7879,33792
7880,33984
7881,34112
7882,34048
7883,33920
7884,33920
7885,33984
7886,33920
7887,33856
7888,33856
7889,33856
7890,33664
7891,33600
7892,33664
7893,33856
7894,33856
7895,33792
7896,33792
7897,33856
7898,33792
7899,33792
7900,33792
7901,33984
7902,34048
7903,33920
7904,33856
7905,33984
7906,33920
7907,33856
7908,33856
7909,33984
7910,34048
7911,33984
7912,33920
7913,34048
7914,34112
7915,34112
7916,33984
7917,33984
7918,33984
7919,33920
7920,33856
7921,33856
7922,34048
7923,34112
7924,34112
7925,34112
7926,34176
7927,34112
7928,34112
7929,34112
7930,34176
7931,34176
7932,34112
7933,34048
7934,34112
7935,34176
7936,34048
7937,33984
7938,34112
7939,34176
7940,34176
7941,34240
7942,34304
7943,34432
7944,34432
7945,34496
7946,34560
7947,34752
7948,34688
7949,34496
7950,34496
7951,34688
7952,34880
7953,34880
7954,34944
7955,35072
7956,34944
7957,34688
7958,34432
7959,34240
7960,34048
7961,33792
7962,33664
7963,33664
7964,33728
7965,33664
7966,33600
7967,33664
7968,33792
7969,33728
7970,33664
7971,33664
7972,33728
7973,33664
7974,33664
7975,33664
7976,33856
7977,33984
7978,33856
7979,33728
7980,33728
7981,33664
7982,33344
7983,33088
7984,33472
7985,34752
7986,37056
7987,40128
7988,43200
7989,45184
7990,44736
7991,42048
7992,38464
7993,35328
7994,32960
7995,31552
7996,30976
7997,30912
7998,31040
7999,31168
8000,31488
8001,31936
8002,32256
8003,32448
8004,32576
8005,32832
8006,33024
8007,33152
8008,33344
8009,33536
8010,33600
8011,33600
8012,33664
8013,33728
8014,33856
8015,33856
8016,33792
8017,33728
8018,33792
8019,33792
8020,33728
8021,33728
8022,33856
8023,33856
8024,33856
8025,33856
8026,33920
8027,34048
8028,34048
8029,34112
8030,34304
8031,34432
8032,34368
8033,34368
8034,34496
8035,34624
8036,34688
8037,34752
8038,34816
8039,34944
8040,35008
8041,34944
8042,35008
8043,35136
8044,35264
8045,35392
8046,35520
8047,35712
8048,35840
8049,35840
8050,35840
8051,35840
8052,35904
8053,35904
8054,35776
8055,35648
8056,35456
8057,35200
8058,35008
8059,34816
8060,34688
8061,34432
8062,34048
8063,33792
8064,33600
8065,33344
8066,33088
8067,32896
8068,32896
8069,32768
8070,32576
8071,32512
8072,32640
8073,32768
8074,32768
8075,32768
8076,32832
8077,33024
8078,33024
8079,33088
8080,33216
8081,33408
8082,33408
8083,33344
8084,33344
8085,33408
8086,33408
8087,33472
8088,33536
8089,33664
8090,33728
8091,33728
8092,33792
8093,33856
8094,33856
8095,33792
8096,33792
8097,33920
8098,33984
8099,33984
8100,33920
8101,33984
8102,33920
8103,33728
8104,33664
8105,33792
8106,33984
8107,33984
8108,33984
8109,33984
8110,33984
8111,33792
8112,33728
8113,33792
8114,33984
8115,33984
8116,33856
8117,33792
8118,33920
8119,33984
8120,33984
8121,34048
8122,34176
8123,34112
8124,33984
8125,33984
8126,34048
8127,34112
8128,34048
8129,34048
8130,34176
8131,34240
8132,34240
8133,34176
8134,34112
8135,34240
8136,34240
8137,34176
8138,34112
8139,34112
8140,34112
8141,34048
8142,34112
8143,34176
8144,34304
8145,34304
8146,34240
8147,34304
8148,34176
8149,34048
8150,33984
8151,34048
8152,34112
8153,34048
8154,34048
8155,34176
8156,34432
8157,34432
8158,34176
8159,34048
8160,34112
8161,34112
8162,34048
8163,34048
8164,34176
8165,34240
8166,34176
8167,34176
8168,34304
8169,34432
8170,34368
8171,34368
8172,34496
8173,34624
8174,34624
8175,34560
8176,34624
8177,34688
8178,34688
8179,34816
8180,34944
8181,35072
8182,35008
8183,34880
8184,34880
8185,34816
8186,34560
8187,34240
8188,33984
8189,33920
8190,33792
8191,33728
8192,33664
8193,33792
8194,33856
8195,33728
8196,33600
8197,33664
8198,33728
8199,33728
8200,33792
8201,33920
8202,34048
8203,34048
8204,33984
8205,34048
8206,34048
8207,33920
8208,33792
8209,33728
8210,33664
8211,33344
8212,33536
8213,34880
8214,36992
8215,39872
8216,42816
8217,44544
8218,44288
8219,41728
8220,38272
8221,35200
8222,33088
8223,31936
8224,31360
8225,31232
8226,31424
8227,31744
8228,32064
8229,32320
8230,32512
8231,32832
8232,32960
8233,33088
8234,33280
8235,33600
8236,33664
8237,33664
8238,33664
8239,33792
8240,33792
8241,33792
8242,33792
8243,33920
8244,33984
8245,33984
8246,33984
8247,34112
8248,34176
8249,34176
8250,34112
8251,34112
8252,34176
8253,34176
8254,34112
8255,34176
8256,34304
8257,34304
8258,34304
8259,34432
8260,34624
8261,34560
8262,34560
8263,34624
8264,34752
8265,34880
8266,34880
8267,34880
8268,35072
8269,35200
8270,35136
8271,35072
8272,35200
8273,35392
8274,35456
8275,35456
8276,35520
8277,35648
8278,35648
8279,35648
8280,35776
8281,35904
8282,35840
8283,35712
8284,35520
8285,35456
8286,35328
8287,35072
8288,34816
8289,34624
8290,34304
8291,33856
8292,33536
8293,33408
8294,33344
8295,33152
8296,32960
8297,32896
8298,32896
8299,32832
8300,32704
8301,32768
8302,32896
8303,32960
8304,33024
8305,33152
8306,33280
8307,33344
8308,33344
8309,33344
8310,33472
8311,33536
8312,33472
8313,33472
8314,33600
8315,33664
8316,33600
8317,33536
8318,33728
8319,33856
8320,33920
8321,33920
8322,33920
8323,34048
8324,33984
8325,33792
8326,33728
8327,33792
8328,33792
8329,33856
8330,33984
8331,34112
8332,33984
8333,33920
8334,33920
8335,33984
8336,34048
8337,33984
8338,33920
8339,33920
8340,33856
8341,33792
8342,33728
8343,33792
8344,33920
8345,33920
8346,33984
8347,33984
8348,33984
8349,33920
8350,33920
8351,33920
8352,33984
8353,33984
8354,33984
8355,33984
8356,34048
8357,34048
8358,33984
8359,33984
8360,34112
8361,34176
8362,34176
8363,34112
8364,34048
8365,33984
8366,33920
8367,33856
8368,33920
8369,34048
8370,34048
8371,34048
8372,34048
8373,34112
8374,34176
8375,34176
8376,34176
8377,34240
8378,34176
8379,34176
8380,34240
8381,34368
8382,34496
8383,34496
8384,34496
8385,34560
8386,34496
8387,34496
8388,34496
8389,34752
8390,34944
8391,34944
8392,34880
8393,34816
8394,34752
8395,34496
8396,34240
8397,34048
8398,33984
8399,33792
8400,33536
8401,33472
8402,33600
8403,33600
8404,33472
8405,33408
8406,33536
8407,33600
8408,33536
8409,33600
8410,33792
8411,33920
8412,33920
8413,33856
8414,33920
8415,33984
8416,33920
8417,33856
8418,33856
8419,33856
8420,33536
8421,33152
8422,33152
8423,34176
8424,36096
8425,38912
8426,42112
8427,44544
8428,44992
8429,42944
8430,39488
8431,36224
8432,33664
8433,32000
8434,31168
8435,31040
8436,31168
8437,31360
8438,31616
8439,31872
8440,32192
8441,32448
8442,32704
8443,33024
8444,33088
8445,33024
8446,33024
8447,33152
8448,33472
8449,33536
8450,33472
8451,33472
8452,33664
8453,33664
8454,33664
8455,33664
8456,33792
8457,33856
8458,33856
8459,33856
8460,34048
8461,34112
8462,34176
8463,34176
8464,34368
8465,34432
8466,34368
8467,34368
8468,34432
8469,34624
8470,34560
8471,34432
8472,34432
8473,34496
8474,34560
8475,34560
8476,34688
8477,34880
8478,34944
8479,34944
8480,35008
8481,35264
8482,35392
8483,35456
8484,35584
8485,35776
8486,35904
8487,35840
8488,35840
8489,35904
8490,36032
8491,35968
8492,35840
8493,35840
8494,35776
8495,35584
8496,35392
8497,35200
8498,34944
8499,34496
8500,34048
8501,33664
8502,33408
8503,33152
8504,32832
8505,32704
8506,32704
8507,32704
8508,32576
8509,32512
8510,32640
8511,32768
8512,32768
8513,32768
8514,32896
8515,33024
8516,33152
8517,33216
8518,33344
8519,33408
8520,33344
8521,33216
8522,33280
8523,33472
8524,33600
8525,33664
8526,33728
8527,33792
8528,33792
8529,33728
8530,33664
8531,33728
8532,33792
8533,33664
8534,33664
8535,33856
8536,33984
8537,33984
8538,34048
8539,34112
8540,34112
8541,33920
8542,33856
8543,33856
8544,34048
8545,34048
8546,34048
8547,33984
8548,34048
8549,33920
8550,33856
8551,33792
8552,33920
8553,33984
8554,33984
8555,33920
8556,33856
8557,33856
8558,33792
8559,33728
8560,33792
8561,33920
8562,33920
8563,33920
8564,34112
8565,34176
8566,34112
8567,33984
8568,33984
8569,34048
8570,34048
8571,34048
8572,34048
8573,34112
8574,34048
8575,33984
8576,33984
8577,34048
8578,34112
8579,34112
8580,34048
8581,34176
8582,34240
8583,34176
8584,34112
8585,34176
8586,34240
8587,34240
8588,34112
8589,34048
8590,34112
8591,34048
8592,33984
8593,33984
8594,34048
8595,34112
8596,33984
8597,33984
8598,34112
8599,34176
8600,34112
8601,34176
8602,34304
8603,34304
8604,34176
8605,34048
8606,34112
8607,34240
8608,34304
8609,34304
8610,34432
8611,34560
8612,34496
8613,34496
8614,34496
8615,34496
8616,34496
8617,34560
8618,34752
8619,35008
8620,35136
8621,35136
8622,35072
8623,34944
8624,34752
8625,34496
8626,34240
8627,34112
8628,33984
8629,33792
8630,33728
8631,33856
8632,33856
8633,33728
8634,33600
8635,33664
8636,33792
8637,33792
8638,33792
8639,33792
8640,33856
8641,33856
8642,33920
8643,33984
8644,34176
8645,34176
8646,34112
8647,33920
8648,33728
8649,33344
8650,33152
8651,33728
8652,35520
8653,38208
8654,41472
8655,44352
8656,45696
8657,44544
8658,41216
8659,37440
8660,34624
8661,32704
8662,31616
8663,31168
8664,31104
8665,31424
8666,31616
8667,31936
8668,32192
8669,32576
8670,32832
8671,33024
8672,33216
8673,33408
8674,33472
8675,33536
8676,33600
8677,33728
8678,33792
8679,33728
8680,33856
8681,33856
8682,33856
8683,33792
8684,33728
8685,33856
8686,34048
8687,34112
8688,34048
8689,34048
8690,34112
8691,34176
8692,34176
8693,34240
8694,34368
8695,34432
8696,34432
8697,34432
8698,34496
8699,34560
8700,34496
8701,34560
8702,34752
8703,34880
8704,34880
8705,34944
8706,35072
8707,35200
8708,35200
8709,35264
8710,35456
8711,35712
8712,35712
8713,35648
8714,35776
8715,35968
8716,36032
8717,35904
8718,35904
8719,35968
8720,35904
8721,35776
8722,35712
8723,35712
8724,35584
8725,35392
8726,35136
8727,34880
8728,34560
8729,34112
8730,33728
8731,33472
8732,33280
8733,33024
8734,32832
8735,32768
8736,32704
8737,32576
8738,32448
8739,32512
8740,32640
8741,32640
8742,32704
8743,32896
8744,33024
8745,33088
8746,33088
8747,33216
8748,33408
8749,33472
8750,33344
8751,33280
8752,33472
8753,33664
8754,33664
8755,33600
8756,33600
8757,33664
8758,33600
8759,33600
8760,33728
8761,33920
8762,33984
8763,34112
8764,34048
8765,34048
8766,33984
8767,33856
8768,33792
8769,33920
8770,34048
8771,34048
8772,33984
8773,34048
8774,33984
8775,33856
8776,33792
8777,33920
8778,34112
8779,34112
8780,33984
8781,33920
8782,33920
8783,33920
8784,33856
8785,33984
8786,34048
8787,34112
8788,34112
8789,34048
8790,34112
8791,34112
8792,34048
8793,34048
8794,34048
8795,34112
8796,34112
8797,34112
8798,34176
8799,34240
8800,34112
8801,34048
8802,34112
8803,34240
8804,34240
8805,34176
8806,34176
8807,34240
8808,34240
8809,34240
8810,34304
8811,34368
8812,34240
8813,34048
8814,34048
8815,34176
8816,34240
8817,34112
8818,34112
8819,34240
8820,34304
8821,34240
8822,34176
8823,34240
8824,34304
8825,34176
8826,34112
8827,34176
8828,34304
8829,34240
8830,34176
8831,34240
8832,34240
8833,34176
8834,34112
8835,34176
8836,34304
8837,34368
8838,34304
8839,34240
8840,34368
8841,34432
8842,34560
8843,34688
8844,34752
8845,34752
8846,34688
8847,34688
8848,34752
8849,34816
8850,34880
8851,34880
8852,35008
8853,35136
8854,35200
8855,35072
8856,35008
8857,34944
8858,34688
8859,34368
8860,34112
8861,33984
8862,33856
8863,33664
8864,33664
8865,33792
8866,33792
8867,33792
8868,33856
8869,33920
8870,33984
8871,33920
8872,33920
8873,34048
8874,34112
8875,34048
8876,34048
8877,34112
8878,34240
8879,34240
8880,34048
8881,33792
8882,33536
8883,33344
8884,33920
8885,35648
8886,38208
8887,41280
8888,44096
8889,43328
8890,40192
8891,36800
8892,34048
8893,33728
8894,31616
8895,31360
8896,31424
8897,31744
8898,32064
8899,32256
8900,32384
8901,32640
8902,32960
8903,32896
8904,33024
8905,33344
8906,33536
8907,33600
8908,33600
8909,33728
8910,33856
8911,33856
8912,33856
8913,33984
8914,34112
8915,34112
8916,33984
8917,33920
8918,33920
8919,34112
8920,34048
8921,34048
8922,34176
8923,34112
8924,34240
8925,34240
8926,34304
8927,34496
8928,34496
8929,34496
8930,34496
8931,34624
8932,34560
8933,34496
8934,34560
8935,34752
8936,34880
8937,34944
8938,35072
8939,35264
8940,35328
8941,35264
8942,35200
8943,35456
8944,35520
8945,35520
8946,35584
8947,35712
8948,35776
8949,35712
8950,35648
8951,35712
8952,35840
8953,35712
8954,35584
8955,35520
8956,35456
8957,35264
8958,35136
8959,34944
8960,34560
8961,34240
8962,33856
8963,33600
8964,33408
8965,33216
8966,33024
8967,32960
8968,32960
8969,32896
8970,32768
8971,32576
8972,32640
8973,32640
8974,32896
8975,32960
8976,33152
8977,33344
8978,33344
8979,33216
8980,33216
8981,33408
8982,33472
8983,33472
8984,33536
8985,33664
8986,33664
8987,33600
8988,33536
8989,33856
8990,33920
8991,33856
8992,33920
8993,33920
8994,33984
8995,33920
8996,33920
8997,33984
8998,33984
8999,33856
9000,33856
9001,33984
9002,34176
9003,34176
9004,34048
9005,33984
9006,34048
9007,34048
9008,33984
9009,33792
9010,33920
9011,33920
9012,33856
9013,33856
9014,33984
9015,33984
9016,33920
9017,33920
9018,33984
9019,33984
9020,33920
9021,33920
9022,33984
9023,33984
9024,33920
9025,33856
9026,33856
9027,33984
9028,33920
9029,33792
9030,33792
9031,33984
9032,33984
9033,33856
9034,33856
9035,33920
9036,33920
9037,33792
9038,33792
9039,33920
9040,34048
9041,34176
9042,34240
9043,34304
9044,34304
9045,34176
9046,34112
9047,34240
9048,34432
9049,34624
9050,34688
9051,34816
9052,35008
9053,34944
9054,34752
9055,34624
9056,34560
9057,34368
9058,34048
9059,33856
9060,33728
9061,33536
9062,33408
9063,33344
9064,33536
9065,33600
9066,33600
9067,33600
9068,33664
9069,33664
9070,33664
9071,33664
9072,33792
9073,33920
9074,33920
9075,33856
9076,33920
9077,34048
9078,34048
9079,33856
9080,33728
9081,33472
9082,33216
9083,33152
9084,34496
9085,36736
9086,39616
9087,42560
9088,44288
9089,43968
9090,41472
9091,38016
9092,35008
9093,33024
9094,31808
9095,31168
9096,30976
9097,31168
9098,31616
9099,31936
9100,32192
9101,32512
9102,32960
9103,32960
9104,33152
9105,33216
9106,33344
9107,33408
9108,33408
9109,33408
9110,33600
9111,33728
9112,33792
9113,33792
9114,33856
9115,33856
9116,33728
9117,33728
9118,33664
9119,33984
9120,33984
9121,33984
9122,34048
9123,34112
9124,34048
9125,34048
9126,34048
9127,34304
9128,34240
9129,34304
9130,34368
9131,34496
9132,34624
9133,34624
9134,34624
9135,34816
9136,34880
9137,34816
9138,34816
9139,35008
9140,35200
9141,35264
9142,35328
9143,35456
9144,35584
9145,35584
9146,35648
9147,35776
9148,35904
9149,35904
9150,35904
9151,35840
9152,35904
9153,35776
9154,35584
9155,35456
9156,35392
9157,35200
9158,34944
9159,34688
9160,34496
9161,34240
9162,33792
9163,33280
9164,33024
9165,32896
9166,32640
9167,32512
9168,32512
9169,32640
9170,32640
9171,32640
9172,32704
9173,32768
9174,32704
9175,32704
9176,32832
9177,33024
9178,33024
9179,33088
9180,33216
9181,33408
9182,33472
9183,33408
9184,33408
9185,33600
9186,33728
9187,33664
9188,33536
9189,33600
9190,33664
9191,33600
9192,33600
9193,33664
9194,33856
9195,33792
9196,33856
9197,33920
9198,33920
9199,33856
9200,33792
9201,33856
9202,33984
9203,33920
9204,33920
9205,33984
9206,34048
9207,34112
9208,33984
9209,33856
9210,33920
9211,33984
9212,33920
9213,33856
9214,33856
9215,33920
9216,33856
9217,33856
9218,33920
9219,34048
9220,33984
9221,33856
9222,33856
9223,33792
9224,33920
9225,33920
9226,33920
9227,34048
9228,34112
9229,34048
9230,33984
9231,34048
9232,34048
9233,33920
9234,33856
9235,33856
9236,33920
9237,33856
9238,33792
9239,33920
9240,34112
9241,34048
9242,33920
9243,33920
9244,33920
9245,33920
9246,33856
9247,33856
9248,33920
9249,33920
9250,33984
9251,34048
9252,34112
9253,34240
9254,34176
9255,34112
9256,34176
9257,34304
9258,34240
9259,34368
9260,34432
9261,34432
9262,34304
9263,34304
9264,34496
9265,34688
9266,34752
9267,34816
9268,34880
9269,34880
9270,34688
9271,34432
9272,34112
9273,34048
9274,33664
9275,33408
9276,33408
9277,33600
9278,33664
9279,33536
9280,33536
9281,33536
9282,33600
9283,33536
9284,33600
9285,33664
9286,33792
9287,33728
9288,33664
9289,33728
9290,33856
9291,33792
9292,33792
9293,33792
9294,33856
9295,33664
9296,33216
9297,33152
9298,33984
9299,35776
9300,38528
9301,41792
9302,44544
9303,45440
9304,43776
9305,40448
9306,36928
9307,34112
9308,32128
9309,31168
9310,30976
9311,31104
9312,31360
9313,31552
9314,31872
9315,32192
9316,32384
9317,32576
9318,32832
9319,33088
9320,33280
9321,33344
9322,33408
9323,33600
9324,33728
9325,33728
9326,33664
9327,33856
9328,33856
9329,33856
9330,33856
9331,33920
9332,34048
9333,33984
9334,33856
9335,33920
9336,33984
9337,33984
9338,33920
9339,33920
9340,34048
9341,34112
9342,34112
9343,34048
9344,34368
9345,34432
9346,34432
9347,34496
9348,34688
9349,34752
9350,34752
9351,34816
9352,34944
9353,35008
9354,35072
9355,35264
9356,35520
9357,35648
9358,35712
9359,35776
9360,35904
9361,36096
9362,36032
9363,35904
9364,35904
9365,36032
9366,36032
9367,35904
9368,35776
9369,35776
9370,35712
9371,35520
9372,35264
9373,35072
9374,34752
9375,34368
9376,33920
9377,33728
9378,33408
9379,33088
9380,32832
9381,32768
9382,32640
9383,32512
9384,32512
9385,32576
9386,32704
9387,32640
9388,32640
9389,32768
9390,33024
9391,33088
9392,33024
9393,33024
9394,33088
9395,33088
9396,33152
9397,33344
9398,33536
9399,33600
9400,33600
9401,33600
9402,33664
9403,33664
9404,33536
9405,33472
9406,33536
9407,33664
9408,33728
9409,33792
9410,33856
9411,33984
9412,34048
9413,34048
9414,33984
9415,34048
9416,34112
9417,33984
9418,33920
9419,33984
9420,33920
9421,33792
9422,33792
9423,33984
9424,34048
9425,33984
9426,33920
9427,34048
9428,34112
9429,34048
9430,33920
9431,33920
9432,33984
9433,33920
9434,33856
9435,33984
9436,34176
9437,34112
9438,34048
9439,33984
9440,34048
9441,33984
9442,33920
9443,33920
9444,34048
9445,34048
9446,34048
9447,33984
9448,34112
9449,34048
9450,33920
9451,33856
9452,33984
9453,34048
9454,34112
9455,34048
9456,34048
9457,34048
9458,34048
9459,34112
9460,34112
9461,34112
9462,33984
9463,33920
9464,33984
9465,34112
9466,34112
9467,34112
9468,34176
9469,34240
9470,34176
9471,34048
9472,34048
9473,34240
9474,34304
9475,34176
9476,34048
9477,33984
9478,33984
9479,33920
9480,33920
9481,33984
9482,34048
9483,34048
9484,34112
9485,34304
9486,34432
9487,34368
9488,34304
9489,34368
9490,34496
9491,34432
9492,34432
9493,34496
9494,34752
9495,34880
9496,34880
9497,34944
9498,35136
9499,35072
9500,34816
9501,34560
9502,34368
9503,34176
9504,33856
9505,33664
9506,33664
9507,33728
9508,33728
9509,33728
9510,33728
9511,33728
9512,33600
9513,33536
9514,33600
9515,33664
9516,33728
9517,33728
9518,33856
9519,34048
9520,34048
9521,33984
9522,33856
9523,33920
9524,33792
9525,33472
9526,33216
9527,33280
9528,33856
9529,35328
9530,37888
9531,41152
9532,44224
9533,45568
9534,44480
9535,41344
9536,37696
9537,34560
9538,32576
9539,31488
9540,31232
9541,31296
9542,31424
9543,31616
9544,31936
9545,32192
9546,32384
9547,32640
9548,32896
9549,33088
9550,33152
9551,33280
9552,33536
9553,33664
9554,33664
9555,33664
9556,33792
9557,33920
9558,33856
9559,33856
9560,34048
9561,34240
9562,34112
9563,33920
9564,33856
9565,33920
9566,33856
9567,33856
9568,33920
9569,34176
9570,34304
9571,34240
9572,34240
9573,34368
9574,34496
9575,34496
9576,34496
9577,34624
9578,34752
9579,34688
9580,34688
9581,34816
9582,34880
9583,34880
9584,34880
9585,35008
9586,35136
9587,35264
9588,35200
9589,35584
9590,35840
9591,35840
9592,35840
9593,35840
9594,35968
9595,35968
9596,35840
9597,35776
9598,35840
9599,35840
9600,35648
9601,35392
9602,35200
9603,34944
9604,34624
9605,34304
9606,34112
9607,33920
9608,33600
9609,33216
9610,32960
9611,32832
9612,32704
9613,32512
9614,32512
9615,32640
9616,32704
9617,32640
9618,32640
9619,32768
9620,32832
9621,32768
9622,33024
9623,32960
9624,33280
9625,33280
9626,33280
9627,33408
9628,33536
9629,33600
9630,33536
9631,33536
9632,33600
9633,33600
9634,33600
9635,33664
9636,33792
9637,33728
9638,33664
9639,33728
9640,33856
9641,34048
9642,34048
9643,34048
9644,34048
9645,34048
9646,33920
9647,33856
9648,33920
9649,33920
9650,33856
9651,33856
9652,34048
9653,34176
9654,34112
9655,34048
9656,34048
9657,34176
9658,34176
9659,34048
9660,33984
9661,33920
9662,33856
9663,33792
9664,33856
9665,33984
9666,33984
9667,33984
9668,33984
9669,34048
9670,34112
9671,33984
9672,33920
9673,33920
9674,33856
9675,33792
9676,33728
9677,33856
9678,33984
9679,33984
9680,34048
9681,34048
9682,34112
9683,33984
9684,33984
9685,34176
9686,34240
9687,34112
9688,33984
9689,33920
9690,34048
9691,34112
9692,34048
9693,34112
9694,34240
9695,34304
9696,34176
9697,34112
9698,34176
9699,34176
9700,34112
9701,33984
9702,34048
9703,34240
9704,34240
9705,34176
9706,34240
9707,34304
9708,34304
9709,34368
9710,34496
9711,34624
9712,34688
9713,34624
9714,34560
9715,34624
9716,34752
9717,34880
9718,34944
9719,35008
9720,35008
9721,34816
9722,34624
9723,34560
9724,34368
9725,34048
9726,33792
9727,33728
9728,33728
9729,33664
9730,33664
9731,33664
9732,33664
9733,33600
9734,33600
9735,33664
9736,33792
9737,33728
9738,33664
9739,33664
9740,33792
9741,33984
9742,33984
9743,33920
9744,33856
9745,33856
9746,33664
9747,33408
9748,33216
9749,33152
9750,33600
9751,35072
9752,37568
9753,40512
9754,43200
9755,44288
9756,43136
9757,40320
9758,37056
9759,34432
9760,32576
9761,31616
9762,31168
9763,31104
9764,31296
9765,31744
9766,32128
9767,32320
9768,32512
9769,32832
9770,33024
9771,33152
9772,33280
9773,33408
9774,33664
9775,33728
9776,33664
9777,33664
9778,33856
9779,33856
9780,33792
9781,33856
9782,33920
9783,33920
9784,33920
9785,33920
9786,34112
9787,34112
9788,34112
9789,34176
9790,34304
9791,34240
9792,34112
9793,34112
9794,34240
9795,34368
9796,34304
9797,34240
9798,34432
9799,34496
9800,34560
9801,34624
9802,34816
9803,34880
9804,34816
9805,34816
9806,34944
9807,35072
9808,35136
9809,35136
9810,35264
9811,35520
9812,35584
9813,35584
9814,35584
9815,35712
9816,35840
9817,35840
9818,35840
9819,35904
9820,35840
9821,35584
9822,35392
9823,35264
9824,35200
9825,34880
9826,34496
9827,34240
9828,34048
9829,33728
9830,33408
9831,33216
9832,33088
9833,32960
9834,32832
9835,32704
9836,32704
9837,32704
9838,32640
9839,32704
9840,32832
9841,32960
9842,32960
9843,33024
9844,33152
9845,33216
9846,33216
9847,33152
9848,33216
9849,33344
9850,33344
9851,33408
9852,33600
9853,33728
9854,33728
9855,33600
9856,33600
9857,33728
9858,33728
9859,33664
9860,33664
9861,33792
9862,33792
9863,33792
9864,33856
9865,33984
9866,33984
9867,33856
9868,33856
9869,33920
9870,33984
9871,33856
9872,33792
9873,33856
9874,33920
9875,33792
9876,33728
9877,33728
9878,33856
9879,33856
9880,33792
9881,33792
9882,33920
9883,33856
9884,33792
9885,33792
9886,33920
9887,33984
9888,33920
9889,33920
9890,34048
9891,33984
9892,33920
9893,33856
9894,33984
9895,34048
9896,33920
9897,33856
9898,33856
9899,33920
9900,33856
9901,33856
9902,33984
9903,34048
9904,34048
9905,33984
9906,33984
9907,34176
9908,34176
9909,34048
9910,34048
9911,34112
9912,34176
9913,34240
9914,34432
9915,34560
9916,34368
9917,34112
9918,33920
9919,33984
9920,34112
9921,34112
9922,33920
9923,33856
9924,33920
9925,33920
9926,33984
9927,34176
9928,34432
9929,34496
9930,34496
9931,34496
9932,34624
9933,34560
9934,34560
9935,34624
9936,34880
9937,35072
9938,35136
9939,35136
9940,35200
9941,35136
9942,34880
9943,34624
9944,34368
9945,34240
9946,33920
9947,33600
9948,33472
9949,33536
9950,33536
9951,33536
9952,33600
9953,33664
9954,33728
9955,33664
9956,33664
9957,33728
9958,33728
9959,33664
9960,33664
9961,33792
9962,33856
9963,33792
9964,33728
9965,33728
9966,33664
9967,33408
9968,33152
9969,33536
9970,34752
9971,36800
9972,40320
9973,43200
9974,44992
9975,44864
9976,42304
9977,38144
9978,35520
9979,33088
9980,31552
9981,30848
9982,30784
9983,30976
9984,31296
9985,31616
9986,32064
9987,32384
9988,32512
9989,32704
9990,32960
9991,33152
9992,33152
9993,33216
9994,33344
9995,33536
9996,33664
9997,33792
9998,33728
9999,33728
10000,33600
10001,33600
10002,33664
10003,33792
10004,33792
10005,33792
10006,33856
10007,33984
10008,34048
10009,34048
10010,34048
10011,34176
10012,34304
10013,34240
10014,34240
10015,34304
10016,34368
10017,34304
10018,34432
10019,34624
10020,34880
10021,34816
10022,34624
10023,34688
10024,34816
10025,34944
10026,35008
10027,35200
10028,35328
10029,35520
10030,35584
10031,35648
10032,35904
10033,36096
10034,36160
10035,36160
10036,36288
10037,36352
10038,36160
10039,36096
10040,35968
10041,35840
10042,35584
10043,35328
10044,35136
10045,34880
10046,34496
10047,33984
10048,33728
10049,33536
10050,33280
10051,33024
10052,32832
10053,32704
10054,32576
10055,32448
10056,32512
10057,32640
10058,32576
10059,32512
10060,32576
10061,32768
10062,32832
10063,32768
10064,32768
10065,32896
10066,33088
10067,33152
10068,33152
10069,33216
10070,33408
10071,33408
10072,33408
10073,33408
10074,33600
10075,33600
10076,33536
10077,33664
10078,33856
10079,33856
10080,33728
10081,33664
10082,33728
10083,33664
10084,33664
10085,33728
10086,33856
10087,34048
10088,34048
10089,34048
10090,34048
10091,34048
10092,33920
10093,33792
10094,33856
10095,34048
10096,33920
10097,33792
10098,33728
10099,33856
10100,33984
10101,33984
10102,33920
10103,33920
10104,33920
10105,33792
10106,33728
10107,33856
10108,33856
10109,33792
10110,33792
10111,33920
10112,33920
10113,33856
10114,33920
10115,34048
10116,34176
10117,34176
10118,34048
10119,34048
10120,34048
10121,33984
10122,33856
10123,33856
10124,33920
10125,33920
10126,33920
10127,34048
10128,34112
10129,34048
10130,33984
10131,33920
10132,34048
10133,34048
10134,33920
10135,33920
10136,33984
10137,33984
10138,33792
10139,33728
10140,33792
10141,33920
10142,33920
10143,33984
10144,34112
10145,34240
10146,34176
10147,34048
10148,34048
10149,34240
10150,34176
10151,34048
10152,34048
10153,34048
10154,34048
10155,33984
10156,34048
10157,34112
10158,34176
10159,34112
10160,34240
10161,34496
10162,34688
10163,34688
10164,34624
10165,34624
10166,34624
10167,34560
10168,34496
10169,34560
10170,34688
10171,34752
10172,34816
10173,34880
10174,34944
10175,34752
10176,34432
10177,34176
10178,34048
10179,33856
10180,33728
10181,33664
10182,33728
10183,33664
10184,33600
10185,33600
10186,33728
10187,33792
10188,33728
10189,33600
10190,33600
10191,33728
10192,33728
10193,33728
10194,33728
10195,33856
10196,33920
10197,33920
10198,33856
10199,33728
10200,33408
10201,33088
10202,33344
10203,34816
10204,37696
10205,40512
10206,43456
10207,45440
10208,45056
10209,42240
10210,38464
10211,35264
10212,32896
10213,31488
10214,30848
10215,30848
10216,31104
10217,31296
10218,31552
10219,31872
10220,32256
10221,32448
10222,32576
10223,32768
10224,33024
10225,33216
10226,33216
10227,33280
10228,33472
10229,33600
10230,33600
10231,33600
10232,33856
10233,33984
10234,33920
10235,33920
10236,33920
10237,33792
10238,33600
10239,33472
10240,33600
10241,33856
10242,33920
10243,33920
10244,34048
10245,34240
10246,34240
10247,34240
10248,34240
10249,34432
10250,34496
10251,34432
10252,34496
10253,34624
10254,34688
10255,34688
10256,34688
10257,34816
10258,34944
10259,35008
10260,35136
10261,35264
10262,35392
10263,35456
10264,35456
10265,35584
10266,35712
10267,35776
10268,35840
10269,35968
10270,36032
10271,35904
10272,35776
10273,35776
10274,35840
10275,35840
10276,35648
10277,35456
10278,35200
10279,34816
10280,34304
10281,33920
10282,33664
10283,33408
10284,33088
10285,32832
10286,32832
10287,32704
10288,32512
10289,32384
10290,32448
10291,32576
10292,32640
10293,32704
10294,32832
10295,32960
10296,32896
10297,32896
10298,32960
10299,33088
10300,33152
10301,33152
10302,33280
10303,33536
10304,33664
10305,33600
10306,33536
10307,33600
10308,33600
10309,33600
10310,33664
10311,33792
10312,33920
10313,33856
10314,33856
10315,33920
10316,34048
10317,33920
10318,33728
10319,33728
10320,33792
10321,33792
10322,33792
10323,33792
10324,33856
10325,33792
10326,33728
10327,33728
10328,33856
10329,33920
10330,33792
10331,33792
10332,33856
10333,33984
10334,33920
10335,33856
10336,33920
10337,33984
10338,33856
10339,33856
10340,33920
10341,33984
10342,33920
10343,33856
10344,33856
10345,33920
10346,33920
10347,33856
10348,33856
10349,33984
10350,33984
10351,34048
10352,34048
10353,34176
10354,34240
10355,34112
10356,33984
10357,33984
10358,34048
10359,34048
10360,34048
10361,34112
10362,34240
10363,34368
10364,34304
10365,34240
10366,34176
10367,34048
10368,33984
10369,33920
10370,33984
10371,33984
10372,33984
10373,34048
10374,34112
10375,34112
10376,33984
10377,33920
10378,34048
10379,34112
10380,34112
10381,34112
10382,34176
10383,34304
10384,34240
10385,34176
10386,34240
10387,34304
10388,34240
10389,34176
10390,34176
10391,34304
10392,34368
10393,34432
10394,34496
10395,34624
10396,34560
10397,34496
10398,34560
10399,34752
10400,34816
10401,34816
10402,34880
10403,34944
10404,34944
10405,34752
10406,34560
10407,34432
10408,34240
10409,33984
10410,33792
10411,33728
10412,33792
10413,33728
10414,33664
10415,33664
10416,33664
10417,33728
10418,33664
10419,33728
10420,33856
10421,33920
10422,33792
10423,33792
10424,33856
10425,33920
10426,33920
10427,33920
10428,34048
10429,34048
10430,33792
10431,33472
10432,33280
10433,33472
10434,34496
10435,36544
10436,39488
10437,42688
10438,44800
10439,44672
10440,42368
10441,39104
10442,35904
10443,33408
10444,31808
10445,31296
10446,31232
10447,31296
10448,31552
10449,31936
10450,32128
10451,32256
10452,32448
10453,32768
10454,33024
10455,33216
10456,33280
10457,33408
10458,33536
10459,33600
10460,33728
10461,33856
10462,33920
10463,33792
10464,33728
10465,33728
10466,33856
10467,33920
10468,34048
10469,34048
10470,34176
10471,34176
10472,34176
10473,34112
10474,34240
10475,34240
10476,34176
10477,34240
10478,34368
10479,34432
10480,34432
10481,34560
10482,34624
10483,34752
10484,34688
10485,34688
10486,34816
10487,35072
10488,35072
10489,35008
10490,35072
10491,35264
10492,35392
10493,35328
10494,35328
10495,35520
10496,35648
10497,35648
10498,35712
10499,35904
10500,35968
10501,35904
10502,35840
10503,35840
10504,35904
10505,35776
10506,35648
10507,35520
10508,35328
10509,35008
10510,34624
10511,34432
10512,34176
10513,33920
10514,33664
10515,33472
10516,33344
10517,33088
10518,32832
10519,32768
10520,32768
10521,32704
10522,32640
10523,32640
10524,32768
10525,32832
10526,32832
10527,32896
10528,33088
10529,33216
10530,33152
10531,33152
10532,33216
10533,33344
10534,33344
10535,33408
10536,33600
10537,33792
10538,33728
10539,33664
10540,33664
10541,33792
10542,33856
10543,33728
10544,33792
10545,33920
10546,34048
10547,34048
10548,34112
10549,34304
10550,34240
10551,34048
10552,33920
10553,34048
10554,34112
10555,33984
10556,33920
10557,33920
10558,33920
10559,33920
10560,33920
10561,34048
10562,34112
10563,34048
10564,33920
10565,33920
10566,34112
10567,34048
10568,33984
10569,33920
10570,33984
10571,33984
10572,33856
10573,33856
10574,33920
10575,33984
10576,33984
10577,33984
10578,34048
10579,34176
10580,34112
10581,34112
10582,34112
10583,34176
10584,34112
10585,34048
10586,33984
10587,34112
10588,34112
10589,34048
10590,34112
10591,34304
10592,34368
10593,34304
10594,34368
10595,34432
10596,34432
10597,34368
10598,34304
10599,34432
10600,34560
10601,34560
10602,34560
10603,34688
10604,34880
10605,34880
10606,34816
10607,34752
10608,34688
10609,34368
10610,34112
10611,33856
10612,33792
10613,33728
10614,33600
10615,33600
10616,33600
10617,33536
10618,33536
10619,33536
10620,33664
10621,33728
10622,33664
10623,33664
10624,33792
10625,33920
10626,33792
10627,33728
10628,33856
10629,34048
10630,33984
10631,33856
10632,33728
10633,33472
10634,33088
10635,33152
10636,34176
10637,36352
10638,39104
10639,42944
10640,44224
10641,44288
10642,42048
10643,38464
10644,35648
10645,33408
10646,32000
10647,31296
10648,31104
10649,31296
10650,31680
10651,32000
10652,32320
10653,32576
10654,32896
10655,32960
10656,33024
10657,33216
10658,33472
10659,33536
10660,33664
10661,33728
10662,33792
10663,33792
10664,33728
10665,33728
10666,33856
10667,33728
10668,33600
10669,33600
10670,33728
10671,33792
10672,33792
10673,33856
10674,34048
10675,34240
10676,34240
10677,34176
10678,34240
10679,34368
10680,34432
10681,34432
10682,34496
10683,34688
10684,34560
10685,34368
10686,34432
10687,34624
10688,34688
10689,34688
10690,34752
10691,34944
10692,35008
10693,35008
10694,35200
10695,35392
10696,35584
10697,35584
10698,35584
10699,35840
10700,35904
10701,35904
10702,35904
10703,35968
10704,36032
10705,35968
10706,35840
10707,35712
10708,35584
10709,35008
10710,34816
10711,34688
10712,34432
10713,33920
10714,33792
10715,33280
10716,32960
10717,32768
10718,32640
10719,32640
10720,32640
10721,32576
10722,32576
10723,32640
10724,32704
10725,32704
10726,32704
10727,32832
10728,32960
10729,32960
10730,32960
10731,33024
10732,33216
10733,33216
10734,33280
10735,33408
10736,33536
10737,33536
10738,33536
10739,33600
10740,33728
10741,33792
10742,33792
10743,33856
10744,33856
10745,33856
10746,33728
10747,33664
10748,33664
10749,33856
10750,33856
10751,33856
10752,33984
10753,34112
10754,33984
10755,33856
10756,33920
10757,33984
10758,33984
10759,33920
10760,33920
10761,33984
10762,33920
10763,33856
10764,33856
10765,33920
10766,33920
10767,33920
10768,33920
10769,34048
10770,34048
10771,33920
10772,33792
10773,33728
10774,33792
10775,33728
10776,33664
10777,33728
10778,33856
10779,33792
10780,33792
10781,33856
10782,33920
10783,33920
10784,33792
10785,33792
10786,33984
10787,33984
10788,33920
10789,33856
10790,34112
10791,34176
10792,34048
10793,33984
10794,33920
10795,33920
10796,33792
10797,33792
10798,33920
10799,33984
10800,33984
10801,33920
10802,33984
10803,34112
10804,34048
10805,34112
10806,34176
10807,34432
10808,34560
10809,34560
10810,34560
10811,34624
10812,34624
10813,34560
10814,34496
10815,34560
10816,34624
10817,34688
10818,34880
10819,34880
10820,34944
10821,34624
10822,34368
10823,34176
10824,33984
10825,33728
10826,33536
10827,33536
10828,33664
10829,33664
10830,33600
10831,33600
10832,33728
10833,33728
10834,33600
10835,33664
10836,33856
10837,34048
10838,33984
10839,33856
10840,33856
10841,33792
10842,33728
10843,33728
10844,33792
10845,33792
10846,33536
10847,33216
10848,33280
10849,33280
10850,35136
10851,37632
10852,40896
10853,43904
10854,45376
10855,44416
10856,41408
10857,37952
10858,34880
10859,32768
10860,31744
10861,31488
10862,31424
10863,31360
10864,31360
10865,31680
10866,31936
10867,32128
10868,32448
10869,32768
10870,33088
10871,33216
10872,33280
10873,33344
10874,33472
10875,33472
10876,33536
10877,33600
10878,33792
10879,33792
10880,33792
10881,33728
10882,33792
10883,33856
10884,33856
10885,33984
10886,34240
10887,34240
10888,34112
10889,33984
10890,34112
10891,34176
10892,34176
10893,34304
10894,34432
10895,34560
10896,34496
10897,34432
10898,34496
10899,34624
10900,34624
10901,34624
10902,34752
10903,34944
10904,35008
10905,35072
10906,35200
10907,35392
10908,35584
10909,35520
10910,35712
10911,35840
10912,35904
10913,35904
10914,36032
10915,36288
10916,36352
10917,36224
10918,36032
10919,35904
10920,35840
10921,35712
10922,35520
10923,35392
10924,35328
