,ECG
0,-116
1,-117
2,-116
3,-116
4,-116
5,-115
6,-116
7,-116
8,-116
9,-115
10,-112
11,-106
12,-101
13,-101
14,-99
15,-97
16,-97
17,-100
18,-101
19,-102
20,-99
21,-96
22,-94
23,-94
24,-95
25,-103
26,-112
27,-117
28,-121
29,-122
30,-117
31,-111
32,-105
33,-100
34,-97
35,-95
36,-95
37,-98
38,-101
39,-104
40,-107
41,-109
42,-111
43,-110
44,-106
45,-100
46,-91
47,-84
48,-79
49,-76
50,-75
51,-75
52,-74
53,-76
54,-80
55,-84
56,-94
57,-95
58,-95
59,-94
60,-94
61,-92
62,-90
63,-90
64,-90
65,-90
66,-90
67,-91
68,-89
69,-86
70,-84
71,-84
72,-85
73,-87
74,-92
75,-98
76,-100
77,-103
78,-107
79,-103
80,-95
81,-85
82,-76
83,-71
84,-68
85,-73
86,-82
87,-92
88,-99
89,-108
90,-114
91,-107
92,-99
93,-94
94,-90
95,-85
96,-83
97,-83
98,-84
99,-86
100,-92
101,-94
102,-91
103,-88
104,-81
105,-71
106,-64
107,-60
108,-61
109,-65
110,-73
111,-81
112,-87
113,-87
114,-84
115,-83
116,-82
117,-79
118,-81
119,-83
120,-84
121,-86
122,-89
123,-92
124,-97
125,-103
126,-107
127,-101
128,-94
129,-88
130,-82
131,-77
132,-77
133,-79
134,-79
135,-77
136,-74
137,-68
138,-62
139,-57
140,-52
141,-49
142,-45
143,-42
144,-41
145,-42
146,-46
147,-48
148,-47
149,-44
150,-38
151,-31
152,-23
153,-20
154,-20
155,-24
156,-24
157,-25
158,-25
159,-27
160,-25
161,-21
162,-18
163,-16
164,-16
165,-17
166,-20
167,-24
168,-30
169,-38
170,-50
171,-62
172,-69
173,-72
174,-72
175,-68
176,-61
177,-59
178,-59
179,-59
180,-62
181,-66
182,-70
183,-73
184,-76
185,-77
186,-78
187,-77
188,-76
189,-73
190,-69
191,-60
192,-52
193,-47
194,-41
195,-40
196,-40
197,-39
198,-41
199,-47
200,-46
201,-41
202,-30
203,-16
204,1
205,20
206,39
207,58
208,80
209,106
210,137
211,177
212,226
213,274
214,321
215,365
216,398
217,412
218,401
219,361
220,295
221,204
222,98
223,-8
224,-104
225,-186
226,-245
227,-277
228,-289
229,-286
230,-273
231,-253
232,-228
233,-199
234,-169
235,-107
236,-81
237,-58
238,-43
239,-34
240,-32
241,-36
242,-42
243,-48
244,-50
245,-50
246,-47
247,-40
248,-33
249,-29
250,-29
251,-32
252,-37
253,-45
254,-51
255,-51
256,-47
257,-43
258,-36
259,-28
260,-25
261,-26
262,-28
263,-29
264,-30
265,-32
266,-31
267,-29
268,-32
269,-39
270,-46
271,-55
272,-59
273,-57
274,-51
275,-47
276,-43
277,-38
278,-37
279,-37
280,-38
281,-38
282,-35
283,-33
284,-32
285,-28
286,-22
287,-17
288,-12
289,-8
290,-8
291,-9
292,-10
293,-12
294,-13
295,-13
296,-12
297,-11
298,-11
299,-10
300,-8
301,-6
302,-1
303,4
304,10
305,14
306,15
307,14
308,3
309,-4
310,-7
311,-5
312,-2
313,4
314,9
315,10
316,11
317,11
318,11
319,13
320,18
321,20
322,28
323,32
324,31
325,30
326,26
327,20
328,15
329,10
330,7
331,5
332,4
333,5
334,9
335,15
336,18
337,19
338,20
339,19
340,18
341,18
342,17
343,18
344,20
345,17
346,17
347,17
348,22
349,32
350,40
351,49
352,55
353,56
354,53
355,46
356,36
357,26
358,23
359,21
360,20
361,19
362,15
363,12
364,5
365,-3
366,-11
367,-17
368,-23
369,-24
370,-24
371,-25
372,-28
373,-34
374,-39
375,-45
376,-52
377,-57
378,-65
379,-74
380,-89
381,-92
382,-94
383,-95
384,-95
385,-92
386,-93
387,-96
388,-102
389,-108
390,-113
391,-115
392,-116
393,-115
394,-114
395,-115
396,-115
397,-114
398,-115
399,-114
400,-113
401,-109
402,-105
403,-105
404,-109
405,-113
406,-118
407,-123
408,-124
409,-123
410,-121
411,-115
412,-110
413,-105
414,-102
415,-98
416,-98
417,-101
418,-101
419,-102
420,-106
421,-108
422,-110
423,-111
424,-114
425,-118
426,-118
427,-117
428,-117
429,-113
430,-105
431,-98
432,-95
433,-91
434,-89
435,-90
436,-95
437,-102
438,-108
439,-113
440,-113
441,-118
442,-118
443,-113
444,-109
445,-108
446,-105
447,-104
448,-105
449,-107
450,-109
451,-112
452,-113
453,-111
454,-107
455,-103
456,-100
457,-96
458,-95
459,-95
460,-97
461,-99
462,-97
463,-91
464,-87
465,-82
466,-81
467,-85
468,-88
469,-90
470,-90
471,-88
472,-87
473,-87
474,-89
475,-95
476,-105
477,-112
478,-118
479,-123
480,-123
481,-119
482,-116
483,-113
484,-108
485,-104
486,-102
487,-101
488,-102
489,-105
490,-117
491,-125
492,-131
493,-137
494,-140
495,-138
496,-133
497,-129
498,-123
499,-120
500,-121
501,-124
502,-128
503,-131
504,-131
505,-130
506,-125
507,-119
508,-115
509,-114
510,-113
511,-110
512,-108
513,-103
514,-100
515,-95
516,-94
517,-95
518,-94
519,-93
520,-94
521,-94
522,-96
523,-95
524,-95
525,-94
526,-96
527,-98
528,-101
529,-103
530,-103
531,-102
532,-99
533,-94
534,-88
535,-83
536,-83
537,-82
538,-81
539,-79
540,-79
541,-79
542,-78
543,-79
544,-80
545,-80
546,-81
547,-82
548,-84
549,-84
550,-85
551,-89
552,-92
553,-92
554,-89
555,-85
556,-80
557,-75
558,-71
559,-66
560,-63
561,-58
562,-54
563,-54
564,-57
565,-61
566,-66
567,-69
568,-67
569,-61
570,-54
571,-49
572,-48
573,-48
574,-52
575,-61
576,-69
577,-73
578,-75
579,-71
580,-65
581,-60
582,-60
583,-55
584,-53
585,-52
586,-54
587,-59
588,-64
589,-69
590,-72
591,-73
592,-70
593,-65
594,-59
595,-53
596,-49
597,-48
598,-48
599,-57
600,-63
601,-64
602,-63
603,-62
604,-56
605,-48
606,-41
607,-38
608,-35
609,-31
610,-28
611,-27
612,-25
613,-23
614,-21
615,-21
616,-21
617,-20
618,-18
619,-18
620,-14
621,-10
622,-6
623,-4
624,-7
625,-11
626,-17
627,-22
628,-31
629,-39
630,-47
631,-54
632,-56
633,-55
634,-55
635,-58
636,-62
637,-65
638,-66
639,-70
640,-73
641,-74
642,-74
643,-72
644,-71
645,-74
646,-76
647,-76
648,-75
649,-73
650,-71
651,-72
652,-70
653,-67
654,-64
655,-58
656,-50
657,-43
658,-32
659,-19
660,-6
661,8
662,30
663,59
664,91
665,128
666,169
667,215
668,257
669,294
670,332
671,386
672,385
673,358
674,300
675,216
676,108
677,-5
678,-110
679,-202
680,-274
681,-313
682,-325
683,-320
684,-304
685,-281
686,-252
687,-219
688,-189
689,-158
690,-125
691,-98
692,-78
693,-61
694,-50
695,-47
696,-51
697,-56
698,-62
699,-69
700,-75
701,-79
702,-82
703,-80
704,-78
705,-76
706,-70
707,-67
708,-66
709,-68
710,-71
711,-72
712,-76
713,-80
714,-79
715,-76
716,-74
717,-69
718,-62
719,-56
720,-54
721,-53
722,-52
723,-52
724,-53
725,-53
726,-54
727,-54
728,-53
729,-55
730,-57
731,-58
732,-57
733,-53
734,-46
735,-37
736,-29
737,-25
738,-24
739,-25
740,-27
741,-31
742,-36
743,-48
744,-51
745,-52
746,-54
747,-52
748,-46
749,-36
750,-27
751,-19
752,-14
753,-11
754,-12
755,-13
756,-15
757,-17
758,-23
759,-28
760,-33
761,-40
762,-46
763,-47
764,-41
765,-30
766,-21
767,-14
768,-8
769,-8
770,-12
771,-16
772,-18
773,-20
774,-18
775,-14
776,-10
777,-7
778,-6
779,-3
780,-4
781,-7
782,-8
783,-9
784,-7
785,-3
786,2
787,9
788,18
789,25
790,28
791,30
792,30
793,26
794,22
795,19
796,19
797,21
798,26
799,32
800,38
801,42
802,45
803,46
804,47
805,46
806,46
807,44
808,42
809,40
810,37
811,35
812,34
813,33
814,32
815,26
816,20
817,11
818,8
819,9
820,12
821,16
822,19
823,18
824,15
825,9
826,6
827,1
828,-5
829,-14
830,-19
831,-27
832,-37
833,-45
834,-52
835,-57
836,-62
837,-65
838,-65
839,-65
840,-67
841,-70
842,-73
843,-79
844,-84
845,-88
846,-89
847,-87
848,-88
849,-87
850,-85
851,-87
852,-86
853,-83
854,-82
855,-81
856,-83
857,-87
858,-96
859,-108
860,-116
861,-117
862,-115
863,-109
864,-101
865,-98
866,-101
867,-101
868,-104
869,-106
870,-109
871,-111
872,-109
873,-105
874,-100
875,-97
876,-97
877,-95
878,-93
879,-91
880,-84
881,-76
882,-73
883,-75
884,-80
885,-86
886,-94
887,-104
888,-112
889,-114
890,-112
891,-110
892,-105
893,-103
894,-104
895,-105
896,-104
897,-103
898,-102
899,-101
900,-96
901,-92
902,-91
903,-90
904,-88
905,-88
906,-88
907,-86
908,-82
909,-77
910,-74
911,-74
912,-72
913,-70
914,-68
915,-67
916,-63
917,-62
918,-61
919,-63
920,-68
921,-75
922,-81
923,-86
924,-87
925,-78
926,-75
927,-71
928,-70
929,-70
930,-73
931,-77
932,-80
933,-84
934,-88
935,-90
936,-88
937,-89
938,-87
939,-83
940,-77
941,-70
942,-62
943,-57
944,-54
945,-55
946,-59
947,-65
948,-72
949,-82
950,-90
951,-92
952,-93
953,-94
954,-93
955,-92
956,-91
957,-90
958,-88
959,-84
960,-79
961,-69
962,-62
963,-59
964,-62
965,-69
966,-78
967,-89
968,-99
969,-105
970,-103
971,-96
972,-90
973,-84
974,-77
975,-74
976,-74
977,-76
978,-78
979,-80
980,-84
981,-89
982,-93
983,-96
984,-102
985,-107
986,-104
987,-99
988,-94
989,-89
990,-84
991,-82
992,-82
993,-85
994,-85
995,-86
996,-86
997,-82
998,-80
999,-81
1000,-84
1001,-88
1002,-92
1003,-95
1004,-94
1005,-91
1006,-87
1007,-82
1008,-80
1009,-80
1010,-77
1011,-74
1012,-72
1013,-71
1014,-70
1015,-73
1016,-73
1017,-71
1018,-72
1019,-70
1020,-65
1021,-61
1022,-58
1023,-56
1024,-58
1025,-62
1026,-68
1027,-74
1028,-76
1029,-77
1030,-79
1031,-78
1032,-74
1033,-73
1034,-72
1035,-71
1036,-74
1037,-77
1038,-78
1039,-79
1040,-80
1041,-82
1042,-85
1043,-87
1044,-90
1045,-91
1046,-88
1047,-82
1048,-74
1049,-66
1050,-57
1051,-53
1052,-52
1053,-54
1054,-58
1055,-61
1056,-64
1057,-67
1058,-68
1059,-66
1060,-61
1061,-57
1062,-55
1063,-58
1064,-63
1065,-69
1066,-76
1067,-76
1068,-71
1069,-59
1070,-48
1071,-37
1072,-31
1073,-29
1074,-30
1075,-33
1076,-37
1077,-40
1078,-40
1079,-39
1080,-36
1081,-33
1082,-34
1083,-35
1084,-37
1085,-40
1086,-41
1087,-43
1088,-43
1089,-41
1090,-36
1091,-29
1092,-26
1093,-26
1094,-31
1095,-40
1096,-51
1097,-65
1098,-79
1099,-90
1100,-95
1101,-95
1102,-88
1103,-75
1104,-73
1105,-75
1106,-79
1107,-86
1108,-93
1109,-97
1110,-94
1111,-87
1112,-78
1113,-68
1114,-60
1115,-58
1116,-59
1117,-64
1118,-68
1119,-69
1120,-70
1121,-68
1122,-63
1123,-58
1124,-56
1125,-58
1126,-62
1127,-62
1128,-60
1129,-53
1130,-39
1131,-20
1132,4
1133,37
1134,74
1135,116
1136,162
1137,207
1138,296
1139,339
1140,375
1141,399
1142,400
1143,372
1144,314
1145,225
1146,115
1147,1
1148,-108
1149,-202
1150,-271
1151,-271
1152,-309
1153,-323
1154,-320
1155,-306
1156,-282
1157,-250
1158,-216
1159,-180
1160,-148
1161,-124
1162,-106
1163,-92
1164,-81
1165,-74
1166,-70
1167,-69
1168,-69
1169,-73
1170,-78
1171,-80
1172,-80
1173,-82
1174,-79
1175,-76
1176,-76
1177,-76
1178,-75
1179,-74
1180,-72
1181,-69
1182,-65
1183,-64
1184,-66
1185,-67
1186,-69
1187,-69
1188,-67
1189,-64
1190,-63
1191,-61
1192,-57
1193,-56
1194,-58
1195,-60
1196,-62
1197,-62
1198,-61
1199,-59
1200,-56
1201,-54
1202,-54
1203,-55
1204,-57
1205,-62
1206,-66
1207,-64
1208,-56
1209,-47
1210,-37
1211,-26
1212,-12
1213,-11
1214,-12
1215,-14
1216,-16
1217,-22
1218,-27
1219,-31
1220,-35
1221,-38
1222,-40
1223,-40
1224,-36
1225,-34
1226,-31
1227,-28
1228,-26
1229,-28
1230,-31
1231,-33
1232,-35
1233,-35
1234,-34
1235,-31
1236,-24
1237,-14
1238,0
1239,13
1240,19
1241,20
1242,16
1243,6
1244,-4
1245,-14
1246,-21
1247,-21
1248,-9
1249,1
1250,9
1251,9
1252,8
1253,8
1254,4
1255,0
1256,-3
1257,-7
1258,-6
1259,-6
1260,-4
1261,2
1262,7
1263,8
1264,10
1265,15
1266,17
1267,21
1268,27
1269,35
1270,45
1271,50
1272,52
1273,55
1274,56
1275,51
1276,48
1277,45
1278,43
1279,44
1280,47
1281,52
1282,58
1283,58
1284,52
1285,44
1286,31
1287,21
1288,13
1289,7
1290,4
1291,3
1292,4
1293,8
1294,8
1295,11
1296,14
1297,14
1298,10
1299,4
1300,-5
1301,-15
1302,-25
1303,-34
1304,-41
1305,-46
1306,-51
1307,-57
1308,-64
1309,-71
1310,-78
1311,-86
1312,-93
1313,-97
1314,-101
1315,-106
1316,-110
1317,-112
1318,-112
1319,-110
1320,-105
1321,-99
1322,-93
1323,-91
1324,-91
1325,-93
1326,-96
1327,-99
1328,-105
1329,-110
1330,-113
1331,-118
1332,-123
1333,-125
1334,-125
1335,-123
1336,-121
1337,-119
1338,-117
1339,-116
1340,-116
1341,-113
1342,-111
1343,-111
1344,-113
1345,-117
1346,-121
1347,-124
1348,-126
1349,-124
1350,-122
1351,-117
1352,-112
1353,-109
1354,-106
1355,-106
1356,-111
1357,-114
1358,-118
1359,-117
1360,-115
1361,-113
1362,-106
1363,-100
1364,-95
1365,-93
1366,-93
1367,-93
1368,-88
1369,-83
1370,-76
1371,-70
1372,-65
1373,-63
1374,-66
1375,-74
1376,-82
1377,-89
1378,-93
1379,-92
1380,-89
1381,-88
1382,-88
1383,-89
1384,-93
1385,-94
1386,-95
1387,-97
1388,-96
1389,-94
1390,-94
1391,-95
1392,-100
1393,-108
1394,-115
1395,-118
1396,-118
1397,-116
1398,-117
1399,-119
1400,-120
1401,-124
1402,-128
1403,-129
1404,-128
1405,-123
1406,-116
1407,-112
1408,-109
1409,-105
1410,-106
1411,-109
1412,-112
1413,-116
1414,-118
1415,-121
1416,-126
1417,-131
1418,-135
1419,-138
1420,-138
1421,-137
1422,-133
1423,-128
1424,-121
1425,-114
1426,-109
1427,-107
1428,-109
1429,-111
1430,-117
1431,-119
1432,-120
1433,-121
1434,-123
1435,-124
1436,-124
1437,-125
1438,-121
1439,-117
1440,-112
1441,-107
1442,-104
1443,-105
1444,-104
1445,-103
1446,-105
1447,-105
1448,-102
1449,-100
1450,-99
1451,-98
1452,-99
1453,-99
1454,-101
1455,-103
1456,-102
1457,-100
1458,-101
1459,-99
1460,-99
1461,-100
1462,-99
1463,-98
1464,-98
1465,-98
1466,-101
1467,-99
1468,-97
1469,-95
1470,-87
1471,-80
1472,-73
1473,-67
1474,-67
1475,-72
1476,-78
1477,-87
1478,-94
1479,-99
1480,-106
1481,-109
1482,-110
1483,-113
1484,-116
1485,-116
1486,-116
1487,-112
1488,-105
1489,-99
1490,-93
1491,-89
1492,-86
1493,-84
1494,-82
1495,-86
1496,-90
1497,-94
1498,-100
1499,-103
1500,-103
1501,-103
1502,-103
1503,-90
1504,-83
1505,-75
1506,-68
1507,-64
1508,-64
1509,-68
1510,-74
1511,-84
1512,-96
1513,-107
1514,-113
1515,-114
1516,-116
1517,-115
1518,-109
1519,-106
1520,-103
1521,-96
1522,-89
1523,-85
1524,-80
1525,-75
1526,-71
1527,-67
1528,-64
1529,-62
1530,-59
1531,-55
1532,-54
1533,-55
1534,-57
1535,-63
1536,-70
1537,-73
1538,-77
1539,-75
1540,-72
1541,-67
1542,-62
1543,-61
1544,-61
1545,-62
1546,-67
1547,-71
1548,-73
1549,-73
1550,-74
1551,-72
1552,-67
1553,-63
1554,-63
1555,-64
1556,-66
1557,-72
1558,-82
1559,-89
1560,-98
1561,-103
1562,-108
1563,-111
1564,-109
1565,-112
1566,-118
1567,-124
1568,-131
1569,-137
1570,-141
1571,-145
1572,-145
1573,-142
1574,-139
1575,-135
1576,-130
1577,-129
1578,-129
1579,-127
1580,-123
1581,-118
1582,-116
1583,-116
1584,-116
1585,-117
1586,-119
1587,-123
1588,-127
1589,-126
1590,-127
1591,-126
1592,-120
1593,-114
1594,-105
1595,-93
1596,-77
1597,-54
1598,-20
1599,15
1600,55
1601,99
1602,142
1603,182
1604,220
1605,252
1606,283
1607,300
1608,299
1609,219
1610,136
1611,38
1612,-62
1613,-158
1614,-241
1615,-302
1616,-344
1617,-366
1618,-372
1619,-362
1620,-341
1621,-312
1622,-276
1623,-235
1624,-196
1625,-166
1626,-144
1627,-132
1628,-126
1629,-123
1630,-122
1631,-122
1632,-122
1633,-123
1634,-123
1635,-122
1636,-122
1637,-123
1638,-123
1639,-125
1640,-125
1641,-122
1642,-117
1643,-113
1644,-104
1645,-101
1646,-102
1647,-105
1648,-110
1649,-113
1650,-118
1651,-120
1652,-115
1653,-110
1654,-102
1655,-94
1656,-87
1657,-82
1658,-84
1659,-89
1660,-94
1661,-97
1662,-103
1663,-105
1664,-101
1665,-97
1666,-94
1667,-92
1668,-91
1669,-92
1670,-92
1671,-90
1672,-84
1673,-75
1674,-68
1675,-61
1676,-57
1677,-57
1678,-63
1679,-69
1680,-76
1681,-85
1682,-86
1683,-86
1684,-87
1685,-87
1686,-85
1687,-81
1688,-78
1689,-78
1690,-76
1691,-77
1692,-79
1693,-79
1694,-80
1695,-83
1696,-81
1697,-79
1698,-79
1699,-78
1700,-78
1701,-77
1702,-74
1703,-69
1704,-67
1705,-66
1706,-70
1707,-74
1708,-77
1709,-81
1710,-83
1711,-82
1712,-78
1713,-72
1714,-65
1715,-59
1716,-54
1717,-50
1718,-45
1719,-44
1720,-44
1721,-44
1722,-43
1723,-40
1724,-36
1725,-30
1726,-27
1727,-25
1728,-25
1729,-29
1730,-32
1731,-34
1732,-31
1733,-24
1734,-16
1735,-6
1736,3
1737,7
1738,11
1739,11
1740,8
1741,1
1742,-6
1743,-14
1744,-20
1745,-28
1746,-36
1747,-41
1748,-47
1749,-51
1750,-49
1751,-48
1752,-48
1753,-45
1754,-41
1755,-38
1756,-43
1757,-49
1758,-54
1759,-57
1760,-57
1761,-57
1762,-59
1763,-63
1764,-68
1765,-77
1766,-84
1767,-93
1768,-100
1769,-103
1770,-102
1771,-100
1772,-99
1773,-97
1774,-96
1775,-93
1776,-93
1777,-95
1778,-98
1779,-104
1780,-114
1781,-121
1782,-128
1783,-138
1784,-146
1785,-150
1786,-155
1787,-159
1788,-163
1789,-166
1790,-168
1791,-166
1792,-164
1793,-165
1794,-167
1795,-169
1796,-172
1797,-175
1798,-178
1799,-177
1800,-176
1801,-173
1802,-169
1803,-165
1804,-158
1805,-149
1806,-139
1807,-130
1808,-122
1809,-116
1810,-113
1811,-115
1812,-119
1813,-126
1814,-132
1815,-137
1816,-143
1817,-148
1818,-153
1819,-158
1820,-161
1821,-162
1822,-160
1823,-157
1824,-150
1825,-139
1826,-140
1827,-143
1828,-149
1829,-157
1830,-161
1831,-163
1832,-161
1833,-154
1834,-147
1835,-139
1836,-132
1837,-128
1838,-126
1839,-123
1840,-121
1841,-121
1842,-120
1843,-119
1844,-117
1845,-115
1846,-116
1847,-118
1848,-119
1849,-120
1850,-119
1851,-116
1852,-111
1853,-105
1854,-98
1855,-92
1856,-87
1857,-83
1858,-81
1859,-81
1860,-83
1861,-92
1862,-96
1863,-96
1864,-99
1865,-101
1866,-103
1867,-101
1868,-99
1869,-95
1870,-93
1871,-94
1872,-98
1873,-103
1874,-110
1875,-115
1876,-114
1877,-110
1878,-102
1879,-91
1880,-84
1881,-80
1882,-82
1883,-90
1884,-97
1885,-104
1886,-107
1887,-106
1888,-102
1889,-99
1890,-97
1891,-99
1892,-104
1893,-106
1894,-109
1895,-112
1896,-109
1897,-101
1898,-94
1899,-88
1900,-87
1901,-86
1902,-86
1903,-83
1904,-76
1905,-68
1906,-61
1907,-55
1908,-54
1909,-57
1910,-66
1911,-73
1912,-82
1913,-86
1914,-85
1915,-82
1916,-80
1917,-79
1918,-77
1919,-73
1920,-68
1921,-62
1922,-55
1923,-49
1924,-47
1925,-50
1926,-56
1927,-62
1928,-68
1929,-72
1930,-72
1931,-68
1932,-64
1933,-52
1934,-47
1935,-43
1936,-41
1937,-40
1938,-42
1939,-44
1940,-48
1941,-50
1942,-50
1943,-49
1944,-46
1945,-43
1946,-40
1947,-35
1948,-33
1949,-36
1950,-38
1951,-41
1952,-45
1953,-47
1954,-49
1955,-48
1956,-43
1957,-41
1958,-42
1959,-43
1960,-45
1961,-45
1962,-41
1963,-33
1964,-22
1965,-12
1966,-6
1967,-4
1968,-5
1969,-18
1970,-23
1971,-22
1972,-18
1973,-12
1974,-7
1975,-5
1976,-5
1977,-8
1978,-11
1979,-12
1980,-11
1981,-7
1982,-1
1983,6
1984,12
1985,15
1986,17
1987,15
1988,12
1989,8
1990,7
1991,8
1992,10
1993,12
1994,12
1995,11
1996,5
1997,-2
1998,-9
1999,-15
2000,-21
2001,-23
2002,-24
2003,-25
2004,-33
2005,-33
2006,-40
2007,-45
2008,-53
2009,-62
2010,-66
2011,-69
2012,-68
2013,-67
2014,-64
2015,-59
2016,-53
2017,-50
2018,-47
2019,-45
2020,-47
2021,-50
2022,-52
2023,-53
2024,-56
2025,-57
2026,-57
2027,-51
2028,-44
2029,-38
2030,-31
2031,-20
2032,-10
2033,4
2034,24
2035,51
2036,86
2037,130
2038,181
2039,235
2040,285
2041,367
2042,392
2043,397
2044,376
2045,327
2046,258
2047,169
2048,68
2049,-30
2050,-120
2051,-193
2052,-243
2053,-268
2054,-275
2055,-269
2056,-252
2057,-226
2058,-198
2059,-171
2060,-147
2061,-122
2062,-99
2063,-82
2064,-67
2065,-55
2066,-46
2067,-35
2068,-25
2069,-19
2070,-17
2071,-17
2072,-18
2073,-20
2074,-22
2075,-25
2076,-25
2077,-20
2078,-16
2079,-13
2080,-13
2081,-14
2082,-12
2083,-10
2084,-8
2085,-7
2086,-7
2087,-7
2088,-4
2089,-2
2090,0
2091,0
2092,0
2093,-2
2094,-2
2095,-1
2096,1
2097,4
2098,8
2099,10
2100,11
2101,13
2102,13
2103,13
2104,15
2105,18
2106,19
2107,16
2108,14
2109,11
2110,9
2111,11
2112,14
2113,20
2114,20
2115,19
2116,15
2117,10
2118,9
2119,15
2120,22
2121,32
2122,42
2123,47
2124,50
2125,50
2126,45
2127,38
2128,32
2129,26
2130,26
2131,28
2132,29
2133,33
2134,35
2135,37
2136,40
2137,44
2138,46
2139,44
2140,42
2141,40
2142,40
2143,44
2144,47
2145,51
2146,59
2147,59
2148,64
2149,65
2150,59
2151,50
2152,42
2153,37
2154,33
2155,35
2156,39
2157,43
2158,50
2159,56
2160,59
2161,58
2162,57
2163,56
2164,55
2165,57
2166,59
2167,60
2168,61
2169,60
2170,60
2171,65
2172,69
2173,73
2174,78
2175,81
2176,78
2177,72
2178,65
2179,60
2180,62
2181,67
2182,74
2183,81
2184,84
2185,75
2186,67
2187,59
2188,54
2189,52
2190,50
2191,48
2192,44
2193,40
2194,36
2195,31
2196,28
2197,27
2198,26
2199,23
2200,19
2201,14
2202,11
2203,5
2204,0
2205,-1
2206,-3
2207,-6
2208,-8
2209,-11
2210,-15
2211,-18
2212,-21
2213,-24
2214,-28
2215,-32
2216,-36
2217,-41
2218,-46
2219,-52
2220,-59
2221,-67
2222,-67
2223,-64
2224,-58
2225,-53
2226,-49
2227,-47
2228,-50
2229,-54
2230,-58
2231,-60
2232,-63
2233,-64
2234,-66
2235,-65
2236,-63
2237,-62
2238,-61
2239,-60
2240,-59
2241,-58
2242,-61
2243,-65
2244,-67
2245,-67
2246,-64
2247,-62
2248,-61
2249,-61
2250,-62
2251,-64
2252,-60
2253,-53
2254,-47
2255,-40
2256,-31
2257,-31
2258,-39
2259,-48
2260,-53
2261,-57
2262,-60
2263,-57
2264,-54
2265,-54
2266,-53
2267,-51
2268,-50
2269,-52
2270,-52
2271,-54
2272,-55
2273,-55
2274,-58
2275,-60
2276,-60
2277,-60
2278,-60
2279,-60
2280,-60
2281,-59
2282,-56
2283,-56
2284,-52
2285,-47
2286,-43
2287,-40
2288,-35
2289,-35
2290,-30
2291,-29
2292,-30
2293,-31
2294,-32
2295,-37
2296,-40
2297,-40
2298,-48
2299,-57
2300,-62
2301,-64
2302,-67
2303,-65
2304,-59
2305,-50
2306,-42
2307,-37
2308,-34
2309,-34
2310,-39
2311,-43
2312,-45
2313,-47
2314,-49
2315,-53
2316,-54
2317,-55
2318,-56
2319,-56
2320,-54
2321,-51
2322,-47
2323,-43
2324,-41
2325,-44
2326,-47
2327,-49
2328,-50
2329,-47
2330,-40
2331,-26
2332,-25
2333,-27
2334,-35
2335,-48
2336,-59
2337,-64
2338,-65
2339,-61
2340,-55
2341,-49
2342,-50
2343,-52
2344,-57
2345,-62
2346,-65
2347,-63
2348,-57
2349,-50
2350,-45
2351,-41
2352,-40
2353,-43
2354,-49
2355,-53
2356,-55
2357,-56
2358,-55
2359,-53
2360,-52
2361,-53
2362,-55
2363,-58
2364,-61
2365,-63
2366,-63
2367,-58
2368,-55
2369,-51
2370,-47
2371,-42
2372,-37
2373,-36
2374,-35
2375,-38
2376,-42
2377,-46
2378,-51
2379,-54
2380,-59
2381,-60
2382,-56
2383,-52
2384,-48
2385,-46
2386,-42
2387,-39
2388,-37
2389,-36
2390,-39
2391,-43
2392,-48
2393,-52
2394,-55
2395,-57
2396,-55
2397,-52
2398,-52
2399,-50
2400,-50
2401,-52
2402,-52
2403,-51
2404,-49
2405,-47
2406,-48
2407,-49
2408,-51
2409,-53
2410,-50
2411,-46
2412,-43
2413,-39
2414,-38
2415,-44
2416,-49
2417,-53
2418,-58
2419,-60
2420,-56
2421,-49
2422,-42
2423,-37
2424,-34
2425,-31
2426,-30
2427,-30
2428,-25
2429,-14
2430,-5
2431,0
2432,0
2433,3
2434,3
2435,0
2436,-2
2437,-6
2438,-15
2439,-20
2440,-26
2441,-31
2442,-36
2443,-43
2444,-47
2445,-50
2446,-52
2447,-54
2448,-58
2449,-61
2450,-62
2451,-63
2452,-65
2453,-67
2454,-69
2455,-69
2456,-70
2457,-69
2458,-66
2459,-65
2460,-67
2461,-69
2462,-73
2463,-80
2464,-88
2465,-96
2466,-102
2467,-101
2468,-96
2469,-87
2470,-73
2471,-58
2472,-40
2473,6
2474,37
2475,72
2476,110
2477,153
2478,199
2479,243
2480,282
2481,320
2482,353
2483,373
2484,372
2485,347
2486,289
2487,203
2488,99
2489,-10
2490,-115
2491,-206
2492,-276
2493,-317
2494,-333
2495,-329
2496,-311
2497,-281
2498,-245
2499,-207
2500,-172
2501,-143
2502,-121
2503,-106
2504,-95
2505,-86
2506,-78
2507,-73
2508,-71
2509,-69
2510,-68
2511,-68
2512,-72
2513,-78
2514,-84
2515,-89
2516,-92
2517,-91
2518,-89
2519,-86
2520,-85
2521,-84
2522,-83
2523,-87
2524,-92
2525,-92
2526,-88
2527,-79
2528,-69
2529,-60
2530,-55
2531,-56
2532,-60
2533,-68
2534,-79
2535,-91
2536,-97
2537,-97
2538,-96
2539,-91
2540,-84
2541,-80
2542,-78
2543,-75
2544,-74
2545,-71
2546,-67
2547,-64
2548,-62
2549,-63
2550,-63
2551,-63
2552,-62
2553,-60
2554,-56
2555,-51
2556,-47
2557,-44
2558,-45
2559,-48
2560,-51
2561,-52
2562,-56
2563,-58
2564,-60
2565,-63
2566,-65
2567,-66
2568,-66
2569,-65
2570,-64
2571,-61
2572,-57
2573,-54
2574,-54
2575,-55
2576,-58
2577,-58
2578,-57
2579,-52
2580,-42
2581,-13
2582,0
2583,4
2584,3
2585,-5
2586,-19
2587,-34
2588,-41
2589,-42
2590,-38
2591,-29
2592,-18
2593,-11
2594,-8
2595,-9
2596,-9
2597,-11
2598,-11
2599,-7
2600,0
2601,4
2602,4
2603,3
2604,0
2605,-7
2606,-14
2607,-19
2608,-21
2609,-22
2610,-19
2611,-15
2612,-10
2613,-5
2614,0
2615,6
2616,9
2617,11
2618,13
2619,11
2620,12
2621,15
2622,15
2623,15
2624,17
2625,14
2626,9
2627,6
2628,3
2629,-1
2630,-8
2631,-17
2632,-25
2633,-32
2634,-38
2635,-42
2636,-42
2637,-42
2638,-42
2639,-41
2640,-43
2641,-46
2642,-48
2643,-46
2644,-43
2645,-43
2646,-47
2647,-53
2648,-63
2649,-73
2650,-79
2651,-83
2652,-87
2653,-90
2654,-99
2655,-106
2656,-116
2657,-126
2658,-130
2659,-135
2660,-141
2661,-142
2662,-141
2663,-140
2664,-138
2665,-134
2666,-131
2667,-128
2668,-127
2669,-128
2670,-127
2671,-128
2672,-133
2673,-137
2674,-140
2675,-142
2676,-145
2677,-147
2678,-146
2679,-142
2680,-140
2681,-139
2682,-138
2683,-136
2684,-139
2685,-141
2686,-141
2687,-141
2688,-139
2689,-131
2690,-128
2691,-126
2692,-127
2693,-130
2694,-131
2695,-130
2696,-129
2697,-127
2698,-125
2699,-125
2700,-127
2701,-129
2702,-131
2703,-130
2704,-122
2705,-112
2706,-104
2707,-98
2708,-97
2709,-103
2710,-110
2711,-115
2712,-116
2713,-112
2714,-106
2715,-99
2716,-99
2717,-92
2718,-93
2719,-97
2720,-100
2721,-104
2722,-108
2723,-110
2724,-112
2725,-117
2726,-119
2727,-119
2728,-119
2729,-119
2730,-116
2731,-111
2732,-108
2733,-107
2734,-106
2735,-106
2736,-103
2737,-99
2738,-96
2739,-94
2740,-95
2741,-98
2742,-102
2743,-106
2744,-109
2745,-110
2746,-110
2747,-109
2748,-105
2749,-103
2750,-103
2751,-101
2752,-98
2753,-96
2754,-97
2755,-99
2756,-100
2757,-102
2758,-102
2759,-99
2760,-95
2761,-90
2762,-78
2763,-74
2764,-75
2765,-76
2766,-77
2767,-81
2768,-86
2769,-88
2770,-91
2771,-95
2772,-95
2773,-96
2774,-98
2775,-99
2776,-102
2777,-103
2778,-100
2779,-94
2780,-82
2781,-71
2782,-65
2783,-64
2784,-68
2785,-79
2786,-89
2787,-97
2788,-102
2789,-102
2790,-97
2791,-88
2792,-80
2793,-75
2794,-72
2795,-71
2796,-71
2797,-74
2798,-77
2799,-79
2800,-82
2801,-85
2802,-88
2803,-91
2804,-94
2805,-95
2806,-96
2807,-95
2808,-93
2809,-93
2810,-93
2811,-94
2812,-93
2813,-93
2814,-93
2815,-92
2816,-90
2817,-88
2818,-86
2819,-85
2820,-86
2821,-87
2822,-87
2823,-87
2824,-87
2825,-88
2826,-90
2827,-92
2828,-94
2829,-94
2830,-94
2831,-95
2832,-95
2833,-98
2834,-99
2835,-100
2836,-100
2837,-93
2838,-88
2839,-84
2840,-78
2841,-76
2842,-77
2843,-80
2844,-84
2845,-85
2846,-83
2847,-83
2848,-82
2849,-79
2850,-77
2851,-76
2852,-73
2853,-69
2854,-64
2855,-63
2856,-60
2857,-58
2858,-58
2859,-61
2860,-67
2861,-72
2862,-77
2863,-81
2864,-83
2865,-84
2866,-84
2867,-78
2868,-74
2869,-68
2870,-42
2871,-29
2872,-16
2873,-9
2874,-7
2875,-10
2876,-16
2877,-25
2878,-30
2879,-32
2880,-33
2881,-31
2882,-27
2883,-28
2884,-31
2885,-34
2886,-37
2887,-36
2888,-35
2889,-34
2890,-33
2891,-34
2892,-36
2893,-41
2894,-48
2895,-56
2896,-65
2897,-71
2898,-76
2899,-78
2900,-80
2901,-81
2902,-81
2903,-82
2904,-81
2905,-74
2906,-70
2907,-63
2908,-56
2909,-53
2910,-54
2911,-55
2912,-55
2913,-57
2914,-62
2915,-66
2916,-68
2917,-72
2918,-79
2919,-80
2920,-78
2921,-78
2922,-74
2923,-68
2924,-59
2925,-52
2926,-48
2927,-42
2928,-32
2929,-25
2930,-11
2931,12
2932,42
2933,79
2934,123
2935,171
2936,220
2937,265
2938,301
2939,336
2940,381
2941,379
2942,354
2943,299
2944,219
2945,120
2946,11
2947,-96
2948,-192
2949,-269
2950,-320
2951,-344
2952,-345
2953,-327
2954,-296
2955,-256
2956,-214
2957,-179
2958,-153
2959,-137
2960,-127
2961,-120
2962,-115
2963,-112
2964,-108
2965,-102
2966,-99
2967,-99
2968,-99
2969,-99
2970,-100
2971,-102
2972,-106
2973,-107
2974,-108
2975,-107
2976,-107
2977,-103
2978,-103
2979,-101
2980,-96
2981,-90
2982,-83
2983,-77
2984,-74
2985,-71
2986,-70
2987,-73
2988,-76
2989,-79
2990,-83
2991,-82
2992,-82
2993,-81
2994,-75
2995,-70
2996,-69
2997,-69
2998,-71
2999,-77
3000,-77
3001,-83
3002,-88
3003,-90
3004,-87
3005,-84
3006,-80
3007,-73
3008,-69
3009,-67
3010,-65
3011,-62
3012,-65
3013,-72
3014,-84
3015,-90
3016,-91
3017,-91
3018,-89
3019,-86
3020,-80
3021,-74
3022,-72
3023,-70
3024,-68
3025,-64
3026,-61
3027,-59
3028,-57
3029,-59
3030,-57
3031,-52
3032,-49
3033,-49
3034,-51
3035,-53
3036,-56
3037,-58
3038,-58
3039,-55
3040,-51
3041,-43
3042,-32
3043,-22
3044,-17
3045,-14
3046,-14
3047,-18
3048,-27
3049,-36
3050,-46
3051,-45
3052,-40
3053,-31
3054,-23
3055,-14
3056,-6
3057,-1
3058,2
3059,8
3060,12
3061,19
3062,24
3063,23
3064,19
3065,16
3066,11
3067,7
3068,4
3069,2
3070,0
3071,0
3072,-5
3073,-7
3074,-7
3075,-5
3076,1
3077,8
3078,14
3079,16
3080,15
3081,11
3082,3
3083,-5
3084,-11
3085,-18
3086,-20
3087,-23
3088,-24
3089,-25
3090,-29
3091,-28
3092,-25
3093,-27
3094,-31
3095,-37
3096,-46
3097,-56
3098,-65
3099,-73
3100,-75
3101,-73
3102,-73
3103,-67
3104,-61
3105,-58
3106,-59
3107,-59
3108,-61
3109,-65
3110,-77
3111,-93
3112,-111
3113,-130
3114,-146
3115,-155
3116,-159
3117,-159
3118,-159
3119,-159
3120,-158
3121,-156
3122,-153
3123,-149
3124,-145
3125,-141
3126,-140
3127,-138
3128,-135
3129,-134
3130,-133
3131,-130
3132,-131
3133,-132
3134,-138
3135,-145
3136,-155
3137,-161
3138,-164
3139,-164
3140,-162
3141,-160
3142,-158
3143,-158
3144,-155
3145,-153
3146,-152
3147,-153
3148,-155
3149,-157
3150,-158
3151,-160
3152,-162
3153,-161
3154,-157
3155,-153
3156,-146
3157,-130
3158,-125
3159,-120
3160,-114
3161,-107
3162,-100
3163,-95
3164,-95
3165,-99
3166,-107
3167,-116
3168,-122
3169,-127
3170,-130
3171,-129
3172,-125
3173,-122
3174,-120
3175,-119
3176,-118
3177,-115
3178,-112
3179,-108
3180,-103
3181,-102
3182,-103
3183,-106
3184,-108
3185,-111
3186,-116
3187,-119
3188,-122
3189,-123
3190,-122
3191,-122
3192,-118
3193,-117
3194,-120
3195,-120
3196,-121
3197,-121
3198,-117
3199,-114
3200,-110
3201,-105
3202,-102
3203,-101
3204,-99
3205,-98
3206,-97
3207,-98
3208,-100
3209,-101
3210,-103
3211,-102
3212,-98
3213,-93
3214,-87
3215,-84
3216,-83
3217,-85
3218,-93
3219,-101
3220,-108
3221,-117
3222,-123
3223,-121
3224,-117
3225,-110
3226,-100
3227,-91
3228,-85
3229,-96
3230,-106
3231,-119
3232,-130
3233,-136
3234,-134
3235,-133
3236,-131
3237,-130
3238,-128
3239,-126
3240,-124
3241,-120
3242,-114
3243,-110
3244,-110
3245,-112
3246,-115
3247,-122
3248,-130
3249,-134
3250,-136
3251,-136
3252,-132
3253,-124
3254,-117
3255,-109
3256,-103
3257,-97
3258,-90
3259,-89
3260,-90
3261,-89
3262,-91
3263,-94
3264,-97
3265,-101
3266,-104
3267,-104
3268,-98
3269,-93
3270,-89
3271,-88
3272,-91
3273,-100
3274,-111
3275,-123
3276,-131
3277,-136
3278,-137
3279,-134
3280,-125
3281,-118
3282,-113
3283,-111
3284,-113
3285,-113
3286,-114
3287,-114
3288,-113
3289,-110
3290,-105
3291,-101
3292,-100
3293,-101
3294,-104
3295,-111
3296,-118
3297,-127
3298,-132
3299,-130
3300,-129
3301,-120
3302,-114
3303,-110
3304,-106
3305,-102
3306,-99
3307,-100
3308,-102
3309,-105
3310,-109
3311,-114
3312,-118
3313,-118
3314,-120
3315,-120
3316,-116
3317,-110
3318,-105
3319,-100
3320,-98
3321,-98
3322,-100
3323,-107
3324,-114
3325,-122
3326,-128
3327,-128
3328,-120
3329,-110
3330,-99
3331,-88
3332,-77
3333,-69
3334,-65
3335,-64
3336,-64
3337,-62
3338,-59
3339,-52
3340,-43
3341,-35
3342,-31
3343,-32
3344,-40
3345,-54
3346,-67
3347,-79
3348,-90
3349,-93
3350,-93
3351,-90
3352,-86
3353,-88
3354,-95
3355,-103
3356,-109
3357,-114
3358,-113
3359,-110
3360,-106
3361,-101
3362,-99
3363,-98
3364,-100
3365,-102
3366,-102
3367,-101
3368,-98
3369,-95
3370,-91
3371,-88
3372,-91
3373,-96
3374,-101
3375,-108
3376,-112
3377,-111
3378,-110
3379,-104
3380,-94
3381,-82
3382,-70
3383,-60
3384,-54
3385,-43
3386,-31
3387,-14
3388,14
3389,51
3390,91
3391,138
3392,190
3393,238
3394,280
3395,313
3396,333
3397,333
3398,308
3399,258
3400,183
3401,89
3402,-16
3403,-119
3404,-207
3405,-275
3406,-319
3407,-337
3408,-322
3409,-299
3410,-272
3411,-245
3412,-216
3413,-186
3414,-157
3415,-133
3416,-111
3417,-94
3418,-85
3419,-81
3420,-78
3421,-80
3422,-81
3423,-82
3424,-83
3425,-82
3426,-84
3427,-84
3428,-83
3429,-78
3430,-72
3431,-66
3432,-60
3433,-54
3434,-52
3435,-53
3436,-55
3437,-56
3438,-58
3439,-61
3440,-61
3441,-55
3442,-54
3443,-56
3444,-58
3445,-63
3446,-65
3447,-65
3448,-61
3449,-56
3450,-51
3451,-44
3452,-39
3453,-37
3454,-38
3455,-40
3456,-40
3457,-40
3458,-40
3459,-37
3460,-32
3461,-31
3462,-28
3463,-24
3464,-23
3465,-20
3466,-15
3467,-11
3468,-5
3469,0
3470,5
3471,11
3472,12
3473,6
3474,-4
3475,-15
3476,-25
3477,-33
3478,-35
3479,-31
3480,-24
3481,-9
3482,-3
3483,-1
3484,-3
3485,-3
3486,-3
3487,0
3488,3
3489,9
3490,14
3491,16
3492,16
3493,13
3494,9
3495,2
3496,-5
3497,-7
3498,-8
3499,-8
3500,-2
3501,5
3502,8
3503,10
3504,13
3505,13
3506,9
3507,8
3508,11
3509,18
3510,28
3511,36
3512,43
3513,46
3514,42
3515,30
3516,22
3517,18
3518,21
3519,29
3520,38
3521,47
3522,49
3523,45
3524,38
3525,30
3526,20
3527,12
3528,10
3529,13
3530,23
3531,33
3532,41
3533,48
3534,51
3535,51
3536,49
3537,47
3538,42
3539,35
3540,33
3541,31
3542,29
3543,27
3544,23
3545,19
3546,16
3547,11
3548,5
3549,-2
3550,-11
3551,-19
3552,-25
3553,-39
3554,-45
3555,-47
3556,-50
3557,-52
3558,-56
3559,-64
3560,-72
3561,-83
3562,-88
3563,-91
3564,-94
3565,-99
3566,-102
3567,-108
3568,-113
3569,-113
3570,-119
3571,-123
3572,-126
3573,-127
3574,-125
3575,-118
3576,-114
3577,-114
3578,-112
3579,-109
3580,-109
3581,-112
3582,-117
3583,-124
3584,-132
3585,-137
3586,-138
3587,-133
3588,-124
3589,-116
3590,-104
3591,-104
3592,-109
3593,-116
3594,-125
3595,-133
3596,-139
3597,-147
3598,-152
3599,-153
3600,-154
3601,-155
3602,-152
3603,-147
3604,-144
3605,-142
3606,-139
3607,-137
3608,-134
3609,-133
3610,-136
3611,-138
3612,-138
3613,-137
3614,-133
3615,-125
3616,-119
3617,-114
3618,-114
3619,-118
3620,-123
3621,-128
3622,-132
3623,-129
3624,-122
3625,-113
3626,-98
3627,-98
3628,-99
3629,-102
3630,-104
3631,-104
3632,-103
3633,-98
3634,-92
3635,-86
3636,-81
3637,-79
3638,-79
3639,-77
3640,-75
3641,-74
3642,-74
3643,-76
3644,-81
3645,-86
3646,-89
3647,-91
3648,-92
3649,-94
3650,-96
3651,-96
3652,-98
3653,-102
3654,-107
3655,-111
3656,-112
3657,-113
3658,-113
3659,-115
3660,-119
3661,-122
3662,-124
3663,-122
3664,-118
3665,-111
3666,-107
3667,-104
3668,-104
3669,-107
3670,-112
3671,-118
3672,-121
3673,-120
3674,-115
3675,-110
3676,-98
3677,-88
3678,-82
3679,-79
3680,-77
3681,-79
3682,-81
3683,-81
3684,-80
3685,-81
3686,-81
3687,-81
3688,-79
3689,-78
3690,-76
3691,-73
3692,-73
3693,-74
3694,-76
3695,-80
3696,-86
3697,-93
3698,-96
3699,-92
3700,-86
3701,-79
3702,-73
3703,-71
3704,-71
3705,-70
3706,-74
3707,-81
3708,-87
3709,-91
3710,-95
3711,-93
3712,-93
3713,-90
3714,-85
3715,-80
3716,-79
3717,-80
3718,-79
3719,-79
3720,-77
3721,-69
3722,-61
3723,-56
3724,-52
3725,-55
3726,-67
3727,-83
3728,-101
3729,-115
3730,-124
3731,-128
3732,-127
3733,-123
3734,-120
3735,-115
3736,-116
3737,-120
3738,-124
3739,-126
3740,-125
3741,-124
3742,-121
3743,-114
3744,-106
3745,-101
3746,-96
3747,-96
3748,-98
3749,-102
3750,-106
3751,-107
3752,-106
3753,-106
3754,-103
3755,-99
3756,-97
3757,-97
3758,-99
3759,-105
3760,-110
3761,-114
3762,-116
3763,-114
3764,-108
3765,-100
3766,-91
3767,-83
3768,-77
3769,-73
3770,-72
3771,-79
3772,-82
3773,-85
3774,-90
3775,-92
3776,-93
3777,-89
3778,-84
3779,-77
3780,-66
3781,-56
3782,-47
3783,-41
3784,-37
3785,-39
3786,-44
3787,-47
3788,-51
3789,-53
3790,-55
3791,-58
3792,-61
3793,-64
3794,-70
3795,-78
3796,-88
3797,-99
3798,-106
3799,-111
3800,-114
3801,-113
3802,-112
3803,-112
3804,-113
3805,-114
3806,-115
3807,-114
3808,-112
3809,-106
3810,-99
3811,-93
3812,-88
3813,-85
3814,-87
3815,-92
3816,-97
3817,-102
3818,-106
3819,-106
3820,-105
3821,-101
3822,-97
3823,-93
3824,-88
3825,-86
3826,-86
3827,-81
3828,-75
3829,-70
3830,-60
3831,-47
3832,-32
3833,-11
3834,14
3835,47
3836,86
3837,125
3838,168
3839,211
3840,252
3841,293
3842,346
3843,339
3844,300
3845,228
3846,130
3847,18
3848,-94
3849,-194
3850,-269
3851,-317
3852,-337
3853,-337
3854,-337
3855,-324
3856,-302
3857,-274
3858,-243
3859,-207
3860,-171
3861,-137
3862,-107
3863,-77
3864,-55
3865,-40
3866,-36
3867,-41
3868,-51
3869,-67
3870,-83
3871,-90
3872,-92
3873,-92
3874,-87
3875,-82
3876,-80
3877,-79
3878,-82
3879,-88
3880,-92
3881,-94
3882,-94
3883,-95
3884,-97
3885,-95
3886,-91
3887,-89
3888,-88
3889,-87
3890,-85
3891,-83
3892,-79
3893,-71
3894,-65
3895,-61
3896,-61
3897,-60
3898,-61
3899,-65
3900,-67
3901,-65
3902,-60
3903,-56
3904,-51
3905,-46
3906,-45
3907,-47
3908,-50
3909,-54
3910,-58
3911,-63
3912,-65
3913,-64
3914,-62
3915,-52
3916,-47
3917,-43
3918,-38
3919,-35
3920,-32
3921,-31
3922,-32
3923,-32
3924,-34
3925,-38
3926,-42
3927,-46
3928,-48
3929,-46
3930,-43
3931,-36
3932,-29
3933,-22
3934,-14
3935,-7
3936,-4
3937,-4
3938,-5
3939,-6
3940,-5
3941,-4
3942,-4
3943,-3
3944,-3
3945,-4
3946,-6
3947,-7
3948,-4
3949,-1
3950,2
3951,11
3952,12
3953,11
3954,8
3955,6
3956,7
3957,10
3958,14
3959,20
3960,25
3961,27
3962,29
3963,31
3964,29
3965,25
3966,21
3967,16
3968,12
3969,6
3970,2
3971,1
3972,3
3973,3
3974,6
3975,8
3976,10
3977,14
3978,20
3979,25
3980,33
3981,40
3982,46
3983,50
3984,49
3985,47
3986,41
3987,38
3988,37
3989,37
3990,35
3991,35
3992,36
3993,35
3994,33
3995,28
3996,28
3997,21
3998,13
3999,5
4000,3
4001,2
4002,1
4003,3
4004,5
4005,5
4006,1
4007,-6
4008,-13
4009,-23
4010,-30
4011,-32
4012,-32
4013,-33
4014,-33
4015,-34
4016,-36
4017,-40
4018,-45
4019,-50
4020,-54
4021,-57
4022,-53
4023,-52
4024,-50
4025,-48
4026,-50
4027,-54
4028,-56
4029,-58
4030,-58
4031,-57
4032,-53
4033,-47
4034,-44
4035,-44
4036,-46
4037,-51
4038,-56
4039,-62
4040,-63
4041,-63
4042,-61
4043,-56
4044,-52
4045,-49
4046,-45
4047,-42
4048,-40
4049,-39
4050,-38
4051,-38
4052,-39
4053,-41
4054,-41
4055,-40
4056,-40
4057,-38
4058,-34
4059,-31
4060,-32
4061,-32
4062,-34
4063,-36
4064,-37
4065,-35
4066,-32
4067,-29
4068,-24
4069,-20
4070,-18
4071,-19
4072,-23
4073,-29
4074,-37
4075,-45
4076,-53
4077,-59
4078,-60
4079,-59
4080,-54
4081,-47
4082,-37
4083,-29
4084,-24
4085,-22
4086,-20
4087,-20
4088,-22
4089,-25
4090,-28
4091,-31
4092,-33
4093,-35
4094,-37
4095,-37
4096,-35
4097,-33
4098,-32
4099,-32
4100,-34
4101,-39
4102,-44
4103,-51
4104,-59
4105,-63
4106,-64
4107,-62
4108,-58
4109,-52
4110,-47
4111,-40
4112,-35
4113,-34
4114,-34
4115,-33
4116,-32
4117,-29
4118,-28
4119,-28
4120,-27
4121,-23
4122,-19
4123,-13
4124,-8
4125,-6
4126,-7
4127,-9
4128,-13
4129,-15
4130,-17
4131,-14
4132,-8
4133,-3
4134,0
4135,-1
4136,-4
4137,-7
4138,-7
4139,-8
4140,-8
4141,-8
4142,-9
4143,-13
4144,-16
4145,-19
4146,-21
4147,-23
4148,-25
4149,-26
4150,-25
4151,-25
4152,-29
4153,-32
4154,-36
4155,-39
4156,-39
4157,-38
4158,-37
4159,-35
4160,-34
4161,-30
4162,-25
4163,-18
4164,-14
4165,-11
4166,-9
4167,-7
4168,-3
4169,0
4170,2
4171,3
4172,0
4173,-3
4174,-8
4175,-13
4176,-15
4177,-16
4178,-15
4179,-12
4180,-9
4181,-8
4182,-7
4183,-10
4184,-13
4185,-13
4186,-12
4187,-13
4188,-10
4189,-8
4190,-5
4191,-5
4192,-6
4193,-10
4194,-16
4195,-23
4196,-26
4197,-27
4198,-27
4199,-26
4200,-24
4201,-20
4202,-17
4203,-15
4204,-9
4205,-6
4206,-3
4207,0
4208,-1
4209,-5
4210,-8
4211,-12
4212,-13
4213,-12
4214,-11
4215,-9
4216,-6
4217,-8
4218,-9
4219,-9
4220,-8
4221,-6
4222,0
4223,7
4224,12
4225,15
4226,18
4227,17
4228,16
4229,16
4230,20
4231,26
4232,36
4233,49
4234,61
4235,68
4236,70
4237,70
4238,61
4239,54
4240,45
4241,38
4242,31
4243,22
4244,15
4245,8
4246,0
4247,-4
4248,-5
4249,-6
4250,-7
4251,-7
4252,-8
4253,-10
4254,-11
4255,-12
4256,-14
4257,-14
4258,-16
4259,-16
4260,-15
4261,-15
4262,-15
4263,-12
4264,-12
4265,-13
4266,-13
4267,-13
4268,-13
4269,-15
4270,-19
4271,-21
4272,-28
4273,-37
4274,-46
4275,-46
4276,-42
4277,-32
4278,-18
4279,-1
4280,18
4281,18
4282,45
4283,75
4284,108
4285,145
4286,187
4287,226
4288,264
4289,301
4290,332
4291,352
4292,352
4293,327
4294,272
4295,191
4296,94
4297,-6
4298,-98
4299,-174
4300,-228
4301,-258
4302,-269
4303,-268
4304,-258
4305,-242
4306,-222
4307,-195
4308,-164
4309,-132
4310,-84
4311,-71
4312,-62
4313,-59
4314,-63
4315,-67
4316,-69
4317,-71
4318,-71
4319,-70
4320,-67
4321,-65
4322,-63
4323,-60
4324,-59
4325,-59
4326,-61
4327,-61
4328,-63
4329,-67
4330,-68
4331,-66
4332,-61
4333,-54
4334,-47
4335,-44
4336,-42
4337,-40
4338,-41
4339,-44
4340,-45
4341,-46
4342,-47
4343,-48
4344,-49
4345,-48
4346,-44
4347,-40
4348,-36
4349,-33
4350,-33
4351,-33
4352,-33
4353,-35
4354,-37
4355,-38
4356,-42
4357,-46
4358,-48
4359,-52
4360,-56
4361,-58
4362,-60
4363,-60
4364,-57
4365,-52
4366,-47
4367,-40
4368,-34
4369,-26
4370,-21
4371,-20
4372,-20
4373,-25
4374,-32
4375,-38
4376,-43
4377,-47
4378,-47
4379,-45
4380,-40
4381,-35
4382,-29
4383,-28
4384,-26
4385,-23
4386,-21
4387,-20
4388,-17
4389,-16
4390,-19
4391,-22
4392,-25
4393,-28
4394,-31
4395,-33
4396,-32
4397,-30
4398,-29
4399,-22
4400,-12
4401,-5
4402,0
4403,0
4404,-1
4405,-4
4406,-7
4407,-9
4408,-9
4409,-6
4410,1
4411,7
4412,10
4413,11
4414,13
4415,14
4416,13
4417,13
4418,8
4419,4
4420,3
4421,2
4422,0
4423,0
4424,-2
4425,-4
4426,-5
4427,-6
4428,-9
4429,-10
4430,-8
4431,-5
4432,-3
4433,0
4434,2
4435,2
4436,4
4437,5
4438,5
4439,7
4440,3
4441,-1
4442,-5
4443,-12
4444,-19
4445,-24
4446,-27
4447,-30
4448,-30
4449,-31
4450,-35
4451,-42
4452,-52
4453,-64
4454,-75
4455,-94
4456,-96
4457,-95
4458,-92
4459,-87
4460,-84
4461,-86
4462,-89
4463,-95
4464,-102
4465,-108
4466,-116
4467,-121
4468,-122
4469,-126
4470,-132
4471,-133
4472,-132
4473,-131
4474,-129
4475,-127
4476,-125
4477,-126
4478,-129
4479,-133
4480,-138
4481,-141
4482,-144
4483,-141
4484,-136
4485,-135
4486,-133
4487,-131
4488,-132
4489,-132
4490,-132
4491,-129
4492,-126
4493,-123
4494,-121
4495,-118
4496,-117
4497,-117
4498,-118
4499,-118
4500,-117
4501,-114
4502,-112
4503,-110
4504,-111
4505,-110
4506,-111
4507,-109
4508,-105
4509,-103
4510,-102
4511,-99
4512,-98
4513,-98
4514,-98
4515,-100
4516,-102
4517,-104
4518,-106
4519,-105
4520,-104
4521,-103
4522,-101
4523,-99
4524,-99
4525,-98
4526,-104
4527,-107
4528,-112
4529,-115
4530,-113
4531,-113
4532,-113
4533,-110
4534,-106
4535,-101
4536,-94
4537,-89
4538,-86
4539,-83
4540,-83
4541,-88
4542,-93
4543,-101
4544,-108
4545,-113
4546,-115
4547,-116
4548,-116
4549,-117
4550,-119
4551,-118
4552,-119
4553,-120
4554,-122
4555,-122
4556,-121
4557,-120
4558,-118
4559,-116
4560,-114
4561,-113
4562,-112
4563,-112
4564,-114
4565,-114
4566,-113
4567,-112
4568,-110
4569,-107
4570,-104
4571,-101
4572,-97
4573,-94
4574,-92
4575,-91
4576,-91
4577,-96
4578,-102
4579,-108
4580,-114
4581,-117
4582,-118
4583,-116
4584,-112
4585,-108
4586,-107
4587,-109
4588,-114
4589,-120
4590,-124
4591,-126
4592,-125
4593,-118
4594,-111
4595,-105
4596,-99
4597,-95
4598,-95
4599,-100
4600,-101
4601,-100
4602,-100
4603,-98
4604,-95
4605,-93
4606,-89
4607,-85
4608,-79
4609,-73
4610,-67
4611,-64
4612,-60
4613,-62
4614,-64
4615,-67
4616,-70
4617,-74
4618,-74
4619,-77
4620,-78
4621,-78
4622,-81
4623,-84
4624,-85
4625,-85
4626,-82
4627,-78
4628,-72
4629,-67
4630,-63
4631,-62
4632,-61
4633,-60
4634,-60
4635,-52
4636,-45
4637,-39
4638,-34
4639,-32
4640,-33
4641,-37
4642,-43
4643,-50
4644,-60
4645,-68
4646,-78
4647,-84
4648,-92
4649,-96
4650,-101
4651,-101
4652,-100
4653,-97
4654,-93
4655,-90
4656,-89
4657,-87
4658,-88
4659,-90
4660,-94
4661,-97
4662,-100
4663,-99
4664,-97
4665,-95
4666,-91
4667,-88
4668,-87
4669,-87
4670,-85
4671,-84
4672,-84
4673,-85
4674,-88
4675,-90
4676,-94
4677,-96
4678,-94
4679,-89
4680,-75
4681,-54
4682,-28
4683,0
4684,29
4685,60
4686,93
4687,128
4688,164
4689,201
4690,238
4691,272
4692,293
4693,293
4694,263
4695,207
4696,129
4697,40
4698,-49
4699,-129
4700,-198
4701,-245
4702,-269
4703,-279
4704,-279
4705,-271
4706,-239
4707,-239
4708,-213
4709,-187
4710,-159
4711,-131
4712,-108
4713,-88
4714,-70
4715,-60
4716,-57
4717,-55
4718,-56
4719,-56
4720,-55
4721,-55
4722,-54
4723,-52
4724,-52
4725,-54
4726,-54
4727,-57
4728,-61
4729,-66
4730,-71
4731,-75
4732,-76
4733,-77
4734,-73
4735,-69
4736,-66
4737,-63
4738,-61
4739,-59
4740,-58
4741,-59
4742,-61
4743,-61
4744,-61
4745,-60
4746,-57
4747,-55
4748,-51
4749,-47
4750,-41
4751,-34
4752,-28
4753,-22
4754,-16
4755,-13
4756,-15
4757,-19
4758,-24
4759,-30
4760,-35
4761,-40
4762,-42
4763,-40
4764,-38
4765,-34
4766,-27
4767,-21
4768,-15
4769,-11
4770,-7
4771,-6
4772,-6
4773,-6
4774,-4
4775,-5
4776,-7
4777,-11
4778,-17
4779,-24
4780,-27
4781,-25
4782,-20
4783,-14
4784,-7
4785,-2
4786,0
4787,3
4788,7
4789,11
4790,15
4791,19
4792,19
4793,15
4794,9
4795,3
4796,1
4797,1
4798,5
4799,10
4800,16
4801,21
4802,24
4803,24
4804,24
4805,23
4806,24
4807,27
4808,31
4809,33
4810,33
4811,31
4812,30
4813,29
4814,28
4815,30
4816,34
4817,38
4818,42
4819,43
4820,43
4821,39
4822,35
4823,33
4824,32
4825,31
4826,33
4827,35
4828,36
4829,36
4830,34
4831,32
4832,32
4833,33
4834,35
4835,37
4836,39
4837,39
4838,38
4839,35
4840,32
4841,30
4842,31
4843,32
4844,31
4845,26
4846,19
4847,9
4848,0
4849,-10
4850,-10
4851,-10
4852,-33
4853,-37
4854,-40
4855,-43
4856,-49
4857,-54
4858,-60
4859,-66
4860,-72
4861,-80
4862,-88
4863,-92
4864,-94
4865,-97
4866,-97
4867,-97
4868,-96
4869,-93
4870,-92
4871,-92
4872,-91
4873,-92
4874,-92
4875,-91
4876,-93
4877,-94
4878,-95
4879,-97
4880,-97
4881,-94
4882,-94
4883,-94
4884,-92
4885,-90
4886,-91
4887,-92
4888,-91
4889,-91
4890,-88
4891,-78
4892,-70
4893,-63
4894,-56
4895,-51
4896,-48
4897,-49
4898,-52
4899,-54
4900,-59
4901,-64
4902,-68
4903,-71
4904,-74
4905,-78
4906,-83
4907,-85
4908,-85
4909,-84
4910,-82
4911,-81
4912,-77
4913,-73
4914,-73
4915,-72
4916,-72
4917,-76
4918,-82
4919,-86
4920,-91
4921,-94
4922,-96
4923,-92
4924,-87
4925,-81
4926,-75
4927,-69
4928,-67
4929,-66
4930,-64
4931,-64
4932,-67
4933,-66
4934,-65
4935,-64
4936,-65
4937,-65
4938,-67
4939,-69
4940,-70
4941,-71
4942,-72
4943,-74
4944,-77
4945,-80
4946,-82
4947,-85
4948,-85
4949,-84
4950,-82
4951,-81
4952,-80
4953,-81
4954,-85
4955,-89
4956,-91
4957,-93
4958,-92
4959,-87
4960,-78
4961,-79
4962,-80
4963,-83
4964,-86
4965,-92
4966,-95
4967,-97
4968,-98
4969,-98
4970,-97
4971,-98
4972,-100
4973,-104
4974,-106
4975,-108
4976,-109
4977,-106
4978,-103
4979,-101
4980,-97
4981,-93
4982,-95
4983,-99
4984,-104
4985,-109
4986,-112
4987,-113
4988,-112
4989,-109
4990,-107
4991,-107
4992,-107
4993,-106
4994,-109
4995,-114
4996,-119
4997,-124
4998,-124
4999,-123
5000,-115
5001,-105
5002,-97
5003,-92
5004,-91
5005,-94
5006,-100
5007,-107
5008,-114
5009,-118
5010,-122
5011,-121
5012,-116
5013,-113
5014,-114
5015,-114
5016,-114
5017,-115
5018,-119
5019,-123
5020,-125
5021,-124
5022,-122
5023,-118
5024,-112
5025,-107
5026,-104
5027,-102
5028,-99
5029,-97
5030,-95
5031,-92
5032,-76
5033,-70
5034,-66
5035,-64
5036,-65
5037,-66
5038,-69
5039,-74
5040,-78
5041,-82
5042,-83
5043,-79
5044,-74
5045,-68
5046,-64
5047,-60
5048,-58
5049,-58
5050,-62
5051,-67
5052,-70
5053,-72
5054,-69
5055,-63
5056,-56
5057,-50
5058,-45
5059,-42
5060,-42
5061,-45
5062,-49
5063,-54
5064,-58
5065,-62
5066,-67
5067,-69
5068,-73
5069,-85
5070,-90
5071,-93
5072,-93
5073,-93
5074,-89
5075,-84
5076,-82
5077,-81
5078,-81
5079,-84
5080,-87
5081,-91
5082,-93
5083,-94
5084,-97
5085,-98
5086,-99
5087,-98
5088,-97
5089,-93
5090,-88
5091,-81
5092,-76
5093,-73
5094,-71
5095,-70
5096,-73
5097,-78
5098,-83
5099,-83
5100,-78
5101,-66
5102,-48
5103,-24
5104,4
5105,71
5106,108
5107,145
5108,181
5109,214
5110,246
5111,274
5112,298
5113,309
5114,301
5115,268
5116,209
5117,129
5118,35
5119,-63
5120,-154
5121,-232
5122,-286
5123,-317
5124,-325
5125,-320
5126,-304
5127,-281
5128,-253
5129,-222
5130,-193
5131,-172
5132,-155
5133,-143
5134,-143
5135,-134
5136,-128
5137,-122
5138,-115
5139,-107
5140,-98
5141,-91
5142,-80
5143,-78
5144,-77
5145,-79
5146,-81
5147,-81
5148,-77
5149,-72
5150,-66
5151,-61
5152,-59
5153,-58
5154,-58
5155,-62
5156,-64
5157,-67
5158,-68
5159,-65
5160,-61
5161,-62
5162,-61
5163,-59
5164,-59
5165,-60
5166,-62
5167,-66
5168,-73
5169,-80
5170,-85
5171,-86
5172,-87
5173,-86
5174,-81
5175,-73
5176,-68
5177,-65
5178,-61
5179,-61
5180,-61
5181,-62
5182,-63
5183,-64
5184,-65
5185,-63
5186,-60
5187,-61
5188,-59
5189,-52
5190,-46
5191,-42
5192,-43
5193,-46
5194,-51
5195,-56
5196,-60
5197,-63
5198,-62
5199,-59
5200,-54
5201,-49
5202,-46
5203,-45
5204,-44
5205,-44
5206,-41
5207,-39
5208,-37
5209,-35
5210,-31
5211,-27
5212,-23
5213,-20
5214,-13
5215,-10
5216,-9
5217,-10
5218,-10
5219,-10
5220,-10
5221,-8
5222,-6
5223,-4
5224,0
5225,2
5226,5
5227,8
5228,9
5229,7
5230,7
5231,5
5232,2
5233,2
5234,3
5235,3
5236,4
5237,3
5238,1
5239,0
5240,-2
5241,-1
5242,0
5243,4
5244,9
5245,13
5246,14
5247,12
5248,7
5249,1
5250,-5
5251,-17
5252,-19
5253,-19
5254,-17
5255,-15
5256,-12
5257,-7
5258,-1
5259,2
5260,7
5261,10
5262,10
5263,10
5264,7
5265,2
5266,-5
5267,-15
5268,-26
5269,-37
5270,-49
5271,-62
5272,-68
5273,-70
5274,-71
5275,-71
5276,-71
5277,-68
5278,-67
5279,-71
5280,-76
5281,-82
5282,-88
5283,-92
5284,-94
5285,-93
5286,-92
5287,-93
5288,-95
5289,-97
5290,-101
5291,-103
5292,-105
5293,-110
5294,-116
5295,-122
5296,-127
5297,-128
5298,-128
5299,-128
5300,-125
5301,-123
5302,-123
5303,-123
5304,-125
5305,-124
5306,-124
5307,-125
5308,-123
5309,-121
5310,-119
5311,-113
5312,-106
5313,-100
5314,-96
5315,-96
5316,-100
5317,-106
5318,-116
5319,-123
5320,-128
5321,-132
5322,-133
5323,-131
5324,-130
5325,-131
5326,-132
5327,-133
5328,-135
5329,-135
5330,-134
5331,-132
5332,-130
5333,-124
5334,-118
5335,-112
5336,-108
5337,-104
5338,-101
5339,-99
5340,-97
5341,-94
5342,-95
5343,-98
5344,-100
5345,-105
5346,-110
5347,-115
5348,-119
5349,-120
5350,-120
5351,-123
5352,-124
5353,-124
5354,-123
5355,-121
5356,-115
5357,-108
5358,-101
5359,-94
5360,-92
5361,-91
5362,-94
5363,-96
5364,-98
5365,-101
5366,-104
5367,-105
5368,-105
5369,-107
5370,-109
5371,-110
5372,-107
5373,-105
5374,-103
5375,-102
5376,-102
5377,-103
5378,-105
5379,-107
5380,-106
5381,-105
5382,-104
5383,-102
5384,-100
5385,-100
5386,-104
5387,-107
5388,-108
5389,-108
5390,-107
5391,-104
5392,-102
5393,-104
5394,-108
5395,-113
5396,-117
5397,-119
5398,-115
5399,-111
5400,-107
5401,-104
5402,-102
5403,-102
5404,-101
5405,-100
5406,-102
5407,-103
5408,-103
5409,-103
5410,-101
5411,-96
5412,-89
5413,-83
5414,-76
5415,-72
5416,-71
5417,-73
5418,-78
5419,-78
5420,-81
5421,-82
5422,-82
5423,-81
5424,-79
5425,-78
5426,-78
5427,-78
5428,-78
5429,-80
5430,-82
5431,-84
5432,-83
5433,-79
5434,-68
5435,-62
5436,-55
5437,-48
5438,-41
5439,-36
5440,-32
5441,-31
5442,-33
5443,-36
5444,-42
5445,-48
5446,-54
5447,-57
5448,-57
5449,-53
5450,-50
5451,-50
5452,-50
5453,-54
5454,-61
5455,-69
5456,-74
5457,-77
5458,-77
5459,-76
5460,-75
5461,-73
5462,-72
5463,-71
5464,-70
5465,-67
5466,-61
5467,-56
5468,-52
5469,-49
5470,-49
5471,-51
5472,-50
5473,-45
5474,-40
5475,-38
5476,-38
5477,-37
5478,-40
5479,-42
5480,-44
5481,-42
5482,-41
5483,-40
5484,-38
5485,-38
5486,-40
5487,-40
5488,-39
5489,-37
5490,-34
5491,-31
5492,-29
5493,-27
5494,-26
5495,-26
5496,-23
5497,-20
5498,-18
5499,-15
5500,-12
5501,-10
5502,-8
5503,-5
5504,-5
5505,-12
5506,-22
5507,-33
5508,-47
5509,-61
5510,-71
5511,-76
5512,-78
5513,-76
5514,-73
5515,-71
5516,-70
5517,-71
5518,-75
5519,-80
5520,-81
5521,-83
5522,-82
5523,-78
5524,-75
5525,-72
5526,-71
5527,-71
5528,-70
5529,-69
5530,-69
5531,-65
5532,-63
5533,-60
5534,-59
5535,-58
5536,-61
5537,-63
5538,-65
5539,-68
5540,-68
5541,-64
5542,-54
5543,-39
5544,-18
5545,8
5546,40
5547,73
5548,111
5549,153
5550,195
5551,235
5552,275
5553,313
5554,345
5555,355
5556,340
5557,297
5558,226
5559,130
5560,24
5561,24
5562,-82
5563,-178
5564,-252
5565,-300
5566,-321
5567,-319
5568,-307
5569,-287
5570,-260
5571,-231
5572,-203
5573,-178
5574,-156
5575,-138
5576,-124
5577,-117
5578,-114
5579,-116
5580,-117
5581,-117
5582,-117
5583,-114
5584,-108
5585,-105
5586,-103
5587,-101
5588,-102
5589,-104
5590,-107
5591,-108
5592,-108
5593,-109
5594,-109
5595,-107
5596,-107
5597,-107
5598,-108
5599,-106
5600,-105
5601,-99
5602,-92
5603,-83
5604,-75
5605,-71
5606,-71
5607,-73
5608,-78
5609,-84
5610,-87
5611,-86
5612,-84
5613,-82
5614,-78
5615,-78
5616,-79
5617,-78
5618,-78
5619,-76
5620,-78
5621,-80
5622,-81
5623,-85
5624,-86
5625,-85
5626,-84
5627,-84
5628,-83
5629,-85
5630,-89
5631,-94
5632,-96
5633,-95
5634,-92
5635,-84
5636,-76
5637,-70
5638,-64
5639,-58
5640,-54
5641,-53
5642,-53
5643,-53
5644,-53
5645,-51
5646,-50
5647,-48
5648,-44
5649,-44
5650,-49
5651,-54
5652,-56
5653,-56
5654,-54
5655,-50
5656,-46
5657,-41
5658,-38
5659,-36
5660,-36
5661,-37
5662,-35
5663,-32
5664,-24
5665,-17
5666,-12
5667,-8
5668,-4
5669,-2
5670,-4
5671,-5
5672,-5
5673,-6
5674,-7
5675,-6
5676,-5
5677,-6
5678,-7
5679,-7
5680,-6
5681,-6
5682,-9
5683,-11
5684,-13
5685,-14
5686,-11
5687,-7
5688,-3
5689,0
5690,4
5691,3
5692,2
5693,0
5694,0
5695,1
5696,1
5697,3
5698,4
5699,5
5700,5
5701,3
5702,1
5703,1
5704,-1
5705,-5
5706,-9
5707,-12
5708,-14
5709,-16
5710,-22
5711,-29
5712,-37
5713,-47
5714,-57
5715,-64
5716,-66
5717,-65
5718,-62
5719,-59
5720,-65
5721,-77
5722,-90
5723,-102
5724,-112
5725,-120
5726,-127
5727,-131
5728,-134
5729,-136
5730,-140
5731,-142
5732,-144
5733,-144
5734,-142
5735,-138
5736,-135
5737,-132
5738,-129
5739,-125
5740,-121
5741,-119
5742,-118
5743,-118
5744,-119
5745,-121
5746,-123
5747,-124
5748,-127
5749,-127
5750,-125
5751,-122
5752,-119
5753,-116
5754,-113
5755,-113
5756,-115
5757,-117
5758,-120
5759,-123
5760,-124
5761,-124
5762,-121
5763,-121
5764,-119
5765,-117
5766,-116
5767,-117
5768,-115
5769,-115
5770,-113
5771,-108
5772,-102
5773,-96
5774,-91
5775,-86
5776,-85
5777,-86
5778,-86
5779,-86
5780,-86
5781,-87
5782,-86
5783,-81
5784,-76
5785,-74
5786,-71
5787,-66
5788,-65
5789,-66
5790,-68
5791,-80
5792,-87
5793,-90
5794,-90
5795,-89
5796,-87
5797,-83
5798,-80
5799,-80
5800,-82
5801,-82
5802,-83
5803,-83
5804,-82
5805,-81
5806,-83
5807,-83
5808,-83
5809,-84
5810,-85
5811,-84
5812,-81
5813,-79
5814,-78
5815,-79
5816,-79
5817,-80
5818,-81
5819,-79
5820,-76
5821,-73
5822,-70
5823,-66
5824,-64
5825,-69
5826,-72
5827,-77
5828,-82
5829,-89
5830,-94
5831,-102
5832,-110
5833,-116
5834,-122
5835,-123
5836,-122
5837,-117
5838,-111
5839,-104
5840,-98
5841,-94
5842,-94
5843,-97
5844,-99
5845,-99
5846,-101
5847,-104
5848,-106
5849,-104
5850,-104
5851,-103
5852,-103
5853,-105
5854,-107
5855,-108
5856,-108
5857,-104
5858,-99
5859,-96
5860,-93
5861,-92
5862,-93
5863,-92
5864,-92
5865,-94
5866,-93
5867,-92
5868,-92
5869,-93
5870,-95
5871,-95
5872,-93
5873,-91
5874,-88
5875,-86
5876,-86
5877,-89
5878,-91
5879,-92
5880,-93
5881,-92
5882,-91
5883,-87
5884,-82
5885,-76
5886,-71
5887,-68
5888,-64
5889,-62
5890,-63
5891,-63
5892,-62
5893,-63
5894,-63
5895,-64
5896,-68
5897,-74
5898,-79
5899,-82
5900,-83
5901,-87
5902,-87
5903,-85
5904,-86
5905,-88
5906,-89
5907,-88
5908,-84
5909,-81
5910,-76
5911,-70
5912,-64
5913,-60
5914,-56
5915,-54
5916,-56
5917,-60
5918,-63
5919,-65
5920,-67
5921,-69
5922,-67
5923,-63
5924,-60
5925,-59
5926,-60
5927,-62
5928,-65
5929,-66
5930,-65
5931,-59
5932,-54
5933,-51
5934,-51
5935,-51
5936,-52
5937,-51
5938,-48
5939,-43
5940,-35
5941,-27
5942,-20
5943,-15
5944,-11
5945,-15
5946,-20
5947,-25
5948,-34
5949,-43
5950,-53
5951,-64
5952,-73
5953,-79
5954,-85
5955,-87
5956,-87
5957,-87
5958,-85
5959,-82
5960,-83
5961,-86
5962,-90
5963,-93
5964,-96
5965,-96
5966,-92
5967,-88
5968,-87
5969,-85
5970,-85
5971,-86
5972,-90
5973,-93
5974,-94
5975,-92
5976,-92
5977,-92
5978,-93
5979,-98
5980,-102
5981,-102
5982,-103
5983,-101
5984,-93
5985,-80
5986,-61
5987,-35
5988,-35
5989,-6
5990,27
5991,66
5992,106
5993,148
5994,189
5995,224
5996,253
5997,278
5998,289
5999,279
6000,244
6001,183
6002,5
6003,-92
6004,-183
6005,-256
6006,-305
6007,-332
6008,-337
6009,-328
6010,-310
6011,-286
6012,-258
6013,-231
6014,-204
6015,-180
6016,-162
6017,-151
6018,-141
6019,-136
6020,-136
6021,-137
6022,-139
6023,-139
6024,-139
6025,-137
6026,-133
6027,-128
6028,-126
6029,-127
6030,-128
6031,-129
6032,-128
6033,-128
6034,-127
6035,-125
6036,-123
6037,-123
6038,-122
6039,-121
6040,-119
6041,-114
6042,-106
6043,-97
6044,-92
6045,-89
6046,-86
6047,-85
6048,-86
6049,-89
6050,-91
6051,-92
6052,-94
6053,-93
6054,-89
6055,-87
6056,-84
6057,-81
6058,-80
6059,-82
6060,-86
6061,-90
6062,-92
6063,-92
6064,-90
6065,-85
6066,-77
6067,-71
6068,-64
6069,-60
6070,-60
6071,-63
6072,-65
6073,-73
6074,-76
6075,-77
6076,-75
6077,-71
6078,-66
6079,-62
6080,-60
6081,-59
6082,-59
6083,-60
6084,-63
6085,-64
6086,-63
6087,-59
6088,-53
6089,-48
6090,-46
6091,-45
6092,-47
6093,-52
6094,-55
6095,-58
6096,-60
6097,-59
6098,-55
6099,-51
6100,-48
6101,-44
6102,-42
6103,-38
6104,-35
6105,-32
6106,-28
6107,-24
6108,-24
6109,-24
6110,-24
6111,-25
6112,-25
6113,-25
6114,-23
6115,-21
6116,-19
6117,-16
6118,-12
6119,-9
6120,-12
6121,-13
6122,-14
6123,-15
6124,-16
6125,-15
6126,-13
6127,-9
6128,-6
6129,-7
6130,-7
6131,-8
6132,-11
6133,-16
6134,-16
6135,-17
6136,-19
6137,-21
6138,-25
6139,-30
6140,-35
6141,-39
6142,-42
6143,-45
6144,-49
6145,-54
6146,-60
6147,-65
6148,-68
6149,-72
6150,-74
6151,-76
6152,-78
6153,-78
6154,-82
6155,-85
6156,-87
6157,-88
6158,-92
6159,-94
6160,-98
6161,-103
6162,-108
6163,-113
6164,-120
6165,-127
6166,-133
6167,-137
6168,-139
6169,-142
6170,-143
6171,-145
6172,-148
6173,-154
6174,-158
6175,-162
6176,-167
6177,-170
6178,-169
6179,-167
6180,-165
6181,-158
6182,-155
6183,-153
6184,-151
6185,-148
6186,-146
6187,-146
6188,-149
6189,-150
6190,-150
6191,-151
6192,-152
6193,-153
6194,-154
6195,-155
6196,-153
6197,-150
6198,-143
6199,-134
6200,-123
6201,-112
6202,-104
6203,-101
6204,-105
6205,-110
6206,-115
6207,-121
6208,-125
6209,-127
6210,-128
6211,-126
6212,-124
6213,-123
6214,-123
6215,-123
6216,-117
6217,-114
6218,-114
6219,-114
6220,-112
6221,-113
6222,-116
6223,-119
6224,-121
6225,-122
6226,-123
6227,-122
6228,-118
6229,-114
6230,-111
6231,-106
6232,-99
6233,-94
6234,-92
6235,-91
6236,-92
6237,-93
6238,-95
6239,-94
6240,-92
6241,-91
6242,-91
6243,-92
6244,-94
6245,-96
6246,-99
6247,-102
6248,-105
6249,-109
6250,-115
6251,-120
6252,-129
6253,-130
6254,-127
6255,-124
6256,-119
6257,-115
6258,-113
6259,-110
6260,-109
6261,-110
6262,-107
6263,-104
6264,-105
6265,-103
6266,-100
6267,-100
6268,-103
6269,-107
6270,-112
6271,-116
6272,-116
6273,-121
6274,-123
6275,-120
6276,-118
6277,-119
6278,-119
6279,-119
6280,-120
6281,-120
6282,-119
6283,-116
6284,-111
6285,-107
6286,-103
6287,-101
6288,-100
6289,-107
6290,-111
6291,-113
6292,-116
6293,-118
6294,-117
6295,-115
6296,-112
6297,-111
6298,-111
6299,-112
6300,-113
6301,-113
6302,-112
6303,-109
6304,-103
6305,-98
6306,-93
6307,-91
6308,-94
6309,-99
6310,-104
6311,-107
6312,-108
6313,-105
6314,-100
6315,-94
6316,-88
6317,-85
6318,-87
6319,-90
6320,-97
6321,-103
6322,-106
6323,-104
6324,-94
6325,-84
6326,-77
6327,-71
6328,-67
6329,-69
6330,-72
6331,-75
6332,-79
6333,-78
6334,-73
6335,-69
6336,-65
6337,-62
6338,-63
6339,-64
6340,-66
6341,-68
6342,-68
6343,-64
6344,-58
6345,-50
6346,-43
6347,-39
6348,-35
6349,-34
6350,-32
6351,-29
6352,-26
6353,-22
6354,-17
6355,-14
6356,-12
6357,-14
6358,-18
6359,-33
6360,-42
6361,-50
6362,-54
6363,-59
6364,-65
6365,-69
6366,-68
6367,-63
6368,-58
6369,-52
6370,-46
6371,-42
6372,-43
6373,-47
6374,-54
6375,-61
6376,-65
6377,-67
6378,-61
6379,-55
6380,-51
6381,-48
6382,-45
6383,-42
6384,-39
6385,-39
6386,-38
6387,-35
6388,-34
6389,-36
6390,-38
6391,-42
6392,-44
6393,-42
6394,-37
6395,-11
6396,9
6397,38
6398,71
6399,106
6400,142
6401,179
6402,217
6403,250
6404,284
6405,314
6406,332
6407,336
6408,317
6409,269
6410,199
6411,110
6412,15
6413,-75
6414,-75
6415,-154
6416,-214
6417,-250
6418,-268
6419,-272
6420,-266
6421,-251
6422,-231
6423,-206
6424,-178
6425,-150
6426,-122
6427,-100
6428,-82
6429,-70
6430,-62
6431,-58
6432,-57
6433,-56
6434,-55
6435,-52
6436,-44
6437,-34
6438,-28
6439,-23
6440,-19
6441,-19
6442,-21
6443,-27
6444,-33
6445,-37
6446,-43
6447,-46
6448,-46
6449,-46
6450,-48
6451,-48
6452,-47
6453,-45
6454,-43
6455,-42
6456,-43
6457,-44
6458,-44
6459,-44
6460,-42
6461,-41
6462,-38
6463,-33
6464,-26
6465,-21
6466,-18
6467,-14
6468,-17
6469,-17
6470,-19
6471,-22
6472,-22
6473,-19
6474,-12
6475,-4
6476,0
6477,1
6478,0
6479,-5
6480,-13
6481,-18
6482,-23
6483,-26
6484,-25
6485,-21
6486,-18
6487,-13
6488,-11
6489,-10
6490,-11
6491,-11
6492,-11
6493,-9
6494,-8
6495,-9
6496,-11
6497,-13
6498,-19
6499,-23
6500,-25
6501,-25
6502,-21
6503,-14
6504,0
6505,4
6506,6
6507,7
6508,10
6509,10
6510,12
6511,17
6512,19
6513,19
6514,20
6515,21
6516,23
6517,27
6518,32
6519,38
6520,43
6521,44
6522,41
6523,38
6524,32
6525,28
6526,29
6527,33
6528,41
6529,49
6530,57
6531,62
6532,65
6533,65
6534,66
6535,68
6536,68
6537,68
6538,63
6539,53
6540,46
6541,41
6542,38
6543,37
6544,38
6545,40
6546,41
6547,42
6548,42
6549,41
6550,40
6551,37
6552,32
6553,26
6554,22
6555,17
6556,12
6557,12
6558,8
6559,6
6560,2
6561,-2
6562,-6
6563,-10
6564,-16
6565,-21
6566,-25
6567,-29
6568,-32
6569,-35
6570,-37
6571,-37
6572,-38
6573,-40
6574,-41
6575,-45
6576,-63
6577,-71
6578,-80
6579,-88
6580,-94
6581,-96
6582,-93
6583,-90
6584,-89
6585,-86
6586,-87
6587,-91
6588,-93
6589,-94
6590,-95
6591,-94
6592,-95
6593,-93
6594,-91
6595,-93
6596,-95
6597,-97
6598,-96
6599,-94
6600,-91
6601,-87
6602,-82
6603,-80
6604,-80
6605,-80
6606,-82
6607,-86
6608,-91
6609,-93
6610,-95
6611,-96
6612,-96
6613,-97
6614,-98
6615,-99
6616,-100
6617,-100
6618,-102
6619,-102
6620,-100
6621,-100
6622,-100
6623,-98
6624,-94
6625,-90
6626,-85
6627,-80
6628,-77
6629,-76
6630,-78
6631,-81
6632,-82
6633,-85
6634,-85
6635,-82
6636,-78
6637,-75
6638,-74
6639,-76
6640,-77
6641,-79
6642,-82
6643,-84
6644,-87
6645,-92
6646,-95
6647,-96
6648,-95
6649,-92
6650,-90
6651,-86
6652,-82
6653,-82
6654,-82
6655,-82
6656,-82
6657,-80
6658,-79
6659,-78
6660,-77
6661,-74
6662,-74
6663,-73
6664,-72
6665,-75
6666,-77
6667,-76
6668,-75
6669,-72
6670,-68
6671,-64
6672,-63
6673,-63
6674,-65
6675,-69
6676,-73
6677,-77
6678,-79
6679,-80
6680,-78
6681,-76
6682,-73
6683,-66
6684,-62
6685,-60
6686,-58
6687,-57
6688,-59
6689,-63
6690,-69
6691,-72
6692,-77
6693,-82
6694,-84
6695,-83
6696,-84
6697,-84
6698,-82
6699,-82
6700,-82
6701,-80
6702,-79
6703,-80
6704,-81
6705,-83
6706,-85
6707,-87
6708,-88
6709,-89
6710,-89
6711,-88
6712,-88
6713,-85
6714,-84
6715,-83
6716,-82
6717,-81
6718,-81
6719,-83
6720,-89
6721,-91
6722,-92
6723,-92
6724,-90
6725,-87
6726,-81
6727,-76
6728,-72
6729,-69
6730,-70
6731,-72
6732,-76
6733,-79
6734,-81
6735,-81
6736,-78
6737,-72
6738,-67
6739,-63
6740,-58
6741,-56
6742,-53
6743,-51
6744,-52
6745,-53
6746,-55
6747,-59
6748,-61
6749,-64
6750,-65
6751,-65
6752,-66
6753,-66
6754,-66
6755,-64
6756,-60
6757,-58
6758,-58
6759,-57
6760,-57
6761,-58
6762,-57
6763,-56
6764,-54
6765,-50
6766,-47
6767,-46
6768,-45
6769,-46
6770,-49
6771,-49
6772,-48
6773,-46
6774,-42
6775,-36
6776,-33
6777,-29
6778,-26
6779,-27
6780,-28
6781,-31
6782,-31
6783,-30
6784,-29
6785,-28
6786,-27
6787,-27
6788,-25
6789,-22
6790,-16
6791,-10
6792,-5
6793,0
6794,1
6795,2
6796,4
6797,7
6798,9
6799,7
6800,3
6801,-2
6802,-12
6803,-24
6804,-35
6805,-43
6806,-48
6807,-50
6808,-51
6809,-50
6810,-50
6811,-50
6812,-52
6813,-54
6814,-56
6815,-58
6816,-59
6817,-57
6818,-54
6819,-51
6820,-47
6821,-46
6822,-46
6823,-45
6824,-46
6825,-46
6826,-42
6827,-39
6828,-37
6829,-42
6830,-49
6831,-55
6832,-60
6833,-63
6834,-60
6835,-56
6836,-45
6837,-30
6838,-14
6839,7
6840,36
6841,36
6842,69
6843,108
6844,152
6845,197
6846,238
6847,273
6848,306
6849,337
6850,357
6851,359
6852,337
6853,287
6854,214
6855,120
6856,20
6857,-72
6858,-152
6859,-217
6860,-257
6861,-276
6862,-283
6863,-279
6864,-266
6865,-217
6866,-188
6867,-160
6868,-136
6869,-118
6870,-107
6871,-102
6872,-99
6873,-97
6874,-96
6875,-92
6876,-88
6877,-82
6878,-75
6879,-68
6880,-67
6881,-67
6882,-71
6883,-74
6884,-77
6885,-79
6886,-78
6887,-76
6888,-74
6889,-74
6890,-73
6891,-74
6892,-76
6893,-77
6894,-77
6895,-75
6896,-73
6897,-73
6898,-72
6899,-73
6900,-76
6901,-83
6902,-85
6903,-85
6904,-82
6905,-79
6906,-77
6907,-74
6908,-72
6909,-69
6910,-68
6911,-67
6912,-65
6913,-62
6914,-59
6915,-59
6916,-59
6917,-57
6918,-57
6919,-58
6920,-58
6921,-58
6922,-57
6923,-53
6924,-51
6925,-47
6926,-43
6927,-40
6928,-39
6929,-39
6930,-42
6931,-46
6932,-49
6933,-52
6934,-52
6935,-51
6936,-47
6937,-32
6938,-28
6939,-24
6940,-22
6941,-20
6942,-21
6943,-25
6944,-27
6945,-26
6946,-26
6947,-23
6948,-19
6949,-16
6950,-12
6951,-6
6952,-1
6953,3
6954,7
6955,8
6956,12
6957,16
6958,17
6959,18
6960,20
6961,20
6962,20
6963,19
6964,19
6965,20
6966,21
6967,21
6968,21
6969,21
6970,21
6971,23
6972,27
6973,31
6974,34
6975,33
6976,31
6977,28
6978,24
6979,23
6980,26
6981,31
6982,36
6983,36
6984,39
6985,41
6986,41
6987,38
6988,32
6989,27
6990,24
6991,20
6992,19
6993,19
6994,18
6995,17
6996,15
6997,12
6998,9
6999,4
7000,0
7001,-4
7002,-5
7003,-7
7004,-9
7005,-12
7006,-15
7007,-16
7008,-17
7009,-20
7010,-24
7011,-30
7012,-36
7013,-41
7014,-45
7015,-48
7016,-50
7017,-52
7018,-55
7019,-58
7020,-62
7021,-65
7022,-67
7023,-68
7024,-67
7025,-63
7026,-61
7027,-60
7028,-60
7029,-62
7030,-63
7031,-63
7032,-63
7033,-62
7034,-62
7035,-62
7036,-63
7037,-67
7038,-74
7039,-80
7040,-86
7041,-88
7042,-87
7043,-85
7044,-75
7045,-73
7046,-69
7047,-67
7048,-68
7049,-70
7050,-72
7051,-77
7052,-80
7053,-83
7054,-83
7055,-81
7056,-79
7057,-75
7058,-68
7059,-65
7060,-65
7061,-62
7062,-61
7063,-64
7064,-67
7065,-69
7066,-72
7067,-73
7068,-73
7069,-70
7070,-67
7071,-66
7072,-65
7073,-62
7074,-61
7075,-62
7076,-62
7077,-63
7078,-64
7079,-63
7080,-67
7081,-70
7082,-73
7083,-78
7084,-81
7085,-82
7086,-82
7087,-80
7088,-74
7089,-66
7090,-60
7091,-56
7092,-56
7093,-58
7094,-64
7095,-72
7096,-79
7097,-82
7098,-83
7099,-78
7100,-71
7101,-63
7102,-59
7103,-59
7104,-60
7105,-61
7106,-64
7107,-68
7108,-70
7109,-73
7110,-77
7111,-82
7112,-86
7113,-87
7114,-87
7115,-86
7116,-77
7117,-77
7118,-79
7119,-79
7120,-79
7121,-78
7122,-77
7123,-74
7124,-71
7125,-71
7126,-69
7127,-69
7128,-67
7129,-67
7130,-69
7131,-70
7132,-69
7133,-71
7134,-74
7135,-75
7136,-80
7137,-80
7138,-79
7139,-79
7140,-77
7141,-73
7142,-73
7143,-72
7144,-72
7145,-73
7146,-73
7147,-74
7148,-74
7149,-73
7150,-72
7151,-72
7152,-69
7153,-63
7154,-62
7155,-63
7156,-66
7157,-71
7158,-77
7159,-82
7160,-84
7161,-83
7162,-80
7163,-77
7164,-77
7165,-75
7166,-74
7167,-72
7168,-73
7169,-72
7170,-70
7171,-67
7172,-65
7173,-64
7174,-64
7175,-66
7176,-69
7177,-72
7178,-75
7179,-77
7180,-82
7181,-86
7182,-88
7183,-90
7184,-91
7185,-91
7186,-92
7187,-90
7188,-88
7189,-86
7190,-86
7191,-86
7192,-87
7193,-87
7194,-86
7195,-84
7196,-84
7197,-84
7198,-84
7199,-82
7200,-82
7201,-81
7202,-76
7203,-69
7204,-64
7205,-58
7206,-52
7207,-50
7208,-49
7209,-49
7210,-50
7211,-50
7212,-48
7213,-46
7214,-45
7215,-46
7216,-49
7217,-53
7218,-58
7219,-64
7220,-68
7221,-68
7222,-67
7223,-67
7224,-66
7225,-68
7226,-67
7227,-67
7228,-68
7229,-69
7230,-69
7231,-68
7232,-63
7233,-57
7234,-52
7235,-48
7236,-46
7237,-45
7238,-42
7239,-39
7240,-33
7241,-26
7242,-18
7243,-9
7244,-1
7245,4
7246,6
7247,5
7248,4
7249,1
7250,-3
7251,-9
7252,-16
7253,-27
7254,-38
7255,-45
7256,-51
7257,-57
7258,-62
7259,-69
7260,-84
7261,-90
7262,-91
7263,-87
7264,-84
7265,-79
7266,-70
7267,-65
7268,-65
7269,-63
7270,-63
7271,-65
7272,-68
7273,-68
7274,-69
7275,-67
7276,-64
7277,-64
7278,-63
7279,-62
7280,-65
7281,-68
7282,-72
7283,-75
7284,-76
7285,-74
7286,-71
7287,-66
7288,-62
7289,-61
7290,-58
7291,-54
7292,-43
7293,-24
7294,0
7295,30
7296,69
7297,154
7298,196
7299,234
7300,267
7301,299
7302,328
7303,341
7304,334
7305,302
7306,242
7307,158
7308,60
7309,-42
7310,-138
7311,-218
7312,-276
7313,-307
7314,-316
7315,-314
7316,-299
7317,-276
7318,-248
7319,-219
7320,-191
7321,-167
7322,-150
7323,-140
7324,-133
7325,-128
7326,-126
7327,-124
7328,-121
7329,-118
7330,-114
7331,-110
7332,-108
7333,-108
7334,-111
7335,-115
7336,-119
7337,-123
7338,-125
7339,-122
7340,-119
7341,-114
7342,-108
7343,-101
7344,-97
7345,-93
7346,-92
7347,-96
7348,-101
7349,-106
7350,-108
7351,-109
7352,-110
7353,-109
7354,-106
7355,-104
7356,-105
7357,-106
7358,-110
7359,-114
7360,-116
7361,-116
7362,-116
7363,-115
7364,-115
7365,-113
7366,-111
7367,-109
7368,-103
7369,-101
7370,-99
7371,-94
7372,-91
7373,-89
7374,-83
7375,-77
7376,-74
7377,-70
7378,-68
7379,-72
7380,-75
7381,-81
7382,-86
7383,-88
7384,-88
7385,-87
7386,-81
7387,-76
7388,-72
7389,-67
7390,-63
7391,-61
7392,-59
7393,-61
7394,-63
7395,-65
7396,-65
7397,-65
7398,-63
7399,-61
7400,-58
7401,-57
7402,-55
7403,-48
7404,-44
7405,-37
7406,-31
7407,-25
7408,-24
7409,-24
7410,-24
7411,-25
7412,-28
7413,-31
7414,-30
7415,-28
7416,-25
7417,-22
7418,-22
7419,-23
7420,-26
7421,-25
7422,-22
7423,-19
7424,-14
7425,-8
7426,-3
7427,0
7428,2
7429,2
7430,2
7431,1
7432,2
7433,2
7434,5
7435,6
7436,6
7437,6
7438,5
7439,3
7440,-1
7441,-12
7442,-17
7443,-20
7444,-22
7445,-23
7446,-23
7447,-25
7448,-26
7449,-24
7450,-24
7451,-23
7452,-24
7453,-27
7454,-30
7455,-32
7456,-36
7457,-41
7458,-47
7459,-52
7460,-58
7461,-63
7462,-70
7463,-74
7464,-78
7465,-83
7466,-86
7467,-89
7468,-95
7469,-101
7470,-104
7471,-106
7472,-105
7473,-104
7474,-102
7475,-102
7476,-103
7477,-105
7478,-111
7479,-114
7480,-116
7481,-121
7482,-127
7483,-131
7484,-136
7485,-143
7486,-148
7487,-149
7488,-148
7489,-146
7490,-144
7491,-141
7492,-138
7493,-141
7494,-144
7495,-146
7496,-148
7497,-150
7498,-150
7499,-148
7500,-146
7501,-143
7502,-143
7503,-145
7504,-147
7505,-148
7506,-148
7507,-145
7508,-140
7509,-133
7510,-127
7511,-122
7512,-119
7513,-125
7514,-131
7515,-135
7516,-136
7517,-136
7518,-135
7519,-132
7520,-129
7521,-127
7522,-126
7523,-125
7524,-124
7525,-125
7526,-123
7527,-119
7528,-113
7529,-106
7530,-100
7531,-94
7532,-90
7533,-92
7534,-97
7535,-101
7536,-107
7537,-111
7538,-113
7539,-110
7540,-105
7541,-99
7542,-95
7543,-91
7544,-89
7545,-91
7546,-92
7547,-92
7548,-93
7549,-93
7550,-99
7551,-101
7552,-101
7553,-107
7554,-113
7555,-116
7556,-116
7557,-116
7558,-113
7559,-111
7560,-112
7561,-113
7562,-115
7563,-114
7564,-110
7565,-106
7566,-103
7567,-97
7568,-91
7569,-87
7570,-84
7571,-80
7572,-79
7573,-81
7574,-85
7575,-93
7576,-104
7577,-114
7578,-125
7579,-131
7580,-130
7581,-126
7582,-121
7583,-113
7584,-107
7585,-104
7586,-101
7587,-106
7588,-108
7589,-111
7590,-112
7591,-109
7592,-106
7593,-105
7594,-105
7595,-106
7596,-110
7597,-113
7598,-117
7599,-122
7600,-127
7601,-130
7602,-130
7603,-129
7604,-130
7605,-130
7606,-128
7607,-125
7608,-124
7609,-123
7610,-123
7611,-123
7612,-126
7613,-128
7614,-128
7615,-129
7616,-132
7617,-130
7618,-126
7619,-122
7620,-118
7621,-114
7622,-109
7623,-105
7624,-106
7625,-108
7626,-111
7627,-112
7628,-111
7629,-111
7630,-111
7631,-108
7632,-107
7633,-105
7634,-102
7635,-98
7636,-94
7637,-90
7638,-86
7639,-82
7640,-82
7641,-86
7642,-90
7643,-94
7644,-97
7645,-97
7646,-97
7647,-95
7648,-94
7649,-93
7650,-93
7651,-92
7652,-95
7653,-99
7654,-99
7655,-99
7656,-99
7657,-98
7658,-92
7659,-91
7660,-90
7661,-88
7662,-85
7663,-86
7664,-85
7665,-85
7666,-88
7667,-93
7668,-99
7669,-103
7670,-108
7671,-111
7672,-111
7673,-110
7674,-107
7675,-105
7676,-103
7677,-100
7678,-98
7679,-97
7680,-94
7681,-92
7682,-90
7683,-88
7684,-84
7685,-78
7686,-72
7687,-66
7688,-59
7689,-54
7690,-51
7691,-48
7692,-47
7693,-53
7694,-59
7695,-69
7696,-81
7697,-91
7698,-99
7699,-106
7700,-111
7701,-115
7702,-116
7703,-114
7704,-112
7705,-109
7706,-105
7707,-102
7708,-103
7709,-105
7710,-108
7711,-113
7712,-118
7713,-121
7714,-123
7715,-125
7716,-125
7717,-125
7718,-126
7719,-128
7720,-128
7721,-128
7722,-128
7723,-128
7724,-129
7725,-129
7726,-126
7727,-119
7728,-110
7729,-99
7730,-88
7731,-63
7732,-46
7733,-29
7734,-9
7735,17
7736,47
7737,83
7738,123
7739,164
7740,202
7741,235
7742,260
7743,269
7744,255
7745,211
7746,148
7747,71
7748,-15
7749,-99
7750,-171
7751,-229
7752,-270
7753,-293
7754,-302
7755,-303
7756,-295
7757,-278
7758,-255
7759,-227
7760,-197
7761,-171
7762,-148
7763,-128
7764,-113
7765,-101
7766,-90
7767,-88
7768,-89
7769,-94
7770,-97
7771,-102
7772,-106
7773,-109
7774,-110
7775,-109
7776,-104
7777,-97
7778,-91
7779,-84
7780,-80
7781,-80
7782,-82
7783,-87
7784,-92
7785,-93
7786,-93
7787,-91
7788,-84
7789,-81
7790,-77
7791,-76
7792,-76
7793,-77
7794,-77
7795,-78
7796,-81
7797,-81
7798,-83
7799,-84
7800,-84
7801,-81
7802,-73
7803,-70
7804,-68
7805,-65
7806,-63
7807,-61
7808,-56
7809,-54
7810,-53
7811,-52
7812,-52
7813,-53
7814,-53
7815,-52
7816,-49
7817,-45
7818,-45
7819,-47
7820,-49
7821,-53
7822,-56
7823,-57
7824,-57
7825,-56
7826,-53
7827,-50
7828,-47
7829,-44
7830,-44
7831,-42
7832,-39
7833,-37
7834,-35
7835,-35
7836,-35
7837,-33
7838,-33
7839,-35
7840,-38
7841,-39
7842,-39
7843,-39
7844,-36
7845,-33
7846,-33
7847,-34
7848,-34
7849,-36
7850,-38
7851,-34
7852,-30
7853,-23
7854,-17
7855,-10
7856,-5
7857,0
7858,0
7859,0
7860,1
7861,0
7862,-1
7863,0
7864,0
7865,-1
7866,0
7867,2
7868,6
7869,6
7870,6
7871,7
7872,7
7873,5
7874,-5
7875,-10
7876,-14
7877,-18
7878,-21
7879,-25
7880,-29
7881,-35
7882,-37
7883,-40
7884,-41
7885,-38
7886,-37
7887,-34
7888,-29
7889,-27
7890,-27
7891,-26
7892,-28
7893,-30
7894,-32
7895,-34
7896,-36
7897,-38
7898,-39
7899,-42
7900,-43
7901,-47
7902,-52
7903,-59
7904,-69
7905,-78
7906,-86
7907,-93
7908,-99
7909,-105
7910,-108
7911,-110
7912,-112
7913,-114
7914,-116
7915,-117
7916,-118
7917,-118
7918,-119
7919,-120
7920,-122
7921,-125
7922,-129
7923,-132
7924,-133
7925,-134
7926,-131
7927,-125
7928,-123
7929,-122
7930,-123
7931,-124
7932,-123
7933,-122
7934,-120
7935,-116
7936,-112
7937,-110
7938,-108
7939,-108
7940,-109
7941,-110
7942,-109
7943,-107
7944,-105
7945,-104
7946,-102
7947,-101
7948,-100
7949,-100
7950,-101
7951,-102
7952,-104
7953,-106
7954,-107
7955,-109
7956,-111
7957,-113
7958,-113
7959,-113
7960,-111
7961,-106
7962,-99
7963,-91
7964,-85
7965,-82
7966,-79
7967,-77
7968,-75
7969,-73
7970,-70
7971,-69
7972,-70
7973,-74
7974,-77
7975,-80
7976,-83
7977,-84
7978,-80
7979,-80
7980,-80
7981,-77
7982,-78
7983,-81
7984,-81
7985,-80
7986,-80
7987,-79
7988,-79
7989,-80
7990,-81
7991,-82
7992,-82
7993,-79
7994,-75
7995,-72
7996,-69
7997,-68
7998,-69
7999,-69
8000,-70
8001,-71
8002,-73
8003,-74
8004,-75
8005,-78
8006,-77
8007,-77
8008,-75
8009,-74
8010,-76
8011,-83
8012,-90
8013,-99
8014,-106
8015,-111
8016,-113
8017,-105
8018,-100
8019,-96
8020,-92
8021,-92
8022,-91
8023,-90
8024,-90
8025,-90
8026,-90
8027,-90
8028,-87
8029,-85
8030,-81
8031,-78
8032,-74
8033,-71
8034,-69
8035,-66
8036,-63
8037,-62
8038,-61
8039,-60
8040,-60
8041,-62
8042,-62
8043,-60
8044,-57
8045,-52
8046,-48
8047,-44
8048,-43
8049,-47
8050,-51
8051,-55
8052,-54
8053,-51
8054,-43
8055,-39
8056,-36
8057,-34
8058,-35
8059,-40
8060,-43
8061,-47
8062,-51
8063,-55
8064,-57
8065,-60
8066,-59
8067,-61
8068,-63
8069,-62
8070,-64
8071,-65
8072,-62
8073,-63
8074,-63
8075,-63
8076,-66
8077,-68
8078,-67
8079,-68
8080,-66
8081,-64
8082,-65
8083,-65
8084,-67
8085,-69
8086,-71
8087,-68
8088,-62
8089,-55
8090,-51
8091,-46
8092,-43
8093,-41
8094,-38
8095,-35
8096,-33
8097,-34
8098,-36
8099,-37
8100,-38
8101,-42
8102,-45
8103,-46
8104,-46
8105,-44
8106,-38
8107,-32
8108,-26
8109,-21
8110,-17
8111,-15
8112,-14
8113,-16
8114,-19
8115,-20
8116,-19
8117,-17
8118,-14
8119,-10
8120,-7
8121,-5
8122,-5
8123,-8
8124,-13
8125,-20
8126,-27
8127,-34
8128,-41
8129,-47
8130,-53
8131,-58
8132,-60
8133,-61
8134,-62
8135,-61
8136,-59
8137,-59
8138,-58
8139,-57
8140,-56
8141,-53
8142,-48
8143,-44
8144,-38
8145,-32
8146,-31
8147,-31
8148,-33
8149,-38
8150,-40
8151,-42
8152,-43
8153,-42
8154,-39
8155,-38
8156,-36
8157,-31
8158,-30
8159,-29
8160,-27
8161,-22
8162,-12
8163,3
8164,29
8165,64
8166,107
8167,153
8168,200
8169,242
8170,278
8171,310
8172,337
8173,354
8174,356
8175,338
8176,292
8177,225
8178,141
8179,49
8180,-41
8181,-120
8182,-183
8183,-224
8184,-245
8185,-251
8186,-247
8187,-234
8188,-216
8189,-193
8190,-168
8191,-144
8192,-119
8193,-84
8194,-70
8195,-58
8196,-50
8197,-43
8198,-38
8199,-35
8200,-33
8201,-31
8202,-31
8203,-32
8204,-34
8205,-36
8206,-37
8207,-37
8208,-36
8209,-37
8210,-37
8211,-37
8212,-39
8213,-41
8214,-43
8215,-43
8216,-44
8217,-43
8218,-40
8219,-36
8220,-33
8221,-28
8222,-22
8223,-16
8224,-12
8225,-11
8226,-11
8227,-15
8228,-17
8229,-19
8230,-19
8231,-21
8232,-22
8233,-22
8234,-21
8235,-18
8236,-17
8237,-18
8238,-18
8239,-22
8240,-26
8241,-29
8242,-31
8243,-33
8244,-31
8245,-25
8246,-19
8247,-13
8248,-7
8249,-3
8250,2
8251,5
8252,4
8253,1
8254,-5
8255,-14
8256,-22
8257,-27
8258,-31
8259,-28
8260,-19
8261,-12
8262,5
8263,5
8264,13
8265,20
8266,25
8267,24
8268,25
8269,24
8270,19
8271,16
8272,16
8273,13
8274,11
8275,13
8276,13
8277,14
8278,13
8279,9
8280,9
8281,9
8282,6
8283,6
8284,7
8285,7
8286,7
8287,7
8288,7
8289,7
8290,4
8291,1
8292,-1
8293,0
8294,3
8295,9
8296,13
8297,16
8298,18
8299,16
8300,14
8301,10
8302,6
8303,3
8304,1
8305,0
8306,0
8307,1
8308,5
8309,11
8310,16
8311,18
8312,19
8313,18
8314,12
8315,7
8316,5
8317,2
8318,3
8319,5
8320,6
8321,6
8322,5
8323,6
8324,7
8325,8
8326,5
8327,0
8328,-5
8329,-12
8330,-20
8331,-26
8332,-30
8333,-29
8334,-27
8335,-27
8336,-28
8337,-33
8338,-40
8339,-45
8340,-52
8341,-62
8342,-73
8343,-85
8344,-97
8345,-106
8346,-111
8347,-114
8348,-111
8349,-107
8350,-102
8351,-98
8352,-95
8353,-91
8354,-86
8355,-80
8356,-75
8357,-72
8358,-70
8359,-74
8360,-79
8361,-86
8362,-93
8363,-99
8364,-100
8365,-97
8366,-94
8367,-92
8368,-94
8369,-95
8370,-97
8371,-97
8372,-95
8373,-92
8374,-86
8375,-80
8376,-78
8377,-78
8378,-80
8379,-83
8380,-85
8381,-86
8382,-86
8383,-86
8384,-84
8385,-81
8386,-78
8387,-78
8388,-80
8389,-80
8390,-80
8391,-78
8392,-76
8393,-76
8394,-75
8395,-74
8396,-74
8397,-72
8398,-72
8399,-74
8400,-74
8401,-74
8402,-75
8403,-75
8404,-75
8405,-70
8406,-70
8407,-62
8408,-56
8409,-51
8410,-50
8411,-51
8412,-52
8413,-57
8414,-64
8415,-66
8416,-67
8417,-67
8418,-63
8419,-59
8420,-56
8421,-55
8422,-55
8423,-55
8424,-55
8425,-56
8426,-58
8427,-58
8428,-58
8429,-57
8430,-57
8431,-59
8432,-62
8433,-65
8434,-69
8435,-70
8436,-71
8437,-71
8438,-69
8439,-68
8440,-63
8441,-62
8442,-65
8443,-66
8444,-68
8445,-71
8446,-72
8447,-70
8448,-72
8449,-73
8450,-73
8451,-74
8452,-73
8453,-71
8454,-70
8455,-69
8456,-68
8457,-69
8458,-67
8459,-64
8460,-65
8461,-64
8462,-63
8463,-60
8464,-60
8465,-61
8466,-63
8467,-65
8468,-66
8469,-65
8470,-62
8471,-62
8472,-64
8473,-67
8474,-70
8475,-73
8476,-77
8477,-75
8478,-70
8479,-63
8480,-55
8481,-48
8482,-44
8483,-42
8484,-41
8485,-41
8486,-45
8487,-52
8488,-57
8489,-60
8490,-62
8491,-62
8492,-60
8493,-56
8494,-55
8495,-54
8496,-52
8497,-51
8498,-49
8499,-46
8500,-42
8501,-38
8502,-37
8503,-40
8504,-43
8505,-49
8506,-57
8507,-63
8508,-66
8509,-65
8510,-61
8511,-56
8512,-55
8513,-59
8514,-62
8515,-68
8516,-73
8517,-73
8518,-70
8519,-65
8520,-59
8521,-53
8522,-51
8523,-51
8524,-56
8525,-59
8526,-64
8527,-69
8528,-73
8529,-74
8530,-74
8531,-73
8532,-71
8533,-66
8534,-57
8535,-51
8536,-46
8537,-40
8538,-37
8539,-40
8540,-43
8541,-46
8542,-46
8543,-46
8544,-45
8545,-43
8546,-40
8547,-39
8548,-39
8549,-43
8550,-45
8551,-47
8552,-51
8553,-51
8554,-52
8555,-54
8556,-55
8557,-56
8558,-56
8559,-54
8560,-51
8561,-49
8562,-45
8563,-42
8564,-41
8565,-41
8566,-43
8567,-44
8568,-43
8569,-41
8570,-35
8571,-26
8572,-18
8573,-11
8574,-6
8575,-4
8576,-4
8577,-4
8578,-5
8579,-5
8580,-4
8581,-9
8582,-16
8583,-26
8584,-36
8585,-46
8586,-55
8587,-59
8588,-62
8589,-63
8590,-60
8591,-57
8592,-56
8593,-57
8594,-58
8595,-57
8596,-59
8597,-60
8598,-58
8599,-54
8600,-51
8601,-47
8602,-44
8603,-42
8604,-43
8605,-46
8606,-49
8607,-51
8608,-53
8609,-56
8610,-59
8611,-63
8612,-69
8613,-74
8614,-78
8615,-79
8616,-78
8617,-63
8618,-48
8619,-25
8620,4
8621,38
8622,80
8623,126
8624,172
8625,214
8626,248
8627,279
8628,305
8629,323
8630,330
8631,320
8632,283
8633,223
8634,144
8635,52
8636,-44
8637,-130
8638,-200
8639,-247
8640,-271
8641,-275
8642,-265
8643,-248
8644,-224
8645,-195
8646,-167
8647,-142
8648,-120
8649,-101
8650,-87
8651,-78
8652,-66
8653,-67
8654,-71
8655,-77
8656,-83
8657,-89
8658,-90
8659,-90
8660,-88
8661,-84
8662,-79
8663,-76
8664,-73
8665,-71
8666,-68
8667,-65
8668,-61
8669,-56
8670,-49
8671,-45
8672,-42
8673,-41
8674,-43
8675,-47
8676,-49
8677,-50
8678,-48
8679,-44
8680,-40
8681,-37
8682,-38
8683,-43
8684,-48
8685,-50
8686,-46
8687,-41
8688,-29
8689,-27
8690,-27
8691,-30
8692,-35
8693,-40
8694,-47
8695,-49
8696,-46
8697,-40
8698,-31
8699,-25
8700,-23
8701,-21
8702,-23
8703,-26
8704,-28
8705,-27
8706,-26
8707,-24
8708,-21
8709,-18
8710,-16
8711,-17
8712,-18
8713,-17
8714,-13
8715,-10
8716,-6
8717,-4
8718,-3
8719,-6
8720,-10
8721,-14
8722,-17
8723,-20
8724,-17
8725,-9
8726,-2
8727,3
8728,7
8729,9
8730,5
8731,0
8732,-5
8733,-10
8734,-12
8735,-13
8736,-12
8737,-7
8738,-2
8739,2
8740,5
8741,7
8742,11
8743,15
8744,16
8745,16
8746,14
8747,14
8748,14
8749,16
8750,17
8751,15
8752,12
8753,9
8754,7
8755,4
8756,3
8757,2
8758,1
8759,3
8760,7
8761,6
8762,5
8763,4
8764,6
8765,10
8766,15
8767,19
8768,23
8769,24
8770,24
8771,25
8772,25
8773,25
8774,25
8775,23
8776,22
8777,20
8778,15
8779,8
8780,3
8781,-1
8782,-6
8783,-9
8784,-11
8785,-16
8786,-21
8787,-25
8788,-29
8789,-35
8790,-42
8791,-47
8792,-50
8793,-52
8794,-56
8795,-56
8796,-54
8797,-56
8798,-60
8799,-66
8800,-73
8801,-82
8802,-89
8803,-95
8804,-98
8805,-100
8806,-101
8807,-100
8808,-98
8809,-97
8810,-96
8811,-94
8812,-90
8813,-87
8814,-84
8815,-83
8816,-85
8817,-89
8818,-99
8819,-108
8820,-115
8821,-121
8822,-125
8823,-124
8824,-119
8825,-113
8826,-109
8827,-106
8828,-104
8829,-102
8830,-104
8831,-111
8832,-111
8833,-113
8834,-113
8835,-111
8836,-106
8837,-102
8838,-102
8839,-103
8840,-105
8841,-108
8842,-114
8843,-118
8844,-119
8845,-117
8846,-112
8847,-104
8848,-96
8849,-90
8850,-84
8851,-79
8852,-77
8853,-76
8854,-75
8855,-76
8856,-77
8857,-80
8858,-83
8859,-88
8860,-97
8861,-107
8862,-112
8863,-113
8864,-112
8865,-108
8866,-99
8867,-77
8868,-70
8869,-66
8870,-64
8871,-67
8872,-71
8873,-74
8874,-76
8875,-79
8876,-84
8877,-87
8878,-87
8879,-90
8880,-93
8881,-94
8882,-92
8883,-87
8884,-78
8885,-68
8886,-59
8887,-53
8888,-53
8889,-56
8890,-62
8891,-73
8892,-83
8893,-91
8894,-97
8895,-99
8896,-99
8897,-96
8898,-91
8899,-87
8900,-84
8901,-83
8902,-90
8903,-95
8904,-99
8905,-100
8906,-98
8907,-96
8908,-89
8909,-83
8910,-81
8911,-79
8912,-77
8913,-76
8914,-74
8915,-73
8916,-72
8917,-70
8918,-68
8919,-70
8920,-72
8921,-76
8922,-81
8923,-84
8924,-84
8925,-83
8926,-80
8927,-78
8928,-77
8929,-77
8930,-76
8931,-77
8932,-79
8933,-80
8934,-81
8935,-81
8936,-81
8937,-81
8938,-82
8939,-84
8940,-83
8941,-82
8942,-79
8943,-77
8944,-76
8945,-74
8946,-69
8947,-68
8948,-66
8949,-64
8950,-64
8951,-64
8952,-66
8953,-71
8954,-73
8955,-75
8956,-76
8957,-76
8958,-76
8959,-76
8960,-76
8961,-75
8962,-76
8963,-76
8964,-79
8965,-83
8966,-86
8967,-89
8968,-91
8969,-93
8970,-93
8971,-88
8972,-79
8973,-64
8974,-59
8975,-59
8976,-58
8977,-58
8978,-58
8979,-59
8980,-61
8981,-61
8982,-59
8983,-55
8984,-49
8985,-46
8986,-45
8987,-44
8988,-44
8989,-46
8990,-48
8991,-52
8992,-58
8993,-62
8994,-65
8995,-68
8996,-71
8997,-74
8998,-74
8999,-73
9000,-71
9001,-68
9002,-62
9003,-54
9004,-48
9005,-43
9006,-39
9007,-41
9008,-46
9009,-55
9010,-56
9011,-54
9012,-49
9013,-43
9014,-36
9015,-32
9016,-31
9017,-34
9018,-43
9019,-50
9020,-53
9021,-55
9022,-52
9023,-46
9024,-39
9025,-33
9026,-25
9027,-21
9028,-19
9029,-18
9030,-16
9031,-12
9032,-7
9033,-2
9034,-1
9035,-3
9036,-6
9037,-12
9038,-20
9039,-30
9040,-41
9041,-50
9042,-54
9043,-59
9044,-63
9045,-66
9046,-70
9047,-71
9048,-74
9049,-77
9050,-77
9051,-77
9052,-76
9053,-73
9054,-71
9055,-70
9056,-68
9057,-68
9058,-70
9059,-72
9060,-74
9061,-75
9062,-76
9063,-77
9064,-77
9065,-74
9066,-70
9067,-67
9068,-64
9069,-63
9070,-63
9071,-61
9072,-55
9073,-47
9074,-33
9075,-9
9076,20
9077,56
9078,98
9079,139
9080,217
9081,249
9082,277
9083,305
9084,327
9085,335
9086,324
9087,287
9088,221
9089,134
9090,34
9091,-68
9092,-159
9093,-235
9094,-290
9095,-319
9096,-327
9097,-324
9098,-307
9099,-281
9100,-252
9101,-218
9102,-186
9103,-158
9104,-136
9105,-121
9106,-111
9107,-102
9108,-97
9109,-94
9110,-91
9111,-89
9112,-89
9113,-89
9114,-87
9115,-82
9116,-81
9117,-81
9118,-80
9119,-78
9120,-79
9121,-81
9122,-79
9123,-76
9124,-75
9125,-75
9126,-74
9127,-75
9128,-80
9129,-84
9130,-86
9131,-84
9132,-82
9133,-78
9134,-71
9135,-62
9136,-61
9137,-64
9138,-70
9139,-77
9140,-84
9141,-88
9142,-90
9143,-88
9144,-88
9145,-86
9146,-84
9147,-83
9148,-89
9149,-94
9150,-99
9151,-100
9152,-95
9153,-89
9154,-81
9155,-77
9156,-76
9157,-78
9158,-83
9159,-91
9160,-94
9161,-90
9162,-83
9163,-74
9164,-64
9165,-55
9166,-51
9167,-52
9168,-57
9169,-62
9170,-65
9171,-68
9172,-69
9173,-65
9174,-63
9175,-64
9176,-62
9177,-59
9178,-55
9179,-50
9180,-48
9181,-45
9182,-41
9183,-40
9184,-39
9185,-34
9186,-30
9187,-25
9188,-18
9189,-19
9190,-23
9191,-32
9192,-40
9193,-46
9194,-54
9195,-57
9196,-55
9197,-51
9198,-45
9199,-38
9200,-31
9201,-23
9202,-17
9203,-14
9204,-15
9205,-19
9206,-26
9207,-34
9208,-45
9209,-58
9210,-65
9211,-68
9212,-61
9213,-45
9214,-25
9215,-4
9216,16
9217,31
9218,37
9219,33
9220,21
9221,7
9222,-2
9223,-9
9224,-11
9225,-11
9226,-10
9227,-14
9228,-24
9229,-39
9230,-61
9231,-82
9232,-99
9233,-114
9234,-123
9235,-128
9236,-134
9237,-136
9238,-131
9239,-131
9240,-133
9241,-136
9242,-141
9243,-147
9244,-152
9245,-161
9246,-169
9247,-175
9248,-184
9249,-189
9250,-187
9251,-187
9252,-190
9253,-190
9254,-192
9255,-194
9256,-195
9257,-195
9258,-187
9259,-187
9260,-182
9261,-177
9262,-173
9263,-174
9264,-182
9265,-190
9266,-202
9267,-216
9268,-228
9269,-238
9270,-244
9271,-250
9272,-259
9273,-264
9274,-261
9275,-253
9276,-238
9277,-220
9278,-202
9279,-191
9280,-190
9281,-201
9282,-222
9283,-240
9284,-245
9285,-244
9286,-238
9287,-228
9288,-221
9289,-222
9290,-231
9291,-243
9292,-254
9293,-255
9294,-245
9295,-203
9296,-190
9297,-181
9298,-179
9299,-192
9300,-210
9301,-229
9302,-252
9303,-267
9304,-267
9305,-259
9306,-241
9307,-216
9308,-194
9309,-173
9310,-161
9311,-162
9312,-170
9313,-177
9314,-184
9315,-185
9316,-182
9317,-178
9318,-170
9319,-164
9320,-169
9321,-178
9322,-188
9323,-202
9324,-212
9325,-209
9326,-199
9327,-186
9328,-175
9329,-167
9330,-161
9331,-159
9332,-162
9333,-161
9334,-163
9335,-165
9336,-167
9337,-172
9338,-176
9339,-172
9340,-162
9341,-146
9342,-128
9343,-115
9344,-109
9345,-111
9346,-121
9347,-132
9348,-143
9349,-152
9350,-155
9351,-154
9352,-154
9353,-153
9354,-152
9355,-150
9356,-146
9357,-141
9358,-129
9359,-106
9360,-81
9361,-57
9362,-35
9363,-25
9364,-28
9365,-39
9366,-77
9367,-93
9368,-102
9369,-102
9370,-90
9371,-79
9372,-68
9373,-57
9374,-51
9375,-50
9376,-49
9377,-52
9378,-57
9379,-61
9380,-66
9381,-68
9382,-66
9383,-64
9384,-61
9385,-58
9386,-57
9387,-56
9388,-56
9389,-54
9390,-47
9391,-43
9392,-35
9393,-22
9394,-2
9395,17
9396,36
9397,48
9398,53
9399,46
9400,27
9401,3
9402,3
9403,-18
9404,-45
9405,-31
9406,-1
9407,40
9408,82
9409,116
9410,133
9411,124
9412,94
9413,46
9414,-10
9415,-67
9416,-112
9417,-143
9418,-155
9419,-147
9420,-129
9421,-109
9422,-84
9423,-60
9424,-39
9425,-27
9426,-25
9427,-26
9428,-25
9429,-28
9430,-30
9431,-22
9432,-11
9433,1
9434,25
9435,53
9436,74
9437,92
9438,99
9439,81
9440,56
9441,27
9442,2
9443,-12
9444,-14
9445,-3
9446,11
9447,21
9448,27
9449,27
9450,21
9451,9
9452,-4
9453,-14
9454,-19
9455,-15
9456,-12
9457,-13
9458,-13
9459,-14
9460,-16
9461,-17
9462,-17
9463,-17
9464,-13
9465,-4
9466,7
9467,18
9468,27
9469,33
9470,39
9471,42
9472,43
9473,41
9474,40
9475,47
9476,59
9477,69
9478,75
9479,78
9480,78
9481,74
9482,69
9483,66
9484,60
9485,53
9486,53
9487,62
9488,74
9489,81
9490,80
9491,72
9492,58
9493,41
9494,21
9495,-1
9496,-29
9497,-55
9498,-74
9499,-85
9500,-96
9501,-110
9502,-114
9503,-106
9504,-92
9505,-70
9506,-49
9507,-36
9508,-31
9509,-28
9510,-29
9511,-32
9512,-36
9513,-38
9514,-36
9515,-34
9516,-35
9517,-36
9518,-30
9519,-16
9520,2
9521,29
9522,60
9523,93
9524,126
9525,153
9526,179
9527,210
9528,243
9529,277
9530,316
9531,358
9532,397
9533,424
9534,432
9535,418
9536,375
9537,305
9538,219
9539,125
9540,32
9541,-51
9542,-121
9543,-173
9544,-173
9545,-173
9546,-254
9547,-264
9548,-265
9549,-250
9550,-224
9551,-190
9552,-145
9553,-98
9554,-61
9555,-37
9556,-30
9557,-33
9558,-44
9559,-59
9560,-64
9561,-62
9562,-59
9563,-56
9564,-54
9565,-59
9566,-71
9567,-87
9568,-98
9569,-94
9570,-78
9571,-53
9572,-24
9573,-3
9574,3
9575,1
9576,-9
9577,-26
9578,-46
9579,-63
9580,-72
9581,-77
9582,-93
9583,-104
9584,-115
9585,-122
9586,-120
9587,-110
9588,-93
9589,-75
9590,-58
9591,-44
9592,-38
9593,-40
9594,-43
9595,-49
9596,-54
9597,-51
9598,-45
9599,-39
9600,-33
9601,-30
9602,-35
9603,-42
9604,-50
9605,-55
9606,-52
9607,-46
9608,-31
9609,-7
9610,17
9611,42
9612,64
9613,80
9614,82
9615,69
9616,43
9617,13
9618,-47
9619,-71
9620,-83
9621,-84
9622,-75
9623,-58
9624,-40
9625,-22
9626,-9
9627,1
9628,6
9629,5
9630,-4
9631,-15
9632,-27
9633,-40
9634,-53
9635,-66
9636,-79
9637,-90
9638,-97
9639,-96
9640,-89
9641,-82
9642,-72
9643,-59
9644,-46
9645,-35
9646,-25
9647,-18
9648,-17
9649,-14
9650,-11
9651,-7
9652,0
9653,5
9654,21
9655,25
9656,23
9657,13
9658,0
9659,-12
9660,-20
9661,-23
9662,-23
9663,-19
9664,-12
9665,-8
9666,-6
9667,-9
9668,-13
9669,-13
9670,-8
9671,3
9672,17
9673,32
9674,43
9675,52
9676,57
9677,54
9678,43
9679,25
9680,2
9681,-23
9682,-50
9683,-76
9684,-94
9685,-101
9686,-97
9687,-97
9688,-84
9689,-68
9690,-55
9691,-60
9692,-76
9693,-98
9694,-118
9695,-129
9696,-131
9697,-124
9698,-110
9699,-94
9700,-82
9701,-77
9702,-75
9703,-73
9704,-79
9705,-91
9706,-99
9707,-105
9708,-117
9709,-132
9710,-145
9711,-154
9712,-156
9713,-151
9714,-138
9715,-119
9716,-104
9717,-98
9718,-95
9719,-99
9720,-112
9721,-127
9722,-144
9723,-158
9724,-167
9725,-174
9726,-174
9727,-168
9728,-158
9729,-147
9730,-135
9731,-126
9732,-119
9733,-119
9734,-125
9735,-135
9736,-144
9737,-150
9738,-152
9739,-148
9740,-141
9741,-130
9742,-116
9743,-101
9744,-86
9745,-75
9746,-74
9747,-81
9748,-93
9749,-111
9750,-134
9751,-154
9752,-165
9753,-162
9754,-150
9755,-128
9756,-100
9757,-78
9758,-67
9759,-63
9760,-72
9761,-122
9762,-150
9763,-173
9764,-187
9765,-194
9766,-189
9767,-172
9768,-155
9769,-134
9770,-114
9771,-104
9772,-97
9773,-93
9774,-97
9775,-99
9776,-99
9777,-103
9778,-96
9779,-80
9780,-71
9781,-67
9782,-68
9783,-79
9784,-91
9785,-106
9786,-127
9787,-140
9788,-147
9789,-153
9790,-152
9791,-147
9792,-148
9793,-148
9794,-143
9795,-137
9796,-131
9797,-114
9798,-109
9799,-104
9800,-99
9801,-92
9802,-84
9803,-77
9804,-67
9805,-56
9806,-54
9807,-58
9808,-63
9809,-69
9810,-76
9811,-82
9812,-87
9813,-91
9814,-92
9815,-86
9816,-75
9817,-61
9818,-51
9819,-43
9820,-42
9821,-41
9822,-39
9823,-44
9824,-50
9825,-49
9826,-49
9827,-55
9828,-55
9829,-69
9830,-90
9831,-112
9832,-132
9833,-144
9834,-139
9835,-135
9836,-130
9837,-122
9838,-116
9839,-115
9840,-113
9841,-103
9842,-94
9843,-86
9844,-80
9845,-78
9846,-77
9847,-78
9848,-77
9849,-70
9850,-62
9851,-57
9852,-54
9853,-52
9854,-57
9855,-65
9856,-73
9857,-79
9858,-79
9859,-76
9860,-72
9861,-68
9862,-63
9863,-63
9864,-64
9865,-62
9866,-61
9867,-62
9868,-64
9869,-73
9870,-89
9871,-96
9872,-101
9873,-100
9874,-101
9875,-100
9876,-100
9877,-112
9878,-127
9879,-138
9880,-143
9881,-137
9882,-118
9883,-99
9884,-86
9885,-77
9886,-78
9887,-82
9888,-84
9889,-87
9890,-90
9891,-83
9892,-68
9893,-57
9894,-51
9895,-41
9896,-23
9897,0
9898,25
9899,51
9900,74
9901,87
9902,83
9903,79
9904,76
9905,70
9906,63
9907,50
9908,28
9909,-8
9910,-46
9911,-69
9912,-81
9913,-86
9914,-86
9915,-81
9916,-73
9917,-68
9918,-71
9919,-68
9920,-47
9921,-5
9922,44
9923,94
9924,132
9925,147
9926,132
9927,101
9928,77
9929,66
9930,71
9931,85
9932,104
9933,118
9934,107
9935,65
9936,17
9937,-19
9938,-47
9939,-58
9940,-42
9941,36
9942,66
9943,98
9944,134
9945,163
9946,180
9947,187
9948,194
9949,196
9950,189
9951,208
9952,268
9953,357
9954,455
9955,530
9956,547
9957,506
9958,416
9959,285
9960,133
9961,6
9962,-62
9963,-65
9964,-16
9965,63
9966,117
9967,105
9968,42
9969,42
9970,-47
9971,-153
9972,-260
9973,-344
9974,-376
9975,-347
9976,-287
9977,-154
9978,-127
9979,-128
9980,-127
9981,-140
9982,-175
9983,-206
9984,-219
9985,-223
9986,-214
9987,-183
9988,-154
9989,-149
9990,-158
9991,-166
9992,-175
9993,-191
9994,-207
9995,-211
9996,-200
9997,-187
9998,-177
9999,-163
10000,-151
10001,-143
10002,-126
10003,-109
10004,-104
10005,-106
10006,-117
10007,-132
10008,-146
10009,-153
10010,-154
10011,-150
10012,-128
10013,-119
10014,-114
10015,-113
10016,-112
10017,-110
10018,-107
10019,-104
10020,-112
10021,-131
10022,-151
10023,-169
10024,-187
10025,-195
10026,-192
10027,-191
10028,-191
10029,-191
10030,-192
10031,-196
10032,-205
10033,-210
10034,-202
10035,-193
10036,-186
10037,-174
10038,-172
10039,-183
10040,-191
10041,-189
10042,-181
10043,-170
10044,-152
10045,-131
10046,-108
10047,-92
10048,-81
10049,-82
10050,-96
10051,-100
10052,-100
10053,-100
10054,-99
10055,-98
10056,-99
10057,-105
10058,-111
10059,-108
10060,-99
10061,-88
10062,-70
10063,-47
10064,-30
10065,-19
10066,-20
10067,-29
10068,-38
10069,-52
10070,-60
10071,-56
10072,-53
10073,-52
10074,-47
10075,-46
10076,-48
10077,-49
10078,-53
10079,-56
10080,-56
10081,-55
10082,-53
10083,-46
10084,-32
10085,-25
10086,-17
10087,-11
10088,-5
10089,0
10090,0
10091,4
10092,11
10093,17
10094,22
10095,26
10096,25
10097,20
10098,17
10099,14
10100,11
10101,10
10102,7
10103,4
10104,2
10105,-1
10106,-6
10107,-6
10108,-2
10109,1
10110,6
10111,8
10112,2
10113,2
10114,-9
10115,-27
10116,-44
10117,-56
10118,-67
10119,-75
10120,-76
10121,-73
10122,-78
10123,-82
10124,-91
10125,-103
10126,-112
10127,-120
10128,-123
10129,-127
10130,-132
10131,-129
10132,-116
10133,-96
10134,-76
10135,-67
10136,-75
10137,-99
10138,-127
10139,-146
10140,-148
10141,-130
10142,-94
10143,-52
10144,-17
10145,1
10146,-5
10147,-30
10148,-54
10149,-71
10150,-76
10151,-65
10152,-53
10153,-43
10154,-38
10155,-42
10156,-47
10157,-49
10158,-45
10159,-39
10160,-35
10161,-29
10162,-23
10163,-19
10164,-20
10165,-24
10166,-31
10167,-34
10168,-37
10169,-44
10170,-48
10171,-54
10172,-60
10173,-65
10174,-68
10175,-71
10176,-73
10177,-74
10178,-74
10179,-75
10180,-79
10181,-87
10182,-91
10183,-96
10184,-100
10185,-101
10186,-101
10187,-101
10188,-97
10189,-93
10190,-91
10191,-91
10192,-92
10193,-90
10194,-89
10195,-88
10196,-87
10197,-88
10198,-89
10199,-91
10200,-92
10201,-95
10202,-98
10203,-99
10204,-100
10205,-99
10206,-99
10207,-99
10208,-97
10209,-95
10210,-93
10211,-91
10212,-90
10213,-88
10214,-83
10215,-76
10216,-66
10217,-56
10218,-47
10219,-42
10220,-39
10221,-41
10222,-48
10223,-53
10224,-58
10225,-61
10226,-60
10227,-56
10228,-55
10229,-53
10230,-52
10231,-47
10232,-40
10233,-34
10234,-28
10235,-22
10236,-17
10237,-9
10238,-2
10239,1
10240,2
10241,0
10242,-6
10243,-16
10244,-26
10245,-37
10246,-44
10247,-45
10248,-41
10249,-36
10250,-31
10251,-30
10252,-27
10253,-26
10254,-27
10255,-27
10256,-25
10257,-23
10258,-22
10259,-26
10260,-30
10261,-34
10262,-38
10263,-42
10264,-41
10265,-38
10266,-36
10267,-31
10268,-26
10269,-24
10270,-22
10271,-18
10272,-11
10273,-6
10274,-3
10275,-2
10276,-3
10277,-8
10278,-16
10279,-22
10280,-29
10281,-31
10282,-28
10283,-23
10284,-18
10285,-12
10286,-12
10287,-14
10288,-18
10289,-22
10290,-26
10291,-27
10292,-26
10293,-24
10294,-18
10295,-13
10296,-7
10297,-2
10298,-1
10299,-1
10300,-12
10301,-22
10302,-33
10303,-44
10304,-53
10305,-59
10306,-62
10307,-64
10308,-64
10309,-65
10310,-66
10311,-68
10312,-73
10313,-77
10314,-82
10315,-84
10316,-85
10317,-84
10318,-82
10319,-80
10320,-76
10321,-74
10322,-73
10323,-72
10324,-72
10325,-74
10326,-79
10327,-82
10328,-85
10329,-87
10330,-86
10331,-83
10332,-79
10333,-75
10334,-73
10335,-68
10336,-66
10337,-65
10338,-62
10339,-55
10340,-43
10341,-26
10342,-3
10343,26
10344,62
10345,101
10346,142
10347,181
10348,217
10349,248
10350,266
10351,261
10352,231
10353,174
10354,95
10355,5
10356,-85
10357,-167
10358,-231
10359,-274
10360,-297
10361,-304
10362,-305
10363,-299
10364,-288
10365,-271
10366,-249
10367,-225
10368,-201
10369,-180
10370,-162
10371,-137
10372,-130
10373,-124
10374,-118
10375,-115
10376,-113
10377,-110
10378,-107
10379,-104
10380,-100
10381,-98
10382,-96
10383,-94
10384,-94
10385,-93
10386,-92
10387,-91
10388,-88
10389,-85
10390,-84
10391,-84
10392,-84
10393,-85
10394,-82
10395,-77
10396,-73
10397,-73
10398,-72
10399,-72
10400,-76
10401,-83
10402,-91
10403,-99
10404,-104
10405,-107
10406,-107
10407,-104
10408,-101
10409,-99
10410,-97
10411,-96
10412,-96
10413,-99
10414,-103
10415,-110
10416,-116
10417,-118
10418,-119
10419,-116
10420,-107
10421,-96
10422,-88
10423,-80
10424,-73
10425,-69
10426,-67
10427,-67
10428,-67
10429,-67
10430,-67
10431,-68
10432,-67
10433,-65
10434,-66
10435,-66
10436,-65
10437,-64
10438,-61
10439,-58
10440,-53
10441,-47
10442,-37
10443,-35
10444,-32
10445,-32
10446,-34
10447,-35
10448,-36
10449,-38
10450,-39
10451,-39
10452,-37
10453,-33
10454,-31
10455,-27
10456,-22
10457,-21
10458,-20
10459,-19
10460,-18
10461,-13
10462,-8
10463,-2
10464,6
10465,13
10466,19
10467,23
10468,22
10469,18
10470,11
10471,5
10472,-1
10473,-4
10474,-9
10475,-12
10476,-9
10477,-6
10478,2
10479,7
10480,10
10481,15
10482,19
10483,19
10484,20
10485,19
10486,17
10487,17
10488,17
10489,17
10490,17
10491,14
10492,7
10493,1
10494,-4
10495,-9
10496,-13
10497,-17
10498,-19
10499,-22
10500,-25
10501,-28
10502,-32
10503,-35
10504,-36
10505,-36
10506,-34
10507,-32
10508,-31
10509,-34
10510,-35
10511,-36
10512,-37
10513,-38
10514,-43
10515,-50
10516,-60
10517,-71
10518,-82
10519,-92
10520,-102
10521,-109
10522,-112
10523,-112
10524,-114
10525,-113
10526,-113
10527,-113
10528,-111
10529,-111
10530,-110
10531,-111
10532,-111
10533,-111
10534,-112
10535,-114
10536,-117
10537,-120
10538,-122
10539,-122
10540,-122
10541,-122
10542,-122
10543,-121
10544,-119
10545,-117
10546,-113
10547,-108
10548,-104
10549,-102
10550,-103
10551,-109
10552,-119
10553,-130
10554,-139
10555,-146
10556,-149
10557,-145
10558,-134
10559,-123
10560,-112
10561,-102
10562,-92
10563,-86
10564,-82
10565,-80
10566,-80
10567,-82
10568,-87
10569,-92
10570,-98
10571,-106
10572,-109
10573,-107
10574,-102
10575,-97
10576,-91
10577,-87
10578,-84
10579,-82
10580,-80
10581,-76
10582,-72
10583,-67
10584,-59
10585,-48
10586,-47
10587,-50
10588,-56
10589,-60
10590,-62
10591,-62
10592,-59
10593,-53
10594,-45
10595,-39
10596,-36
10597,-38
10598,-43
10599,-48
10600,-53
10601,-54
10602,-51
10603,-44
10604,-35
10605,-25
10606,-17
10607,-16
10608,-19
10609,-27
10610,-39
10611,-51
10612,-62
10613,-69
10614,-73
10615,-74
10616,-73
10617,-68
10618,-62
10619,-56
10620,-47
10621,-31
10622,-27
10623,-23
10624,-24
10625,-27
10626,-32
10627,-36
10628,-38
10629,-41
10630,-42
10631,-41
10632,-39
10633,-37
10634,-35
10635,-33
10636,-33
10637,-32
10638,-31
10639,-30
10640,-26
10641,-23
10642,-22
10643,-21
10644,-20
10645,-22
10646,-25
10647,-28
10648,-29
10649,-29
10650,-29
10651,-30
10652,-29
10653,-26
10654,-24
10655,-26
10656,-28
10657,-18
10658,0
10659,35
10660,73
10661,101
10662,109
10663,116
10664,135
10665,167
10666,224
10667,310
10668,382
10669,424
10670,442
10671,418
10672,362
10673,299
10674,232
10675,180
10676,139
10677,98
10678,91
10679,134
10680,197
10681,275
10682,275
10683,365
10684,408
10685,400
10686,360
10687,275
10688,153
10689,49
10690,53
10691,197
10692,434
10693,692
10694,862
10695,775
10696,552
10697,259
10698,-20
10699,-217
10700,-288
10701,-217
10702,-84
10703,38
10704,183
10705,308
10706,381
10707,466
10708,580
10709,706
10710,830
10711,930
10712,939
10713,861
10714,780
10715,661
10716,509
10717,383
10718,267
10719,205
10720,224
10721,227
10722,174
10723,89
10724,-37
10725,-125
10726,-97
10727,-56
10728,-58
10729,-50
10730,112
10731,248
10732,369
10733,494
10734,610
10735,638
10736,607
10737,576
10738,525
10739,481
10740,444
10741,396
10742,309
10743,96
10744,-227
10745,-514
10746,-641
10747,-588
10748,-373
10749,-81
10750,129
10751,212
10752,153
10753,-19
10754,-170
10755,-243
10756,-214
10757,-63
10758,124
10759,257
10760,275
10761,162
10762,-19
10763,-213
10764,-384
10765,-426
10766,-308
10767,-146
10768,-19
10769,23
10770,30
10771,1
10772,-42
10773,-49
10774,-57
10775,-78
10776,-110
10777,-188
10778,-306
10779,-427
10780,-536
10781,-573
10782,-487
10783,-352
10784,-205
10785,-76
10786,-23
10787,-19
10788,-39
10789,-89
10790,-116
10791,-112
10792,-110
10793,-101
10794,-82
10795,-95
10796,-140
10797,-149
10798,-93
10799,13
10800,233
10801,258
10802,252
10803,210
10804,135
10805,100
10806,109
10807,116
10808,162
10809,183
10810,110
10811,-12
10812,-197
10813,-403
10814,-496
10815,-472
10816,-358
10817,-201
10818,-86
10819,1
10820,77
10821,135
10822,196
10823,241
10824,241
10825,215
10826,133
10827,50
10828,-55
10829,-196
10830,-369
10831,-504
10832,-503
10833,-409
10834,-286
10835,-178
10836,-170
10837,-240
10838,-316
10839,-372
10840,-414
10841,-421
10842,-383
10843,-309
10844,-211
10845,-128
10846,-88
10847,-81
10848,-105
10849,-171
10850,-250
10851,-301
10852,-312
10853,-295
10854,-269
10855,-234
10856,-196
10857,-185
10858,-184
10859,-151
10860,-105
10861,-88
10862,-91
10863,-129
10864,-221
10865,-319
10866,-386
10867,-396
10868,-336
10869,-236
10870,-99
10871,17
10872,51
10873,71
10874,86
10875,94
10876,113
10877,137
10878,113
10879,21
10880,-91
10881,-208
10882,-337
10883,-406
10884,-372
10885,-244
10886,-16
10887,258
10888,521
10889,724
10890,772
10891,640
10892,392
10893,66
10894,-295
10895,-567
10896,-687
10897,-661
10898,-504
10899,-320
10900,-160
10901,-35
10902,-2
10903,-61
10904,-165
10905,-283
10906,-467
10907,-460
10908,-432
10909,-364
10910,-250
10911,-111
10912,36
10913,140
10914,174
10915,153
10916,74
10917,-52
10918,-189
10919,-321
10920,-432
10921,-461
10922,-408
10923,-311
10924,-161
10925,16
10926,168
10927,267
10928,266
10929,153
10930,-26
10931,-234
10932,-430
10933,-554
10934,-563
10935,-481
10936,-351
10937,-227
10938,-133
10939,-56
10940,-34
10941,-46
10942,-37
10943,-56
10944,-94
10945,-130
10946,-173
10947,-229
10948,-252
10949,-189
10950,-65
10951,69
10952,202
10953,293
10954,316
10955,248
10956,104
10957,-37
10958,-122
10959,-124
10960,-43
10961,94
10962,255
10963,387
10964,423
10965,323
10966,323
10967,161
10968,21
10969,-68
10970,-77
10971,-20
10972,49
10973,91
10974,114
10975,137
10976,133
10977,89
10978,61
10979,118
10980,193
10981,288
10982,414
10983,524
10984,593
10985,624
10986,595
10987,480
10988,295
10989,107
10990,-19
10991,-81
10992,-85
10993,-13
10994,85
10995,134
10996,143
10997,147
10998,145
10999,137
11000,123
11001,91
11002,87
11003,142
11004,247
11005,397
11006,543
11007,658
11008,731
11009,718
11010,608
11011,437
11012,263
11013,96
11014,186
11015,326
11016,469
11017,576
11018,625
11019,616
11020,532
11021,406
11022,306
11023,252
11024,242
11025,260
11026,279
11027,278
11028,267
11029,268
11030,317
11031,462
11032,682
11033,882
11034,1014
11035,1065
11036,996
11037,807
11038,572
11039,374
11040,246
11041,213
11042,298
11043,441
11044,576
11045,645
11046,639
11047,560
11048,479
11049,400
11050,352
11051,337
11052,352
11053,395
11054,441
11055,487
11056,529
11057,553
11058,572
11059,594
11060,628
11061,680
11062,748
11063,843
11064,909
11065,906
11066,886
11067,881
11068,911
11069,972
11070,1028
11071,1060
11072,1030
11073,921
11074,749
11075,557
11076,363
11077,213
11078,174
11079,234
11080,358
11081,494
11082,619
11083,858
11084,934
11085,959
11086,916
11087,817
11088,676
11089,538
11090,486
11091,557
11092,710
11093,878
11094,1006
11095,1049
11096,993
11097,856
11098,689
11099,549
11100,457
11101,431
11102,472
11103,536
11104,601
11105,694
11106,832
11107,973
11108,973
11109,1066
11110,1118
11111,1102
11112,993
11113,822
11114,641
11115,479
11116,373
11117,378
11118,509
11119,707
11120,969
11121,1010
11122,978
11123,857
11124,696
11125,548
11126,441
11127,396
11128,419
11129,491
11130,565
11131,591
11132,605
11133,676
11134,797
11135,914
11136,999
11137,1052
11138,1049
11139,974
11140,858
11141,732
11142,610
11143,520
11144,511
11145,603
11146,772
11147,965
11148,1159
11149,1319
11150,1378
11151,1326
11152,1190
11153,1001
11154,812
11155,658
11156,724
11157,842
11158,946
11159,989
11160,973
11161,924
11162,846
11163,749
11164,697
11165,727
11166,816
11167,886
11168,895
11169,850
11170,740
11171,581
11172,430
11173,324
11174,257
11175,252
11176,340
11177,516
11178,713
11179,852
11180,942
11181,1006
11182,1027
11183,1004
11184,941
11185,848
11186,749
11187,647
11188,537
11189,452
11190,412
11191,485
11192,580
11193,705
11194,829
11195,889
11196,870
11197,810
11198,740
11199,672
11200,625
11201,606
11202,611
11203,637
11204,648
11205,644
11206,624
11207,578
11208,510
11209,446
11210,408
11211,400
11212,419
11213,457
11214,515
11215,583
11216,621
11217,613
11218,581
11219,547
11220,521
11221,507
11222,517
11223,536
11224,546
11225,558
11226,599
11227,769
11228,866
11229,938
11230,976
11231,1005
11232,1049
11233,1135
11234,1261
11235,1384
11236,1461
11237,1374
11238,1042
11239,639
11240,434
11241,553
11242,976
11243,1523
11244,1941
11245,2074
11246,1823
11247,1191
11248,369
11249,-433
11250,-433
11251,-1030
11252,-1211
11253,-981
11254,-573
11255,-207
11256,-4
11257,66
11258,121
11259,190
11260,245
11261,288
11262,319
11263,342
11264,373
11265,384
11266,402
11267,415
11268,428
11269,463
11270,513
11271,540
11272,571
11273,642
11274,751
11275,870
11276,942
11277,929
11278,843
11279,686
11280,477
11281,255
11282,55
11283,-87
11284,-81
11285,128
11286,468
11287,825
11288,1093
11289,1215
11290,1191
11291,1021
11292,696
11293,292
11294,-69
11295,-316
11296,-415
11297,-375
11298,-262
11299,-23
11300,82
11301,174
11302,254
11303,292
11304,301
11305,303
11306,287
11307,254
11308,216
11309,183
11310,156
11311,143
11312,144
11313,165
11314,213
11315,259
11316,284
11317,309
11318,348
11319,378
11320,365
11321,323
11322,265
11323,194
11324,107
11325,20
11326,-54
11327,-118
11328,-127
11329,-51
11330,85
11331,244
11332,383
11333,499
11334,576
11335,423
11336,224
11337,3
11338,-205
11339,-349
11340,-413
11341,-427
11342,-394
11343,-328
11344,-253
11345,-186
11346,-152
11347,-150
11348,-147
11349,-112
11350,-29
11351,88
11352,212
11353,304
11354,347
11355,331
11356,259
11357,144
11358,15
11359,-101
11360,-188
11361,-242
11362,-269
11363,-273
11364,-246
11365,-182
11366,-65
11367,69
11368,167
11369,208
11370,184
11371,-24
11372,-155
11373,-250
11374,-285
11375,-271
11376,-240
11377,-210
11378,-193
11379,-190
11380,-193
11381,-189
11382,-167
11383,-136
11384,-88
11385,-22
11386,53
11387,125
11388,153
11389,126
11390,68
11391,-27
11392,-154
11393,-154
11394,-269
11395,-324
11396,-303
11397,-213
11398,-99
11399,-1
11400,44
11401,7
11402,-81
11403,-175
11404,-258
11405,-296
11406,-275
11407,-218
11408,-146
11409,-84
11410,-123
11411,-180
11412,-234
11413,-274
11414,-296
11415,-303
11416,-296
11417,-278
11418,-254
11419,-234
11420,-219
11421,-208
11422,-204
11423,-208
11424,-217
11425,-223
11426,-224
11427,-220
11428,-216
11429,-216
11430,-217
11431,-218
11432,-216
11433,-192
11434,-142
11435,-90
11436,-42
11437,-7
11438,-5
11439,-41
11440,-96
11441,-161
11442,-220
11443,-255
11444,-272
11445,-279
11446,-296
11447,-301
11448,-278
11449,-243
11450,-215
11451,-199
11452,-202
11453,-233
11454,-287
11455,-345
11456,-398
11457,-432
11458,-433
11459,-407
11460,-368
11461,-339
11462,-336
11463,-341
11464,-336
11465,-324
11466,-311
11467,-296
11468,-286
11469,-276
11470,-270
11471,-273
11472,-276
11473,-286
11474,-302
11475,-293
11476,-254
11477,-195
11478,-118
11479,-50
11480,-10
11481,-1
11482,-125
11483,-248
11484,-373
11485,-411
11486,-323
11487,-156
11488,20
11489,154
11490,213
11491,156
11492,-12
11493,-238
11494,-467
11495,-658
11496,-758
11497,-778
11498,-775
11499,-707
11500,-505
11501,-127
11502,385
11503,864
11504,1171
11505,1212
11506,942
11507,432
11508,-177
11509,-760
11510,-1187
11511,-1335
11512,-1210
11513,-939
11514,-653
11515,-435
11516,-290
11517,-198
11518,-159
11519,-204
11520,-250
11521,-272
11522,-240
11523,-178
11524,-139
11525,-136
11526,-199
11527,-337
11528,-483
11529,-577
11530,-601
11531,-520
11532,-361
11533,-191
11534,-61
11535,-61
11536,-40
11537,-127
11538,-249
11539,-376
11540,-480
11541,-518
11542,-489
11543,-413
11544,-312
11545,-214
11546,-128
11547,-63
11548,-42
11549,-48
11550,-49
11551,-34
11552,0
11553,52
11554,111
11555,170
11556,133
11557,35
11558,-105
11559,-274
11560,-421
11561,-534
11562,-614
11563,-654
11564,-665
11565,-639
11566,-580
11567,-532
11568,-490
11569,-423
11570,-350
11571,-301
11572,-269
11573,-263
11574,-288
11575,-314
11576,-340
11577,-353
11578,-344
11579,-344
11580,-343
11581,-332
11582,-339
11583,-388
11584,-453
11585,-506
11586,-537
11587,-523
11588,-481
11589,-432
11590,-368
11591,-328
11592,-357
11593,-355
11594,-312
11595,-261
11596,-218
11597,-175
11598,-157
11599,-195
11600,-294
11601,-414
11602,-533
11603,-640
11604,-668
11605,-572
11606,-433
11607,-349
11608,-288
11609,-160
11610,15
11611,166
11612,280
11613,324
11614,252
11615,66
11616,-181
11617,-438
11618,-683
11619,-867
11620,-937
11621,-875
11622,-748
11623,-658
11624,-625
11625,-630
11626,-653
11627,-661
11628,-550
11629,-503
11630,-466
11631,-449
11632,-436
11633,-383
11634,-327
11635,-270
11636,-198
11637,-151
11638,-161
11639,-208
11640,-295
11641,-415
11642,-515
11643,-583
11644,-640
11645,-676
11646,-688
11647,-638
11648,-492
11649,-293
11650,-102
11651,73
11652,197
11653,208
11654,111
11655,-61
11656,-268
11657,-442
11658,-538
11659,-565
11660,-553
11661,-550
11662,-596
11663,-636
11664,-652
11665,-634
11666,-581
11667,-508
11668,-419
11669,-348
11670,-311
11671,-318
11672,-368
11673,-432
11674,-479
11675,-474
11676,-404
11677,-404
11678,-297
11679,-184
11680,-87
11681,-47
11682,-80
11683,-175
11684,-318
11685,-470
11686,-580
11687,-631
11688,-625
11689,-569
11690,-501
11691,-428
11692,-337
11693,-248
11694,-185
11695,-139
11696,-131
11697,-168
11698,-224
11699,-303
11700,-384
11701,-424
11702,-423
11703,-339
11704,-291
11705,-281
11706,-298
11707,-343
11708,-413
11709,-479
11710,-546
11711,-607
11712,-627
11713,-583
11714,-486
11715,-374
11716,-270
11717,-194
11718,-182
11719,-242
11720,-340
11721,-409
11722,-423
11723,-408
11724,-363
11725,-296
11726,-255
11727,-280
11728,-343
11729,-393
11730,-426
11731,-437
11732,-421
11733,-410
11734,-432
11735,-507
11736,-593
11737,-635
11738,-624
11739,-437
11740,-275
11741,-145
11742,-85
11743,-115
11744,-222
11745,-367
11746,-523
11747,-638
11748,-682
11749,-649
11750,-535
11751,-382
11752,-255
11753,-197
11754,-227
11755,-314
11756,-414
11757,-500
11758,-565
11759,-581
11760,-547
11761,-463
11762,-365
11763,-336
11764,-342
11765,-318
11766,-249
11767,-126
11768,-9
11769,42
11770,24
11771,-73
11772,-250
11773,-445
11774,-615
11775,-777
11776,-699
11777,-548
11778,-364
11779,-212
11780,-105
11781,-21
11782,38
11783,50
11784,17
11785,-42
11786,-139
11787,-243
11788,-308
11789,-336
11790,-366
11791,-392
11792,-381
11793,-326
11794,-179
11795,20
11796,162
11797,213
11798,158
11799,-18
11800,-269
11801,-546
11802,-796
11803,-908
11804,-830
11805,-628
11806,-365
11807,-129
11808,-14
11809,-19
11810,-214
11811,-357
11812,-486
11813,-598
11814,-650
11815,-586
11816,-419
11817,-198
11818,40
11819,40
11820,221
11821,277
11822,205
11823,23
11824,-228
11825,-478
11826,-681
11827,-776
11828,-718
11829,-545
11830,-313
11831,-60
11832,158
11833,311
11834,360
11835,268
11836,60
11837,-213
11838,-503
11839,-759
11840,-905
11841,-893
11842,-746
11843,-503
11844,-240
11845,-21
11846,119
11847,13
11848,-179
11849,-416
11850,-641
11851,-794
11852,-842
11853,-793
11854,-639
11855,-418
11856,-175
11857,41
11858,179
11859,238
11860,228
11861,152
11862,19
11863,-154
11864,-327
11865,-464
11866,-548
11867,-576
11868,-569
11869,-567
11870,-565
11871,-534
11872,-497
11873,-475
11874,-456
11875,-417
11876,-337
11877,-252
11878,-188
11879,-135
11880,-120
11881,-164
11882,-320
11883,-406
11884,-475
11885,-508
11886,-507
11887,-480
11888,-435
11889,-350
11890,-218
11891,-123
11892,-106
11893,-119
11894,-156
11895,-175
11896,-142
11897,-110
11898,-109
11899,-139
11900,-223
11901,-348
11902,-476
11903,-600
11904,-640
11905,-552
11906,-413
11907,-221
11908,-35
11909,22
11910,-32
11911,-147
11912,-295
11913,-436
11914,-543
11915,-599
11916,-578
11917,-506
11918,-208
11919,-5
11920,97
11921,111
11922,41
11923,-99
11924,-276
11925,-465
11926,-619
11927,-689
11928,-659
11929,-537
11930,-339
11931,-168
11932,-82
11933,-65
11934,-102
11935,-182
11936,-290
11937,-375
11938,-382
11939,-313
11940,-202
11941,-88
11942,-21
11943,-29
11944,-102
11945,-226
11946,-331
11947,-335
11948,-233
11949,-12
11950,259
11951,441
11952,474
11953,343
11954,65
11955,-615
11956,-871
11957,-974
11958,-907
11959,-749
11960,-570
11961,-422
11962,-422
11963,-295
11964,-143
11965,21
11966,156
11967,227
11968,213
11969,104
11970,-75
11971,-278
11972,-435
11973,-493
11974,-451
11975,-317
11976,-122
11977,77
11978,225
11979,282
11980,279
11981,242
11982,176
11983,102
11984,21
11985,-36
11986,-70
11987,-80
11988,-50
11989,-33
11990,-79
11991,-182
11992,-461
11993,-594
11994,-634
11995,-562
11996,-393
11997,-148
11998,122
11999,344
12000,441
12001,420
12002,303
12003,78
12004,-206
12005,-463
12006,-610
12007,-625
12008,-530
12009,-336
12010,-102
12011,45
12012,76
12013,20
12014,-127
12015,-307
12016,-428
12017,-473
12018,-432
12019,-339
12020,-266
12021,-201
12022,-150
12023,-140
12024,-144
12025,-164
12026,-219
12027,-294
12028,-497
12029,-580
12030,-602
12031,-572
12032,-471
12033,-318
12034,-183
12035,-106
12036,-72
12037,-54
12038,-45
12039,-41
12040,-30
12041,-28
12042,-32
12043,-49
12044,-91
12045,-152
12046,-239
12047,-329
12048,-377
12049,-383
12050,-382
12051,-348
12052,-244
12053,-109
12054,42
12055,198
12056,296
12057,275
12058,128
12059,-104
12060,-345
12061,-516
12062,-589
12063,-515
12064,-110
12065,32
12066,66
12067,-36
12068,-229
12069,-426
12070,-568
12071,-624
12072,-579
12073,-454
12074,-269
12075,-81
12076,30
12077,67
12078,67
12079,29
12080,-70
12081,-200
12082,-275
12083,-247
12084,-142
12085,-16
12086,90
12087,144
12088,114
12089,14
12090,-89
12091,-190
12092,-306
12093,-378
12094,-363
12095,-297
12096,-257
12097,-255
12098,-209
12099,-106
12100,157
12101,289
12102,384
12103,382
12104,382
12105,310
12106,188
12107,-3
12108,-201
12109,-296
12110,-234
12111,-69
12112,120
12113,275
12114,343
12115,279
12116,64
12117,-206
12118,-454
12119,-673
12120,-796
12121,-772
12122,-631
12123,-432
12124,-221
12125,-46
12126,56
12127,68
12128,32
12129,-10
12130,-67
12131,-129
12132,-175
12133,-183
12134,-154
12135,-114
12136,-106
12137,-175
12138,-192
12139,-110
12140,29
12141,127
12142,131
12143,58
12144,-79
12145,-271
12146,-460
12147,-531
12148,-463
12149,-307
12150,-107
12151,92
12152,236
12153,291
12154,301
12155,284
12156,220
12157,121
12158,-12
12159,-162
12160,-321
12161,-536
12162,-748
12163,-851
12164,-851
12165,-757
12166,-560
12167,-343
12168,-180
12169,-65
12170,-24
12171,-92
12172,-398
12173,-534
12174,-611
12175,-617
12176,-527
12177,-395
12178,-291
12179,-227
12180,-173
12181,-87
12182,16
12183,125
12184,211
12185,224
12186,122
12187,-58
12188,-239
12189,-397
12190,-458
12191,-412
12192,-333
12193,-236
12194,-191
12195,-235
12196,-335
12197,-456
12198,-559
12199,-612
12200,-584
12201,-488
12202,-340
12203,-190
12204,-85
12205,4
12206,45
12207,-124
12208,-293
12209,-445
12210,-539
12211,-564
12212,-518
12213,-433
12214,-351
12215,-327
12216,-372
12217,-433
12218,-472
12219,-479
12220,-441
12221,-369
12222,-307
12223,-304
12224,-348
12225,-382
12226,-360
12227,-286
12228,-214
12229,-165
12230,-141
12231,-151
12232,-229
12233,-352
12234,-419
12235,-382
12236,-259
12237,-127
12238,-44
12239,12
12240,37
12241,44
12242,46
12243,-84
12244,-225
12245,-380
12246,-380
12247,-515
12248,-641
12249,-762
12250,-811
12251,-723
12252,-549
12253,-369
12254,-254
12255,-229
12256,-234
12257,-242
12258,-269
12259,-289
12260,-294
12261,-311
12262,-332
12263,-332
12264,-308
12265,-263
12266,-228
12267,-220
12268,-224
12269,-240
12270,-276
12271,-334
12272,-386
12273,-418
12274,-432
12275,-410
12276,-366
12277,-329
12278,-308
12279,-301
12280,-295
12281,-266
12282,-322
12283,-364
12284,-311
12285,-149
12286,60
12287,194
12288,231
12289,181
12290,-5
12291,-283
12292,-539
12293,-737
12294,-838
12295,-797
12296,-657
12297,-469
12298,-314
12299,-253
12300,-169
12301,1
12302,163
12303,283
12304,357
12305,352
12306,279
12307,142
12308,-61
12309,-269
12310,-435
12311,-550
12312,-582
12313,-538
12314,-471
12315,-395
12316,-304
12317,-189
12318,-178
12319,-192
12320,-209
12321,-212
12322,-215
12323,-218
12324,-194
12325,-146
12326,-108
12327,-92
12328,-89
12329,-117
12330,-181
12331,-248
12332,-298
12333,-314
12334,-288
12335,-214
12336,-100
12337,-2
12338,28
12339,14
12340,-5
12341,-41
12342,-114
12343,-192
12344,-252
12345,-313
12346,-353
12347,-323
12348,-209
12349,-13
12350,219
12351,427
12352,534
12353,512
12354,128
12355,-107
12356,-290
12357,-384
12358,-364
12359,-302
12360,-262
12361,-267
12362,-297
12363,-316
12364,-289
12365,-207
12366,-112
12367,-23
12368,24
12369,18
12370,-21
12371,-98
12372,-180
12373,-235
12374,-257
12375,-243
12376,-213
12377,-174
12378,-128
12379,-83
12380,-27
12381,34
12382,66
12383,67
12384,71
12385,85
12386,106
12387,137
12388,137
12389,136
12390,90
12391,-72
12392,-108
12393,-92
12394,-61
12395,-23
12396,20
12397,58
12398,66
12399,51
12400,39
12401,52
12402,116
12403,212
12404,293
12405,330
12406,308
12407,225
12408,111
12409,11
12410,-74
12411,-141
12412,-186
12413,-205
12414,-188
12415,-152
12416,-120
12417,-109
12418,-111
12419,-122
12420,-130
12421,-111
12422,-105
12423,-109
12424,-73
12425,14
12426,232
12427,271
12428,247
12429,164
12430,36
12431,-98
12432,-201
12433,-272
12434,-284
12435,-213
12436,-116
12437,-40
12438,-1
12439,-8
12440,-45
12441,-74
12442,-59
12443,12
12444,131
12445,256
12446,336
12447,336
12448,251
12449,96
12450,-97
12451,-281
12452,-416
12453,-455
12454,-397
12455,-293
12456,-188
12457,-120
12458,-107
12459,-118
12460,-104
12461,-79
12462,-43
12463,-51
12464,-72
12465,-99
12466,-139
12467,-172
12468,-188
12469,-195
12470,-175
12471,-129
12472,-96
12473,-79
12474,-74
12475,-90
12476,-112
12477,-125
12478,-143
12479,-168
12480,-179
12481,-175
12482,-164
12483,-148
12484,-133
12485,-122
12486,-112
12487,-115
12488,-125
12489,-121
12490,-112
12491,-113
12492,-114
12493,-113
12494,-118
12495,-124
12496,-129
12497,-136
12498,-146
12499,-148
12500,-148
12501,-149
12502,-153
12503,-162
12504,-174
12505,-185
12506,-194
12507,-201
12508,-203
12509,-199
12510,-190
12511,-182
12512,-176
12513,-173
12514,-170
12515,-167
12516,-160
12517,-151
12518,-141
12519,-134
12520,-132
12521,-133
12522,-140
12523,-150
12524,-157
12525,-159
12526,-156
12527,-152
12528,-150
12529,-151
12530,-154
12531,-154
12532,-154
12533,-161
12534,-166
12535,-173
12536,-178
12537,-184
12538,-191
12539,-196
12540,-194
12541,-187
12542,-178
12543,-167
12544,-161
12545,-160
12546,-162
12547,-170
12548,-182
12549,-192
12550,-202
12551,-211
12552,-223
12553,-236
12554,-248
12555,-261
12556,-273
12557,-286
12558,-298
12559,-311
12560,-322
12561,-331
12562,-338
12563,-346
12564,-354
12565,-360
12566,-365
12567,-369
12568,-369
12569,-369
12570,-364
12571,-357
12572,-350
12573,-342
12574,-333
12575,-326
12576,-321
12577,-321
12578,-328
12579,-340
12580,-359
12581,-380
12582,-398
12583,-411
12584,-420
12585,-429
12586,-436
12587,-438
12588,-440
12589,-440
12590,-435
12591,-421
12592,-402
12593,-384
12594,-364
12595,-348
12596,-342
12597,-345
12598,-351
12599,-362
12600,-378
12601,-392
12602,-403
12603,-411
12604,-418
12605,-427
12606,-425
12607,-422
12608,-416
12609,-408
12610,-398
12611,-391
12612,-386
12613,-384
12614,-385
12615,-386
12616,-387
12617,-384
12618,-379
12619,-372
12620,-365
12621,-360
12622,-355
12623,-350
12624,-349
12625,-345
12626,-338
12627,-333
12628,-329
12629,-329
12630,-334
12631,-341
12632,-348
12633,-356
12634,-359
12635,-355
12636,-346
12637,-333
12638,-319
12639,-311
12640,-308
12641,-314
12642,-321
12643,-327
12644,-333
12645,-336
12646,-336
12647,-333
12648,-329
12649,-326
12650,-325
12651,-326
12652,-326
12653,-326
12654,-324
12655,-322
12656,-317
12657,-312
12658,-309
12659,-309
12660,-311
12661,-316
12662,-322
12663,-326
12664,-328
12665,-327
12666,-322
12667,-315
12668,-311
12669,-310
12670,-310
12671,-313
12672,-316
12673,-316
12674,-319
12675,-320
12676,-319
12677,-317
12678,-307
12679,-305
12680,-305
12681,-307
12682,-310
12683,-313
12684,-314
12685,-314
12686,-314
12687,-315
12688,-316
12689,-317
12690,-319
12691,-319
12692,-314
12693,-308
12694,-300
12695,-293
12696,-287
12697,-283
12698,-284
12699,-287
12700,-289
12701,-291
12702,-290
12703,-290
12704,-289
12705,-289
12706,-290
12707,-295
12708,-298
12709,-301
12710,-304
12711,-307
12712,-306
12713,-304
12714,-302
12715,-298
12716,-294
12717,-290
12718,-289
12719,-287
12720,-284
12721,-283
12722,-281
12723,-281
12724,-280
12725,-279
12726,-277
12727,-275
12728,-274
12729,-271
12730,-270
12731,-269
12732,-269
12733,-269
12734,-269
12735,-271
12736,-271
12737,-268
12738,-265
12739,-259
12740,-250
12741,-241
12742,-235
12743,-232
12744,-233
12745,-236
12746,-237
12747,-239
12748,-241
12749,-238
12750,-238
12751,-237
12752,-239
12753,-243
12754,-245
12755,-248
12756,-253
12757,-256
12758,-262
12759,-267
12760,-269
12761,-265
12762,-254
12763,-237
12764,-219
12765,-204
12766,-195
12767,-195
12768,-203
12769,-216
12770,-231
12771,-243
12772,-249
12773,-243
12774,-233
12775,-221
12776,-212
12777,-202
12778,-194
12779,-193
12780,-197
12781,-203
12782,-210
12783,-218
12784,-224
12785,-228
12786,-245
12787,-255
12788,-266
12789,-278
12790,-293
12791,-305
12792,-310
12793,-310
12794,-305
12795,-297
12796,-292
12797,-290
12798,-290
12799,-294
12800,-297
12801,-298
12802,-297
12803,-296
12804,-293
12805,-290
12806,-291
12807,-293
12808,-294
12809,-291
12810,-285
12811,-279
12812,-276
12813,-274
12814,-275
12815,-275
12816,-279
12817,-282
12818,-279
12819,-275
12820,-266
12821,-250
12822,-205
12823,-176
12824,-141
12825,-100
12826,-50
12827,3
12828,53
12829,101
12830,144
12831,176
12832,190
12833,178
12834,134
12835,61
12836,-31
12837,-136
12838,-241
12839,-338
12840,-421
12841,-481
12842,-515
12843,-531
12844,-531
12845,-518
12846,-496
12847,-462
12848,-420
12849,-381
12850,-351
12851,-328
12852,-314
12853,-308
12854,-307
12855,-309
12856,-315
12857,-321
12858,-327
12859,-327
12860,-326
12861,-324
12862,-320
12863,-314
12864,-309
12865,-307
12866,-305
12867,-301
12868,-295
12869,-285
12870,-271
12871,-255
12872,-240
12873,-231
12874,-231
12875,-237
12876,-251
12877,-273
12878,-293
12879,-308
12880,-316
12881,-320
12882,-316
12883,-308
12884,-299
12885,-289
12886,-276
12887,-264
12888,-255
12889,-250
12890,-247
12891,-249
12892,-253
12893,-259
12894,-264
12895,-265
12896,-262
12897,-259
12898,-260
12899,-262
12900,-264
12901,-265
12902,-264
12903,-258
12904,-251
12905,-242
12906,-233
12907,-223
12908,-213
12909,-204
12910,-198
12911,-190
12912,-182
12913,-177
12914,-171
12915,-166
12916,-164
12917,-163
