,ECG
0,-77
1,-78
2,-81
3,-84
4,-87
5,-90
6,-91
7,-91
8,-89
9,-85
10,-80
11,-75
12,-72
13,-71
14,-80
15,-84
16,-91
17,-97
18,-101
19,-104
20,-103
21,-99
22,-97
23,-96
24,-91
25,-90
26,-89
27,-87
28,-85
29,-83
30,-80
31,-76
32,-73
33,-73
34,-73
35,-72
36,-71
37,-71
38,-71
39,-70
40,-68
41,-64
42,-61
43,-58
44,-54
45,-49
46,-46
47,-48
48,-54
49,-59
50,-61
51,-64
52,-64
53,-63
54,-62
55,-59
56,-56
57,-57
58,-59
59,-63
60,-68
61,-69
62,-68
63,-69
64,-67
65,-60
66,-53
67,-46
68,-39
69,-36
70,-37
71,-41
72,-46
73,-49
74,-52
75,-56
76,-57
77,-54
78,-46
79,-43
80,-40
81,-40
82,-39
83,-35
84,-30
85,-22
86,-14
87,-6
88,4
89,11
90,14
91,14
92,11
93,5
94,0
95,-4
96,-8
97,-11
98,-11
99,-11
100,-11
101,-11
102,-11
103,-18
104,-26
105,-35
106,-43
107,-48
108,-52
109,-50
110,-42
111,-34
112,-28
113,-22
114,-24
115,-28
116,-29
117,-29
118,-31
119,-33
120,-33
121,-34
122,-38
123,-43
124,-48
125,-51
126,-52
127,-52
128,-50
129,-47
130,-47
131,-49
132,-49
133,-47
134,-45
135,-42
136,-36
137,-25
138,-11
139,8
140,34
141,63
142,97
143,135
144,175
145,249
146,281
147,307
148,322
149,319
150,294
151,246
152,176
153,94
154,11
155,-65
156,-129
157,-178
158,-208
159,-223
160,-228
161,-228
162,-221
163,-208
164,-189
165,-168
166,-146
167,-123
168,-105
169,-92
170,-82
171,-75
172,-69
173,-63
174,-57
175,-52
176,-48
177,-48
178,-50
179,-52
180,-55
181,-57
182,-59
183,-57
184,-54
185,-51
186,-47
187,-43
188,-41
189,-41
190,-43
191,-47
192,-52
193,-56
194,-58
195,-60
196,-61
197,-61
198,-60
199,-59
200,-59
201,-59
202,-59
203,-59
204,-58
205,-60
206,-58
207,-55
208,-52
209,-52
210,-55
211,-59
212,-62
213,-63
214,-63
215,-59
216,-55
217,-49
218,-43
219,-40
220,-38
221,-38
222,-39
223,-41
224,-41
225,-42
226,-44
227,-47
228,-52
229,-58
230,-68
231,-75
232,-78
233,-79
234,-76
235,-68
236,-59
237,-52
238,-49
239,-48
240,-49
241,-50
242,-50
243,-50
244,-45
245,-42
246,-39
247,-37
248,-38
249,-37
250,-36
251,-35
252,-34
253,-29
254,-23
255,-14
256,-5
257,2
258,7
259,10
260,12
261,12
262,10
263,6
264,2
265,1
266,2
267,3
268,6
269,10
270,15
271,22
272,29
273,31
274,33
275,34
276,32
277,33
278,31
279,31
280,33
281,34
282,35
283,39
284,42
285,46
286,50
287,51
288,53
289,57
290,58
291,60
292,65
293,68
294,69
295,65
296,59
297,49
298,37
299,26
300,19
301,13
302,7
303,2
304,0
305,-5
306,-11
307,-17
308,-22
309,-27
310,-31
311,-36
312,-42
313,-50
314,-57
315,-65
316,-73
317,-81
318,-90
319,-95
320,-99
321,-103
322,-108
323,-112
324,-117
325,-120
326,-124
327,-128
328,-128
329,-127
330,-124
331,-119
332,-114
333,-110
334,-105
335,-102
336,-100
337,-99
338,-100
339,-101
340,-102
341,-104
342,-100
343,-95
344,-87
345,-79
346,-74
347,-73
348,-75
349,-78
350,-83
351,-88
352,-93
353,-95
354,-95
355,-96
356,-95
357,-95
358,-94
359,-92
360,-85
361,-74
362,-64
363,-57
364,-51
365,-48
366,-48
367,-49
368,-54
369,-59
370,-66
371,-75
372,-84
373,-90
374,-95
375,-89
376,-79
377,-69
378,-62
379,-57
380,-55
381,-57
382,-62
383,-68
384,-68
385,-71
386,-75
387,-81
388,-85
389,-87
390,-89
391,-87
392,-83
393,-77
394,-71
395,-68
396,-67
397,-68
398,-73
399,-79
400,-83
401,-86
402,-86
403,-83
404,-79
405,-73
406,-67
407,-65
408,-62
409,-64
410,-66
411,-69
412,-74
413,-80
414,-85
415,-89
416,-91
417,-93
418,-92
419,-91
420,-90
421,-90
422,-93
423,-94
424,-96
425,-99
426,-103
427,-104
428,-106
429,-107
430,-105
431,-106
432,-103
433,-100
434,-99
435,-98
436,-96
437,-97
438,-97
439,-95
440,-92
441,-92
442,-93
443,-93
444,-93
445,-95
446,-97
447,-98
448,-100
449,-100
450,-99
451,-97
452,-97
453,-97
454,-98
455,-99
456,-102
457,-103
458,-102
459,-99
460,-93
461,-88
462,-83
463,-80
464,-79
465,-79
466,-81
467,-83
468,-88
469,-93
470,-98
471,-101
472,-100
473,-97
474,-93
475,-91
476,-89
477,-88
478,-87
479,-85
480,-79
481,-73
482,-66
483,-61
484,-58
485,-57
486,-58
487,-60
488,-61
489,-62
490,-62
491,-61
492,-60
493,-59
494,-58
495,-56
496,-60
497,-67
498,-73
499,-79
500,-85
501,-88
502,-89
503,-87
504,-85
505,-81
506,-77
507,-74
508,-71
509,-64
510,-58
511,-54
512,-52
513,-52
514,-55
515,-59
516,-62
517,-66
518,-71
519,-77
520,-83
521,-90
522,-96
523,-102
524,-108
525,-111
526,-111
527,-113
528,-111
529,-109
530,-106
531,-101
532,-95
533,-89
534,-84
535,-81
536,-79
537,-78
538,-75
539,-75
540,-75
541,-75
542,-75
543,-75
544,-75
545,-76
546,-76
547,-75
548,-74
549,-73
550,-69
551,-65
552,-59
553,-48
554,-29
555,-1
556,32
557,71
558,117
559,166
560,212
561,251
562,288
563,316
564,325
565,315
566,283
567,227
568,154
569,69
570,-17
571,-166
572,-218
573,-251
574,-263
575,-265
576,-258
577,-242
578,-224
579,-204
580,-182
581,-164
582,-148
583,-129
584,-111
585,-95
586,-82
587,-75
588,-74
589,-78
590,-89
591,-98
592,-105
593,-111
594,-113
595,-110
596,-107
597,-102
598,-99
599,-99
600,-99
601,-99
602,-100
603,-97
604,-91
605,-88
606,-86
607,-86
608,-87
609,-88
610,-90
611,-92
612,-93
613,-96
614,-98
615,-100
616,-102
617,-103
618,-100
619,-97
620,-96
621,-94
622,-93
623,-92
624,-91
625,-87
626,-83
627,-78
628,-74
629,-71
630,-67
631,-65
632,-63
633,-63
634,-62
635,-62
636,-67
637,-71
638,-75
639,-79
640,-81
641,-80
642,-75
643,-70
644,-65
645,-57
646,-49
647,-42
648,-37
649,-30
650,-28
651,-28
652,-30
653,-30
654,-32
655,-34
656,-35
657,-35
658,-37
659,-37
660,-36
661,-37
662,-40
663,-41
664,-40
665,-39
666,-37
667,-34
668,-30
669,-30
670,-30
671,-15
672,-10
673,-9
674,-10
675,-13
676,-19
677,-27
678,-33
679,-36
680,-33
681,-29
682,-22
683,-15
684,-9
685,-6
686,-6
687,-8
688,-12
689,-17
690,-21
691,-23
692,-24
693,-23
694,-19
695,-14
696,-8
697,-4
698,-2
699,-2
700,0
701,4
702,9
703,15
704,24
705,27
706,27
707,25
708,21
709,14
710,5
711,0
712,-3
713,-5
714,-7
715,-8
716,-8
717,-10
718,-17
719,-24
720,-31
721,-39
722,-44
723,-44
724,-42
725,-37
726,-31
727,-25
728,-24
729,-29
730,-39
731,-52
732,-66
733,-80
734,-89
735,-94
736,-97
737,-97
738,-100
739,-102
740,-105
741,-107
742,-104
743,-100
744,-92
745,-86
746,-82
747,-78
748,-75
749,-75
750,-79
751,-82
752,-87
753,-94
754,-100
755,-103
756,-106
757,-105
758,-102
759,-94
760,-88
761,-85
762,-83
763,-81
764,-83
765,-83
766,-81
767,-78
768,-76
769,-75
770,-73
771,-76
772,-79
773,-78
774,-79
775,-79
776,-77
777,-77
778,-79
779,-82
780,-87
781,-92
782,-99
783,-104
784,-107
785,-110
786,-114
787,-116
788,-117
789,-117
790,-116
791,-113
792,-107
793,-103
794,-96
795,-88
796,-80
797,-74
798,-67
799,-61
800,-55
801,-52
802,-50
803,-51
804,-59
805,-63
806,-66
807,-70
808,-72
809,-74
810,-76
811,-76
812,-78
813,-78
814,-77
815,-76
816,-72
817,-72
818,-75
819,-81
820,-87
821,-95
822,-103
823,-107
824,-108
825,-104
826,-99
827,-94
828,-91
829,-90
830,-93
831,-98
832,-103
833,-107
834,-109
835,-110
836,-113
837,-116
838,-123
839,-124
840,-122
841,-118
842,-111
843,-104
844,-97
845,-92
846,-90
847,-90
848,-91
849,-92
850,-90
851,-89
852,-90
853,-90
854,-89
855,-87
856,-84
857,-80
858,-75
859,-70
860,-67
861,-65
862,-66
863,-68
864,-70
865,-72
866,-74
867,-76
868,-81
869,-87
870,-92
871,-99
872,-100
873,-99
874,-97
875,-93
876,-91
877,-90
878,-87
879,-85
880,-85
881,-83
882,-78
883,-74
884,-69
885,-65
886,-64
887,-66
888,-70
889,-78
890,-83
891,-89
892,-94
893,-91
894,-84
895,-75
896,-66
897,-59
898,-57
899,-56
900,-54
901,-54
902,-50
903,-46
904,-35
905,-31
906,-28
907,-26
908,-28
909,-32
910,-37
911,-44
912,-52
913,-56
914,-59
915,-62
916,-61
917,-58
918,-57
919,-57
920,-60
921,-68
922,-76
923,-83
924,-90
925,-95
926,-99
927,-103
928,-106
929,-106
930,-106
931,-106
932,-102
933,-99
934,-94
935,-92
936,-91
937,-83
938,-78
939,-70
940,-57
941,-45
942,-34
943,-25
944,-20
945,-20
946,-23
947,-24
948,-25
949,-28
950,-35
951,-41
952,-48
953,-48
954,-57
955,-63
956,-68
957,-72
958,-76
959,-78
960,-81
961,-87
962,-95
963,-102
964,-106
965,-109
966,-108
967,-103
968,-97
969,-90
970,-83
971,-76
972,-77
973,-80
974,-85
975,-90
976,-96
977,-100
978,-104
979,-106
980,-105
981,-105
982,-104
983,-99
984,-92
985,-87
986,-82
987,-76
988,-69
989,-60
990,-50
991,-39
992,-21
993,1
994,30
995,67
996,108
997,149
998,190
999,230
1000,267
1001,303
1002,331
1003,343
1004,305
1005,247
1006,165
1007,68
1008,-34
1009,-126
1010,-203
1011,-256
1012,-284
1013,-295
1014,-294
1015,-281
1016,-259
1017,-232
1018,-202
1019,-175
1020,-151
1021,-133
1022,-121
1023,-115
1024,-111
1025,-108
1026,-106
1027,-103
1028,-101
1029,-101
1030,-100
1031,-100
1032,-99
1033,-95
1034,-89
1035,-84
1036,-73
1037,-73
1038,-75
1039,-74
1040,-71
1041,-65
1042,-59
1043,-55
1044,-52
1045,-54
1046,-56
1047,-63
1048,-68
1049,-70
1050,-67
1051,-62
1052,-53
1053,-47
1054,-42
1055,-43
1056,-47
1057,-53
1058,-59
1059,-63
1060,-66
1061,-65
1062,-67
1063,-70
1064,-73
1065,-77
1066,-82
1067,-84
1068,-82
1069,-76
1070,-61
1071,-53
1072,-47
1073,-41
1074,-36
1075,-32
1076,-28
1077,-25
1078,-23
1079,-22
1080,-24
1081,-26
1082,-28
1083,-31
1084,-32
1085,-34
1086,-35
1087,-33
1088,-31
1089,-30
1090,-28
1091,-25
1092,-23
1093,-19
1094,-17
1095,-17
1096,-18
1097,-17
1098,-17
1099,-16
1100,-13
1101,-11
1102,-11
1103,-10
1104,-10
1105,-12
1106,-17
1107,-21
1108,-20
1109,-16
1110,-8
1111,0
1112,9
1113,18
1114,24
1115,25
1116,23
1117,20
1118,15
1119,13
1120,15
1121,16
1122,20
1123,22
1124,21
1125,18
1126,13
1127,3
1128,-4
1129,-12
1130,-17
1131,-20
1132,-21
1133,-22
1134,-21
1135,-17
1136,-15
1137,-6
1138,-1
1139,4
1140,8
1141,11
1142,13
1143,14
1144,12
1145,9
1146,8
1147,9
1148,10
1149,12
1150,14
1151,16
1152,16
1153,15
1154,15
1155,14
1156,10
1157,6
1158,5
1159,5
1160,6
1161,6
1162,3
1163,-4
1164,-12
1165,-24
1166,-38
1167,-53
1168,-66
1169,-76
1170,-82
1171,-82
1172,-82
1173,-84
1174,-85
1175,-84
1176,-83
1177,-83
1178,-82
1179,-84
1180,-88
1181,-91
1182,-95
1183,-100
1184,-101
1185,-102
1186,-102
1187,-101
1188,-102
1189,-106
1190,-111
1191,-118
1192,-124
1193,-127
1194,-129
1195,-130
1196,-128
1197,-128
1198,-130
1199,-130
1200,-130
1201,-130
1202,-130
1203,-127
1204,-128
1205,-126
1206,-124
1207,-122
1208,-120
1209,-117
1210,-116
1211,-116
1212,-119
1213,-123
1214,-127
1215,-130
1216,-132
1217,-129
1218,-124
1219,-115
1220,-109
1221,-105
1222,-103
1223,-104
1224,-109
1225,-115
1226,-121
1227,-126
1228,-130
1229,-130
1230,-127
1231,-123
1232,-120
1233,-120
1234,-122
1235,-133
1236,-139
1237,-142
1238,-142
1239,-142
1240,-139
1241,-132
1242,-126
1243,-123
1244,-125
1245,-127
1246,-130
1247,-132
1248,-131
1249,-126
1250,-120
1251,-116
1252,-113
1253,-111
1254,-112
1255,-115
1256,-114
1257,-112
1258,-111
1259,-111
1260,-115
1261,-121
1262,-127
1263,-136
1264,-142
1265,-141
1266,-137
1267,-128
1268,-117
1269,-108
1270,-103
1271,-107
1272,-108
1273,-110
1274,-110
1275,-107
1276,-100
1277,-95
1278,-94
1279,-96
1280,-102
1281,-108
1282,-115
1283,-121
1284,-122
1285,-123
1286,-123
1287,-118
1288,-114
1289,-113
1290,-112
1291,-112
1292,-111
1293,-109
1294,-108
1295,-106
1296,-103
1297,-102
1298,-102
1299,-104
1300,-109
1301,-114
1302,-116
1303,-109
1304,-101
1305,-93
1306,-86
1307,-80
1308,-78
1309,-79
1310,-82
1311,-86
1312,-89
1313,-91
1314,-93
1315,-94
1316,-93
1317,-90
1318,-83
1319,-75
1320,-70
1321,-65
1322,-62
1323,-62
1324,-62
1325,-62
1326,-62
1327,-62
1328,-60
1329,-60
1330,-64
1331,-69
1332,-77
1333,-83
1334,-86
1335,-82
1336,-76
1337,-68
1338,-58
1339,-50
1340,-45
1341,-41
1342,-37
1343,-36
1344,-34
1345,-32
1346,-31
1347,-32
1348,-36
1349,-39
1350,-41
1351,-43
1352,-44
1353,-42
1354,-40
1355,-36
1356,-35
1357,-35
1358,-37
1359,-38
1360,-38
1361,-37
1362,-33
1363,-28
1364,-23
1365,-21
1366,-21
1367,-22
1368,-24
1369,-24
1370,-21
1371,-16
1372,-10
1373,-2
1374,5
1375,10
1376,12
1377,13
1378,13
1379,10
1380,10
1381,8
1382,7
1383,6
1384,6
1385,8
1386,9
1387,11
1388,11
1389,10
1390,8
1391,6
1392,2
1393,-2
1394,-8
1395,-15
1396,-23
1397,-33
1398,-42
1399,-49
1400,-55
1401,-58
1402,-58
1403,-57
1404,-56
1405,-58
1406,-57
1407,-58
1408,-59
1409,-61
1410,-62
1411,-63
1412,-65
1413,-68
1414,-71
1415,-71
1416,-71
1417,-67
1418,-63
1419,-59
1420,-59
1421,-60
1422,-61
1423,-60
1424,-59
1425,-56
1426,-50
1427,-40
1428,-26
1429,-7
1430,17
1431,46
1432,80
1433,120
1434,210
1435,254
1436,298
1437,335
1438,361
1439,368
1440,350
1441,302
1442,229
1443,140
1444,41
1445,-51
1446,-131
1447,-194
1448,-235
1449,-258
1450,-267
1451,-265
1452,-254
1453,-238
1454,-215
1455,-189
1456,-164
1457,-139
1458,-116
1459,-100
1460,-84
1461,-73
1462,-67
1463,-62
1464,-62
1465,-63
1466,-66
1467,-70
1468,-69
1469,-67
1470,-66
1471,-65
1472,-64
1473,-64
1474,-63
1475,-63
1476,-61
1477,-59
1478,-56
1479,-52
1480,-50
1481,-50
1482,-50
1483,-50
1484,-51
1485,-52
1486,-54
1487,-52
1488,-49
1489,-47
1490,-45
1491,-43
1492,-42
1493,-42
1494,-42
1495,-42
1496,-40
1497,-40
1498,-40
1499,-29
1500,-25
1501,-20
1502,-16
1503,-17
1504,-20
1505,-24
1506,-30
1507,-33
1508,-36
1509,-37
1510,-38
1511,-38
1512,-42
1513,-44
1514,-48
1515,-54
1516,-55
1517,-53
1518,-51
1519,-47
1520,-42
1521,-38
1522,-38
1523,-37
1524,-39
1525,-40
1526,-41
1527,-44
1528,-49
1529,-51
1530,-52
1531,-54
1532,-52
1533,-48
1534,-42
1535,-35
1536,-27
1537,-21
1538,-18
1539,-15
1540,-13
1541,-9
1542,-6
1543,-2
1544,0
1545,-1
1546,-3
1547,-7
1548,-13
1549,-20
1550,-24
1551,-24
1552,-23
1553,-23
1554,-23
1555,-23
1556,-22
1557,-22
1558,-20
1559,-16
1560,-12
1561,-7
1562,-4
1563,-2
1564,-2
1565,-5
1566,-14
1567,-20
1568,-26
1569,-31
1570,-36
1571,-39
1572,-39
1573,-40
1574,-38
1575,-34
1576,-30
1577,-29
1578,-27
1579,-25
1580,-25
1581,-28
1582,-31
1583,-35
1584,-40
1585,-45
1586,-49
1587,-52
1588,-55
1589,-58
1590,-59
1591,-60
1592,-62
1593,-63
1594,-64
1595,-66
1596,-70
1597,-75
1598,-82
1599,-84
1600,-86
1601,-86
1602,-84
1603,-78
1604,-74
1605,-70
1606,-67
1607,-67
1608,-70
1609,-74
1610,-79
1611,-84
1612,-91
1613,-98
1614,-103
1615,-109
1616,-116
1617,-120
1618,-120
1619,-118
1620,-116
1621,-111
1622,-104
1623,-99
1624,-95
1625,-91
1626,-88
1627,-88
1628,-91
1629,-94
1630,-107
1631,-114
1632,-118
1633,-119
1634,-120
1635,-118
1636,-114
1637,-111
1638,-109
1639,-110
1640,-112
1641,-112
1642,-112
1643,-111
1644,-106
1645,-104
1646,-102
1647,-99
1648,-96
1649,-93
1650,-90
1651,-88
1652,-86
1653,-84
1654,-84
1655,-85
1656,-87
1657,-89
1658,-89
1659,-86
1660,-85
1661,-86
1662,-86
1663,-97
1664,-97
1665,-104
1666,-111
1667,-118
1668,-123
1669,-127
1670,-132
1671,-137
1672,-142
1673,-143
1674,-144
1675,-143
1676,-138
1677,-132
1678,-128
1679,-124
1680,-122
1681,-124
1682,-127
1683,-127
1684,-125
1685,-122
1686,-119
1687,-119
1688,-121
1689,-126
1690,-132
1691,-136
1692,-135
1693,-131
1694,-123
1695,-113
1696,-95
1697,-92
1698,-93
1699,-95
1700,-96
1701,-97
1702,-96
1703,-92
1704,-90
1705,-87
1706,-84
1707,-81
1708,-78
1709,-73
1710,-68
1711,-61
1712,-56
1713,-54
1714,-55
1715,-61
1716,-70
1717,-76
1718,-78
1719,-78
1720,-77
1721,-73
1722,-71
1723,-71
1724,-72
1725,-73
1726,-75
1727,-76
1728,-74
1729,-74
1730,-74
1731,-74
1732,-73
1733,-72
1734,-73
1735,-76
1736,-79
1737,-84
1738,-89
1739,-91
1740,-93
1741,-94
1742,-92
1743,-89
1744,-88
1745,-89
1746,-92
1747,-93
1748,-92
1749,-93
1750,-91
1751,-89
1752,-87
1753,-85
1754,-84
1755,-85
1756,-84
1757,-82
1758,-82
1759,-81
1760,-78
1761,-78
1762,-79
1763,-80
1764,-82
1765,-85
1766,-87
1767,-87
1768,-88
1769,-90
1770,-91
1771,-90
1772,-89
1773,-87
1774,-86
1775,-86
1776,-88
1777,-89
1778,-90
1779,-89
1780,-87
1781,-84
1782,-80
1783,-74
1784,-69
1785,-65
1786,-61
1787,-57
1788,-51
1789,-43
1790,-37
1791,-32
1792,-27
1793,-31
1794,-33
1795,-38
1796,-42
1797,-43
1798,-43
1799,-43
1800,-43
1801,-45
1802,-46
1803,-49
1804,-55
1805,-63
1806,-71
1807,-71
1808,-79
1809,-84
1810,-87
1811,-88
1812,-88
1813,-86
1814,-85
1815,-86
1816,-90
1817,-94
1818,-97
1819,-98
1820,-97
1821,-95
1822,-94
1823,-93
1824,-92
1825,-94
1826,-96
1827,-99
1828,-104
1829,-102
1830,-100
1831,-96
1832,-89
1833,-80
1834,-71
1835,-59
1836,-42
1837,-18
1838,11
1839,45
1840,84
1841,128
1842,172
1843,216
1844,255
1845,291
1846,316
1847,323
1848,308
1849,268
1850,202
1851,116
1852,23
1853,-68
1854,-147
1855,-210
1856,-255
1857,-278
1858,-285
1859,-285
1860,-274
1861,-232
1862,-208
1863,-183
1864,-160
1865,-138
1866,-120
1867,-108
1868,-99
1869,-92
1870,-90
1871,-89
1872,-89
1873,-91
1874,-93
1875,-91
1876,-91
1877,-90
1878,-88
1879,-87
1880,-87
1881,-84
1882,-81
1883,-79
1884,-78
1885,-80
1886,-84
1887,-86
1888,-89
1889,-93
1890,-93
1891,-92
1892,-89
1893,-81
1894,-80
1895,-79
1896,-79
1897,-78
1898,-74
1899,-69
1900,-63
1901,-59
1902,-54
1903,-50
1904,-50
1905,-51
1906,-55
1907,-61
1908,-64
1909,-64
1910,-62
1911,-59
1912,-57
1913,-56
1914,-56
1915,-57
1916,-57
1917,-56
1918,-54
1919,-49
1920,-44
1921,-40
1922,-39
1923,-41
1924,-45
1925,-48
1926,-50
1927,-43
1928,-36
1929,-29
1930,-21
1931,-17
1932,-17
1933,-20
1934,-24
1935,-27
1936,-32
1937,-35
1938,-35
1939,-33
1940,-32
1941,-30
1942,-26
1943,-24
1944,-23
1945,-20
1946,-15
1947,-8
1948,-4
1949,-4
1950,0
1951,2
1952,0
1953,-3
1954,-8
1955,-13
1956,-18
1957,-21
1958,-22
1959,-21
1960,-29
1961,-33
1962,-37
1963,-41
1964,-39
1965,-34
1966,-29
1967,-20
1968,-11
1969,-5
1970,0
1971,6
1972,13
1973,20
1974,25
1975,26
1976,25
1977,19
1978,13
1979,9
1980,6
1981,6
1982,10
1983,14
1984,17
1985,16
1986,12
1987,6
1988,1
1989,-3
1990,-5
1991,-7
1992,-9
1993,-13
1994,-18
1995,-20
1996,-23
1997,-26
1998,-27
1999,-28
2000,-31
2001,-35
2002,-40
2003,-45
2004,-47
2005,-49
2006,-48
2007,-46
2008,-44
2009,-43
2010,-43
2011,-43
2012,-45
2013,-51
2014,-58
2015,-65
2016,-71
2017,-77
2018,-81
2019,-83
2020,-84
2021,-84
2022,-84
2023,-85
2024,-88
2025,-94
2026,-98
2027,-104
2028,-108
2029,-112
2030,-116
2031,-119
2032,-123
2033,-123
2034,-119
2035,-115
2036,-111
2037,-106
2038,-101
2039,-101
2040,-104
2041,-107
2042,-110
2043,-113
2044,-115
2045,-114
2046,-111
2047,-108
2048,-105
2049,-101
2050,-99
2051,-98
2052,-98
2053,-96
2054,-93
2055,-87
2056,-82
2057,-77
2058,-73
2059,-69
2060,-70
2061,-74
2062,-80
2063,-87
2064,-97
2065,-105
2066,-110
2067,-117
2068,-120
2069,-118
2070,-117
2071,-116
2072,-113
2073,-110
2074,-106
2075,-102
2076,-97
2077,-92
2078,-87
2079,-86
2080,-86
2081,-89
2082,-95
2083,-104
2084,-110
2085,-115
2086,-119
2087,-119
2088,-118
2089,-114
2090,-109
2091,-105
2092,-105
2093,-99
2094,-99
2095,-98
2096,-98
2097,-97
2098,-94
2099,-91
2100,-87
2101,-83
2102,-81
2103,-81
2104,-83
2105,-86
2106,-89
2107,-90
2108,-88
2109,-84
2110,-80
2111,-78
2112,-77
2113,-78
2114,-82
2115,-87
2116,-90
2117,-93
2118,-95
2119,-95
2120,-92
2121,-88
2122,-85
2123,-84
2124,-83
2125,-82
2126,-85
2127,-84
2128,-82
2129,-79
2130,-74
2131,-69
2132,-65
2133,-64
2134,-67
2135,-69
2136,-72
2137,-75
2138,-76
2139,-75
2140,-75
2141,-73
2142,-73
2143,-71
2144,-71
2145,-73
2146,-74
2147,-75
2148,-78
2149,-79
2150,-79
2151,-79
2152,-80
2153,-78
2154,-76
2155,-75
2156,-74
2157,-73
2158,-71
2159,-69
2160,-69
2161,-68
2162,-69
2163,-70
2164,-70
2165,-71
2166,-72
2167,-68
2168,-61
2169,-54
2170,-47
2171,-41
2172,-35
2173,-31
2174,-28
2175,-31
2176,-36
2177,-45
2178,-58
2179,-69
2180,-80
2181,-90
2182,-95
2183,-99
2184,-100
2185,-100
2186,-101
2187,-104
2188,-108
2189,-110
2190,-110
2191,-105
2192,-87
2193,-77
2194,-70
2195,-67
2196,-68
2197,-74
2198,-82
2199,-90
2200,-95
2201,-97
2202,-94
2203,-91
2204,-85
2205,-76
2206,-64
2207,-53
2208,-40
2209,-29
2210,-22
2211,-19
2212,-23
2213,-33
2214,-46
2215,-59
2216,-70
2217,-79
2218,-86
2219,-89
2220,-93
2221,-96
2222,-99
2223,-103
2224,-105
2225,-103
2226,-97
2227,-90
2228,-84
2229,-82
2230,-81
2231,-82
2232,-85
2233,-85
2234,-89
2235,-93
2236,-98
2237,-101
2238,-103
2239,-104
2240,-103
2241,-101
2242,-100
2243,-99
2244,-95
2245,-94
2246,-94
2247,-94
2248,-91
2249,-87
2250,-78
2251,-65
2252,-42
2253,-10
2254,24
2255,61
2256,103
2257,148
2258,189
2259,269
2260,306
2261,338
2262,358
2263,356
2264,324
2265,263
2266,179
2267,86
2268,-7
2269,-91
2270,-159
2271,-207
2272,-234
2273,-244
2274,-244
2275,-238
2276,-226
2277,-206
2278,-179
2279,-153
2280,-130
2281,-112
2282,-100
2283,-93
2284,-89
2285,-85
2286,-83
2287,-83
2288,-84
2289,-83
2290,-82
2291,-84
2292,-85
2293,-86
2294,-89
2295,-92
2296,-96
2297,-101
2298,-106
2299,-108
2300,-107
2301,-105
2302,-102
2303,-97
2304,-91
2305,-86
2306,-83
2307,-80
2308,-78
2309,-78
2310,-78
2311,-79
2312,-78
2313,-77
2314,-77
2315,-73
2316,-69
2317,-65
2318,-61
2319,-55
2320,-51
2321,-51
2322,-52
2323,-56
2324,-62
2325,-64
2326,-62
2327,-59
2328,-56
2329,-54
2330,-54
2331,-57
2332,-59
2333,-62
2334,-67
2335,-68
2336,-66
2337,-62
2338,-59
2339,-56
2340,-52
2341,-48
2342,-43
2343,-37
2344,-31
2345,-29
2346,-29
2347,-31
2348,-35
2349,-40
2350,-43
2351,-43
2352,-41
2353,-35
2354,-29
2355,-23
2356,-19
2357,-21
2358,-23
2359,-25
2360,-25
2361,-22
2362,-20
2363,-17
2364,-11
2365,-5
2366,0
2367,3
2368,2
2369,0
2370,0
2371,0
2372,1
2373,3
2374,4
2375,4
2376,6
2377,10
2378,14
2379,18
2380,21
2381,25
2382,30
2383,34
2384,35
2385,37
2386,34
2387,29
2388,25
2389,23
2390,24
2391,25
2392,26
2393,28
2394,27
2395,25
2396,22
2397,19
2398,16
2399,16
2400,18
2401,20
2402,23
2403,26
2404,26
2405,26
2406,27
2407,24
2408,23
2409,27
2410,31
2411,34
2412,36
2413,34
2414,29
2415,19
2416,8
2417,0
2418,-6
2419,-12
2420,-15
2421,-15
2422,-18
2423,-22
2424,-27
2425,-41
2426,-46
2427,-48
2428,-49
2429,-51
2430,-53
2431,-55
2432,-60
2433,-66
2434,-72
2435,-77
2436,-80
2437,-78
2438,-74
2439,-68
2440,-63
2441,-59
2442,-58
2443,-60
2444,-65
2445,-71
2446,-81
2447,-91
2448,-100
2449,-106
2450,-109
2451,-106
2452,-100
2453,-95
2454,-89
2455,-85
2456,-82
2457,-85
2458,-86
2459,-84
2460,-81
2461,-79
2462,-78
2463,-81
2464,-86
2465,-94
2466,-102
2467,-109
2468,-114
2469,-120
2470,-120
2471,-117
2472,-114
2473,-112
2474,-110
2475,-107
2476,-104
2477,-104
2478,-104
2479,-107
2480,-111
2481,-118
2482,-124
2483,-128
2484,-130
2485,-130
2486,-129
2487,-127
2488,-125
2489,-124
2490,-115
2491,-108
2492,-98
2493,-87
2494,-78
2495,-74
2496,-76
2497,-81
2498,-88
2499,-94
2500,-97
2501,-95
2502,-87
2503,-79
2504,-75
2505,-74
2506,-76
2507,-82
2508,-87
2509,-91
2510,-91
2511,-88
2512,-83
2513,-75
2514,-69
2515,-63
2516,-61
2517,-62
2518,-62
2519,-63
2520,-64
2521,-67
2522,-69
2523,-69
2524,-70
2525,-64
2526,-63
2527,-61
2528,-58
2529,-56
2530,-55
2531,-55
2532,-57
2533,-57
2534,-54
2535,-51
2536,-49
2537,-46
2538,-43
2539,-42
2540,-41
2541,-42
2542,-45
2543,-48
2544,-50
2545,-53
2546,-57
2547,-60
2548,-66
2549,-70
2550,-73
2551,-75
2552,-77
2553,-78
2554,-78
2555,-77
2556,-76
2557,-72
2558,-68
2559,-66
2560,-65
2561,-63
2562,-61
2563,-62
2564,-65
2565,-66
2566,-70
2567,-73
2568,-74
2569,-71
2570,-67
2571,-60
2572,-54
2573,-49
2574,-45
2575,-45
2576,-51
2577,-56
2578,-62
2579,-70
2580,-75
2581,-76
2582,-75
2583,-70
2584,-66
2585,-60
2586,-53
2587,-47
2588,-44
2589,-43
2590,-46
2591,-50
2592,-54
2593,-58
2594,-62
2595,-61
2596,-62
2597,-63
2598,-62
2599,-60
2600,-60
2601,-57
2602,-56
2603,-55
2604,-55
2605,-56
2606,-57
2607,-56
2608,-55
2609,-53
2610,-49
2611,-47
2612,-46
2613,-49
2614,-55
2615,-60
2616,-63
2617,-65
2618,-65
2619,-59
2620,-52
2621,-44
2622,-38
2623,-33
2624,-30
2625,-29
2626,-26
2627,-21
2628,-15
2629,-13
2630,-10
2631,-9
2632,-12
2633,-15
2634,-21
2635,-24
2636,-26
2637,-28
2638,-31
2639,-35
2640,-44
2641,-55
2642,-63
2643,-69
2644,-72
2645,-71
2646,-67
2647,-62
2648,-57
2649,-55
2650,-55
2651,-58
2652,-63
2653,-68
2654,-70
2655,-72
2656,-73
2657,-73
2658,-71
2659,-68
2660,-68
2661,-64
2662,-59
2663,-55
2664,-52
2665,-51
2666,-52
2667,-55
2668,-60
2669,-64
2670,-64
2671,-61
2672,-55
2673,-48
2674,-38
2675,-24
2676,-6
2677,15
2678,39
2679,68
2680,100
2681,136
2682,176
2683,217
2684,258
2685,297
2686,332
2687,354
2688,353
2689,324
2690,192
2691,100
2692,4
2693,-85
2694,-163
2695,-225
2696,-263
2697,-282
2698,-287
2699,-280
2700,-265
2701,-241
2702,-212
2703,-186
2704,-160
2705,-137
2706,-118
2707,-103
2708,-90
2709,-81
2710,-76
2711,-76
2712,-76
2713,-76
2714,-76
2715,-76
2716,-77
2717,-79
2718,-82
2719,-84
2720,-85
2721,-86
2722,-84
2723,-82
2724,-81
2725,-82
2726,-87
2727,-91
2728,-96
2729,-97
2730,-97
2731,-96
2732,-93
2733,-88
2734,-82
2735,-76
2736,-70
2737,-65
2738,-62
2739,-59
2740,-54
2741,-49
2742,-45
2743,-40
2744,-37
2745,-38
2746,-42
2747,-47
2748,-53
2749,-57
2750,-56
2751,-53
2752,-47
2753,-40
2754,-36
2755,-32
2756,-34
2757,-39
2758,-42
2759,-44
2760,-47
2761,-49
2762,-50
2763,-51
2764,-49
2765,-48
2766,-45
2767,-44
2768,-41
2769,-39
2770,-35
2771,-33
2772,-31
2773,-28
2774,-25
2775,-20
2776,-15
2777,-14
2778,-13
2779,-12
2780,-12
2781,-15
2782,-19
2783,-23
2784,-25
2785,-27
2786,-27
2787,-26
2788,-24
2789,-22
2790,-19
2791,-16
2792,-15
2793,-11
2794,-8
2795,-5
2796,-1
2797,2
2798,6
2799,10
2800,15
2801,20
2802,20
2803,25
2804,29
2805,32
2806,30
2807,26
2808,21
2809,15
2810,9
2811,6
2812,5
2813,5
2814,6
2815,10
2816,13
2817,17
2818,21
2819,27
2820,31
2821,33
2822,34
2823,31
2824,26
2825,21
2826,16
2827,12
2828,11
2829,10
2830,11
2831,13
2832,13
2833,14
2834,12
2835,10
2836,9
2837,5
2838,2
2839,1
2840,0
2841,-3
2842,-10
2843,-19
2844,-28
2845,-38
2846,-48
2847,-55
2848,-61
2849,-67
2850,-71
2851,-72
2852,-73
2853,-74
2854,-75
2855,-75
2856,-79
2857,-83
2858,-89
2859,-94
2860,-99
2861,-103
2862,-105
2863,-108
2864,-113
2865,-116
2866,-118
2867,-118
2868,-116
2869,-112
2870,-110
2871,-107
2872,-106
2873,-108
2874,-110
2875,-113
2876,-116
2877,-119
2878,-123
2879,-127
2880,-131
2881,-134
2882,-135
2883,-132
2884,-128
2885,-122
2886,-117
2887,-112
2888,-107
2889,-108
2890,-106
2891,-102
2892,-98
2893,-93
2894,-90
2895,-89
2896,-91
2897,-95
2898,-100
2899,-105
2900,-109
2901,-111
2902,-107
2903,-98
2904,-89
2905,-81
2906,-77
2907,-74
2908,-75
2909,-78
2910,-81
2911,-85
2912,-88
2913,-89
2914,-89
2915,-89
2916,-88
2917,-91
2918,-94
2919,-97
2920,-101
2921,-112
2922,-116
2923,-118
2924,-117
2925,-115
2926,-111
2927,-104
2928,-100
2929,-95
2930,-91
2931,-90
2932,-90
2933,-90
2934,-91
2935,-92
2936,-95
2937,-98
2938,-99
2939,-100
2940,-101
2941,-100
2942,-94
2943,-90
2944,-90
2945,-88
2946,-88
2947,-89
2948,-90
2949,-91
2950,-90
2951,-88
2952,-87
2953,-85
2954,-85
2955,-91
2956,-96
2957,-99
2958,-98
2959,-93
2960,-86
2961,-78
2962,-72
2963,-72
2964,-74
2965,-77
2966,-82
2967,-87
2968,-89
2969,-88
2970,-85
2971,-81
2972,-79
2973,-76
2974,-74
2975,-74
2976,-75
2977,-76
2978,-80
2979,-86
2980,-93
2981,-100
2982,-106
2983,-108
2984,-109
2985,-104
2986,-98
2987,-88
2988,-87
2989,-88
2990,-89
2991,-91
2992,-92
2993,-92
2994,-91
2995,-90
2996,-89
2997,-89
2998,-87
2999,-85
3000,-83
3001,-81
3002,-78
3003,-76
3004,-76
3005,-78
3006,-81
3007,-84
3008,-86
3009,-87
3010,-88
3011,-87
3012,-86
3013,-84
3014,-84
3015,-87
3016,-90
3017,-91
3018,-93
3019,-89
3020,-83
3021,-80
3022,-80
3023,-79
3024,-82
3025,-85
3026,-87
3027,-88
3028,-88
3029,-88
3030,-86
3031,-81
3032,-77
3033,-71
3034,-67
3035,-60
3036,-55
3037,-54
3038,-54
3039,-57
3040,-58
3041,-54
3042,-46
3043,-38
3044,-27
3045,-16
3046,-10
3047,-10
3048,-16
3049,-25
3050,-36
3051,-44
3052,-45
3053,-46
3054,-50
3055,-55
3056,-64
3057,-78
3058,-92
3059,-102
3060,-106
3061,-108
3062,-109
3063,-107
3064,-103
3065,-103
3066,-101
3067,-96
3068,-90
3069,-85
3070,-81
3071,-78
3072,-77
3073,-80
3074,-87
3075,-91
3076,-96
3077,-99
3078,-98
3079,-95
3080,-93
3081,-93
3082,-96
3083,-99
3084,-102
3085,-102
3086,-97
3087,-97
3088,-91
3089,-82
3090,-70
3091,-57
3092,-41
3093,-21
3094,3
3095,34
3096,70
3097,113
3098,159
3099,202
3100,244
3101,281
3102,302
3103,303
3104,276
3105,223
3106,147
3107,57
3108,-35
3109,-119
3110,-190
3111,-244
3112,-277
3113,-296
3114,-305
3115,-306
3116,-299
3117,-285
3118,-264
3119,-210
3120,-182
3121,-156
3122,-137
3123,-124
3124,-115
3125,-111
3126,-107
3127,-105
3128,-101
3129,-97
3130,-92
3131,-87
3132,-83
3133,-80
3134,-78
3135,-80
3136,-81
3137,-83
3138,-84
3139,-87
3140,-91
3141,-95
3142,-97
3143,-98
3144,-96
3145,-93
3146,-90
3147,-87
3148,-84
3149,-82
3150,-80
3151,-77
3152,-69
3153,-66
3154,-66
3155,-69
3156,-75
3157,-79
3158,-80
3159,-79
3160,-75
3161,-70
3162,-67
3163,-65
3164,-68
3165,-74
3166,-78
3167,-82
3168,-85
3169,-85
3170,-86
3171,-88
3172,-85
3173,-82
3174,-80
3175,-76
3176,-72
3177,-69
3178,-66
3179,-61
3180,-57
3181,-51
3182,-46
3183,-43
3184,-38
3185,-37
3186,-37
3187,-38
3188,-39
3189,-39
3190,-40
3191,-38
3192,-34
3193,-29
3194,-25
3195,-21
3196,-17
3197,-15
3198,-18
3199,-20
3200,-22
3201,-23
3202,-21
3203,-18
3204,-16
3205,-17
3206,-18
3207,-19
3208,-20
3209,-19
3210,-16
3211,-13
3212,-10
3213,-8
3214,-12
3215,-17
3216,-25
3217,-31
3218,-34
3219,-34
3220,-28
3221,-21
3222,-17
3223,-15
3224,-14
3225,-16
3226,-17
3227,-18
3228,-16
3229,-16
3230,-14
3231,-11
3232,-7
3233,-2
3234,-1
3235,-3
3236,-6
3237,-11
3238,-18
3239,-26
3240,-30
3241,-30
3242,-28
3243,-26
3244,-22
3245,-19
3246,-22
3247,-26
3248,-32
3249,-41
3250,-48
3251,-47
3252,-44
3253,-33
3254,-28
3255,-26
3256,-29
3257,-33
3258,-37
3259,-41
3260,-42
3261,-39
3262,-38
3263,-39
3264,-45
3265,-52
3266,-59
3267,-69
3268,-80
3269,-87
3270,-93
3271,-96
3272,-96
3273,-95
3274,-95
3275,-92
3276,-90
3277,-92
3278,-94
3279,-101
3280,-110
3281,-118
3282,-124
3283,-128
3284,-130
3285,-127
3286,-122
3287,-116
3288,-110
3289,-102
3290,-95
3291,-92
3292,-89
3293,-90
3294,-92
3295,-97
3296,-99
3297,-101
3298,-103
3299,-102
3300,-101
3301,-98
3302,-94
3303,-92
3304,-88
3305,-83
3306,-81
3307,-79
3308,-80
3309,-82
3310,-85
3311,-87
3312,-89
3313,-92
3314,-96
3315,-99
3316,-103
3317,-107
3318,-104
3319,-98
3320,-93
3321,-88
3322,-83
3323,-83
3324,-84
3325,-86
3326,-86
3327,-84
3328,-80
3329,-74
3330,-70
3331,-69
3332,-69
3333,-72
3334,-74
3335,-75
3336,-76
3337,-74
3338,-72
3339,-71
3340,-70
3341,-70
3342,-70
3343,-70
3344,-68
3345,-65
3346,-61
3347,-57
3348,-56
3349,-57
3350,-67
3351,-74
3352,-79
3353,-82
3354,-84
3355,-85
3356,-82
3357,-78
3358,-76
3359,-74
3360,-71
3361,-71
3362,-67
3363,-67
3364,-66
3365,-65
3366,-67
3367,-67
3368,-66
3369,-63
3370,-63
3371,-63
3372,-61
3373,-61
3374,-64
3375,-68
3376,-71
3377,-74
3378,-72
3379,-69
3380,-66
3381,-64
3382,-63
3383,-65
3384,-67
3385,-65
3386,-60
3387,-52
3388,-45
3389,-41
3390,-38
3391,-40
3392,-45
3393,-50
3394,-57
3395,-65
3396,-69
3397,-71
3398,-74
3399,-76
3400,-77
3401,-79
3402,-80
3403,-80
3404,-79
3405,-76
3406,-75
3407,-72
3408,-71
3409,-73
3410,-77
3411,-82
3412,-85
3413,-85
3414,-82
3415,-75
3416,-55
3417,-47
3418,-43
3419,-43
3420,-48
3421,-56
3422,-66
3423,-75
3424,-80
3425,-83
3426,-84
3427,-81
3428,-77
3429,-76
3430,-77
3431,-80
3432,-82
3433,-85
3434,-84
3435,-78
3436,-69
3437,-59
3438,-50
3439,-39
3440,-32
3441,-29
3442,-27
3443,-25
3444,-24
3445,-24
3446,-25
3447,-27
3448,-34
3449,-36
3450,-36
3451,-36
3452,-35
3453,-32
3454,-34
3455,-39
3456,-47
3457,-59
3458,-74
3459,-86
3460,-96
3461,-101
3462,-100
3463,-96
3464,-89
3465,-80
3466,-76
3467,-74
3468,-73
3469,-75
3470,-78
3471,-80
3472,-81
3473,-79
3474,-77
3475,-76
3476,-76
3477,-76
3478,-78
3479,-80
3480,-84
3481,-93
3482,-95
3483,-94
3484,-92
3485,-92
3486,-91
3487,-91
3488,-92
3489,-91
3490,-86
3491,-74
3492,-54
3493,-25
3494,10
3495,49
3496,90
3497,130
3498,168
3499,204
3500,241
3501,276
3502,300
3503,306
3504,287
3505,239
3506,167
3507,77
3508,-20
3509,-112
3510,-190
3511,-247
3512,-285
3513,-285
3514,-285
3515,-306
3516,-296
3517,-281
3518,-260
3519,-236
3520,-210
3521,-183
3522,-156
3523,-134
3524,-119
3525,-111
3526,-109
3527,-111
3528,-118
3529,-127
3530,-134
3531,-140
3532,-144
3533,-146
3534,-144
3535,-140
3536,-136
3537,-129
3538,-123
3539,-122
3540,-128
3541,-137
3542,-144
3543,-150
3544,-154
3545,-153
3546,-146
3547,-138
3548,-125
3549,-120
3550,-119
3551,-116
3552,-111
3553,-105
3554,-99
3555,-98
3556,-101
3557,-103
3558,-107
3559,-112
3560,-113
3561,-108
3562,-99
3563,-88
3564,-75
3565,-64
3566,-54
3567,-50
3568,-48
3569,-51
3570,-54
3571,-59
3572,-65
3573,-70
3574,-75
3575,-79
3576,-82
3577,-82
3578,-81
3579,-78
3580,-74
3581,-70
3582,-68
3583,-70
3584,-70
3585,-68
3586,-66
3587,-64
3588,-60
3589,-56
3590,-55
3591,-56
3592,-53
3593,-49
3594,-45
3595,-41
3596,-37
3597,-36
3598,-37
3599,-40
3600,-40
3601,-37
3602,-34
3603,-26
3604,-16
3605,-8
3606,-2
3607,1
3608,0
3609,-3
3610,-4
3611,-4
3612,-3
3613,-2
3614,-1
3615,0
3616,1
3617,4
3618,6
3619,8
3620,11
3621,15
3622,17
3623,18
3624,14
3625,13
3626,12
3627,13
3628,16
3629,18
3630,20
3631,21
3632,23
3633,20
3634,19
3635,19
3636,18
3637,17
3638,16
3639,11
3640,9
3641,6
3642,4
3643,5
3644,10
3645,17
3646,16
3647,13
3648,8
3649,5
3650,1
3651,0
3652,0
3653,0
3654,0
3655,1
3656,1
3657,-1
3658,-5
3659,-11
3660,-20
3661,-28
3662,-37
3663,-49
3664,-58
3665,-66
3666,-72
3667,-77
3668,-80
3669,-83
3670,-85
3671,-86
3672,-87
3673,-87
3674,-89
3675,-90
3676,-91
3677,-92
3678,-93
3679,-96
3680,-102
3681,-107
3682,-111
3683,-114
3684,-114
3685,-115
3686,-114
3687,-110
3688,-106
3689,-102
3690,-99
3691,-98
3692,-97
3693,-96
3694,-96
3695,-98
3696,-99
3697,-102
3698,-104
3699,-101
3700,-96
3701,-90
3702,-87
3703,-84
3704,-81
3705,-82
3706,-85
3707,-85
3708,-82
3709,-79
3710,-71
3711,-53
3712,-49
3713,-48
3714,-52
3715,-59
3716,-67
3717,-74
3718,-76
3719,-74
3720,-69
3721,-62
3722,-54
3723,-51
3724,-52
3725,-56
3726,-63
3727,-73
3728,-81
3729,-86
3730,-89
3731,-91
3732,-90
3733,-86
3734,-80
3735,-75
3736,-70
3737,-65
3738,-63
3739,-63
3740,-63
3741,-62
3742,-60
3743,-58
3744,-57
3745,-61
3746,-67
3747,-72
3748,-76
3749,-78
3750,-79
3751,-74
3752,-69
3753,-66
3754,-64
3755,-65
3756,-67
3757,-68
3758,-70
3759,-69
3760,-67
3761,-69
3762,-73
3763,-77
3764,-85
3765,-94
3766,-99
3767,-100
3768,-97
3769,-90
3770,-84
3771,-77
3772,-74
3773,-74
3774,-75
3775,-77
3776,-81
3777,-80
3778,-78
3779,-76
3780,-73
3781,-70
3782,-65
3783,-61
3784,-58
3785,-56
3786,-56
3787,-56
3788,-56
3789,-57
3790,-61
3791,-64
3792,-64
3793,-65
3794,-63
3795,-61
3796,-56
3797,-52
3798,-52
3799,-46
3800,-40
3801,-37
3802,-35
3803,-37
3804,-38
3805,-39
3806,-41
3807,-40
3808,-39
3809,-38
3810,-38
3811,-40
3812,-43
3813,-48
3814,-55
3815,-59
3816,-64
3817,-68
3818,-70
3819,-66
3820,-59
3821,-53
3822,-46
3823,-39
3824,-34
3825,-31
3826,-31
3827,-31
3828,-32
3829,-36
3830,-39
3831,-42
3832,-46
3833,-52
3834,-55
3835,-57
3836,-55
3837,-52
3838,-50
3839,-48
3840,-47
3841,-44
3842,-42
3843,-39
3844,-39
3845,-39
3846,-39
3847,-40
3848,-39
3849,-40
3850,-41
3851,-40
3852,-38
3853,-36
3854,-33
3855,-30
3856,-28
3857,-25
3858,-23
3859,-23
3860,-22
3861,-19
3862,-15
3863,-12
3864,-10
3865,-10
3866,-12
3867,-17
3868,-21
3869,-23
3870,-23
3871,-19
3872,-15
3873,-11
3874,-6
3875,-5
3876,-1
3877,3
3878,6
3879,8
3880,6
3881,3
3882,-1
3883,-9
3884,-19
3885,-29
3886,-41
3887,-55
3888,-66
3889,-73
3890,-77
3891,-78
3892,-74
3893,-66
3894,-59
3895,-57
3896,-60
3897,-66
3898,-70
3899,-76
3900,-77
3901,-71
3902,-62
3903,-56
3904,-51
3905,-49
3906,-52
3907,-62
3908,-66
3909,-68
3910,-68
3911,-67
3912,-62
3913,-58
3914,-54
3915,-47
3916,-39
3917,-27
3918,-13
3919,1
3920,23
3921,50
3922,83
3923,120
3924,160
3925,203
3926,248
3927,290
3928,326
3929,352
3930,360
3931,344
3932,304
3933,240
3934,154
3935,59
3936,-36
3937,-121
3938,-190
3939,-264
3940,-264
3941,-271
3942,-265
3943,-251
3944,-230
3945,-206
3946,-182
3947,-159
3948,-139
3949,-121
3950,-106
3951,-94
3952,-86
3953,-81
3954,-78
3955,-78
3956,-80
3957,-84
3958,-88
3959,-90
3960,-94
3961,-95
3962,-94
3963,-92
3964,-86
3965,-83
3966,-82
3967,-81
3968,-84
3969,-87
3970,-89
3971,-92
3972,-96
3973,-103
3974,-104
3975,-104
3976,-103
3977,-99
3978,-96
3979,-93
3980,-91
3981,-92
3982,-94
3983,-95
3984,-95
3985,-93
3986,-88
3987,-83
3988,-76
3989,-69
3990,-63
3991,-61
3992,-63
3993,-67
3994,-73
3995,-77
3996,-82
3997,-83
3998,-81
3999,-79
4000,-76
4001,-74
4002,-71
4003,-66
4004,-63
4005,-58
4006,-51
4007,-51
4008,-55
4009,-62
4010,-65
4011,-68
4012,-72
4013,-74
4014,-75
4015,-77
4016,-78
4017,-78
4018,-75
4019,-69
4020,-62
4021,-57
4022,-53
4023,-50
4024,-53
4025,-57
4026,-59
4027,-60
4028,-59
4029,-54
4030,-46
4031,-38
4032,-31
4033,-28
4034,-26
4035,-23
4036,-26
4037,-28
4038,-36
4039,-40
4040,-43
4041,-44
4042,-44
4043,-41
4044,-35
4045,-26
4046,-17
4047,-10
4048,-4
4049,0
4050,0
4051,-2
4052,-7
4053,-14
4054,-21
4055,-24
4056,-26
4057,-27
4058,-26
4059,-25
4060,-21
4061,-18
4062,-18
4063,-18
4064,-22
4065,-25
4066,-26
4067,-28
4068,-29
4069,-27
4070,-24
4071,-21
4072,-22
4073,-21
4074,-22
4075,-21
4076,-18
4077,-14
4078,-10
4079,-10
4080,-10
4081,-15
4082,-15
4083,-21
4084,-26
4085,-29
4086,-30
4087,-31
4088,-33
4089,-34
4090,-38
4091,-45
4092,-53
4093,-60
4094,-65
4095,-69
4096,-70
4097,-73
4098,-78
4099,-83
4100,-88
4101,-93
4102,-94
4103,-92
4104,-91
4105,-84
4106,-85
4107,-87
4108,-94
4109,-104
4110,-113
4111,-119
4112,-125
4113,-127
4114,-127
4115,-124
4116,-118
4117,-114
4118,-111
4119,-109
4120,-112
4121,-115
4122,-117
4123,-118
4124,-119
4125,-119
4126,-120
4127,-118
4128,-118
4129,-120
4130,-122
4131,-123
4132,-126
4133,-127
4134,-128
4135,-129
4136,-126
4137,-113
4138,-106
4139,-100
4140,-97
4141,-94
4142,-90
4143,-85
4144,-80
4145,-75
4146,-73
4147,-75
4148,-78
4149,-80
4150,-82
4151,-82
4152,-79
4153,-76
4154,-75
4155,-75
4156,-75
4157,-77
4158,-78
4159,-75
4160,-71
4161,-70
4162,-72
4163,-77
4164,-82
4165,-88
4166,-95
4167,-99
4168,-100
4169,-97
4170,-92
4171,-87
4172,-84
4173,-82
4174,-80
4175,-80
4176,-80
4177,-79
4178,-77
4179,-73
4180,-69
4181,-66
4182,-64
4183,-63
4184,-63
4185,-63
4186,-64
4187,-64
4188,-65
4189,-68
4190,-73
4191,-81
4192,-85
4193,-88
4194,-88
4195,-85
4196,-81
4197,-76
4198,-73
4199,-74
4200,-76
4201,-82
4202,-91
4203,-93
4204,-94
4205,-93
4206,-92
4207,-91
4208,-90
4209,-89
4210,-89
4211,-88
4212,-88
4213,-86
4214,-85
4215,-83
4216,-80
4217,-74
4218,-70
4219,-64
4220,-59
4221,-59
4222,-56
4223,-53
4224,-55
4225,-55
4226,-59
4227,-63
4228,-69
4229,-73
4230,-75
4231,-76
4232,-75
4233,-72
4234,-68
4235,-66
4236,-67
4237,-69
4238,-69
4239,-67
4240,-68
4241,-69
4242,-68
4243,-67
4244,-67
4245,-69
4246,-71
4247,-74
4248,-75
4249,-75
4250,-77
4251,-81
4252,-83
4253,-85
4254,-85
4255,-85
4256,-86
4257,-89
4258,-90
4259,-88
4260,-87
4261,-84
4262,-83
4263,-79
4264,-71
4265,-63
4266,-56
4267,-48
4268,-41
4269,-39
4270,-39
4271,-43
4272,-50
4273,-58
4274,-63
4275,-69
4276,-73
4277,-74
4278,-72
4279,-67
4280,-60
4281,-53
4282,-48
4283,-44
4284,-42
4285,-43
4286,-44
4287,-48
4288,-53
4289,-58
4290,-60
4291,-60
4292,-58
4293,-56
4294,-54
4295,-50
4296,-46
4297,-44
4298,-43
4299,-42
4300,-37
4301,-32
4302,-26
4303,-21
4304,-16
4305,-13
4306,-13
4307,-14
4308,-20
4309,-26
4310,-33
4311,-38
4312,-43
4313,-48
4314,-54
4315,-62
4316,-67
4317,-71
4318,-70
4319,-67
4320,-65
4321,-60
4322,-57
4323,-58
4324,-60
4325,-65
4326,-67
4327,-66
4328,-63
4329,-58
4330,-54
4331,-53
4332,-55
4333,-63
4334,-68
4335,-71
4336,-72
4337,-71
4338,-70
4339,-70
4340,-71
4341,-72
4342,-75
4343,-75
4344,-73
4345,-72
4346,-66
4347,-56
4348,-43
4349,-26
4350,-3
4351,25
4352,60
4353,98
4354,140
4355,186
4356,231
4357,274
4358,315
4359,353
4360,377
4361,381
4362,361
4363,312
4364,236
4365,140
4366,-65
4367,-65
4368,-154
4369,-223
4370,-265
4371,-281
4372,-280
4373,-271
4374,-254
4375,-234
4376,-214
4377,-194
4378,-177
4379,-160
4380,-145
4381,-130
4382,-117
4383,-108
4384,-99
4385,-89
4386,-84
4387,-76
4388,-67
4389,-59
4390,-54
4391,-51
4392,-55
4393,-60
4394,-67
4395,-72
4396,-75
4397,-75
4398,-74
4399,-69
4400,-61
4401,-59
4402,-57
4403,-58
4404,-58
4405,-59
4406,-59
4407,-61
4408,-61
4409,-61
4410,-61
4411,-59
4412,-57
4413,-56
4414,-55
4415,-56
4416,-58
4417,-61
4418,-65
4419,-70
4420,-71
4421,-70
4422,-67
4423,-64
4424,-62
4425,-64
4426,-66
4427,-68
4428,-69
4429,-68
4430,-63
4431,-57
4432,-50
4433,-38
4434,-40
4435,-43
4436,-48
4437,-52
4438,-57
4439,-59
4440,-60
4441,-59
4442,-58
4443,-57
4444,-56
4445,-57
4446,-58
4447,-58
4448,-57
4449,-56
4450,-53
4451,-50
4452,-49
4453,-50
4454,-50
4455,-54
4456,-54
4457,-53
4458,-47
4459,-41
4460,-35
4461,-31
4462,-27
4463,-27
4464,-30
4465,-39
4466,-45
4467,-50
4468,-51
4469,-50
4470,-48
4471,-44
4472,-38
4473,-31
4474,-26
4475,-21
4476,-19
4477,-18
4478,-16
4479,-18
4480,-18
4481,-18
4482,-17
4483,-17
4484,-15
4485,-15
4486,-13
4487,-11
4488,-11
4489,-12
4490,-15
4491,-18
4492,-19
4493,-18
4494,-16
4495,-14
4496,-12
4497,-3
4498,-1
4499,2
4500,5
4501,6
4502,8
4503,9
4504,8
4505,5
4506,2
4507,1
4508,6
4509,6
4510,10
4511,14
4512,18
4513,19
4514,15
4515,8
4516,0
4517,-7
4518,-14
4519,-19
4520,-23
4521,-25
4522,-29
4523,-37
4524,-44
4525,-53
4526,-64
4527,-73
4528,-75
4529,-76
4530,-77
4531,-78
4532,-79
4533,-80
4534,-81
4535,-81
4536,-82
4537,-85
4538,-91
4539,-96
4540,-102
4541,-108
4542,-110
4543,-107
4544,-102
4545,-96
4546,-91
4547,-89
4548,-89
4549,-92
4550,-96
4551,-97
4552,-99
4553,-100
4554,-98
4555,-96
4556,-92
4557,-88
4558,-86
4559,-86
4560,-87
4561,-90
4562,-96
4563,-101
4564,-107
4565,-109
4566,-109
4567,-107
4568,-105
4569,-100
4570,-95
4571,-91
4572,-88
4573,-86
4574,-86
4575,-87
4576,-88
4577,-90
4578,-87
4579,-83
4580,-81
4581,-80
4582,-81
4583,-87
4584,-93
4585,-94
4586,-94
4587,-89
4588,-82
4589,-75
4590,-70
4591,-65
4592,-66
4593,-65
4594,-67
4595,-75
4596,-95
4597,-106
4598,-118
4599,-126
4600,-131
4601,-133
4602,-131
4603,-124
4604,-116
4605,-110
4606,-106
4607,-102
4608,-98
4609,-97
4610,-96
4611,-98
4612,-101
4613,-102
4614,-101
4615,-97
4616,-93
4617,-88
4618,-84
4619,-79
4620,-74
4621,-75
4622,-77
4623,-80
4624,-84
4625,-89
4626,-90
4627,-91
4628,-88
4629,-85
4630,-84
4631,-82
4632,-85
4633,-84
4634,-79
4635,-74
4636,-68
4637,-61
4638,-59
4639,-62
4640,-71
4641,-80
4642,-88
4643,-91
4644,-91
4645,-85
4646,-78
4647,-73
4648,-72
4649,-73
4650,-78
4651,-78
4652,-82
4653,-83
4654,-82
4655,-80
4656,-79
4657,-81
4658,-82
4659,-85
4660,-86
4661,-86
4662,-86
4663,-84
4664,-82
4665,-83
4666,-84
4667,-85
4668,-83
4669,-83
4670,-83
4671,-79
4672,-74
4673,-73
4674,-71
4675,-69
4676,-69
4677,-73
4678,-75
4679,-75
4680,-77
4681,-79
4682,-78
4683,-75
4684,-75
4685,-76
4686,-76
4687,-72
4688,-66
4689,-61
4690,-53
4691,-46
4692,-43
4693,-39
4694,-35
4695,-33
4696,-31
4697,-30
4698,-28
4699,-26
4700,-28
4701,-31
4702,-33
4703,-33
4704,-30
4705,-27
4706,-24
4707,-21
4708,-17
4709,-15
4710,-13
4711,-10
4712,-6
4713,-2
4714,6
4715,15
4716,25
4717,30
4718,31
4719,29
4720,23
4721,12
4722,1
4723,-6
4724,-13
4725,-17
4726,-20
4727,-24
4728,-29
4729,-37
4730,-48
4731,-51
4732,-51
4733,-44
4734,-36
4735,-32
4736,-30
4737,-30
4738,-33
4739,-36
4740,-39
4741,-45
4742,-51
4743,-55
4744,-59
4745,-61
4746,-60
4747,-59
4748,-54
4749,-44
4750,-36
4751,-30
4752,-26
4753,-28
4754,-34
4755,-39
4756,-46
4757,-53
4758,-55
4759,-51
4760,-42
4761,-26
4762,-7
4763,44
4764,72
4765,102
4766,137
4767,174
4768,208
4769,243
4770,277
4771,302
4772,311
4773,302
4774,265
4775,208
4776,135
4777,50
4778,-33
4779,-110
4780,-173
4781,-218
4782,-245
4783,-259
4784,-261
4785,-251
4786,-236
4787,-214
4788,-189
4789,-167
4790,-151
4791,-139
4792,-129
4793,-119
4794,-119
4795,-112
4796,-104
4797,-82
4798,-77
4799,-73
4800,-72
4801,-71
4802,-71
4803,-70
4804,-67
4805,-64
4806,-62
4807,-63
4808,-66
4809,-70
4810,-73
4811,-74
4812,-71
4813,-66
4814,-59
4815,-55
4816,-54
4817,-54
4818,-58
4819,-64
4820,-70
4821,-72
4822,-73
4823,-73
4824,-71
4825,-69
4826,-67
4827,-65
4828,-63
4829,-61
4830,-59
4831,-58
4832,-55
4833,-54
4834,-51
4835,-47
4836,-46
4837,-44
4838,-41
4839,-42
4840,-43
4841,-44
4842,-45
4843,-44
4844,-40
4845,-36
4846,-31
4847,-27
4848,-24
4849,-23
4850,-24
4851,-29
4852,-37
4853,-43
4854,-50
4855,-55
4856,-53
4857,-48
4858,-41
4859,-33
4860,-25
4861,-21
4862,-18
4863,-19
4864,-28
4865,-32
4866,-34
4867,-36
4868,-34
4869,-31
4870,-30
4871,-28
4872,-25
4873,-24
4874,-24
4875,-23
4876,-21
4877,-19
4878,-14
4879,-10
4880,-8
4881,-5
4882,-3
4883,-2
4884,0
4885,1
4886,1
4887,0
4888,0
4889,-1
4890,0
4891,2
4892,5
4893,10
4894,15
4895,16
4896,14
4897,0
4898,-7
4899,-13
4900,-16
4901,-16
4902,-14
4903,-11
4904,-6
4905,-1
4906,4
4907,10
4908,13
4909,14
4910,14
4911,13
4912,8
4913,2
4914,-6
4915,-15
4916,-25
4917,-33
4918,-38
4919,-40
4920,-40
4921,-35
4922,-26
4923,-18
4924,-13
4925,-11
4926,-11
4927,-17
4928,-25
4929,-32
4930,-43
4931,-46
4932,-47
4933,-47
4934,-49
4935,-52
4936,-52
4937,-55
4938,-60
4939,-68
4940,-77
4941,-89
4942,-101
4943,-110
4944,-117
4945,-121
4946,-121
4947,-118
4948,-114
4949,-108
4950,-104
4951,-102
4952,-102
4953,-103
4954,-100
4955,-98
4956,-98
4957,-100
4958,-104
4959,-110
4960,-119
4961,-129
4962,-135
4963,-140
4964,-140
4965,-130
4966,-127
4967,-124
4968,-121
4969,-119
4970,-118
4971,-115
4972,-111
4973,-106
4974,-102
4975,-101
4976,-105
4977,-115
4978,-124
4979,-129
4980,-131
4981,-130
4982,-123
4983,-112
4984,-102
4985,-93
4986,-84
4987,-80
4988,-79
4989,-78
4990,-75
4991,-73
4992,-71
4993,-70
4994,-71
4995,-73
4996,-77
4997,-84
4998,-89
4999,-94
5000,-98
5001,-100
5002,-101
5003,-100
5004,-97
5005,-93
5006,-89
5007,-86
5008,-83
5009,-83
5010,-84
5011,-84
5012,-83
5013,-81
5014,-79
5015,-77
5016,-78
5017,-80
5018,-84
5019,-88
5020,-89
5021,-90
5022,-94
5023,-96
5024,-98
5025,-102
5026,-104
5027,-102
5028,-97
5029,-92
5030,-86
5031,-71
5032,-63
5033,-61
5034,-58
5035,-57
5036,-62
5037,-66
5038,-72
5039,-80
5040,-90
5041,-98
5042,-104
5043,-106
5044,-108
5045,-108
5046,-107
5047,-105
5048,-104
5049,-101
5050,-97
5051,-95
5052,-92
5053,-86
5054,-79
5055,-74
5056,-70
5057,-69
5058,-71
5059,-75
5060,-81
5061,-84
5062,-85
5063,-83
5064,-74
5065,-70
5066,-68
5067,-66
5068,-69
5069,-73
5070,-77
5071,-78
5072,-79
5073,-76
5074,-72
5075,-70
5076,-69
5077,-70
5078,-70
5079,-74
5080,-75
5081,-74
5082,-74
5083,-70
5084,-63
5085,-59
5086,-56
5087,-55
5088,-56
5089,-58
5090,-62
5091,-66
5092,-67
5093,-71
5094,-75
5095,-78
5096,-79
5097,-80
5098,-77
5099,-72
5100,-64
5101,-59
5102,-51
5103,-44
5104,-40
5105,-36
5106,-33
5107,-32
5108,-31
5109,-30
5110,-31
5111,-29
5112,-27
5113,-26
5114,-25
5115,-25
5116,-25
5117,-26
5118,-30
5119,-37
5120,-43
5121,-48
5122,-55
5123,-60
5124,-63
5125,-64
5126,-66
5127,-67
5128,-67
5129,-66
5130,-66
5131,-64
5132,-58
5133,-51
5134,-46
5135,-41
5136,-35
5137,-35
5138,-38
5139,-44
5140,-53
5141,-62
5142,-70
5143,-75
5144,-77
5145,-76
5146,-77
5147,-75
5148,-69
5149,-63
5150,-57
5151,-48
5152,-38
5153,-25
5154,-4
5155,20
5156,46
5157,78
5158,115
5159,155
5160,197
5161,235
5162,269
5163,298
5164,295
5165,260
5166,201
5167,125
5168,42
5169,-38
5170,-115
5171,-183
5172,-241
5173,-287
5174,-312
5175,-319
5176,-309
5177,-282
5178,-242
5179,-200
5180,-163
5181,-137
5182,-122
5183,-116
5184,-114
5185,-112
5186,-106
5187,-98
5188,-96
5189,-98
5190,-100
5191,-105
5192,-112
5193,-119
5194,-126
5195,-132
5196,-141
5197,-143
5198,-140
5199,-136
5200,-128
5201,-117
5202,-111
5203,-106
5204,-91
5205,-70
5206,-44
5207,-13
5208,5
5209,10
5210,5
5211,-17
5212,-46
5213,-73
5214,-93
5215,-94
5216,-72
5217,-41
5218,-9
5219,19
5220,19
5221,28
5222,23
5223,14
5224,0
5225,1
5226,13
5227,26
5228,55
5229,97
5230,154
5231,165
5232,143
5233,106
5234,62
5235,10
5236,-32
5237,-67
5238,-96
5239,-100
5240,-85
5241,-71
5242,-55
5243,-47
5244,-53
5245,-65
5246,-83
5247,-108
5248,-123
5249,-134
5250,-139
5251,-133
5252,-120
5253,-106
5254,-86
5255,-53
5256,-15
5257,20
5258,49
5259,66
5260,66
5261,43
5262,-8
5263,2
5264,26
5265,56
5266,95
5267,121
5268,122
5269,118
5270,112
5271,110
5272,113
5273,115
5274,117
5275,114
5276,76
5277,15
5278,-37
5279,-79
5280,-114
5281,-126
5282,-119
5283,-103
5284,-79
5285,-55
5286,-32
5287,6
5288,49
5289,90
5290,134
5291,164
5292,158
5293,130
5294,89
5295,-20
5296,-42
5297,-14
5298,69
5299,182
5300,278
5301,330
5302,324
5303,251
5304,138
5305,20
5306,-84
5307,-152
5308,-162
5309,-109
5310,-11
5311,96
5312,183
5313,231
5314,233
5315,201
5316,143
5317,63
5318,-11
5319,-70
5320,-116
5321,-129
5322,-109
5323,-69
5324,-22
5325,5
5326,16
5327,-1
5328,-44
5329,-86
5330,-122
5331,-145
5332,-140
5333,-104
5334,-59
5335,-38
5336,-45
5337,-70
5338,-114
5339,-162
5340,-192
5341,-205
5342,-200
5343,-174
5344,-135
5345,-82
5346,-31
5347,1
5348,20
5349,22
5350,0
5351,-34
5352,-65
5353,-87
5354,-104
5355,-109
5356,-94
5357,-75
5358,-55
5359,-15
5360,-3
5361,7
5362,8
5363,8
5364,1
5365,-9
5366,-27
5367,-51
5368,-69
5369,-82
5370,-93
5371,-97
5372,-109
5373,-131
5374,-147
5375,-160
5376,-168
5377,-169
5378,-165
5379,-154
5380,-140
5381,-124
5382,-103
5383,-70
5384,-34
5385,-6
5386,16
5387,24
5388,13
5389,-14
5390,-49
5391,-83
5392,-116
5393,-145
5394,-144
5395,-121
5396,-96
5397,-69
5398,-42
5399,-27
5400,-22
5401,-25
5402,-42
5403,-63
5404,-81
5405,-92
5406,-102
5407,-110
5408,-114
5409,-107
5410,-98
5411,-88
5412,-75
5413,-65
5414,-62
5415,-60
5416,-57
5417,-57
5418,-61
5419,-62
5420,-64
5421,-65
5422,-63
5423,-64
5424,-66
5425,-66
5426,-61
5427,-62
5428,-70
5429,-74
5430,-77
5431,-79
5432,-70
5433,-52
5434,-34
5435,-19
5436,-11
5437,-3
5438,-5
5439,-15
5440,-24
5441,-28
5442,-31
5443,-27
5444,-20
5445,-13
5446,-15
5447,-31
5448,-56
5449,-67
5450,-62
5451,-38
5452,5
5453,49
5454,82
5455,93
5456,73
5457,33
5458,-17
5459,-99
5460,-101
5461,-91
5462,-80
5463,-66
5464,-60
5465,-64
5466,-64
5467,-54
5468,-35
5469,-9
5470,20
5471,42
5472,48
5473,34
5474,7
5475,-13
5476,-28
5477,-36
5478,-23
5479,2
5480,24
5481,36
5482,33
5483,11
5484,-20
5485,-52
5486,-74
5487,-81
5488,-80
5489,-67
5490,-50
5491,-35
5492,30
5493,73
5494,119
5495,151
5496,166
5497,165
5498,145
5499,107
5500,60
5501,18
5502,-10
5503,-18
5504,-15
5505,-15
5506,-7
5507,0
5508,1
5509,0
5510,-4
5511,-13
5512,-5
5513,37
5514,110
5515,184
5516,233
5517,260
5518,267
5519,265
5520,254
5521,229
5522,180
5523,100
5524,10
5525,-70
5526,-208
5527,-249
5528,-249
5529,-218
5530,-180
5531,-157
5532,-154
5533,-162
5534,-170
5535,-157
5536,-124
5537,-88
5538,-60
5539,-40
5540,-25
5541,-14
5542,-12
5543,-24
5544,-44
5545,-67
5546,-88
5547,-105
5548,-117
5549,-121
5550,-115
5551,-102
5552,-94
5553,-90
5554,-79
5555,-65
5556,-42
5557,-2
5558,45
5559,107
5560,132
5561,151
5562,164
5563,188
5564,234
5565,310
5566,399
5567,465
5568,481
5569,434
5570,325
5571,177
5572,26
5573,-111
5574,-222
5575,-285
5576,-307
5577,-305
5578,-285
5579,-272
5580,-268
5581,-262
5582,-251
5583,-239
5584,-225
5585,-209
5586,-193
5587,-177
5588,-163
5589,-151
5590,-140
5591,-139
5592,-145
5593,-146
5594,-149
5595,-149
5596,-134
5597,-114
5598,-86
5599,-54
5600,-42
5601,-49
5602,-58
5603,-68
5604,-78
5605,-64
5606,-13
5607,56
5608,132
5609,196
5610,220
5611,193
5612,124
5613,39
5614,-36
5615,-105
5616,-166
5617,-200
5618,-208
5619,-224
5620,-240
5621,-234
5622,-213
5623,-179
5624,-126
5625,-47
5626,-38
5627,-47
5628,-65
5629,-91
5630,-124
5631,-147
5632,-145
5633,-128
5634,-105
5635,-90
5636,-82
5637,-65
5638,-37
5639,-6
5640,20
5641,24
5642,13
5643,4
5644,-17
5645,-53
5646,-76
5647,-76
5648,-83
5649,-53
5650,19
5651,91
5652,125
5653,109
5654,43
5655,-41
5656,-117
5657,-166
5658,-92
5659,22
5660,132
5661,208
5662,206
5663,120
5664,4
5665,-92
5666,-144
5667,-131
5668,-71
5669,10
5670,103
5671,171
5672,168
5673,107
5674,8
5675,-116
5676,-212
5677,-241
5678,-212
5679,-140
5680,-53
5681,21
5682,88
5683,123
5684,102
5685,44
5686,-21
5687,-92
5688,-152
5689,-175
5690,-174
5691,-121
5692,-76
5693,-37
5694,-13
5695,-13
5696,-32
5697,-52
5698,-67
5699,-73
5700,-62
5701,-51
5702,-49
5703,-49
5704,-52
5705,-52
5706,-41
5707,-23
5708,-4
5709,18
5710,29
5711,25
5712,16
5713,14
5714,23
5715,44
5716,62
5717,56
5718,26
5719,-28
5720,-92
5721,-142
5722,-165
5723,-157
5724,-70
5725,-33
5726,-22
5727,-39
5728,-74
5729,-114
5730,-147
5731,-166
5732,-175
5733,-172
5734,-164
5735,-163
5736,-169
5737,-172
5738,-172
5739,-169
5740,-164
5741,-163
5742,-161
5743,-158
5744,-151
5745,-141
5746,-132
5747,-126
5748,-122
5749,-121
5750,-121
5751,-122
5752,-130
5753,-135
5754,-135
5755,-135
5756,-133
5757,-134
5758,-133
5759,-133
5760,-135
5761,-134
5762,-132
5763,-137
5764,-141
5765,-143
5766,-147
5767,-152
5768,-152
5769,-147
5770,-136
5771,-128
5772,-123
5773,-110
5774,-94
5775,-86
5776,-80
5777,-76
5778,-77
5779,-83
5780,-93
5781,-105
5782,-115
5783,-127
5784,-137
5785,-130
5786,-110
5787,-84
5788,-16
5789,-16
5790,-1
5791,-2
5792,-24
5793,-55
5794,-78
5795,-94
5796,-98
5797,-83
5798,-59
5799,-46
5800,-47
5801,-64
5802,-94
5803,-121
5804,-145
5805,-158
5806,-153
5807,-141
5808,-132
5809,-118
5810,-98
5811,-81
5812,-64
5813,-42
5814,-19
5815,5
5816,28
5817,34
5818,27
5819,6
5820,-25
5821,-56
5822,-74
5823,-102
5824,-107
5825,-110
5826,-121
5827,-134
5828,-154
5829,-169
5830,-168
5831,-156
5832,-142
5833,-127
5834,-114
5835,-110
5836,-106
5837,-121
5838,-151
5839,-152
5840,-108
5841,-42
5842,33
5843,87
5844,96
5845,66
5846,-3
5847,-97
5848,-180
5849,-240
5850,-259
5851,-216
5852,-148
5853,-94
5854,-68
5855,-65
5856,-61
5857,-49
5858,-34
5859,-22
5860,-14
5861,-14
5862,-28
5863,-55
5864,-89
5865,-119
5866,-134
5867,-138
5868,-137
5869,-126
5870,-115
5871,-107
5872,-99
5873,-90
5874,-82
5875,-81
5876,-83
5877,-84
5878,-89
5879,-94
5880,-94
5881,-86
5882,-76
5883,-68
5884,-59
5885,-53
5886,-52
5887,-59
5888,-62
5889,-62
5890,-61
5891,-56
5892,-50
5893,-47
5894,-45
5895,-41
5896,-37
5897,-35
5898,-33
5899,-33
5900,-40
5901,-49
5902,-60
5903,-72
5904,-79
5905,-87
5906,-92
5907,-92
5908,-91
5909,-93
5910,-92
5911,-91
5912,-89
5913,-84
5914,-78
5915,-70
5916,-66
5917,-66
5918,-68
5919,-75
5920,-77
5921,-77
5922,-72
5923,-68
5924,-70
5925,-72
5926,-76
5927,-84
5928,-93
5929,-99
5930,-102
5931,-103
5932,-103
5933,-103
5934,-97
5935,-88
5936,-80
5937,-69
5938,-53
5939,-37
5940,-24
5941,-7
5942,13
5943,38
5944,70
5945,108
5946,155
5947,206
5948,252
5949,292
5950,316
5951,315
5952,232
5953,159
5954,77
5955,-3
5956,-78
5957,-139
5958,-182
5959,-210
5960,-228
5961,-236
5962,-237
5963,-235
5964,-229
5965,-217
5966,-201
5967,-187
5968,-173
5969,-157
5970,-140
5971,-123
5972,-107
5973,-93
5974,-80
5975,-70
5976,-67
5977,-72
5978,-81
5979,-90
5980,-95
5981,-97
5982,-94
5983,-85
5984,-70
5985,-40
5986,-29
5987,-20
5988,-13
5989,-14
5990,-19
5991,-25
5992,-30
5993,-33
5994,-31
5995,-27
5996,-22
5997,-17
5998,-14
5999,-13
6000,-13
6001,-18
6002,-23
6003,-26
6004,-27
6005,-34
6006,-40
6007,-51
6008,-63
6009,-71
6010,-74
6011,-79
6012,-78
6013,-70
6014,-61
6015,-50
6016,-34
6017,-29
6018,-26
6019,-30
6020,-34
6021,-37
6022,-44
6023,-51
6024,-52
6025,-55
6026,-57
6027,-53
6028,-47
6029,-39
6030,-28
6031,-20
6032,-13
6033,-9
6034,-10
6035,-11
6036,-9
6037,-9
6038,-7
6039,-3
6040,-1
6041,0
6042,0
6043,-4
6044,-7
6045,-10
6046,-10
6047,-4
6048,9
6049,16
6050,22
6051,29
6052,37
6053,48
6054,63
6055,76
6056,83
6057,82
6058,76
6059,66
6060,53
6061,44
6062,41
6063,43
6064,49
6065,60
6066,72
6067,81
6068,89
6069,100
6070,110
6071,118
6072,122
6073,119
6074,119
6075,110
6076,98
6077,86
6078,80
6079,77
6080,91
6081,104
6082,115
6083,122
6084,124
6085,120
6086,109
6087,102
6088,97
6089,98
6090,98
6091,100
6092,104
6093,106
6094,102
6095,89
6096,72
6097,53
6098,33
6099,22
6100,15
6101,11
6102,16
6103,27
6104,41
6105,52
6106,60
6107,63
6108,62
6109,57
6110,49
6111,36
6112,7
6113,1
6114,0
6115,0
6116,3
6117,7
6118,6
6119,0
6120,-5
6121,-12
6122,-24
6123,-32
6124,-36
6125,-40
6126,-44
6127,-48
6128,-52
6129,-54
6130,-59
6131,-58
6132,-52
6133,-48
6134,-47
6135,-42
6136,-36
6137,-33
6138,-30
6139,-30
6140,-30
6141,-30
6142,-32
6143,-36
6144,-43
6145,-62
6146,-71
6147,-76
6148,-78
6149,-78
6150,-73
6151,-66
6152,-61
6153,-59
6154,-58
6155,-56
6156,-54
6157,-52
6158,-51
6159,-51
6160,-53
6161,-59
6162,-64
6163,-66
6164,-66
6165,-62
6166,-55
6167,-48
6168,-47
6169,-54
6170,-64
6171,-78
6172,-94
6173,-104
6174,-108
6175,-109
6176,-106
6177,-95
6178,-89
6179,-82
6180,-80
6181,-79
6182,-79
6183,-82
6184,-85
6185,-89
6186,-97
6187,-104
6188,-107
6189,-109
6190,-105
6191,-100
6192,-98
6193,-98
6194,-96
6195,-96
6196,-96
6197,-97
6198,-100
6199,-98
6200,-96
6201,-92
6202,-90
6203,-89
6204,-90
6205,-93
6206,-94
6207,-98
6208,-103
6209,-115
6210,-119
6211,-118
6212,-119
6213,-119
6214,-117
6215,-115
6216,-115
6217,-113
6218,-111
6219,-111
6220,-113
6221,-112
6222,-107
6223,-101
6224,-93
6225,-89
6226,-88
6227,-88
6228,-94
6229,-102
6230,-107
6231,-109
6232,-110
6233,-106
6234,-98
6235,-92
6236,-89
6237,-85
6238,-82
6239,-77
6240,-75
6241,-74
6242,-76
6243,-93
6244,-105
6245,-114
6246,-124
6247,-129
6248,-129
6249,-125
6250,-119
6251,-111
6252,-103
6253,-97
6254,-94
6255,-95
6256,-97
6257,-101
6258,-105
6259,-106
6260,-106
6261,-105
6262,-100
6263,-95
6264,-90
6265,-85
6266,-83
6267,-82
6268,-79
6269,-79
6270,-79
6271,-78
6272,-79
6273,-84
6274,-94
6275,-102
6276,-112
6277,-120
6278,-124
6279,-128
6280,-130
6281,-129
6282,-127
6283,-128
6284,-131
6285,-133
6286,-133
6287,-134
6288,-135
6289,-134
6290,-132
6291,-135
6292,-138
6293,-140
6294,-143
6295,-148
6296,-149
6297,-151
6298,-153
6299,-154
6300,-153
6301,-153
6302,-150
6303,-143
6304,-134
6305,-126
6306,-119
6307,-112
6308,-115
6309,-110
6310,-99
6311,-79
6312,-49
6313,-10
6314,34
6315,81
6316,126
6317,169
6318,210
6319,246
6320,272
6321,288
6322,283
6323,248
6324,187
6325,109
6326,17
6327,-76
6328,-161
6329,-235
6330,-293
6331,-333
6332,-361
6333,-375
6334,-379
6335,-376
6336,-362
6337,-335
6338,-303
6339,-247
6340,-225
6341,-208
6342,-196
6343,-188
6344,-185
6345,-186
6346,-188
6347,-188
6348,-186
6349,-181
6350,-177
6351,-170
6352,-162
6353,-155
6354,-151
6355,-147
6356,-148
6357,-151
6358,-151
6359,-153
6360,-154
6361,-154
6362,-153
6363,-152
6364,-149
6365,-147
6366,-147
6367,-152
6368,-155
6369,-161
6370,-165
6371,-164
6372,-148
6373,-137
6374,-127
6375,-121
6376,-120
6377,-121
6378,-125
6379,-129
6380,-129
6381,-129
6382,-128
6383,-125
6384,-121
6385,-115
6386,-108
6387,-102
6388,-98
6389,-96
6390,-94
6391,-96
6392,-99
6393,-99
6394,-98
6395,-97
6396,-98
6397,-97
6398,-97
6399,-101
6400,-105
6401,-109
6402,-111
6403,-113
6404,-113
6405,-111
6406,-109
6407,-104
6408,-97
6409,-91
6410,-87
6411,-87
6412,-90
6413,-93
6414,-98
6415,-102
6416,-104
6417,-102
6418,-101
6419,-99
6420,-97
6421,-92
6422,-87
6423,-82
6424,-73
6425,-64
6426,-56
6427,-49
6428,-44
6429,-42
6430,-45
6431,-49
6432,-53
6433,-57
6434,-59
6435,-59
6436,-57
6437,-54
6438,-53
6439,-50
6440,-45
6441,-40
6442,-37
6443,-33
6444,-30
6445,-27
6446,-28
6447,-31
6448,-33
6449,-36
6450,-39
6451,-41
6452,-42
6453,-43
6454,-42
6455,-40
6456,-37
6457,-34
6458,-33
6459,-35
6460,-39
6461,-44
6462,-49
6463,-55
6464,-57
6465,-58
6466,-57
6467,-55
6468,-52
6469,-53
6470,-55
6471,-60
6472,-64
6473,-66
6474,-68
6475,-71
6476,-73
6477,-74
6478,-73
6479,-72
6480,-73
6481,-77
6482,-85
6483,-93
6484,-100
6485,-107
6486,-113
6487,-121
6488,-127
6489,-132
6490,-139
6491,-144
6492,-152
6493,-159
6494,-164
6495,-168
6496,-167
6497,-164
6498,-162
6499,-159
6500,-159
6501,-162
6502,-164
6503,-167
6504,-171
6505,-174
6506,-177
6507,-177
6508,-172
6509,-168
6510,-165
6511,-161
6512,-157
6513,-155
6514,-153
6515,-150
6516,-148
6517,-148
6518,-151
6519,-152
6520,-152
6521,-155
6522,-158
6523,-159
6524,-155
6525,-152
6526,-149
6527,-146
6528,-144
6529,-143
6530,-145
6531,-143
6532,-134
6533,-131
6534,-128
6535,-126
6536,-126
6537,-126
6538,-123
6539,-118
6540,-114
6541,-108
6542,-100
6543,-93
6544,-87
6545,-83
6546,-81
6547,-79
6548,-80
6549,-83
6550,-90
6551,-101
6552,-112
6553,-123
6554,-134
6555,-142
6556,-144
6557,-145
6558,-143
6559,-140
6560,-136
6561,-132
6562,-128
6563,-124
6564,-121
6565,-118
6566,-118
6567,-118
6568,-119
6569,-122
6570,-125
6571,-127
6572,-127
6573,-124
6574,-121
6575,-119
6576,-114
6577,-112
6578,-112
6579,-110
6580,-112
6581,-114
6582,-115
6583,-115
6584,-116
6585,-115
6586,-113
6587,-113
6588,-110
6589,-105
6590,-99
6591,-92
6592,-87
6593,-84
6594,-82
6595,-83
6596,-87
6597,-100
6598,-107
6599,-116
6600,-122
6601,-129
6602,-137
6603,-142
6604,-142
6605,-138
6606,-133
6607,-125
6608,-119
6609,-114
6610,-110
6611,-110
6612,-110
6613,-109
6614,-108
6615,-103
6616,-95
6617,-88
6618,-82
6619,-75
6620,-71
6621,-70
6622,-72
6623,-76
6624,-79
6625,-81
6626,-83
6627,-82
6628,-79
6629,-76
6630,-60
6631,-51
6632,-45
6633,-40
6634,-37
6635,-36
6636,-37
6637,-39
6638,-41
6639,-43
6640,-43
6641,-44
6642,-48
6643,-48
6644,-53
6645,-60
6646,-68
6647,-73
6648,-79
6649,-85
6650,-90
6651,-94
6652,-102
6653,-109
6654,-116
6655,-122
6656,-124
6657,-123
6658,-121
6659,-118
6660,-118
6661,-120
6662,-121
6663,-122
6664,-117
6665,-111
6666,-105
6667,-102
6668,-104
6669,-109
6670,-113
6671,-115
6672,-113
6673,-106
6674,-96
6675,-89
6676,-82
6677,-81
6678,-83
6679,-88
6680,-94
6681,-97
6682,-95
6683,-92
6684,-86
6685,-75
6686,-59
6687,-34
6688,-3
6689,32
6690,74
6691,118
6692,160
6693,202
6694,243
6695,303
6696,310
6697,293
6698,246
6699,172
6700,80
6701,-18
6702,-114
6703,-196
6704,-261
6705,-301
6706,-323
6707,-333
6708,-336
6709,-329
6710,-318
6711,-299
6712,-275
6713,-249
6714,-223
6715,-199
6716,-181
6717,-168
6718,-157
6719,-151
6720,-148
6721,-149
6722,-151
6723,-156
6724,-163
6725,-169
6726,-173
6727,-168
6728,-164
6729,-158
6730,-153
6731,-151
6732,-151
6733,-153
6734,-155
6735,-155
6736,-154
6737,-151
6738,-141
6739,-131
6740,-123
6741,-114
6742,-106
6743,-102
6744,-99
6745,-96
6746,-94
6747,-90
6748,-86
6749,-84
6750,-80
6751,-80
6752,-82
6753,-81
6754,-81
6755,-80
6756,-76
6757,-72
6758,-71
6759,-74
6760,-77
6761,-80
6762,-84
6763,-87
6764,-88
6765,-86
6766,-83
6767,-84
6768,-83
6769,-80
6770,-78
6771,-76
6772,-73
6773,-73
6774,-74
6775,-79
6776,-85
6777,-89
6778,-94
6779,-97
6780,-94
6781,-88
6782,-81
6783,-76
6784,-74
6785,-74
6786,-75
6787,-75
6788,-74
6789,-70
6790,-64
6791,-57
6792,-38
6793,-33
6794,-26
6795,-18
6796,-13
6797,-7
6798,-3
6799,-1
6800,-1
6801,-3
6802,-8
6803,-12
6804,-16
6805,-17
6806,-17
6807,-16
6808,-15
6809,-17
6810,-18
6811,-23
6812,-31
6813,-39
6814,-48
6815,-53
6816,-51
6817,-44
6818,-39
6819,-35
6820,-33
6821,-33
6822,-33
6823,-32
6824,-31
6825,-18
6826,-12
6827,-6
6828,-4
6829,-6
6830,-6
6831,-7
6832,-8
6833,-7
6834,-5
6835,-3
6836,-1
6837,0
6838,1
6839,2
6840,0
6841,-3
6842,-10
6843,-23
6844,-36
6845,-46
6846,-52
6847,-52
6848,-50
6849,-44
6850,-35
6851,-27
6852,-21
6853,-19
6854,-19
6855,-21
6856,-33
6857,-41
6858,-52
6859,-61
6860,-66
6861,-70
6862,-72
6863,-77
6864,-83
6865,-92
6866,-100
6867,-108
6868,-114
6869,-113
6870,-107
6871,-99
6872,-91
6873,-87
6874,-89
6875,-99
6876,-113
6877,-127
6878,-138
6879,-147
6880,-151
6881,-152
6882,-150
6883,-147
6884,-145
6885,-143
6886,-144
6887,-142
6888,-139
6889,-136
6890,-137
6891,-140
6892,-143
6893,-145
6894,-143
6895,-138
6896,-130
6897,-119
6898,-111
6899,-107
6900,-109
6901,-114
6902,-123
6903,-132
6904,-138
6905,-139
6906,-137
6907,-135
6908,-131
6909,-128
6910,-127
6911,-127
6912,-123
6913,-117
6914,-112
6915,-106
6916,-98
6917,-94
6918,-93
6919,-93
6920,-92
6921,-90
6922,-89
6923,-84
6924,-83
6925,-84
6926,-85
6927,-85
6928,-90
6929,-98
6930,-109
6931,-117
6932,-122
6933,-126
6934,-129
6935,-127
6936,-123
6937,-119
6938,-111
6939,-104
6940,-96
6941,-87
6942,-81
6943,-76
6944,-74
6945,-73
6946,-78
6947,-84
6948,-91
6949,-99
6950,-106
6951,-112
6952,-117
6953,-116
6954,-114
6955,-111
6956,-100
6957,-96
6958,-93
6959,-93
6960,-95
6961,-97
6962,-100
6963,-102
6964,-102
6965,-100
6966,-98
6967,-95
6968,-89
6969,-84
6970,-80
6971,-78
6972,-77
6973,-75
6974,-75
6975,-78
6976,-80
6977,-83
6978,-85
6979,-83
6980,-82
6981,-81
6982,-78
6983,-75
6984,-76
6985,-78
6986,-81
6987,-84
6988,-86
6989,-84
6990,-80
6991,-75
6992,-72
6993,-70
6994,-71
6995,-77
6996,-84
6997,-89
6998,-91
6999,-93
7000,-91
7001,-84
7002,-77
7003,-71
7004,-66
7005,-66
7006,-67
7007,-70
7008,-77
7009,-80
7010,-82
7011,-83
7012,-83
7013,-79
7014,-71
7015,-63
7016,-54
7017,-45
7018,-37
7019,-33
7020,-32
7021,-32
7022,-34
7023,-37
7024,-38
7025,-37
7026,-37
7027,-39
7028,-41
7029,-47
7030,-54
7031,-64
7032,-79
7033,-95
7034,-111
7035,-124
7036,-130
7037,-132
7038,-131
7039,-124
7040,-113
7041,-106
7042,-100
7043,-98
7044,-101
7045,-106
7046,-111
7047,-112
7048,-112
7049,-112
7050,-110
7051,-107
7052,-109
7053,-122
7054,-129
7055,-131
7056,-130
7057,-126
7058,-119
7059,-114
7060,-109
7061,-105
7062,-103
7063,-101
7064,-95
7065,-82
7066,-64
7067,-40
7068,-10
7069,-10
7070,22
7071,59
7072,99
7073,142
7074,184
7075,224
7076,259
7077,283
7078,290
7079,272
7080,228
7081,163
7082,81
7083,-9
7084,-98
7085,-179
7086,-244
7087,-316
7088,-326
7089,-322
7090,-310
7091,-292
7092,-268
7093,-244
7094,-220
7095,-198
7096,-176
7097,-157
7098,-141
7099,-133
7100,-130
7101,-129
7102,-129
7103,-130
7104,-127
7105,-124
7106,-118
7107,-110
7108,-104
7109,-102
7110,-104
7111,-112
7112,-122
7113,-131
7114,-139
7115,-140
7116,-138
7117,-132
7118,-121
7119,-102
7120,-97
7121,-95
7122,-94
7123,-90
7124,-84
7125,-76
7126,-66
7127,-58
7128,-54
7129,-51
7130,-52
7131,-55
7132,-59
7133,-60
7134,-62
7135,-62
7136,-59
7137,-53
7138,-48
7139,-41
7140,-35
7141,-31
7142,-28
7143,-28
7144,-28
7145,-31
7146,-36
7147,-37
7148,-36
7149,-34
7150,-33
7151,-21
7152,-17
7153,-16
7154,-16
7155,-21
7156,-26
7157,-33
7158,-39
7159,-45
7160,-49
7161,-47
7162,-40
7163,-28
7164,-16
7165,-5
7166,3
7167,8
7168,11
7169,10
7170,5
7171,0
7172,-4
7173,-5
7174,-4
7175,-2
7176,0
7177,2
7178,5
7179,6
7180,5
7181,2
7182,-1
7183,-2
7184,5
7185,10
7186,13
7187,16
7188,17
7189,14
7190,9
7191,2
7192,-4
7193,-11
7194,-17
7195,-20
7196,-18
7197,-12
7198,-6
7199,0
7200,10
7201,16
7202,19
7203,23
7204,25
7205,25
7206,27
7207,31
7208,33
7209,31
7210,28
7211,20
7212,20
7213,14
7214,11
7215,8
7216,6
7217,6
7218,8
7219,9
7220,10
7221,12
7222,14
7223,12
7224,10
7225,7
7226,2
7227,-5
7228,-12
7229,-17
7230,-22
7231,-27
7232,-31
7233,-34
7234,-37
7235,-44
7236,-50
7237,-55
7238,-57
7239,-60
7240,-63
7241,-68
7242,-75
7243,-84
7244,-92
7245,-100
7246,-109
7247,-115
7248,-117
7249,-115
7250,-111
7251,-112
7252,-118
7253,-125
7254,-129
7255,-128
7256,-128
7257,-124
7258,-119
7259,-114
7260,-109
7261,-105
7262,-104
7263,-101
7264,-103
7265,-106
7266,-108
7267,-114
7268,-120
7269,-126
7270,-130
7271,-129
7272,-126
7273,-123
7274,-119
7275,-115
7276,-117
7277,-118
7278,-119
7279,-120
7280,-123
7281,-127
7282,-128
7283,-118
7284,-108
7285,-95
7286,-85
7287,-82
7288,-81
7289,-82
7290,-90
7291,-100
7292,-106
7293,-107
7294,-108
7295,-108
7296,-109
7297,-108
7298,-108
7299,-107
7300,-101
7301,-97
7302,-94
7303,-91
7304,-87
7305,-86
7306,-91
7307,-100
7308,-108
7309,-114
7310,-117
7311,-116
7312,-114
7313,-112
7314,-108
7315,-107
7316,-108
7317,-106
7318,-103
7319,-96
7320,-83
7321,-71
7322,-64
7323,-62
7324,-65
7325,-71
7326,-76
7327,-82
7328,-83
7329,-79
7330,-77
7331,-76
7332,-75
7333,-77
7334,-83
7335,-89
7336,-97
7337,-103
7338,-102
7339,-102
7340,-103
7341,-104
7342,-104
7343,-104
7344,-107
7345,-108
7346,-105
7347,-103
7348,-92
7349,-85
7350,-85
7351,-87
7352,-90
7353,-91
7354,-91
7355,-92
7356,-95
7357,-97
7358,-93
7359,-93
7360,-93
7361,-88
7362,-86
7363,-83
7364,-80
7365,-77
7366,-71
7367,-67
7368,-64
7369,-60
7370,-56
7371,-55
7372,-53
7373,-51
7374,-54
7375,-58
7376,-63
7377,-70
7378,-72
7379,-73
7380,-72
7381,-67
7382,-58
7383,-53
7384,-52
7385,-56
7386,-63
7387,-69
7388,-76
7389,-83
7390,-85
7391,-85
7392,-83
7393,-76
7394,-69
7395,-66
7396,-59
7397,-53
7398,-54
7399,-60
7400,-68
7401,-78
7402,-89
7403,-101
7404,-112
7405,-119
7406,-123
7407,-126
7408,-125
7409,-119
7410,-115
7411,-111
7412,-107
7413,-103
7414,-104
7415,-110
7416,-114
7417,-115
7418,-115
7419,-116
7420,-111
7421,-103
7422,-101
7423,-99
7424,-98
7425,-99
7426,-103
7427,-111
7428,-116
7429,-116
7430,-112
7431,-106
7432,-94
7433,-79
7434,-65
7435,-47
7436,-25
7437,4
7438,42
7439,84
7440,134
7441,187
7442,232
7443,268
7444,294
7445,304
7446,292
7447,194
7448,115
7449,28
7450,-59
7451,-139
7452,-205
7453,-255
7454,-285
7455,-296
7456,-301
7457,-299
7458,-289
7459,-274
7460,-255
7461,-231
7462,-206
7463,-183
7464,-166
7465,-152
7466,-140
7467,-134
7468,-131
7469,-130
7470,-129
7471,-125
7472,-121
7473,-117
7474,-112
7475,-110
7476,-109
7477,-108
7478,-108
7479,-104
7480,-98
7481,-95
7482,-87
7483,-81
7484,-80
7485,-81
7486,-84
7487,-89
7488,-93
7489,-96
7490,-97
7491,-96
7492,-96
7493,-97
7494,-96
7495,-94
7496,-94
7497,-94
7498,-92
7499,-90
7500,-90
7501,-89
7502,-90
7503,-92
7504,-94
7505,-95
7506,-92
7507,-88
7508,-83
7509,-78
7510,-71
7511,-69
7512,-69
7513,-74
7514,-78
7515,-80
7516,-83
7517,-85
7518,-86
7519,-86
7520,-86
7521,-87
7522,-89
7523,-90
7524,-86
7525,-81
7526,-77
7527,-76
7528,-80
7529,-86
7530,-91
7531,-95
7532,-99
7533,-101
7534,-99
7535,-93
7536,-85
7537,-76
7538,-70
7539,-63
7540,-58
7541,-54
7542,-52
7543,-53
7544,-56
7545,-59
7546,-59
7547,-50
7548,-43
7549,-36
7550,-32
7551,-30
7552,-32
7553,-36
7554,-38
7555,-39
7556,-38
7557,-35
7558,-33
7559,-34
7560,-35
7561,-38
7562,-42
7563,-41
7564,-39
7565,-35
7566,-27
7567,-22
7568,-18
7569,-12
7570,-7
7571,-5
7572,-4
7573,-6
7574,-12
7575,-19
7576,-26
7577,-31
7578,-34
7579,-35
7580,-27
7581,-20
7582,-15
7583,-12
7584,-11
7585,-13
7586,-18
7587,-22
7588,-28
7589,-34
7590,-37
7591,-39
7592,-41
7593,-44
7594,-49
7595,-56
7596,-60
7597,-62
7598,-63
7599,-63
7600,-64
7601,-66
7602,-68
7603,-73
7604,-77
7605,-77
7606,-75
7607,-71
7608,-69
7609,-71
7610,-78
7611,-90
7612,-105
7613,-124
7614,-124
7615,-121
7616,-116
7617,-111
7618,-110
7619,-113
7620,-118
7621,-122
7622,-126
7623,-128
7624,-128
7625,-124
7626,-117
7627,-111
7628,-106
7629,-104
7630,-104
7631,-106
7632,-110
7633,-114
7634,-118
7635,-125
7636,-130
7637,-132
7638,-132
7639,-135
7640,-137
7641,-139
7642,-141
7643,-143
7644,-143
7645,-144
7646,-143
7647,-142
7648,-135
7649,-126
7650,-120
7651,-116
7652,-113
7653,-111
7654,-110
7655,-108
7656,-104
7657,-101
7658,-99
7659,-100
7660,-100
7661,-102
7662,-106
7663,-110
7664,-113
7665,-118
7666,-122
7667,-129
7668,-138
7669,-147
7670,-158
7671,-168
7672,-171
7673,-170
7674,-164
7675,-156
7676,-144
7677,-132
7678,-122
7679,-119
7680,-114
7681,-114
7682,-115
7683,-115
7684,-115
7685,-120
7686,-128
7687,-135
7688,-140
7689,-144
7690,-143
7691,-140
7692,-133
7693,-129
7694,-132
7695,-136
7696,-141
7697,-146
7698,-150
7699,-151
7700,-151
7701,-150
7702,-147
7703,-142
7704,-139
7705,-138
7706,-138
7707,-137
7708,-134
7709,-132
7710,-132
7711,-130
7712,-128
7713,-126
7714,-123
7715,-121
7716,-120
7717,-118
7718,-113
7719,-108
7720,-105
7721,-102
7722,-99
7723,-96
7724,-95
7725,-96
7726,-95
7727,-94
7728,-96
7729,-95
7730,-90
7731,-81
7732,-73
7733,-67
7734,-65
7735,-68
7736,-77
7737,-89
7738,-101
7739,-109
7740,-116
7741,-119
7742,-119
7743,-119
7744,-120
7745,-123
7746,-122
7747,-119
7748,-114
7749,-106
7750,-97
7751,-89
7752,-83
7753,-81
7754,-79
7755,-79
7756,-81
7757,-84
7758,-89
7759,-94
7760,-95
7761,-94
7762,-94
7763,-95
7764,-99
7765,-105
7766,-110
7767,-115
7768,-117
7769,-116
7770,-110
7771,-101
7772,-91
7773,-84
7774,-80
7775,-81
7776,-86
7777,-97
7778,-100
7779,-101
7780,-100
7781,-100
7782,-99
7783,-99
7784,-99
7785,-99
7786,-96
7787,-96
7788,-99
7789,-99
7790,-100
7791,-105
7792,-106
7793,-107
7794,-107
7795,-101
7796,-91
7797,-75
7798,-52
7799,-30
7800,-4
7801,26
7802,57
7803,89
7804,124
7805,157
7806,188
7807,220
7808,244
7809,248
7810,232
7811,130
7812,52
7813,-32
7814,-113
7815,-179
7816,-230
7817,-264
7818,-277
7819,-279
7820,-276
7821,-264
7822,-248
7823,-229
7824,-206
7825,-185
7826,-169
7827,-153
7828,-140
7829,-132
7830,-127
7831,-123
7832,-118
7833,-113
7834,-113
7835,-111
7836,-109
7837,-109
7838,-108
7839,-104
7840,-101
7841,-98
7842,-97
7843,-98
7844,-102
7845,-106
7846,-108
7847,-107
7848,-109
7849,-111
7850,-116
7851,-124
7852,-131
7853,-137
7854,-142
7855,-146
7856,-145
7857,-143
7858,-138
7859,-132
7860,-126
7861,-119
7862,-110
7863,-101
7864,-96
7865,-94
7866,-92
7867,-94
7868,-97
7869,-99
7870,-99
7871,-96
7872,-89
7873,-84
7874,-79
7875,-82
7876,-88
7877,-92
7878,-97
7879,-101
7880,-100
7881,-96
7882,-91
7883,-84
7884,-79
7885,-75
7886,-72
7887,-71
7888,-71
7889,-71
7890,-73
7891,-79
7892,-83
7893,-87
7894,-88
7895,-87
7896,-84
7897,-79
7898,-73
7899,-68
7900,-62
7901,-58
7902,-56
7903,-57
7904,-57
7905,-55
7906,-53
7907,-51
7908,-45
7909,-44
7910,-42
7911,-40
7912,-40
7913,-41
7914,-41
7915,-38
7916,-34
7917,-32
7918,-27
7919,-21
7920,-17
7921,-11
7922,-8
7923,-8
7924,-4
7925,-1
7926,1
7927,3
7928,6
7929,7
7930,8
7931,11
7932,14
7933,15
7934,15
7935,15
7936,14
7937,11
7938,6
7939,1
7940,-1
7941,0
7942,6
7943,7
7944,4
7945,2
7946,0
7947,-2
7948,-2
7949,0
7950,2
7951,7
7952,9
7953,10
7954,9
7955,8
7956,6
7957,6
7958,8
7959,8
7960,6
7961,5
7962,1
7963,-6
7964,-19
7965,-32
7966,-42
7967,-53
7968,-63
7969,-70
7970,-73
7971,-74
7972,-73
7973,-66
7974,-53
7975,-47
7976,-43
7977,-42
7978,-45
7979,-52
7980,-61
7981,-68
7982,-75
7983,-81
7984,-86
7985,-91
7986,-92
7987,-89
7988,-89
7989,-87
7990,-82
7991,-80
7992,-81
7993,-83
7994,-89
7995,-96
7996,-102
7997,-104
7998,-101
7999,-95
8000,-87
8001,-77
8002,-69
8003,-64
8004,-65
8005,-70
8006,-78
8007,-91
8008,-93
8009,-94
8010,-93
8011,-93
8012,-93
8013,-93
8014,-91
8015,-87
8016,-81
8017,-72
8018,-63
8019,-54
8020,-46
8021,-44
8022,-45
8023,-48
8024,-52
8025,-57
8026,-62
8027,-66
8028,-70
8029,-75
8030,-80
8031,-85
8032,-90
8033,-94
8034,-99
8035,-100
8036,-101
8037,-103
8038,-103
8039,-100
8040,-99
8041,-93
8042,-84
8043,-78
8044,-73
8045,-70
8046,-69
8047,-72
8048,-79
8049,-84
8050,-88
8051,-93
8052,-96
8053,-95
8054,-89
8055,-83
8056,-75
8057,-68
8058,-64
8059,-64
8060,-67
8061,-69
8062,-70
8063,-70
8064,-65
8065,-65
8066,-58
8067,-50
8068,-46
8069,-48
8070,-52
8071,-59
8072,-67
8073,-72
8074,-71
8075,-68
8076,-65
8077,-60
8078,-58
8079,-58
8080,-57
8081,-58
8082,-62
8083,-65
8084,-68
8085,-68
8086,-68
8087,-71
8088,-71
8089,-72
8090,-76
8091,-78
8092,-79
8093,-83
8094,-84
8095,-82
8096,-82
8097,-83
8098,-85
8099,-90
8100,-92
8101,-93
8102,-93
8103,-91
8104,-88
8105,-89
8106,-86
8107,-87
8108,-88
8109,-86
8110,-84
8111,-80
8112,-75
8113,-72
8114,-69
8115,-68
8116,-70
8117,-70
8118,-72
8119,-74
8120,-73
8121,-71
8122,-68
8123,-61
8124,-53
8125,-48
8126,-44
8127,-43
8128,-42
8129,-42
8130,-43
8131,-43
8132,-42
8133,-42
8134,-40
8135,-36
8136,-34
8137,-33
8138,-31
8139,-33
8140,-33
8141,-35
8142,-39
8143,-43
8144,-47
8145,-52
8146,-56
8147,-61
8148,-65
8149,-69
8150,-73
8151,-76
8152,-78
8153,-79
8154,-82
8155,-81
8156,-80
8157,-81
8158,-81
8159,-79
8160,-76
8161,-75
8162,-73
8163,-71
8164,-70
8165,-70
8166,-69
8167,-70
8168,-73
8169,-76
8170,-76
8171,-76
8172,-72
8173,-69
8174,-61
8175,-55
8176,-47
8177,-34
8178,-19
8179,2
8180,31
8181,68
8182,105
8183,139
8184,170
8185,198
8186,222
8187,240
8188,259
8189,279
8190,291
8191,292
8192,274
8193,235
8194,174
8195,96
8196,13
8197,-63
8198,-129
8199,-180
8200,-210
8201,-224
8202,-229
8203,-228
8204,-221
8205,-192
8206,-171
8207,-171
8208,-150
8209,-130
8210,-111
8211,-96
8212,-83
8213,-73
8214,-66
8215,-60
8216,-55
8217,-53
8218,-47
8219,-41
8220,-35
8221,-27
8222,-19
8223,-15
8224,-16
8225,-20
8226,-31
8227,-42
8228,-52
8229,-56
8230,-55
8231,-51
8232,-47
8233,-45
8234,-45
8235,-45
8236,-46
8237,-47
8238,-48
8239,-47
8240,-47
8241,-51
8242,-56
8243,-61
8244,-66
8245,-67
8246,-63
8247,-58
8248,-52
8249,-46
8250,-44
8251,-44
8252,-48
8253,-54
8254,-62
8255,-66
8256,-68
8257,-64
8258,-57
8259,-49
8260,-41
8261,-33
8262,-28
8263,-25
8264,-23
8265,-25
8266,-27
8267,-27
8268,-26
8269,-24
8270,-19
8271,-12
8272,-1
8273,2
8274,3
8275,4
8276,2
8277,0
8278,-2
8279,-2
8280,-1
8281,2
8282,8
8283,14
8284,20
8285,23
8286,23
8287,20
8288,18
8289,17
8290,15
8291,16
8292,17
8293,18
8294,18
8295,17
8296,16
8297,15
8298,12
8299,12
8300,15
8301,20
8302,23
8303,27
8304,29
8305,24
8306,21
8307,18
8308,16
8309,14
8310,14
8311,17
8312,17
8313,18
8314,21
8315,23
8316,25
8317,27
8318,27
8319,28
8320,26
8321,25
8322,24
8323,27
8324,30
8325,35
8326,41
8327,47
8328,51
8329,55
8330,57
8331,56
8332,53
8333,50
8334,45
8335,40
8336,32
8337,21
8338,7
8339,6
8340,7
8341,11
8342,17
8343,23
8344,28
8345,28
8346,24
8347,16
8348,6
8349,-1
8350,-1
8351,-7
8352,-11
8353,-14
8354,-15
8355,-14
8356,-14
8357,-16
8358,-18
8359,-22
8360,-27
8361,-32
8362,-37
8363,-41
8364,-42
8365,-44
8366,-42
8367,-38
8368,-36
8369,-34
8370,-32
8371,-33
8372,-37
8373,-40
8374,-41
8375,-41
8376,-44
8377,-45
8378,-45
8379,-48
8380,-49
8381,-45
8382,-42
8383,-41
8384,-43
8385,-47
8386,-53
8387,-58
8388,-63
8389,-65
8390,-66
8391,-67
8392,-66
8393,-63
8394,-60
8395,-56
8396,-52
8397,-45
8398,-35
8399,-29
8400,-25
8401,-25
8402,-29
8403,-34
8404,-37
8405,-42
8406,-45
8407,-46
8408,-43
8409,-42
8410,-42
8411,-42
8412,-40
8413,-37
8414,-30
8415,-22
8416,-16
8417,-10
8418,-7
8419,-8
8420,-12
8421,-17
8422,-23
8423,-25
8424,-24
8425,-22
8426,-19
8427,-15
8428,-15
8429,-17
8430,-17
8431,-17
8432,-16
8433,-13
8434,-12
8435,-15
8436,-20
8437,-27
8438,-34
8439,-47
8440,-50
8441,-52
8442,-55
8443,-54
8444,-54
8445,-57
8446,-56
8447,-52
8448,-45
8449,-40
8450,-35
8451,-32
8452,-29
8453,-27
8454,-23
8455,-16
8456,-8
8457,0
8458,7
8459,11
8460,11
8461,6
8462,-4
8463,-18
8464,-31
8465,-41
8466,-47
8467,-50
8468,-51
8469,-51
8470,-52
8471,-56
8472,-69
8473,-74
8474,-78
8475,-81
8476,-81
8477,-82
8478,-83
8479,-85
8480,-87
8481,-88
8482,-88
8483,-85
8484,-79
8485,-73
8486,-70
8487,-68
8488,-69
8489,-70
8490,-70
8491,-72
8492,-72
8493,-72
8494,-69
8495,-67
8496,-65
8497,-63
8498,-63
8499,-64
8500,-64
8501,-63
8502,-61
8503,-59
8504,-61
8505,-62
8506,-60
8507,-60
8508,-56
8509,-53
8510,-51
8511,-47
8512,-42
8513,-38
8514,-33
8515,-29
8516,-22
8517,-13
8518,-7
8519,-4
8520,-2
8521,-4
8522,-9
8523,-16
8524,-23
8525,-29
8526,-32
8527,-32
8528,-24
8529,-16
8530,-7
8531,1
8532,9
8533,14
8534,17
8535,19
8536,22
8537,28
8538,34
8539,38
8540,35
8541,28
8542,17
8543,2
8544,-16
8545,-32
8546,-48
8547,-63
8548,-74
8549,-83
8550,-91
8551,-94
8552,-98
8553,-97
8554,-95
8555,-94
8556,-92
8557,-88
8558,-87
8559,-85
8560,-83
8561,-83
8562,-82
8563,-81
8564,-81
8565,-77
8566,-70
8567,-63
8568,-57
8569,-50
8570,-46
8571,-46
8572,-49
8573,-55
8574,-55
8575,-52
8576,-42
8577,-27
8578,-9
8579,16
8580,46
8581,79
8582,113
8583,147
8584,182
8585,214
8586,246
8587,276
8588,305
8589,323
8590,326
8591,304
8592,258
8593,192
8594,113
8595,30
8596,-45
8597,-110
8598,-159
8599,-190
8600,-206
8601,-211
8602,-210
8603,-201
8604,-186
8605,-164
8606,-140
8607,-98
8608,-83
8609,-73
8610,-65
8611,-61
8612,-63
8613,-68
8614,-72
8615,-76
8616,-78
8617,-76
8618,-74
8619,-72
8620,-71
8621,-71
8622,-69
8623,-64
8624,-62
8625,-59
8626,-56
8627,-54
8628,-54
8629,-55
8630,-57
8631,-56
8632,-53
8633,-51
8634,-51
8635,-48
8636,-45
8637,-46
8638,-47
8639,-47
8640,-46
8641,-46
8642,-46
8643,-44
8644,-43
8645,-42
8646,-41
8647,-41
8648,-42
8649,-45
8650,-46
8651,-47
8652,-48
8653,-48
8654,-48
8655,-47
8656,-49
8657,-50
8658,-49
8659,-48
8660,-47
8661,-43
8662,-39
8663,-37
8664,-37
8665,-40
8666,-43
8667,-45
8668,-47
8669,-48
8670,-47
8671,-47
8672,-48
8673,-43
8674,-38
8675,-35
8676,-31
8677,-27
8678,-27
8679,-30
8680,-36
8681,-42
8682,-47
8683,-48
8684,-47
8685,-43
8686,-38
8687,-34
8688,-33
8689,-36
8690,-39
8691,-41
8692,-43
8693,-43
8694,-38
8695,-30
8696,-25
8697,-18
8698,-11
8699,-7
8700,-5
8701,-3
8702,0
8703,5
8704,9
8705,12
8706,10
8707,3
8708,0
8709,-4
8710,-8
8711,-9
8712,-7
8713,-2
8714,2
8715,3
8716,6
8717,7
8718,6
8719,10
8720,13
8721,16
8722,17
8723,20
8724,25
8725,30
8726,32
8727,31
8728,30
8729,28
8730,24
8731,19
8732,13
8733,9
8734,6
8735,6
8736,6
8737,5
8738,3
8739,0
8740,0
8741,4
8742,7
8743,11
8744,15
8745,18
8746,17
8747,14
8748,9
8749,2
8750,-5
8751,-13
8752,-23
8753,-36
8754,-49
8755,-62
8756,-71
8757,-76
8758,-77
8759,-73
8760,-66
8761,-61
8762,-59
8763,-60
8764,-64
8765,-68
8766,-71
8767,-70
8768,-66
8769,-63
8770,-60
8771,-60
8772,-62
8773,-73
8774,-79
8775,-83
8776,-83
8777,-84
8778,-84
8779,-81
8780,-80
8781,-81
8782,-83
8783,-85
8784,-85
8785,-86
8786,-88
8787,-90
8788,-87
8789,-80
8790,-75
8791,-70
8792,-62
8793,-56
8794,-48
8795,-41
8796,-38
8797,-36
8798,-36
8799,-36
8800,-35
8801,-37
8802,-44
8803,-50
8804,-57
8805,-66
8806,-71
8807,-70
8808,-62
8809,-53
8810,-46
8811,-42
8812,-44
8813,-50
8814,-54
8815,-56
8816,-54
8817,-48
8818,-42
8819,-39
8820,-39
8821,-42
8822,-50
8823,-59
8824,-66
8825,-70
8826,-73
8827,-73
8828,-71
8829,-73
8830,-77
8831,-81
8832,-83
8833,-81
8834,-76
8835,-70
8836,-61
8837,-54
8838,-52
8839,-51
8840,-53
8841,-56
8842,-59
8843,-61
8844,-61
8845,-62
8846,-67
8847,-69
8848,-69
8849,-66
8850,-61
8851,-56
8852,-49
8853,-45
8854,-43
8855,-45
8856,-48
8857,-56
8858,-69
8859,-83
8860,-93
8861,-102
8862,-107
8863,-107
8864,-101
8865,-93
8866,-86
8867,-80
8868,-74
8869,-71
8870,-66
8871,-59
8872,-50
8873,-35
8874,-34
8875,-38
8876,-46
8877,-58
8878,-70
8879,-75
8880,-74
8881,-70
8882,-63
8883,-56
8884,-51
8885,-49
8886,-50
8887,-55
8888,-59
8889,-64
8890,-66
8891,-64
8892,-60
8893,-59
8894,-60
8895,-61
8896,-63
8897,-65
8898,-67
8899,-68
8900,-65
8901,-62
8902,-56
8903,-49
8904,-45
8905,-42
8906,-40
8907,-37
8908,-39
8909,-44
8910,-46
8911,-48
8912,-49
8913,-46
8914,-40
8915,-37
8916,-36
8917,-38
8918,-42
8919,-42
8920,-47
8921,-52
8922,-54
8923,-52
8924,-48
8925,-46
8926,-42
8927,-40
8928,-41
8929,-42
8930,-38
8931,-31
8932,-22
8933,-14
8934,-6
8935,-1
8936,1
8937,0
8938,-6
8939,-13
8940,-20
8941,-18
8942,-17
8943,-18
8944,-19
8945,-24
8946,-33
8947,-42
8948,-52
8949,-58
8950,-60
8951,-57
8952,-55
8953,-53
8954,-53
8955,-54
8956,-55
8957,-58
8958,-61
8959,-62
8960,-60
8961,-56
8962,-50
8963,-43
8964,-36
8965,-30
8966,-26
8967,-27
8968,-30
8969,-38
8970,-45
8971,-49
8972,-52
8973,-52
8974,-45
8975,-42
8976,-39
8977,-38
8978,-38
8979,-35
8980,-30
8981,-20
8982,-2
8983,22
8984,48
8985,77
8986,106
8987,134
8988,167
8989,200
8990,234
8991,271
8992,308
8993,341
8994,362
8995,364
8996,339
8997,289
8998,216
8999,130
9000,39
9001,-45
9002,-117
9003,-169
9004,-202
9005,-217
9006,-219
9007,-196
9008,-177
9009,-158
9010,-139
9011,-119
9012,-103
9013,-89
9014,-76
9015,-67
9016,-59
9017,-52
9018,-48
9019,-45
9020,-45
9021,-46
9022,-46
9023,-44
9024,-48
9025,-57
9026,-68
9027,-79
9028,-87
9029,-93
9030,-92
9031,-86
9032,-78
9033,-69
9034,-60
9035,-55
9036,-53
9037,-53
9038,-54
9039,-55
9040,-53
9041,-49
9042,-44
9043,-42
9044,-42
9045,-42
9046,-44
9047,-47
9048,-52
9049,-55
9050,-58
9051,-60
9052,-60
9053,-57
9054,-56
9055,-57
9056,-56
9057,-55
9058,-54
9059,-57
9060,-62
9061,-62
9062,-66
9063,-67
9064,-69
9065,-70
9066,-72
9067,-72
9068,-74
9069,-76
9070,-79
9071,-80
9072,-80
9073,-80
9074,-67
9075,-60
9076,-55
9077,-48
9078,-43
9079,-42
9080,-43
9081,-45
9082,-44
9083,-44
9084,-44
9085,-44
9086,-41
9087,-35
9088,-27
9089,-18
9090,-9
9091,-1
9092,6
9093,9
9094,6
9095,0
9096,-2
9097,-2
9098,1
9099,10
9100,20
9101,25
9102,27
9103,25
9104,23
9105,17
9106,9
9107,8
9108,12
9109,15
9110,17
9111,20
9112,18
9113,12
9114,9
9115,4
9116,1
9117,4
9118,8
9119,14
9120,19
9121,23
9122,25
9123,27
9124,26
9125,23
9126,20
9127,16
9128,12
9129,9
9130,3
9131,0
9132,0
9133,5
9134,10
9135,14
9136,16
9137,14
9138,9
9139,1
9140,-16
9141,-20
9142,-23
9143,-23
9144,-21
9145,-18
9146,-17
9147,-16
9148,-14
9149,-16
9150,-19
9151,-24
9152,-30
9153,-35
9154,-41
9155,-46
9156,-49
9157,-54
9158,-58
9159,-62
9160,-68
9161,-73
9162,-75
9163,-78
9164,-82
9165,-83
9166,-85
9167,-88
9168,-88
9169,-88
9170,-88
9171,-87
9172,-89
9173,-87
9174,-87
9175,-86
9176,-81
9177,-72
9178,-65
9179,-62
9180,-61
9181,-66
9182,-75
9183,-88
9184,-101
9185,-114
9186,-123
9187,-129
9188,-130
9189,-123
9190,-117
9191,-111
9192,-103
9193,-95
9194,-89
9195,-85
9196,-87
9197,-92
9198,-98
9199,-107
9200,-117
9201,-122
9202,-124
9203,-124
9204,-123
9205,-117
9206,-110
9207,-101
9208,-98
9209,-92
9210,-86
9211,-80
9212,-75
9213,-72
9214,-69
9215,-70
9216,-73
9217,-76
9218,-78
9219,-78
9220,-72
9221,-64
9222,-61
9223,-60
9224,-61
9225,-63
9226,-65
9227,-69
9228,-75
9229,-81
9230,-87
9231,-92
9232,-95
9233,-97
9234,-95
9235,-87
9236,-81
9237,-78
9238,-76
9239,-83
9240,-89
9241,-93
9242,-93
9243,-94
9244,-98
9245,-98
9246,-98
9247,-102
9248,-106
9249,-107
9250,-106
9251,-106
9252,-106
9253,-105
9254,-102
9255,-98
9256,-97
9257,-95
9258,-95
9259,-96
9260,-100
9261,-104
9262,-108
9263,-111
9264,-112
9265,-111
9266,-108
9267,-103
9268,-99
9269,-96
9270,-92
9271,-89
9272,-87
9273,-83
9274,-82
9275,-81
9276,-83
9277,-87
9278,-91
9279,-93
9280,-92
9281,-90
9282,-86
9283,-82
9284,-78
9285,-76
9286,-80
9287,-83
9288,-87
9289,-90
9290,-92
9291,-95
9292,-100
9293,-107
9294,-112
9295,-118
9296,-124
9297,-125
9298,-123
9299,-116
9300,-106
9301,-95
9302,-87
9303,-78
9304,-73
9305,-73
9306,-76
9307,-95
9308,-106
9309,-112
9310,-114
9311,-112
9312,-107
9313,-102
9314,-96
9315,-90
9316,-87
9317,-85
9318,-80
9319,-74
9320,-66
9321,-61
9322,-60
9323,-67
9324,-75
9325,-82
9326,-89
9327,-90
9328,-89
9329,-86
9330,-82
9331,-83
9332,-86
9333,-92
9334,-103
9335,-115
9336,-122
9337,-128
9338,-132
9339,-132
9340,-128
9341,-121
9342,-119
9343,-119
9344,-119
9345,-119
9346,-120
9347,-123
9348,-127
9349,-129
9350,-131
9351,-132
9352,-133
9353,-133
9354,-129
9355,-127
9356,-125
9357,-120
9358,-117
9359,-120
9360,-122
9361,-122
9362,-125
9363,-126
9364,-128
9365,-127
9366,-125
9367,-120
9368,-114
9369,-103
9370,-90
9371,-76
9372,-58
9373,-37
9374,8
9375,39
9376,73
9377,109
9378,147
9379,181
9380,203
9381,211
9382,196
9383,156
9384,95
9385,20
9386,-57
9387,-130
9388,-194
9389,-243
9390,-273
9391,-290
9392,-295
9393,-293
9394,-288
9395,-279
9396,-264
9397,-245
9398,-220
9399,-194
9400,-169
9401,-144
9402,-121
9403,-102
9404,-87
9405,-78
9406,-73
9407,-68
9408,-66
9409,-67
9410,-71
9411,-76
9412,-82
9413,-87
9414,-88
9415,-89
9416,-90
9417,-90
9418,-90
9419,-93
9420,-95
9421,-97
9422,-99
9423,-99
9424,-97
9425,-93
9426,-87
9427,-83
9428,-79
9429,-81
9430,-80
9431,-81
9432,-85
9433,-90
9434,-93
9435,-97
9436,-97
9437,-96
9438,-94
9439,-89
9440,-77
9441,-73
9442,-70
9443,-70
9444,-72
9445,-72
9446,-72
9447,-73
9448,-75
9449,-75
9450,-73
9451,-69
9452,-63
9453,-57
9454,-55
9455,-53
9456,-53
9457,-56
9458,-62
9459,-65
9460,-66
9461,-67
9462,-68
9463,-68
9464,-67
9465,-64
9466,-63
9467,-59
9468,-55
9469,-52
9470,-50
9471,-49
9472,-50
9473,-51
9474,-49
9475,-44
9476,-37
9477,-31
9478,-25
9479,-21
9480,-18
9481,-14
9482,-15
9483,-20
9484,-21
9485,-23
9486,-29
9487,-31
9488,-31
9489,-31
9490,-33
9491,-35
9492,-36
9493,-34
9494,-32
9495,-32
9496,-35
9497,-36
9498,-36
9499,-38
9500,-39
9501,-41
9502,-42
9503,-42
9504,-41
9505,-39
9506,-39
9507,-33
9508,-27
9509,-19
9510,-14
9511,-16
9512,-20
9513,-26
9514,-33
9515,-38
9516,-41
9517,-40
9518,-36
9519,-31
9520,-26
9521,-24
9522,-27
9523,-31
9524,-36
9525,-38
9526,-39
9527,-39
9528,-37
9529,-37
9530,-39
9531,-41
9532,-41
9533,-41
9534,-38
9535,-37
9536,-37
9537,-38
9538,-37
9539,-41
9540,-51
9541,-60
9542,-69
9543,-76
9544,-86
9545,-97
9546,-108
9547,-115
9548,-117
9549,-116
9550,-114
9551,-111
9552,-110
9553,-111
9554,-113
9555,-117
9556,-121
9557,-122
9558,-121
9559,-120
9560,-117
9561,-113
9562,-111
9563,-112
9564,-113
9565,-115
9566,-117
9567,-121
9568,-123
9569,-122
9570,-122
9571,-122
9572,-117
9573,-109
9574,-108
9575,-109
9576,-111
9577,-114
9578,-120
9579,-121
9580,-120
9581,-120
9582,-119
9583,-115
9584,-113
9585,-111
9586,-107
9587,-102
9588,-96
9589,-91
9590,-88
9591,-81
9592,-80
9593,-84
9594,-90
9595,-97
9596,-100
9597,-100
9598,-101
9599,-99
9600,-95
9601,-92
9602,-91
9603,-89
9604,-93
9605,-102
9606,-105
9607,-105
9608,-104
9609,-105
9610,-105
9611,-104
9612,-106
9613,-111
9614,-117
9615,-123
9616,-129
9617,-132
9618,-132
9619,-129
9620,-126
9621,-126
9622,-128
9623,-133
9624,-138
9625,-140
9626,-140
9627,-137
9628,-132
9629,-129
9630,-129
9631,-127
9632,-127
9633,-133
9634,-141
9635,-147
9636,-150
9637,-147
9638,-140
9639,-127
9640,-122
9641,-122
9642,-125
9643,-129
9644,-134
9645,-137
9646,-138
9647,-138
9648,-136
9649,-134
9650,-131
9651,-127
9652,-121
9653,-113
9654,-104
9655,-95
9656,-88
9657,-83
9658,-80
9659,-79
9660,-79
9661,-78
9662,-77
9663,-77
9664,-78
9665,-81
9666,-84
9667,-87
9668,-88
9669,-86
9670,-81
9671,-72
9672,-56
9673,-49
9674,-46
9675,-44
9676,-42
9677,-41
9678,-38
9679,-33
9680,-33
9681,-36
9682,-38
9683,-45
9684,-54
9685,-64
9686,-71
9687,-73
9688,-70
9689,-66
9690,-58
9691,-48
9692,-40
9693,-34
9694,-28
9695,-23
9696,-22
9697,-26
9698,-27
9699,-28
9700,-28
9701,-26
9702,-26
9703,-25
9704,-21
9705,-21
9706,-26
9707,-30
9708,-34
9709,-38
9710,-46
9711,-55
9712,-63
9713,-75
9714,-84
9715,-87
9716,-90
9717,-90
9718,-85
9719,-82
9720,-79
9721,-78
9722,-80
9723,-82
9724,-82
9725,-84
9726,-86
9727,-86
9728,-87
9729,-89
9730,-90
9731,-88
9732,-83
9733,-74
9734,-67
9735,-62
9736,-60
9737,-62
9738,-68
9739,-83
9740,-85
9741,-81
9742,-72
9743,-61
9744,-47
9745,-31
9746,-11
9747,14
9748,44
9749,78
9750,116
9751,158
9752,199
9753,235
9754,267
9755,290
9756,297
9757,282
9758,243
9759,184
9760,110
9761,27
9762,-50
9763,-119
9764,-174
9765,-212
9766,-231
9767,-237
9768,-239
9769,-234
9770,-221
9771,-203
9772,-184
9773,-164
9774,-144
9775,-128
9776,-113
9777,-101
9778,-91
9779,-85
9780,-81
9781,-79
9782,-76
9783,-73
9784,-70
9785,-65
9786,-61
9787,-59
9788,-55
9789,-51
9790,-49
9791,-47
9792,-47
9793,-49
9794,-53
9795,-56
9796,-58
9797,-60
9798,-62
9799,-61
9800,-55
9801,-46
9802,-40
9803,-34
9804,-31
9805,-30
9806,-34
9807,-39
9808,-46
9809,-50
9810,-50
9811,-45
9812,-38
9813,-30
9814,-18
9815,-8
9816,-1
9817,4
9818,5
9819,0
9820,-7
9821,-13
9822,-19
9823,-25
9824,-27
9825,-26
9826,-20
9827,-17
9828,-20
9829,-21
9830,-26
9831,-34
9832,-39
9833,-39
9834,-34
9835,-28
9836,-19
9837,-11
9838,-1
9839,-3
9840,-4
9841,-4
9842,-5
9843,-4
9844,-3
9845,-2
9846,-5
9847,-7
9848,-8
9849,-13
9850,-18
9851,-22
9852,-26
9853,-30
9854,-33
9855,-33
9856,-31
9857,-29
9858,-27
9859,-22
9860,-18
9861,-18
9862,-17
9863,-16
9864,-20
9865,-26
9866,-28
9867,-32
9868,-34
9869,-33
9870,-32
9871,-30
9872,-28
9873,-24
9874,-20
9875,-17
9876,-13
9877,-8
9878,-6
9879,-2
9880,0
9881,0
9882,4
9883,12
9884,19
9885,24
9886,27
9887,27
9888,22
9889,15
9890,9
9891,2
9892,-2
9893,-4
9894,-1
9895,3
9896,7
9897,10
9898,15
9899,19
9900,19
9901,21
9902,23
9903,23
9904,26
9905,23
9906,21
9907,18
9908,15
9909,13
9910,9
9911,4
9912,2
9913,-2
9914,-2
9915,-8
9916,-14
9917,-22
9918,-29
9919,-30
9920,-29
9921,-30
9922,-33
9923,-38
9924,-44
9925,-49
9926,-55
9927,-58
9928,-58
9929,-55
9930,-51
9931,-47
9932,-48
9933,-52
9934,-54
9935,-58
9936,-61
9937,-61
9938,-61
9939,-63
9940,-68
9941,-77
9942,-88
9943,-97
9944,-102
9945,-102
9946,-102
9947,-100
9948,-95
9949,-90
9950,-89
9951,-86
9952,-84
9953,-82
9954,-79
9955,-75
9956,-72
9957,-70
9958,-68
9959,-68
9960,-66
9961,-65
9962,-66
9963,-70
9964,-74
9965,-80
9966,-86
9967,-89
9968,-90
9969,-87
9970,-74
9971,-65
9972,-58
9973,-53
9974,-51
9975,-51
9976,-52
9977,-52
9978,-52
9979,-48
9980,-45
9981,-44
9982,-43
9983,-40
9984,-40
9985,-36
9986,-35
9987,-37
9988,-36
9989,-35
9990,-32
9991,-29
9992,-27
9993,-23
9994,-21
9995,-23
9996,-29
9997,-39
9998,-48
9999,-55
10000,-56
10001,-53
10002,-49
10003,-48
10004,-50
10005,-54
10006,-59
10007,-65
10008,-70
10009,-70
10010,-67
10011,-65
10012,-67
10013,-72
10014,-75
10015,-79
10016,-82
10017,-80
10018,-77
10019,-75
10020,-73
10021,-71
10022,-70
10023,-72
10024,-72
10025,-68
10026,-59
10027,-49
10028,-41
10029,-38
10030,-41
10031,-49
10032,-57
10033,-63
10034,-67
10035,-67
10036,-66
10037,-64
10038,-63
10039,-65
10040,-65
10041,-63
10042,-62
10043,-58
10044,-55
10045,-57
10046,-61
10047,-67
10048,-76
10049,-79
10050,-80
10051,-79
10052,-71
10053,-63
10054,-59
10055,-57
10056,-61
10057,-61
10058,-69
10059,-76
10060,-81
10061,-82
10062,-74
10063,-63
10064,-53
10065,-42
10066,-33
10067,-28
10068,-25
10069,-29
10070,-34
10071,-43
10072,-53
10073,-59
10074,-62
10075,-64
10076,-62
10077,-56
10078,-51
10079,-47
10080,-45
10081,-45
10082,-45
10083,-43
10084,-42
10085,-41
10086,-41
10087,-43
10088,-45
10089,-43
10090,-41
10091,-39
10092,-34
10093,-29
10094,-23
10095,-17
10096,-13
10097,-12
10098,-12
10099,-17
10100,-25
10101,-45
10102,-59
10103,-73
10104,-83
10105,-88
10106,-91
10107,-92
10108,-91
10109,-88
10110,-85
10111,-79
10112,-74
10113,-72
10114,-73
10115,-74
10116,-75
10117,-77
10118,-80
10119,-82
10120,-83
10121,-80
10122,-75
10123,-72
10124,-69
10125,-65
10126,-63
10127,-65
10128,-70
10129,-77
10130,-85
10131,-92
10132,-99
10133,-100
10134,-96
10135,-85
10136,-69
10137,-50
10138,-29
10139,-5
10140,25
10141,62
10142,102
10143,141
10144,180
10145,217
10146,246
10147,271
10148,291
10149,302
10150,300
10151,281
10152,238
10153,175
10154,96
10155,9
10156,-73
10157,-141
10158,-192
10159,-221
10160,-231
10161,-228
10162,-222
10163,-212
10164,-199
10165,-180
10166,-137
10167,-116
10168,-97
10169,-82
10170,-72
10171,-66
10172,-63
10173,-61
10174,-57
10175,-53
10176,-52
10177,-56
10178,-61
10179,-70
10180,-79
10181,-84
10182,-82
10183,-79
10184,-71
10185,-58
10186,-48
10187,-42
10188,-39
10189,-39
10190,-38
10191,-35
10192,-33
10193,-29
10194,-27
10195,-27
10196,-29
10197,-34
10198,-44
10199,-44
10200,-44
10201,-44
10202,-41
10203,-35
10204,-32
10205,-32
10206,-34
10207,-38
10208,-43
10209,-49
10210,-51
10211,-48
10212,-44
10213,-44
10214,-44
10215,-43
10216,-46
10217,-49
10218,-49
10219,-47
10220,-46
10221,-41
10222,-36
10223,-31
10224,-28
10225,-27
10226,-26
10227,-24
10228,-23
10229,-24
10230,-26
10231,-31
10232,-38
10233,-38
10234,-34
10235,-27
10236,-18
10237,-11
10238,-6
10239,-7
10240,-13
10241,-23
10242,-32
10243,-39
10244,-41
10245,-39
10246,-30
10247,-23
10248,-15
10249,-8
10250,-5
10251,-4
10252,-1
10253,-1
10254,0
10255,1
10256,4
10257,6
10258,12
10259,18
10260,23
10261,25
10262,23
10263,18
10264,11
10265,-2
10266,-3
10267,-3
10268,-1
10269,1
10270,2
10271,-2
10272,-8
10273,-14
10274,-19
10275,-22
10276,-23
10277,-21
10278,-19
10279,-17
10280,-16
10281,-15
10282,-16
10283,-17
10284,-15
10285,-14
10286,-11
10287,-8
10288,-6
10289,-7
10290,-10
10291,-11
10292,-10
10293,-10
10294,-10
10295,-8
10296,-6
10297,-6
10298,-5
10299,-5
10300,-6
10301,-10
10302,-15
10303,-21
10304,-29
10305,-38
10306,-47
10307,-54
10308,-59
10309,-60
10310,-60
10311,-58
10312,-56
10313,-54
10314,-52
10315,-52
10316,-54
10317,-57
10318,-61
10319,-63
10320,-66
10321,-70
10322,-76
10323,-84
10324,-93
10325,-101
10326,-105
10327,-106
10328,-104
10329,-98
10330,-92
10331,-83
10332,-81
10333,-81
10334,-81
10335,-78
10336,-77
10337,-75
10338,-71
10339,-70
10340,-70
10341,-70
10342,-70
10343,-70
10344,-70
10345,-76
10346,-86
10347,-94
10348,-103
10349,-110
10350,-113
10351,-111
10352,-107
10353,-99
10354,-90
10355,-84
10356,-82
10357,-82
10358,-82
10359,-80
10360,-77
10361,-76
10362,-74
10363,-74
10364,-75
10365,-74
10366,-70
10367,-62
10368,-52
10369,-43
10370,-35
10371,-33
10372,-37
10373,-45
10374,-54
10375,-61
10376,-69
10377,-76
10378,-79
10379,-81
10380,-87
10381,-89
10382,-87
10383,-82
10384,-78
10385,-74
10386,-69
10387,-67
10388,-69
10389,-71
10390,-72
10391,-73
10392,-74
10393,-74
10394,-73
10395,-74
10396,-80
10397,-81
10398,-82
10399,-78
10400,-74
10401,-70
10402,-69
10403,-70
10404,-74
10405,-77
10406,-83
10407,-87
10408,-89
10409,-88
10410,-84
10411,-76
10412,-68
10413,-62
10414,-59
10415,-58
10416,-59
10417,-60
10418,-64
10419,-64
10420,-63
10421,-59
10422,-53
10423,-48
10424,-45
10425,-44
10426,-48
10427,-51
10428,-53
10429,-55
10430,-54
10431,-52
10432,-51
10433,-52
10434,-54
10435,-57
10436,-61
10437,-66
10438,-66
10439,-65
10440,-65
10441,-64
10442,-62
10443,-60
10444,-60
10445,-60
10446,-60
10447,-61
10448,-65
10449,-69
10450,-73
10451,-75
10452,-72
10453,-68
10454,-59
10455,-51
10456,-42
10457,-35
10458,-33
10459,-35
10460,-39
10461,-44
10462,-50
10463,-49
10464,-52
10465,-53
10466,-50
10467,-44
10468,-37
10469,-31
10470,-26
10471,-23
10472,-24
10473,-29
10474,-35
10475,-40
10476,-46
10477,-46
10478,-40
10479,-36
10480,-33
10481,-32
10482,-29
10483,-29
10484,-29
10485,-30
10486,-29
10487,-30
10488,-34
10489,-34
10490,-33
10491,-32
10492,-32
10493,-31
10494,-26
10495,-26
10496,-26
10497,-27
10498,-29
10499,-28
10500,-24
10501,-21
10502,-19
10503,-18
10504,-16
10505,-17
10506,-21
10507,-22
10508,-20
10509,-19
10510,-16
10511,-10
10512,-6
10513,-3
10514,-7
10515,-12
10516,-19
10517,-30
10518,-42
10519,-52
10520,-62
10521,-69
10522,-75
10523,-79
10524,-77
10525,-74
10526,-71
10527,-60
10528,-60
10529,-60
10530,-63
10531,-67
10532,-70
10533,-70
10534,-69
10535,-67
10536,-67
10537,-70
10538,-75
10539,-82
10540,-89
10541,-94
10542,-94
10543,-91
10544,-84
10545,-75
10546,-65
10547,-54
10548,-45
10549,-35
10550,-21
10551,-1
10552,22
10553,53
10554,92
10555,135
10556,176
10557,219
10558,260
10559,315
10560,317
10561,294
10562,249
10563,180
10564,96
10565,12
10566,-66
10567,-131
10568,-175
10569,-202
10570,-216
10571,-222
10572,-223
10573,-218
10574,-205
10575,-187
10576,-162
10577,-135
10578,-112
10579,-95
10580,-84
10581,-80
10582,-78
10583,-75
10584,-75
10585,-72
10586,-70
10587,-71
10588,-72
10589,-74
10590,-79
10591,-88
10592,-92
10593,-93
10594,-95
10595,-98
10596,-101
10597,-102
10598,-103
10599,-99
10600,-93
10601,-90
10602,-85
10603,-83
10604,-82
10605,-81
10606,-84
10607,-88
10608,-89
10609,-86
10610,-80
10611,-72
10612,-64
10613,-58
10614,-52
10615,-51
10616,-50
10617,-48
10618,-47
10619,-48
10620,-47
10621,-46
10622,-51
10623,-61
10624,-63
10625,-63
10626,-63
10627,-62
10628,-57
10629,-51
10630,-47
10631,-46
10632,-43
10633,-40
10634,-37
10635,-34
10636,-33
10637,-33
10638,-34
10639,-37
10640,-40
10641,-41
10642,-38
10643,-33
10644,-26
10645,-22
10646,-21
10647,-21
10648,-26
10649,-32
10650,-37
10651,-41
10652,-44
10653,-48
10654,-47
10655,-44
10656,-46
10657,-51
10658,-55
10659,-60
10660,-64
10661,-64
10662,-61
10663,-55
10664,-48
10665,-39
10666,-33
10667,-31
10668,-27
10669,-23
10670,-18
10671,-15
10672,-12
10673,-10
10674,-10
10675,-14
10676,-20
10677,-21
10678,-21
10679,-19
10680,-16
10681,-11
10682,-7
10683,-7
10684,-10
10685,-11
10686,-12
10687,-16
10688,-15
10689,-11
10690,-9
10691,-6
10692,-5
10693,-5
10694,-5
10695,-6
10696,-6
10697,-6
10698,-10
10699,-14
10700,-18
10701,-21
10702,-21
10703,-20
10704,-19
10705,-16
10706,-14
10707,-16
10708,-20
10709,-27
10710,-34
10711,-38
10712,-42
10713,-43
10714,-39
10715,-36
10716,-35
10717,-33
10718,-31
10719,-32
10720,-36
10721,-39
10722,-38
10723,-38
10724,-38
10725,-36
10726,-38
10727,-44
10728,-50
10729,-56
10730,-67
10731,-77
10732,-84
10733,-87
10734,-85
10735,-81
10736,-81
10737,-84
10738,-90
10739,-96
10740,-104
10741,-114
10742,-122
10743,-126
10744,-127
10745,-126
10746,-125
10747,-122
10748,-120
10749,-118
10750,-113
10751,-107
10752,-108
10753,-110
10754,-115
10755,-120
10756,-125
10757,-127
10758,-125
10759,-120
10760,-117
10761,-113
10762,-109
10763,-107
10764,-108
10765,-108
10766,-109
10767,-111
10768,-111
10769,-112
10770,-113
10771,-111
10772,-107
10773,-107
10774,-104
10775,-99
10776,-96
10777,-95
10778,-90
10779,-86
10780,-83
10781,-82
10782,-84
10783,-88
10784,-92
10785,-99
10786,-109
10787,-111
10788,-112
10789,-112
10790,-112
10791,-111
10792,-108
10793,-102
10794,-95
10795,-87
10796,-80
10797,-79
10798,-81
10799,-83
10800,-89
10801,-95
10802,-96
10803,-96
10804,-94
10805,-91
10806,-90
10807,-91
10808,-92
10809,-94
10810,-94
10811,-93
10812,-93
10813,-93
10814,-90
10815,-91
10816,-91
10817,-91
10818,-93
10819,-94
10820,-98
10821,-104
10822,-113
10823,-123
10824,-129
10825,-131
10826,-132
10827,-130
10828,-124
10829,-118
10830,-113
10831,-109
10832,-105
10833,-101
10834,-97
10835,-90
10836,-82
10837,-74
10838,-67
10839,-63
10840,-63
10841,-65
10842,-68
10843,-74
10844,-78
10845,-82
10846,-84
10847,-84
10848,-82
10849,-78
10850,-79
10851,-81
10852,-83
10853,-85
10854,-86
10855,-86
10856,-84
10857,-80
10858,-74
10859,-69
10860,-68
10861,-71
10862,-76
10863,-83
10864,-92
10865,-99
10866,-102
10867,-103
10868,-102
10869,-98
10870,-96
10871,-97
10872,-100
10873,-102
10874,-101
10875,-101
10876,-97
10877,-91
10878,-88
10879,-90
10880,-93
10881,-105
10882,-110
10883,-112
10884,-110
10885,-106
10886,-101
10887,-94
10888,-90
10889,-88
10890,-86
10891,-82
10892,-80
10893,-81
10894,-83
10895,-86
10896,-89
10897,-92
10898,-92
10899,-90
10900,-86
10901,-76
10902,-67
10903,-62
10904,-60
10905,-63
10906,-73
10907,-83
10908,-91
10909,-95
10910,-95
10911,-93
10912,-88
10913,-82
10914,-78
10915,-86
10916,-95
10917,-105
10918,-115
10919,-122
10920,-125
10921,-124
10922,-120
10923,-116
10924,-111
10925,-108
10926,-106
10927,-105
10928,-107
10929,-111
10930,-113
10931,-119
10932,-122
10933,-120
10934,-117
10935,-116
10936,-114
10937,-117
10938,-123
10939,-129
10940,-139
10941,-148
10942,-151
10943,-152
10944,-148
10945,-139
10946,-130
10947,-122
10948,-111
10949,-99
10950,-81
10951,-59
10952,-32
10953,0
10954,33
10955,70
10956,106
10957,138
10958,168
10959,194
10960,209
10961,207
10962,182
10963,133
10964,67
10965,-8
10966,-85
10967,-149
10968,-198
10969,-236
10970,-257
10971,-264
10972,-268
10973,-267
10974,-263
10975,-258
10976,-248
10977,-238
10978,-228
10979,-206
10980,-199
10981,-191
10982,-184
10983,-178
10984,-172
10985,-165
10986,-161
10987,-156
10988,-151
10989,-147
10990,-144
10991,-141
10992,-140
10993,-141
10994,-142
10995,-142
10996,-142
10997,-139
10998,-137
10999,-132
11000,-126
11001,-121
11002,-117
11003,-114
11004,-116
11005,-116
11006,-113
11007,-113
11008,-113
11009,-111
11010,-111
11011,-112
11012,-114
11013,-116
11014,-117
11015,-117
11016,-115
11017,-111
11018,-107
11019,-103
11020,-98
11021,-93
11022,-86
11023,-80
11024,-77
11025,-73
11026,-73
11027,-76
11028,-80
11029,-84
11030,-91
11031,-97
11032,-103
11033,-106
11034,-107
11035,-106
11036,-105
11037,-101
11038,-98
11039,-95
11040,-94
11041,-94
11042,-99
11043,-103
11044,-108
11045,-115
11046,-118
11047,-118
11048,-117
11049,-116
11050,-116
11051,-117
11052,-117
11053,-118
11054,-114
11055,-112
11056,-110
11057,-104
11058,-99
11059,-94
11060,-88
11061,-86
11062,-89
11063,-91
11064,-94
11065,-97
11066,-98
11067,-96
11068,-93
11069,-88
11070,-85
11071,-82
11072,-80
11073,-81
11074,-80
11075,-80
11076,-77
11077,-69
11078,-64
11079,-58
11080,-55
11081,-53
11082,-53
11083,-55
11084,-60
11085,-63
11086,-65
11087,-65
11088,-62
11089,-59
11090,-57
11091,-54
11092,-54
11093,-56
11094,-58
11095,-61
11096,-61
11097,-55
11098,-49
11099,-42
11100,-36
11101,-35
11102,-39
11103,-41
11104,-45
11105,-48
11106,-52
11107,-56
11108,-60
11109,-63
11110,-68
11111,-73
11112,-80
11113,-85
11114,-89
11115,-95
11116,-98
11117,-99
11118,-96
11119,-91
11120,-86
11121,-83
11122,-84
11123,-91
11124,-103
11125,-112
11126,-120
11127,-127
11128,-131
11129,-133
11130,-136
11131,-139
11132,-143
11133,-146
11134,-146
11135,-147
11136,-149
11137,-149
11138,-150
11139,-154
11140,-155
11141,-155
11142,-151
11143,-149
11144,-152
11145,-155
11146,-158
11147,-163
11148,-164
11149,-163
11150,-161
11151,-158
11152,-156
11153,-157
11154,-158
11155,-156
11156,-153
11157,-145
11158,-132
11159,-122
11160,-113
11161,-109
11162,-110
11163,-114
11164,-117
11165,-119
11166,-117
11167,-114
11168,-112
11169,-111
11170,-109
11171,-107
11172,-109
11173,-109
11174,-109
11175,-114
11176,-115
11177,-117
11178,-117
11179,-115
11180,-113
11181,-111
11182,-110
11183,-113
11184,-116
11185,-121
11186,-124
11187,-123
11188,-119
11189,-114
11190,-108
11191,-103
11192,-99
11193,-96
11194,-96
11195,-97
11196,-97
11197,-102
11198,-107
11199,-111
11200,-115
11201,-119
11202,-120
11203,-118
11204,-115
11205,-110
11206,-103
11207,-98
11208,-96
11209,-102
11210,-110
11211,-117
11212,-125
11213,-130
11214,-133
11215,-135
11216,-134
11217,-133
11218,-132
11219,-131
11220,-132
11221,-132
11222,-130
11223,-126
11224,-122
11225,-119
11226,-117
11227,-114
11228,-110
11229,-110
11230,-109
11231,-108
11232,-108
11233,-106
11234,-103
11235,-99
11236,-97
11237,-97
11238,-98
11239,-100
11240,-102
11241,-106
11242,-102
11243,-96
11244,-89
11245,-82
11246,-80
11247,-81
11248,-89
11249,-99
11250,-107
11251,-115
11252,-119
11253,-119
11254,-116
11255,-115
11256,-117
11257,-118
11258,-117
11259,-116
11260,-112
11261,-108
11262,-104
11263,-101
11264,-101
11265,-105
11266,-110
11267,-115
11268,-118
11269,-119
11270,-114
11271,-107
11272,-101
11273,-96
11274,-89
11275,-75
11276,-69
11277,-63
11278,-57
11279,-51
11280,-47
11281,-42
11282,-37
11283,-34
11284,-32
11285,-25
11286,-20
11287,-15
11288,-11
11289,-8
11290,-5
11291,-2
11292,-2
11293,-3
11294,-5
11295,-12
11296,-19
11297,-26
11298,-33
11299,-40
11300,-44
11301,-47
11302,-51
11303,-55
11304,-62
11305,-69
11306,-75
11307,-80
11308,-79
11309,-76
11310,-72
11311,-66
11312,-59
11313,-56
11314,-53
11315,-53
11316,-53
11317,-56
11318,-58
11319,-55
11320,-53
11321,-50
11322,-47
11323,-46
11324,-48
11325,-51
11326,-52
11327,-54
11328,-54
11329,-51
11330,-46
11331,-36
11332,-22
11333,-7
11334,13
11335,40
11336,72
11337,72
11338,107
11339,143
11340,177
11341,213
11342,247
11343,305
11344,318
11345,311
11346,282
11347,231
11348,161
11349,78
11350,-3
11351,-76
11352,-133
11353,-174
11354,-199
11355,-207
11356,-206
11357,-198
11358,-182
11359,-162
11360,-141
11361,-118
11362,-98
11363,-83
11364,-72
11365,-64
11366,-61
11367,-61
11368,-63
11369,-67
11370,-72
11371,-77
11372,-78
11373,-76
11374,-71
11375,-66
11376,-53
11377,-47
11378,-47
11379,-51
11380,-55
11381,-62
11382,-69
11383,-75
11384,-80
11385,-82
11386,-84
11387,-84
11388,-81
11389,-78
11390,-77
11391,-76
11392,-73
11393,-72
11394,-71
11395,-72
11396,-73
11397,-74
11398,-73
11399,-68
11400,-59
11401,-53
11402,-49
11403,-46
11404,-47
11405,-50
11406,-53
11407,-53
11408,-49
11409,-45
11410,-41
11411,-42
11412,-43
11413,-45
11414,-46
11415,-45
11416,-43
11417,-39
11418,-36
11419,-36
11420,-38
11421,-43
11422,-49
11423,-56
11424,-62
11425,-67
11426,-68
11427,-65
11428,-60
11429,-51
11430,-44
11431,-41
11432,-38
11433,-36
11434,-37
11435,-39
11436,-44
11437,-47
11438,-49
11439,-51
11440,-55
11441,-55
11442,-53
11443,-49
11444,-44
11445,-40
11446,-39
11447,-41
11448,-43
11449,-44
11450,-40
11451,-33
11452,-22
11453,-9
11454,4
11455,12
11456,17
11457,20
11458,22
11459,22
11460,23
11461,22
11462,24
11463,25
11464,22
11465,19
11466,19
11467,19
11468,21
11469,23
11470,27
11471,31
11472,33
11473,34
11474,36
11475,36
11476,37
11477,39
11478,42
11479,42
11480,43
11481,42
11482,40
11483,38
11484,35
11485,35
11486,36
11487,37
11488,38
11489,34
11490,27
11491,20
11492,10
11493,1
11494,-4
11495,-9
11496,-12
11497,-17
11498,-24
11499,-33
11500,-41
11501,-49
11502,-56
11503,-61
11504,-63
11505,-64
11506,-67
11507,-69
11508,-74
11509,-79
11510,-87
11511,-92
11512,-95
11513,-99
11514,-102
11515,-100
11516,-100
11517,-100
11518,-98
11519,-95
11520,-94
11521,-96
11522,-100
11523,-104
11524,-108
11525,-112
11526,-117
11527,-119
11528,-117
11529,-116
11530,-113
11531,-108
11532,-106
11533,-106
11534,-101
11535,-99
11536,-97
11537,-92
11538,-90
11539,-84
11540,-82
11541,-78
11542,-76
11543,-76
11544,-76
11545,-73
11546,-68
11547,-62
11548,-56
11549,-50
11550,-47
11551,-45
11552,-46
11553,-49
11554,-56
11555,-65
11556,-76
11557,-90
11558,-99
11559,-105
11560,-112
11561,-111
11562,-104
11563,-98
11564,-92
11565,-90
11566,-90
11567,-93
11568,-96
11569,-97
11570,-95
11571,-91
11572,-87
11573,-80
11574,-78
11575,-79
11576,-79
11577,-79
11578,-77
11579,-74
11580,-71
11581,-69
11582,-66
11583,-65
11584,-67
11585,-69
11586,-73
11587,-78
11588,-81
11589,-79
11590,-77
11591,-75
11592,-72
11593,-72
11594,-72
11595,-76
11596,-80
11597,-85
11598,-88
11599,-90
11600,-91
11601,-91
11602,-91
11603,-92
11604,-91
11605,-90
11606,-83
11607,-80
11608,-78
11609,-75
11610,-72
11611,-70
11612,-67
11613,-61
11614,-56
11615,-50
11616,-45
11617,-40
11618,-37
11619,-36
11620,-36
11621,-36
11622,-37
11623,-39
11624,-42
11625,-45
11626,-48
11627,-48
11628,-51
11629,-52
11630,-56
11631,-61
11632,-65
11633,-68
11634,-70
11635,-70
11636,-69
11637,-67
11638,-65
11639,-61
11640,-59
11641,-56
11642,-53
11643,-50
11644,-48
11645,-46
11646,-44
11647,-41
11648,-38
11649,-36
11650,-34
11651,-34
11652,-35
11653,-36
11654,-37
11655,-38
11656,-37
11657,-37
11658,-38
11659,-37
11660,-36
11661,-34
11662,-27
11663,-21
11664,-18
11665,-15
11666,-16
11667,-20
11668,-24
11669,-28
11670,-30
11671,-31
11672,-31
11673,-31
11674,-32
11675,-34
11676,-34
11677,-32
11678,-29
11679,-23
11680,-19
11681,-17
11682,-17
11683,-17
11684,-16
11685,-17
11686,-17
11687,-18
11688,-22
11689,-26
11690,-29
11691,-32
11692,-34
11693,-37
11694,-40
11695,-46
11696,-53
11697,-62
11698,-73
11699,-83
11700,-92
11701,-99
11702,-101
11703,-91
11704,-85
11705,-79
11706,-76
11707,-75
11708,-75
11709,-75
11710,-77
11711,-76
11712,-69
11713,-60
11714,-50
11715,-41
11716,-36
11717,-36
11718,-39
11719,-44
11720,-51
11721,-57
11722,-66
11723,-74
11724,-78
11725,-81
11726,-82
11727,-76
11728,-66
11729,-54
11730,-37
11731,-15
11732,9
11733,38
11734,70
11735,107
11736,180
11737,213
11738,246
11739,275
11740,292
11741,294
11742,275
11743,233
11744,168
11745,88
11746,2
11747,-77
11748,-147
11749,-200
11750,-230
11751,-240
11752,-239
11753,-231
11754,-217
11755,-201
11756,-183
11757,-166
11758,-148
11759,-132
11760,-117
11761,-103
11762,-89
11763,-89
11764,-81
11765,-73
11766,-70
11767,-71
11768,-72
11769,-72
11770,-66
11771,-62
11772,-57
11773,-53
11774,-52
11775,-55
11776,-60
11777,-66
11778,-74
11779,-82
11780,-86
11781,-88
11782,-90
11783,-92
11784,-92
11785,-91
11786,-89
11787,-84
11788,-80
11789,-76
11790,-73
11791,-71
11792,-71
11793,-72
11794,-73
11795,-73
11796,-72
11797,-71
11798,-69
11799,-65
11800,-63
11801,-61
11802,-55
11803,-53
11804,-53
11805,-56
11806,-58
11807,-59
11808,-59
11809,-54
11810,-48
11811,-41
11812,-32
11813,-27
11814,-26
11815,-25
11816,-26
11817,-27
11818,-27
11819,-28
11820,-27
11821,-25
11822,-25
11823,-27
11824,-30
11825,-35
11826,-40
11827,-41
11828,-41
11829,-40
11830,-38
11831,-36
11832,-32
11833,-28
11834,-19
11835,-15
11836,-12
11837,-10
11838,-10
11839,-16
11840,-23
11841,-27
11842,-28
11843,-27
11844,-22
11845,-18
11846,-14
11847,-10
11848,-5
11849,-1
11850,3
11851,7
11852,11
11853,15
11854,16
11855,12
11856,7
11857,2
11858,0
11859,1
11860,4
11861,6
11862,10
11863,15
11864,19
11865,23
11866,26
11867,29
11868,30
11869,29
11870,27
11871,28
11872,28
11873,28
11874,33
11875,38
11876,40
11877,41
11878,39
11879,33
11880,26
11881,17
11882,7
11883,5
11884,5
11885,5
11886,10
11887,14
11888,15
11889,12
11890,8
11891,2
11892,-1
11893,-4
11894,-5
11895,-4
11896,-4
11897,-5
11898,-4
11899,-3
11900,-5
11901,-8
11902,-12
11903,-15
11904,-23
11905,-33
11906,-33
11907,-41
11908,-46
11909,-47
11910,-47
11911,-47
11912,-51
11913,-55
11914,-61
11915,-68
11916,-76
11917,-81
11918,-83
11919,-81
11920,-80
11921,-80
11922,-79
11923,-78
11924,-76
11925,-74
11926,-72
11927,-69
11928,-67
11929,-65
11930,-62
11931,-62
11932,-63
11933,-65
11934,-64
11935,-65
11936,-68
11937,-68
11938,-63
11939,-61
11940,-59
11941,-55
11942,-53
11943,-53
11944,-51
11945,-50
11946,-51
11947,-55
11948,-58
11949,-60
11950,-60
11951,-62
11952,-60
11953,-57
11954,-56
11955,-53
11956,-46
11957,-41
11958,-39
11959,-38
11960,-38
11961,-38
11962,-39
11963,-39
11964,-38
11965,-40
11966,-44
11967,-43
11968,-43
11969,-44
11970,-45
11971,-45
11972,-43
11973,-44
11974,-47
11975,-50
11976,-55
11977,-61
11978,-64
11979,-66
11980,-69
11981,-72
11982,-75
11983,-75
11984,-72
11985,-72
11986,-70
11987,-67
11988,-66
11989,-66
11990,-66
11991,-66
11992,-66
11993,-68
11994,-69
11995,-66
11996,-64
11997,-62
11998,-59
11999,-62
12000,-68
12001,-73
12002,-78
12003,-81
12004,-81
12005,-75
12006,-70
12007,-63
12008,-58
12009,-56
12010,-60
12011,-67
12012,-74
12013,-78
12014,-81
12015,-81
12016,-78
12017,-75
12018,-74
12019,-73
12020,-74
12021,-79
12022,-82
12023,-80
12024,-77
12025,-73
12026,-68
12027,-64
12028,-59
12029,-58
12030,-60
12031,-67
12032,-75
12033,-81
12034,-85
12035,-91
12036,-97
12037,-99
12038,-100
12039,-100
12040,-100
12041,-100
12042,-100
12043,-99
12044,-101
12045,-101
12046,-102
12047,-104
12048,-104
12049,-105
12050,-104
12051,-100
12052,-96
12053,-93
12054,-90
12055,-88
12056,-86
12057,-84
12058,-84
12059,-83
12060,-79
12061,-73
12062,-66
12063,-58
12064,-51
12065,-47
12066,-47
12067,-48
12068,-48
12069,-48
12070,-49
12071,-49
12072,-47
12073,-46
12074,-47
12075,-48
12076,-50
12077,-53
12078,-55
12079,-56
12080,-61
12081,-67
12082,-71
12083,-73
12084,-74
12085,-71
12086,-68
12087,-65
12088,-60
12089,-56
12090,-54
12091,-53
12092,-53
12093,-53
12094,-48
12095,-44
12096,-40
12097,-36
12098,-41
12099,-47
12100,-56
12101,-68
12102,-80
12103,-87
12104,-92
12105,-96
12106,-92
12107,-86
12108,-80
12109,-70
12110,-63
12111,-58
12112,-55
12113,-57
12114,-59
12115,-61
12116,-63
12117,-66
12118,-66
12119,-67
12120,-70
12121,-69
12122,-69
12123,-71
12124,-70
12125,-70
12126,-73
12127,-75
12128,-78
12129,-83
12130,-84
12131,-77
12132,-69
12133,-61
12134,-53
12135,-40
12136,-23
12137,-3
12138,22
12139,48
12140,71
12141,98
12142,129
12143,157
12144,188
12145,219
12146,248
12147,270
12148,275
12149,258
12150,217
12151,155
12152,79
12153,1
12154,-70
12155,-135
12156,-185
12157,-218
12158,-238
12159,-247
12160,-247
12161,-240
12162,-225
12163,-185
12164,-165
12165,-146
12166,-132
12167,-121
12168,-110
12169,-101
12170,-92
12171,-85
12172,-81
12173,-76
12174,-74
12175,-73
12176,-72
12177,-72
12178,-72
12179,-73
12180,-76
12181,-85
12182,-95
12183,-105
12184,-115
12185,-118
12186,-115
12187,-109
12188,-100
12189,-91
12190,-91
12191,-83
12192,-77
12193,-74
12194,-75
12195,-74
12196,-72
12197,-74
12198,-78
12199,-86
12200,-95
12201,-104
12202,-105
12203,-101
12204,-94
12205,-86
12206,-78
12207,-73
12208,-69
12209,-68
12210,-68
12211,-70
12212,-71
12213,-72
12214,-70
12215,-70
12216,-71
12217,-70
12218,-69
12219,-67
12220,-62
12221,-60
12222,-60
12223,-58
12224,-57
12225,-56
12226,-58
12227,-63
12228,-67
12229,-71
12230,-72
12231,-64
12232,-57
12233,-53
12234,-49
12235,-47
12236,-46
12237,-44
12238,-43
12239,-40
12240,-37
12241,-35
12242,-32
12243,-31
12244,-29
12245,-25
12246,-20
12247,-15
12248,-10
12249,-8
12250,-11
12251,-19
12252,-29
12253,-37
12254,-44
12255,-50
12256,-50
12257,-45
12258,-39
12259,-32
12260,-24
12261,-15
12262,-8
12263,1
12264,3
12265,3
12266,4
12267,7
12268,9
12269,11
12270,12
12271,12
12272,13
12273,15
12274,14
12275,16
12276,19
12277,21
12278,22
12279,23
12280,19
12281,16
12282,14
12283,13
12284,17
12285,22
12286,25
12287,30
12288,32
12289,28
12290,21
12291,16
12292,10
12293,6
12294,4
12295,0
12296,-4
12297,-8
12298,-12
12299,-15
12300,-20
12301,-26
12302,-31
12303,-37
12304,-46
12305,-54
12306,-63
12307,-68
12308,-70
12309,-70
12310,-67
12311,-64
12312,-62
12313,-62
12314,-63
12315,-66
12316,-70
12317,-73
12318,-75
12319,-77
12320,-75
12321,-76
12322,-76
12323,-76
12324,-79
12325,-82
12326,-85
12327,-87
12328,-88
12329,-86
12330,-84
12331,-80
12332,-80
12333,-76
12334,-75
12335,-76
12336,-76
12337,-77
12338,-81
12339,-85
12340,-88
12341,-91
12342,-96
12343,-99
12344,-100
12345,-102
12346,-101
12347,-99
12348,-96
12349,-91
12350,-86
12351,-83
12352,-82
12353,-83
12354,-86
12355,-86
12356,-87
12357,-88
12358,-87
12359,-86
12360,-85
12361,-81
12362,-74
12363,-71
12364,-68
12365,-67
12366,-67
12367,-68
12368,-68
12369,-67
12370,-67
12371,-69
12372,-72
12373,-74
12374,-78
12375,-80
12376,-80
12377,-81
12378,-79
12379,-73
12380,-71
12381,-69
12382,-68
12383,-70
12384,-73
12385,-74
12386,-78
12387,-79
12388,-80
12389,-81
12390,-77
12391,-73
12392,-71
12393,-70
12394,-69
12395,-77
12396,-82
12397,-86
12398,-86
12399,-86
12400,-85
12401,-84
12402,-84
12403,-86
12404,-87
12405,-90
12406,-93
12407,-92
12408,-88
12409,-83
12410,-74
12411,-67
12412,-63
12413,-59
12414,-57
12415,-58
12416,-60
12417,-64
12418,-68
12419,-70
12420,-72
12421,-71
12422,-68
12423,-67
12424,-68
12425,-68
12426,-68
12427,-71
12428,-71
12429,-68
12430,-63
12431,-58
12432,-56
12433,-52
12434,-51
12435,-53
12436,-53
12437,-53
12438,-54
12439,-55
12440,-54
12441,-55
12442,-55
12443,-58
12444,-62
12445,-66
12446,-68
12447,-71
12448,-71
12449,-68
12450,-63
12451,-60
12452,-54
12453,-48
12454,-46
12455,-46
12456,-46
12457,-45
12458,-44
12459,-46
12460,-47
12461,-44
12462,-45
12463,-44
12464,-43
12465,-47
12466,-49
12467,-49
12468,-49
12469,-51
12470,-54
12471,-57
12472,-60
12473,-64
12474,-68
12475,-68
12476,-70
12477,-66
12478,-61
12479,-57
12480,-55
12481,-54
12482,-56
12483,-57
12484,-59
12485,-59
12486,-56
12487,-50
12488,-43
12489,-36
12490,-33
12491,-33
12492,-34
12493,-37
12494,-41
12495,-49
12496,-50
12497,-49
12498,-45
12499,-43
12500,-43
12501,-42
12502,-41
12503,-40
12504,-39
12505,-38
12506,-35
12507,-32
12508,-26
12509,-20
12510,-15
12511,-12
12512,-8
12513,-6
12514,-7
12515,-10
12516,-17
12517,-24
12518,-31
12519,-37
12520,-44
12521,-50
12522,-58
12523,-63
12524,-67
12525,-71
12526,-74
12527,-74
12528,-73
12529,-69
12530,-66
12531,-68
12532,-72
12533,-77
12534,-80
12535,-80
12536,-80
12537,-80
12538,-79
12539,-76
12540,-74
12541,-76
12542,-82
12543,-87
12544,-92
12545,-95
12546,-96
12547,-94
12548,-93
12549,-91
12550,-89
12551,-85
12552,-79
12553,-73
12554,-65
12555,-53
12556,-39
12557,-22
12558,-3
12559,16
12560,41
12561,71
12562,109
12563,149
12564,232
12565,265
12566,281
12567,279
12568,252
12569,202
12570,133
12571,52
12572,-28
12573,-102
12574,-164
12575,-207
12576,-232
12577,-245
12578,-246
12579,-241
12580,-233
12581,-224
12582,-212
12583,-200
12584,-187
12585,-172
12586,-157
12587,-141
12588,-128
12589,-119
12590,-112
12591,-106
12592,-104
12593,-104
12594,-102
12595,-102
12596,-100
12597,-95
12598,-94
12599,-94
12600,-95
12601,-92
12602,-90
12603,-85
12604,-78
12605,-74
12606,-72
12607,-71
12608,-72
12609,-76
12610,-83
12611,-90
12612,-92
12613,-92
12614,-92
12615,-91
12616,-91
12617,-91
12618,-92
12619,-94
12620,-94
12621,-89
12622,-85
12623,-83
12624,-79
12625,-77
12626,-79
12627,-84
12628,-89
12629,-94
12630,-94
12631,-92
12632,-77
12633,-70
12634,-64
12635,-57
12636,-55
12637,-56
12638,-58
12639,-64
12640,-72
12641,-82
12642,-90
12643,-93
12644,-92
12645,-86
12646,-73
12647,-58
12648,-46
12649,-40
12650,-36
12651,-36
12652,-39
12653,-44
12654,-44
12655,-41
12656,-38
12657,-33
12658,-27
12659,-22
12660,-18
12661,-15
12662,-12
12663,-9
12664,-7
12665,-4
12666,-8
12667,-16
12668,-28
12669,-38
12670,-44
12671,-49
12672,-50
12673,-48
12674,-42
12675,-37
12676,-32
12677,-26
12678,-23
12679,-20
12680,-16
12681,-12
12682,-8
12683,-5
12684,-1
12685,2
12686,7
12687,10
12688,10
12689,8
12690,3
12691,-3
12692,-8
12693,-9
12694,-5
12695,1
12696,9
12697,15
12698,20
12699,20
12700,16
12701,12
12702,8
12703,7
12704,8
12705,9
12706,9
12707,9
12708,7
12709,4
12710,4
12711,0
12712,-4
12713,-10
12714,-15
12715,-20
12716,-23
12717,-23
12718,-22
12719,-20
12720,-18
12721,-18
12722,-20
12723,-25
12724,-32
12725,-39
12726,-43
12727,-48
12728,-52
12729,-55
12730,-58
12731,-60
12732,-59
12733,-65
12734,-69
12735,-75
12736,-82
12737,-89
12738,-98
12739,-106
12740,-110
12741,-113
12742,-112
12743,-110
12744,-108
12745,-106
12746,-104
12747,-105
12748,-104
12749,-104
12750,-105
12751,-106
12752,-106
12753,-105
12754,-104
12755,-103
12756,-104
12757,-104
12758,-103
12759,-103
12760,-103
12761,-103
12762,-105
12763,-109
12764,-112
12765,-116
12766,-120
12767,-122
12768,-124
12769,-124
12770,-124
12771,-121
12772,-119
12773,-118
12774,-116
12775,-116
12776,-117
12777,-114
12778,-109
12779,-103
12780,-94
12781,-86
12782,-82
12783,-79
12784,-79
12785,-81
12786,-84
12787,-87
12788,-92
12789,-93
12790,-94
12791,-94
12792,-93
12793,-92
12794,-90
12795,-88
12796,-85
12797,-80
12798,-76
12799,-72
12800,-71
12801,-74
12802,-78
12803,-81
12804,-84
12805,-85
12806,-85
12807,-82
12808,-77
12809,-73
12810,-73
12811,-76
12812,-78
12813,-80
12814,-79
12815,-77
12816,-75
12817,-74
12818,-73
12819,-72
12820,-70
12821,-71
12822,-75
12823,-81
12824,-85
12825,-87
12826,-88
12827,-86
12828,-83
12829,-78
12830,-72
12831,-67
12832,-65
12833,-65
12834,-68
12835,-74
12836,-73
12837,-72
12838,-68
12839,-63
12840,-59
12841,-56
12842,-55
12843,-54
12844,-53
12845,-55
12846,-59
12847,-63
12848,-68
12849,-71
12850,-74
12851,-76
12852,-76
12853,-73
12854,-70
12855,-66
12856,-61
12857,-60
12858,-61
12859,-62
12860,-64
12861,-63
12862,-62
12863,-62
12864,-62
12865,-59
12866,-58
12867,-57
12868,-46
12869,-42
12870,-39
12871,-39
12872,-44
12873,-53
12874,-64
12875,-73
12876,-79
12877,-80
12878,-77
12879,-71
12880,-64
12881,-59
12882,-56
12883,-55
12884,-55
12885,-56
12886,-57
12887,-59
12888,-63
12889,-64
12890,-64
12891,-65
12892,-64
12893,-62
12894,-57
12895,-51
12896,-43
12897,-37
12898,-32
12899,-30
12900,-33
12901,-37
12902,-37
12903,-45
12904,-51
12905,-54
12906,-58
12907,-65
12908,-72
12909,-79
12910,-84
12911,-86
12912,-85
12913,-83
12914,-80
12915,-80
12916,-86
12917,-94
12918,-103
12919,-110
12920,-111
12921,-110
12922,-101
12923,-87
12924,-75
12925,-70
12926,-66
12927,-65
12928,-64
12929,-63
12930,-60
12931,-56
12932,-54
12933,-56
12934,-60
12935,-65
12936,-72
12937,-69
12938,-62
12939,-53
12940,-42
12941,-28
12942,-15
12943,-1
12944,18
12945,39
12946,65
12947,96
12948,129
12949,163
12950,198
12951,230
12952,259
12953,277
12954,273
12955,245
12956,195
12957,127
12958,52
12959,-22
12960,-87
12961,-142
12962,-183
12963,-206
12964,-217
12965,-221
12966,-219
12967,-210
12968,-194
12969,-175
12970,-132
12971,-115
12972,-100
12973,-88
12974,-78
12975,-71
12976,-67
12977,-62
12978,-56
12979,-50
12980,-42
12981,-34
12982,-29
12983,-30
12984,-35
12985,-48
12986,-64
12987,-76
12988,-85
12989,-88
12990,-85
12991,-79
12992,-71
12993,-62
12994,-55
12995,-50
12996,-46
12997,-46
12998,-47
12999,-49
13000,-51
13001,-52
13002,-51
13003,-51
13004,-45
13005,-42
13006,-39
13007,-38
13008,-37
13009,-37
13010,-38
13011,-37
13012,-37
13013,-36
13014,-37
13015,-36
13016,-36
13017,-41
13018,-44
13019,-47
13020,-49
13021,-50
