,ECG
0,34112
1,34112
2,34112
3,34048
4,33984
5,33920
6,33856
7,33856
8,33856
9,33856
10,33920
11,33920
12,33856
13,33792
14,33728
15,33664
16,33600
17,33472
18,33408
19,33408
20,33408
21,33280
22,33216
23,33216
24,33216
25,33216
26,33216
27,33280
28,33280
29,33280
30,33280
31,33280
32,33344
33,33344
34,33344
35,33408
36,33472
37,33472
38,33536
39,33600
40,33664
41,33664
42,33664
43,33600
44,33600
45,33536
46,33536
47,33536
48,33536
49,33536
50,33536
51,33472
52,33472
53,33536
54,33536
55,33536
56,33536
57,33536
58,33536
59,33536
60,33536
61,33600
62,33600
63,33472
64,33408
65,33408
66,33408
67,33408
68,33408
69,33472
70,33472
71,33408
72,33408
73,33408
74,33472
75,33600
76,33664
77,33600
78,33536
79,33472
80,33344
81,33344
82,33472
83,33536
84,33472
85,33472
86,33408
87,33344
88,33408
89,33472
90,33664
91,33728
92,33664
93,33664
94,33664
95,33600
96,33536
97,33536
98,33536
99,33536
100,33536
101,33472
102,33536
103,33600
104,33600
105,33536
106,33472
107,33472
108,33472
109,33472
110,33536
111,33536
112,33600
113,33600
114,33600
115,33600
116,33600
117,33536
118,33536
119,33536
120,33600
121,33600
122,33600
123,33600
124,33600
125,33536
126,33536
127,33536
128,33536
129,33536
130,33536
131,33600
132,33664
133,33664
134,33792
135,33920
136,33984
137,33920
138,33920
139,33920
140,33920
141,33856
142,33728
143,33728
144,33728
145,33792
146,33792
147,33792
148,33728
149,33664
150,33600
151,33536
152,33536
153,33600
154,33600
155,33600
156,33536
157,33472
158,33344
159,33344
160,33344
161,33408
162,33472
163,33536
164,33472
165,33472
166,33408
167,33344
168,33344
169,33408
170,33472
171,33536
172,33536
173,33600
174,33792
175,34240
176,34880
177,36032
178,37568
179,39424
180,41408
181,43136
182,43648
183,42432
184,40000
185,36736
186,33344
187,30336
188,28288
189,27264
190,27328
191,28096
192,29120
193,30208
194,31360
195,32384
196,33216
197,33856
198,34176
199,34432
200,34560
201,34560
202,34560
203,34496
204,34432
205,34304
206,34240
207,34176
208,34112
209,33920
210,33792
211,33728
212,33728
213,33728
214,33792
215,33792
216,33792
217,33856
218,33856
219,33920
220,33920
221,33984
222,33984
223,34048
224,34112
225,34112
226,34048
227,33984
228,33920
229,33856
230,33920
231,33856
232,33856
233,33920
234,33920
235,33984
236,34048
237,34048
238,34048
239,33984
240,34048
241,34048
242,33920
243,33856
244,33856
245,33792
246,33728
247,33664
248,33664
249,33664
250,33600
251,33472
252,33408
253,33344
254,33280
255,33280
256,33344
257,33408
258,33408
259,33472
260,33472
261,33408
262,33344
263,33280
264,33280
265,33280
266,33344
267,33408
268,33344
269,33344
270,33408
271,33536
272,33664
273,33728
274,33728
275,33664
276,33472
277,33408
278,33472
279,33472
280,33472
281,33472
282,33600
283,33728
284,33664
285,33728
286,33728
287,33728
288,33664
289,33664
290,33600
291,33472
292,33408
293,33280
294,33216
295,33280
296,33344
297,33344
298,33408
299,33472
300,33536
301,33600
302,33600
303,33664
304,33664
305,33600
306,33536
307,33600
308,33600
309,33472
310,33408
311,33344
312,33344
313,33344
314,33344
315,33344
316,33344
317,33216
318,33216
319,33280
320,33344
321,33408
322,33408
323,33408
324,33536
325,33600
326,33664
327,33664
328,33664
329,33664
330,33664
331,33664
332,33664
333,33664
334,33600
335,33472
336,33408
337,33344
338,33280
339,33280
340,33344
341,33408
342,33408
343,33472
344,33600
345,33600
346,33600
347,33600
348,33600
349,33728
350,33728
351,33728
352,33728
353,33728
354,33728
355,33728
356,33728
357,33728
358,33664
359,33600
360,33600
361,33600
362,33664
363,33664
364,33792
365,33856
366,33920
367,33984
368,33920
369,33920
370,33920
371,33856
372,33792
373,33792
374,33792
375,33792
376,33792
377,33792
378,33728
379,33536
380,33344
381,33216
382,33216
383,33280
384,33280
385,33344
386,33408
387,33536
388,33536
389,33536
390,33536
391,33600
392,33664
393,33792
394,33856
395,33792
396,33728
397,33536
398,33472
399,33536
400,33856
401,34560
402,35840
403,39424
404,41408
405,43072
406,43456
407,42432
408,40192
409,37120
410,33728
411,30656
412,28480
413,27328
414,27200
415,27904
416,28992
417,30144
418,31232
419,32256
420,33152
421,33728
422,34176
423,34432
424,34624
425,34560
426,34624
427,34560
428,34368
429,34240
430,34112
431,34112
432,34112
433,33984
434,33920
435,33920
436,33920
437,33920
438,33792
439,33728
440,33728
441,33728
442,33792
443,33792
444,33792
445,33920
446,34112
447,34048
448,34048
449,34048
450,34048
451,33984
452,33984
453,33920
454,33856
455,33856
456,33856
457,33792
458,33792
459,33856
460,33920
461,33984
462,34048
463,34048
464,33984
465,33920
466,33920
467,33856
468,33920
469,33920
470,33920
471,33856
472,33792
473,33728
474,33600
475,33408
476,33280
477,33280
478,33344
479,33344
480,33280
481,33344
482,33344
483,33344
484,33408
485,33408
486,33472
487,33536
488,33536
489,33600
490,33664
491,33664
492,33600
493,33600
494,33600
495,33600
496,33536
497,33536
498,33600
499,33600
500,33600
501,33600
502,33600
503,33600
504,33600
505,33600
506,33664
507,33728
508,33664
509,33664
510,33664
511,33664
512,33600
513,33536
514,33472
515,33472
516,33408
517,33408
518,33408
519,33536
520,33600
521,33600
522,33600
523,33664
524,33664
525,33600
526,33472
527,33472
528,33472
529,33408
530,33344
531,33408
532,33344
533,33344
534,33344
535,33408
536,33472
537,33536
538,33600
539,33600
540,33600
541,33536
542,33536
543,33536
544,33600
545,33600
546,33600
547,33600
548,33600
549,33600
550,33600
551,33536
552,33536
553,33472
554,33472
555,33472
556,33472
557,33472
558,33408
559,33472
560,33472
561,33536
562,33600
563,33600
564,33600
565,33600
566,33600
567,33600
568,33600
569,33600
570,33664
571,33728
572,33792
573,33856
574,33856
575,33856
576,33792
577,33728
578,33728
579,33792
580,33792
581,33792
582,33856
583,33856
584,33792
585,33728
586,33664
587,33664
588,33664
589,33728
590,33728
591,33664
592,33600
593,33408
594,33344
595,33216
596,33088
597,33088
598,33152
599,33216
600,33280
601,33408
602,33408
603,33472
604,33536
605,33536
606,33664
607,33728
608,33792
609,33728
610,33664
611,33856
612,34240
613,34944
614,35968
615,37376
616,39104
617,40960
618,42816
619,43520
620,42560
621,40192
622,37056
623,33536
624,30464
625,28416
626,27392
627,27392
628,28160
629,29248
630,30336
631,31552
632,32576
633,33344
634,33664
635,33856
636,34048
637,34176
638,34304
639,34304
640,34304
641,34304
642,34176
643,34112
644,34112
645,34112
646,34048
647,33984
648,33920
649,33920
650,33856
651,33792
652,33792
653,33792
654,33792
655,33792
656,33792
657,33792
658,33856
659,33856
660,33920
661,34048
662,34112
663,34112
664,34112
665,34240
666,34240
667,34176
668,34176
669,34176
670,34112
671,34112
672,33984
673,33920
674,33920
675,33856
676,33792
677,33792
678,33856
679,33856
680,33856
681,33856
682,33920
683,33856
684,33792
685,33728
686,33728
687,33664
688,33600
689,33472
690,33344
691,33216
692,33152
693,33088
694,33088
695,33088
696,33216
697,33216
698,33280
699,33344
700,33344
701,33344
702,33344
703,33344
704,33408
705,33408
706,33472
707,33472
708,33472
709,33536
710,33536
711,33600
712,33664
713,33664
714,33664
715,33600
716,33536
717,33536
718,33536
719,33536
720,33536
721,33536
722,33536
723,33536
724,33536
725,33472
726,33472
727,33472
728,33536
729,33600
730,33536
731,33408
732,33344
733,33344
734,33408
735,33408
736,33408
737,33472
738,33472
739,33472
740,33408
741,33408
742,33472
743,33472
744,33472
745,33472
746,33408
747,33408
748,33408
749,33408
750,33408
751,33472
752,33472
753,33472
754,33472
755,33472
756,33536
757,33536
758,33536
759,33536
760,33472
761,33472
762,33408
763,33408
764,33408
765,33408
766,33472
767,33472
768,33472
769,33536
770,33536
771,33472
772,33472
773,33472
774,33472
775,33472
776,33536
777,33472
778,33472
779,33536
780,33536
781,33600
782,33664
783,33664
784,33536
785,33472
786,33472
787,33536
788,33536
789,33472
790,33536
791,33536
792,33600
793,33600
794,33600
795,33600
796,33600
797,33600
798,33664
799,33600
800,33600
801,33600
802,33664
803,33728
804,33792
805,33792
806,33792
807,33856
808,33856
809,33728
810,33728
811,33856
812,33856
813,33728
814,33664
815,33600
816,33664
817,33728
818,33728
819,33856
820,33920
821,33984
822,33920
823,33856
824,33792
825,33792
826,33728
827,33728
828,33920
829,34048
830,34112
831,33984
832,33664
833,33280
834,33024
835,32896
836,32960
837,33152
838,33280
839,33344
840,33408
841,33472
842,33536
843,33536
844,33600
845,33664
846,33664
847,33664
848,33664
849,33728
850,33920
851,34304
852,34944
853,36160
854,37760
855,39680
856,41728
857,43456
858,43712
859,42304
860,39616
861,36352
862,32896
863,29952
864,28032
865,27200
866,27264
867,28032
868,29120
869,30208
870,31296
871,32320
872,33088
873,33792
874,34304
875,34624
876,34752
877,34688
878,34624
879,34496
880,34368
881,34304
882,34240
883,34112
884,33984
885,33856
886,33792
887,33728
888,33728
889,33664
890,33728
891,33792
892,33856
893,33856
894,33856
895,33792
896,33728
897,33728
898,33728
899,33856
900,33920
901,33984
902,34048
903,34112
904,34112
905,34048
906,34048
907,34112
908,34112
909,34048
910,34048
911,34048
912,34048
913,34048
914,33984
915,33856
916,33856
917,33856
918,33856
919,33856
920,33920
921,33856
922,33792
923,33792
924,33728
925,33600
926,33472
927,33344
928,33344
929,33280
930,33280
931,33216
932,33216
933,33280
934,33280
935,33216
936,33216
937,33216
938,33280
939,33344
940,33344
941,33472
942,33536
943,33536
944,33600
945,33664
946,33664
947,33600
948,33536
949,33536
950,33600
951,33600
952,33536
953,33536
954,33472
955,33472
956,33536
957,33664
958,33792
959,33856
960,33792
961,33728
962,33664
963,33664
964,33728
965,33792
966,33728
967,33536
968,33472
969,33408
970,33408
971,33408
972,33408
973,33408
974,33472
975,33472
976,33408
977,33408
978,33408
979,33408
980,33472
981,33536
982,33600
983,33664
984,33664
985,33664
986,33664
987,33664
988,33600
989,33536
990,33536
991,33536
992,33472
993,33472
994,33472
995,33408
996,33408
997,33408
998,33408
999,33472
1000,33472
1001,33536
1002,33536
1003,33600
1004,33600
1005,33664
1006,33664
1007,33600
1008,33664
1009,33728
1010,33664
1011,33600
1012,33472
1013,33472
1014,33472
1015,33472
1016,33472
1017,33472
1018,33408
1019,33408
1020,33472
1021,33472
1022,33536
1023,33536
1024,33600
1025,33600
1026,33600
1027,33600
1028,33664
1029,33728
1030,33728
1031,33728
1032,33728
1033,33792
1034,33856
1035,33856
1036,33920
1037,33984
1038,34048
1039,33984
1040,33856
1041,33792
1042,33856
1043,33920
1044,33856
1045,33856
1046,33792
1047,33664
1048,33536
1049,33536
1050,33536
1051,33536
1052,33536
1053,33536
1054,33600
1055,33536
1056,33472
1057,33408
1058,33344
1059,33280
1060,33280
1061,33344
1062,33408
1063,33472
1064,33536
1065,33600
1066,33664
1067,33728
1068,33792
1069,33792
1070,33728
1071,33664
1072,33600
1073,33664
1074,33920
1075,34560
1076,35584
1077,36992
1078,38720
1079,40704
1080,42624
1081,43584
1082,42944
1083,40896
1084,37824
1085,34496
1086,31296
1087,28928
1088,27584
1089,27136
1090,27648
1091,28672
1092,29760
1093,30976
1094,32000
1095,32896
1096,33600
1097,34112
1098,34368
1099,34560
1100,34624
1101,34624
1102,34560
1103,34432
1104,34368
1105,34304
1106,34176
1107,34048
1108,33984
1109,33920
1110,33856
1111,33856
1112,33792
1113,33792
1114,33792
1115,33792
1116,33792
1117,33792
1118,33856
1119,33856
1120,33920
1121,33984
1122,33984
1123,33984
1124,33984
1125,34048
1126,34112
1127,34112
1128,34112
1129,34048
1130,34048
1131,33984
1132,33984
1133,34048
1134,34048
1135,33984
1136,33920
1137,33984
1138,33984
1139,33920
1140,33856
1141,33856
1142,33856
1143,33856
1144,33792
1145,33728
1146,33728
1147,33664
1148,33600
1149,33536
1150,33472
1151,33472
1152,33408
1153,33408
1154,33344
1155,33344
1156,33280
1157,33280
1158,33280
1159,33280
1160,33152
1161,33152
1162,33152
1163,33280
1164,33344
1165,33408
1166,33472
1167,33472
1168,33472
1169,33472
1170,33472
1171,33536
1172,33536
1173,33536
1174,33600
1175,33600
1176,33600
1177,33664
1178,33600
1179,33600
1180,33536
1181,33536
1182,33536
1183,33536
1184,33536
1185,33600
1186,33664
1187,33664
1188,33664
1189,33600
1190,33536
1191,33472
1192,33408
1193,33344
1194,33344
1195,33344
1196,33408
1197,33408
1198,33408
1199,33472
1200,33472
1201,33536
1202,33472
1203,33408
1204,33472
1205,33536
1206,33536
1207,33472
1208,33536
1209,33536
1210,33536
1211,33472
1212,33536
1213,33536
1214,33472
1215,33408
1216,33408
1217,33472
1218,33408
1219,33408
1220,33408
1221,33472
1222,33472
1223,33472
1224,33536
1225,33600
1226,33664
1227,33664
1228,33600
1229,33600
1230,33600
1231,33536
1232,33536
1233,33600
1234,33728
1235,33664
1236,33536
1237,33472
1238,33472
1239,33536
1240,33536
1241,33600
1242,33600
1243,33600
1244,33536
1245,33536
1246,33536
1247,33472
1248,33472
1249,33472
1250,33600
1251,33600
1252,33664
1253,33600
1254,33664
1255,33664
1256,33664
1257,33600
1258,33664
1259,33664
1260,33664
1261,33600
1262,33600
1263,33600
1264,33664
1265,33600
1266,33600
1267,33600
1268,33600
1269,33664
1270,33792
1271,33920
1272,33984
1273,33984
1274,33984
1275,33984
1276,33920
1277,33920
1278,33856
1279,33920
1280,33920
1281,33856
1282,33792
1283,33792
1284,33728
1285,33664
1286,33600
1287,33600
1288,33600
1289,33600
1290,33600
1291,33600
1292,33536
1293,33408
1294,33344
1295,33344
1296,33408
1297,33408
1298,33472
1299,33536
1300,33600
1301,33600
1302,33600
1303,33600
1304,33664
1305,33728
1306,33728
1307,33600
1308,33536
1309,33664
1310,33984
1311,34624
1312,35648
1313,36992
1314,38784
1315,40704
1316,42624
1317,43648
1318,43008
1319,40896
1320,37824
1321,34368
1322,31168
1323,28800
1324,27456
1325,27200
1326,27904
1327,28800
1328,29888
1329,30976
1330,32064
1331,32960
1332,33600
1333,34112
1334,34368
1335,34560
1336,34560
1337,34560
1338,34560
1339,34432
1340,34304
1341,34240
1342,34112
1343,34048
1344,33984
1345,33920
1346,33856
1347,33856
1348,33792
1349,33728
1350,33792
1351,33792
1352,33856
1353,33792
1354,33856
1355,33856
1356,33920
1357,33920
1358,33984
1359,33984
1360,34048
1361,34048
1362,34048
1363,34048
1364,33984
1365,33984
1366,33984
1367,34048
1368,34112
1369,34176
1370,34112
1371,34112
1372,34048
1373,33984
1374,33920
1375,33920
1376,33920
1377,33920
1378,33920
1379,33920
1380,33920
1381,33920
1382,33856
1383,33728
1384,33600
1385,33536
1386,33408
1387,33344
1388,33344
1389,33344
1390,33216
1391,33152
1392,33088
1393,33152
1394,33152
1395,33088
1396,33152
1397,33216
1398,33280
1399,33344
1400,33408
1401,33472
1402,33536
1403,33472
1404,33472
1405,33472
1406,33472
1407,33472
1408,33536
1409,33600
1410,33600
1411,33600
1412,33472
1413,33472
1414,33472
1415,33472
1416,33472
1417,33472
1418,33472
1419,33472
1420,33536
1421,33536
1422,33536
1423,33472
1424,33472
1425,33536
1426,33536
1427,33536
1428,33472
1429,33472
1430,33472
1431,33536
1432,33472
1433,33472
1434,33472
1435,33472
1436,33344
1437,33280
1438,33344
1439,33408
1440,33408
1441,33408
1442,33472
1443,33472
1444,33472
1445,33408
1446,33472
1447,33408
1448,33408
1449,33408
1450,33408
1451,33408
1452,33472
1453,33472
1454,33472
1455,33536
1456,33536
1457,33536
1458,33536
1459,33536
1460,33472
1461,33472
1462,33472
1463,33472
1464,33472
1465,33472
1466,33536
1467,33536
1468,33536
1469,33536
1470,33536
1471,33536
1472,33600
1473,33600
1474,33600
1475,33600
1476,33600
1477,33536
1478,33536
1479,33536
1480,33536
1481,33536
1482,33536
1483,33536
1484,33472
1485,33472
1486,33472
1487,33536
1488,33600
1489,33600
1490,33536
1491,33536
1492,33536
1493,33600
1494,33600
1495,33600
1496,33664
1497,33728
1498,33728
1499,33664
1500,33600
1501,33664
1502,33664
1503,33664
1504,33664
1505,33664
1506,33728
1507,33728
1508,33728
1509,33728
1510,33664
1511,33600
1512,33536
1513,33536
1514,33536
1515,33536
1516,33536
1517,33664
1518,33792
1519,33856
1520,33920
1521,33984
1522,34048
1523,33984
1524,33856
1525,33856
1526,33920
1527,33920
1528,33920
1529,33856
1530,33856
1531,33792
1532,33728
1533,33664
1534,33664
1535,33600
1536,33664
1537,33664
1538,33664
1539,33536
1540,33408
1541,33344
1542,33344
1543,33408
1544,33472
1545,33536
1546,33600
1547,33664
1548,33728
1549,33664
1550,33664
1551,33664
1552,33664
1553,33664
1554,33600
1555,33664
1556,33664
1557,33728
1558,34048
1559,34816
1560,35968
1561,37504
1562,39360
1563,41280
1564,43008
1565,43392
1566,42368
1567,40128
1568,36864
1569,33792
1570,30784
1571,28736
1572,27648
1573,27520
1574,28096
1575,28992
1576,30080
1577,31168
1578,32128
1579,33024
1580,33664
1581,34240
1582,34432
1583,34624
1584,34752
1585,34688
1586,34560
1587,34432
1588,34304
1589,34240
1590,34176
1591,34048
1592,33984
1593,33984
1594,33920
1595,33856
1596,33792
1597,33728
1598,33792
1599,33792
1600,33792
1601,33792
1602,33792
1603,33856
1604,33920
1605,33920
1606,33920
1607,33920
1608,33920
1609,34048
1610,34112
1611,34176
1612,34176
1613,34176
1614,34112
1615,34048
1616,34048
1617,33984
1618,34048
1619,34048
1620,33984
1621,33984
1622,33984
1623,33920
1624,33920
1625,33920
1626,33920
1627,33920
1628,33920
1629,33856
1630,33792
1631,33728
1632,33664
1633,33600
1634,33600
1635,33536
1636,33472
1637,33408
1638,33280
1639,33280
1640,33280
1641,33280
1642,33280
1643,33280
1644,33344
1645,33408
1646,33408
1647,33472
1648,33472
1649,33472
1650,33536
1651,33536
1652,33536
1653,33472
1654,33472
1655,33472
1656,33536
1657,33600
1658,33600
1659,33600
1660,33536
1661,33536
1662,33536
1663,33600
1664,33664
1665,33664
1666,33600
1667,33600
1668,33600
1669,33600
1670,33600
1671,33600
1672,33600
1673,33600
1674,33536
1675,33536
1676,33536
1677,33536
1678,33536
1679,33536
1680,33536
1681,33536
1682,33536
1683,33536
1684,33536
1685,33600
1686,33536
1687,33536
1688,33536
1689,33536
1690,33472
1691,33408
1692,33344
1693,33408
1694,33472
1695,33536
1696,33536
1697,33536
1698,33536
1699,33536
1700,33536
1701,33600
1702,33600
1703,33600
1704,33600
1705,33536
1706,33472
1707,33472
1708,33472
1709,33536
1710,33536
1711,33536
1712,33536
1713,33536
1714,33600
1715,33600
1716,33600
1717,33536
1718,33600
1719,33536
1720,33536
1721,33536
1722,33600
1723,33600
1724,33600
1725,33600
1726,33600
1727,33664
1728,33664
1729,33728
1730,33792
1731,33856
1732,33856
1733,33792
1734,33856
1735,33856
1736,33856
1737,33856
1738,33856
1739,33920
1740,33920
1741,33920
1742,33792
1743,33792
1744,33792
1745,33728
1746,33728
1747,33664
1748,33664
1749,33600
1750,33600
1751,33536
1752,33408
1753,33280
1754,33152
1755,33152
1756,33216
1757,33280
1758,33344
1759,33472
1760,33536
1761,33600
1762,33600
1763,33600
1764,33664
1765,33728
1766,33664
1767,33600
1768,33600
1769,33600
1770,33856
1771,34432
1772,35392
1773,36736
1774,38400
1775,40256
1776,42240
1777,43456
1778,43200
1779,41344
1780,38592
1781,35200
1782,31872
1783,29248
1784,27648
1785,27072
1786,27456
1787,28352
1788,29504
1789,30720
1790,31744
1791,32704
1792,33408
1793,33984
1794,34368
1795,34560
1796,34624
1797,34624
1798,34560
1799,34432
1800,34304
1801,34240
1802,34176
1803,34112
1804,33984
1805,33984
1806,33984
1807,33856
1808,33792
1809,33792
1810,33792
1811,33792
1812,33792
1813,33792
1814,33856
1815,33920
1816,33920
1817,33920
1818,33984
1819,34048
1820,33984
1821,34048
1822,34048
1823,34048
1824,34048
1825,34048
1826,34112
1827,34176
1828,34176
1829,34176
1830,34176
1831,34176
1832,34112
1833,34048
1834,34048
1835,33984
1836,33984
1837,33920
1838,33856
1839,33856
1840,33856
1841,33728
1842,33664
1843,33600
1844,33536
1845,33408
1846,33344
1847,33344
1848,33280
1849,33216
1850,33152
1851,33216
1852,33216
1853,33216
1854,33216
1855,33280
1856,33280
1857,33344
1858,33280
1859,33280
1860,33344
1861,33344
1862,33408
1863,33408
1864,33472
1865,33600
1866,33600
1867,33536
1868,33600
1869,33600
1870,33472
1871,33408
1872,33408
1873,33408
1874,33408
1875,33408
1876,33472
1877,33536
1878,33600
1879,33600
1880,33600
1881,33664
1882,33600
1883,33536
1884,33600
1885,33600
1886,33600
1887,33600
1888,33536
1889,33536
1890,33600
1891,33536
1892,33536
1893,33536
1894,33536
1895,33472
1896,33408
1897,33408
1898,33408
1899,33344
1900,33280
1901,33280
1902,33344
1903,33408
1904,33408
1905,33408
1906,33472
1907,33472
1908,33472
1909,33536
1910,33600
1911,33600
1912,33600
1913,33600
1914,33600
1915,33600
1916,33536
1917,33472
1918,33472
1919,33472
1920,33472
1921,33408
1922,33472
1923,33536
1924,33536
1925,33600
1926,33600
1927,33536
1928,33536
1929,33536
1930,33536
1931,33600
1932,33600
1933,33600
1934,33600
1935,33600
1936,33600
1937,33600
1938,33536
1939,33600
1940,33600
1941,33536
1942,33536
1943,33536
1944,33536
1945,33536
1946,33536
1947,33536
1948,33600
1949,33600
1950,33600
1951,33600
1952,33600
1953,33600
1954,33536
1955,33600
1956,33600
1957,33664
1958,33664
1959,33600
1960,33600
1961,33600
1962,33600
1963,33600
1964,33600
1965,33600
1966,33600
1967,33600
1968,33664
1969,33664
1970,33728
1971,33728
1972,33728
1973,33728
1974,33664
1975,33664
1976,33664
1977,33664
1978,33664
1979,33600
1980,33664
1981,33792
1982,33856
1983,33920
1984,33984
1985,33984
1986,34048
1987,34048
1988,33984
1989,33984
1990,34048
1991,33984
1992,33920
1993,33856
1994,33792
1995,33792
1996,33728
1997,33728
1998,33664
1999,33600
2000,33536
2001,33536
2002,33536
2003,33536
2004,33472
2005,33408
2006,33408
2007,33408
2008,33408
2009,33472
2010,33600
2011,33664
2012,33600
2013,33600
2014,33600
2015,33664
2016,33728
2017,33728
2018,33664
2019,33664
2020,33728
2021,33856
2022,34304
2023,35008
2024,36160
2025,37760
2026,39616
2027,41664
2028,43392
2029,43712
2030,42368
2031,39872
2032,36480
2033,33024
2034,30016
2035,28096
2036,27264
2037,27392
2038,28160
2039,29248
2040,30464
2041,31552
2042,32512
2043,33344
2044,33920
2045,34304
2046,34560
2047,34624
2048,34560
2049,34496
2050,34368
2051,34304
2052,34304
2053,34240
2054,34112
2055,34048
2056,33984
2057,33920
2058,33856
2059,33856
2060,33856
2061,33856
2062,33856
2063,33920
2064,33920
2065,33920
2066,33920
2067,33920
2068,33920
2069,33920
2070,33920
2071,33984
2072,33984
2073,34048
2074,34048
2075,34048
2076,34048
2077,34112
2078,34112
2079,34112
2080,34048
2081,34048
2082,34048
2083,34048
2084,34048
2085,34048
2086,34048
2087,34048
2088,33984
2089,33984
2090,33984
2091,33920
2092,33856
2093,33856
2094,33856
2095,33792
2096,33664
2097,33600
2098,33600
2099,33536
2100,33472
2101,33344
2102,33280
2103,33280
2104,33216
2105,33152
2106,33152
2107,33152
2108,33152
2109,33216
2110,33280
2111,33344
2112,33408
2113,33408
2114,33472
2115,33536
2116,33536
2117,33536
2118,33600
2119,33664
2120,33664
2121,33664
2122,33600
2123,33600
2124,33536
2125,33536
2126,33536
2127,33536
2128,33600
2129,33536
2130,33472
2131,33472
2132,33536
2133,33536
2134,33536
2135,33536
2136,33536
2137,33600
2138,33600
2139,33536
2140,33536
2141,33536
2142,33536
2143,33472
2144,33536
2145,33536
2146,33536
2147,33472
2148,33472
2149,33472
2150,33472
2151,33408
2152,33408
2153,33408
2154,33408
2155,33408
2156,33472
2157,33536
2158,33600
2159,33600
2160,33536
2161,33536
2162,33472
2163,33472
2164,33472
2165,33472
2166,33536
2167,33536
2168,33536
2169,33536
2170,33536
2171,33536
2172,33536
2173,33536
2174,33536
2175,33536
2176,33472
2177,33472
2178,33472
2179,33536
2180,33536
2181,33536
2182,33536
2183,33536
2184,33600
2185,33600
2186,33664
2187,33600
2188,33536
2189,33472
2190,33472
2191,33536
2192,33600
2193,33600
2194,33664
2195,33664
2196,33600
2197,33600
2198,33536
2199,33536
2200,33536
2201,33472
2202,33536
2203,33600
2204,33600
2205,33664
2206,33664
2207,33664
2208,33664
2209,33664
2210,33664
2211,33664
2212,33664
2213,33600
2214,33600
2215,33600
2216,33664
2217,33664
2218,33664
2219,33664
2220,33664
2221,33664
2222,33664
2223,33664
2224,33664
2225,33600
2226,33664
2227,33600
2228,33600
2229,33600
2230,33536
2231,33856
2232,33920
2233,33984
2234,33984
2235,34048
2236,34048
2237,33984
2238,33984
2239,33984
2240,33984
2241,33920
2242,33856
2243,33856
2244,33792
2245,33792
2246,33728
2247,33792
2248,33728
2249,33728
2250,33728
2251,33664
2252,33664
2253,33536
2254,33408
2255,33344
2256,33408
2257,33408
2258,33472
2259,33472
2260,33472
2261,33536
2262,33536
2263,33600
2264,33664
2265,33728
2266,33728
2267,33664
2268,33664
2269,33600
2270,33664
2271,33920
2272,33920
2273,35264
2274,36608
2275,38336
2276,40192
2277,42112
2278,43328
2279,43136
2280,41600
2281,38976
2282,35712
2283,32384
2284,29760
2285,28096
2286,27328
2287,27328
2288,28352
2289,29440
2290,30592
2291,31616
2292,32576
2293,33344
2294,33920
2295,34240
2296,34496
2297,34624
2298,34624
2299,34624
2300,34496
2301,34432
2302,34368
2303,34176
2304,34048
2305,33984
2306,33984
2307,33920
2308,33856
2309,33792
2310,33792
2311,33792
2312,33792
2313,33792
2314,33856
2315,33920
2316,33856
2317,33856
2318,33920
2319,33984
2320,34048
2321,34048
2322,34048
2323,34048
2324,34048
2325,34048
2326,34048
2327,34112
2328,34112
2329,34112
2330,34112
2331,34112
2332,34048
2333,34048
2334,33984
2335,33984
2336,33920
2337,33920
2338,33920
2339,33920
2340,33920
2341,33920
2342,33856
2343,33856
2344,33856
2345,33792
2346,33664
2347,33600
2348,33472
2349,33472
2350,33408
2351,33408
2352,33408
2353,33344
2354,33280
2355,33280
2356,33280
2357,33280
2358,33280
2359,33280
2360,33344
2361,33408
2362,33408
2363,33472
2364,33536
2365,33600
2366,33600
2367,33536
2368,33536
2369,33472
2370,33472
2371,33472
2372,33536
2373,33600
2374,33600
2375,33600
2376,33600
2377,33664
2378,33664
2379,33600
2380,33536
2381,33536
2382,33536
2383,33536
2384,33536
2385,33536
2386,33536
2387,33536
2388,33472
2389,33472
2390,33536
2391,33536
2392,33472
2393,33472
2394,33472
2395,33536
2396,33536
2397,33536
2398,33536
2399,33536
2400,33472
2401,33472
2402,33536
2403,33536
2404,33472
2405,33472
2406,33536
2407,33536
2408,33472
2409,33472
2410,33472
2411,33408
2412,33344
2413,33408
2414,33472
2415,33536
2416,33536
2417,33536
2418,33536
2419,33600
2420,33600
2421,33536
2422,33600
2423,33600
2424,33600
2425,33600
2426,33536
2427,33536
2428,33536
2429,33536
2430,33472
2431,33536
2432,33600
2433,33600
2434,33600
2435,33600
2436,33600
2437,33536
2438,33536
2439,33536
2440,33536
2441,33536
2442,33536
2443,33536
2444,33600
2445,33600
2446,33600
2447,33664
2448,33664
2449,33664
2450,33664
2451,33600
2452,33600
2453,33664
2454,33664
2455,33664
2456,33664
2457,33600
2458,33536
2459,33536
2460,33536
2461,33600
2462,33664
2463,33600
2464,33600
2465,33664
2466,33664
2467,33664
2468,33664
2469,33728
2470,33664
2471,33664
2472,33664
2473,33664
2474,33664
2475,33728
2476,33856
2477,33984
2478,34048
2479,34048
2480,34048
2481,34112
2482,34112
2483,34048
2484,33920
2485,33856
2486,33792
2487,33728
2488,33664
2489,33664
2490,33664
2491,33600
2492,33600
2493,33600
2494,33664
2495,33728
2496,33664
2497,33536
2498,33472
2499,33408
2500,33408
2501,33408
2502,33408
2503,33472
2504,33472
2505,33536
2506,33536
2507,33600
2508,33600
2509,33664
2510,33664
2511,33728
2512,33664
2513,33600
2514,33664
2515,33920
2516,34432
2517,35200
2518,36544
2519,38208
2520,40192
2521,42176
2522,43648
2523,43584
2524,41792
2525,39040
2526,35328
2527,32128
2528,29440
2529,27776
2530,27136
2531,27520
2532,28416
2533,29568
2534,30656
2535,31744
2536,32704
2537,33344
2538,33856
2539,34240
2540,34432
2541,34560
2542,34560
2543,34496
2544,34496
2545,34432
2546,34368
2547,34240
2548,34176
2549,34048
2550,33984
2551,33920
2552,33856
2553,33856
2554,33856
2555,33792
2556,33792
2557,33856
2558,33856
2559,33792
2560,33856
2561,33856
2562,33920
2563,33920
2564,33984
2565,33984
2566,34048
2567,34112
2568,34112
2569,34176
2570,34176
2571,34176
2572,34176
2573,34240
2574,34240
2575,34176
2576,34176
2577,34176
2578,34112
2579,34048
2580,34048
2581,33984
2582,33984
2583,33984
2584,33984
2585,33920
2586,33856
2587,33792
2588,33792
2589,33728
2590,33664
2591,33600
2592,33472
2593,33344
2594,33280
2595,33280
2596,33152
2597,33088
2598,33088
2599,33152
2600,33088
2601,33152
2602,33216
2603,33280
2604,33344
2605,33408
2606,33408
2607,33472
2608,33472
2609,33472
2610,33536
2611,33536
2612,33472
2613,33472
2614,33472
2615,33472
2616,33472
2617,33536
2618,33600
2619,33600
2620,33600
2621,33600
2622,33536
2623,33536
2624,33536
2625,33472
2626,33472
2627,33536
2628,33600
2629,33600
2630,33600
2631,33600
2632,33600
2633,33536
2634,33472
2635,33472
2636,33536
2637,33536
2638,33536
2639,33472
2640,33472
2641,33408
2642,33408
2643,33408
2644,33472
2645,33472
2646,33472
2647,33472
2648,33536
2649,33472
2650,33408
2651,33408
2652,33472
2653,33472
2654,33408
2655,33408
2656,33408
2657,33408
2658,33472
2659,33472
2660,33536
2661,33600
2662,33600
2663,33600
2664,33664
2665,33664
2666,33600
2667,33536
2668,33472
2669,33472
2670,33472
2671,33408
2672,33344
2673,33344
2674,33408
2675,33408
2676,33472
2677,33536
2678,33536
2679,33536
2680,33472
2681,33536
2682,33600
2683,33664
2684,33600
2685,33664
2686,33664
2687,33600
2688,33536
2689,33536
2690,33600
2691,33600
2692,33536
2693,33472
2694,33472
2695,33472
2696,33600
2697,33664
2698,33664
2699,33600
2700,33536
2701,33536
2702,33536
2703,33600
2704,33664
2705,33664
2706,33664
2707,33664
2708,33600
2709,33600
2710,33600
2711,33664
2712,33664
2713,33664
2714,33664
2715,33728
2716,33728
2717,33664
2718,33664
2719,33600
2720,33600
2721,33536
2722,33600
2723,33664
2724,33728
2725,33728
2726,33664
2727,33664
2728,33728
2729,33728
2730,33664
2731,33664
2732,33664
2733,33664
2734,33664
2735,33664
2736,33728
2737,33792
2738,33728
2739,33728
2740,33728
2741,33728
2742,33728
2743,33664
2744,33728
2745,33728
2746,33728
2747,33792
2748,33856
2749,33984
2750,33984
2751,33984
2752,33984
2753,33984
2754,33984
2755,33984
2756,33920
2757,33920
2758,33920
2759,33856
2760,33792
2761,33792
2762,33792
2763,33728
2764,33664
2765,33664
2766,33664
2767,33664
2768,33600
2769,33536
2770,33536
2771,33408
2772,33408
2773,33408
2774,33472
2775,33472
2776,33472
2777,33536
2778,33600
2779,33664
2780,33728
2781,33728
2782,33792
2783,33792
2784,33728
2785,33664
2786,33728
2787,33856
2788,34240
2789,34944
2790,36096
2791,37696
2792,39552
2793,41472
2794,43264
2795,43584
2796,42304
2797,39936
2798,36736
2799,33280
2800,30336
2801,28288
2802,27328
2803,27392
2804,28160
2805,29184
2806,30336
2807,31488
2808,32512
2809,33344
2810,33856
2811,34304
2812,34496
2813,34624
2814,34624
2815,34624
2816,34560
2817,34432
2818,34240
2819,34176
2820,34048
2821,33984
2822,33920
2823,33856
2824,33792
2825,33856
2826,33920
2827,33920
2828,33920
2829,33856
2830,33792
2831,33792
2832,33792
2833,33856
2834,33856
2835,33920
2836,33984
2837,34048
2838,34048
2839,34112
2840,34112
2841,34112
2842,34112
2843,34112
2844,34176
2845,34240
2846,34240
2847,34176
2848,34176
2849,34176
2850,34112
2851,34048
2852,34048
2853,33984
2854,33984
2855,33920
2856,33920
2857,33920
2858,33984
2859,33984
2860,33920
2861,33792
2862,33728
2863,33600
2864,33536
2865,33472
2866,33408
2867,33344
2868,33216
2869,33216
2870,33152
2871,33152
2872,33152
2873,33216
2874,33280
2875,33344
2876,33344
2877,33408
2878,33472
2879,33472
2880,33472
2881,33472
2882,33536
2883,33536
2884,33536
2885,33536
2886,33536
2887,33600
2888,33536
2889,33536
2890,33536
2891,33536
2892,33536
2893,33600
2894,33600
2895,33600
2896,33600
2897,33536
2898,33600
2899,33664
2900,33664
2901,33600
2902,33536
2903,33536
2904,33536
2905,33536
2906,33600
2907,33600
2908,33600
2909,33536
2910,33472
2911,33472
2912,33472
2913,33536
2914,33472
2915,33472
2916,33536
2917,33536
2918,33536
2919,33536
2920,33536
2921,33472
2922,33408
2923,33408
2924,33408
2925,33408
2926,33408
2927,33408
2928,33472
2929,33472
2930,33472
2931,33472
2932,33472
2933,33536
2934,33600
2935,33600
2936,33600
2937,33600
2938,33536
2939,33536
2940,33536
2941,33536
2942,33536
2943,33536
2944,33600
2945,33600
2946,33536
2947,33472
2948,33408
2949,33408
2950,33408
2951,33472
2952,33472
2953,33536
2954,33536
2955,33536
2956,33536
2957,33600
2958,33664
2959,33600
2960,33536
2961,33600
2962,33664
2963,33664
2964,33600
2965,33536
2966,33536
2967,33472
2968,33472
2969,33472
2970,33536
2971,33600
2972,33536
2973,33600
2974,33600
2975,33600
2976,33536
2977,33600
2978,33600
2979,33664
2980,33664
2981,33664
2982,33664
2983,33664
2984,33664
2985,33664
2986,33600
2987,33664
2988,33600
2989,33600
2990,33664
2991,33792
2992,33920
2993,33920
2994,33920
2995,33984
2996,33984
2997,33984
2998,33920
2999,33920
3000,33920
3001,33920
3002,33856
3003,33856
3004,33792
3005,33728
3006,33664
3007,33664
3008,33664
3009,33664
3010,33664
3011,33664
3012,33600
3013,33600
3014,33472
3015,33408
3016,33408
3017,33408
3018,33408
3019,33472
3020,33536
3021,33536
3022,33600
3023,33600
3024,33664
3025,33664
3026,33728
3027,33728
3028,33792
3029,33728
3030,33600
3031,33664
3032,33920
3033,34496
3034,35456
3035,36864
3036,38656
3037,40640
3038,42560
3039,43584
3040,43072
3041,41216
3042,38336
3043,35008
3044,31744
3045,29248
3046,27776
3047,27264
3048,27648
3049,28608
3050,29696
3051,30784
3052,31808
3053,32768
3054,33472
3055,34048
3056,34368
3057,34560
3058,34624
3059,34560
3060,34496
3061,34496
3062,34432
3063,34368
3064,34240
3065,34112
3066,34112
3067,34048
3068,33984
3069,33920
3070,33920
3071,33856
3072,33792
3073,33728
3074,33792
3075,33792
3076,33856
3077,33920
3078,33984
3079,34048
3080,34048
3081,33984
3082,33984
3083,34048
3084,34048
3085,34112
3086,34112
3087,34176
3088,34176
3089,34176
3090,34240
3091,34240
3092,34240
3093,34240
3094,34240
3095,34304
3096,34240
3097,34112
3098,33984
3099,33920
3100,33920
3101,33920
3102,33856
3103,33856
3104,33856
3105,33728
3106,33664
3107,33600
3108,33600
3109,33664
3110,33600
3111,33472
3112,33280
3113,33152
3114,33088
3115,33024
3116,33024
3117,33024
3118,33024
3119,33024
3120,33152
3121,33216
3122,33280
3123,33344
3124,33472
3125,33536
3126,33664
3127,33792
3128,33920
3129,33920
3130,33792
3131,33664
3132,33472
3133,33408
3134,33408
3135,33408
3136,33408
3137,33472
3138,33536
3139,33536
3140,33536
3141,33664
3142,33664
3143,33664
3144,33664
3145,33728
3146,33792
3147,33728
3148,33728
3149,33728
3150,33792
3151,33856
3152,33920
3153,33856
3154,33728
3155,33600
3156,33536
3157,33536
3158,33536
3159,33536
3160,33536
3161,33536
3162,33536
3163,33536
3164,33472
3165,33536
3166,33664
3167,33728
3168,33664
3169,33600
3170,33536
3171,33536
3172,33472
3173,33408
3174,33408
3175,33472
3176,33472
3177,33536
3178,33536
3179,33536
3180,33536
3181,33536
3182,33536
3183,33536
3184,33472
3185,33472
3186,33472
3187,33536
3188,33536
3189,33472
3190,33472
3191,33472
3192,33472
3193,33408
3194,33472
3195,33536
3196,33536
3197,33472
3198,33408
3199,33472
3200,33472
3201,33472
3202,33536
3203,33600
3204,33600
3205,33600
3206,33600
3207,33600
3208,33600
3209,33600
3210,33536
3211,33536
3212,33600
3213,33600
3214,33600
3215,33600
3216,33664
3217,33600
3218,33600
3219,33536
3220,33600
3221,33600
3222,33600
3223,33600
3224,33664
3225,33728
3226,33728
3227,33600
3228,33664
3229,33600
3230,33536
3231,33408
3232,33344
3233,33408
3234,33472
3235,33600
3236,33664
3237,33792
3238,33792
3239,33792
3240,33792
3241,33856
3242,33984
3243,33984
3244,33984
3245,33984
3246,33984
3247,33984
3248,33920
3249,33984
3250,33920
3251,33920
3252,33920
3253,33920
3254,33856
3255,33792
3256,33728
3257,33664
3258,33664
3259,33664
3260,33664
3261,33664
3262,33728
3263,33664
3264,33536
3265,33408
3266,33408
3267,33472
3268,33472
3269,33472
3270,33536
3271,33536
3272,33536
3273,33600
3274,33728
3275,33728
3276,33664
3277,33600
3278,33600
3279,33664
3280,33664
3281,33728
3282,34048
3283,34560
3284,35520
3285,36992
3286,38784
3287,40768
3288,42688
3289,43712
3290,43008
3291,40448
3292,37824
3293,34432
3294,31232
3295,28864
3296,27584
3297,27264
3298,27776
3299,28800
3300,29888
3301,30976
3302,31936
3303,32768
3304,33472
3305,33984
3306,34304
3307,34624
3308,34752
3309,34752
3310,34624
3311,34432
3312,34304
3313,34176
3314,34048
3315,33984
3316,33984
3317,33920
3318,33856
3319,33792
3320,33792
3321,33856
3322,33792
3323,33728
3324,33728
3325,33792
3326,33856
3327,33920
3328,33920
3329,33984
3330,34048
3331,34112
3332,34176
3333,34176
3334,34240
3335,34176
3336,34112
3337,34112
3338,34176
3339,34176
3340,34112
3341,34048
3342,34048
3343,34048
3344,33984
3345,34048
3346,34048
3347,34112
3348,34176
3349,34176
3350,34112
3351,33984
3352,33920
3353,33856
3354,33856
3355,33728
3356,33600
3357,33472
3358,33472
3359,33408
3360,33280
3361,33216
3362,33216
3363,33216
3364,33088
3365,33024
3366,33088
3367,33088
3368,33152
3369,33216
3370,33280
3371,33344
3372,33408
3373,33408
3374,33472
3375,33536
3376,33600
3377,33600
3378,33600
3379,33536
3380,33536
3381,33472
3382,33472
3383,33472
3384,33472
3385,33408
3386,33408
3387,33472
3388,33536
3389,33536
3390,33472
3391,33472
3392,33536
3393,33536
3394,33600
3395,33600
3396,33664
3397,33664
3398,33600
3399,33600
3400,33664
3401,33664
3402,33600
3403,33472
3404,33408
3405,33408
3406,33408
3407,33408
3408,33408
3409,33408
3410,33408
3411,33408
3412,33472
3413,33536
3414,33536
3415,33472
3416,33472
3417,33472
3418,33472
3419,33472
3420,33472
3421,33536
3422,33536
3423,33408
3424,33408
3425,33408
3426,33472
3427,33472
3428,33472
3429,33536
3430,33536
3431,33536
3432,33536
3433,33600
3434,33600
3435,33536
3436,33472
3437,33472
3438,33472
3439,33472
3440,33472
3441,33536
3442,33472
3443,33472
3444,33472
3445,33536
3446,33536
3447,33536
3448,33536
3449,33664
3450,33728
3451,33664
3452,33600
3453,33536
3454,33536
3455,33536
3456,33536
3457,33600
3458,33664
3459,33664
3460,33600
3461,33472
3462,33472
3463,33536
3464,33600
3465,33536
3466,33536
3467,33536
3468,33536
3469,33600
3470,33600
3471,33664
3472,33600
3473,33664
3474,33664
3475,33728
3476,33792
3477,33792
3478,33920
3479,33984
3480,34048
3481,34048
3482,33984
3483,33920
3484,33920
3485,33920
3486,33920
3487,33920
3488,33920
3489,33856
3490,33728
3491,33664
3492,33600
3493,33600
3494,33600
3495,33664
3496,33664
3497,33600
3498,33472
3499,33408
3500,33408
3501,33472
3502,33472
3503,33472
3504,33536
3505,33600
3506,33536
3507,33536
3508,33600
3509,33664
3510,33664
3511,33728
3512,33728
3513,33600
3514,33600
3515,33600
3516,33792
3517,34304
3518,35264
3519,36608
3520,38400
3521,40320
3522,42240
3523,43456
3524,43264
3525,41664
3526,38976
3527,35776
3528,32448
3529,29824
3530,28032
3531,27200
3532,27392
3533,28160
3534,29248
3535,30400
3536,31488
3537,32512
3538,33408
3539,33984
3540,34368
3541,34560
3542,34624
3543,34688
3544,34624
3545,34560
3546,34432
3547,34304
3548,34176
3549,34048
3550,33984
3551,33856
3552,33792
3553,33728
3554,33728
3555,33728
3556,33728
3557,33792
3558,33792
3559,33792
3560,33856
3561,33920
3562,33984
3563,34048
3564,34048
3565,34048
3566,34048
3567,34112
3568,34112
3569,34112
3570,34112
3571,34176
3572,34176
3573,34176
3574,34112
3575,34176
3576,34176
3577,34112
3578,34048
3579,34048
3580,34112
3581,34112
3582,34048
3583,34048
3584,34048
3585,34048
3586,33920
3587,33856
3588,33856
3589,33792
3590,33728
3591,33664
3592,33664
3593,33600
3594,33408
3595,33280
3596,33216
3597,33216
3598,33216
3599,33280
3600,33280
3601,33344
3602,33344
3603,33344
3604,33408
3605,33408
3606,33408
3607,33408
3608,33408
3609,33408
3610,33472
3611,33408
3612,33408
3613,33472
3614,33472
3615,33472
3616,33472
3617,33536
3618,33600
3619,33600
3620,33600
3621,33600
3622,33600
3623,33600
3624,33600
3625,33600
3626,33600
3627,33536
3628,33472
3629,33472
3630,33472
3631,33536
3632,33536
3633,33536
3634,33600
3635,33536
3636,33472
3637,33408
3638,33472
3639,33472
3640,33472
3641,33408
3642,33408
3643,33472
3644,33472
3645,33472
3646,33472
3647,33536
3648,33536
3649,33472
3650,33472
3651,33408
3652,33408
3653,33408
3654,33408
3655,33408
3656,33408
3657,33408
3658,33472
3659,33536
3660,33600
3661,33664
3662,33664
3663,33600
3664,33536
3665,33472
3666,33472
3667,33472
3668,33536
3669,33472
3670,33472
3671,33536
3672,33536
3673,33536
3674,33536
3675,33536
3676,33600
3677,33600
3678,33600
3679,33600
3680,33600
3681,33600
3682,33536
3683,33536
3684,33536
3685,33600
3686,33600
3687,33600
3688,33536
3689,33472
3690,33472
3691,33472
3692,33536
3693,33536
3694,33536
3695,33600
3696,33664
3697,33664
3698,33600
3699,33536
3700,33600
3701,33600
3702,33600
3703,33600
3704,33664
3705,33728
3706,33728
3707,33664
3708,33664
3709,33600
3710,33600
3711,33472
3712,33472
3713,33536
3714,33600
3715,33664
3716,33728
3717,33792
3718,33856
3719,33856
3720,33856
3721,33856
3722,33920
3723,33920
3724,33920
3725,33920
3726,33856
3727,33856
3728,33728
3729,33664
3730,33600
3731,33536
3732,33536
3733,33536
3734,33600
3735,33536
3736,33536
3737,33472
3738,33408
3739,33344
3740,33280
3741,33280
3742,33344
3743,33472
3744,33472
3745,33472
3746,33536
3747,33600
3748,33600
3749,33536
3750,33536
3751,33536
3752,33536
3753,33600
3754,33856
3755,34368
3756,35712
3757,36480
3758,38080
3759,40064
3760,42048
3761,43648
3762,43776
3763,42176
3764,39424
3765,36032
3766,32512
3767,29696
3768,27904
3769,27200
3770,27392
3771,28288
3772,29376
3773,30528
3774,31616
3775,32512
3776,33152
3777,33728
3778,34048
3779,34304
3780,34496
3781,34560
3782,34560
3783,34496
3784,34368
3785,34304
3786,34176
3787,34176
3788,34112
3789,34112
3790,33984
3791,33920
3792,33856
3793,33792
3794,33728
3795,33728
3796,33728
3797,33792
3798,33856
3799,33856
3800,33856
3801,33984
3802,33984
3803,33984
3804,33984
3805,33984
3806,34048
3807,34112
3808,34112
3809,34176
3810,34176
3811,34176
3812,34240
3813,34304
3814,34240
3815,34240
3816,34176
3817,34112
3818,34112
3819,34112
3820,34048
3821,34048
3822,34048
3823,33984
3824,33920
3825,33920
3826,33920
3827,33792
3828,33664
3829,33536
3830,33472
3831,33408
3832,33344
3833,33280
3834,33280
3835,33216
3836,33152
3837,33152
3838,33152
3839,33216
3840,33216
3841,33280
3842,33344
3843,33408
3844,33408
3845,33344
3846,33408
3847,33408
3848,33472
3849,33472
3850,33472
3851,33472
3852,33472
3853,33472
3854,33472
3855,33536
3856,33536
3857,33472
3858,33472
3859,33536
3860,33600
3861,33664
3862,33600
3863,33664
3864,33600
3865,33600
3866,33536
3867,33536
3868,33536
3869,33536
3870,33536
3871,33536
3872,33536
3873,33536
3874,33536
3875,33600
3876,33536
3877,33472
3878,33408
3879,33472
3880,33472
3881,33536
3882,33536
3883,33472
3884,33472
3885,33408
3886,33408
3887,33408
3888,33408
3889,33472
3890,33472
3891,33408
3892,33408
3893,33472
3894,33472
3895,33472
3896,33472
3897,33536
3898,33536
3899,33536
3900,33536
3901,33600
3902,33600
3903,33600
3904,33664
3905,33664
3906,33664
3907,33600
3908,33472
3909,33472
3910,33472
3911,33472
3912,33408
3913,33472
3914,33536
3915,33536
3916,33472
3917,33472
3918,33536
3919,33600
3920,33600
3921,33600
3922,33664
3923,33600
3924,33600
3925,33536
3926,33600
3927,33600
3928,33536
3929,33536
3930,33600
3931,33664
3932,33600
3933,33600
3934,33664
3935,33600
3936,33600
3937,33600
3938,33600
3939,33600
3940,33600
3941,33600
3942,33600
3943,33664
3944,33664
3945,33600
3946,33600
3947,33664
3948,33664
3949,33664
3950,33664
3951,33664
3952,33664
3953,33664
3954,33664
3955,33664
3956,33664
3957,33664
3958,33664
3959,33664
3960,33664
3961,33664
3962,33664
3963,33664
3964,33728
3965,33728
3966,33728
3967,33728
3968,33728
3969,33728
3970,33728
3971,33728
3972,33792
3973,33920
3974,33984
3975,34048
3976,34048
3977,34048
3978,33984
3979,33920
3980,33920
3981,33920
3982,33920
3983,33920
3984,33856
3985,33792
3986,33728
3987,33728
3988,33728
3989,33728
3990,33728
3991,33728
3992,33728
3993,33792
3994,33728
3995,33600
3996,33472
3997,33472
3998,33408
3999,33344
4000,33344
4001,33472
4002,33472
4003,33536
4004,33600
4005,33728
4006,33792
4007,33856
4008,33792
4009,33728
4010,33728
4011,33728
4012,33792
4013,33984
4014,34496
4015,35328
4016,36608
4017,38336
4018,40192
4019,42176
4020,43648
4021,43520
4022,41792
4023,39040
4024,35584
4025,32192
4026,29504
4027,27904
4028,27328
4029,27648
4030,28544
4031,29632
4032,30784
4033,31808
4034,32704
4035,33472
4036,33984
4037,34368
4038,34560
4039,34624
4040,34688
4041,34624
4042,34496
4043,34304
4044,34176
4045,34048
4046,33920
4047,33856
4048,33792
4049,33792
4050,33792
4051,33792
4052,33792
4053,33792
4054,33856
4055,33792
4056,33856
4057,33792
4058,33920
4059,33920
4060,33920
4061,33920
4062,33984
4063,34048
4064,34112
4065,34176
4066,34176
4067,34240
4068,34176
4069,34176
4070,34112
4071,34240
4072,34240
4073,34176
4074,34112
4075,34112
4076,34048
4077,34048
4078,34048
4079,34048
4080,34048
4081,33984
4082,33984
4083,33984
4084,33920
4085,33856
4086,33728
4087,33664
4088,33536
4089,33472
4090,33408
4091,33408
4092,33344
4093,33280
4094,33216
4095,33216
4096,33216
4097,33216
4098,33152
4099,33152
4100,33152
4101,33280
4102,33344
4103,33408
4104,33472
4105,33472
4106,33536
4107,33472
4108,33472
4109,33472
4110,33472
4111,33472
4112,33536
4113,33600
4114,33600
4115,33536
4116,33536
4117,33472
4118,33536
4119,33536
4120,33536
4121,33536
4122,33536
4123,33536
4124,33536
4125,33600
4126,33600
4127,33600
4128,33600
4129,33600
4130,33536
4131,33472
4132,33472
4133,33472
4134,33536
4135,33536
4136,33472
4137,33472
4138,33472
4139,33408
4140,33408
4141,33472
4142,33536
4143,33536
4144,33472
4145,33472
4146,33472
4147,33472
4148,33408
4149,33408
4150,33536
4151,33600
4152,33600
4153,33600
4154,33600
4155,33536
4156,33408
4157,33344
4158,33408
4159,33472
4160,33472
4161,33536
4162,33536
4163,33536
4164,33536
4165,33536
4166,33536
4167,33536
4168,33536
4169,33536
4170,33536
4171,33600
4172,33536
4173,33472
4174,33472
4175,33472
4176,33536
4177,33536
4178,33600
4179,33600
4180,33600
4181,33536
4182,33536
4183,33536
4184,33600
4185,33536
4186,33536
4187,33536
4188,33600
4189,33600
4190,33600
4191,33600
4192,33664
4193,33600
4194,33600
4195,33600
4196,33600
4197,33600
4198,33600
4199,33600
4200,33664
4201,33664
4202,33600
4203,33600
4204,33600
4205,33664
4206,33664
4207,33664
4208,33664
4209,33664
4210,33664
4211,33664
4212,33664
4213,33728
4214,33728
4215,33728
4216,33664
4217,33664
4218,33664
4219,33600
4220,33600
4221,33728
4222,33856
4223,33920
4224,33920
4225,33920
4226,33984
4227,33984
4228,33984
4229,33984
4230,33984
4231,33856
4232,33792
4233,33792
4234,33792
4235,33728
4236,33728
4237,33664
4238,33664
4239,33600
4240,33600
4241,33600
4242,33664
4243,33600
4244,33536
4245,33472
4246,33408
4247,33408
4248,33344
4249,33344
4250,33408
4251,33472
4252,33472
4253,33536
4254,33600
4255,33664
4256,33728
4257,33728
4258,33792
4259,33792
4260,33728
4261,33792
4262,34048
4263,34688
4264,35584
4265,36928
4266,38720
4267,40704
4268,42560
4269,43584
4270,43072
4271,41088
4272,38272
4273,34880
4274,31616
4275,29184
4276,27712
4277,27264
4278,27712
4279,28736
4280,29760
4281,30912
4282,31936
4283,32832
4284,33536
4285,34048
4286,34368
4287,34624
4288,34688
4289,34624
4290,34560
4291,34496
4292,34432
4293,34304
4294,34176
4295,34048
4296,34048
4297,33984
4298,33920
4299,33856
4300,33856
4301,33920
4302,33920
4303,33920
4304,33920
4305,33920
4306,33856
4307,33856
4308,33856
4309,33856
4310,33920
4311,33984
4312,34048
4313,34112
4314,34176
4315,34176
4316,34176
4317,34240
4318,34240
4319,34240
4320,34240
4321,34240
4322,34240
4323,34176
4324,34112
4325,34112
4326,34176
4327,34176
4328,34112
4329,34048
4330,33984
4331,33920
4332,33920
4333,33856
4334,33792
4335,33728
4336,33664
4337,33536
4338,33536
4339,33536
4340,33472
4341,33408
4342,33344
4343,33280
4344,33280
4345,33280
4346,33280
4347,33344
4348,33344
4349,33344
4350,33408
4351,33408
4352,33344
4353,33408
4354,33408
4355,33408
4356,33408
4357,33408
4358,33472
4359,33536
4360,33536
4361,33536
4362,33536
4363,33600
4364,33600
4365,33664
4366,33664
4367,33664
4368,33664
4369,33664
4370,33600
4371,33600
4372,33600
4373,33600
4374,33600
4375,33600
4376,33664
4377,33600
4378,33600
4379,33600
4380,33600
4381,33600
4382,33600
4383,33600
4384,33600
4385,33600
4386,33536
4387,33408
4388,33344
4389,33344
4390,33344
4391,33344
4392,33408
4393,33472
4394,33472
4395,33536
4396,33600
4397,33600
4398,33600
4399,33600
4400,33600
4401,33600
4402,33600
4403,33536
4404,33536
4405,33536
4406,33536
4407,33536
4408,33600
4409,33600
4410,33536
4411,33472
4412,33408
4413,33408
4414,33408
4415,33408
4416,33472
4417,33536
4418,33600
4419,33536
4420,33536
4421,33536
4422,33600
4423,33536
4424,33536
4425,33536
4426,33600
4427,33600
4428,33664
4429,33600
4430,33600
4431,33600
4432,33536
4433,33600
4434,33600
4435,33664
4436,33600
4437,33600
4438,33600
4439,33600
4440,33600
4441,33600
4442,33600
4443,33664
4444,33664
4445,33728
4446,33792
4447,33920
4448,33920
4449,33920
4450,33984
4451,33920
4452,33920
4453,33856
4454,33856
4455,33856
4456,33856
4457,33792
4458,33792
4459,33792
4460,33856
4461,33728
4462,33664
4463,33664
4464,33664
4465,33664
4466,33536
4467,33472
4468,33344
4469,33280
4470,33280
4471,33344
4472,33408
4473,33472
4474,33536
4475,33536
4476,33600
4477,33664
4478,33664
4479,33728
4480,33728
4481,33728
4482,33664
4483,33664
4484,33728
4485,33984
4486,34432
4487,35200
4488,36480
4489,38208
4490,40128
4491,42048
4492,43456
4493,43328
4494,41792
4495,39168
4496,35904
4497,32576
4498,29824
4499,28032
4500,27264
4501,27456
4502,28288
4503,29376
4504,30528
4505,31616
4506,32576
4507,33344
4508,33920
4509,34304
4510,34560
4511,34624
4512,34688
4513,34688
4514,34624
4515,34496
4516,34368
4517,34304
4518,34176
4519,34048
4520,33920
4521,33856
4522,33856
4523,33856
4524,33856
4525,33792
4526,33856
4527,33920
4528,33920
4529,33920
4530,33984
4531,33984
4532,33984
4533,33984
4534,34048
4535,34048
4536,34112
4537,34112
4538,34176
4539,34176
4540,34240
4541,34240
4542,34304
4543,34368
4544,34368
4545,34304
4546,34240
4547,34240
4548,34240
4549,34176
4550,34112
4551,34176
4552,34112
4553,33984
4554,33920
4555,33856
4556,33856
4557,33792
4558,33728
4559,33664
4560,33600
4561,33472
4562,33408
4563,33344
4564,33344
4565,33344
4566,33344
4567,33344
4568,33344
4569,33280
4570,33280
4571,33280
4572,33344
4573,33408
4574,33408
4575,33408
4576,33408
4577,33408
4578,33408
4579,33472
4580,33472
4581,33536
4582,33536
4583,33536
4584,33536
4585,33600
4586,33600
4587,33600
4588,33600
4589,33600
4590,33600
4591,33536
4592,33536
4593,33600
4594,33600
4595,33536
4596,33536
4597,33600
4598,33664
4599,33664
4600,33600
4601,33600
4602,33600
4603,33600
4604,33536
4605,33536
4606,33536
4607,33536
4608,33600
4609,33600
4610,33664
4611,33600
4612,33600
4613,33536
4614,33536
4615,33472
4616,33472
4617,33472
4618,33536
4619,33536
4620,33472
4621,33536
4622,33536
4623,33536
4624,33536
4625,33536
4626,33536
4627,33536
4628,33536
4629,33536
4630,33536
4631,33536
4632,33536
4633,33536
4634,33600
4635,33600
4636,33536
4637,33472
4638,33472
4639,33472
4640,33472
4641,33472
4642,33536
4643,33600
4644,33664
4645,33664
4646,33664
4647,33664
4648,33664
4649,33664
4650,33664
4651,33664
4652,33664
4653,33664
4654,33664
4655,33600
4656,33600
4657,33600
4658,33600
4659,33536
4660,33600
4661,33600
4662,33600
4663,33600
4664,33600
4665,33600
4666,33536
4667,33536
4668,33536
4669,33600
4670,33600
4671,33600
4672,33728
4673,33728
4674,33664
4675,33664
4676,33664
4677,33728
4678,33728
4679,33664
4680,33664
4681,33664
4682,33664
4683,33664
4684,33664
4685,33728
4686,33728
4687,33664
4688,33664
4689,33728
4690,33792
4691,33856
4692,33920
4693,33984
4694,34048
4695,34048
4696,34048
4697,34048
4698,33984
4699,33984
4700,33984
4701,33920
4702,33920
4703,33856
4704,33792
4705,33728
4706,33664
4707,33600
4708,33600
4709,33600
4710,33664
4711,33664
4712,33600
4713,33536
4714,33472
4715,33472
4716,33472
4717,33472
4718,33472
4719,33472
4720,33472
4721,33536
4722,33600
4723,33664
4724,33664
4725,33728
4726,33728
4727,33728
4728,33664
4729,33664
4730,33792
4731,34176
4732,34752
4733,35776
4734,37248
4735,39104
4736,41152
4737,43008
4738,43968
4739,43136
4740,40832
4741,37696
4742,34112
4743,30912
4744,28544
4745,27392
4746,27200
4747,27840
4748,28864
4749,29952
4750,31040
4751,32064
4752,32960
4753,33600
4754,34112
4755,34432
4756,34624
4757,34688
4758,34688
4759,34688
4760,34560
4761,34432
4762,34304
4763,34176
4764,34048
4765,33920
4766,33792
4767,33728
4768,33792
4769,33792
4770,33792
4771,33856
4772,33856
4773,33856
4774,33856
4775,33856
4776,33920
4777,33920
4778,33920
4779,33920
4780,34048
4781,34112
4782,34112
4783,34112
4784,34176
4785,34240
4786,34304
4787,34304
4788,34368
4789,34432
4790,34432
4791,34304
4792,34240
4793,34176
4794,34112
4795,34048
4796,34112
4797,34112
4798,34048
4799,33920
4800,33920
4801,33920
4802,33856
4803,33856
4804,33792
4805,33792
4806,33728
4807,33600
4808,33536
4809,33408
4810,33408
4811,33344
4812,33280
4813,33280
4814,33280
4815,33280
4816,33280
4817,33280
4818,33344
4819,33280
4820,33280
4821,33280
4822,33344
4823,33344
4824,33344
4825,33408
4826,33472
4827,33536
4828,33536
4829,33536
4830,33600
4831,33600
4832,33600
4833,33536
4834,33600
4835,33600
4836,33600
4837,33600
4838,33600
4839,33600
4840,33600
4841,33536
4842,33536
4843,33600
4844,33664
4845,33664
4846,33600
4847,33600
4848,33536
4849,33536
4850,33472
4851,33472
4852,33408
4853,33408
4854,33408
4855,33472
4856,33536
4857,33536
4858,33472
4859,33472
4860,33472
4861,33408
4862,33472
4863,33472
4864,33536
4865,33536
4866,33536
4867,33472
4868,33536
4869,33536
4870,33536
4871,33472
4872,33472
4873,33472
4874,33472
4875,33472
4876,33536
4877,33536
4878,33472
4879,33472
4880,33472
4881,33472
4882,33472
4883,33472
4884,33472
4885,33472
4886,33472
4887,33472
4888,33536
4889,33600
4890,33536
4891,33536
4892,33536
4893,33536
4894,33536
4895,33472
4896,33472
4897,33536
4898,33600
4899,33600
4900,33600
4901,33600
4902,33664
4903,33600
4904,33536
4905,33536
4906,33536
4907,33536
4908,33536
4909,33536
4910,33536
4911,33536
4912,33536
4913,33600
4914,33664
4915,33664
4916,33600
4917,33600
4918,33600
4919,33600
4920,33600
4921,33600
4922,33664
4923,33664
4924,33728
4925,33664
4926,33600
4927,33600
4928,33600
4929,33600
4930,33600
4931,33664
4932,33664
4933,33664
4934,33664
4935,33664
4936,33664
4937,33664
4938,33664
4939,33728
4940,33856
4941,33920
4942,33984
4943,33984
4944,33984
4945,33920
4946,33920
4947,33920
4948,33984
4949,33984
4950,33920
4951,33856
4952,33856
4953,33792
4954,33664
4955,33600
4956,33536
4957,33600
4958,33600
4959,33664
4960,33664
4961,33600
4962,33472
4963,33408
4964,33408
4965,33408
4966,33408
4967,33472
4968,33536
4969,33664
4970,33664
4971,33664
4972,33728
4973,33728
4974,33664
4975,33664
4976,33600
4977,33600
4978,33600
4979,33664
4980,34112
4981,34880
4982,35968
4983,37568
4984,39552
4985,41536
4986,43264
4987,43776
4988,42624
4989,40320
4990,37120
4991,33664
4992,30592
4993,28544
4994,27456
4995,27328
4996,27904
4997,28992
4998,30016
4999,31232
5000,32128
5001,33216
5002,33792
5003,34176
5004,34368
5005,34496
5006,34624
5007,34624
5008,34560
5009,34432
5010,34368
5011,34240
5012,34112
5013,34048
5014,33984
5015,33920
5016,33856
5017,33792
5018,33792
5019,33856
5020,33856
5021,33856
5022,33856
5023,33856
5024,33856
5025,33920
5026,33920
5027,33984
5028,33920
5029,33920
5030,33984
5031,33984
5032,34048
5033,34048
5034,34048
5035,34112
5036,34240
5037,34240
5038,34240
5039,34240
5040,34240
5041,34176
5042,34112
5043,34048
5044,34048
5045,34048
5046,34048
5047,34048
5048,33984
5049,33984
5050,33856
5051,33856
5052,33856
5053,33792
5054,33728
5055,33600
5056,33600
5057,33472
5058,33408
5059,33344
5060,33408
5061,33408
5062,33344
5063,33280
5064,33280
5065,33280
5066,33216
5067,33216
5068,33280
5069,33280
5070,33280
5071,33280
5072,33344
5073,33344
5074,33408
5075,33408
5076,33536
5077,33600
5078,33664
5079,33664
5080,33600
5081,33600
5082,33600
5083,33600
5084,33664
5085,33664
5086,33664
5087,33600
5088,33600
5089,33600
5090,33536
5091,33472
5092,33472
5093,33472
5094,33472
5095,33472
5096,33472
5097,33536
5098,33600
5099,33664
5100,33600
5101,33600
5102,33600
5103,33600
5104,33600
5105,33600
5106,33600
5107,33600
5108,33600
5109,33536
5110,33536
5111,33472
5112,33408
5113,33408
5114,33472
5115,33536
5116,33536
5117,33536
5118,33472
5119,33472
5120,33472
5121,33408
5122,33472
5123,33536
5124,33600
5125,33600
5126,33600
5127,33664
5128,33664
5129,33600
5130,33600
5131,33536
5132,33536
5133,33536
5134,33600
5135,33600
5136,33536
5137,33600
5138,33600
5139,33664
5140,33664
5141,33600
5142,33600
5143,33536
5144,33536
5145,33472
5146,33472
5147,33600
5148,33664
5149,33728
5150,33728
5151,33728
5152,33728
5153,33728
5154,33664
5155,33664
5156,33728
5157,33664
5158,33664
5159,33600
5160,33600
5161,33600
5162,33600
5163,33600
5164,33600
5165,33664
5166,33664
5167,33664
5168,33664
5169,33664
5170,33664
5171,33600
5172,33600
5173,33664
5174,33664
5175,33664
5176,33728
5177,33728
5178,33792
5179,33792
5180,33920
5181,34048
5182,34048
5183,33984
5184,33984
5185,33984
5186,34048
5187,33984
5188,33920
5189,33920
5190,33856
5191,33792
5192,33728
5193,33728
5194,33728
5195,33728
5196,33600
5197,33600
5198,33600
5199,33600
5200,33600
5201,33536
5202,33472
5203,33408
5204,33408
5205,33408
5206,33472
5207,33472
5208,33536
5209,33536
5210,33664
5211,33728
5212,33728
5213,33728
5214,33664
5215,33664
5216,33664
5217,33600
5218,33536
5219,33664
5220,33920
5221,34496
5222,35584
5223,36864
5224,38656
5225,40896
5226,43008
5227,43904
5228,43584
5229,41664
5230,38720
5231,35264
5232,31872
5233,29248
5234,27648
5235,27136
5236,27520
5237,28416
5238,29504
5239,30656
5240,31744
5241,32768
5242,33472
5243,34048
5244,34368
5245,34560
5246,34624
5247,34624
5248,34624
5249,34560
5250,34496
5251,34368
5252,34176
5253,34048
5254,33920
5255,33856
5256,33856
5257,33856
5258,33856
5259,33856
5260,33920
5261,33920
5262,33920
5263,33920
5264,33984
5265,33984
5266,33984
5267,33920
5268,33984
5269,34048
5270,34048
5271,34048
5272,34048
5273,34112
5274,34112
5275,34112
5276,34112
5277,34176
5278,34176
5279,34176
5280,34240
5281,34304
5282,34304
5283,34240
5284,34176
5285,34112
5286,34112
5287,34112
5288,34048
5289,34048
5290,34048
5291,33984
5292,33856
5293,33856
5294,33792
5295,33664
5296,33536
5297,33408
5298,33408
5299,33344
5300,33280
5301,33216
5302,33216
5303,33152
5304,33152
5305,33152
5306,33152
5307,33216
5308,33216
5309,33152
5310,33216
5311,33280
5312,33344
5313,33408
5314,33472
5315,33536
5316,33536
5317,33536
5318,33536
5319,33600
5320,33600
5321,33536
5322,33536
5323,33600
5324,33600
5325,33600
5326,33664
5327,33664
5328,33600
5329,33536
5330,33472
5331,33472
5332,33472
5333,33472
5334,33472
5335,33536
5336,33536
5337,33536
5338,33536
5339,33600
5340,33600
5341,33600
5342,33536
5343,33600
5344,33600
5345,33536
5346,33472
5347,33472
5348,33472
5349,33472
5350,33472
5351,33408
5352,33472
5353,33472
5354,33472
5355,33408
5356,33408
5357,33408
5358,33408
5359,33472
5360,33536
5361,33536
5362,33536
5363,33472
5364,33536
5365,33536
5366,33536
5367,33536
5368,33536
5369,33536
5370,33600
5371,33536
5372,33472
5373,33472
5374,33536
5375,33472
5376,33472
5377,33472
5378,33536
5379,33536
5380,33536
5381,33600
5382,33600
5383,33600
5384,33536
5385,33600
5386,33600
5387,33536
5388,33472
5389,33536
5390,33600
5391,33600
5392,33536
5393,33536
5394,33600
5395,33600
5396,33600
5397,33664
5398,33600
5399,33664
5400,33600
5401,33600
5402,33664
5403,33664
5404,33600
5405,33536
5406,33600
5407,33664
5408,33664
5409,33664
5410,33664
5411,33664
5412,33600
5413,33536
5414,33536
5415,33600
5416,33664
5417,33664
5418,33728
5419,33792
5420,33792
5421,33728
5422,33728
5423,33664
5424,33664
5425,33600
5426,33600
5427,33664
5428,33664
5429,33728
5430,33728
5431,33728
5432,33728
5433,33728
5434,33664
5435,33664
5436,33728
5437,33728
5438,33728
5439,33792
5440,33792
5441,33728
5442,33728
5443,33728
5444,33856
5445,33920
5446,33984
5447,34048
5448,34048
5449,34112
5450,34048
5451,34048
5452,34048
5453,34048
5454,33984
5455,33920
5456,33856
5457,33856
5458,33792
5459,33728
5460,33728
5461,33728
5462,33728
5463,33664
5464,33664
5465,33664
5466,33536
5467,33408
5468,33408
5469,33408
5470,33472
5471,33408
5472,33472
5473,33536
5474,33600
5475,33664
5476,33664
5477,33728
5478,33728
5479,33728
5480,33728
5481,33728
5482,33728
5483,33792
5484,34048
5485,34560
5486,35392
5487,36736
5488,38464
5489,40384
5490,42368
5491,43776
5492,43520
5493,41728
5494,38848
5495,35328
5496,31424
5497,29248
5498,27712
5499,27200
5500,27648
5501,28544
5502,29696
5503,30784
5504,31808
5505,32704
5506,33408
5507,33984
5508,34304
5509,34560
5510,34624
5511,34688
5512,34624
5513,34496
5514,34432
5515,34368
5516,34240
5517,34048
5518,33920
5519,33920
5520,33920
5521,33856
5522,33792
5523,33792
5524,33856
5525,33856
5526,33792
5527,33856
5528,33856
5529,33856
5530,33856
5531,33856
5532,33920
5533,33984
5534,34048
5535,34112
5536,34112
5537,34112
5538,34112
5539,34176
5540,34240
5541,34176
5542,34176
5543,34176
5544,34240
5545,34176
5546,34176
5547,34176
5548,34176
5549,34112
5550,34048
5551,34048
5552,34112
5553,34112
5554,34112
5555,34048
5556,34048
5557,33920
5558,33856
5559,33728
5560,33664
5561,33536
5562,33472
5563,33344
5564,33216
5565,33152
5566,33152
5567,33088
5568,33088
5569,33152
5570,33152
5571,33216
5572,33216
5573,33216
5574,33344
5575,33408
5576,33472
5577,33472
5578,33472
5579,33472
5580,33536
5581,33536
5582,33600
5583,33600
5584,33600
5585,33600
5586,33664
5587,33600
5588,33600
5589,33600
5590,33664
5591,33664
5592,33600
5593,33536
5594,33536
5595,33536
5596,33536
5597,33536
5598,33600
5599,33600
5600,33600
5601,33600
5602,33600
5603,33536
5604,33536
5605,33536
5606,33536
5607,33600
5608,33600
5609,33600
5610,33600
5611,33600
5612,33472
5613,33472
5614,33472
5615,33472
5616,33472
5617,33408
5618,33472
5619,33536
5620,33536
5621,33472
5622,33472
5623,33472
5624,33536
5625,33536
5626,33600
5627,33600
5628,33600
5629,33600
5630,33536
5631,33600
5632,33600
5633,33600
5634,33600
5635,33600
5636,33600
5637,33600
5638,33600
5639,33600
5640,33536
5641,33536
5642,33536
5643,33536
5644,33600
5645,33600
5646,33600
5647,33600
5648,33600
5649,33536
5650,33536
5651,33536
5652,33536
5653,33600
5654,33600
5655,33600
5656,33600
5657,33664
5658,33664
5659,33600
5660,33600
5661,33600
5662,33600
5663,33600
5664,33600
5665,33664
5666,33664
5667,33664
5668,33664
5669,33664
5670,33664
5671,33664
5672,33664
5673,33664
5674,33664
5675,33600
5676,33600
5677,33600
5678,33664
5679,33664
5680,33664
5681,33664
5682,33728
5683,33792
5684,33856
5685,33856
5686,33920
5687,33984
5688,33984
5689,33920
5690,33984
5691,33984
5692,33920
5693,33984
5694,33984
5695,33856
5696,33856
5697,33792
5698,33792
5699,33728
5700,33664
5701,33664
5702,33664
5703,33664
5704,33600
5705,33472
5706,33344
5707,33344
5708,33344
5709,33344
5710,33408
5711,33472
5712,33600
5713,33600
5714,33664
5715,33728
5716,33664
5717,33664
5718,33728
5719,33728
5720,33664
5721,33600
5722,33536
5723,33664
5724,33984
5725,34624
5726,35712
5727,37248
5728,39168
5729,41088
5730,42880
5731,43584
5732,42816
5733,40704
5734,37760
5735,34432
5736,30144
5737,28928
5738,27584
5739,27200
5740,27712
5741,28736
5742,29824
5743,30912
5744,31936
5745,32832
5746,33536
5747,34048
5748,34432
5749,34688
5750,34688
5751,34624
5752,34560
5753,34496
5754,34368
5755,34240
5756,34112
5757,34048
5758,33984
5759,33984
5760,33984
5761,33984
5762,33920
5763,33856
5764,33792
5765,33856
5766,33856
5767,33856
5768,33792
5769,33856
5770,33920
5771,33920
5772,33984
5773,34048
5774,34112
5775,34112
5776,34112
5777,34176
5778,34176
5779,34240
5780,34240
5781,34176
5782,34112
5783,34176
5784,34176
5785,34112
5786,34112
5787,34176
5788,34176
5789,34176
5790,34176
5791,34176
5792,34112
5793,34048
5794,33984
5795,33920
5796,33728
5797,33664
5798,33664
5799,33664
5800,33600
5801,33408
5802,33344
5803,33344
5804,33280
5805,33280
5806,33280
5807,33280
5808,33280
5809,33280
5810,33280
5811,33344
5812,33280
5813,33280
5814,33344
5815,33408
5816,33472
5817,33472
5818,33472
5819,33472
5820,33536
5821,33536
5822,33536
5823,33536
5824,33600
5825,33600
5826,33664
5827,33600
5828,33600
5829,33600
5830,33600
5831,33536
5832,33536
5833,33536
5834,33536
5835,33536
5836,33600
5837,33600
5838,33536
5839,33600
5840,33600
5841,33600
5842,33536
5843,33472
5844,33472
5845,33472
5846,33472
5847,33472
5848,33472
5849,33536
5850,33536
5851,33536
5852,33536
5853,33536
5854,33536
5855,33536
5856,33536
5857,33472
5858,33472
5859,33472
5860,33472
5861,33472
5862,33536
5863,33472
5864,33472
5865,33536
5866,33536
5867,33472
5868,33536
5869,33536
5870,33536
5871,33472
5872,33600
5873,33664
5874,33664
5875,33600
5876,33600
5877,33664
5878,33600
5879,33600
5880,33600
5881,33600
5882,33600
5883,33600
5884,33536
5885,33536
5886,33600
5887,33536
5888,33600
5889,33600
5890,33664
5891,33600
5892,33600
5893,33600
5894,33664
5895,33664
5896,33664
5897,33664
5898,33664
5899,33664
5900,33664
5901,33600
5902,33664
5903,33728
5904,33664
5905,33664
5906,33664
5907,33664
5908,33664
5909,33664
5910,33664
5911,33664
5912,33600
5913,33664
5914,33600
5915,33664
5916,33664
5917,33600
5918,33728
5919,33728
5920,33728
5921,33728
5922,33728
5923,33728
5924,33792
5925,33792
5926,33728
5927,33728
5928,33792
5929,33728
5930,33728
5931,33728
5932,33792
5933,33856
5934,33920
5935,33984
5936,34048
5937,34048
5938,34048
5939,34048
5940,34048
5941,33984
5942,33984
5943,33984
5944,33984
5945,33856
5946,33792
5947,33728
5948,33792
5949,33728
5950,33728
5951,33728
5952,33728
5953,33728
5954,33600
5955,33600
5956,33536
5957,33472
5958,33472
5959,33472
5960,33472
5961,33536
5962,33472
5963,33664
5964,33728
5965,33728
5966,33728
5967,33664
5968,33664
5969,33664
5970,33664
5971,33664
5972,33728
5973,34048
5974,34560
5975,35392
5976,36736
5977,38400
5978,40320
5979,42304
5980,43840
5981,43776
5982,42112
5983,39232
5984,35712
5985,32256
5986,29504
5987,27776
5988,27136
5989,27520
5990,28416
5991,29632
5992,29760
5993,31744
5994,32704
5995,33472
5996,33984
5997,34304
5998,34560
5999,34688
6000,34688
6001,34624
6002,34560
6003,34496
6004,34304
6005,34176
6006,34048
6007,33984
6008,33984
6009,33920
6010,33856
6011,33856
6012,33856
6013,33856
6014,33856
6015,33920
6016,33920
6017,33920
6018,33920
6019,33984
6020,33984
6021,33920
6022,33920
6023,33920
6024,33984
6025,34048
6026,34048
6027,34112
6028,34176
6029,34176
6030,34176
6031,34240
6032,34304
6033,34304
6034,34304
6035,34240
6036,34176
6037,34176
6038,34112
6039,34112
6040,34112
6041,34112
6042,34048
6043,34048
6044,34048
6045,33920
6046,33856
6047,33728
6048,33600
6049,33536
6050,33408
6051,33344
6052,33344
6053,33280
6054,33280
6055,33216
6056,33216
6057,33216
6058,33152
6059,33152
6060,33216
6061,33280
6062,33280
6063,33280
6064,33344
6065,33408
6066,33408
6067,33408
6068,33472
6069,33472
6070,33472
6071,33472
6072,33472
6073,33536
6074,33536
6075,33536
6076,33536
6077,33600
6078,33600
6079,33600
6080,33536
6081,33472
6082,33472
6083,33472
6084,33472
6085,33472
6086,33536
6087,33472
6088,33472
6089,33536
6090,33536
6091,33472
6092,33472
6093,33536
6094,33536
6095,33536
6096,33472
6097,33472
6098,33472
6099,33536
6100,33536
6101,33536
6102,33536
6103,33536
6104,33472
6105,33408
6106,33408
6107,33408
6108,33344
6109,33408
6110,33408
6111,33408
6112,33408
6113,33408
6114,33472
6115,33472
6116,33536
6117,33472
6118,33536
6119,33536
6120,33600
6121,33536
6122,33536
6123,33536
6124,33472
6125,33472
6126,33472
6127,33536
6128,33600
6129,33536
6130,33536
6131,33536
6132,33536
6133,33472
6134,33408
6135,33472
6136,33536
6137,33536
6138,33536
6139,33536
6140,33600
6141,33600
6142,33536
6143,33536
6144,33600
6145,33600
6146,33600
6147,33600
6148,33600
6149,33664
6150,33600
6151,33600
6152,33600
6153,33664
6154,33664
6155,33664
6156,33664
6157,33664
6158,33600
6159,33536
6160,33536
6161,33536
6162,33600
6163,33600
6164,33600
6165,33600
6166,33600
6167,33600
6168,33600
6169,33664
6170,33664
6171,33664
6172,33664
6173,33728
6174,33728
6175,33728
6176,33664
6177,33728
6178,33728
6179,33664
6180,33664
6181,33664
6182,33664
6183,33664
6184,33600
6185,33600
6186,33664
6187,33728
6188,33792
6189,33856
6190,33920
6191,33920
6192,33920
6193,33984
6194,33984
6195,33984
6196,33920
6197,33920
6198,33920
6199,33920
6200,33792
6201,33792
6202,33792
6203,33728
6204,33664
6205,33664
6206,33728
6207,33792
6208,33728
6209,33600
6210,33472
6211,33344
6212,33280
6213,33344
6214,33344
6215,33408
6216,33408
6217,33408
6218,33536
6219,33600
6220,33664
6221,33728
6222,33728
6223,33728
6224,33728
6225,33600
6226,33600
6227,33664
6228,33984
6229,34496
6230,35328
6231,36672
6232,38336
6233,40192
6234,42112
6235,43520
6236,43392
6237,41728
6238,39040
6239,35712
6240,32384
6241,29632
6242,27968
6243,27264
6244,27520
6245,28352
6246,29440
6247,30592
6248,31616
6249,32576
6250,33344
6251,33984
6252,34368
6253,34624
6254,34688
6255,34688
6256,34624
6257,34560
6258,34432
6259,34240
6260,34112
6261,34048
6262,34048
6263,33984
6264,33920
6265,33920
6266,33856
6267,33792
6268,33792
6269,33792
6270,33792
6271,33792
6272,33792
6273,33792
6274,33920
6275,33920
6276,33984
6277,33984
6278,34048
6279,34048
6280,34112
6281,34176
6282,34176
6283,34112
6284,34112
6285,34112
6286,34176
6287,34176
6288,34176
6289,34176
6290,34176
6291,34112
6292,34048
6293,33984
6294,33984
6295,34048
6296,34048
6297,34048
6298,34112
6299,34112
6300,33984
6301,33856
6302,33728
6303,33728
6304,33664
6305,33536
6306,33472
6307,33472
6308,33344
6309,33280
6310,33280
6311,33216
6312,33216
6313,33152
6314,33152
6315,33216
6316,33280
6317,33344
6318,33344
6319,33408
6320,33408
6321,33408
6322,33408
6323,33472
6324,33536
6325,33536
6326,33600
6327,33600
6328,33600
6329,33600
6330,33536
6331,33600
6332,33600
6333,33600
6334,33600
6335,33600
6336,33664
6337,33664
6338,33600
6339,33600
6340,33600
6341,33600
6342,33600
6343,33536
6344,33600
6345,33664
6346,33664
6347,33600
6348,33536
6349,33536
6350,33472
6351,33472
6352,33472
6353,33472
6354,33472
6355,33472
6356,33536
6357,33536
6358,33536
6359,33536
6360,33600
6361,33600
6362,33536
6363,33472
6364,33472
6365,33536
6366,33536
6367,33536
6368,33472
6369,33536
6370,33536
6371,33472
6372,33408
6373,33472
6374,33536
6375,33536
6376,33536
6377,33536
6378,33536
6379,33600
6380,33600
6381,33600
6382,33664
6383,33600
6384,33600
6385,33600
6386,33664
6387,33664
6388,33664
6389,33664
6390,33600
6391,33536
6392,33472
6393,33408
6394,33472
6395,33536
6396,33536
6397,33536
6398,33600
6399,33664
6400,33600
6401,33600
6402,33600
6403,33600
6404,33664
6405,33664
6406,33664
6407,33728
6408,33664
6409,33600
6410,33600
6411,33664
6412,33728
6413,33792
6414,33856
6415,33856
6416,33920
6417,33920
6418,33984
6419,33984
6420,33984
6421,33920
6422,33920
6423,33984
6424,33984
6425,33920
6426,33856
6427,33792
6428,33792
6429,33728
6430,33728
6431,33664
6432,33728
6433,33728
6434,33664
6435,33536
6436,33472
6437,33408
6438,33408
6439,33344
6440,33408
6441,33408
6442,33344
6443,33344
6444,33408
6445,33536
6446,33600
6447,33664
6448,33728
6449,33728
6450,33664
6451,33600
6452,33536
6453,33664
6454,33920
6455,34432
6456,35392
6457,36736
6458,38400
6459,40256
6460,42176
6461,43520
6462,43328
6463,41664
6464,38976
6465,35712
6466,32384
6467,29760
6468,27968
6469,27264
6470,27456
6471,28288
6472,29312
6473,30464
6474,31616
6475,32512
6476,33280
6477,33920
6478,34304
6479,34560
6480,34752
6481,34816
6482,34752
6483,34624
6484,34432
6485,34304
6486,34176
6487,34048
6488,33984
6489,33856
6490,33920
6491,33856
6492,33856
6493,33792
6494,33792
6495,33856
6496,33856
6497,33856
6498,33920
6499,33984
6500,33984
6501,33984
6502,34048
6503,34048
6504,34048
6505,34048
6506,34048
6507,34112
6508,34112
6509,34176
6510,34176
6511,34240
6512,34240
6513,34240
6514,34240
6515,34304
6516,34304
6517,34240
6518,34176
6519,34112
6520,34176
6521,34112
6522,34112
6523,34112
6524,34048
6525,33984
6526,33920
6527,33792
6528,33728
6529,33600
6530,33472
6531,33408
6532,33344
6533,33280
6534,33280
6535,33280
6536,33280
6537,33280
6538,33280
6539,33280
6540,33280
6541,33344
6542,33344
6543,33408
6544,33408
6545,33408
6546,33408
6547,33344
6548,33408
6549,33536
6550,33536
6551,33536
6552,33472
6553,33472
6554,33536
6555,33536
6556,33600
6557,33600
6558,33664
6559,33664
6560,33664
6561,33600
6562,33600
6563,33600
6564,33600
6565,33664
6566,33664
6567,33600
6568,33536
6569,33536
6570,33472
6571,33536
6572,33536
6573,33536
6574,33536
6575,33536
6576,33536
6577,33536
6578,33536
6579,33536
6580,33536
6581,33536
6582,33600
6583,33536
6584,33472
6585,33408
6586,33408
6587,33472
6588,33472
6589,33472
6590,33536
6591,33600
6592,33536
6593,33536
6594,33536
6595,33600
6596,33536
6597,33536
6598,33472
6599,33536
6600,33536
6601,33472
6602,33536
6603,33600
6604,33600
6605,33536
6606,33536
6607,33536
6608,33600
6609,33600
6610,33600
6611,33600
6612,33600
6613,33664
6614,33664
6615,33664
6616,33664
6617,33664
6618,33600
6619,33600
6620,33600
6621,33600
6622,33536
6623,33536
6624,33600
6625,33600
6626,33600
6627,33600
6628,33600
6629,33664
6630,33664
6631,33600
6632,33664
6633,33664
6634,33664
6635,33664
6636,33728
6637,33792
6638,33728
6639,33664
6640,33664
6641,33664
6642,33664
6643,33600
6644,33600
6645,33600
6646,33600
6647,33664
6648,33664
6649,33792
6650,33792
6651,33728
6652,33728
6653,33664
6654,33664
6655,33664
6656,33664
6657,33728
6658,33728
6659,33728
6660,33728
6661,33792
6662,33792
6663,33728
6664,33664
6665,33664
6666,33728
6667,33728
6668,33728
6669,33728
6670,33728
6671,33664
6672,33664
6673,33728
6674,33920
6675,33984
6676,34048
6677,34048
6678,34112
6679,34048
6680,34048
6681,34048
6682,34048
6683,33984
6684,33920
6685,33920
6686,33856
6687,33856
6688,33792
6689,33728
6690,33728
6691,33728
6692,33664
6693,33664
6694,33664
6695,33600
6696,33536
6697,33408
6698,33344
6699,33408
6700,33408
6701,33472
6702,33472
6703,33536
6704,33600
6705,33664
6706,33728
6707,33792
6708,33792
6709,33728
6710,33728
6711,33728
6712,33728
6713,33728
6714,33920
6715,34368
6716,35072
6717,36160
6718,37696
6719,39552
6720,41536
6721,43328
6722,43904
6723,42688
6724,40000
6725,36928
6726,33216
6727,30272
6728,28160
6729,27200
6730,27264
6731,28096
6732,29184
6733,30272
6734,31424
6735,32384
6736,33216
6737,33856
6738,34240
6739,34496
6740,34560
6741,34624
6742,34560
6743,34496
6744,34496
6745,34368
6746,34304
6747,34176
6748,34048
6749,33984
6750,33856
6751,33856
6752,33792
6753,33792
6754,33792
6755,33728
6756,33728
6757,33792
6758,33856
6759,33920
6760,33920
6761,33920
6762,33856
6763,33920
6764,33984
6765,34048
6766,34176
6767,34240
6768,34176
6769,34176
6770,34240
6771,34240
6772,34176
6773,34176
6774,34176
6775,34176
6776,34176
6777,34176
6778,34176
6779,34240
6780,34176
6781,34112
6782,34048
6783,34048
6784,33984
6785,33920
6786,33920
6787,33856
6788,33728
6789,33664
6790,33600
6791,33600
6792,33600
6793,33600
6794,33472
6795,33408
6796,33344
6797,33280
6798,33216
6799,33280
6800,33344
6801,33280
6802,33216
6803,33216
6804,33280
6805,33280
6806,33344
6807,33408
6808,33472
6809,33536
6810,33536
6811,33600
6812,33600
6813,33600
6814,33600
6815,33536
6816,33536
6817,33600
6818,33600
6819,33600
6820,33664
6821,33664
6822,33600
6823,33600
6824,33600
6825,33536
6826,33536
6827,33536
6828,33536
6829,33600
6830,33600
6831,33664
6832,33664
6833,33600
6834,33536
6835,33536
6836,33536
6837,33536
6838,33472
6839,33472
6840,33472
6841,33536
6842,33472
6843,33472
6844,33472
6845,33472
6846,33472
6847,33536
6848,33600
6849,33600
6850,33600
6851,33472
6852,33472
6853,33472
6854,33536
6855,33536
6856,33472
6857,33472
6858,33472
6859,33472
6860,33472
6861,33536
6862,33600
6863,33600
6864,33600
6865,33600
6866,33600
6867,33600
6868,33536
6869,33536
6870,33600
6871,33600
6872,33600
6873,33600
6874,33600
6875,33600
6876,33536
6877,33536
6878,33664
6879,33664
6880,33664
6881,33600
6882,33600
6883,33664
6884,33600
6885,33600
6886,33536
6887,33536
6888,33536
6889,33536
6890,33536
6891,33600
6892,33600
6893,33600
6894,33600
6895,33664
6896,33664
6897,33664
6898,33728
6899,33728
6900,33728
6901,33664
6902,33664
6903,33600
6904,33664
6905,33600
6906,33600
6907,33600
6908,33600
6909,33600
6910,33600
6911,33664
6912,33664
6913,33664
6914,33664
6915,33664
6916,33728
6917,33664
6918,33664
6919,33728
6920,33728
6921,33792
6922,33792
6923,33792
6924,33792
6925,33792
6926,33792
6927,33792
6928,33792
6929,33792
6930,33728
6931,33728
6932,33728
6933,33728
6934,33792
6935,33856
6936,33920
6937,33984
6938,33984
6939,33984
6940,33984
6941,33984
6942,33984
6943,33984
6944,33984
6945,34048
6946,34048
6947,33920
6948,33920
6949,33920
6950,33856
6951,33792
6952,33728
6953,33728
6954,33728
6955,33664
6956,33600
6957,33536
6958,33472
6959,33408
6960,33344
6961,33408
6962,33472
6963,33536
6964,33600
6965,33728
6966,33792
6967,33856
6968,33792
6969,33792
6970,33792
6971,33728
6972,33664
6973,33600
6974,33664
6975,33856
6976,34304
6977,35136
6978,36416
6979,38144
6980,39936
6981,41920
6982,43392
6983,43520
6984,42176
6985,39744
6986,36544
6987,33152
6988,30272
6989,28352
6990,27392
6991,27392
6992,28096
6993,29120
6994,30272
6995,31424
6996,32384
6997,33216
6998,33856
6999,34304
7000,34560
7001,34624
7002,34688
7003,34624
7004,34560
7005,34496
7006,34368
7007,34240
7008,34176
7009,34048
7010,33920
7011,33856
7012,33856
7013,33856
7014,33856
7015,33856
7016,33856
7017,33856
7018,33856
7019,33856
7020,33920
7021,33984
7022,33984
7023,34048
7024,34112
7025,34176
7026,34048
7027,34048
7028,34112
7029,34176
7030,34176
7031,34176
7032,34304
7033,34304
7034,34176
7035,34048
7036,34048
7037,34048
7038,34112
7039,34112
7040,34112
7041,34112
7042,34176
7043,34176
7044,34176
7045,34176
7046,34112
7047,34112
7048,34112
7049,33984
7050,33856
7051,33664
7052,33536
7053,33536
7054,33536
7055,33408
7056,33344
7057,33280
7058,33216
7059,33216
7060,33216
7061,33280
7062,33344
7063,33344
7064,33344
7065,33344
7066,33472
7067,33536
7068,33536
7069,33472
7070,33600
7071,33664
7072,33600
7073,33536
7074,33536
7075,33600
7076,33600
7077,33536
7078,33472
7079,33472
7080,33536
7081,33536
7082,33600
7083,33664
7084,33664
7085,33600
7086,33728
7087,33792
7088,33728
7089,33664
7090,33536
7091,33472
7092,33472
7093,33408
7094,33408
7095,33408
7096,33408
7097,33408
7098,33472
7099,33536
7100,33600
7101,33664
7102,33728
7103,33792
7104,33856
7105,33728
7106,33600
7107,33408
7108,33408
7109,33344
7110,33280
7111,33344
7112,33408
7113,33408
7114,33472
7115,33600
7116,33728
7117,33728
7118,33792
7119,33728
7120,33664
7121,33728
7122,33728
7123,33664
7124,33536
7125,33536
7126,33472
7127,33408
7128,33408
7129,33472
7130,33536
7131,33536
7132,33600
7133,33600
7134,33664
7135,33792
7136,33792
7137,33792
7138,33728
7139,33728
7140,33664
7141,33600
7142,33536
7143,33536
7144,33600
7145,33600
7146,33536
7147,33472
7148,33472
7149,33600
7150,33728
7151,33856
7152,33856
7153,33792
7154,33792
7155,33792
7156,33856
7157,33856
7158,33856
7159,33856
7160,33856
7161,33728
7162,33664
7163,33536
7164,33408
7165,33472
7166,33536
7167,33600
7168,33600
7169,33600
7170,33728
7171,33856
7172,33856
7173,33856
7174,33920
7175,33984
7176,33920
7177,33792
7178,33664
7179,33600
7180,33664
7181,33728
7182,33792
7183,33920
7184,33984
7185,33984
7186,34048
7187,34112
7188,34240
7189,34176
7190,33984
7191,33984
7192,34112
7193,34112
7194,33792
7195,33536
7196,33280
7197,33216
7198,33216
7199,33280
7200,33344
7201,33408
7202,33344
7203,33408
7204,33472
7205,33536
7206,33600
7207,33728
7208,33856
7209,34048
7210,34048
7211,33792
7212,33472
7213,33280
7214,33216
7215,33216
7216,33280
7217,33408
7218,33536
7219,33856
7220,34496
7221,35712
7222,36928
7223,38592
7224,40640
7225,42688
7226,44224
7227,44032
7228,42176
7229,39104
7230,35328
7231,31616
7232,28864
7233,27264
7234,26752
7235,27200
7236,28224
7237,29440
7238,30656
7239,31744
7240,32704
7241,33536
7242,34112
7243,34560
7244,34752
7245,34944
7246,34880
7247,34688
7248,34496
7249,34176
7250,33856
7251,33728
7252,33664
7253,33664
7254,33792
7255,33856
7256,33856
7257,33856
7258,33920
7259,34048
7260,34112
7261,34112
7262,34048
7263,34048
7264,34048
7265,33984
7266,33856
7267,33728
7268,33664
7269,33664
7270,33728
7271,33920
7272,34048
7273,34176
7274,34240
7275,34304
7276,34368
7277,34368
7278,34432
7279,34432
7280,34496
7281,34560
7282,34432
7283,34240
7284,34240
7285,34176
7286,33984
7287,33792
7288,33664
7289,33664
7290,33664
7291,33728
7292,33792
7293,33792
7294,33728
7295,33728
7296,33664
7297,33600
7298,33536
7299,33472
7300,33472
7301,33408
7302,33344
7303,33216
7304,33152
7305,33152
7306,33088
7307,32960
7308,33024
7309,33088
7310,33088
7311,33152
7312,33216
7313,33344
7314,33472
7315,33600
7316,33600
7317,33600
7318,33664
7319,33728
7320,33728
7321,33664
7322,33536
7323,33408
7324,33344
7325,33344
7326,33344
7327,33344
7328,33344
7329,33408
7330,33472
7331,33472
7332,33536
7333,33536
7334,33536
7335,33536
7336,33536
7337,33536
7338,33536
7339,33536
7340,33536
7341,33664
7342,33728
7343,33600
7344,33536
7345,33472
7346,33472
7347,33408
7348,33408
7349,33344
7350,33280
7351,33216
7352,33152
7353,33280
7354,33344
7355,33472
7356,33472
7357,33472
7358,33472
7359,33600
7360,33728
7361,33728
7362,33664
7363,33536
7364,33408
7365,33344
7366,33280
7367,33344
7368,33344
7369,33472
7370,33536
7371,33664
7372,33728
7373,33728
7374,33600
7375,33472
7376,33344
7377,33280
7378,33344
7379,33472
7380,33536
7381,33600
7382,33536
7383,33536
7384,33536
7385,33536
7386,33536
7387,33536
7388,33600
7389,33728
7390,33856
7391,33856
7392,33792
7393,33600
7394,33408
7395,33344
7396,33280
7397,33280
7398,33344
7399,33472
7400,33600
7401,33664
7402,33728
7403,33728
7404,33728
7405,33728
7406,33728
7407,33728
7408,33728
7409,33728
7410,33664
7411,33664
7412,33600
7413,33600
7414,33600
7415,33600
7416,33600
7417,33664
7418,33728
7419,33728
7420,33728
7421,33664
7422,33664
7423,33664
7424,33664
7425,33664
7426,33664
7427,33728
7428,33728
7429,33728
7430,33664
7431,33600
7432,33600
7433,33728
7434,33728
7435,33728
7436,33728
7437,33728
7438,33856
7439,33920
7440,33984
7441,34048
7442,34048
7443,33920
7444,33920
7445,33856
7446,33856
7447,33856
7448,33920
7449,33984
7450,33984
7451,33920
7452,33856
7453,33856
7454,33856
7455,33856
7456,33920
7457,33920
7458,33856
7459,33792
7460,33536
7461,33344
7462,33216
7463,33152
7464,33216
7465,33344
7466,33472
7467,33600
7468,33664
7469,33728
7470,33728
7471,33728
7472,33664
7473,33664
7474,33728
7475,33728
7476,33728
7477,33664
7478,33664
7479,33856
7480,34240
7481,34880
7482,35904
7483,37312
7484,39040
7485,40960
7486,42752
7487,43584
7488,42880
7489,40832
7490,37824
7491,33344
7492,31296
7493,28992
7494,27584
7495,27264
7496,27712
7497,28736
7498,29888
7499,31040
7500,32128
7501,33024
7502,33664
7503,34112
7504,34432
7505,34560
7506,34688
7507,34688
7508,34560
7509,34432
7510,34304
7511,34240
7512,34112
7513,34048
7514,33920
7515,33856
7516,33792
7517,33856
7518,33856
7519,33856
7520,33856
7521,33920
7522,33920
7523,33920
7524,33984
7525,34048
7526,34048
7527,34048
7528,33984
7529,33984
7530,34048
7531,34048
7532,34048
7533,33984
7534,33984
7535,34048
7536,34112
7537,34112
7538,34176
7539,34240
7540,34304
7541,34304
7542,34240
7543,34176
7544,34112
7545,34048
7546,34112
7547,34176
7548,34048
7549,33920
7550,33920
7551,33856
7552,33856
7553,33728
7554,33728
7555,33728
7556,33664
7557,33600
7558,33536
7559,33536
7560,33472
7561,33408
7562,33344
7563,33344
7564,33344
7565,33280
7566,33280
7567,33280
7568,33344
7569,33344
7570,33472
7571,33536
7572,33536
7573,33536
7574,33536
7575,33536
7576,33536
7577,33472
7578,33408
7579,33408
7580,33408
7581,33472
7582,33472
7583,33536
7584,33664
7585,33728
7586,33728
7587,33728
7588,33792
7589,33728
7590,33664
7591,33728
7592,33792
7593,33728
7594,33664
7595,33600
7596,33600
7597,33536
7598,33408
7599,33408
7600,33408
7601,33472
7602,33472
7603,33472
7604,33536
7605,33536
7606,33600
7607,33600
7608,33664
7609,33728
7610,33664
7611,33600
7612,33472
7613,33536
7614,33536
7615,33536
7616,33536
7617,33472
7618,33408
7619,33408
7620,33408
7621,33408
7622,33408
7623,33408
7624,33536
7625,33600
7626,33600
7627,33600
7628,33664
7629,33664
7630,33664
7631,33728
7632,33664
7633,33600
7634,33600
7635,33536
7636,33472
7637,33472
7638,33472
7639,33536
7640,33600
7641,33728
7642,33728
7643,33664
7644,33664
7645,33664
7646,33664
7647,33728
7648,33728
7649,33664
7650,33664
7651,33664
7652,33600
7653,33472
7654,33472
7655,33536
7656,33536
7657,33600
7658,33600
7659,33600
7660,33600
7661,33600
7662,33664
7663,33664
7664,33728
7665,33856
7666,33920
7667,33984
7668,34048
7669,34048
7670,33984
7671,33920
7672,33792
7673,33728
7674,33664
7675,33728
7676,33792
7677,33856
7678,33920
7679,33920
7680,33920
7681,33920
7682,33856
7683,33728
7684,33664
7685,33664
7686,33600
7687,33728
7688,33664
7689,33536
7690,33408
7691,33344
7692,33280
7693,33280
7694,33280
7695,33344
7696,33408
7697,33472
7698,33600
7699,33728
7700,33664
7701,33728
7702,33728
7703,33792
7704,33728
7705,33664
7706,33728
7707,34176
7708,34944
7709,35968
7710,37312
7711,38976
7712,40960
7713,42880
7714,43840
7715,43200
7716,42944
7717,38208
7718,34688
7719,31360
7720,28864
7721,27456
7722,27136
7723,27648
7724,28672
7725,29824
7726,30976
7727,32128
7728,33088
7729,33920
7730,34432
7731,34432
7732,34496
7733,34560
7734,34496
7735,34368
7736,34368
7737,34304
7738,34240
7739,34176
7740,34112
7741,34176
7742,34112
7743,34048
7744,33984
7745,34048
7746,33984
7747,33920
7748,33856
7749,33728
7750,33728
7751,33728
7752,33792
7753,33856
7754,33984
7755,34048
7756,34048
7757,34112
7758,34176
7759,34240
7760,34304
7761,34240
7762,34304
7763,34240
7764,34240
7765,34240
7766,34304
7767,34368
7768,34304
7769,34304
7770,34304
7771,34240
7772,34176
7773,34112
7774,34112
7775,34112
7776,34112
7777,34112
7778,34112
7779,33920
7780,33728
7781,33600
7782,33600
7783,33472
7784,33408
7785,33280
7786,33280
7787,33344
7788,33280
7789,33280
7790,33280
7791,33280
7792,33216
7793,33280
7794,33280
7795,33280
7796,33280
7797,33280
7798,33344
7799,33408
7800,33472
7801,33536
7802,33536
7803,33600
7804,33600
7805,33472
7806,33472
7807,33536
7808,33536
7809,33472
7810,33408
7811,33344
7812,33344
7813,33408
7814,33408
7815,33408
7816,33472
7817,33472
7818,33536
7819,33600
7820,33728
7821,33664
7822,33792
7823,33792
7824,33728
7825,33664
7826,33600
7827,33536
7828,33536
7829,33472
7830,33472
7831,33472
7832,33536
7833,33536
7834,33600
7835,33728
7836,33664
7837,33600
7838,33472
7839,33280
7840,33216
7841,33216
7842,33216
7843,33216
7844,33280
7845,33344
7846,33408
7847,33472
7848,33536
7849,33600
7850,33664
7851,33728
7852,33728
7853,33664
7854,33664
7855,33664
7856,33664
7857,33664
7858,33664
7859,33600
7860,33536
7861,33472
7862,33472
7863,33472
7864,33472
7865,33536
7866,33600
7867,33664
7868,33664
7869,33728
7870,33728
7871,33728
7872,33728
7873,33728
7874,33728
7875,33792
7876,33792
7877,33728
7878,33664
7879,33664
7880,33664
7881,33600
7882,33536
7883,33472
7884,33408
7885,33408
7886,33472
7887,33536
7888,33600
7889,33664
7890,33728
7891,33728
7892,33792
7893,33792
7894,33792
7895,33856
7896,33856
7897,33856
7898,33856
7899,33920
7900,33920
7901,33856
7902,33728
7903,33664
7904,33600
7905,33472
7906,33472
7907,33472
7908,33600
7909,33664
7910,33728
7911,33728
7912,33728
7913,33728
7914,33792
7915,33856
7916,33920
7917,34048
7918,34112
7919,34112
7920,34112
7921,34112
7922,33984
7923,33984
7924,33984
7925,33984
7926,33856
7927,33728
7928,33664
7929,33728
7930,33728
7931,33728
7932,33728
7933,33792
7934,33856
7935,33856
7936,33792
7937,33728
7938,33664
7939,33664
7940,33600
7941,33600
7942,33600
7943,33536
7944,33472
7945,33408
7946,33408
7947,33472
7948,33536
7949,33664
7950,33728
7951,33728
7952,33792
7953,33856
7954,33856
7955,33920
7956,34112
7957,34496
7958,35200
7959,36352
7960,37888
7961,39744
7962,41792
7963,43520
7964,44032
7965,42752
7966,40192
7967,36864
7968,33344
7969,30208
7970,28160
7971,27136
7972,27200
7973,27968
7974,29120
7975,30272
7976,31424
7977,32448
7978,33216
7979,33856
7980,34304
7981,34560
7982,34752
7983,34752
7984,34688
7985,34560
7986,34432
7987,34304
7988,34176
7989,34048
7990,33984
7991,33920
7992,33856
7993,33856
7994,33792
7995,33856
7996,33856
7997,33920
7998,33920
7999,34048
8000,34112
8001,34112
8002,33984
8003,33856
8004,33920
8005,33920
8006,33984
8007,33984
8008,34048
8009,34048
8010,34048
8011,34112
8012,34176
8013,34240
8014,34240
8015,34240
8016,34304
8017,34304
8018,34304
8019,34304
8020,34240
8021,34304
8022,34240
8023,34176
8024,34176
8025,34112
8026,34112
8027,34048
8028,33984
8029,33920
8030,33856
8031,33728
8032,33664
8033,33664
8034,33600
8035,33536
8036,33408
8037,33280
8038,33280
8039,33216
8040,33216
8041,33280
8042,33280
8043,33280
8044,33280
8045,33344
8046,33472
8047,33472
8048,33472
8049,33472
8050,33536
8051,33600
8052,33664
8053,33728
8054,33728
8055,33728
8056,33664
8057,33600
8058,33536
8059,33536
8060,33472
8061,33536
8062,33536
8063,33600
8064,33600
8065,33600
8066,33664
8067,33728
8068,33664
8069,33664
8070,33664
8071,33664
8072,33600
8073,33600
8074,33600
8075,33600
8076,33664
8077,33728
8078,33728
8079,33728
8080,33664
8081,33600
8082,33536
8083,33472
8084,33472
8085,33408
8086,33408
8087,33408
8088,33472
8089,33472
8090,33472
8091,33536
8092,33536
8093,33536
8094,33536
8095,33600
8096,33600
8097,33600
8098,33600
8099,33600
8100,33664
8101,33664
8102,33664
8103,33664
8104,33664
8105,33664
8106,33664
8107,33664
8108,33600
8109,33536
8110,33472
8111,33408
8112,33408
8113,33408
8114,33408
8115,33408
8116,33472
8117,33536
8118,33600
8119,33664
8120,33728
8121,33792
8122,33728
8123,33664
8124,33664
8125,33664
8126,33664
8127,33664
8128,33600
8129,33600
8130,33600
8131,33536
8132,33536
8133,33600
8134,33664
8135,33664
8136,33664
8137,33664
8138,33664
8139,33664
8140,33664
8141,33728
8142,33728
8143,33728
8144,33792
8145,33792
8146,33920
8147,33984
8148,33920
8149,33856
8150,33920
8151,33920
8152,33856
8153,33856
8154,33920
8155,33920
8156,33920
8157,33856
8158,33856
8159,33856
8160,33792
8161,33728
8162,33664
8163,33664
8164,33664
8165,33664
8166,33664
8167,33664
8168,33600
8169,33472
8170,33408
8171,33408
8172,33408
8173,33472
8174,33536
8175,33600
8176,33664
8177,33728
8178,33728
8179,33792
8180,33792
8181,33728
8182,33664
8183,33664
8184,33600
8185,33600
8186,33920
8187,34560
8188,35712
8189,37312
8190,39232
8191,41216
8192,43008
8193,43648
8194,42752
8195,40640
8196,37504
8197,34240
8198,31168
8199,28864
8200,27584
8201,27264
8202,27712
8203,28736
8204,29888
8205,31040
8206,32128
8207,32960
8208,33728
8209,34240
8210,34496
8211,34688
8212,34752
8213,34752
8214,34624
8215,34496
8216,34368
8217,34240
8218,34176
8219,34112
8220,34048
8221,34048
8222,33984
8223,33920
8224,33920
8225,33920
8226,33920
8227,33920
8228,33920
8229,33984
8230,33984
8231,33920
8232,33920
8233,33920
8234,33984
8235,33984
8236,34048
8237,34048
8238,34112
8239,34112
8240,34112
8241,34176
8242,34240
8243,34176
8244,34176
8245,34176
8246,34240
8247,34240
8248,34176
8249,34176
8250,34176
8251,34112
8252,34112
8253,34048
8254,34048
8255,34048
8256,34048
8257,33984
8258,33920
8259,33856
8260,33792
8261,33664
8262,33600
8263,33536
8264,33408
8265,33344
8266,33408
8267,33408
8268,33344
8269,33344
8270,33344
8271,33344
8272,33344
8273,33344
8274,33408
8275,33408
8276,33472
8277,33536
8278,33600
8279,33664
8280,33664
8281,33536
8282,33472
8283,33472
8284,33472
8285,33536
8286,33600
8287,33600
8288,33664
8289,33664
8290,33664
8291,33728
8292,33728
8293,33728
8294,33728
8295,33728
8296,33728
8297,33664
8298,33600
8299,33600
8300,33664
8301,33600
8302,33600
8303,33600
8304,33664
8305,33664
8306,33536
8307,33536
8308,33536
8309,33536
8310,33536
8311,33536
8312,33600
8313,33600
8314,33536
8315,33472
8316,33536
8317,33536
8318,33536
8319,33536
8320,33600
8321,33600
8322,33600
8323,33536
8324,33536
8325,33536
8326,33536
8327,33664
8328,33728
8329,33856
8330,33856
8331,33728
8332,33664
8333,33664
8334,33664
8335,33536
8336,33472
8337,33536
8338,33600
8339,33728
8340,33792
8341,33856
8342,33984
8343,33984
8344,33856
8345,33792
8346,33728
8347,33728
8348,33664
8349,33664
8350,33856
8351,33920
8352,33920
8353,33920
8354,33920
8355,33920
8356,33856
8357,33728
8358,33664
8359,33600
8360,33600
8361,33536
8362,33536
8363,33536
8364,33536
8365,33536
8366,33536
8367,33600
8368,33728
8369,33728
8370,33792
8371,33856
8372,33856
8373,33920
8374,33984
8375,33984
8376,33920
8377,33920
8378,33920
8379,33920
8380,33920
8381,33920
8382,33920
8383,33920
8384,33920
8385,33856
8386,33792
8387,33856
8388,33856
8389,33728
8390,33664
8391,33600
8392,33600
8393,33600
8394,33600
8395,33600
8396,33600
8397,33536
8398,33408
8399,33472
8400,33536
8401,33536
8402,33600
8403,33728
8404,33792
8405,33792
8406,33728
8407,33600
8408,33536
8409,33472
8410,33472
8411,33408
8412,33472
8413,33664
8414,33920
8415,34432
8416,35264
8417,36608
8418,38336
8419,40384
8420,42240
8421,43968
8422,43904
8423,42176
8424,39296
8425,35776
8426,32256
8427,29440
8428,27712
8429,27136
8430,27392
8431,28288
8432,29376
8433,30528
8434,31680
8435,32640
8436,33344
8437,33920
8438,34368
8439,34560
8440,34560
8441,34624
8442,34560
8443,34496
8444,34432
8445,34304
8446,34176
8447,34112
8448,34048
8449,34048
8450,33984
8451,33856
8452,33792
8453,33792
8454,33856
8455,33792
8456,33792
8457,33792
8458,33920
8459,33984
8460,33920
8461,33920
8462,33920
8463,33920
8464,33920
8465,33984
8466,34112
8467,34176
8468,34176
8469,34176
8470,34240
8471,34240
8472,34304
8473,34240
8474,34176
8475,34240
8476,34240
8477,34176
8478,34112
8479,34112
8480,34048
8481,34112
8482,34112
8483,34048
8484,33920
8485,33856
8486,33856
8487,33920
8488,33920
8489,33856
8490,33728
8491,33664
8492,33536
8493,33408
8494,33344
8495,33280
8496,33280
8497,33280
8498,33152
8499,33152
8500,33152
8501,33216
8502,33152
8503,33152
8504,33280
8505,33344
8506,33408
8507,33472
8508,33536
8509,33536
8510,33472
8511,33472
8512,33536
8513,33600
8514,33600
8515,33600
8516,33600
8517,33664
8518,33600
8519,33600
8520,33600
8521,33600
8522,33600
8523,33600
8524,33600
8525,33600
8526,33600
8527,33600
8528,33536
8529,33536
8530,33536
8531,33536
8532,33472
8533,33472
8534,33472
8535,33472
8536,33472
8537,33536
8538,33600
8539,33600
8540,33536
8541,33472
8542,33472
8543,33472
8544,33472
8545,33472
8546,33472
8547,33408
8548,33344
8549,33344
8550,33408
8551,33408
8552,33472
8553,33472
8554,33472
8555,33536
8556,33536
8557,33472
8558,33472
8559,33536
8560,33536
8561,33536
8562,33536
8563,33600
8564,33536
8565,33472
8566,33536
8567,33600
8568,33600
8569,33600
8570,33536
8571,33536
8572,33536
8573,33472
8574,33472
8575,33472
8576,33472
8577,33472
8578,33472
8579,33536
8580,33600
8581,33600
8582,33600
8583,33536
8584,33536
8585,33536
8586,33536
8587,33600
8588,33600
8589,33600
8590,33536
8591,33600
8592,33664
8593,33664
8594,33600
8595,33600
8596,33600
8597,33664
8598,33664
8599,33664
8600,33664
8601,33664
8602,33664
8603,33728
8604,33792
8605,33728
8606,33664
8607,33536
8608,33536
8609,33600
8610,33664
8611,33664
8612,33664
8613,33728
8614,33728
8615,33728
8616,33728
8617,33728
8618,33664
8619,33664
8620,33664
8621,33728
8622,33664
8623,33664
8624,33728
8625,33728
8626,33792
8627,33728
8628,33728
8629,33728
8630,33792
8631,33792
8632,33792
8633,33792
8634,33728
8635,33728
8636,33728
8637,33792
8638,33856
8639,33920
8640,33920
8641,33984
8642,34048
8643,34048
8644,34048
8645,33984
8646,33984
8647,34048
8648,34048
8649,34112
8650,34048
8651,33984
8652,33856
8653,33792
8654,33728
8655,33728
8656,33728
8657,33856
8658,33856
8659,33728
8660,33536
8661,33344
8662,33344
8663,33408
8664,33472
8665,33536
8666,33600
8667,33664
8668,33728
8669,33664
8670,33664
8671,33728
8672,33856
8673,33856
8674,33856
8675,33728
8676,33664
8677,33664
8678,33856
8679,34368
8680,35200
8681,36480
8682,38208
8683,40192
8684,42112
8685,43584
8686,43584
8687,42112
8688,39552
8689,36288
8690,32512
8691,30016
8692,28224
8693,27328
8694,27392
8695,28160
8696,29248
8697,30336
8698,31360
8699,32384
8700,33280
8701,33920
8702,34304
8703,34560
8704,34752
8705,34752
8706,34752
8707,34624
8708,34496
8709,34368
8710,34176
8711,34048
8712,33984
8713,33920
8714,33792
8715,33728
8716,33792
8717,33856
8718,33984
8719,33920
8720,33856
8721,33792
8722,33728
8723,33792
8724,33856
8725,33920
8726,33920
8727,33920
8728,33984
8729,34048
8730,34112
8731,34176
8732,34176
8733,34176
8734,34176
8735,34176
8736,34112
8737,34048
8738,34112
8739,34112
8740,34048
8741,34048
8742,34048
8743,34048
8744,34048
8745,34048
8746,34112
8747,34112
8748,34048
8749,33984
8750,33856
8751,33792
8752,33728
8753,33728
8754,33728
8755,33728
8756,33664
8757,33600
8758,33536
8759,33472
8760,33408
8761,33344
8762,33280
8763,33216
8764,33216
8765,33216
8766,33280
8767,33280
8768,33344
8769,33408
8770,33408
8771,33536
8772,33600
8773,33600
8774,33600
8775,33600
8776,33664
8777,33664
8778,33664
8779,33664
8780,33664
8781,33664
8782,33664
8783,33728
8784,33728
8785,33664
8786,33536
8787,33536
8788,33536
8789,33600
8790,33600
8791,33600
8792,33536
8793,33600
8794,33600
8795,33536
8796,33536
8797,33600
8798,33600
8799,33600
8800,33664
8801,33600
8802,33536
8803,33472
8804,33472
8805,33536
8806,33536
8807,33536
8808,33536
8809,33536
8810,33600
8811,33536
8812,33536
8813,33472
8814,33472
8815,33472
8816,33472
8817,33536
8818,33536
8819,33536
8820,33536
8821,33600
8822,33600
8823,33536
8824,33536
8825,33600
8826,33664
8827,33728
8828,33664
8829,33600
8830,33536
8831,33472
8832,33472
8833,33472
8834,33472
8835,33536
8836,33536
8837,33600
8838,33664
8839,33664
8840,33664
8841,33664
8842,33728
8843,33792
8844,33728
8845,33728
8846,33728
8847,33728
8848,33664
8849,33664
8850,33664
8851,33664
8852,33600
8853,33600
8854,33536
8855,33536
8856,33536
8857,33536
8858,33600
8859,33728
8860,33792
8861,33792
8862,33792
8863,33792
8864,33792
8865,33792
8866,33856
8867,33920
8868,33920
8869,34048
8870,34048
8871,34048
8872,34048
8873,33984
8874,33920
8875,33856
8876,33856
8877,33792
8878,33728
8879,33728
8880,33728
8881,33664
8882,33664
8883,33600
8884,33664
8885,33664
8886,33664
8887,33600
8888,33536
8889,33536
8890,33408
8891,33408
8892,33472
8893,33600
8894,33536
8895,33536
8896,33600
8897,33664
8898,33728
8899,33728
8900,33664
8901,33664
8902,33600
8903,33600
8904,33600
8905,33792
8906,34176
8907,34880
8908,36160
8909,37824
8910,39744
8911,41792
8912,43584
8913,44096
8914,42880
8915,40256
8916,36928
8917,33344
8918,30272
8919,28160
8920,27200
8921,27264
8922,27968
8923,29056
8924,30144
8925,31296
8926,32320
8927,33088
8928,33728
8929,34176
8930,34432
8931,34560
8932,34624
8933,34624
8934,34560
8935,34432
8936,34304
8937,34240
8938,34176
8939,34048
8940,33984
8941,33920
8942,33920
8943,33920
8944,33856
8945,33856
8946,33856
8947,33856
8948,33856
8949,33856
8950,33856
8951,33920
8952,33920
8953,33920
8954,33984
8955,34048
8956,34048
8957,34112
8958,34176
8959,34304
8960,34304
8961,34304
8962,34240
8963,34240
8964,34240
8965,34240
8966,34240
8967,34240
8968,34176
8969,34112
8970,34048
8971,33984
8972,33984
8973,33984
8974,33984
8975,34048
8976,34048
8977,33984
8978,33920
8979,33856
8980,33792
8981,33664
8982,33600
8983,33600
8984,33536
8985,33472
8986,33344
8987,33280
8988,33216
8989,33152
8990,33152
8991,33152
8992,33152
8993,33216
8994,33216
8995,33280
8996,33408
8997,33472
8998,33472
8999,33472
9000,33536
9001,33536
9002,33536
9003,33536
9004,33600
9005,33600
9006,33600
9007,33600
9008,33600
9009,33664
9010,33600
9011,33600
9012,33536
9013,33536
9014,33536
9015,33536
9016,33536
9017,33536
9018,33536
9019,33600
9020,33600
9021,33536
9022,33536
9023,33536
9024,33536
9025,33536
9026,33600
9027,33536
9028,33536
9029,33536
9030,33536
9031,33536
9032,33536
9033,33536
9034,33600
9035,33536
9036,33536
9037,33536
9038,33536
9039,33536
9040,33472
9041,33472
9042,33472
9043,33472
9044,33408
9045,33472
9046,33600
9047,33600
9048,33536
9049,33536
9050,33600
9051,33600
9052,33536
9053,33536
9054,33536
9055,33536
9056,33600
9057,33600
9058,33600
9059,33600
9060,33600
9061,33536
9062,33536
9063,33536
9064,33600
9065,33600
9066,33600
9067,33600
9068,33600
9069,33664
9070,33664
9071,33728
9072,33728
9073,33728
9074,33664
9075,33664
9076,33664
9077,33664
9078,33600
9079,33600
9080,33600
9081,33600
9082,33536
9083,33600
9084,33600
9085,33600
9086,33600
9087,33600
9088,33664
9089,33664
9090,33664
9091,33664
9092,33600
9093,33600
9094,33664
9095,33728
9096,33792
9097,33920
9098,33984
9099,33984
9100,33984
9101,33984
9102,33984
9103,33920
9104,33984
9105,34048
9106,33984
9107,33984
9108,33920
9109,33920
9110,33856
9111,33728
9112,33664
9113,33600
9114,33536
9115,33536
9116,33600
9117,33664
9118,33664
9119,33536
9120,33408
9121,33344
9122,33408
9123,33408
9124,33408
9125,33472
9126,33536
9127,33536
9128,33600
9129,33664
9130,33728
9131,33728
9132,33664
9133,33664
9134,33664
9135,33600
9136,33728
9137,34048
9138,34624
9139,35584
9140,36992
9141,39040
9142,40704
9143,42624
9144,43840
9145,43392
9146,41408
9147,38464
9148,35008
9149,31616
9150,29056
9151,27520
9152,27072
9153,27520
9154,28544
9155,29696
9156,31040
9157,31872
9158,32704
9159,33472
9160,34112
9161,34496
9162,34688
9163,34752
9164,34752
9165,34624
9166,34496
9167,34368
9168,34304
9169,34176
9170,34048
9171,33920
9172,33856
9173,33792
9174,33792
9175,33792
9176,33792
9177,33792
9178,33728
9179,33728
9180,33792
9181,33856
9182,33920
9183,33920
9184,33984
9185,33984
9186,33984
9187,34048
9188,34048
9189,34112
9190,34112
9191,34176
9192,34176
9193,34176
9194,34176
9195,34240
9196,34304
9197,34368
9198,34304
9199,34240
9200,34176
9201,34112
9202,34112
9203,34048
9204,34048
9205,34048
9206,34048
9207,34048
9208,34048
9209,33984
9210,33920
9211,33792
9212,33728
9213,33664
9214,33600
9215,33472
9216,33408
9217,33472
9218,33472
9219,33408
9220,33344
9221,33280
9222,33216
9223,33152
9224,33152
9225,33216
9226,33280
9227,33344
9228,33408
9229,33472
9230,33536
9231,33536
9232,33472
9233,33536
9234,33600
9235,33600
9236,33600
9237,33600
9238,33664
9239,33728
9240,33728
9241,33728
9242,33728
9243,33600
9244,33536
9245,33472
9246,33536
9247,33536
9248,33600
9249,33600
9250,33600
9251,33664
9252,33664
9253,33600
9254,33600
9255,33536
9256,33536
9257,33472
9258,33472
9259,33536
9260,33536
9261,33536
9262,33536
9263,33600
9264,33600
9265,33536
9266,33472
9267,33536
9268,33600
9269,33472
9270,33344
9271,33344
9272,33344
9273,33408
9274,33472
9275,33536
9276,33536
9277,33536
9278,33536
9279,33536
9280,33536
9281,33536
9282,33536
9283,33536
9284,33536
9285,33600
9286,33600
9287,33600
9288,33600
9289,33600
9290,33600
9291,33600
9292,33600
9293,33536
9294,33472
9295,33472
9296,33472
9297,33472
9298,33536
9299,33536
9300,33600
9301,33600
9302,33664
9303,33664
9304,33664
9305,33664
9306,33664
9307,33664
9308,33792
9309,33856
9310,33920
9311,33920
9312,33856
9313,33856
9314,33856
9315,33792
9316,33792
9317,33920
9318,33984
9319,33920
9320,33856
9321,33792
9322,33728
9323,33664
9324,33664
9325,33728
9326,33792
9327,33728
9328,33664
9329,33536
9330,33408
9331,33344
9332,33344
9333,33344
9334,33344
9335,33408
9336,33408
9337,33408
9338,33472
9339,33600
9340,33664
9341,33664
9342,33664
9343,33600
9344,33600
9345,33472
9346,33472
9347,33664
9348,34048
9349,34752
9350,35840
9351,37376
9352,39168
9353,41152
9354,43008
9355,43712
9356,42944
9357,40768
9358,37696
9359,34304
9360,31168
9361,28864
9362,27520
9363,27200
9364,27648
9365,28672
9366,30144
9367,30976
9368,32000
9369,32832
9370,33600
9371,34112
9372,34496
9373,34624
9374,34688
9375,34752
9376,34688
9377,34496
9378,34368
9379,34240
9380,34112
9381,34048
9382,33984
9383,33856
9384,33792
9385,33792
9386,33792
9387,33792
9388,33856
9389,33920
9390,33920
9391,33920
9392,33920
9393,33920
9394,33920
9395,33920
9396,33984
9397,34048
9398,34048
9399,34048
9400,34112
9401,34176
9402,34240
9403,34176
9404,34112
9405,34112
9406,34112
9407,34112
9408,34176
9409,34176
9410,34176
9411,34176
9412,34176
9413,34176
9414,34176
9415,34112
9416,34112
9417,34048
9418,34048
9419,33920
9420,33856
9421,33856
9422,33792
9423,33728
9424,33600
9425,33536
9426,33472
9427,33408
9428,33344
9429,33280
9430,33216
9431,33216
9432,33152
9433,33152
9434,33280
9435,33344
9436,33344
9437,33408
9438,33472
9439,33536
9440,33472
9441,33472
9442,33536
9443,33600
9444,33664
9445,33664
9446,33664
9447,33664
9448,33664
9449,33600
9450,33600
9451,33600
9452,33600
9453,33600
9454,33600
9455,33600
9456,33600
9457,33536
9458,33600
9459,33600
9460,33600
9461,33600
9462,33600
9463,33600
9464,33600
9465,33600
9466,33600
9467,33600
9468,33600
9469,33664
9470,33600
9471,33600
9472,33600
9473,33536
9474,33536
9475,33536
9476,33536
9477,33536
9478,33472
9479,33472
9480,33536
9481,33536
9482,33472
9483,33408
9484,33472
9485,33472
9486,33472
9487,33472
9488,33472
9489,33600
9490,33600
9491,33600
9492,33664
9493,33728
9494,33728
9495,33728
9496,33664
9497,33664
9498,33600
9499,33536
9500,33600
9501,33600
9502,33536
9503,33536
9504,33600
9505,33664
9506,33664
9507,33664
9508,33664
9509,33664
9510,33664
9511,33664
9512,33664
9513,33664
9514,33664
9515,33600
9516,33600
9517,33600
9518,33664
9519,33664
9520,33664
9521,33664
9522,33664
9523,33600
9524,33664
9525,33664
9526,33664
9527,33600
9528,33600
9529,33664
9530,33600
9531,33664
9532,33664
9533,33792
9534,33792
9535,33792
9536,33792
9537,33792
9538,33728
9539,33728
9540,33728
9541,33728
9542,33728
9543,33728
9544,33728
9545,33728
9546,33664
9547,33728
9548,33792
9549,33856
9550,33984
9551,33984
9552,34048
9553,34048
9554,34048
9555,34048
9556,33984
9557,33984
9558,33984
9559,33984
9560,33920
9561,33920
9562,33856
9563,33856
9564,33792
9565,33728
9566,33728
9567,33728
9568,33728
9569,33664
9570,33600
9571,33536
9572,33472
9573,33472
9574,33472
9575,33472
9576,33600
9577,33600
9578,33600
9579,33664
9580,33664
9581,33664
9582,33664
9583,33664
9584,33664
9585,33664
9586,33664
9587,33792
9588,34048
9589,34496
9590,34496
9591,35584
9592,36416
9593,39872
9594,41792
9595,43520
9596,43968
9597,42688
9598,40064
9599,36800
9600,33216
9601,30208
9602,28160
9603,27200
9604,27328
9605,28096
9606,29184
9607,30336
9608,31488
9609,32448
9610,33280
9611,33856
9612,34240
9613,34496
9614,34624
9615,34624
9616,34560
9617,34496
9618,34432
9619,34304
9620,34240
9621,34176
9622,34048
9623,33984
9624,33920
9625,33856
9626,33920
9627,33856
9628,33856
9629,33856
9630,33792
9631,33856
9632,33856
9633,33920
9634,33984
9635,33984
9636,33920
9637,33984
9638,33984
9639,33984
9640,34048
9641,34048
9642,34112
9643,34112
9644,34112
9645,34112
9646,34176
9647,34176
9648,34176
9649,34176
9650,34176
9651,34176
9652,34112
9653,34112
9654,34112
9655,34112
9656,34112
9657,34112
9658,34112
9659,34176
9660,34112
9661,33984
9662,33856
9663,33792
9664,33728
9665,33600
9666,33536
9667,33408
9668,33344
9669,33280
9670,33216
9671,33152
9672,33152
9673,33152
9674,33216
9675,33280
9676,33280
9677,33216
9678,33280
9679,33344
9680,33472
9681,33472
9682,33536
9683,33536
9684,33600
9685,33600
9686,33600
9687,33600
9688,33664
9689,33664
9690,33600
9691,33536
9692,33600
9693,33600
9694,33600
9695,33600
9696,33536
9697,33600
9698,33536
9699,33600
9700,33600
9701,33664
9702,33600
9703,33600
9704,33536
9705,33600
9706,33536
9707,33472
9708,33472
9709,33408
9710,33408
9711,33408
9712,33472
9713,33536
9714,33536
9715,33472
9716,33408
9717,33408
9718,33408
9719,33408
9720,33408
9721,33472
9722,33536
9723,33536
9724,33472
9725,33408
9726,33344
9727,33408
9728,33472
9729,33536
9730,33536
9731,33536
9732,33536
9733,33536
9734,33536
9735,33472
9736,33472
9737,33472
9738,33536
9739,33536
9740,33600
9741,33600
9742,33728
9743,33600
9744,33472
9745,33408
9746,33472
9747,33472
9748,33472
9749,33536
9750,33600
9751,33600
9752,33600
9753,33536
9754,33536
9755,33536
9756,33536
9757,33600
9758,33600
9759,33664
9760,33664
9761,33664
9762,33600
9763,33600
9764,33600
9765,33600
9766,33664
9767,33728
9768,33664
9769,33600
9770,33536
9771,33536
9772,33600
9773,33600
9774,33600
9775,33536
9776,33600
9777,33600
9778,33600
9779,33728
9780,33728
9781,33728
9782,33664
9783,33664
9784,33664
9785,33664
9786,33600
9787,33728
9788,33728
9789,33728
9790,33664
9791,33728
9792,33728
9793,33728
9794,33792
9795,33856
9796,33920
9797,33984
9798,33984
9799,33984
9800,33920
9801,33856
9802,33920
9803,33920
9804,33920
9805,33920
9806,33856
9807,33792
9808,33792
9809,33728
9810,33728
9811,33728
9812,33728
9813,33728
9814,33664
9815,33600
9816,33536
9817,33472
9818,33344
9819,33280
9820,33344
9821,33472
9822,33600
9823,33600
9824,33600
9825,33664
9826,33728
9827,33728
9828,33728
9829,33728
9830,33792
9831,33728
9832,33600
9833,33664
9834,33920
9835,34368
9836,35136
9837,36416
9838,38080
9839,40000
9840,41920
9841,43456
9842,43520
9843,42112
9844,39552
9845,36416
9846,33024
9847,30144
9848,28160
9849,27264
9850,27328
9851,28160
9852,29248
9853,30336
9854,31424
9855,32448
9856,33280
9857,33856
9858,34304
9859,34560
9860,34624
9861,34688
9862,34624
9863,34496
9864,34368
9865,34240
9866,34176
9867,34112
9868,34048
9869,33984
9870,33920
9871,33920
9872,33920
9873,33920
9874,33856
9875,33856
9876,33856
9877,33856
9878,33792
9879,33856
9880,33920
9881,33920
9882,33920
9883,33984
9884,34048
9885,34112
9886,34112
9887,34112
9888,34112
9889,34112
9890,34112
9891,34112
9892,34112
9893,34112
9894,34112
9895,34112
9896,34176
9897,34176
9898,34112
9899,34112
9900,34048
9901,34048
9902,34048
9903,34048
9904,33984
9905,33984
9906,33920
9907,33920
9908,33920
9909,33856
9910,33792
9911,33664
9912,33600
9913,33536
9914,33472
9915,33408
9916,33408
9917,33344
9918,33280
9919,33280
9920,33280
9921,33280
9922,33344
9923,33408
9924,33408
9925,33408
9926,33472
9927,33472
9928,33536
9929,33600
9930,33664
9931,33728
9932,33664
9933,33664
9934,33600
9935,33536
9936,33472
9937,33408
9938,33472
9939,33600
9940,33664
9941,33664
9942,33600
9943,33600
9944,33536
9945,33600
9946,33664
9947,33728
9948,33664
9949,33600
9950,33600
9951,33600
9952,33600
9953,33536
9954,33600
9955,33664
9956,33600
9957,33536
9958,33600
9959,33600
9960,33600
9961,33536
9962,33472
9963,33472
9964,33472
9965,33408
9966,33408
9967,33472
9968,33472
9969,33536
9970,33536
9971,33536
9972,33536
9973,33536
9974,33536
9975,33536
9976,33600
9977,33536
9978,33536
9979,33536
9980,33600
9981,33600
9982,33600
9983,33600
9984,33600
9985,33600
9986,33536
9987,33600
9988,33664
9989,33728
9990,33664
9991,33600
9992,33536
9993,33600
9994,33664
9995,33600
9996,33600
9997,33664
9998,33664
9999,33600
10000,33600
10001,33664
10002,33664
10003,33600
10004,33600
10005,33600
10006,33600
10007,33600
10008,33664
10009,33856
10010,33920
10011,33984
10012,33984
10013,34048
10014,34112
10015,34112
10016,33984
10017,33920
10018,33856
10019,33792
10020,33792
10021,33792
10022,33792
10023,33728
10024,33728
10025,33728
10026,33664
10027,33600
10028,33664
10029,33664
10030,33728
10031,33728
10032,33664
10033,33600
10034,33472
10035,33408
10036,33344
10037,33344
10038,33408
10039,33472
10040,33472
10041,33536
10042,33600
10043,33664
10044,33664
10045,33664
10046,33664
10047,33600
10048,33600
10049,33664
10050,33984
10051,34624
10052,35584
10053,36992
10054,38848
10055,40832
10056,42880
10057,43968
10058,43520
10059,41536
10060,38592
10061,35072
10062,31616
10063,29056
10064,27456
10065,26944
10066,27456
10067,28416
10068,29568
10069,30720
10070,31744
10071,32704
10072,33472
10073,34048
10074,34368
10075,34560
10076,34624
10077,34624
10078,34560
10079,34432
10080,34368
10081,34304
10082,34240
10083,34176
10084,34112
10085,33984
10086,33856
10087,33792
10088,33792
10089,33728
10090,33664
10091,33728
10092,33728
10093,33856
10094,33920
10095,33920
10096,33920
10097,33984
10098,33984
10099,33984
10100,34048
10101,34112
10102,34112
10103,34112
10104,34112
10105,34176
10106,34240
10107,34176
10108,34176
10109,34176
10110,34112
10111,34048
10112,34048
10113,34112
10114,34176
10115,34176
10116,34112
10117,34112
10118,34112
10119,34112
10120,34112
10121,34048
10122,33984
10123,33856
10124,33728
10125,33664
10126,33600
10127,33472
10128,33408
10129,33408
10130,33408
10131,33344
10132,33216
10133,33152
10134,33216
10135,33216
10136,33152
10137,33152
10138,33216
10139,33280
10140,33280
10141,33344
10142,33408
10143,33408
10144,33472
10145,33536
10146,33600
10147,33664
10148,33664
10149,33664
10150,33728
10151,33728
10152,33664
10153,33600
10154,33536
10155,33536
10156,33472
10157,33472
10158,33472
10159,33472
10160,33472
10161,33472
10162,33472
10163,33536
10164,33600
10165,33536
10166,33600
10167,33600
10168,33664
10169,33664
10170,33664
10171,33664
10172,33664
10173,33600
10174,33536
10175,33536
10176,33472
10177,33408
10178,33344
10179,33344
10180,33408
10181,33408
10182,33408
10183,33472
10184,33472
10185,33472
10186,33472
10187,33472
10188,33536
10189,33600
10190,33600
10191,33536
10192,33536
10193,33600
10194,33600
10195,33536
10196,33536
10197,33600
10198,33600
10199,33536
10200,33536
10201,33536
10202,33536
10203,33472
10204,33472
10205,33536
10206,33600
10207,33536
10208,33536
10209,33536
10210,33536
10211,33600
10212,33600
10213,33664
10214,33664
10215,33728
10216,33792
10217,33728
10218,33664
10219,33536
10220,33472
10221,33536
10222,33536
10223,33536
10224,33536
10225,33536
10226,33600
10227,33664
10228,33664
10229,33728
10230,33728
10231,33664
10232,33664
10233,33664
10234,33664
10235,33664
10236,33600
10237,33600
10238,33600
10239,33664
10240,33728
10241,33664
10242,33728
10243,33728
10244,33728
10245,33728
10246,33728
10247,33664
10248,33600
10249,33600
10250,33664
10251,33664
10252,33664
10253,33664
10254,33664
10255,33664
10256,33728
10257,33728
10258,33792
10259,33792
10260,33856
10261,33856
10262,33856
10263,33856
10264,33984
10265,33984
10266,34048
10267,34048
10268,34048
10269,33984
10270,33984
10271,33984
10272,33920
10273,33856
10274,33856
10275,33856
10276,33856
10277,33856
10278,33856
10279,33856
10280,33728
10281,33664
10282,33600
10283,33664
10284,33664
10285,33664
10286,33600
10287,33536
10288,33472
10289,33472
10290,33472
10291,33536
10292,33600
10293,33664
10294,33664
10295,33728
10296,33728
10297,33728
10298,33728
10299,33728
10300,33728
10301,33728
10302,33664
10303,33728
10304,33984
10305,34496
10306,35264
10307,36544
10308,38208
10309,40192
10310,42176
10311,43648
10312,43712
10313,42112
10314,39424
10315,36032
10316,32576
10317,29760
10318,28032
10319,27328
10320,27520
10321,28352
10322,29440
10323,30592
10324,31616
10325,32640
10326,33408
10327,33920
10328,34304
10329,34496
10330,34688
10331,34688
10332,34560
10333,34432
10334,34368
10335,34240
10336,34048
10337,33984
10338,33920
10339,33920
10340,33920
10341,33920
10342,33920
10343,33920
10344,33920
10345,33920
10346,33920
10347,33984
10348,33984
10349,33920
10350,33856
10351,33856
10352,33856
10353,33856
10354,33920
10355,33984
10356,33984
10357,34048
10358,34048
10359,34112
10360,34176
10361,34176
10362,34176
10363,34240
10364,34304
10365,34304
10366,34368
10367,34368
10368,34432
10369,34432
10370,34240
10371,34112
10372,33984
10373,33792
10374,33728
10375,33728
10376,33856
10377,33920
10378,33856
10379,33792
10380,33792
10381,33792
10382,33728
10383,33600
10384,33472
10385,33408
10386,33280
10387,33216
10388,33216
10389,33216
10390,33216
10391,33152
10392,33152
10393,33280
10394,33408
10395,33408
10396,33472
10397,33600
10398,33600
10399,33536
10400,33472
10401,33472
10402,33472
10403,33536
10404,33664
10405,33664
10406,33728
10407,33728
10408,33664
10409,33536
10410,33536
10411,33536
10412,33600
10413,33728
10414,33920
10415,33856
10416,33728
10417,33536
10418,33408
10419,33344
10420,33408
10421,33408
10422,33408
10423,33408
10424,33408
10425,33408
10426,33472
10427,33600
10428,33600
10429,33664
10430,33664
10431,33600
10432,33536
10433,33472
10434,33536
10435,33600
10436,33600
10437,33472
10438,33408
10439,33344
10440,33280
10441,33280
10442,33344
10443,33408
10444,33408
10445,33408
10446,33408
10447,33536
10448,33664
10449,33664
10450,33664
10451,33664
10452,33472
10453,33344
10454,33280
10455,33344
10456,33408
10457,33408
10458,33472
10459,33536
10460,33600
10461,33664
10462,33664
10463,33792
10464,33920
10465,33920
10466,33792
10467,33664
10468,33536
10469,33408
10470,33280
10471,33216
10472,33216
10473,33280
10474,33344
10475,33408
10476,33600
10477,33664
10478,33728
10479,33792
10480,33856
10481,33920
10482,33920
10483,33984
10484,33984
10485,33984
10486,33792
10487,33536
10488,33472
10489,33408
10490,33344
10491,33280
10492,33344
10493,33536
10494,33664
10495,33792
10496,33856
10497,33984
10498,34048
10499,34112
10500,34176
10501,34240
10502,34304
10503,34240
10504,34112
10505,33920
10506,33728
10507,33664
10508,33536
10509,33472
10510,33472
10511,33472
10512,33472
10513,33536
10514,33600
10515,33664
10516,33600
10517,33536
10518,33536
10519,33600
10520,33664
10521,33664
10522,33600
10523,33600
10524,33600
10525,33600
10526,33600
10527,33600
10528,33536
10529,33600
10530,33664
10531,33664
10532,33600
10533,33728
10534,34176
10535,34944
10536,36160
10537,37760
10538,39552
10539,41472
10540,43136
10541,43520
10542,42432
10543,40192
10544,37184
10545,33792
10546,30784
10547,28608
10548,27392
10549,27264
10550,27904
10551,29056
10552,30272
10553,31360
10554,32320
10555,33088
10556,33664
10557,33984
10558,34176
10559,34240
10560,34304
10561,34304
10562,34304
10563,34368
10564,34432
10565,34432
10566,34432
10567,34368
10568,34304
10569,34240
10570,34176
10571,34048
10572,34048
10573,33984
10574,33728
10575,33536
10576,33472
10577,33472
10578,33536
10579,33600
10580,33728
10581,33792
10582,33920
10583,34048
10584,34240
10585,34304
10586,34368
10587,34304
10588,34240
10589,34240
10590,34368
10591,34368
10592,34176
10593,33984
10594,33856
10595,33792
10596,33856
10597,33920
10598,34048
10599,34112
10600,34240
10601,34304
10602,34240
10603,34112
10604,33984
10605,33920
10606,33856
10607,33728
10608,33728
10609,33728
10610,33664
10611,33664
10612,33664
10613,33600
10614,33472
10615,33344
10616,33280
10617,33280
10618,33280
10619,33152
10620,33088
10621,33152
10622,33344
10623,33472
10624,33472
10625,33600
10626,33792
10627,33664
10628,33472
10629,33472
10630,33536
10631,33536
10632,33536
10633,33472
10634,33536
10635,33600
10636,33536
10637,33472
10638,33472
10639,33600
10640,33856
10641,33984
10642,33856
10643,33792
10644,33664
10645,33600
10646,33472
10647,33536
10648,33664
10649,33664
10650,33408
10651,33280
10652,33408
10653,33600
10654,33600
10655,33600
10656,33536
10657,33536
10658,33536
10659,33600
10660,33664
10661,33728
10662,33728
10663,33728
10664,33728
10665,33792
10666,33728
10667,33664
10668,33664
10669,33600
10670,33472
10671,33600
10672,33664
10673,33536
10674,33216
10675,33088
10676,33088
10677,33216
10678,33344
10679,33600
10680,33728
10681,33664
10682,33472
10683,33408
10684,33536
10685,33792
10686,33856
10687,33856
10688,33728
10689,33472
10690,33472
10691,33472
10692,33344
10693,33216
10694,33344
10695,33600
10696,33664
10697,33600
10698,33600
10699,33600
10700,33728
10701,33920
10702,33920
10703,33856
10704,33792
10705,33792
10706,33600
10707,33408
10708,33408
10709,33536
10710,33536
10711,33344
10712,33216
10713,33280
10714,33472
10715,33664
10716,33920
10717,34112
10718,34176
10719,34240
10720,34176
10721,33920
10722,33664
10723,33536
10724,33600
10725,33728
10726,33920
10727,33984
10728,33728
10729,33600
10730,33600
10731,33664
10732,33600
10733,33472
10734,33408
10735,33472
10736,33600
10737,33664
10738,33600
10739,33280
10740,33152
10741,33280
10742,33408
10743,33408
10744,33344
10745,33408
10746,33664
10747,33984
10748,33984
10749,33664
10750,33344
10751,33408
10752,33536
10753,33728
10754,33984
10755,34368
10756,35008
10757,36032
10758,37568
10759,39552
10760,41728
10761,43904
10762,44416
10763,43136
10764,40448
10765,37120
10766,33536
10767,30400
10768,28224
10769,27072
10770,26880
10771,27584
10772,28864
10773,30208
10774,31232
10775,32128
10776,32960
10777,33664
10778,34240
10779,34752
10780,35072
10781,34752
10782,34368
10783,34176
10784,34176
10785,34176
10786,34112
10787,34176
10788,33984
10789,33792
10790,33728
10791,33728
10792,33856
10793,33920
10794,33984
10795,33984
10796,33984
10797,34176
10798,34240
10799,33920
10800,33600
10801,33664
10802,33856
10803,33920
10804,33920
10805,33984
10806,33984
10807,34048
10808,34304
10809,34496
10810,34368
10811,34240
10812,34304
10813,34496
10814,34688
10815,34688
10816,34304
10817,33856
10818,33728
10819,33728
10820,33728
10821,33792
10822,33920
10823,34048
10824,34112
10825,34176
10826,34304
10827,34496
10828,34304
10829,33728
10830,33408
10831,33344
10832,33344
10833,33344
10834,33216
10835,33088
10836,33024
10837,32960
10838,33024
10839,33152
10840,33152
10841,33152
10842,33280
10843,33344
10844,33536
10845,33664
10846,33728
10847,33536
10848,33344
10849,33216
10850,33216
10851,33408
10852,33472
10853,33408
10854,33344
10855,33408
10856,33408
10857,33536
10858,33536
10859,33536
10860,33536
10861,33472
10862,33472
10863,33536
10864,33664
10865,33792
10866,33792
10867,33792
10868,33792
10869,33664
10870,33600
10871,33536
10872,33472
10873,33472
10874,33344
10875,33216
10876,33152
10877,33152
10878,33152
10879,33216
10880,33344
10881,33472
10882,33536
10883,33536
10884,33536
10885,33536
10886,33600
10887,33600
10888,33664
10889,33792
10890,33920
10891,33984
10892,33856
10893,33664
10894,33536
10895,33408
10896,33344
10897,33216
10898,33024
10899,32960
10900,33024
10901,33152
10902,33344
10903,33472
10904,33536
10905,33600
10906,33664
10907,33664
10908,33664
10909,33728
10910,33728
10911,33792
10912,33792
10913,33792
10914,33856
10915,33792
10916,33664
10917,33472
10918,33344
10919,33344
10920,33344
10921,33280
10922,33280
10923,33344
10924,33408
