,ECG
0,33536
1,33600
2,33600
3,33664
4,33728
5,33856
6,33920
7,33792
8,33600
9,33600
10,33664
11,33600
12,33536
13,33472
14,33600
15,33728
16,33920
17,34240
18,34304
19,34368
20,34304
21,33920
22,33344
23,32960
24,32704
25,32640
26,32704
27,32832
28,32960
29,33152
30,33216
31,33344
32,33472
33,33536
34,33536
35,33536
36,33536
37,33664
38,33984
39,34624
40,35648
41,37184
42,39104
43,41088
44,43200
45,44864
46,44928
47,43264
48,40192
49,36224
50,32320
51,29312
52,27520
53,26880
54,27200
55,28032
56,29056
57,30016
58,31104
59,32256
60,33280
61,33984
62,34560
63,34752
64,34816
65,34752
66,34688
67,34432
68,34112
69,33856
70,33664
71,33536
72,33408
73,33472
74,33600
75,33856
76,33856
77,33728
78,33664
79,33792
80,33920
81,33920
82,33920
83,33856
84,33664
85,33600
86,33536
87,33536
88,33600
89,33856
90,34176
91,34432
92,34624
93,34688
94,34496
95,34240
96,34112
97,34112
98,33984
99,33664
100,33344
101,33344
102,33472
103,33664
104,33920
105,34304
106,34432
107,34176
108,33792
109,33728
110,33856
111,33984
112,33984
113,34112
114,34176
115,34176
116,33984
117,33920
118,33984
119,34048
120,34176
121,34368
122,34496
123,34496
124,34432
125,34240
126,34112
127,34112
128,33984
129,33728
130,33600
131,33728
132,33984
133,34304
134,34496
135,34496
136,34560
137,34560
138,34432
139,34176
140,33920
141,33920
142,33984
143,33856
144,33728
145,33792
146,34176
147,34560
148,34816
149,34752
150,34560
151,34240
152,33856
153,33600
154,33600
155,33664
156,33856
157,34112
158,34240
159,34176
160,34112
161,34048
162,34112
163,34176
164,34304
165,34368
166,34304
167,34240
168,34240
169,34176
170,34048
171,34048
172,34176
173,34368
174,34432
175,34176
176,33792
177,33600
178,33792
179,33984
180,34176
181,34240
182,34112
183,33984
184,33984
185,33792
186,33664
187,33792
188,34112
189,34368
190,34304
191,34176
192,34240
193,34368
194,34752
195,34880
196,34624
197,34176
198,33856
199,33728
200,33856
201,34112
202,34112
203,33984
204,33984
205,34112
206,34304
207,34368
208,34304
209,34304
210,34304
211,34432
212,34560
213,34688
214,34688
215,34752
216,34880
217,35008
218,34880
219,34560
220,34112
221,33856
222,33856
223,34048
224,34240
225,34176
226,34112
227,34176
228,34176
229,34048
230,33856
231,33472
232,32896
233,32576
234,32896
235,33600
236,34368
237,34752
238,34880
239,34688
240,34496
241,34304
242,34176
243,34112
244,34112
245,34176
246,34304
247,34880
248,36096
249,37632
250,39424
251,41472
252,43584
253,44672
254,44352
255,42624
256,39936
257,36672
258,33088
259,30144
260,28352
261,27648
262,27968
263,28864
264,29952
265,30976
266,32000
267,32832
268,33600
269,34112
270,34304
271,34368
272,34304
273,34368
274,34560
275,34624
276,34496
277,34240
278,33984
279,33856
280,33856
281,33920
282,33984
283,34048
284,34048
285,34048
286,34048
287,34048
288,33920
289,33792
290,33792
291,33920
292,33984
293,34048
294,34048
295,33984
296,33856
297,33792
298,33728
299,33728
300,33664
301,33728
302,33856
303,33984
304,34048
305,34048
306,34112
307,34048
308,33856
309,33728
310,33664
311,33600
312,33600
313,33792
314,33920
315,33856
316,33664
317,33536
318,33600
319,33920
320,34176
321,34368
322,34496
323,34560
324,34560
325,34432
326,34240
327,33984
328,33856
329,33856
330,33856
331,33792
332,33664
333,33664
334,33792
335,34176
336,34304
337,34112
338,34048
339,34176
340,34240
341,34176
342,33856
343,33600
344,33472
345,33536
346,33664
347,33792
348,33920
349,33984
350,34176
351,34240
352,34176
353,34048
354,33920
355,33792
356,33792
357,33792
358,33856
359,33920
360,33792
361,33728
362,33728
363,33728
364,33792
365,33856
366,33856
367,33856
368,33856
369,34048
370,34240
371,34432
372,34560
373,34624
374,34688
375,34624
376,34368
377,34112
378,34112
379,34176
380,34368
381,34496
382,34432
383,34304
384,34176
385,34112
386,34048
387,34048
388,33984
389,33984
390,33920
391,33792
392,33664
393,33536
394,33600
395,33600
396,33536
397,33472
398,33536
399,33600
400,33664
401,33856
402,34176
403,34496
404,34432
405,34112
406,33856
407,33728
408,33728
409,33856
410,34304
411,35200
412,36544
413,38400
414,40512
415,42752
416,44544
417,44864
418,43712
419,41280
420,37952
421,34432
422,31232
423,28992
424,27840
425,27648
426,28224
427,29248
428,30336
429,31296
430,32192
431,33024
432,33536
433,33920
434,34304
435,34560
436,34624
437,34560
438,34496
439,34368
440,34304
441,34176
442,34112
443,34048
444,34048
445,33920
446,33792
447,33664
448,33664
449,33856
450,33984
451,33984
452,33920
453,33792
454,33728
455,33792
456,33856
457,33792
458,33728
459,33728
460,33792
461,33856
462,33792
463,33792
464,33856
465,33920
466,33856
467,33728
468,33600
469,33536
470,33472
471,33536
472,33600
473,33664
474,33600
475,33600
476,33728
477,33792
478,33792
479,33728
480,33728
481,33728
482,33792
483,33792
484,33856
485,33984
486,34176
487,34112
488,34048
489,33920
490,33792
491,33728
492,33728
493,33792
494,33728
495,33728
496,33792
497,33920
498,33984
499,33984
500,33920
501,33920
502,33920
503,33984
504,33984
505,34048
506,34112
507,34176
508,34176
509,34176
510,34176
511,34176
512,34112
513,33920
514,33856
515,33920
516,34048
517,34048
518,33984
519,33856
520,33728
521,33728
522,33792
523,33856
524,33984
525,34048
526,34176
527,34304
528,34496
529,34432
530,34432
531,34560
532,34688
533,34560
534,34368
535,34240
536,34176
537,34240
538,34368
539,34304
540,34176
541,34112
542,34112
543,33984
544,33984
545,34048
546,33984
547,33856
548,33792
549,33664
550,33472
551,33344
552,33344
553,33472
554,33472
555,33536
556,33856
557,33856
558,33792
559,33792
560,33792
561,33920
562,34048
563,34176
564,34240
565,34304
566,34624
567,35328
568,36480
569,38080
570,40000
571,42112
572,43968
573,44608
574,43648
575,41408
576,38272
577,34816
578,31488
579,29120
580,27840
581,27584
582,27584
583,29056
584,29184
585,31360
586,32512
587,33408
588,34048
589,34496
590,34624
591,34688
592,34560
593,34368
594,34240
595,34176
596,34048
597,33984
598,34112
599,34112
600,33984
601,33920
602,33856
603,33984
604,34176
605,34368
606,34368
607,34304
608,34432
609,34560
610,34560
611,34624
612,34752
613,34496
614,33984
615,33792
616,33856
617,33856
618,33664
619,33664
620,33664
621,33728
622,33856
623,33984
624,34176
625,34368
626,34496
627,34560
628,34688
629,34624
630,34368
631,34304
632,34304
633,33920
634,33408
635,33344
636,33600
637,34048
638,34368
639,34624
640,34816
641,34816
642,34752
643,34944
644,34880
645,34752
646,34816
647,34944
648,34944
649,34880
650,35136
651,35712
652,35776
653,35136
654,34752
655,34816
656,34752
657,34688
658,34048
659,33984
660,34304
661,34240
662,33920
663,33728
664,33792
665,33920
666,34048
667,34112
668,34048
669,34048
670,34176
671,34560
672,34688
673,34368
674,33920
675,33600
676,33280
677,33152
678,33280
679,33472
680,33536
681,33408
682,33088
683,32768
684,32576
685,32576
686,32960
687,32960
688,33344
689,33280
690,32960
691,32896
692,32896
693,32704
694,32640
695,32768
696,32768
697,32640
698,32576
699,32384
700,32192
701,32448
702,32384
703,32704
704,32704
705,34304
706,34240
707,33088
708,32128
709,32448
710,32448
711,32064
712,31872
713,32064
714,32768
715,34048
716,35840
717,35840
718,39872
719,39936
720,43584
721,44288
722,43584
723,41472
724,38080
725,34112
726,30592
727,28224
728,27072
729,27328
730,28544
731,29696
732,30400
733,30976
734,31680
735,32704
736,33280
737,33472
738,33600
739,33664
740,33792
741,34048
742,34176
743,34176
744,34112
745,33984
746,33792
747,33600
748,33472
749,33408
750,33472
751,33536
752,33600
753,33664
754,33728
755,33728
756,33728
757,33728
758,33728
759,33728
760,33728
761,33792
762,33600
763,33344
764,33216
765,33024
766,32960
767,32960
768,33024
769,33088
770,33216
771,33344
772,33280
773,33024
774,32832
775,32832
776,32896
777,32960
778,33024
779,33088
780,33152
781,33280
782,33472
783,33600
784,33856
785,34048
786,34304
787,34432
788,34304
789,34176
790,34112
791,34048
792,33984
793,34048
794,33984
795,34048
796,34176
797,34176
798,34240
799,34176
800,34176
801,34176
802,34176
803,34176
804,34240
805,34240
806,34240
807,34240
808,34304
809,34304
810,34496
811,34560
812,34624
813,34624
814,34560
815,34432
816,34304
817,34240
818,34176
819,34112
820,34112
821,34112
822,34112
823,34176
824,34176
825,34240
826,34304
827,34368
828,34432
829,34496
830,34496
831,34496
832,34432
833,34304
834,34176
835,34176
836,34176
837,34176
838,34112
839,34112
840,34048
841,33984
842,33920
843,33920
844,33920
845,33984
846,33920
847,33920
848,33856
849,33728
850,33664
851,33600
852,33600
853,33664
854,33600
855,33728
856,33792
857,33920
858,33984
859,34176
860,34496
861,34752
862,34688
863,34496
864,34240
865,34112
866,34176
867,34432
868,35200
869,36480
870,38080
871,40128
872,42304
873,44032
874,44416
875,43200
876,40896
877,37696
878,34304
879,31232
880,29184
881,28160
882,27968
883,28544
884,29440
885,30528
886,31552
887,32512
888,33216
889,33728
890,34176
891,34432
892,34624
893,34752
894,34816
895,34944
896,34880
897,34560
898,34240
899,34176
900,33984
901,33920
902,33920
903,33920
904,33920
905,33856
906,33856
907,34048
908,34176
909,34112
910,34176
911,34304
912,34368
913,34304
914,34240
915,34176
916,34176
917,34176
918,34048
919,33856
920,33728
921,33728
922,33792
923,33792
924,33920
925,33856
926,33856
927,33728
928,33664
929,33600
930,33664
931,33728
932,33792
933,33856
934,33984
935,34112
936,34240
937,34368
938,34432
939,34368
940,34368
941,34240
942,34176
943,34048
944,33984
945,33984
946,34112
947,34240
948,34240
949,34112
950,33920
951,33728
952,33664
953,33728
954,33792
955,33920
956,33984
957,34112
958,34240
959,34176
960,34304
961,34304
962,34240
963,34112
964,34112
965,34112
966,34048
967,34240
968,34496
969,34624
970,34816
971,34752
972,34240
973,33664
974,33600
975,33472
976,33536
977,33664
978,33792
979,33856
980,33856
981,33984
982,34048
983,34112
984,34112
985,34112
986,34112
987,34240
988,34368
989,34496
990,34688
991,34816
992,34816
993,34560
994,34240
995,34048
996,34048
997,34176
998,34240
999,34304
1000,34304
1001,34240
1002,34112
1003,33920
1004,33856
1005,33792
1006,33856
1007,33984
1008,34048
1009,33984
1010,33920
1011,33792
1012,33600
1013,33472
1014,33472
1015,33408
1016,33280
1017,33408
1018,33664
1019,33600
1020,33856
1021,33984
1022,33920
1023,33792
1024,33664
1025,33728
1026,34048
1027,34496
1028,35328
1029,36736
1030,38592
1031,40896
1032,42944
1033,44992
1034,44992
1035,43520
1036,40832
1037,37376
1038,33664
1039,30528
1040,28480
1041,27584
1042,27712
1043,28608
1044,29568
1045,30464
1046,31296
1047,32192
1048,32832
1049,33408
1050,33792
1051,34048
1052,34304
1053,34432
1054,34496
1055,34560
1056,34560
1057,34368
1058,34112
1059,33984
1060,34048
1061,34112
1062,34176
1063,34048
1064,33984
1065,33920
1066,33920
1067,33920
1068,33920
1069,33920
1070,34048
1071,34240
1072,34240
1073,34112
1074,34048
1075,34048
1076,34176
1077,34176
1078,34112
1079,34048
1080,33792
1081,33664
1082,33664
1083,33600
1084,33536
1085,33600
1086,33664
1087,33728
1088,33664
1089,33600
1090,33600
1091,33728
1092,33728
1093,33792
1094,33920
1095,34048
1096,34304
1097,34368
1098,34304
1099,34176
1100,34112
1101,34112
1102,34176
1103,34240
1104,34176
1105,34176
1106,34304
1107,34240
1108,34176
1109,34112
1110,34112
1111,34176
1112,34176
1113,34240
1114,34240
1115,34240
1116,34240
1117,34240
1118,34304
1119,34304
1120,34240
1121,34240
1122,34176
1123,34176
1124,34112
1125,34176
1126,34240
1127,34240
1128,34176
1129,34112
1130,34112
1131,34176
1132,34240
1133,34240
1134,34304
1135,34304
1136,34240
1137,34176
1138,34048
1139,33984
1140,33984
1141,34048
1142,34112
1143,34176
1144,34240
1145,34240
1146,34176
1147,34112
1148,34112
1149,34176
1150,34112
1151,34048
1152,33984
1153,33856
1154,33856
1155,33856
1156,33920
1157,34112
1158,34304
1159,34432
1160,34432
1161,34368
1162,34304
1163,34304
1164,34304
1165,34240
1166,34112
1167,33920
1168,33792
1169,33728
1170,33664
1171,33664
1172,33600
1173,33536
1174,33472
1175,33472
1176,33536
1177,33600
1178,33600
1179,33600
1180,33664
1181,33728
1182,33856
1183,33920
1184,33856
1185,33792
1186,33728
1187,33536
1188,33408
1189,33344
1190,33344
1191,33344
1192,33792
1193,34624
1194,35904
1195,37568
1196,39488
1197,41664
1198,43904
1199,45312
1200,44864
1201,42816
1202,39744
1203,36096
1204,32448
1205,29568
1206,27904
1207,27392
1208,27776
1209,28672
1210,29824
1211,31040
1212,32064
1213,33408
1214,33472
1215,34368
1216,34752
1217,34944
1218,35072
1219,35136
1220,35072
1221,35008
1222,34944
1223,34816
1224,34624
1225,34432
1226,34304
1227,34176
1228,34048
1229,33984
1230,33856
1231,33856
1232,33984
1233,34112
1234,34240
1235,34304
1236,34304
1237,34240
1238,34176
1239,34176
1240,34176
1241,34176
1242,34176
1243,34176
1244,34112
1245,33984
1246,33920
1247,33920
1248,33856
1249,33792
1250,33728
1251,33728
1252,33728
1253,33728
1254,33728
1255,33664
1256,33728
1257,33728
1258,33792
1259,33856
1260,33920
1261,34048
1262,34176
1263,34240
1264,34304
1265,34304
1266,34368
1267,34432
1268,34432
1269,34368
1270,34368
1271,34368
1272,34432
1273,34496
1274,34432
1275,34496
1276,34432
1277,34368
1278,34368
1279,34432
1280,34432
1281,34496
1282,34560
1283,34624
1284,34624
1285,34688
1286,34816
1287,34816
1288,34880
1289,34816
1290,34816
1291,34752
1292,34688
1293,34688
1294,34560
1295,34496
1296,34368
1297,34240
1298,34176
1299,34112
1300,34112
1301,34112
1302,34176
1303,34240
1304,34304
1305,34304
1306,34240
1307,34240
1308,34240
1309,34240
1310,34240
1311,34304
1312,34368
1313,34368
1314,34432
1315,34496
1316,34496
1317,34496
1318,34496
1319,34432
1320,34432
1321,34368
1322,34368
1323,34368
1324,34368
1325,34368
1326,34368
1327,34432
1328,34368
1329,34304
1330,34240
1331,34240
1332,34176
1333,34048
1334,34048
1335,34112
1336,34112
1337,34176
1338,34176
1339,34240
1340,34304
1341,34304
1342,34368
1343,34432
1344,34496
1345,34496
1346,34432
1347,34368
1348,34304
1349,34240
1350,34240
1351,34176
1352,34176
1353,34112
1354,34112
1355,34112
1356,34112
1357,34112
1358,34112
1359,34176
1360,34240
1361,34240
1362,34240
1363,34176
1364,34176
1365,34112
1366,34048
1367,34112
1368,34112
1369,34112
1370,34112
1371,34112
1372,34112
1373,34112
1374,34176
1375,34176
1376,34240
1377,34368
1378,34560
1379,34560
1380,34688
1381,34688
1382,34752
1383,34688
1384,34560
1385,34496
1386,34368
1387,34240
1388,34176
1389,34112
1390,34048
1391,34048
1392,34048
1393,33984
1394,33984
1395,33984
1396,34048
1397,34112
1398,34176
1399,34112
1400,33984
1401,33856
1402,33792
1403,33728
1404,33728
1405,33856
1406,33920
1407,33920
1408,33856
1409,33856
1410,33856
1411,33856
1412,33920
1413,33920
1414,33856
1415,33984
1416,34112
1417,34496
1418,35328
1419,36672
1420,38464
1421,40640
1422,42880
1423,44800
1424,45312
1425,44096
1426,41536
1427,38144
1428,34432
1429,31040
1430,28672
1431,27456
1432,27264
1433,27904
1434,28864
1435,30016
1436,31168
1437,32128
1438,32960
1439,33664
1440,34048
1441,34368
1442,34496
1443,34560
1444,34560
1445,34496
1446,34368
1447,34240
1448,34176
1449,34112
1450,33984
1451,33920
1452,33856
1453,33792
1454,33792
1455,33792
1456,33792
1457,33792
1458,33792
1459,33856
1460,33920
1461,33856
1462,33856
1463,33792
1464,33792
1465,33792
1466,33856
1467,33856
1468,33856
1469,33920
1470,33856
1471,33792
1472,33728
1473,33728
1474,33664
1475,33664
1476,33600
1477,33600
1478,33600
1479,33600
1480,33536
1481,33536
1482,33536
1483,33600
1484,33600
1485,33664
1486,33792
1487,33984
1488,34048
1489,34176
1490,34304
1491,34368
1492,34432
1493,34432
1494,34432
1495,34368
1496,34368
1497,34368
1498,34304
1499,34240
1500,34112
1501,34112
1502,34112
1503,34048
1504,34048
1505,34048
1506,34048
1507,34048
1508,34112
1509,34112
1510,34176
1511,34176
1512,34240
1513,34240
1514,34240
1515,34240
1516,34240
1517,34176
1518,34176
1519,34176
1520,34240
1521,34176
1522,34048
1523,34048
1524,34048
1525,33984
1526,33920
1527,33792
1528,33792
1529,33792
1530,33856
1531,33920
1532,33920
1533,33920
1534,33984
1535,33984
1536,33984
1537,33984
1538,33984
1539,34048
1540,34112
1541,34176
1542,34112
1543,34112
1544,34048
1545,34048
1546,33984
1547,33984
1548,33984
1549,33920
1550,33856
1551,33920
1552,33920
1553,33984
1554,34048
1555,34048
1556,34112
1557,34176
1558,34240
1559,34240
1560,34304
1561,34240
1562,34240
1563,34176
1564,34176
1565,34176
1566,34176
1567,34112
1568,34112
1569,34112
1570,34048
1571,34048
1572,34048
1573,34112
1574,34112
1575,34048
1576,34048
1577,34112
1578,34176
1579,34176
1580,34176
1581,34112
1582,34048
1583,33984
1584,33984
1585,33984
1586,34048
1587,34112
1588,34176
1589,34304
1590,34368
1591,34368
1592,34304
1593,34368
1594,34432
1595,34496
1596,34496
1597,34496
1598,34496
1599,34496
1600,34496
1601,34560
1602,34624
1603,34624
1604,34624
1605,34624
1606,34624
1607,34496
1608,34304
1609,34112
1610,33984
1611,33920
1612,33984
1613,33984
1614,33984
1615,33984
1616,33984
1617,33856
1618,33792
1619,33792
1620,33856
1621,33920
1622,33984
1623,33984
1624,33984
1625,33984
1626,34048
1627,34176
1628,34240
1629,34112
1630,34112
1631,34176
1632,34368
1633,34816
1634,35712
1635,36992
1636,38912
1637,41152
1638,43456
1639,45120
1640,45184
1641,43648
1642,40896
1643,37376
1644,33728
1645,30528
1646,28288
1647,27200
1648,27200
1649,27904
1650,28928
1651,30144
1652,31360
1653,32384
1654,33280
1655,33920
1656,34368
1657,34624
1658,34752
1659,34752
1660,34752
1661,34752
1662,34624
1663,34432
1664,34304
1665,34176
1666,34112
1667,33984
1668,33920
1669,33856
1670,33920
1671,33920
1672,33920
1673,33920
1674,33984
1675,33984
1676,33984
1677,33984
1678,34048
1679,34112
1680,34112
1681,34176
1682,34176
1683,34112
1684,33920
1685,33856
1686,33792
1687,33728
1688,33728
1689,33728
1690,33728
1691,33728
1692,33664
1693,33600
1694,33536
1695,33536
1696,33536
1697,33600
1698,33664
1699,33728
1700,33728
1701,33792
1702,33856
1703,33984
1704,34048
1705,34176
1706,34304
1707,34304
1708,34304
1709,34240
1710,34176
1711,34112
1712,34048
1713,34048
1714,33984
1715,33984
1716,33920
1717,33920
1718,33920
1719,33920
1720,33920
1721,33920
1722,33856
1723,33920
1724,33984
1725,33984
1726,34048
1727,34048
1728,34048
1729,34048
1730,34112
1731,34112
1732,34112
1733,34176
1734,34176
1735,34112
1736,34112
1737,34048
1738,33984
1739,33984
1740,33984
1741,34048
1742,34048
1743,34048
1744,34112
1745,34176
1746,34176
1747,34112
1748,34112
1749,34112
1750,34112
1751,34112
1752,34176
1753,34176
1754,34112
1755,34048
1756,33984
1757,33984
1758,33984
1759,33920
1760,33792
1761,33664
1762,33472
1763,33344
1764,33344
1765,33472
1766,33600
1767,33728
1768,33856
1769,33984
1770,34112
1771,34176
1772,34240
1773,34240
1774,34240
1775,34240
1776,34240
1777,34304
1778,34304
1779,34304
1780,34304
1781,34304
1782,34304
1783,34304
1784,34240
1785,34240
1786,34176
1787,34176
1788,34176
1789,34112
1790,34176
1791,34304
1792,34368
1793,34432
1794,34496
1795,34560
1796,34624
1797,34624
1798,34560
1799,34560
1800,34496
1801,34496
1802,34432
1803,34368
1804,34368
1805,34304
1806,34304
1807,34240
1808,34176
1809,34176
1810,34112
1811,34112
1812,34112
1813,34048
1814,33920
1815,33792
1816,33728
1817,33664
1818,33728
1819,33792
1820,33920
1821,33920
1822,33984
1823,34048
1824,34112
1825,34176
1826,34112
1827,34048
1828,34048
1829,34176
1830,34560
1831,35328
1832,36608
1833,38400
1834,40448
1835,42688
1836,44736
1837,45440
1838,44608
1839,42240
1840,39104
1841,35328
1842,32000
1843,29440
1844,27840
1845,27456
1846,27840
1847,28736
1848,29888
1849,31040
1850,32128
1851,33024
1852,33728
1853,34304
1854,34688
1855,34816
1856,34752
1857,34752
1858,34688
1859,34624
1860,34560
1861,34432
1862,34368
1863,34304
1864,34240
1865,34240
1866,34176
1867,34112
1868,34048
1869,34048
1870,34112
1871,34048
1872,34048
1873,34112
1874,34176
1875,34240
1876,34176
1877,34176
1878,34112
1879,34112
1880,34048
1881,34048
1882,34048
1883,34048
1884,33984
1885,33984
1886,33920
1887,33984
1888,33920
1889,33920
1890,33920
1891,33920
1892,33664
1893,33472
1894,33536
1895,33536
1896,33536
1897,33600
1898,33664
1899,33856
1900,33984
1901,34048
1902,34112
1903,34176
1904,34240
1905,34240
1906,34176
1907,34112
1908,33984
1909,33920
1910,33856
1911,33856
1912,33920
1913,33920
1914,33920
1915,33856
1916,33920
1917,33920
1918,33984
1919,34048
1920,34112
1921,34048
1922,33984
1923,34048
1924,34176
1925,34112
1926,34048
1927,33920
1928,33920
1929,33920
1930,33920
1931,33984
1932,34048
1933,34112
1934,34112
1935,34176
1936,34176
1937,34176
1938,34112
1939,34048
1940,34048
1941,34048
1942,34112
1943,34112
1944,34112
1945,34112
1946,34112
1947,34048
1948,34048
1949,34048
1950,34048
1951,33984
1952,33920
1953,33920
1954,33984
1955,34048
1956,34176
1957,34304
1958,34368
1959,34368
1960,34432
1961,34496
1962,34432
1963,34432
1964,34496
1965,34560
1966,34560
1967,34560
1968,34496
1969,34432
1970,34304
1971,34176
1972,34048
1973,33984
1974,33920
1975,33920
1976,33792
1977,33728
1978,33664
1979,33536
1980,33472
1981,33472
1982,33536
1983,33600
1984,33664
1985,33792
1986,33920
1987,34048
1988,34048
1989,33984
1990,33920
1991,33920
1992,33920
1993,33856
1994,33984
1995,34240
1996,34816
1997,35712
1998,37184
1999,39040
2000,41216
2001,43392
2002,44928
2003,44864
2004,43200
2005,40384
2006,36736
2007,33152
2008,30336
2009,28352
2010,27520
2011,27648
2012,28480
2013,29504
2014,30592
2015,31680
2016,32640
2017,33408
2018,34048
2019,34496
2020,34752
2021,34816
2022,34752
2023,34688
2024,34560
2025,34432
2026,34432
2027,34368
2028,34304
2029,34240
2030,34176
2031,34112
2032,34112
2033,34048
2034,34112
2035,34112
2036,34112
2037,34176
2038,34176
2039,34176
2040,34240
2041,34240
2042,34304
2043,34304
2044,34368
2045,34368
2046,34240
2047,34112
2048,34048
2049,33984
2050,33920
2051,33920
2052,33920
2053,33920
2054,33920
2055,33792
2056,33792
2057,33728
2058,33728
2059,33728
2060,33792
2061,33792
2062,33792
2063,33792
2064,33856
2065,33984
2066,34048
2067,34112
2068,34112
2069,34112
2070,34112
2071,34112
2072,33984
2073,33920
2074,33792
2075,33728
2076,33728
2077,33728
2078,33728
2079,33728
2080,33792
2081,33792
2082,33856
2083,33920
2084,33984
2085,34048
2086,34112
2087,34048
2088,33984
2089,33984
2090,33984
2091,33984
2092,33984
2093,33920
2094,33920
2095,33920
2096,33920
2097,33920
2098,33984
2099,33984
2100,33984
2101,33920
2102,33920
2103,33984
2104,33984
2105,33984
2106,33984
2107,33984
2108,33984
2109,33984
2110,33984
2111,34048
2112,34048
2113,33984
2114,33920
2115,33920
2116,33984
2117,34048
2118,34048
2119,33920
2120,33856
2121,33792
2122,33728
2123,33792
2124,33920
2125,33984
2126,34048
2127,34048
2128,34048
2129,34048
2130,34112
2131,34048
2132,34048
2133,34048
2134,34048
2135,34048
2136,34112
2137,34240
2138,34304
2139,34304
2140,34368
2141,34368
2142,34304
2143,34304
2144,34368
2145,34432
2146,34432
2147,34304
2148,34240
2149,34304
2150,34304
2151,34240
2152,34112
2153,34048
2154,33984
2155,33792
2156,33600
2157,33536
2158,33472
2159,33408
2160,33472
2161,33536
2162,33600
2163,33664
2164,33728
2165,33856
2166,33920
2167,33920
2168,33984
2169,34048
2170,34048
2171,33984
2172,33984
2173,34112
2174,34304
2175,34688
2176,35392
2177,36608
2178,38336
2179,40512
2180,42752
2181,44736
2182,45248
2183,44160
2184,41728
2185,38400
2186,34816
2187,31360
2188,28992
2189,27648
2190,27392
2191,27968
2192,28928
2193,30080
2194,31296
2195,32384
2196,33280
2197,33856
2198,34240
2199,34432
2200,34560
2201,34560
2202,34560
2203,34560
2204,34496
2205,34432
2206,34304
2207,34176
2208,34112
2209,34048
2210,34048
2211,34048
2212,34112
2213,34112
2214,34112
2215,34112
2216,34112
2217,34112
2218,34048
2219,33984
2220,34112
2221,34176
2222,34176
2223,34176
2224,34112
2225,34048
2226,33984
2227,33984
2228,33984
2229,34048
2230,34048
2231,34048
2232,34048
2233,34048
2234,34048
2235,33984
2236,33920
2237,33856
2238,33664
2239,33536
2240,33408
2241,33472
2242,33600
2243,33728
2244,33856
2245,33920
2246,34112
2247,34112
2248,34176
2249,34176
2250,34176
2251,34176
2252,34112
2253,34048
2254,33984
2255,33920
2256,33920
2257,33920
2258,33920
2259,33920
2260,33856
2261,33856
2262,33920
2263,33984
2264,34048
2265,34176
2266,34240
2267,34176
2268,34112
2269,34048
2270,34048
2271,34048
2272,34048
2273,34112
2274,34112
2275,34112
2276,34112
2277,34048
2278,34048
2279,34112
2280,34112
2281,34240
2282,34304
2283,34176
2284,34048
2285,33920
2286,33920
2287,33920
2288,33920
2289,33920
2290,33920
2291,34048
2292,34048
2293,33984
2294,33984
2295,33984
2296,33984
2297,33920
2298,33920
2299,33984
2300,33984
2301,34048
2302,34112
2303,34176
2304,34112
2305,33984
2306,33984
2307,33920
2308,33920
2309,33984
2310,33984
2311,34048
2312,34176
2313,34304
2314,34304
2315,34368
2316,34368
2317,34368
2318,34368
2319,34304
2320,34368
2321,34432
2322,34496
2323,34432
2324,34432
2325,34432
2326,34304
2327,34304
2328,34240
2329,34176
2330,34112
2331,33984
2332,33856
2333,33792
2334,33664
2335,33536
2336,33536
2337,33600
2338,33664
2339,33728
2340,33856
2341,33856
2342,33856
2343,33920
2344,33920
2345,33984
2346,33984
2347,33920
2348,33920
2349,34048
2350,34304
2351,34880
2352,35840
2353,37312
2354,39168
2355,41216
2356,43328
2357,44864
2358,44800
2359,44800
2360,40576
2361,37184
2362,33600
2363,30592
2364,28608
2365,27712
2366,27840
2367,27840
2368,29568
2369,29696
2370,30592
2371,32512
2372,33344
2373,33984
2374,34432
2375,34752
2376,34816
2377,34752
2378,34688
2379,34560
2380,34432
2381,34368
2382,34304
2383,34240
2384,34176
2385,34048
2386,33920
2387,33664
2388,33472
2389,33344
2390,33216
2391,33216
2392,33280
2393,33408
2394,33600
2395,33728
2396,33856
2397,33920
2398,34048
2399,34176
2400,34176
2401,34176
2402,34176
2403,34176
2404,34112
2405,34048
2406,33984
2407,33920
2408,33792
2409,33728
2410,33728
2411,33728
2412,33664
2413,33600
2414,33536
2415,33536
2416,33600
2417,33664
2418,33728
2419,33792
2420,33856
2421,33920
2422,33984
2423,34112
2424,34112
2425,34112
2426,34112
2427,34048
2428,34112
2429,34176
2430,34240
2431,34176
2432,34048
2433,33920
2434,33920
2435,33856
2436,33792
2437,33792
2438,33792
2439,33856
2440,33984
2441,34048
2442,34048
2443,34176
2444,34112
2445,34240
2446,34240
2447,34176
2448,34176
2449,34240
2450,34304
2451,34368
2452,34368
2453,34304
2454,34240
2455,34176
2456,34112
2457,34048
2458,34048
2459,34048
2460,34048
2461,34112
2462,34176
2463,34176
2464,34112
2465,34112
2466,34176
2467,34176
2468,34176
2469,34176
2470,34304
2471,34368
2472,34240
2473,34112
2474,33920
2475,33856
2476,33792
2477,33792
2478,33792
2479,33856
2480,33856
2481,33920
2482,33984
2483,34112
2484,34176
2485,34240
2486,34304
2487,34368
2488,34368
2489,34304
2490,34240
2491,34240
2492,34240
2493,34176
2494,34112
2495,34048
2496,33984
2497,33920
2498,34048
2499,34240
2500,34432
2501,34560
2502,34624
2503,34688
2504,34688
2505,34624
2506,34624
2507,34560
2508,34496
2509,34432
2510,34368
2511,34304
2512,34304
2513,34176
2514,34112
2515,34048
2516,34048
2517,34048
2518,34112
2519,34176
2520,34176
2521,34176
2522,34112
2523,33920
2524,33856
2525,33856
2526,33792
2527,33728
2528,33664
2529,33728
2530,33792
2531,33856
2532,33984
2533,34048
2534,34112
2535,34112
2536,34112
2537,34176
2538,34432
2539,34944
2540,35840
2541,37184
2542,38976
2543,41088
2544,43328
2545,45184
2546,45504
2547,43968
2548,40896
2549,37632
2550,33920
2551,30720
2552,28608
2553,27648
2554,27712
2555,28416
2556,29440
2557,30528
2558,31616
2559,32512
2560,33280
2561,33920
2562,34304
2563,34560
2564,34688
2565,34752
2566,34752
2567,34688
2568,34560
2569,34432
2570,34304
2571,34176
2572,34048
2573,33984
2574,33920
2575,33856
2576,33792
2577,33856
2578,33920
2579,33920
2580,33984
2581,34048
2582,34176
2583,34176
2584,34176
2585,34240
2586,34304
2587,34368
2588,34304
2589,34304
2590,34176
2591,34112
2592,33984
2593,33984
2594,33920
2595,33984
2596,33920
2597,33856
2598,33792
2599,33792
2600,33792
2601,33728
2602,33728
2603,33728
2604,33728
2605,33728
2606,33728
2607,33792
2608,33856
2609,33920
2610,33984
2611,33984
2612,33984
2613,34048
2614,34048
2615,34048
2616,34048
2617,34048
2618,34112
2619,34048
2620,33984
2621,33920
2622,33856
2623,33856
2624,33856
2625,33920
2626,33984
2627,34112
2628,34176
2629,34112
2630,34048
2631,33984
2632,33984
2633,33984
2634,33920
2635,33984
2636,34048
2637,34048
2638,34048
2639,34112
2640,34176
2641,34176
2642,34176
2643,34176
2644,34112
2645,34112
2646,34048
2647,33984
2648,33984
2649,34048
2650,34112
2651,34112
2652,34048
2653,34048
2654,34048
2655,33984
2656,33984
2657,34048
2658,34112
2659,34048
2660,33856
2661,33792
2662,33792
2663,33856
2664,33792
2665,33856
2666,33920
2667,33920
2668,33920
2669,33984
2670,34112
2671,34112
2672,34176
2673,34176
2674,34112
2675,33984
2676,33920
2677,33856
2678,33856
2679,33920
2680,33920
2681,33984
2682,34048
2683,34112
2684,34048
2685,33984
2686,33920
2687,33984
2688,33984
2689,34048
2690,34048
2691,34112
2692,34112
2693,34048
2694,33984
2695,33984
2696,34048
2697,33984
2698,33920
2699,33920
2700,33920
2701,33920
2702,34048
2703,34176
2704,34176
2705,34112
2706,34048
2707,34112
2708,34176
2709,34240
2710,34240
2711,34240
2712,34240
2713,34240
2714,34176
2715,34176
2716,34240
2717,34240
2718,34240
2719,34240
2720,34304
2721,34368
2722,34432
2723,34432
2724,34496
2725,34496
2726,34432
2727,34368
2728,34368
2729,34304
2730,34240
2731,34240
2732,34176
2733,34112
2734,34048
2735,34048
2736,34112
2737,34240
2738,34240
2739,34240
2740,34112
2741,33920
2742,33728
2743,33664
2744,33664
2745,33792
2746,33920
2747,33984
2748,33984
2749,33984
2750,33984
2751,33984
2752,34048
2753,34048
2754,33984
2755,34048
2756,34368
2757,34944
2758,35840
2759,37248
2760,39168
2761,41408
2762,43648
2763,45312
2764,45248
2765,43584
2766,40768
2767,37184
2768,33536
2769,30464
2770,28352
2771,27328
2772,27264
2773,27968
2774,29056
2775,30208
2776,31296
2777,32256
2778,33024
2779,33664
2780,34176
2781,34560
2782,34880
2783,35008
2784,34880
2785,34816
2786,34816
2787,34560
2788,34304
2789,34176
2790,34112
2791,33984
2792,33792
2793,33792
2794,33792
2795,33792
2796,33728
2797,33856
2798,33920
2799,33984
2800,34048
2801,34048
2802,33920
2803,33856
2804,33856
2805,33856
2806,34048
2807,34112
2808,34112
2809,34112
2810,34048
2811,34048
2812,34112
2813,34048
2814,33984
2815,33856
2816,33792
2817,33728
2818,33792
2819,33856
2820,33920
2821,33856
2822,33792
2823,33728
2824,33728
2825,33856
2826,33920
2827,34048
2828,34176
2829,34240
2830,34304
2831,34240
2832,34176
2833,34048
2834,33984
2835,33856
2836,33856
2837,33856
2838,33792
2839,33728
2840,33728
2841,33792
2842,33792
2843,33792
2844,33792
2845,33856
2846,33984
2847,33984
2848,34048
2849,34048
2850,34048
2851,33920
2852,33920
2853,33984
2854,33984
2855,33920
2856,33856
2857,33920
2858,33984
2859,33920
2860,33920
2861,33920
2862,33984
2863,34048
2864,34112
2865,34048
2866,34048
2867,33984
2868,33984
2869,33984
2870,34048
2871,34112
2872,34112
2873,34176
2874,34176
2875,34176
2876,34176
2877,34048
2878,33920
2879,33856
2880,33856
2881,33792
2882,33728
2883,33728
2884,33728
2885,33792
2886,33792
2887,33856
2888,33920
2889,33920
2890,33984
2891,34048
2892,34112
2893,34048
2894,34048
2895,34048
2896,34048
2897,34048
2898,34048
2899,34048
2900,34048
2901,34048
2902,33984
2903,34048
2904,34112
2905,34176
2906,34112
2907,33984
2908,33920
2909,33856
2910,33856
2911,33856
2912,33856
2913,33920
2914,33920
2915,33984
2916,34176
2917,34304
2918,34432
2919,34496
2920,34560
2921,34624
2922,34560
2923,34496
2924,34432
2925,34432
2926,34496
2927,34496
2928,34432
2929,34304
2930,34112
2931,33984
2932,33920
2933,33920
2934,33984
2935,33984
2936,34048
2937,34048
2938,33920
2939,33792
2940,33728
2941,33728
2942,33664
2943,33664
2944,33728
2945,33856
2946,33984
2947,34112
2948,34176
2949,34176
2950,34240
2951,34240
2952,34176
2953,33984
2954,33920
2955,33984
2956,34304
2957,34944
2958,36160
2959,37824
2960,39936
2961,42176
2962,44288
2963,45056
2964,44352
2965,42368
2966,39168
2967,35776
2968,31424
2969,29632
2970,28224
2971,27712
2972,28032
2973,28928
2974,30080
2975,31168
2976,32128
2977,32960
2978,33728
2979,34240
2980,34560
2981,34688
2982,34816
2983,34880
2984,34880
2985,34816
2986,34688
2987,34560
2988,34432
2989,34368
2990,34240
2991,34112
2992,33984
2993,33920
2994,33920
2995,33984
2996,34048
2997,34048
2998,34176
2999,34176
3000,34240
3001,34176
3002,34112
3003,34048
3004,34048
3005,34112
3006,34048
3007,34112
3008,34176
3009,34112
3010,34048
3011,33984
3012,33984
3013,34048
3014,33984
3015,33984
3016,33920
3017,33920
3018,33792
3019,33728
3020,33664
3021,33728
3022,33728
3023,33792
3024,33792
3025,33856
3026,33984
3027,34048
3028,34176
3029,34240
3030,34240
3031,34176
3032,34112
3033,34176
3034,34112
3035,34048
3036,33984
3037,33920
3038,33920
3039,33856
3040,33856
3041,33856
3042,33920
3043,33984
3044,33920
3045,33920
3046,33984
3047,33984
3048,33920
3049,33920
3050,33984
3051,34048
3052,34048
3053,34048
3054,34112
3055,34176
3056,34240
3057,34240
3058,34176
3059,34112
3060,34112
3061,34112
3062,34112
3063,34112
3064,34112
3065,34048
3066,33984
3067,33984
3068,33984
3069,34048
3070,34112
3071,34112
3072,34112
3073,34176
3074,34176
3075,34112
3076,34048
3077,33984
3078,34048
3079,34048
3080,34048
3081,34048
3082,34048
3083,34112
3084,34112
3085,34112
3086,34112
3087,34176
3088,34176
3089,34112
3090,34112
3091,34112
3092,34112
3093,34048
3094,33984
3095,33920
3096,33856
3097,33920
3098,33920
3099,33984
3100,34112
3101,34304
3102,34368
3103,34432
3104,34368
3105,34432
3106,34432
3107,34432
3108,34432
3109,34496
3110,34560
3111,34560
3112,34496
3113,34432
3114,34368
3115,34240
3116,34176
3117,34048
3118,33920
3119,33920
3120,33920
3121,33920
3122,33920
3123,33856
3124,33792
3125,33792
3126,33792
3127,33728
3128,33728
3129,33792
3130,33792
3131,33856
3132,33856
3133,33920
3134,33920
3135,33920
3136,33920
3137,33920
3138,33984
3139,34176
3140,34560
3141,35200
3142,36224
3143,37760
3144,39744
3145,41984
3146,44096
3147,45120
3148,44608
3149,42752
3150,39872
3151,36352
3152,32832
3153,29952
3154,28096
3155,27392
3156,27648
3157,28544
3158,29696
3159,30848
3160,31936
3161,32832
3162,33600
3163,34368
3164,34624
3165,34752
3166,34752
3167,34752
3168,34624
3169,34432
3170,34304
3171,34240
3172,34176
3173,34176
3174,34112
3175,34112
3176,34176
3177,34176
3178,34112
3179,34048
3180,34048
3181,34048
3182,33984
3183,33984
3184,34048
3185,34112
3186,34112
3187,34176
3188,34240
3189,34176
3190,34176
3191,34176
3192,34176
3193,34112
3194,34112
3195,34112
3196,34112
3197,34048
3198,33920
3199,33856
3200,33728
3201,33664
3202,33600
3203,33600
3204,33600
3205,33664
3206,33728
3207,33792
3208,33920
3209,33920
3210,33984
3211,34176
3212,34240
3213,34176
3214,34048
3215,33920
3216,33856
3217,33728
3218,33664
3219,33664
3220,33664
3221,33728
3222,33664
3223,33728
3224,33728
3225,33792
3226,33856
3227,33920
3228,33984
3229,34048
3230,34048
3231,34048
3232,33920
3233,33856
3234,33792
3235,33664
3236,33600
3237,33600
3238,33728
3239,33792
3240,33856
3241,33856
3242,33984
3243,34048
3244,34176
3245,34240
3246,34176
3247,34112
3248,34048
3249,33984
3250,33984
3251,33984
3252,33984
3253,33984
3254,33984
3255,34048
3256,33984
3257,33920
3258,33856
3259,33856
3260,33856
3261,33856
3262,33856
3263,33920
3264,33920
3265,33984
3266,34112
3267,34112
3268,34048
3269,34048
3270,33984
3271,33984
3272,34048
3273,34112
3274,34240
3275,34240
3276,34240
3277,34304
3278,34368
3279,34432
3280,34432
3281,34496
3282,34560
3283,34624
3284,34624
3285,34624
3286,34432
3287,34240
3288,34048
3289,33856
3290,33728
3291,33728
3292,33856
3293,33856
3294,33792
3295,33728
3296,33664
3297,33664
3298,33664
3299,33856
3300,34048
3301,34048
3302,33920
3303,33856
3304,33856
3305,33920
3306,34048
3307,33984
3308,33792
3309,33664
3310,33664
3311,33792
3312,34048
3313,35200
3314,35840
3315,37504
3316,39552
3317,41856
3318,44160
3319,45376
3320,44928
3321,42944
3322,39872
3323,36224
3324,32704
3325,29888
3326,28160
3327,27392
3328,27968
3329,28480
3330,29568
3331,30720
3332,31808
3333,32832
3334,33664
3335,34240
3336,34624
3337,34816
3338,34880
3339,34944
3340,34880
3341,34816
3342,34624
3343,34432
3344,34304
3345,34176
3346,34112
3347,34112
3348,34112
3349,34048
3350,33984
3351,33920
3352,33920
3353,33984
3354,34112
3355,34176
3356,34304
3357,34304
3358,34304
3359,34240
3360,34112
3361,33984
3362,33984
3363,34048
3364,34112
3365,34112
3366,34112
3367,34048
3368,34112
3369,34112
3370,34112
3371,34048
3372,33984
3373,33856
3374,33856
3375,33920
3376,33920
3377,33920
3378,33920
3379,33984
3380,33920
3381,33920
3382,33792
3383,33792
3384,33728
3385,33728
3386,33792
3387,33792
3388,33792
3389,33792
3390,33792
3391,33792
3392,33728
3393,33728
3394,33664
3395,33664
3396,33664
3397,33728
3398,33792
3399,33856
3400,33856
3401,33856
3402,33856
3403,33792
3404,33792
3405,33792
3406,33728
3407,33728
3408,33792
3409,33856
3410,33856
3411,33856
3412,33920
3413,33984
3414,34048
3415,34048
3416,34112
3417,34112
3418,34112
3419,34048
3420,34112
3421,34112
3422,34176
3423,34176
3424,34176
3425,34048
3426,33920
3427,33792
3428,33728
3429,33664
3430,33728
3431,33728
3432,33792
3433,33856
3434,33920
3435,33984
3436,33984
3437,33984
3438,33984
3439,34048
3440,33984
3441,33984
3442,34048
3443,34112
3444,34112
3445,34112
3446,34048
3447,33920
3448,33920
3449,33856
3450,33856
3451,33792
3452,33856
3453,33984
3454,33984
3455,33984
3456,33984
3457,33984
3458,33984
3459,34112
3460,34112
3461,34176
3462,34240
3463,34240
3464,34176
3465,34176
3466,34240
3467,34368
3468,34496
3469,34496
3470,34496
3471,34496
3472,34432
3473,34368
3474,34432
3475,34432
3476,34432
3477,34368
3478,34304
3479,34240
3480,34240
3481,34176
3482,34112
3483,33984
3484,33984
3485,33984
3486,34048
3487,34048
3488,34048
3489,33920
3490,33856
3491,33792
3492,33728
3493,33728
3494,33792
3495,33792
3496,33856
3497,33984
3498,33984
3499,34048
3500,34048
3501,34112
3502,34048
3503,33984
3504,34112
3505,34368
3506,34880
3507,35776
3508,37184
3509,39104
3510,41344
3511,43712
3512,45504
3513,45568
3514,43968
3515,41152
3516,37568
3517,33792
3518,30528
3519,28416
3520,27392
3521,27456
3522,28224
3523,29248
3524,30464
3525,31616
3526,32576
3527,33472
3528,34048
3529,34432
3530,34688
3531,34816
3532,34816
3533,34752
3534,34688
3535,34624
3536,34560
3537,34432
3538,34368
3539,34304
3540,34240
3541,34240
3542,34304
3543,34240
3544,34112
3545,34048
3546,34048
3547,34176
3548,34112
3549,34048
3550,33984
3551,34048
3552,34048
3553,34112
3554,34176
3555,34240
3556,34240
3557,34240
3558,34240
3559,34240
3560,34304
3561,34304
3562,34368
3563,34432
3564,34368
3565,34240
3566,34112
3567,33984
3568,33856
3569,33664
3570,33664
3571,33728
3572,33792
3573,33792
3574,33856
3575,33984
3576,34048
3577,34048
3578,34112
3579,34240
3580,34240
3581,34240
3582,34176
3583,34176
3584,34112
3585,33984
3586,33920
3587,33920
3588,33984
3589,33920
3590,33792
3591,33728
3592,33728
3593,33728
3594,33664
3595,33664
3596,33792
3597,33856
3598,33920
3599,33984
3600,34048
3601,34048
3602,34048
3603,34112
3604,34240
3605,34240
3606,34240
3607,34240
3608,34240
3609,34176
3610,34112
3611,34048
3612,33984
3613,33920
3614,33856
3615,33856
3616,33856
3617,33856
3618,33920
3619,33984
3620,33984
3621,34048
3622,34048
3623,34112
3624,34112
3625,34112
3626,34112
3627,34112
3628,34048
3629,34048
3630,34048
3631,33984
3632,34048
3633,34048
3634,33984
3635,33920
3636,33856
3637,33856
3638,33856
3639,33920
3640,33920
3641,33984
3642,33984
3643,34048
3644,33984
3645,34048
3646,34112
3647,34240
3648,34240
3649,34176
3650,34240
3651,34176
3652,34048
3653,33920
3654,33856
3655,33856
3656,33856
3657,33856
3658,33920
3659,33984
3660,34048
3661,34048
3662,34112
3663,34176
3664,34176
3665,34240
3666,34240
3667,34240
3668,34304
3669,34304
3670,34304
3671,34368
3672,34368
3673,34368
3674,34368
3675,34432
3676,34432
3677,34432
3678,34432
3679,34432
3680,34496
3681,34432
3682,34368
3683,34368
3684,34304
3685,34240
3686,34240
3687,34176
3688,34112
3689,34048
3690,34048
3691,34048
3692,34048
3693,33984
3694,33920
3695,33856
3696,33856
3697,33856
3698,33856
3699,33920
3700,33920
3701,34048
3702,34112
3703,34048
3704,34048
3705,34048
3706,34048
3707,34048
3708,34048
3709,34176
3710,34496
3711,35072
3712,36096
3713,37568
3714,39488
3715,41728
3716,43968
3717,45504
3718,45312
3719,43520
3720,40512
3721,36864
3722,33216
3723,30208
3724,28224
3725,27392
3726,27648
3727,28480
3728,29568
3729,30720
3730,31808
3731,32704
3732,33472
3733,34048
3734,34432
3735,34624
3736,34752
3737,34752
3738,34752
3739,34688
3740,34624
3741,34496
3742,34432
3743,34304
3744,34240
3745,34112
3746,34112
3747,34112
3748,34112
3749,34112
3750,34048
3751,33984
3752,33984
3753,34048
3754,34048
3755,34176
3756,34304
3757,34368
3758,34368
3759,34304
3760,34304
3761,34240
3762,34240
3763,34240
3764,34240
3765,34112
3766,34048
3767,34048
3768,34048
3769,33984
3770,33984
3771,33920
3772,33920
3773,33856
3774,33856
3775,33792
3776,33792
3777,33792
3778,33856
3779,33920
3780,33920
3781,33984
3782,33984
3783,34048
3784,34112
3785,34176
3786,34176
3787,34112
3788,34112
3789,34048
3790,33984
3791,33984
3792,33920
3793,33984
3794,33984
3795,33856
3796,33856
3797,33856
3798,33792
3799,33728
3800,33792
3801,33856
3802,33856
3803,33856
3804,33920
3805,33984
3806,34048
3807,34048
3808,34048
3809,34176
3810,34240
3811,34240
3812,34176
3813,34176
3814,34112
3815,34048
3816,33984
3817,33984
3818,34048
3819,33984
3820,33984
3821,33984
3822,33984
3823,33984
3824,33984
3825,33920
3826,33920
3827,33920
3828,33920
3829,33984
3830,34112
3831,34112
3832,34048
3833,33984
3834,33984
3835,33984
3836,33984
3837,33984
3838,33984
3839,34048
3840,33984
3841,33984
3842,33984
3843,33984
3844,33984
3845,33984
3846,34048
3847,34112
3848,34112
3849,34048
3850,34048
3851,33984
3852,34048
3853,34176
3854,34304
3855,34432
3856,34496
3857,34496
3858,34432
3859,34432
3860,34432
3861,34560
3862,34560
3863,34624
3864,34560
3865,34496
3866,34368
3867,34304
3868,34240
3869,34176
3870,34112
3871,34112
3872,34112
3873,34112
3874,34112
3875,33984
3876,33856
3877,33728
3878,33600
3879,33536
3880,33536
3881,33600
3882,33664
3883,33792
3884,33920
3885,33984
3886,33984
3887,34048
3888,34048
3889,34048
3890,33984
3891,34048
3892,34240
3893,34688
3894,35456
3895,36544
3896,38272
3897,40064
3898,42176
3899,44416
3900,45376
3901,44608
3902,42304
3903,39104
3904,35392
3905,31872
3906,29248
3907,27776
3908,27392
3909,27968
3910,28928
3911,30016
3912,31168
3913,32192
3914,33088
3915,33600
3916,34048
3917,34368
3918,34560
3919,34688
3920,34688
3921,34688
3922,34624
3923,34496
3924,34304
3925,34176
3926,34112
3927,34112
3928,34112
3929,34048
3930,34048
3931,34048
3932,34112
3933,34112
3934,34176
3935,34112
3936,34112
3937,34112
3938,34176
3939,34176
3940,34176
3941,34240
3942,34240
3943,34240
3944,34176
3945,34240
3946,34240
3947,34304
3948,34304
3949,34240
3950,34240
3951,34240
3952,34112
3953,34048
3954,33984
3955,33920
3956,33856
3957,33856
3958,33856
3959,33792
3960,33728
3961,33728
3962,33792
3963,33856
3964,33920
3965,33920
3966,33984
3967,34048
3968,34048
3969,34048
3970,33984
3971,33984
3972,33984
3973,33920
3974,33920
3975,33792
3976,33792
3977,33792
3978,33728
3979,33664
3980,33664
3981,33664
3982,33728
3983,33792
3984,33856
3985,33856
3986,33856
3987,33856
3988,33920
3989,34048
3990,34048
3991,34048
3992,34112
3993,34112
3994,34112
3995,34048
3996,34048
3997,34048
3998,34048
3999,34112
4000,34112
4001,34176
4002,34176
4003,34112
4004,34048
4005,34048
4006,33984
4007,33920
4008,33920
4009,33920
4010,33920
4011,33984
4012,33984
4013,33984
4014,33984
4015,33920
4016,33920
4017,33920
4018,33920
4019,33984
4020,33984
4021,33984
4022,34048
4023,34048
4024,33984
4025,33984
4026,33984
4027,34048
4028,34048
4029,34048
4030,34048
4031,34112
4032,34048
4033,34048
4034,33984
4035,33984
4036,34048
4037,34048
4038,34112
4039,34112
4040,34048
4041,33920
4042,33920
4043,33984
4044,33984
4045,33984
4046,34048
4047,34112
4048,34112
4049,34112
4050,34112
4051,34112
4052,34112
4053,34048
4054,34048
4055,34112
4056,34176
4057,34176
4058,34112
4059,34112
4060,34112
4061,34112
4062,34048
4063,34112
4064,34176
4065,34176
4066,34176
4067,34240
4068,34304
4069,34368
4070,34368
4071,34432
4072,34496
4073,34560
4074,34624
4075,34624
4076,34560
4077,34560
4078,34496
4079,34432
4080,34432
4081,34368
4082,34304
4083,34176
4084,34112
4085,34048
4086,34048
4087,34048
4088,34112
4089,34176
4090,34048
4091,33920
4092,33792
4093,33728
4094,33664
4095,33664
4096,33728
4097,33856
4098,33984
4099,33984
4100,33984
4101,34112
4102,34176
4103,34176
4104,34176
4105,34176
4106,34304
4107,34560
4108,35008
4109,35840
4110,36928
4111,38592
4112,40640
4113,42816
4114,44864
4115,45568
4116,44416
4117,41856
4118,38400
4119,34624
4120,31232
4121,28864
4122,27712
4123,27584
4124,28224
4125,29248
4126,30336
4127,31424
4128,32448
4129,33280
4130,33984
4131,34368
4132,34624
4133,34752
4134,34816
4135,34752
4136,34688
4137,34560
4138,34496
4139,34432
4140,34304
4141,34240
4142,34176
4143,34112
4144,34048
4145,34048
4146,33984
4147,33984
4148,33984
4149,33984
4150,34048
4151,34176
4152,34176
4153,34112
4154,34176
4155,34176
4156,34176
4157,34176
4158,34240
4159,34240
4160,34240
4161,34240
4162,34112
4163,34048
4164,34048
4165,34048
4166,33984
4167,33984
4168,33920
4169,33920
4170,33856
4171,33856
4172,33856
4173,33856
4174,33920
4175,33920
4176,33984
4177,33984
4178,34048
4179,34112
4180,34176
4181,34240
4182,34176
4183,34176
4184,34112
4185,33920
4186,33792
4187,33728
4188,33728
4189,33664
4190,33600
4191,33600
4192,33664
4193,33728
4194,33728
4195,33856
4196,33856
4197,33920
4198,33920
4199,33920
4200,33920
4201,33984
4202,33984
4203,34048
4204,34048
4205,34112
4206,34176
4207,34176
4208,34176
4209,34112
4210,34112
4211,34048
4212,33984
4213,33920
4214,33856
4215,33920
4216,33920
4217,33984
4218,34048
4219,34112
4220,34048
4221,33984
4222,33984
4223,33920
4224,33856
4225,33856
4226,33920
4227,33856
4228,33920
4229,33920
4230,33920
4231,33984
4232,33984
4233,34048
4234,34048
4235,34048
4236,34048
4237,34048
4238,34048
4239,34048
4240,33984
4241,33920
4242,33920
4243,33920
4244,33920
4245,33984
4246,34048
4247,34048
4248,33984
4249,33920
4250,33920
4251,33920
4252,34048
4253,34048
4254,34048
4255,33984
4256,33984
4257,33920
4258,33984
4259,33920
4260,33984
4261,34048
4262,34112
4263,34112
4264,34176
4265,34176
4266,34176
4267,34176
4268,34240
4269,34176
4270,34112
4271,34112
4272,34048
4273,34048
4274,33984
4275,33984
4276,34048
4277,34112
4278,34112
4279,34176
4280,34176
4281,34176
4282,34240
4283,34304
4284,34432
4285,34496
4286,34496
4287,34496
4288,34432
4289,34432
4290,34368
4291,34432
4292,34368
4293,34368
4294,34304
4295,34240
4296,34240
4297,34240
4298,34176
4299,34112
4300,34112
4301,34048
4302,34048
4303,34048
4304,34048
4305,33984
4306,33920
4307,33792
4308,33728
4309,33792
4310,33856
4311,33920
4312,33984
4313,34048
4314,34048
4315,34048
4316,34112
4317,34112
4318,34112
4319,34048
4320,33984
4321,34048
4322,34368
4323,34880
4324,35648
4325,36928
4326,38656
4327,40832
4328,43136
4329,45120
4330,45568
4331,44224
4332,41536
4333,38016
4334,34240
4335,30912
4336,28608
4337,27456
4338,27456
4339,28160
4340,29248
4341,30400
4342,31552
4343,32512
4344,33344
4345,34048
4346,34496
4347,34752
4348,34816
4349,34816
4350,34752
4351,34688
4352,34496
4353,34432
4354,34368
4355,34304
4356,34176
4357,34048
4358,33984
4359,34048
4360,34048
4361,33984
4362,33984
4363,33984
4364,34048
4365,34048
4366,34112
4367,34112
4368,34112
4369,34112
4370,34112
4371,34176
4372,34240
4373,34240
4374,34304
4375,34304
4376,34240
4377,34112
4378,34048
4379,33984
4380,33984
4381,33984
4382,33984
4383,33920
4384,33920
4385,33856
4386,33856
4387,33856
4388,33856
4389,33856
4390,33856
4391,33856
4392,33920
4393,33984
4394,34048
4395,34112
4396,34112
4397,34048
4398,34048
4399,33984
4400,33984
4401,33984
4402,33920
4403,33856
4404,33792
4405,33728
4406,33728
4407,33728
4408,33792
4409,33856
4410,33856
4411,33856
4412,33856
4413,33920
4414,33984
4415,33920
4416,33984
4417,34048
4418,34048
4419,34048
4420,33984
4421,33984
4422,33984
4423,33984
4424,33984
4425,33984
4426,33984
4427,33984
4428,33984
4429,34048
4430,34112
4431,34112
4432,34048
4433,33984
4434,33984
4435,33984
4436,34048
4437,34048
4438,33984
4439,33856
4440,33792
4441,33792
4442,33792
4443,33856
4444,33920
4445,33920
4446,33920
4447,33920
4448,33920
4449,33920
4450,33984
4451,33984
4452,33984
4453,33920
4454,33920
4455,33984
4456,33984
4457,33984
4458,34048
4459,34112
4460,34176
4461,34176
4462,34112
4463,34048
4464,33920
4465,33792
4466,33728
4467,33792
4468,33856
4469,33920
4470,33920
4471,33984
4472,34048
4473,34048
4474,34112
4475,34112
4476,34176
4477,34176
4478,34240
4479,34240
4480,34240
4481,34176
4482,33984
4483,33984
4484,33984
4485,33984
4486,33920
4487,33856
4488,33920
4489,33920
4490,33920
4491,33984
4492,34048
4493,34112
4494,34112
4495,34112
4496,34176
4497,34176
4498,34176
4499,34176
4500,34176
4501,34176
4502,34176
4503,34176
4504,34240
4505,34368
4506,34496
4507,34560
4508,34560
4509,34624
4510,34496
4511,34496
4512,34432
4513,34432
4514,34368
4515,34368
4516,34304
4517,34240
4518,34240
4519,34176
4520,34176
4521,34176
4522,34112
4523,34112
4524,34112
4525,34112
4526,33984
4527,33856
4528,33792
4529,33728
4530,33664
4531,33728
4532,33792
4533,33856
4534,33856
4535,33920
4536,33984
4537,34048
4538,34112
4539,34176
4540,34240
4541,34176
4542,34112
4543,34240
4544,34496
4545,35008
4546,35904
4547,37376
4548,39232
4549,41472
4550,43840
4551,45504
4552,45440
4553,43648
4554,40768
4555,37184
4556,33472
4557,30336
4558,28288
4559,27392
4560,27520
4561,28352
4562,29440
4563,30592
4564,31680
4565,32704
4566,33536
4567,34112
4568,34496
4569,34688
4570,34752
4571,34816
4572,34816
4573,34816
4574,34688
4575,34432
4576,34240
4577,34112
4578,34048
4579,33984
4580,33984
4581,33984
4582,34048
4583,34112
4584,34112
4585,34176
4586,34112
4587,34112
4588,34112
4589,34176
4590,34304
4591,34240
4592,34176
4593,34112
4594,34112
4595,34112
4596,34112
4597,34176
4598,34240
4599,34240
4600,34176
4601,34112
4602,34048
4603,34048
4604,34048
4605,34048
4606,34048
4607,34048
4608,33984
4609,33984
4610,33920
4611,33792
4612,33792
4613,33792
4614,33856
4615,33920
4616,33984
4617,33984
4618,34048
4619,34048
4620,34112
4621,34112
4622,34048
4623,34048
4624,33984
4625,33920
4626,33920
4627,33920
4628,33856
4629,33792
4630,33792
4631,33728
4632,33728
4633,33664
4634,33664
4635,33792
4636,33792
4637,33856
4638,33920
4639,33984
4640,34112
4641,34048
4642,34048
4643,33984
4644,33984
4645,33984
4646,34048
4647,34112
4648,34112
4649,34112
4650,34112
4651,33984
4652,33920
4653,33856
4654,33920
4655,33984
4656,33984
4657,33984
4658,33984
4659,33920
4660,33920
4661,33856
4662,33792
4663,33920
4664,33984
4665,33984
4666,33920
4667,33920
4668,33856
4669,33856
4670,33856
4671,33856
4672,33856
4673,33856
4674,33856
4675,33920
4676,33984
4677,34048
4678,34048
4679,33984
4680,33984
4681,33984
4682,33984
4683,33984
4684,33984
4685,33984
4686,34048
4687,34048
4688,34112
4689,34112
4690,34048
4691,33984
4692,33920
4693,33984
4694,34048
4695,34048
4696,33984
4697,33984
4698,33984
4699,33984
4700,33984
4701,34048
4702,34112
4703,34112
4704,34176
4705,34176
4706,34176
4707,34176
4708,34176
4709,34176
4710,34112
4711,34048
4712,33984
4713,33984
4714,33984
4715,33984
4716,34112
4717,34176
4718,34240
4719,34112
4720,34112
4721,34112
4722,34176
4723,34176
4724,34176
4725,34240
4726,34368
4727,34432
4728,34496
4729,34496
4730,34560
4731,34560
4732,34624
4733,34560
4734,34624
4735,34624
4736,34496
4737,34368
4738,34176
4739,34112
4740,34112
4741,34048
4742,34048
4743,34048
4744,34048
4745,34048
4746,34048
4747,34048
4748,33984
4749,33920
4750,33856
4751,33856
4752,33856
4753,33920
4754,33984
4755,34048
4756,34112
4757,34176
4758,34176
4759,34240
4760,34176
4761,34112
4762,34240
4763,34560
4764,35008
4765,35776
4766,36928
4767,38656
4768,40832
4769,43200
4770,45120
4771,45504
4772,44160
4773,41472
4774,38080
4775,34368
4776,31040
4777,28800
4778,27648
4779,27520
4780,28288
4781,29312
4782,30400
4783,31744
4784,32512
4785,33344
4786,33920
4787,34368
4788,34624
4789,34752
4790,34752
4791,34752
4792,34624
4793,34560
4794,34432
4795,34304
4796,34176
4797,34240
4798,34240
4799,34240
4800,34176
4801,34176
4802,34240
4803,34240
4804,34304
4805,34304
4806,34240
4807,34176
4808,34112
4809,34112
4810,34048
4811,34048
4812,34048
4813,34112
4814,34176
4815,34176
4816,34240
4817,34240
4818,34304
4819,34304
4820,34304
4821,34368
4822,34368
4823,34304
4824,34176
4825,34048
4826,33920
4827,33856
4828,33792
4829,33792
4830,33792
4831,33792
4832,33728
4833,33664
4834,33728
4835,33920
4836,33984
4837,34048
4838,34048
4839,34048
4840,34048
4841,34048
4842,34048
4843,33984
4844,33920
4845,33856
4846,33856
4847,33856
4848,33792
4849,33728
4850,33664
4851,33600
4852,33600
4853,33600
4854,33664
4855,33728
4856,33856
4857,33920
4858,33984
4859,33984
4860,33984
4861,33984
4862,33920
4863,33856
4864,33856
4865,33856
4866,33792
4867,33792
4868,33792
4869,33792
4870,33856
4871,33856
4872,33920
4873,33984
4874,34048
4875,33984
4876,33984
4877,33984
4878,33920
4879,33920
4880,33856
4881,33792
4882,33792
4883,33728
4884,33728
4885,33792
4886,33856
4887,33792
4888,33856
4889,33920
4890,33920
4891,33920
4892,33856
4893,33856
4894,33792
4895,33728
4896,33728
4897,33792
4898,33856
4899,33856
4900,33856
4901,33920
4902,33920
4903,33920
4904,33920
4905,33984
4906,34112
4907,34112
4908,33984
4909,33856
4910,33856
4911,33856
4912,33920
4913,33984
4914,33984
4915,33984
4916,33984
4917,33984
4918,33984
4919,33984
4920,33984
4921,33984
4922,33984
4923,33984
4924,33984
4925,34048
4926,34112
4927,34112
4928,34112
4929,34176
4930,34240
4931,34368
4932,34368
4933,34240
4934,34048
4935,33984
4936,33920
4937,33984
4938,34112
4939,34240
4940,34368
4941,34496
4942,34560
4943,34560
4944,34560
4945,34496
4946,34496
4947,34432
4948,34432
4949,34432
4950,34368
4951,34304
4952,34176
4953,33984
4954,33920
4955,33920
4956,33984
4957,33920
4958,33856
4959,33792
4960,33792
4961,33792
4962,33792
4963,33920
4964,33984
4965,33984
4966,34048
4967,34112
4968,34112
4969,34112
4970,34048
4971,34048
4972,34048
4973,33984
4974,33920
4975,34048
4976,34368
4977,34880
4978,35776
4979,37184
4980,39168
4981,41472
4982,43840
4983,45568
4984,45568
4985,43968
4986,41216
4987,37632
4988,33856
4989,30656
4990,28416
4991,27328
4992,27328
4993,28480
4994,29248
4995,30400
4996,31552
4997,32576
4998,33472
4999,34112
5000,34560
5001,34880
5002,35008
5003,34944
5004,34816
5005,34688
5006,34624
5007,34432
5008,34368
5009,34304
5010,34240
5011,34176
5012,34112
5013,34048
5014,34112
5015,34112
5016,34112
5017,34176
5018,34240
5019,34240
5020,34240
5021,34240
5022,34240
5023,34304
5024,34304
5025,34304
5026,34304
5027,34304
5028,34304
5029,34304
5030,34304
5031,34240
5032,34176
5033,34112
5034,34112
5035,34048
5036,33984
5037,33920
5038,33920
5039,33920
5040,33920
5041,33856
5042,33920
5043,33920
5044,33984
5045,33920
5046,33920
5047,33920
5048,33984
5049,33984
5050,34048
5051,34112
5052,34112
5053,34112
5054,34112
5055,34112
5056,34112
5057,33984
5058,33920
5059,33856
5060,33856
5061,33792
5062,33792
5063,33792
5064,33920
5065,33984
5066,33984
5067,33984
5068,33984
5069,33920
5070,33920
5071,33920
5072,33920
5073,34048
5074,34048
5075,34048
5076,34048
5077,34048
5078,34048
5079,34048
5080,34112
5081,34112
5082,34048
5083,34048
5084,34048
5085,34112
5086,34112
5087,34048
5088,34048
5089,34048
5090,33984
5091,33920
5092,33920
5093,33856
5094,33856
5095,33856
5096,33856
5097,33856
5098,33920
5099,33920
5100,33920
5101,33984
5102,33984
5103,33984
5104,34048
5105,34048
5106,34048
5107,34048
5108,34112
5109,34112
5110,34048
5111,34048
5112,33984
5113,33920
5114,33920
5115,33920
5116,33920
5117,33984
5118,33984
5119,33984
5120,33984
5121,33920
5122,33920
5123,33984
5124,34048
5125,34112
5126,34112
5127,34176
5128,34176
5129,34176
5130,34240
5131,34304
5132,34368
5133,34368
5134,34368
5135,34432
5136,34432
5137,34432
5138,34432
5139,34432
5140,34432
5141,34432
5142,34368
5143,34368
5144,34368
5145,34240
5146,34176
5147,34176
5148,34176
5149,34112
5150,34112
5151,34112
5152,34112
5153,34112
5154,33984
5155,33920
5156,33856
5157,33792
5158,33792
5159,33728
5160,33792
5161,33920
5162,33984
5163,34048
5164,34048
5165,34048
5166,33984
5167,33984
5168,33984
5169,33920
5170,34048
5171,34368
5172,35008
5173,36032
5174,37504
5175,39488
5176,41728
5177,44032
5178,45440
5179,45248
5180,43456
5181,40512
5182,36992
5183,33280
5184,30272
5185,28288
5186,27392
5187,27520
5188,28416
5189,29504
5190,30592
5191,31680
5192,32704
5193,33536
5194,34176
5195,34560
5196,34688
5197,34816
5198,34816
5199,34752
5200,34688
5201,34624
5202,34496
5203,34368
5204,34240
5205,34176
5206,34112
5207,34048
5208,34048
5209,34048
5210,34048
5211,34048
5212,34112
5213,34176
5214,34176
5215,34240
5216,34240
5217,34240
5218,34304
5219,34304
5220,34304
5221,34304
5222,34304
5223,34304
5224,34240
5225,34240
5226,34176
5227,34176
5228,34176
5229,34112
5230,34048
5231,33984
5232,33920
5233,33920
5234,33856
5235,33920
5236,33920
5237,33920
5238,33920
5239,33920
5240,33920
5241,33984
5242,33984
5243,33984
5244,33984
5245,33984
5246,33984
5247,34048
5248,34048
5249,33984
5250,33920
5251,33920
5252,33856
5253,33792
5254,33792
5255,33792
5256,33792
5257,33728
5258,33664
5259,33664
5260,33728
5261,33792
5262,33792
5263,33856
5264,33920
5265,33984
5266,33984
5267,33984
5268,33984
5269,34048
5270,34048
5271,33984
5272,34048
5273,34112
5274,34112
5275,34048
5276,34048
5277,33984
5278,34048
5279,34048
5280,34048
5281,34048
5282,34048
5283,33984
5284,33920
5285,33920
5286,33920
5287,33984
5288,33984
5289,33984
5290,33984
5291,33984
5292,33984
5293,33984
5294,33920
5295,33920
5296,33920
5297,33920
5298,33984
5299,34048
5300,33984
5301,33984
5302,33920
5303,33920
5304,33984
5305,33984
5306,34048
5307,34112
5308,34240
5309,34304
5310,34368
5311,34432
5312,34496
5313,34432
5314,34496
5315,34496
5316,34496
5317,34496
5318,34496
5319,34432
5320,34368
5321,34240
5322,34176
5323,34112
5324,34048
5325,33984
5326,33920
5327,33920
5328,33920
5329,33792
5330,33664
5331,33600
5332,33600
5333,33600
5334,33728
5335,33728
5336,33728
5337,33728
5338,33856
5339,33856
5340,33984
5341,34048
5342,34048
5343,34048
5344,33984
5345,34048
5346,34176
5347,34496
5348,35072
5349,36160
5350,37760
5351,39680
5352,41920
5353,44032
5354,45248
5355,44736
5356,42624
5357,39552
5358,35968
5359,32384
5360,29696
5361,27968
5362,27392
5363,27776
5364,28736
5365,29888
5366,31040
5367,32000
5368,32832
5369,33472
5370,33984
5371,34368
5372,34560
5373,34688
5374,34688
5375,34688
5376,34624
5377,34560
5378,34496
5379,34368
5380,34240
5381,34176
5382,34176
5383,34112
5384,34048
5385,33984
5386,33984
5387,33984
5388,33984
5389,34048
5390,34112
5391,34176
5392,34240
5393,34304
5394,34368
5395,34432
5396,34304
5397,34240
5398,34240
5399,34240
5400,34240
5401,34240
5402,34240
5403,34240
5404,34176
5405,34112
5406,34048
5407,34048
5408,33984
5409,33920
5410,33984
5411,33984
5412,33984
5413,33984
5414,33984
5415,33984
5416,33920
5417,33920
5418,33984
5419,34048
5420,34048
5421,34048
5422,33984
5423,33920
5424,33920
5425,33856
5426,33856
5427,33792
5428,33792
5429,33728
5430,33728
5431,33728
5432,33792
5433,33728
5434,33664
5435,33664
5436,33728
5437,33792
5438,33792
5439,33856
5440,33920
5441,33984
5442,33984
5443,34048
5444,34112
5445,34112
5446,34048
5447,34048
5448,33984
5449,33984
5450,33920
5451,33920
5452,33920
5453,33920
5454,33920
5455,33984
5456,33984
5457,33984
5458,33984
5459,33984
5460,34048
5461,33984
5462,33984
5463,33984
5464,33984
5465,33920
5466,33920
5467,33856
5468,33856
5469,33920
5470,33920
5471,33984
5472,33984
5473,33984
5474,33920
5475,33856
5476,33856
5477,33856
5478,33856
5479,33856
5480,33920
5481,33920
5482,33920
5483,33984
5484,34048
5485,34048
5486,34048
5487,33984
5488,33920
5489,33984
5490,33984
5491,33984
5492,34048
5493,34112
5494,34176
5495,34048
5496,33984
5497,33920
5498,33920
5499,33984
5500,33984
5501,33984
5502,33984
5503,34048
5504,34112
5505,34112
5506,34112
5507,34112
5508,34112
5509,34112
5510,34112
5511,34112
5512,34176
5513,34240
5514,34304
5515,34432
5516,34560
5517,34560
5518,34560
5519,34560
5520,34496
5521,34432
5522,34432
5523,34496
5524,34432
5525,34368
5526,34304
5527,34240
5528,34176
5529,34048
5530,33920
5531,33984
5532,33984
5533,33984
5534,33920
5535,33856
5536,33728
5537,33728
5538,33664
5539,33728
5540,33856
5541,33920
5542,33920
5543,33984
5544,34048
5545,34112
5546,34112
5547,34048
5548,34048
5549,33984
5550,33984
5551,34048
5552,34304
5553,34880
5554,35840
5555,37312
5556,39168
5557,41344
5558,43584
5559,45376
5560,45504
5561,43904
5562,41152
5563,37504
5564,33728
5565,30464
5566,28288
5567,27328
5568,27392
5569,28160
5570,29248
5571,30400
5572,31616
5573,32640
5574,33408
5575,33984
5576,34432
5577,34688
5578,34816
5579,34816
5580,34816
5581,34752
5582,34688
5583,34496
5584,34304
5585,34240
5586,34176
5587,34176
5588,34048
5589,33984
5590,33984
5591,33920
5592,33920
5593,33920
5594,33984
5595,34048
5596,34112
5597,34176
5598,34240
5599,34240
5600,34240
5601,34304
5602,34368
5603,34304
5604,34240
5605,34176
5606,34112
5607,34112
5608,34048
5609,33984
5610,33984
5611,33920
5612,33920
5613,33920
5614,33920
5615,33984
5616,33984
5617,33920
5618,33856
5619,33856
5620,33856
5621,33920
5622,33920
5623,33984
5624,34048
5625,34048
5626,34048
5627,34048
5628,34112
5629,34112
5630,34112
5631,34048
5632,33920
5633,33856
5634,33792
5635,33728
5636,33728
5637,33728
5638,33664
5639,33728
5640,33728
5641,33728
5642,33792
5643,33856
5644,34048
5645,34112
5646,34048
5647,33984
5648,33984
5649,33984
5650,33984
5651,33984
5652,34048
5653,34048
5654,34048
5655,34048
5656,34048
5657,34048
5658,34048
5659,34048
5660,34048
5661,34048
5662,33984
5663,33984
5664,33984
5665,34048
5666,33984
5667,33984
5668,33984
5669,33984
5670,33984
5671,33984
5672,33984
5673,33984
5674,33920
5675,33984
5676,34048
5677,34048
5678,33984
5679,33920
5680,33920
5681,33856
5682,33856
5683,33920
5684,33920
5685,33920
5686,33920
5687,33920
5688,33920
5689,33920
5690,33984
5691,33984
5692,34048
5693,34112
5694,34112
5695,34048
5696,34048
5697,34048
5698,34112
5699,34112
5700,34048
5701,33984
5702,33984
5703,33984
5704,34048
5705,34112
5706,34112
5707,34112
5708,34112
5709,34112
5710,34176
5711,34176
5712,34176
5713,34112
5714,34048
5715,33984
5716,33984
5717,33984
5718,34048
5719,34048
5720,34048
5721,34112
5722,34176
5723,34176
5724,34176
5725,34176
5726,34176
5727,34176
5728,34240
5729,34240
5730,34176
5731,34176
5732,34176
5733,34176
5734,34176
5735,34240
5736,34304
5737,34368
5738,34368
5739,34432
5740,34496
5741,34560
5742,34496
5743,34496
5744,34560
5745,34560
5746,34560
5747,34496
5748,34432
5749,34368
5750,34240
5751,34176
5752,34112
5753,34048
5754,34112
5755,34112
5756,34112
5757,34112
5758,34048
5759,33984
5760,33920
5761,33920
5762,33856
5763,33856
5764,33856
5765,33920
5766,34048
5767,34112
5768,34048
5769,34048
5770,34048
5771,34048
5772,33984
5773,33984
5774,34112
5775,34368
5776,34880
5777,35840
5778,37184
5779,39040
5780,41216
5781,43520
5782,45440
5783,45696
5784,44160
5785,41344
5786,37824
5787,33600
5788,30720
5789,28480
5790,27456
5791,27456
5792,28224
5793,29248
5794,30336
5795,31488
5796,32448
5797,33280
5798,33920
5799,34368
5800,34688
5801,34816
5802,34880
5803,34816
5804,34688
5805,34496
5806,34368
5807,34304
5808,34176
5809,34048
5810,33984
5811,33920
5812,33984
5813,33984
5814,33984
5815,34048
5816,34112
5817,34112
5818,34112
5819,34176
5820,34304
5821,34368
5822,34368
5823,34304
5824,34240
5825,34240
5826,34112
5827,33984
5828,34048
5829,34048
5830,34112
5831,34112
5832,34048
5833,33984
5834,33984
5835,33984
5836,33984
5837,33984
5838,33920
5839,33920
5840,33920
5841,33920
5842,33920
5843,33920
5844,33984
5845,34048
5846,33984
5847,33984
5848,34048
5849,34048
5850,34048
5851,34048
5852,34048
5853,33984
5854,33920
5855,33856
5856,33792
5857,33792
5858,33792
5859,33792
5860,33792
5861,33856
5862,33856
5863,33792
5864,33728
5865,33792
5866,33792
5867,33792
5868,33856
5869,33856
5870,33920
5871,33984
5872,33984
5873,33984
5874,34048
5875,34048
5876,34048
5877,34112
5878,34112
5879,34048
5880,33920
5881,33856
5882,33856
5883,33856
5884,33856
5885,33920
5886,33920
5887,33792
5888,33792
5889,33792
5890,33792
5891,33792
5892,33856
5893,33920
5894,33984
5895,34048
5896,33984
5897,33856
5898,33792
5899,33792
5900,33792
5901,33728
5902,33792
5903,33792
5904,33856
5905,33920
5906,33920
5907,33984
5908,33984
5909,33920
5910,33920
5911,33920
5912,33920
5913,33920
5914,33984
5915,33984
5916,33984
5917,33984
5918,34048
5919,34048
5920,34048
5921,34048
5922,34048
5923,34048
5924,34112
5925,34048
5926,33920
5927,33856
5928,33856
5929,33920
5930,33984
5931,34048
5932,34048
5933,34112
5934,34112
5935,34112
5936,34112
5937,34112
5938,34048
5939,34048
5940,33984
5941,33984
5942,33984
5943,34048
5944,34048
5945,34048
5946,34048
5947,34048
5948,34112
5949,34112
5950,34176
5951,34176
5952,34240
5953,34240
5954,34240
5955,34176
5956,34112
5957,34048
5958,34048
5959,34048
5960,33984
5961,33984
5962,34048
5963,34176
5964,34368
5965,34432
5966,34496
5967,34496
5968,34432
5969,34432
5970,34496
5971,34496
5972,34496
5973,34560
5974,34560
5975,34560
5976,34432
5977,34368
5978,34304
5979,34240
5980,34112
5981,33984
5982,33984
5983,33984
5984,33984
5985,33984
5986,33984
5987,33856
5988,33792
5989,33792
5990,33856
5991,33920
5992,33984
5993,34112
5994,34176
5995,34240
5996,34240
5997,34240
5998,34240
5999,34112
6000,33920
6001,33856
6002,34048
6003,34624
6004,35584
6005,36992
6006,38976
6007,41280
6008,43584
6009,45376
6010,45568
6011,44032
6012,41216
6013,37632
6014,33920
6015,30784
6016,28672
6017,27648
6018,27648
6019,28416
6020,29376
6021,30400
6022,31488
6023,32384
6024,33216
6025,33856
6026,34304
6027,34304
6028,34944
6029,34880
6030,34944
6031,34752
6032,34624
6033,34432
6034,34304
6035,34304
6036,34240
6037,34176
6038,34112
6039,34048
6040,34048
6041,34048
6042,34048
6043,34048
6044,34112
6045,34176
6046,34176
6047,34176
6048,34176
6049,34176
6050,34176
6051,34240
6052,34240
6053,34240
6054,34240
6055,34304
6056,34304
6057,34240
6058,34176
6059,34112
6060,33984
6061,33920
6062,33856
6063,33728
6064,33728
6065,33792
6066,33792
6067,33792
6068,33728
6069,33792
6070,33792
6071,33792
6072,33920
6073,34048
6074,34176
6075,34176
6076,34240
6077,34304
6078,34240
6079,34112
6080,34048
6081,33984
6082,33920
6083,33792
6084,33792
6085,33856
6086,33856
6087,33920
6088,33920
6089,33856
6090,33856
6091,33920
6092,33920
6093,33920
6094,33984
6095,33984
6096,34048
6097,34048
6098,34112
6099,34112
6100,34112
6101,34112
6102,34112
6103,34048
6104,34048
6105,34048
6106,33984
6107,33984
6108,33920
6109,33984
6110,34048
6111,34048
6112,34048
6113,33984
6114,33920
6115,33920
6116,33920
6117,33920
6118,33984
6119,33984
6120,33984
6121,34048
6122,34048
6123,34048
6124,34048
6125,34048
6126,34048
6127,34048
6128,34048
6129,34048
6130,34048
6131,34048
6132,33984
6133,33920
6134,33792
6135,33792
6136,33792
6137,33792
6138,33856
6139,33920
6140,33920
6141,33984
6142,33984
6143,34112
6144,34176
6145,34176
6146,34112
6147,34048
6148,34048
6149,34048
6150,33984
6151,33920
6152,33920
6153,33984
6154,33984
6155,33984
6156,34048
6157,34048
6158,34112
6159,34112
6160,34112
6161,34112
6162,34112
6163,34176
6164,34240
6165,34304
6166,34368
6167,34432
6168,34496
6169,34496
6170,34432
6171,34368
6172,34368
6173,34368
6174,34368
6175,34432
6176,34368
6177,34240
6178,34176
6179,34112
6180,34048
6181,34048
6182,34048
6183,34112
6184,34112
6185,34112
6186,34048
6187,33920
6188,33792
6189,33792
6190,33792
6191,33792
6192,33856
6193,33920
6194,33984
6195,33984
6196,34048
6197,34048
6198,34112
6199,34112
6200,34176
6201,34112
6202,34048
6203,33984
6204,34176
6205,34624
6206,35520
6207,36928
6208,38976
6209,41088
6210,43392
6211,45184
6212,45312
6213,43968
6214,41408
6215,38016
6216,34368
6217,31104
6218,28864
6219,27648
6220,27456
6221,28160
6222,29120
6223,30208
6224,31296
6225,32320
6226,33216
6227,33856
6228,34304
6229,34560
6230,34688
6231,34688
6232,34688
6233,34624
6234,34560
6235,34496
6236,34432
6237,34368
6238,34240
6239,34176
6240,34176
6241,34240
6242,34176
6243,34112
6244,34048
6245,33984
6246,33920
6247,33920
6248,34048
6249,34048
6250,33984
6251,34112
6252,34112
6253,34176
6254,34176
6255,34176
6256,34176
6257,34240
6258,34240
6259,34240
6260,34176
6261,34112
6262,34048
6263,34048
6264,34048
6265,34048
6266,33984
6267,33856
6268,33792
6269,33664
6270,33600
6271,33536
6272,33600
6273,33664
6274,33792
6275,33856
6276,33984
6277,34048
6278,34176
6279,34240
6280,34240
6281,34240
6282,34176
6283,34048
6284,33984
6285,33920
6286,33856
6287,33792
6288,33728
6289,33664
6290,33664
6291,33664
6292,33728
6293,33728
6294,33792
6295,33856
6296,33920
6297,33984
6298,34048
6299,34048
6300,34048
6301,34048
6302,34112
6303,34112
6304,34112
6305,34112
6306,34112
6307,34112
6308,34048
6309,33984
6310,33984
6311,33984
6312,33920
6313,33856
6314,33856
6315,33984
6316,33984
6317,33984
6318,33920
6319,33984
6320,33984
6321,33984
6322,33984
6323,33984
6324,34048
6325,34048
6326,33984
6327,33920
6328,33856
6329,33792
6330,33856
6331,33856
6332,33856
6333,33920
6334,33920
6335,33856
6336,33920
6337,33920
6338,33920
6339,33984
6340,34112
6341,34176
6342,34240
6343,34176
6344,34176
6345,34112
6346,33984
6347,33984
6348,33920
6349,33920
6350,33920
6351,33984
6352,33984
6353,33920
6354,33856
6355,33856
6356,33984
6357,34176
6358,34304
6359,34368
6360,34496
6361,34560
6362,34560
6363,34560
6364,34496
6365,34496
6366,34560
6367,34560
6368,34496
6369,34368
6370,34240
6371,34112
6372,33984
6373,34048
6374,33984
6375,33984
6376,33920
6377,33920
6378,33920
6379,33920
6380,33856
6381,33856
6382,33856
6383,33856
6384,33856
6385,33920
6386,33984
6387,33984
6388,33984
6389,33984
6390,33984
6391,34048
6392,34048
6393,33984
6394,33920
6395,33920
6396,34176
6397,34624
6398,35456
6399,36800
6400,38592
6401,40704
6402,43008
6403,45248
6404,45632
6405,44416
6406,41856
6407,38464
6408,34752
6409,31360
6410,28928
6411,27712
6412,27520
6413,28160
6414,29184
6415,30272
6416,31360
6417,32320
6418,33088
6419,33728
6420,34112
6421,34368
6422,34496
6423,34560
6424,34624
6425,34624
6426,34560
6427,34432
6428,34368
6429,34368
6430,34304
6431,34240
6432,34176
6433,34176
6434,34112
6435,34048
6436,33984
6437,33920
6438,33920
6439,33984
6440,34048
6441,34112
6442,34176
6443,34240
6444,34304
6445,34368
6446,34368
6447,34304
6448,34304
6449,34304
6450,34304
6451,34240
6452,34176
6453,34112
6454,34048
6455,34048
6456,34048
6457,34048
6458,33984
6459,33920
6460,33920
6461,33856
6462,33856
6463,33856
6464,33856
6465,33856
6466,33856
6467,33920
6468,33984
6469,34048
6470,34048
6471,34048
6472,34048
6473,34048
6474,33984
6475,33856
6476,33792
6477,33792
6478,33856
6479,33792
6480,33728
6481,33664
6482,33664
6483,33664
6484,33664
6485,33728
6486,33792
6487,33920
6488,33984
6489,34048
6490,34048
6491,34112
6492,34048
6493,34048
6494,33984
6495,33984
6496,33984
6497,33920
6498,33920
6499,33920
6500,33984
6501,33984
6502,33920
6503,33920
6504,33984
6505,33984
6506,34048
6507,34048
6508,34112
6509,34112
6510,34176
6511,34240
6512,34240
6513,34112
6514,34048
6515,34048
6516,33984
6517,33856
6518,33856
6519,33856
6520,33920
6521,33920
6522,33856
6523,33792
6524,33792
6525,33792
6526,33728
6527,33792
6528,33920
6529,33984
6530,34048
6531,33984
6532,33984
6533,33984
6534,33920
6535,33920
6536,33984
6537,33984
6538,34048
6539,34048
6540,34048
6541,34048
6542,34048
6543,34048
6544,34048
6545,34048
6546,34048
6547,33984
6548,34048
6549,34048
6550,34048
6551,34048
6552,34048
6553,34112
6554,34048
6555,34048
6556,34048
6557,34112
6558,34112
6559,34112
6560,34048
6561,34112
6562,34048
6563,34048
6564,34112
6565,34240
6566,34240
6567,34176
6568,34176
6569,34112
6570,34176
6571,34304
6572,34368
6573,34368
6574,34368
6575,34368
6576,34368
6577,34432
6578,34560
6579,34624
6580,34560
6581,34560
6582,34496
6583,34368
6584,34240
6585,34176
6586,34176
6587,34112
6588,34112
6589,34176
6590,34176
6591,34176
6592,34048
6593,33920
6594,33856
6595,33792
6596,33728
6597,33728
6598,33792
6599,33792
6600,33792
6601,33856
6602,33920
6603,33984
6604,33984
6605,33984
6606,34048
6607,34048
6608,34048
6609,34176
6610,34560
6611,35136
6612,36160
6613,37632
6614,39616
6615,41856
6616,44096
6617,45568
6618,45376
6619,43520
6620,40512
6621,36864
6622,33152
6623,30144
6624,28224
6625,27392
6626,27584
6627,28416
6628,29696
6629,30656
6630,31680
6631,32640
6632,33408
6633,33984
6634,34368
6635,34560
6636,34688
6637,34752
6638,34688
6639,34688
6640,34624
6641,34560
6642,34496
6643,34368
6644,34304
6645,34176
6646,34112
6647,34048
6648,34048
6649,34048
6650,34048
6651,34048
6652,34112
6653,34112
6654,34112
6655,34112
6656,34112
6657,34112
6658,34112
6659,34112
6660,34176
6661,34240
6662,34240
6663,34304
6664,34304
6665,34368
6666,34304
6667,34240
6668,34112
6669,34112
6670,34048
6671,33984
6672,33856
6673,33856
6674,33792
6675,33792
6676,33728
6677,33792
6678,33856
6679,33856
6680,33920
6681,33984
6682,34048
6683,34048
6684,34048
6685,34048
6686,34048
6687,34048
6688,33984
6689,33920
6690,33920
6691,33920
6692,33920
6693,33856
6694,33920
6695,33920
6696,33920
6697,33856
6698,33856
6699,33856
6700,33856
6701,33792
6702,33792
6703,33856
6704,33856
6705,33920
6706,33920
6707,33984
6708,33984
6709,33984
6710,34048
6711,34112
6712,34112
6713,34112
6714,34112
6715,34112
6716,34048
6717,34048
6718,34048
6719,34112
6720,34048
6721,34048
6722,34048
6723,34048
6724,34048
6725,34048
6726,33984
6727,33920
6728,33920
6729,33856
6730,33856
6731,33856
6732,33856
6733,33920
6734,33920
6735,33920
6736,33920
6737,33920
6738,33920
6739,33920
6740,33984
6741,34048
6742,33984
6743,33984
6744,34048
6745,34048
6746,34048
6747,34048
6748,34112
6749,34048
6750,33920
6751,33856
6752,33856
6753,33920
6754,33984
6755,34048
6756,34048
6757,34048
6758,34048
6759,34048
6760,34048
6761,34112
6762,34112
6763,34112
6764,34048
6765,34112
6766,34176
6767,34240
6768,34240
6769,34240
6770,34112
6771,34048
6772,33984
6773,33984
6774,33984
6775,34048
6776,34112
6777,34176
6778,34112
6779,34048
6780,34048
6781,34048
6782,34048
6783,34048
6784,34112
6785,34112
6786,34176
6787,34240
6788,34176
6789,34176
6790,34112
6791,34176
6792,34176
6793,34176
6794,34176
6795,34176
6796,34112
6797,34112
6798,34176
6799,34240
6800,34240
6801,34240
6802,34304
6803,34368
6804,34432
6805,34496
6806,34496
6807,34560
6808,34624
6809,34560
6810,34560
6811,34496
6812,34496
6813,34432
6814,34368
6815,34304
6816,34304
6817,34304
6818,34176
6819,34048
6820,33984
6821,34048
6822,34048
6823,34048
6824,34112
6825,34112
6826,34048
6827,33920
6828,33856
6829,33856
6830,33920
6831,33984
6832,33984
6833,33984
6834,33984
6835,33920
6836,33920
6837,33984
6838,34048
6839,33984
6840,33984
6841,34112
6842,34304
6843,34752
6844,35648
6845,36992
6846,38848
6847,41024
6848,43328
6849,45184
6850,45568
6851,44224
6852,41792
6853,37312
6854,34688
6855,31296
6856,28928
6857,27648
6858,27392
6859,27968
6860,28928
6861,30080
6862,31232
6863,32256
6864,33216
6865,33920
6866,34368
6867,34560
6868,34624
6869,34688
6870,34624
6871,34560
6872,34496
6873,34432
6874,34368
6875,34304
6876,34240
6877,34112
6878,34048
6879,34048
6880,33984
6881,33984
6882,33984
6883,33920
6884,33920
6885,33920
6886,33984
6887,34048
6888,34112
6889,34176
6890,34176
6891,34240
6892,34240
6893,34176
6894,34176
6895,34176
6896,34176
6897,34176
6898,34112
6899,34112
6900,34048
6901,33984
6902,33920
6903,33856
6904,33856
6905,33856
6906,33728
6907,33728
6908,33664
6909,33728
6910,33728
6911,33728
6912,33728
6913,33856
6914,33856
6915,33984
6916,34048
6917,34048
6918,34048
6919,34112
6920,34112
6921,34112
6922,34112
6923,34048
6924,33984
6925,33984
6926,33984
6927,33984
6928,33984
6929,33920
6930,33856
6931,33792
6932,33792
6933,33856
6934,33856
6935,33920
6936,33920
6937,33984
6938,33984
6939,33984
6940,33984
6941,34048
6942,34048
6943,34048
6944,34048
6945,34112
6946,34176
6947,34176
6948,34112
6949,34112
6950,34112
6951,34112
6952,34176
6953,34176
6954,34176
6955,34176
6956,34176
6957,34112
6958,34112
6959,34048
6960,33984
6961,33984
6962,33984
6963,33984
6964,33984
6965,33984
6966,34048
6967,34048
6968,33984
6969,33984
6970,34048
6971,34112
6972,34112
6973,34048
6974,34048
6975,34048
6976,34048
6977,34048
6978,34112
6979,34048
6980,33984
6981,33856
6982,33920
6983,33920
6984,33984
6985,34048
6986,34112
6987,34112
6988,34112
6989,34048
6990,34048
6991,34048
6992,34048
6993,34048
6994,34112
6995,34112
6996,34112
6997,34048
6998,33984
6999,33984
7000,33984
7001,33984
7002,34048
7003,34112
7004,34112
7005,34176
7006,34240
7007,34368
7008,34432
7009,34432
7010,34496
7011,34496
7012,34432
7013,34432
7014,34432
7015,34432
7016,34496
7017,34496
7018,34304
7019,34240
7020,34176
7021,34048
7022,33984
7023,33984
7024,33984
7025,34048
7026,34112
7027,34112
7028,34112
7029,33984
7030,33856
7031,33792
7032,33792
7033,33792
7034,33920
7035,33920
7036,33984
7037,34048
7038,34112
7039,34112
7040,34176
7041,34112
7042,34048
7043,33984
7044,33984
7045,34240
7046,34944
7047,35776
7048,37120
7049,38976
7050,41152
7051,43392
7052,45184
7053,45568
7054,44160
7055,41408
7056,37952
7057,33984
7058,30912
7059,28672
7060,27520
7061,27456
7062,28096
7063,29632
7064,30272
7065,31360
7066,32448
7067,33280
7068,33920
7069,34432
7070,34688
7071,34816
7072,34816
7073,34752
7074,34688
7075,34560
7076,34496
7077,34368
7078,34304
7079,34240
7080,34176
7081,34112
7082,34048
7083,33984
7084,33984
7085,33984
7086,33984
7087,34048
7088,33984
7089,33984
7090,33984
7091,34048
7092,34112
7093,34176
7094,34176
7095,34240
7096,34304
7097,34304
7098,34304
7099,34368
7100,34304
7101,34240
7102,34112
7103,34112
7104,34112
7105,34048
7106,33984
7107,33984
7108,33920
7109,33856
7110,33728
7111,33664
7112,33600
7113,33664
7114,33728
7115,33856
7116,33920
7117,33984
7118,33984
7119,34048
7120,34112
7121,34112
7122,34048
7123,33984
7124,33984
7125,33920
7126,33856
7127,33856
7128,33856
7129,33792
7130,33728
7131,33664
7132,33664
7133,33664
7134,33664
7135,33664
7136,33728
7137,33856
7138,33984
7139,33920
7140,33920
7141,33920
7142,33920
7143,33920
7144,33920
7145,33984
7146,34112
7147,34176
7148,34112
7149,34112
7150,34176
7151,34112
7152,34048
7153,33920
7154,33856
7155,33856
7156,33856
7157,33920
7158,33984
7159,34048
7160,34048
7161,34048
7162,34048
7163,34048
7164,34112
7165,34176
7166,34176
7167,34048
7168,33920
7169,33856
7170,33856
7171,33792
7172,33728
7173,33728
7174,33728
7175,33792
7176,33792
7177,33856
7178,33920
7179,33984
7180,34048
7181,34048
7182,34048
7183,34048
7184,34048
7185,34048
7186,34112
7187,34240
7188,34176
7189,34112
7190,34112
7191,33984
7192,33920
7193,33792
7194,33728
7195,33792
7196,33920
7197,33984
7198,34048
7199,34112
7200,34176
7201,34240
7202,34240
7203,34240
7204,34240
7205,34176
7206,34112
7207,34112
7208,34112
7209,34048
7210,34048
7211,34048
7212,34112
7213,34112
7214,34112
7215,34112
7216,34112
7217,34112
7218,34176
7219,34176
7220,34176
7221,34240
7222,34368
7223,34368
7224,34176
7225,33984
7226,33856
7227,33856
7228,33984
7229,34048
7230,34240
7231,34368
7232,34496
7233,34624
7234,34624
7235,34560
7236,34560
7237,34560
7238,34624
7239,34624
7240,34560
7241,34496
7242,34432
7243,34432
7244,34304
7245,34048
7246,33920
7247,33792
7248,33728
7249,33728
7250,33728
7251,33728
7252,33728
7253,33728
7254,33728
7255,33792
7256,33856
7257,33920
7258,34048
7259,34112
7260,34112
7261,34240
7262,34304
7263,34304
7264,34304
7265,34240
7266,34176
7267,34112
7268,34176
7269,34560
7270,35264
7271,36608
7272,38272
7273,40384
7274,42624
7275,44736
7276,45568
7277,44544
7278,42048
7279,38720
7280,34688
7281,31360
7282,29120
7283,27840
7284,27584
7285,28160
7286,29184
7287,30272
7288,31872
7289,32256
7290,32960
7291,33536
7292,33984
7293,34240
7294,34432
7295,34560
7296,34624
7297,34688
7298,34688
7299,34624
7300,34496
7301,34432
7302,34368
7303,34368
7304,34304
7305,34112
7306,33920
7307,33792
7308,33792
7309,33792
7310,33792
7311,33856
7312,33856
7313,33984
7314,34048
7315,34112
7316,34240
7317,34240
7318,34304
7319,34368
7320,34432
7321,34432
7322,34368
7323,34304
7324,34240
7325,34176
7326,34112
7327,33920
7328,33856
7329,33792
7330,33728
7331,33728
7332,33664
7333,33728
7334,33792
7335,33856
7336,33856
7337,33920
7338,33984
7339,33920
7340,33920
7341,33984
7342,33984
7343,33984
7344,33984
7345,33984
7346,33984
7347,33984
7348,33920
7349,33920
7350,33856
7351,33856
7352,33856
7353,33792
7354,33728
7355,33664
7356,33664
7357,33728
7358,33792
7359,33856
7360,33856
7361,33792
7362,33856
7363,33920
7364,33984
7365,33920
7366,33920
7367,33920
7368,33920
7369,33984
7370,33984
7371,34048
7372,34048
7373,34112
7374,34112
7375,34112
7376,34112
7377,34112
7378,34112
7379,34112
7380,34048
7381,33984
7382,34048
7383,34048
7384,34048
7385,34048
7386,34048
7387,33984
7388,33920
7389,33856
7390,33792
7391,33728
7392,33728
7393,33792
7394,33856
7395,33920
7396,34048
7397,34048
7398,33984
7399,33856
7400,33920
7401,33920
7402,33856
7403,33920
7404,33984
7405,33984
7406,33984
7407,33984
7408,33920
7409,33920
7410,33920
7411,33920
7412,33984
7413,33920
7414,33920
7415,33984
7416,34112
7417,34112
7418,34112
7419,34112
7420,34176
7421,34304
7422,34368
7423,34304
7424,34176
7425,34048
7426,33920
7427,33792
7428,33792
7429,33856
7430,33920
7431,34048
7432,34112
7433,34112
7434,34112
7435,34176
7436,34176
7437,34240
7438,34304
7439,34432
7440,34432
7441,34496
7442,34560
7443,34560
7444,34560
7445,34560
7446,34432
7447,34368
7448,34368
7449,34368
7450,34368
7451,34368
7452,34240
7453,34176
7454,34176
7455,34176
7456,34112
7457,34112
7458,34112
7459,34176
7460,34176
7461,34112
7462,34176
7463,34176
7464,34112
7465,33984
7466,33984
7467,33920
7468,33856
7469,33792
7470,33792
7471,33856
7472,33856
7473,33856
7474,33920
7475,33984
7476,33984
7477,33984
7478,34112
7479,34496
7480,35136
7481,36160
7482,37952
7483,39808
7484,42112
7485,44352
7486,45696
7487,45440
7488,43584
7489,40640
7490,36992
7491,33216
7492,30144
7493,28160
7494,27200
7495,27392
7496,28224
7497,29312
7498,30464
7499,31616
7500,32640
7501,33472
7502,34112
7503,34560
7504,34880
7505,34944
7506,34880
7507,34816
7508,34688
7509,34624
7510,34496
7511,34368
7512,34240
7513,34112
7514,34112
7515,34048
7516,33984
7517,33984
7518,33984
7519,33984
7520,33984
7521,33984
7522,34048
7523,34112
7524,34176
7525,34304
7526,34304
7527,34176
7528,34176
7529,34176
7530,34176
7531,34176
7532,34112
7533,34112
7534,34176
7535,34176
7536,34112
7537,34048
7538,33984
7539,33920
7540,33856
7541,33856
7542,33920
7543,33920
7544,33920
7545,33856
7546,33920
7547,33920
7548,33984
7549,33984
7550,33984
7551,33920
7552,33920
7553,33920
7554,34048
7555,34048
7556,34048
7557,34048
7558,33920
7559,33856
7560,33792
7561,33792
7562,33728
7563,33728
7564,33792
7565,33792
7566,33792
7567,33920
7568,33920
7569,33984
7570,33984
7571,33920
7572,33856
7573,33856
7574,33856
7575,33920
7576,33984
7577,34048
7578,34048
7579,34112
7580,34112
7581,34112
7582,34112
7583,34112
7584,34112
7585,34112
7586,34112
7587,34112
7588,34112
7589,34176
7590,34240
7591,34240
7592,34176
7593,34048
7594,33856
7595,33792
7596,33792
7597,33792
7598,33856
7599,33920
7600,33984
7601,33984
7602,34048
7603,34048
7604,34048
7605,34048
7606,33984
7607,33984
7608,33984
7609,33920
7610,33920
7611,33920
7612,33856
7613,33856
7614,33856
7615,33920
7616,34112
7617,34240
7618,34368
7619,34432
7620,34496
7621,34560
7622,34624
7623,34624
7624,34560
7625,34496
7626,34496
7627,34368
7628,34304
7629,34176
7630,34112
7631,33984
7632,33984
7633,33984
7634,33984
7635,34048
7636,34048
7637,34048
7638,33984
7639,33856
7640,33728
7641,33728
7642,33728
7643,33728
7644,33792
7645,33792
7646,33792
7647,33856
7648,33856
7649,33856
7650,33984
7651,34048
7652,34048
7653,33984
7654,33920
7655,33984
7656,34304
7657,34944
7658,36032
7659,37568
7660,39552
7661,41664
7662,43776
7663,45120
7664,44800
7665,43072
7666,40192
7667,36736
7668,33152
7669,30144
7670,28224
7671,27392
7672,27456
7673,28288
7674,29312
7675,30528
7676,31680
7677,32768
7678,33536
7679,34112
7680,34496
7681,34688
7682,34816
7683,34880
7684,34880
7685,34752
7686,34624
7687,34432
7688,34304
7689,34112
7690,33984
7691,33920
7692,33856
7693,33856
7694,33792
7695,33856
7696,33984
7697,34048
7698,34112
7699,34176
7700,34240
7701,34240
7702,34304
7703,34368
7704,34432
7705,34432
7706,34432
7707,34368
7708,34368
7709,34304
7710,34240
7711,34176
7712,34176
7713,34176
7714,34112
7715,34112
7716,34112
7717,34048
7718,34048
7719,33920
7720,33856
7721,33856
7722,33856
7723,33792
7724,33856
7725,33920
7726,34048
7727,34112
7728,34112
7729,33984
7730,33856
7731,33728
7732,33600
7733,33664
7734,33664
7735,33728
7736,33728
7737,33728
7738,33792
7739,33792
7740,33792
7741,33792
7742,33792
7743,33792
7744,33856
7745,33920
7746,33984
7747,34048
7748,33984
7749,33920
7750,33856
7751,33792
7752,33792
7753,33792
7754,33792
7755,33856
7756,33856
7757,33856
7758,33920
7759,33920
7760,33984
7761,33984
7762,34048
7763,34112
7764,34176
7765,34240
7766,34176
7767,34048
7768,33984
7769,33920
7770,33920
7771,33920
7772,33920
7773,33920
7774,33984
7775,33984
7776,34048
7777,34048
7778,34048
7779,34048
7780,33984
7781,33984
7782,33920
7783,33920
7784,33920
7785,33920
7786,33920
7787,33984
7788,33984
7789,34112
7790,34176
7791,34176
7792,34112
7793,33984
7794,33792
7795,33728
7796,33728
7797,33792
7798,33856
7799,33856
7800,33920
7801,33984
7802,34048
7803,34048
7804,34112
7805,34176
7806,34304
7807,34304
7808,34560
7809,34624
7810,34624
7811,34624
7812,34624
7813,34624
7814,34496
7815,34368
7816,34368
7817,34432
7818,34304
7819,34112
7820,34048
7821,34048
7822,33984
7823,33920
7824,33920
7825,33920
7826,33984
7827,33920
7828,34112
7829,34048
7830,33984
7831,33856
7832,33792
7833,33792
7834,33728
7835,33728
7836,33792
7837,33856
7838,33920
7839,33920
7840,33920
7841,33920
7842,33920
7843,33856
7844,33856
7845,33984
7846,34240
7847,34816
7848,35712
7849,37056
7850,38912
7851,41088
7852,43328
7853,45184
7854,45632
7855,44160
7856,41216
7857,40768
7858,34048
7859,30720
7860,28544
7861,27456
7862,27456
7863,28160
7864,29120
7865,30208
7866,31360
7867,32448
7868,33280
7869,33920
7870,34432
7871,34688
7872,34816
7873,34880
7874,34880
7875,34816
7876,34688
7877,34560
7878,34368
7879,34176
7880,34048
7881,33984
7882,33920
7883,33856
7884,33920
7885,33984
7886,34048
7887,34048
7888,34112
7889,34048
7890,34240
7891,34304
7892,34432
7893,34496
7894,34432
7895,34304
7896,34176
7897,34112
7898,34112
7899,34112
7900,34176
7901,34240
7902,34176
7903,34176
7904,34112
7905,34048
7906,34048
7907,34112
7908,34112
7909,34048
7910,34048
7911,34048
7912,34048
7913,33984
7914,34048
7915,34048
7916,34048
7917,33984
7918,33920
7919,33856
7920,33920
7921,33920
7922,33920
7923,33920
7924,33920
7925,33920
7926,33856
7927,33792
7928,33792
7929,33792
7930,33728
7931,33792
7932,33792
7933,33792
7934,33728
7935,33664
7936,33728
7937,33792
7938,33792
7939,33856
7940,33856
7941,33920
7942,33984
7943,33984
7944,33920
7945,33920
7946,33984
7947,33984
7948,33984
7949,34048
7950,34112
7951,34112
7952,34048
7953,34048
7954,34112
7955,34112
7956,34112
7957,34176
7958,34176
7959,34240
7960,34176
7961,34048
7962,33984
7963,33920
7964,33920
7965,33856
7966,33856
7967,33856
7968,33920
7969,33920
7970,33920
7971,33984
7972,33984
7973,33984
7974,34048
7975,34112
7976,34112
7977,34176
7978,34176
7979,34176
7980,34112
7981,33984
7982,33920
7983,33920
7984,33856
7985,33792
7986,33792
7987,33792
7988,33792
7989,33856
7990,33920
7991,34048
7992,34048
7993,34048
7994,34112
7995,34176
7996,34176
7997,34176
7998,34176
7999,34240
8000,34240
8001,34240
8002,34304
8003,34240
8004,34176
8005,34112
8006,34112
8007,34048
8008,34048
8009,33984
8010,33984
8011,33984
8012,34048
8013,34048
8014,34048
8015,34112
8016,34176
8017,34240
8018,34304
8019,34368
8020,34496
8021,34624
8022,34624
8023,34624
8024,34560
8025,34432
8026,34304
8027,34176
8028,34176
8029,34176
8030,34176
8031,34176
8032,34240
8033,34368
8034,34432
8035,34432
8036,34432
8037,34496
8038,34496
8039,34368
8040,34176
8041,34112
8042,34112
8043,33920
8044,33920
8045,34048
8046,34240
8047,33984
8048,33536
8049,33152
8050,33088
8051,33216
8052,33408
8053,33792
8054,34048
8055,34368
8056,34688
8057,34816
8058,34816
8059,34752
8060,34944
8061,35712
8062,37056
8063,38848
8064,40896
8065,43136
8066,44864
8067,44992
8068,43520
8069,40768
8070,37376
8071,33664
8072,30464
8073,28608
8074,27840
8075,27776
8076,28352
8077,29376
8078,30464
8079,31232
8080,32064
8081,32768
8082,33472
8083,34048
8084,34368
8085,34624
8086,34752
8087,34880
8088,35008
8089,35008
8090,34880
8091,34752
8092,34752
8093,34560
8094,34368
8095,34048
8096,33728
8097,33472
8098,33344
8099,33344
8100,33536
8101,33792
8102,33984
8103,34112
8104,34304
8105,34624
8106,34880
8107,34944
8108,34944
8109,34816
8110,34688
8111,34560
8112,34496
8113,34368
8114,34240
8115,34048
8116,33984
8117,34048
8118,34112
8119,34112
8120,33984
8121,33792
8122,33600
8123,33472
8124,33280
8125,33216
8126,33216
8127,33344
8128,33536
8129,33600
8130,33728
8131,33984
8132,34304
8133,34432
8134,34496
8135,34432
8136,34112
8137,33856
8138,33728
8139,33664
8140,33664
8141,33664
8142,33728
8143,33728
8144,33728
8145,33792
8146,33792
8147,33728
8148,33536
8149,33472
8150,33408
8151,33472
8152,33664
8153,33728
8154,33408
8155,32960
8156,32640
8157,32640
8158,33024
8159,33600
8160,34176
8161,34432
8162,34560
8163,34560
8164,34496
8165,34368
8166,34240
8167,34176
8168,33984
8169,33856
8170,33792
8171,33856
8172,33984
8173,34176
8174,34304
8175,34368
8176,34368
8177,34368
8178,34432
8179,34432
8180,34240
8181,33984
8182,33856
8183,33728
8184,33600
8185,33408
8186,33216
8187,33216
8188,33472
8189,33792
8190,34048
8191,34240
8192,34304
8193,34304
8194,34304
8195,34304
8196,34176
8197,34112
8198,33856
8199,33664
8200,33536
8201,33536
8202,33664
8203,33920
8204,33856
8205,33664
8206,33472
8207,33472
8208,33472
8209,33600
8210,33536
8211,33472
8212,33472
8213,33408
8214,33344
8215,33472
8216,33600
8217,33728
8218,33856
8219,33920
8220,33984
8221,33984
8222,33856
8223,33792
8224,33728
8225,33664
8226,33600
8227,33664
8228,33792
8229,33920
8230,33920
8231,33792
8232,33792
8233,33920
8234,33984
8235,34112
8236,34176
8237,34176
8238,34112
8239,34112
8240,34176
8241,34240
8242,34176
8243,34048
8244,34048
8245,34112
8246,34240
8247,34304
8248,34304
8249,34304
8250,34304
8251,34304
8252,34368
8253,34368
8254,34240
8255,34176
8256,34112
8257,34048
8258,33984
8259,33984
8260,34048
8261,33920
8262,33728
8263,33664
8264,33664
8265,33728
8266,33856
8267,33984
8268,34048
8269,34176
8270,34240
8271,34432
8272,34624
8273,34560
8274,34304
8275,34112
8276,34112
8277,34368
8278,34880
8279,35776
8280,37248
8281,39232
8282,41408
8283,43584
8284,45184
8285,45312
8286,43648
8287,40896
8288,37440
8289,33920
8290,30912
8291,28928
8292,27968
8293,27968
8294,28608
8295,29568
8296,30592
8297,31616
8298,32576
8299,33280
8300,33856
8301,34240
8302,34432
8303,34496
8304,34496
8305,34496
8306,34496
8307,34496
8308,34432
8309,34304
8310,34112
8311,33984
8312,34048
8313,34112
8314,34304
8315,34304
8316,34112
8317,33920
8318,33792
8319,33728
8320,33792
8321,33920
8322,34048
8323,34112
8324,34176
8325,34176
8326,34112
8327,34176
8328,34240
8329,34368
8330,34368
8331,34304
8332,34240
8333,34240
8334,34304
8335,34240
8336,34112
8337,33984
8338,33920
8339,33856
8340,33792
8341,33792
8342,33856
8343,33920
8344,33984
8345,33920
8346,33792
8347,33728
8348,33600
8349,33664
8350,33792
8351,33920
8352,33920
8353,33856
8354,33856
8355,33920
8356,33856
8357,33792
8358,33792
8359,33792
8360,33792
8361,33664
8362,33664
8363,33664
8364,33664
8365,33664
8366,33664
8367,33664
8368,33728
8369,33728
8370,33792
8371,33792
8372,33856
8373,33856
8374,33856
8375,33920
8376,33984
8377,33984
8378,34048
8379,33920
8380,33920
8381,33984
8382,33984
8383,34112
8384,34176
8385,34240
8386,34176
8387,34048
8388,33984
8389,33920
8390,33856
8391,33792
8392,33856
8393,33920
8394,33984
8395,33984
8396,34048
8397,34048
8398,34048
8399,34048
8400,34112
8401,34112
8402,34112
8403,34112
8404,34176
8405,34112
8406,34048
8407,33920
8408,33856
8409,33856
8410,33856
8411,33856
8412,33920
8413,33984
8414,33984
8415,33984
8416,33984
8417,33920
8418,33856
8419,33856
8420,33920
8421,34112
8422,34176
8423,34240
8424,34240
8425,34112
8426,34112
8427,34048
8428,34048
8429,33984
8430,34048
8431,34112
8432,34176
8433,34112
8434,34112
8435,34048
8436,34048
8437,34112
8438,34240
8439,34368
8440,34432
8441,34496
8442,34560
8443,34560
8444,34624
8445,34624
8446,34624
8447,34624
8448,34560
8449,34496
8450,34368
8451,34304
8452,34176
8453,34048
8454,33920
8455,33920
8456,34048
8457,34048
8458,34112
8459,34176
8460,34112
8461,34048
8462,34048
8463,33984
8464,33984
8465,34048
8466,34048
8467,34176
8468,34240
8469,34304
8470,34368
8471,34368
8472,34304
8473,34240
8474,34240
8475,34176
8476,34176
8477,34304
8478,34624
8479,35392
8480,36608
8481,38400
8482,40576
8483,42816
8484,44800
8485,45376
8486,44224
8487,41792
8488,37888
8489,34944
8490,31808
8491,29440
8492,28160
8493,27904
8494,28352
8495,29248
8496,30208
8497,31232
8498,32256
8499,33152
8500,33792
8501,34240
8502,34560
8503,34688
8504,34752
8505,34816
8506,34752
8507,34688
8508,34624
8509,34624
8510,34560
8511,34432
8512,34304
8513,34176
8514,34112
8515,34112
8516,34112
8517,34112
8518,34176
8519,34176
8520,34176
8521,34240
8522,34304
8523,34368
8524,34432
8525,34496
8526,34496
8527,34432
8528,34368
8529,34368
8530,34368
8531,34368
8532,34304
8533,34304
8534,34240
8535,34240
8536,34240
8537,34176
8538,34240
8539,34240
8540,34176
8541,34112
8542,34048
8543,34048
8544,34048
8545,34048
8546,34048
8547,33984
8548,33984
8549,33984
8550,33984
8551,33920
8552,33984
8553,34048
8554,34048
8555,33984
8556,33920
8557,33920
8558,33920
8559,33792
8560,33792
8561,33792
8562,33792
8563,33856
8564,33856
8565,33792
8566,33792
8567,33856
8568,33920
8569,33984
8570,33984
8571,33920
8572,33856
8573,33856
8574,33920
8575,33920
8576,33984
8577,33984
8578,33984
8579,34048
8580,34112
8581,34112
8582,34112
8583,34112
8584,34176
8585,34176
8586,34176
8587,34240
8588,34240
8589,34240
8590,34240
8591,34368
8592,34432
8593,34368
8594,34176
8595,34048
8596,33984
8597,33920
8598,33856
8599,33856
8600,33856
8601,33920
8602,33920
8603,33984
8604,34048
8605,34048
8606,34048
8607,34048
8608,34048
8609,34112
8610,34112
8611,34048
8612,34048
8613,34048
8614,34048
8615,34048
8616,33984
8617,33920
8618,33984
8619,34048
8620,34176
8621,34176
8622,34240
8623,34368
8624,34368
8625,34432
8626,34496
8627,34496
8628,34496
8629,34496
8630,34496
8631,34432
8632,34368
8633,34304
8634,34176
8635,34048
8636,33984
8637,33984
8638,34048
8639,34048
8640,33984
8641,33920
8642,33792
8643,33792
8644,33728
8645,33728
8646,33792
8647,33856
8648,33856
8649,33856
8650,33856
8651,33792
8652,33856
8653,33920
8654,33920
8655,33984
8656,33920
8657,33984
8658,34112
8659,34496
8660,35136
8661,36160
8662,37760
8663,39680
8664,41856
8665,43968
8666,45184
8667,44800
8668,42432
8669,39808
8670,36480
8671,32896
8672,29952
8673,28032
8674,27200
8675,27392
8676,28224
8677,29248
8678,30400
8679,31552
8680,32576
8681,33408
8682,33984
8683,34496
8684,34688
8685,34816
8686,34816
8687,34752
8688,34624
8689,34496
8690,34304
8691,34176
8692,34176
8693,34112
8694,34048
8695,34048
8696,33920
8697,33920
8698,33856
8699,33856
8700,33920
8701,34048
8702,34176
8703,34176
8704,34176
8705,34240
8706,34240
8707,34240
8708,34240
8709,34304
8710,34240
8711,34176
8712,34176
8713,34176
8714,34176
8715,34176
8716,34112
8717,34176
8718,34176
8719,34112
8720,34112
8721,34112
8722,34048
8723,33984
8724,33920
8725,33920
8726,33984
8727,33984
8728,33984
8729,34048
8730,34048
8731,34048
8732,33984
8733,33920
8734,33856
8735,33728
8736,33664
8737,33600
8738,33664
8739,33728
8740,33792
8741,33792
8742,33792
8743,33792
8744,33792
8745,33792
8746,33792
8747,33856
8748,33792
8749,33728
8750,33728
8751,33856
8752,33920
8753,33920
8754,33984
8755,34048
8756,34048
8757,33984
8758,33984
8759,33920
8760,33920
8761,33920
8762,33984
8763,34048
8764,34112
8765,34112
8766,34112
8767,34176
8768,34112
8769,34112
8770,34048
8771,34112
8772,34048
8773,34048
8774,34048
8775,34048
8776,33984
8777,33920
8778,33920
8779,33920
8780,33920
8781,33920
8782,33920
8783,33920
8784,33984
8785,33984
8786,33984
8787,33984
8788,33984
8789,33984
8790,33984
8791,34048
8792,34048
8793,34048
8794,34048
8795,34048
8796,34112
8797,34112
8798,34112
8799,33984
8800,33984
8801,34048
8802,34048
8803,34112
8804,34048
8805,34048
8806,33984
8807,33984
8808,34048
8809,34112
8810,34048
8811,34048
8812,33984
8813,34048
8814,34112
8815,34176
8816,34176
8817,34176
8818,34240
8819,34176
8820,34176
8821,34176
8822,34240
8823,34304
8824,34368
8825,34432
8826,34560
8827,34560
8828,34432
8829,34368
8830,34368
8831,34432
8832,34432
8833,34560
8834,34560
8835,34560
8836,34496
8837,34432
8838,34368
8839,34240
8840,34176
8841,34112
8842,34112
8843,34048
8844,34048
8845,34112
8846,34176
8847,34176
8848,34048
8849,33984
8850,33920
8851,33856
8852,33856
8853,33856
8854,33856
8855,33856
8856,33920
8857,33984
8858,34048
8859,34112
8860,34176
8861,34176
8862,34176
8863,34176
8864,34240
8865,34496
8866,35072
8867,35968
8868,37440
8869,39232
8870,41344
8871,43520
8872,45248
8873,45312
8874,43584
8875,40704
8876,36992
8877,33472
8878,29696
8879,28352
8880,27584
8881,27712
8882,28416
8883,29440
8884,30592
8885,31680
8886,32576
8887,33344
8888,33920
8889,34432
8890,34688
8891,34816
8892,34816
8893,34688
8894,34560
8895,34432
8896,34304
8897,34240
8898,34176
8899,34112
8900,34112
8901,34048
8902,33984
8903,33920
8904,33920
8905,33920
8906,33984
8907,33984
8908,34048
8909,34048
8910,34112
8911,34240
8912,34304
8913,34368
8914,34368
8915,34304
8916,34240
8917,34240
8918,34240
8919,34240
8920,34240
8921,34240
8922,34304
8923,34240
8924,34240
8925,34176
8926,34112
8927,34048
8928,33920
8929,33920
8930,33920
8931,33984
8932,34048
8933,34048
8934,34048
8935,34112
8936,34112
8937,34112
8938,34112
8939,34048
8940,33984
8941,33920
8942,33856
8943,33792
8944,33728
8945,33664
8946,33664
8947,33664
8948,33664
8949,33600
8950,33600
8951,33664
8952,33600
8953,33600
8954,33600
8955,33728
8956,33792
8957,33792
8958,33792
8959,33728
8960,33728
8961,33792
8962,33792
8963,33856
8964,33920
8965,33984
8966,34048
8967,34048
8968,34048
8969,34048
8970,34048
8971,34048
8972,34048
8973,34112
8974,34048
8975,33984
8976,33984
8977,33920
8978,33856
8979,33856
8980,33920
8981,33984
8982,33984
8983,34048
8984,34048
8985,33984
8986,33856
8987,33792
8988,33728
8989,33792
8990,33792
8991,33856
8992,33920
8993,33984
8994,33984
8995,33984
8996,33984
8997,33984
8998,34048
8999,34048
9000,34048
9001,34048
9002,33984
9003,33984
9004,33920
9005,33856
9006,33856
9007,33856
9008,33984
9009,34048
9010,34112
9011,34176
9012,34112
9013,34112
9014,34112
9015,34112
9016,34112
9017,34112
9018,34112
9019,34176
9020,34176
9021,34048
9022,33984
9023,33984
9024,33984
9025,33984
9026,34048
9027,34048
9028,34048
9029,34048
9030,34048
9031,34112
9032,34176
9033,34176
9034,34176
9035,34240
9036,34176
9037,34176
9038,34176
9039,34176
9040,34240
9041,34240
9042,34240
9043,34368
9044,34432
9045,34432
9046,34432
9047,34496
9048,34496
9049,34496
9050,34560
9051,34496
9052,34496
9053,34496
9054,34496
9055,34496
9056,34496
9057,34432
9058,34304
9059,34240
9060,34176
9061,34112
9062,34048
9063,33984
9064,33984
9065,34048
9066,33984
9067,33984
9068,33856
9069,33856
9070,33792
9071,33920
9072,33984
9073,33984
9074,34048
9075,34048
9076,34112
9077,34176
9078,34176
9079,34112
9080,34048
9081,34048
9082,34048
9083,34240
9084,34688
9085,35328
9086,36544
9087,38208
9088,41152
9089,42368
9090,44480
9091,45504
9092,44864
9093,42752
9094,39616
9095,36032
9096,32448
9097,29760
9098,28096
9099,27584
9100,27904
9101,28800
9102,29824
9103,31040
9104,31936
9105,32832
9106,33600
9107,34112
9108,34368
9109,34560
9110,34624
9111,34624
9112,34560
9113,34560
9114,34560
9115,34496
9116,34432
9117,34240
9118,33984
9119,33920
9120,33856
9121,33792
9122,33792
9123,33856
9124,33984
9125,34048
9126,34112
9127,34240
9128,34240
9129,34176
9130,34176
9131,34240
9132,34240
9133,34304
9134,34304
9135,34304
9136,34368
9137,34368
9138,34304
9139,34240
9140,34176
9141,34112
9142,34112
9143,34048
9144,33984
9145,33984
9146,33984
9147,33984
9148,33984
9149,33920
9150,33920
9151,33920
9152,33920
9153,33920
9154,33984
9155,33984
9156,34048
9157,34048
9158,34112
9159,34112
9160,34112
9161,33984
9162,33856
9163,33728
9164,33728
9165,33728
9166,33664
9167,33664
9168,33664
9169,33728
9170,33728
9171,33792
9172,33792
9173,33792
9174,33856
9175,33856
9176,33856
9177,33920
9178,33920
9179,33984
9180,34048
9181,34048
9182,34048
9183,34048
9184,34048
9185,34112
9186,34048
9187,34048
9188,33984
9189,33920
9190,33920
9191,33984
9192,33984
9193,34112
9194,34112
9195,34112
9196,34176
9197,34176
9198,34176
9199,34112
9200,34112
9201,34112
9202,34048
9203,33984
9204,33984
9205,34048
9206,34048
9207,34048
9208,34048
9209,34048
9210,34048
9211,34048
9212,33984
9213,33984
9214,34048
9215,34048
9216,33984
9217,33984
9218,33984
9219,33984
9220,34048
9221,34112
9222,34112
9223,34112
9224,34048
9225,34048
9226,34048
9227,34112
9228,34112
9229,34112
9230,34176
9231,34240
9232,34368
9233,34368
9234,34368
9235,34368
9236,34432
9237,34432
9238,34496
9239,34496
9240,34496
9241,34496
9242,34432
9243,34432
9244,34368
9245,34304
9246,34240
9247,34176
9248,34112
9249,34048
9250,34048
9251,34048
9252,34112
9253,34048
9254,33920
9255,33856
9256,33728
9257,33728
9258,33728
9259,33728
9260,33728
9261,33792
9262,33856
9263,33856
9264,33920
9265,33984
9266,34048
9267,34048
9268,34048
9269,34048
9270,34176
9271,34496
9272,35008
9273,35968
9274,37376
9275,39232
9276,41408
9277,43648
9278,45184
9279,45056
9280,43328
9281,40448
9282,36928
9283,33280
9284,30272
9285,28288
9286,27456
9287,27584
9288,28416
9289,29504
9290,30720
9291,31808
9292,32704
9293,33472
9294,33984
9295,34368
9296,34624
9297,34752
9298,34816
9299,34816
9300,34752
9301,34624
9302,34432
9303,34240
9304,34112
9305,34048
9306,33984
9307,33984
9308,33984
9309,34048
9310,34112
9311,34112
9312,34112
9313,34112
9314,34112
9315,34176
9316,34240
9317,34304
9318,34368
9319,34432
9320,34432
9321,34432
9322,34432
9323,34368
9324,34368
9325,34304
9326,34240
9327,34176
9328,34176
9329,34176
9330,34176
9331,34176
9332,34176
9333,34176
9334,34176
9335,34176
9336,34112
9337,34112
9338,34112
9339,34048
9340,33984
9341,33920
9342,33856
9343,33920
9344,33920
9345,33920
9346,33856
9347,33920
9348,33920
9349,33920
9350,33920
9351,33856
9352,33792
9353,33728
9354,33664
9355,33600
9356,33600
9357,33664
9358,33728
9359,33792
9360,33920
9361,33856
9362,33856
9363,33792
9364,33792
9365,33856
9366,33856
9367,33856
9368,33856
9369,33856
9370,33920
9371,33920
9372,33984
9373,33984
9374,34048
9375,34048
9376,34048
9377,34112
9378,34112
9379,34112
9380,34048
9381,34048
9382,34048
9383,34048
9384,34048
9385,34112
9386,34048
9387,33984
9388,33984
9389,33984
9390,33984
9391,33984
9392,33984
9393,33984
9394,33984
9395,33984
9396,33984
9397,33984
9398,33984
9399,34048
9400,34048
9401,34048
9402,34112
9403,34048
9404,34048
9405,33984
9406,33920
9407,33856
9408,33856
9409,33856
9410,33920
9411,33984
9412,34048
9413,34048
9414,34112
9415,34112
9416,34048
9417,34048
9418,33984
9419,33984
9420,33984
9421,33984
9422,34048
9423,34112
9424,34176
9425,34176
9426,34176
9427,34176
9428,34112
9429,34112
9430,34048
9431,34048
9432,34048
9433,34048
9434,34112
9435,34112
9436,34176
9437,34176
9438,34176
9439,34112
9440,34112
9441,34048
9442,34048
9443,34048
9444,34112
9445,34112
9446,34112
9447,34176
9448,34304
9449,34176
9450,34112
9451,34112
9452,34240
9453,34304
9454,34432
9455,34432
9456,34496
9457,34496
9458,34496
9459,34496
9460,34496
9461,34496
9462,34432
9463,34432
9464,34368
9465,34368
9466,34304
9467,34368
9468,34368
9469,34240
9470,34176
9471,34112
9472,34112
9473,34112
9474,34176
9475,34112
9476,34048
9477,33984
9478,33920
9479,33920
9480,33920
9481,33856
9482,33920
9483,33984
9484,34048
9485,34048
9486,34048
9487,33984
9488,33984
9489,33984
9490,33984
9491,34112
9492,34368
9493,34944
9494,35840
9495,37120
9496,38912
9497,40960
9498,43136
9499,45056
9500,45632
9501,44416
9502,41792
9503,38336
9504,34560
9505,31232
9506,28864
9507,27648
9508,27456
9509,28096
9510,29120
9511,30272
9512,31360
9513,32320
9514,33152
9515,33792
9516,34240
9517,34560
9518,34752
9519,34816
9520,34752
9521,34688
9522,34560
9523,34368
9524,34240
9525,34176
9526,34112
9527,34112
9528,33984
9529,33920
9530,33856
9531,33856
9532,33920
9533,33984
9534,33984
9535,33984
9536,34048
9537,34112
9538,34176
9539,34240
9540,34240
9541,34176
9542,34112
9543,34112
9544,34112
9545,34048
9546,34112
9547,34176
9548,34176
9549,34240
9550,34304
9551,34304
9552,34240
9553,34176
9554,34112
9555,34112
9556,34112
9557,34048
9558,33984
9559,33920
9560,33856
9561,33856
9562,33856
9563,33984
9564,34112
9565,34112
9566,34048
9567,34048
9568,33984
9569,33984
9570,33856
9571,33792
9572,33792
9573,33792
9574,33728
9575,33728
9576,33728
9577,33792
9578,33792
9579,33728
9580,33728
9581,33792
9582,33856
9583,33856
9584,33792
9585,33792
9586,33856
9587,33856
9588,33856
9589,33920
9590,33984
9591,34048
9592,34048
9593,33984
9594,33984
9595,33984
9596,33984
9597,34048
9598,34112
9599,34112
9600,34048
9601,34048
9602,34048
9603,34048
9604,33984
9605,33984
9606,33984
9607,34048
9608,34048
9609,33984
9610,33984
9611,33920
9612,33920
9613,33856
9614,33920
9615,33920
9616,33920
9617,33920
9618,33920
9619,33984
9620,33984
9621,33920
9622,33984
9623,33984
9624,33920
9625,33920
9626,33920
9627,33856
9628,33920
9629,34048
9630,34048
9631,34112
9632,34048
9633,33984
9634,33984
9635,33920
9636,33920
9637,33920
9638,33984
9639,34048
9640,34048
9641,34048
9642,34048
9643,34176
9644,34176
9645,34176
9646,34112
9647,34048
9648,33984
9649,33984
9650,33984
9651,33984
9652,33984
9653,33984
9654,33984
9655,33920
9656,33920
9657,33984
9658,33984
9659,34048
9660,34112
9661,34048
9662,34112
9663,34112
9664,34176
9665,34112
9666,34112
9667,34240
9668,34240
9669,34240
9670,34304
9671,34304
9672,34368
9673,34368
9674,34304
9675,34368
9676,34432
9677,34432
9678,34432
9679,34432
9680,34432
9681,34432
9682,34368
9683,34368
9684,34368
9685,34304
9686,34304
9687,34240
9688,34176
9689,34112
9690,34048
9691,34112
9692,34176
9693,34240
9694,34240
9695,34176
9696,34048
9697,33920
9698,33792
9699,33728
9700,33728
9701,33856
9702,33856
9703,33856
9704,33920
9705,33984
9706,33984
9707,34048
9708,34048
9709,34112
9710,34112
9711,34240
9712,34432
9713,34880
9714,35712
9715,36928
9716,38784
9717,40768
9718,43008
9719,44864
9720,45440
9721,44480
9722,42112
9723,38848
9724,35136
9725,31680
9726,29184
9727,27712
9728,27328
9729,27840
9730,28864
9731,30016
9732,31040
9733,32128
9734,33024
9735,33728
9736,34240
9737,34560
9738,34816
9739,34880
9740,34880
9741,34880
9742,34752
9743,34624
9744,34304
9745,34048
9746,33920
9747,33792
9748,33792
9749,33792
9750,33792
9751,33856
9752,33920
9753,33920
9754,34048
9755,34112
9756,34240
9757,34240
9758,34240
9759,34240
9760,34240
9761,34240
9762,34240
9763,34240
9764,34240
9765,34240
9766,34176
9767,34112
9768,34048
9769,34048
9770,34048
9771,34048
9772,34048
9773,34048
9774,34048
9775,33984
9776,33984
9777,33920
9778,33856
9779,33856
9780,33856
9781,33856
9782,33792
9783,33792
9784,33856
9785,33920
9786,33856
9787,33920
9788,33920
9789,33984
9790,33984
9791,33984
9792,33984
9793,33920
9794,33920
9795,33856
9796,33792
9797,33792
9798,33792
9799,33792
9800,33792
9801,33856
9802,33920
9803,33856
9804,33792
9805,33728
9806,33792
9807,33856
9808,33984
9809,34048
9810,34048
9811,33984
9812,33984
9813,33984
9814,33984
9815,33984
9816,33984
9817,33984
9818,33984
9819,34048
9820,34048
9821,34112
9822,34240
9823,34304
9824,34240
9825,34048
9826,33920
9827,33920
9828,33856
9829,33856
9830,33920
9831,33984
9832,33984
9833,34048
9834,34048
9835,33984
9836,33984
9837,34048
9838,34112
9839,34112
9840,34112
9841,34048
9842,34112
9843,34176
9844,34112
9845,33984
9846,33792
9847,33728
9848,33728
9849,33728
9850,33856
9851,33920
9852,33984
9853,33984
9854,34048
9855,34112
9856,34112
9857,34176
9858,34112
9859,34112
9860,34176
9861,34304
9862,34432
9863,34496
9864,34496
9865,34496
9866,34496
9867,34496
9868,34368
9869,34240
9870,34240
9871,34304
9872,34304
9873,34368
9874,34368
9875,34304
9876,34240
9877,34240
9878,34112
9879,34048
9880,33984
9881,33984
9882,33984
9883,33920
9884,33792
9885,33664
9886,33536
9887,33600
9888,33728
9889,33792
9890,33856
9891,33856
9892,33856
9893,33920
9894,34048
9895,34048
9896,34112
9897,34176
9898,34176
9899,34176
9900,34112
9901,34368
9902,35008
9903,36096
9904,37824
9905,39744
9906,41984
9907,44224
9908,45440
9909,44992
9910,42944
9911,39872
9912,36224
9913,32576
9914,29760
9915,28096
9916,27520
9917,27840
9918,28672
9919,29696
9920,30720
9921,31744
9922,32640
9923,33344
9924,33792
9925,34176
9926,34432
9927,34560
9928,34688
9929,34752
9930,34688
9931,34624
9932,34560
9933,34368
9934,34112
9935,33984
9936,33856
9937,33856
9938,33792
9939,33856
9940,33856
9941,33920
9942,33984
9943,34112
9944,34176
9945,34176
9946,34176
9947,34240
9948,34240
9949,34240
9950,34240
9951,34304
9952,34304
9953,34368
9954,34432
9955,34368
9956,34176
9957,34112
9958,34048
9959,33984
9960,33984
9961,33984
9962,33984
9963,33984
9964,33920
9965,33920
9966,33920
9967,33792
9968,33792
9969,33792
9970,33856
9971,33856
9972,33856
9973,33920
9974,33984
9975,33984
9976,33920
9977,33984
9978,33920
9979,33984
9980,33920
9981,33792
9982,33600
9983,33536
9984,33472
9985,33472
9986,33536
9987,33600
9988,33600
9989,33600
9990,33664
9991,33728
9992,33728
9993,33792
9994,33856
9995,33920
9996,33984
9997,34048
9998,34048
9999,34112
10000,34112
10001,34048
10002,33984
10003,33984
10004,33984
10005,34048
10006,34112
10007,34176
10008,34112
10009,33984
10010,33920
10011,33920
10012,33984
10013,34048
10014,34112
10015,34112
10016,34048
10017,34048
10018,33984
10019,33984
10020,33984
10021,33984
10022,33920
10023,33920
10024,33856
10025,33856
10026,33856
10027,33920
10028,33984
10029,33984
10030,33984
10031,34048
10032,34112
10033,34176
10034,34240
10035,34176
10036,34048
10037,33920
10038,33856
10039,33856
10040,33792
10041,33856
10042,33856
10043,33920
10044,33984
10045,34048
10046,34048
10047,34048
10048,34112
10049,34112
10050,34112
10051,34240
10052,34304
10053,34112
10054,33920
10055,33856
10056,33856
10057,33856
10058,33920
10059,33920
10060,33984
10061,33984
10062,34048
10063,34048
10064,34112
10065,34112
10066,34240
10067,34304
10068,34432
10069,34496
10070,34496
10071,34496
10072,34432
10073,34432
10074,34432
10075,34368
10076,34368
10077,34368
10078,34304
10079,34240
10080,34176
10081,34112
10082,34048
10083,33984
10084,33920
10085,33984
10086,33984
10087,34048
10088,34112
10089,34112
10090,34048
10091,33920
10092,33792
10093,33728
10094,33664
10095,33664
10096,33728
10097,33856
10098,33984
10099,34112
10100,34176
10101,34240
10102,34240
10103,34112
10104,33984
10105,33984
10106,34176
10107,34624
10108,35456
10109,36736
10110,38592
10111,40768
10112,43008
10113,44992
10114,45632
10115,44480
10116,41792
10117,38336
10118,34688
10119,31360
10120,28736
10121,27648
10122,27520
10123,28160
10124,29056
10125,30016
10126,31104
10127,32064
10128,32960
10129,33600
10130,34112
10131,34496
10132,34624
10133,34624
10134,34624
10135,34624
10136,34624
10137,34496
10138,34368
10139,34240
10140,34176
10141,33984
10142,33856
10143,33856
10144,33792
10145,33792
10146,33856
10147,33984
10148,33984
10149,34048
10150,34176
10151,34304
10152,34432
10153,34496
10154,34368
10155,34240
10156,34048
10157,33920
10158,33856
10159,33856
10160,33920
10161,33984
10162,34048
10163,34176
10164,34176
10165,34112
10166,34048
10167,34048
10168,34048
10169,34048
10170,33984
10171,33984
10172,33984
10173,34048
10174,33984
10175,33856
10176,33792
10177,33856
10178,33856
10179,33792
10180,33792
10181,33792
10182,33728
10183,33664
10184,33728
10185,33792
10186,33856
10187,33856
10188,33856
10189,33920
10190,33920
10191,33856
10192,33728
10193,33664
10194,33600
10195,33600
10196,33728
10197,33728
10198,33728
10199,33728
10200,33792
10201,33856
10202,33920
10203,33920
10204,33984
10205,33984
10206,34048
10207,34112
10208,34112
10209,34176
10210,34240
10211,34240
10212,34176
10213,34112
10214,34176
10215,34048
10216,33920
10217,33792
10218,33728
10219,33792
10220,33856
10221,33856
10222,33856
10223,33856
10224,33856
10225,33920
10226,33920
10227,33920
10228,33920
10229,33984
10230,34048
10231,34112
10232,34112
10233,34112
10234,34112
10235,34048
10236,33984
10237,33920
10238,33856
10239,33856
10240,33792
10241,33792
10242,33920
10243,33984
10244,33984
10245,33984
10246,33984
10247,33984
10248,34112
10249,34112
10250,34048
10251,33984
10252,33984
10253,34048
10254,34048
10255,34048
10256,34048
10257,33984
10258,33984
10259,33920
10260,33984
10261,33984
10262,33920
10263,33984
10264,34112
10265,34176
10266,34112
10267,34112
10268,34112
10269,34176
10270,34112
10271,33984
10272,33984
10273,33920
10274,33920
10275,33920
10276,34048
10277,34176
10278,34176
10279,34176
10280,34304
10281,34432
10282,34496
10283,34560
10284,34496
10285,34368
10286,34240
10287,34240
10288,34304
10289,34368
10290,34432
10291,34432
10292,34368
10293,34368
10294,34304
10295,34240
10296,34304
10297,34304
10298,34240
10299,34112
10300,34048
10301,33984
10302,33920
10303,33856
10304,33792
10305,33792
10306,33792
10307,33792
10308,33856
10309,33920
10310,33984
10311,34048
10312,34112
10313,34176
10314,34176
10315,34112
10316,34048
10317,33984
10318,34048
10319,34304
10320,34624
10321,35328
10322,36480
10323,38080
10324,40064
10325,42240
10326,44288
10327,45440
10328,44864
10329,42624
10330,39488
10331,35776
10332,32256
10333,29504
10334,27968
10335,27520
10336,27840
10337,28608
10338,29632
10339,30720
10340,31808
10341,32704
10342,33472
10343,34048
10344,34432
10345,34688
10346,34752
10347,34752
10348,34688
10349,34560
10350,34368
10351,34240
10352,34176
10353,34048
10354,33984
10355,33920
10356,33920
10357,33920
10358,33984
10359,34048
10360,34048
10361,34112
10362,34048
10363,34048
10364,34112
10365,34176
10366,34176
10367,34176
10368,34176
10369,34176
10370,34112
10371,34048
10372,34048
10373,34048
10374,33984
10375,33984
10376,34048
10377,34112
10378,34112
10379,34112
10380,34048
10381,34048
10382,33984
10383,33984
10384,33984
10385,33920
10386,33856
10387,33728
10388,33664
10389,33664
10390,33664
10391,33664
10392,33664
10393,33728
10394,33792
10395,33856
10396,33920
10397,33984
10398,34048
10399,34048
10400,34048
10401,33984
10402,33984
10403,33920
10404,33920
10405,33920
10406,33920
10407,33856
10408,33792
10409,33728
10410,33728
10411,33728
10412,33792
10413,33792
10414,33792
10415,33856
10416,33856
10417,33984
10418,34048
10419,34048
10420,34048
10421,34048
10422,33984
10423,34048
10424,34048
10425,34048
10426,34048
10427,34048
10428,34048
10429,34048
10430,33984
10431,33984
10432,33920
10433,33920
10434,33920
10435,33984
10436,33984
10437,34048
10438,34048
10439,34048
10440,33984
10441,33984
10442,33920
10443,33856
10444,33856
10445,33856
10446,33856
10447,33856
10448,33920
10449,34048
10450,34048
10451,34048
10452,33920
10453,33856
10454,33856
10455,33856
10456,33856
10457,33920
10458,33856
10459,33792
10460,33792
10461,33856
10462,33856
10463,33856
10464,33984
10465,34048
10466,34048
10467,34112
10468,34112
10469,34048
10470,33984
10471,33984
10472,34048
10473,34048
10474,34048
10475,33984
10476,33984
10477,33920
10478,33856
10479,33920
10480,33984
10481,34048
10482,34112
10483,34176
10484,34176
10485,34176
10486,34176
10487,34240
10488,34240
10489,34304
10490,34240
10491,34240
10492,34176
10493,34176
10494,34176
10495,34176
10496,34240
10497,34368
10498,34432
10499,34432
10500,34432
10501,34432
10502,34432
10503,34368
10504,34368
10505,34368
10506,34432
10507,34496
10508,34496
10509,34368
10510,34240
10511,34048
10512,33984
10513,33984
10514,33984
10515,33984
10516,33920
10517,33856
10518,33856
10519,33792
10520,33856
10521,33856
10522,33984
10523,34112
10524,34112
10525,34048
10526,34048
10527,34112
10528,34112
10529,34112
10530,34176
10531,34112
10532,34112
10533,34368
10534,34816
10535,35712
10536,37120
10537,38912
10538,41024
10539,43264
10540,45120
10541,45568
10542,44288
10543,41600
10544,38080
10545,34304
10546,30976
10547,28800
10548,27712
10549,27584
10550,28224
10551,29184
10552,30272
10553,31360
10554,32320
10555,33152
10556,33920
10557,34368
10558,34624
10559,34752
10560,34752
10561,34752
10562,34688
10563,34560
10564,34432
10565,34368
10566,34304
10567,34176
10568,34112
10569,33984
10570,33984
10571,34048
10572,33984
10573,34048
10574,34048
10575,34048
10576,34048
10577,34048
10578,34048
10579,33984
10580,33920
10581,33792
10582,33472
10583,33024
10584,32960
10585,33088
10586,33536
10587,34048
10588,34176
10589,34304
10590,34304
10591,34176
10592,33984
10593,34112
10594,34432
10595,34368
10596,34048
10597,33792
10598,33472
10599,33280
10600,33472
10601,33408
10602,33664
10603,33664
10604,33728
10605,33920
10606,34048
10607,34112
10608,34176
10609,34048
10610,33984
10611,34048
10612,33856
10613,33600
10614,33600
10615,33600
10616,33408
10617,33344
10618,33344
10619,33408
10620,33408
10621,33408
10622,33280
10623,33344
10624,33216
10625,33216
10626,33280
10627,33280
10628,33536
10629,33600
10630,33408
10631,33408
10632,33472
10633,33664
10634,33216
10635,33408
10636,33792
10637,33984
10638,34112
10639,33664
10640,33536
10641,33664
10642,33856
10643,34112
10644,34176
10645,34112
10646,34176
10647,34048
10648,33984
10649,33920
10650,33856
10651,33600
10652,33536
10653,33664
10654,33600
10655,33664
10656,33792
10657,33920
10658,33920
10659,33792
10660,33856
10661,33856
10662,33920
10663,33856
10664,33792
10665,33728
10666,33664
10667,33728
10668,33664
10669,33728
10670,33152
10671,33088
10672,33408
10673,33600
10674,33984
10675,34240
10676,34368
10677,34496
10678,34176
10679,34048
10680,34240
10681,34496
10682,34816
10683,34880
10684,34816
10685,34752
10686,34688
10687,34560
10688,34432
10689,34368
10690,34368
10691,34432
10692,34368
10693,34432
10694,34496
10695,34624
10696,34688
10697,34560
10698,34432
10699,34368
10700,34304
10701,34240
10702,34176
10703,34112
10704,34112
10705,34112
10706,34176
10707,34048
10708,33920
10709,33856
10710,33664
10711,33344
10712,33088
10713,33152
10714,33408
10715,33664
10716,33920
10717,33920
10718,33728
10719,33344
10720,33408
10721,33792
10722,34176
10723,34624
10724,34752
10725,34752
10726,34688
10727,34560
10728,34432
10729,34176
10730,34048
10731,34112
10732,34304
10733,34880
10734,35904
10735,37312
10736,39424
10737,41984
10738,44160
10739,44672
10740,44096
10741,42240
10742,39296
10743,35776
10744,32320
10745,29632
10746,27776
10747,26880
10748,27072
10749,28032
10750,29248
10751,30528
10752,31616
10753,32576
10754,33344
10755,33984
10756,34432
10757,34752
10758,34880
10759,34816
10760,34688
10761,34560
10762,34432
10763,34432
10764,34304
10765,34176
10766,34176
10767,34176
10768,34176
10769,34112
10770,34048
10771,33984
10772,33984
10773,34112
10774,34176
10775,34176
10776,34176
10777,34304
10778,34304
10779,34240
10780,34240
10781,34304
10782,34432
10783,34496
10784,34560
10785,34624
10786,34624
10787,34496
10788,34304
10789,34240
10790,34240
10791,34240
10792,34240
10793,34176
10794,34048
10795,33856
10796,33792
10797,33920
10798,34240
10799,34368
10800,34624
10801,34752
10802,34752
10803,34688
10804,34560
10805,34496
10806,34368
10807,34304
10808,34176
10809,34176
10810,34176
10811,34176
10812,34112
10813,33984
10814,33792
10815,33664
10816,33664
10817,33664
10818,33664
10819,33792
10820,34048
10821,34240
10822,34304
10823,34176
10824,34048
10825,33920
10826,33920
10827,33920
10828,33984
10829,34048
10830,33984
10831,33984
10832,33984
10833,34112
10834,34176
10835,34304
10836,34368
10837,34240
10838,34112
10839,33984
10840,33920
10841,33664
10842,33600
10843,33536
10844,33728
10845,33984
10846,33920
10847,33600
10848,33152
10849,32832
10850,32640
10851,32960
10852,33600
10853,34432
10854,35008
10855,35136
10856,35008
10857,34624
10858,33984
10859,33536
10860,33536
10861,33792
10862,34048
10863,34176
10864,34240
10865,34240
10866,34112
10867,34048
10868,33792
10869,33408
10870,33216
10871,33280
10872,33408
10873,33856
10874,34112
10875,34304
10876,34368
10877,34240
10878,34112
10879,33856
10880,33664
10881,33600
10882,33472
10883,33472
10884,33472
10885,33600
10886,33792
10887,33856
10888,33856
10889,33856
10890,33920
10891,33856
10892,33856
10893,33792
10894,33728
10895,33536
10896,33344
10897,33344
10898,33408
10899,33600
10900,33920
10901,34112
10902,34240
10903,34368
10904,34432
10905,34560
10906,34816
10907,35328
10908,36352
10909,37760
10910,39552
10911,41728
10912,43904
10913,45056
10914,44608
10915,42816
10916,40000
10917,36416
10918,32832
10919,30016
10920,28288
10921,27584
10922,27840
10923,28736
10924,29824
