,ECG
0,33920
1,33984
2,34368
3,35200
4,36480
5,38336
6,40576
7,42880
8,44800
9,45120
10,43840
11,41280
12,37824
13,34112
14,30784
15,28480
16,27456
17,27456
18,28096
19,28864
20,29696
21,30528
22,31488
23,32320
24,33216
25,33920
26,34176
27,34112
28,34176
29,34240
30,34432
31,34560
32,34304
33,34176
34,34304
35,34368
36,34176
37,33792
38,33408
39,33600
40,33920
41,33664
42,33216
43,33216
44,33472
45,33472
46,33280
47,33344
48,33536
49,33472
50,33280
51,33344
52,33600
53,33792
54,33984
55,34048
56,33728
57,33280
58,32960
59,33024
60,33024
61,33152
62,33408
63,33344
64,33472
65,33664
66,33408
67,33088
68,33024
69,33216
70,33216
71,33216
72,33280
73,33216
74,33152
75,33152
76,32960
77,32832
78,33024
79,33472
80,33664
81,33728
82,33728
83,33792
84,33664
85,33280
86,33344
87,33728
88,33856
89,33472
90,32896
91,32704
92,32640
93,32768
94,32960
95,33408
96,33536
97,33408
98,33344
99,33472
100,33792
101,33856
102,33728
103,33536
104,33472
105,33472
106,33408
107,33344
108,33472
109,33664
110,33856
111,33536
112,32832
113,32640
114,32768
115,33024
116,33216
117,33408
118,33536
119,33280
120,32960
121,33152
122,33600
123,33920
124,33920
125,33280
126,32576
127,32512
128,32896
129,33088
130,32960
131,33088
132,33280
133,33216
134,33152
135,33152
136,33216
137,33344
138,33600
139,33856
140,33920
141,33792
142,33664
143,33856
144,34432
145,34752
146,34560
147,33664
148,33152
149,33152
150,33280
151,32896
152,32768
153,32640
154,32576
155,32768
156,33152
157,33472
158,33600
159,33664
160,33856
161,34048
162,33984
163,33984
164,34112
165,34240
166,34048
167,33984
168,34048
169,34368
170,34880
171,34752
172,34368
173,34112
174,33856
175,33472
176,33280
177,33408
178,33600
179,33664
180,33856
181,34048
182,34048
183,34240
184,34368
185,34432
186,34368
187,34304
188,34432
189,34176
190,33792
191,33920
192,34112
193,33856
194,33728
195,33728
196,33536
197,33472
198,33856
199,34304
200,34560
201,34240
202,33984
203,33856
204,33920
205,34304
206,34880
207,35648
208,36992
209,38528
210,40448
211,42432
212,44416
213,45184
214,44288
215,41856
216,38336
217,34496
218,31040
219,28672
220,27392
221,27200
222,27904
223,29120
224,30464
225,31808
226,32896
227,33920
228,34560
229,35008
230,35200
231,35264
232,35264
233,35264
234,35392
235,35072
236,34688
237,34432
238,34496
239,34176
240,33536
241,33344
242,33472
243,33600
244,33728
245,33984
246,34112
247,34112
248,34112
249,34112
250,34176
251,34304
252,34432
253,34432
254,34240
255,34048
256,34112
257,34432
258,34560
259,34304
260,34048
261,34240
262,34432
263,34240
264,33920
265,33792
266,33728
267,33856
268,33920
269,33920
270,33984
271,34048
272,34048
273,34048
274,34048
275,34112
276,34240
277,34112
278,34112
279,34240
280,34240
281,33856
282,33344
283,33152
284,33280
285,33472
286,33664
287,33920
288,34176
289,34048
290,33856
291,33728
292,33664
293,33728
294,33792
295,33792
296,33792
297,33792
298,33856
299,33856
300,33920
301,34048
302,34176
303,34752
304,34752
305,34048
306,33536
307,33472
308,33472
309,33728
310,33856
311,33792
312,33728
313,33728
314,33792
315,33856
316,33920
317,33984
318,34048
319,34048
320,33984
321,33792
322,33856
323,34240
324,34368
325,33984
326,33664
327,33664
328,33728
329,33664
330,33536
331,33536
332,33600
333,33856
334,34112
335,34112
336,34048
337,34048
338,34112
339,34240
340,34432
341,34624
342,35136
343,35264
344,34816
345,34432
346,34112
347,33856
348,33856
349,33792
350,33792
351,33984
352,34240
353,34496
354,34368
355,34112
356,34176
357,33600
358,32960
359,32640
360,32640
361,32768
362,33088
363,33472
364,33664
365,33792
366,33920
367,34048
368,34112
369,34368
370,34368
371,34624
372,35072
373,34880
374,34112
375,33664
376,33792
377,34560
378,36032
379,38016
380,40320
381,42816
382,44416
383,44352
384,42752
385,40128
386,36800
387,33280
388,30464
389,28672
390,27648
391,27584
392,28224
393,29248
394,30528
395,31808
396,32768
397,33408
398,34048
399,34496
400,34752
401,34752
402,34560
403,34432
404,34560
405,34560
406,34432
407,34240
408,34112
409,34048
410,34048
411,34048
412,34048
413,34048
414,34368
415,34816
416,34752
417,34560
418,34880
419,34944
420,34368
421,33792
422,33472
423,33856
424,34624
425,34880
426,33984
427,33216
428,33024
429,33152
430,33664
431,34048
432,34176
433,34240
434,34240
435,34368
436,34432
437,34304
438,34176
439,34176
440,34240
441,34176
442,34304
443,34496
444,34304
445,34048
446,33856
447,33792
448,33728
449,33536
450,33472
451,33536
452,33856
453,33472
454,33024
455,32896
456,33216
457,33600
458,33792
459,33856
460,33728
461,33664
462,33792
463,33856
464,33856
465,33856
466,33792
467,33792
468,33920
469,33984
470,34048
471,34112
472,34240
473,34368
474,34368
475,34176
476,33792
477,33408
478,33472
479,33600
480,33600
481,33600
482,33472
483,33472
484,33472
485,33536
486,33600
487,33664
488,33728
489,33728
490,33728
491,33664
492,33600
493,33536
494,33472
495,33536
496,33536
497,33536
498,33536
499,33600
500,33856
501,34176
502,34048
503,33664
504,33600
505,33408
506,33600
507,34048
508,34240
509,34240
510,34304
511,34304
512,34240
513,34112
514,34048
515,34112
516,34048
517,33856
518,33792
519,33792
520,33792
521,33600
522,33664
523,33920
524,33856
525,33472
526,33216
527,33280
528,33280
529,33216
530,33216
531,33280
532,33472
533,33536
534,33664
535,33728
536,33728
537,33728
538,33856
539,34240
540,34816
541,35712
542,36992
543,38848
544,41088
545,43136
546,44480
547,44096
548,42112
549,39232
550,35904
551,32640
552,29952
553,28032
554,27200
555,27456
556,28352
557,29440
558,31040
559,31872
560,32960
561,33792
562,34560
563,34880
564,34752
565,34752
566,34688
567,34624
568,34560
569,34560
570,34688
571,34688
572,34688
573,34496
574,34368
575,34176
576,34112
577,34240
578,34240
579,34176
580,34048
581,34048
582,34176
583,34176
584,34176
585,34304
586,34496
587,34496
588,34432
589,34432
590,34432
591,34560
592,34688
593,34560
594,34304
595,34176
596,34048
597,33920
598,33856
599,33920
600,33984
601,34112
602,34240
603,34240
604,34176
605,34112
606,34112
607,34048
608,33984
609,34048
610,34176
611,34240
612,34240
613,34240
614,34112
615,34112
616,33984
617,33792
618,33600
619,33472
620,33408
621,33280
622,33216
623,33472
624,33600
625,33600
626,33664
627,33856
628,33984
629,34048
630,34112
631,34112
632,34304
633,34368
634,34176
635,33920
636,33984
637,34112
638,34112
639,34048
640,34112
641,34176
642,34176
643,34176
644,34176
645,34112
646,34048
647,33984
648,34176
649,34368
650,34304
651,34240
652,34048
653,33728
654,33536
655,33920
656,34112
657,33856
658,33600
659,33472
660,33536
661,33664
662,33664
663,33792
664,33920
665,34112
666,33984
667,33856
668,33792
669,33920
670,34048
671,34112
672,34240
673,34496
674,34624
675,34816
676,34880
677,34944
678,34688
679,34432
680,33920
681,33728
682,33792
683,33984
684,34112
685,34176
686,34112
687,34048
688,34112
689,34368
690,34624
691,34496
692,34112
693,33728
694,33600
695,33472
696,33472
697,33536
698,33664
699,33664
700,33728
701,33600
702,33472
703,33408
704,33472
705,33664
706,33728
707,33856
708,33984
709,34176
710,34496
711,35072
712,36096
713,37568
714,39424
715,41408
716,43392
717,44480
718,44096
719,42368
720,39296
721,35648
722,32384
723,28800
724,27968
725,27392
726,27584
727,28544
728,29824
729,30912
730,31808
731,32704
732,33472
733,34112
734,34560
735,34944
736,35200
737,35392
738,35264
739,35072
740,34752
741,34432
742,34240
743,34368
744,34368
745,34176
746,34112
747,34240
748,34176
749,33984
750,33856
751,34048
752,34432
753,34496
754,34368
755,34176
756,34176
757,34304
758,34432
759,34432
760,34368
761,34368
762,34304
763,34304
764,34240
765,34368
766,34432
767,34432
768,34368
769,34240
770,34304
771,34368
772,34240
773,34048
774,33920
775,33984
776,34112
777,34112
778,34176
779,34176
780,34176
781,34176
782,34304
783,34304
784,34240
785,34304
786,34560
787,34688
788,34560
789,34240
790,33984
791,33856
792,33792
793,33536
794,33344
795,33344
796,33408
797,33472
798,33792
799,33856
800,33984
801,33920
802,33984
803,34112
804,34304
805,34368
806,34304
807,34176
808,34112
809,34048
810,33984
811,33984
812,33984
813,33984
814,34048
815,34112
816,34176
817,34176
818,34176
819,34112
820,34048
821,34048
822,34048
823,34112
824,34048
825,33920
826,33728
827,33664
828,33664
829,33664
830,33856
831,34112
832,34368
833,34496
834,34432
835,34432
836,34368
837,34368
838,34304
839,34368
840,34432
841,34560
842,34688
843,34624
844,34560
845,34432
846,34112
847,33728
848,33536
849,33600
850,33600
851,33600
852,33536
853,33408
854,33344
855,33344
856,33408
857,33472
858,33536
859,33664
860,33792
861,33984
862,34048
863,34176
864,34304
865,34368
866,34176
867,33856
868,33664
869,33792
870,34048
871,34240
872,34560
873,36288
874,37184
875,38976
876,41088
877,43200
878,44480
879,44096
880,42304
881,39552
882,36032
883,32384
884,29504
885,27776
886,27200
887,27648
888,29120
889,29760
890,30912
891,31936
892,32960
893,33920
894,34624
895,34944
896,34816
897,34496
898,34368
899,34432
900,34432
901,34368
902,34240
903,34112
904,34048
905,33920
906,33920
907,33920
908,33984
909,33984
910,33984
911,34176
912,34368
913,34368
914,34304
915,34176
916,34176
917,34304
918,34304
919,34112
920,34048
921,34368
922,34496
923,34240
924,33856
925,33600
926,33536
927,33600
928,33792
929,33920
930,33856
931,33728
932,33664
933,33664
934,33728
935,33728
936,33728
937,33792
938,33792
939,33792
940,33856
941,33984
942,34048
943,34176
944,34176
945,34304
946,34368
947,34304
948,34176
949,33920
950,33664
951,33536
952,33472
953,33408
954,33408
955,33472
956,33600
957,33728
958,33728
959,33792
960,33984
961,34112
962,34112
963,33984
964,33920
965,33984
966,34112
967,34112
968,34048
969,34112
970,34112
971,34240
972,34240
973,34368
974,34560
975,34368
976,34112
977,33728
978,33472
979,33472
980,33536
981,33600
982,33664
983,33664
984,33728
985,33792
986,33920
987,34176
988,34304
989,34176
990,34112
991,34112
992,34048
993,33984
994,34112
995,34304
996,34432
997,34496
998,34496
999,34432
1000,34304
1001,34112
1002,34048
1003,34048
1004,34112
1005,34176
1006,34240
1007,34368
1008,34560
1009,34624
1010,34688
1011,34304
1012,33792
1013,33472
1014,33408
1015,33536
1016,33728
1017,33792
1018,33728
1019,33728
1020,33728
1021,33664
1022,33536
1023,33472
1024,33600
1025,33728
1026,33792
1027,33984
1028,34176
1029,34176
1030,34112
1031,34048
1032,33984
1033,34048
1034,34368
1035,34944
1036,35840
1037,37056
1038,38720
1039,40768
1040,42816
1041,44224
1042,44160
1043,42560
1044,39680
1045,36160
1046,32576
1047,29696
1048,27904
1049,27328
1050,27712
1051,28800
1052,29888
1053,31040
1054,32128
1055,33024
1056,33792
1057,34304
1058,34560
1059,34688
1060,34752
1061,34816
1062,34816
1063,34752
1064,34752
1065,34624
1066,34560
1067,34624
1068,34624
1069,34304
1070,33984
1071,33856
1072,33856
1073,33920
1074,33984
1075,33984
1076,33984
1077,34048
1078,34048
1079,34112
1080,34176
1081,34240
1082,34240
1083,34304
1084,34432
1085,34560
1086,34560
1087,34496
1088,34432
1089,34304
1090,34240
1091,34112
1092,33984
1093,33856
1094,33856
1095,33920
1096,33920
1097,33856
1098,33792
1099,33792
1100,33856
1101,33856
1102,33792
1103,33792
1104,33792
1105,33920
1106,34112
1107,34176
1108,34112
1109,34112
1110,33984
1111,33920
1112,33856
1113,33792
1114,33792
1115,33728
1116,33728
1117,33792
1118,33920
1119,33984
1120,33984
1121,33984
1122,33984
1123,33984
1124,34112
1125,34240
1126,34176
1127,34112
1128,33984
1129,33920
1130,33920
1131,33856
1132,33856
1133,33856
1134,33856
1135,33920
1136,34048
1137,34048
1138,34048
1139,34048
1140,34048
1141,34112
1142,34048
1143,34048
1144,33984
1145,33920
1146,33920
1147,33920
1148,34048
1149,34240
1150,34176
1151,33920
1152,33728
1153,33728
1154,33856
1155,33920
1156,33984
1157,34112
1158,34304
1159,34368
1160,34368
1161,34368
1162,34304
1163,34304
1164,34304
1165,34240
1166,34176
1167,34112
1168,34112
1169,34048
1170,33920
1171,33792
1172,33728
1173,33856
1174,33984
1175,33984
1176,33856
1177,33792
1178,33728
1179,33664
1180,33472
1181,33344
1182,33344
1183,33408
1184,33472
1185,33536
1186,33600
1187,33728
1188,33856
1189,33984
1190,33984
1191,33920
1192,34048
1193,34240
1194,34624
1195,35456
1196,36736
1197,38336
1198,40192
1199,42240
1200,44032
1201,44416
1202,43008
1203,40384
1204,37120
1205,33856
1206,30976
1207,28992
1208,27968
1209,27712
1210,28160
1211,28992
1212,30080
1213,31232
1214,32256
1215,33152
1216,33856
1217,34368
1218,34688
1219,34880
1220,35008
1221,35008
1222,34880
1223,34752
1224,34688
1225,34688
1226,34496
1227,34368
1228,34304
1229,34368
1230,34368
1231,34240
1232,34112
1233,34112
1234,34176
1235,34048
1236,33856
1237,33792
1238,33792
1239,33856
1240,33984
1241,34048
1242,34176
1243,34304
1244,34368
1245,34368
1246,34368
1247,34368
1248,34240
1249,34176
1250,34176
1251,34048
1252,34048
1253,34048
1254,34112
1255,34112
1256,33984
1257,33920
1258,33920
1259,33920
1260,33984
1261,34112
1262,34176
1263,34112
1264,34048
1265,33920
1266,33920
1267,33920
1268,33856
1269,33792
1270,33728
1271,33664
1272,33664
1273,33664
1274,33664
1275,33664
1276,33728
1277,33792
1278,33856
1279,33856
1280,33792
1281,33856
1282,33920
1283,34048
1284,34048
1285,33920
1286,33856
1287,33920
1288,33984
1289,33984
1290,33984
1291,33984
1292,33984
1293,34048
1294,34048
1295,34112
1296,34112
1297,34112
1298,34112
1299,34048
1300,34112
1301,34112
1302,34112
1303,33984
1304,33984
1305,33984
1306,34048
1307,33984
1308,33984
1309,33920
1310,33920
1311,33792
1312,33728
1313,33792
1314,33792
1315,33856
1316,33984
1317,34048
1318,34112
1319,34112
1320,34112
1321,34112
1322,34112
1323,34112
1324,34112
1325,34048
1326,33984
1327,33984
1328,34048
1329,34240
1330,34304
1331,34432
1332,34496
1333,34560
1334,34432
1335,34240
1336,34240
1337,34304
1338,34368
1339,34240
1340,34176
1341,34176
1342,34112
1343,34048
1344,33984
1345,33920
1346,33984
1347,33920
1348,33856
1349,33792
1350,33792
1351,33664
1352,33600
1353,33600
1354,33600
1355,33536
1356,33472
1357,33472
1358,33536
1359,33600
1360,33664
1361,33792
1362,33920
1363,33984
1364,33920
1365,33856
1366,33856
1367,33856
1368,34112
1369,34688
1370,35520
1371,36864
1372,38592
1373,40576
1374,42688
1375,44224
1376,44160
1377,42496
1378,39744
1379,36352
1380,32960
1381,30080
1382,28288
1383,27520
1384,27840
1385,28608
1386,29632
1387,30784
1388,31872
1389,32768
1390,33536
1391,34112
1392,34496
1393,34624
1394,34688
1395,34752
1396,34752
1397,34752
1398,34688
1399,34560
1400,34496
1401,34432
1402,34240
1403,34112
1404,34112
1405,34176
1406,34048
1407,33856
1408,33728
1409,33792
1410,33920
1411,33984
1412,33984
1413,33984
1414,33984
1415,34048
1416,34048
1417,34112
1418,34176
1419,34240
1420,34304
1421,34368
1422,34368
1423,34304
1424,34176
1425,34112
1426,33984
1427,33984
1428,33984
1429,33984
1430,33856
1431,33728
1432,33728
1433,33728
1434,33792
1435,33792
1436,33856
1437,33984
1438,34048
1439,34112
1440,34112
1441,34112
1442,34176
1443,34176
1444,34176
1445,34176
1446,34112
1447,33920
1448,33728
1449,33600
1450,33536
1451,33600
1452,33600
1453,33664
1454,33792
1455,33792
1456,33792
1457,33792
1458,33792
1459,33920
1460,33984
1461,34048
1462,34112
1463,34048
1464,33984
1465,33920
1466,33856
1467,33920
1468,33984
1469,33984
1470,33920
1471,33920
1472,33920
1473,33856
1474,33856
1475,33856
1476,33856
1477,33856
1478,33920
1479,33920
1480,33920
1481,33920
1482,33984
1483,33984
1484,34048
1485,33984
1486,33856
1487,33728
1488,33728
1489,33728
1490,33728
1491,33728
1492,33792
1493,33792
1494,33792
1495,33856
1496,33920
1497,33984
1498,33984
1499,33984
1500,34048
1501,34048
1502,34048
1503,34112
1504,34112
1505,34048
1506,33984
1507,33920
1508,33856
1509,33856
1510,33856
1511,33856
1512,33856
1513,33920
1514,33920
1515,33984
1516,34048
1517,34048
1518,34112
1519,34112
1520,34176
1521,34176
1522,34048
1523,33984
1524,33984
1525,34048
1526,34048
1527,33984
1528,33984
1529,33984
1530,34048
1531,34176
1532,34240
1533,34240
1534,34176
1535,34112
1536,34112
1537,34048
1538,33984
1539,33920
1540,33920
1541,33920
1542,33984
1543,33984
1544,33984
1545,34048
1546,34112
1547,34176
1548,34176
1549,34176
1550,34176
1551,34176
1552,34176
1553,34176
1554,34176
1555,34176
1556,34112
1557,34112
1558,34176
1559,34240
1560,34176
1561,34176
1562,34176
1563,34112
1564,34112
1565,34048
1566,34112
1567,34176
1568,34240
1569,34368
1570,34432
1571,34432
1572,34432
1573,34432
1574,34432
1575,34368
1576,34432
1577,34496
1578,34560
1579,34496
1580,34560
1581,34560
1582,34624
1583,34560
1584,34368
1585,34112
1586,33920
1587,33856
1588,33856
1589,33856
1590,33856
1591,33792
1592,33728
1593,33728
1594,33728
1595,33792
1596,33856
1597,33856
1598,33984
1599,34048
1600,34176
1601,34176
1602,34176
1603,34240
1604,34176
1605,34048
1606,33984
1607,34176
1608,34688
1609,34752
1610,36672
1611,38272
1612,40256
1613,42240
1614,43968
1615,44544
1616,43520
1617,41216
1618,38016
1619,34496
1620,31232
1621,30592
1622,28032
1623,27904
1624,27904
1625,29376
1626,30400
1627,31424
1628,32384
1629,33216
1630,33856
1631,34304
1632,34560
1633,34752
1634,34816
1635,34880
1636,34816
1637,34688
1638,34624
1639,34560
1640,34432
1641,34432
1642,34368
1643,34240
1644,34176
1645,34176
1646,34176
1647,34240
1648,34176
1649,34112
1650,34048
1651,33984
1652,34048
1653,34240
1654,34304
1655,34240
1656,34176
1657,34112
1658,34112
1659,34048
1660,33984
1661,33984
1662,33920
1663,33920
1664,33920
1665,33920
1666,33920
1667,33920
1668,33920
1669,33920
1670,33920
1671,33856
1672,33856
1673,33792
1674,33792
1675,33856
1676,33856
1677,33856
1678,33984
1679,34176
1680,34176
1681,34048
1682,33984
1683,34048
1684,34048
1685,33984
1686,33920
1687,33856
1688,33856
1689,33920
1690,33920
1691,33920
1692,33920
1693,33920
1694,33920
1695,33920
1696,33856
1697,33856
1698,33792
1699,33792
1700,33856
1701,33920
1702,33920
1703,33984
1704,33984
1705,33984
1706,33984
1707,33984
1708,33920
1709,33920
1710,33920
1711,33920
1712,33984
1713,33984
1714,34048
1715,34048
1716,34048
1717,34048
1718,33984
1719,33920
1720,33920
1721,33856
1722,33920
1723,33920
1724,33984
1725,33984
1726,33984
1727,33984
1728,33920
1729,33920
1730,33920
1731,33920
1732,33984
1733,34048
1734,33984
1735,33920
1736,33984
1737,33984
1738,33984
1739,33984
1740,33920
1741,33920
1742,33856
1743,33792
1744,33728
1745,33664
1746,33728
1747,33792
1748,33920
1749,34048
1750,34112
1751,34112
1752,34112
1753,34112
1754,34240
1755,34368
1756,34432
1757,34432
1758,34432
1759,34432
1760,34432
1761,34368
1762,34432
1763,34496
1764,34624
1765,34560
1766,34432
1767,34304
1768,34176
1769,34048
1770,33984
1771,33920
1772,33920
1773,33920
1774,33984
1775,33920
1776,33856
1777,33664
1778,33600
1779,33600
1780,33600
1781,33664
1782,33792
1783,33856
1784,33920
1785,34048
1786,34112
1787,34176
1788,34112
1789,34048
1790,33984
1791,33920
1792,33984
1793,34112
1794,34496
1795,35264
1796,36544
1797,38272
1798,40256
1799,42432
1800,44160
1801,44544
1802,43328
1803,40832
1804,37568
1805,34048
1806,30976
1807,28864
1808,27712
1809,27648
1810,28352
1811,29376
1812,30528
1813,31680
1814,32704
1815,33472
1816,33984
1817,34304
1818,34560
1819,34688
1820,34752
1821,34752
1822,34688
1823,34624
1824,34624
1825,34624
1826,34560
1827,34368
1828,34176
1829,34112
1830,34048
1831,34048
1832,34112
1833,34176
1834,34112
1835,34112
1836,34176
1837,34240
1838,34240
1839,34240
1840,34304
1841,34368
1842,34304
1843,34240
1844,34176
1845,34176
1846,34112
1847,34048
1848,33984
1849,33920
1850,33920
1851,33856
1852,33856
1853,33856
1854,33856
1855,33856
1856,33856
1857,33856
1858,33856
1859,33920
1860,33856
1861,33792
1862,33792
1863,33920
1864,33920
1865,33984
1866,33984
1867,33984
1868,33984
1869,33920
1870,33920
1871,33920
1872,33856
1873,33792
1874,33728
1875,33792
1876,33792
1877,33792
1878,33728
1879,33664
1880,33600
1881,33664
1882,33728
1883,33792
1884,33856
1885,33920
1886,33920
1887,33984
1888,34048
1889,34048
1890,33984
1891,33920
1892,33920
1893,33920
1894,33920
1895,33984
1896,33984
1897,34048
1898,33984
1899,33920
1900,33856
1901,33856
1902,33856
1903,33856
1904,33856
1905,33856
1906,33856
1907,33920
1908,33920
1909,33984
1910,33920
1911,33920
1912,33920
1913,33856
1914,33856
1915,33856
1916,33920
1917,33920
1918,33856
1919,33856
1920,33920
1921,33920
1922,33920
1923,33920
1924,33920
1925,33920
1926,33920
1927,33920
1928,33984
1929,34048
1930,34112
1931,34176
1932,34176
1933,34048
1934,33920
1935,33920
1936,33856
1937,33856
1938,33856
1939,33856
1940,33856
1941,33920
1942,33984
1943,33984
1944,33984
1945,33984
1946,33984
1947,34048
1948,34048
1949,34048
1950,34112
1951,34176
1952,34176
1953,34176
1954,34112
1955,34112
1956,34048
1957,34112
1958,34112
1959,34176
1960,34176
1961,34240
1962,34240
1963,34304
1964,34368
1965,34368
1966,34368
1967,34368
1968,34304
1969,34240
1970,34240
1971,34240
1972,34240
1973,34176
1974,34112
1975,34112
1976,34112
1977,34048
1978,33984
1979,33984
1980,33984
1981,33984
1982,33920
1983,33920
1984,33856
1985,33728
1986,33728
1987,33728
1988,33856
1989,33920
1990,33920
1991,33856
1992,33920
1993,33920
1994,33984
1995,33984
1996,34048
1997,33984
1998,34048
1999,34368
2000,35008
2001,36032
2002,37504
2003,39360
2004,41408
2005,43520
2006,44736
2007,44352
2008,42368
2009,39360
2010,35776
2011,32256
2012,29568
2013,27968
2014,27456
2015,27776
2016,28736
2017,29888
2018,31040
2019,32128
2020,33088
2021,33792
2022,34368
2023,34688
2024,34752
2025,34880
2026,34880
2027,34816
2028,34688
2029,34624
2030,34560
2031,34368
2032,34304
2033,34176
2034,34112
2035,34112
2036,34048
2037,34048
2038,34048
2039,34112
2040,34112
2041,34176
2042,34240
2043,34240
2044,34240
2045,34176
2046,34176
2047,34176
2048,34176
2049,34176
2050,34240
2051,34240
2052,34176
2053,34176
2054,34176
2055,34112
2056,34176
2057,34240
2058,34176
2059,33984
2060,33856
2061,33728
2062,33792
2063,33856
2064,33856
2065,33792
2066,33792
2067,33856
2068,33856
2069,33856
2070,33920
2071,33984
2072,33984
2073,33984
2074,33984
2075,34048
2076,34048
2077,33984
2078,33920
2079,33984
2080,33984
2081,33920
2082,33856
2083,33792
2084,33792
2085,33728
2086,33664
2087,33664
2088,33728
2089,33792
2090,33792
2091,33856
2092,33920
2093,33984
2094,34048
2095,34112
2096,34112
2097,33984
2098,33984
2099,33920
2100,33856
2101,33856
2102,33856
2103,33920
2104,33920
2105,33984
2106,33984
2107,33984
2108,33984
2109,33984
2110,34048
2111,33984
2112,33984
2113,34048
2114,34048
2115,33984
2116,33920
2117,33856
2118,33792
2119,33728
2120,33792
2121,33856
2122,33856
2123,33856
2124,33856
2125,33920
2126,33920
2127,33856
2128,33856
2129,33856
2130,33984
2131,33984
2132,33984
2133,33984
2134,33984
2135,33984
2136,33984
2137,34048
2138,34112
2139,34048
2140,34048
2141,33920
2142,33792
2143,33728
2144,33728
2145,33792
2146,33856
2147,33920
2148,33984
2149,33984
2150,34048
2151,34048
2152,33984
2153,33984
2154,34048
2155,34048
2156,34112
2157,34112
2158,34176
2159,34176
2160,33984
2161,33856
2162,33792
2163,33728
2164,33728
2165,33728
2166,33728
2167,33856
2168,33920
2169,33920
2170,33984
2171,34048
2172,34112
2173,34112
2174,34048
2175,34112
2176,34176
2177,34304
2178,34368
2179,34496
2180,34560
2181,34496
2182,34368
2183,34304
2184,34240
2185,34112
2186,34048
2187,34048
2188,34176
2189,34112
2190,34112
2191,34048
2192,34048
2193,34112
2194,34048
2195,33984
2196,34048
2197,34112
2198,34048
2199,33984
2200,33920
2201,33856
2202,33728
2203,33728
2204,33664
2205,33600
2206,33600
2207,33664
2208,33792
2209,33856
2210,33920
2211,33984
2212,33984
2213,33984
2214,33984
2215,33984
2216,34176
2217,34624
2218,35456
2219,36608
2220,38272
2221,40192
2222,42304
2223,44096
2224,44608
2225,43520
2226,41152
2227,37888
2228,34176
2229,30976
2230,28800
2231,27712
2232,27584
2233,28224
2234,29248
2235,30400
2236,31488
2237,32384
2238,33408
2239,33920
2240,34304
2241,34624
2242,34752
2243,34880
2244,34880
2245,34816
2246,34688
2247,34560
2248,34432
2249,34304
2250,34304
2251,34304
2252,34240
2253,34112
2254,33984
2255,33984
2256,34048
2257,33984
2258,33856
2259,33856
2260,33856
2261,33984
2262,34176
2263,34240
2264,34176
2265,34048
2266,33984
2267,33984
2268,34048
2269,34048
2270,34048
2271,34112
2272,34176
2273,34112
2274,34112
2275,34048
2276,33984
2277,33856
2278,33856
2279,33856
2280,33856
2281,33792
2282,33728
2283,33728
2284,33728
2285,33728
2286,33792
2287,33856
2288,33920
2289,33856
2290,33856
2291,33920
2292,34048
2293,34112
2294,34048
2295,33856
2296,33792
2297,33792
2298,33728
2299,33664
2300,33664
2301,33728
2302,33792
2303,33792
2304,33856
2305,33792
2306,33728
2307,33728
2308,33792
2309,33856
2310,33856
2311,33856
2312,33856
2313,33920
2314,33920
2315,33920
2316,33984
2317,33984
2318,33920
2319,33856
2320,33856
2321,33856
2322,33856
2323,33856
2324,33856
2325,33920
2326,34048
2327,34048
2328,33984
2329,33856
2330,33792
2331,33792
2332,33792
2333,33792
2334,33856
2335,33920
2336,33984
2337,33920
2338,33792
2339,33728
2340,33728
2341,33728
2342,33728
2343,33728
2344,33728
2345,33728
2346,33792
2347,33856
2348,33856
2349,33920
2350,33984
2351,33984
2352,33984
2353,33920
2354,33920
2355,33984
2356,33920
2357,33984
2358,34048
2359,34048
2360,34048
2361,33920
2362,33920
2363,33792
2364,33728
2365,33728
2366,33728
2367,33792
2368,33856
2369,33856
2370,33920
2371,33984
2372,33984
2373,33984
2374,33984
2375,33984
2376,34048
2377,33984
2378,33984
2379,33920
2380,33920
2381,33920
2382,33984
2383,34048
2384,34048
2385,33984
2386,33984
2387,34112
2388,34240
2389,34240
2390,34176
2391,34112
2392,34176
2393,34240
2394,34240
2395,34240
2396,34368
2397,34496
2398,34432
2399,34304
2400,34176
2401,34112
2402,34048
2403,34048
2404,34048
2405,34176
2406,34176
2407,34048
2408,33920
2409,33792
2410,33664
2411,33600
2412,33536
2413,33600
2414,33664
2415,33728
2416,33792
2417,33856
2418,33984
2419,33984
2420,33984
2421,34048
2422,34112
2423,34176
2424,34048
2425,33984
2426,33984
2427,34368
2428,35072
2429,36288
2430,38080
2431,39872
2432,41920
2433,43712
2434,44416
2435,43584
2436,41472
2437,38464
2438,35008
2439,31808
2440,29376
2441,27968
2442,27584
2443,28032
2444,28992
2445,30144
2446,31232
2447,32320
2448,33472
2449,33920
2450,34368
2451,34752
2452,34880
2453,34880
2454,34752
2455,34688
2456,34560
2457,34432
2458,34368
2459,34368
2460,34368
2461,34304
2462,34240
2463,34112
2464,34048
2465,33984
2466,33984
2467,34048
2468,34112
2469,34112
2470,34176
2471,34176
2472,34240
2473,34240
2474,34304
2475,34304
2476,34176
2477,34112
2478,34112
2479,34112
2480,34240
2481,34304
2482,34112
2483,33984
2484,33920
2485,33920
2486,33920
2487,33920
2488,33920
2489,33920
2490,33856
2491,33856
2492,33856
2493,33920
2494,33920
2495,33920
2496,33984
2497,33984
2498,33984
2499,34112
2500,34112
2501,34048
2502,33984
2503,33856
2504,33792
2505,33728
2506,33792
2507,33792
2508,33792
2509,33792
2510,33856
2511,33792
2512,33728
2513,33728
2514,33792
2515,33792
2516,33792
2517,33792
2518,33856
2519,33920
2520,33984
2521,34048
2522,34048
2523,34112
2524,34048
2525,33984
2526,33984
2527,33984
2528,33984
2529,33920
2530,33856
2531,33856
2532,33856
2533,33856
2534,33920
2535,33920
2536,33984
2537,33920
2538,33920
2539,33920
2540,33920
2541,33984
2542,34048
2543,34048
2544,34048
2545,33984
2546,33856
2547,33856
2548,33792
2549,33792
2550,33728
2551,33728
2552,33792
2553,33792
2554,33856
2555,33920
2556,33984
2557,33920
2558,33792
2559,33792
2560,33856
2561,33856
2562,33856
2563,33856
2564,33920
2565,33920
2566,33984
2567,33984
2568,34048
2569,33984
2570,33856
2571,33856
2572,33920
2573,33984
2574,33920
2575,33920
2576,33984
2577,33984
2578,33920
2579,33856
2580,33920
2581,33984
2582,34048
2583,34048
2584,34048
2585,33984
2586,33920
2587,33856
2588,33856
2589,33920
2590,33920
2591,33920
2592,33920
2593,33984
2594,33984
2595,33984
2596,33984
2597,34048
2598,34112
2599,34048
2600,34048
2601,34048
2602,34112
2603,34112
2604,34048
2605,33984
2606,33984
2607,33984
2608,34112
2609,34176
2610,34304
2611,34304
2612,34368
2613,34496
2614,34560
2615,34496
2616,34432
2617,34368
2618,34368
2619,34240
2620,34112
2621,34048
2622,34048
2623,34048
2624,34048
2625,34048
2626,34048
2627,34048
2628,34048
2629,33984
2630,33920
2631,33792
2632,33728
2633,33728
2634,33728
2635,33856
2636,33920
2637,33984
2638,33984
2639,34112
2640,34112
2641,33984
2642,33856
2643,33856
2644,33856
2645,33856
2646,34048
2647,34432
2648,34944
2649,35776
2650,37056
2651,38784
2652,40832
2653,42880
2654,44480
2655,44544
2656,42560
2657,40128
2658,35200
2659,32832
2660,30208
2661,28352
2662,27584
2663,27840
2664,28672
2665,29760
2666,30848
2667,31936
2668,32960
2669,33728
2670,34240
2671,34560
2672,34688
2673,34688
2674,34688
2675,34688
2676,34624
2677,34560
2678,34496
2679,34432
2680,34368
2681,34304
2682,34176
2683,34112
2684,34048
2685,34048
2686,34112
2687,34112
2688,34112
2689,34112
2690,34112
2691,34112
2692,34112
2693,34176
2694,34176
2695,34176
2696,34176
2697,34304
2698,34368
2699,34304
2700,34304
2701,34304
2702,34240
2703,34176
2704,34048
2705,33984
2706,33920
2707,33920
2708,33920
2709,33920
2710,33920
2711,33856
2712,33856
2713,33792
2714,33792
2715,33792
2716,33792
2717,33792
2718,33920
2719,33920
2720,33984
2721,33984
2722,33984
2723,34048
2724,33984
2725,33920
2726,33920
2727,33856
2728,33728
2729,33664
2730,33600
2731,33600
2732,33600
2733,33664
2734,33664
2735,33664
2736,33600
2737,33536
2738,33600
2739,33664
2740,33792
2741,33856
2742,33856
2743,33920
2744,33920
2745,34048
2746,34048
2747,33984
2748,33920
2749,33856
2750,33792
2751,33792
2752,33856
2753,33856
2754,33984
2755,34048
2756,33984
2757,33920
2758,33856
2759,33856
2760,33856
2761,33792
2762,33792
2763,33856
2764,33856
2765,33920
2766,33856
2767,33792
2768,33728
2769,33728
2770,33792
2771,33856
2772,33920
2773,33984
2774,33920
2775,33856
2776,33856
2777,33792
2778,33856
2779,33856
2780,33856
2781,33856
2782,33920
2783,33920
2784,33920
2785,33984
2786,33920
2787,33920
2788,33920
2789,33920
2790,33984
2791,33920
2792,33920
2793,34048
2794,33984
2795,33984
2796,33920
2797,33984
2798,33984
2799,33984
2800,33920
2801,33984
2802,33984
2803,33984
2804,33984
2805,34048
2806,34112
2807,34112
2808,34048
2809,34048
2810,34048
2811,33984
2812,33920
2813,33920
2814,33984
2815,33984
2816,33984
2817,34048
2818,34048
2819,34048
2820,33984
2821,33920
2822,33984
2823,34112
2824,34112
2825,34048
2826,33984
2827,33984
2828,33984
2829,33984
2830,33984
2831,33984
2832,34048
2833,34048
2834,34112
2835,34112
2836,34112
2837,34112
2838,34176
2839,34176
2840,34240
2841,34240
2842,34176
2843,34112
2844,34112
2845,34112
2846,34176
2847,34304
2848,34432
2849,34432
2850,34368
2851,34304
2852,34304
2853,34304
2854,34304
2855,34368
2856,34368
2857,34432
2858,34432
2859,34368
2860,34304
2861,34176
2862,34048
2863,33920
2864,33920
2865,33984
2866,33984
2867,33920
2868,33856
2869,33792
2870,33728
2871,33728
2872,33792
2873,33856
2874,33920
2875,34048
2876,34112
2877,34112
2878,34112
2879,34176
2880,34240
2881,34304
2882,34304
2883,34176
2884,34304
2885,34688
2886,35392
2887,36608
2888,38272
2889,40320
2890,42432
2891,44288
2892,44736
2893,43520
2894,41024
2895,37760
2896,34112
2897,31040
2898,28864
2899,27776
2900,27712
2901,28352
2902,29440
2903,30592
2904,31680
2905,32704
2906,33664
2907,34304
2908,34688
2909,34880
2910,34944
2911,34944
2912,34816
2913,34688
2914,34560
2915,34368
2916,34304
2917,34240
2918,34176
2919,34176
2920,34176
2921,34112
2922,34176
2923,34240
2924,34240
2925,34240
2926,34240
2927,34240
2928,34304
2929,34304
2930,34240
2931,34304
2932,34304
2933,34240
2934,34176
2935,34112
2936,34048
2937,34112
2938,34240
2939,34304
2940,34176
2941,34112
2942,34048
2943,33984
2944,33984
2945,33920
2946,33920
2947,33920
2948,33984
2949,33984
2950,33984
2951,33984
2952,34048
2953,33984
2954,33920
2955,33856
2956,33920
2957,33920
2958,33984
2959,33984
2960,33984
2961,33920
2962,33856
2963,33728
2964,33728
2965,33728
2966,33728
2967,33792
2968,33792
2969,33792
2970,33792
2971,33728
2972,33664
2973,33664
2974,33792
2975,33792
2976,33856
2977,33856
2978,33856
2979,33792
2980,33856
2981,33920
2982,33920
2983,33984
2984,34112
2985,34112
2986,33920
2987,33792
2988,33728
2989,33792
2990,33856
2991,33856
2992,33856
2993,33856
2994,33920
2995,33920
2996,33920
2997,33920
2998,33920
2999,33920
3000,33920
3001,33984
3002,34048
3003,34048
3004,33920
3005,33792
3006,33792
3007,33792
3008,33728
3009,33728
3010,33728
3011,33792
3012,33792
3013,33728
3014,33792
3015,33856
3016,33984
3017,33984
3018,34048
3019,33984
3020,33920
3021,33920
3022,33920
3023,33920
3024,33856
3025,33792
3026,33792
3027,33856
3028,33920
3029,33920
3030,33920
3031,33856
3032,33856
3033,33856
3034,33856
3035,33856
3036,33920
3037,33984
3038,34048
3039,34048
3040,34112
3041,34048
3042,33984
3043,33920
3044,33920
3045,33984
3046,34048
3047,34048
3048,34048
3049,33984
3050,33920
3051,33792
3052,33728
3053,33664
3054,33664
3055,33792
3056,33920
3057,34048
3058,34176
3059,34112
3060,34048
3061,34048
3062,34048
3063,34048
3064,34048
3065,34048
3066,33984
3067,33920
3068,33984
3069,34112
3070,34176
3071,34176
3072,34240
3073,34304
3074,34304
3075,34304
3076,34304
3077,34304
3078,34368
3079,34368
3080,34304
3081,34304
3082,34240
3083,34176
3084,34112
3085,34176
3086,34176
3087,34048
3088,33984
3089,34048
3090,34112
3091,34112
3092,33984
3093,33984
3094,33920
3095,33856
3096,33728
3097,33728
3098,33792
3099,33792
3100,33792
3101,33920
3102,34048
3103,33984
3104,33920
3105,33920
3106,33920
3107,33920
3108,33920
3109,33984
3110,34240
3111,34688
3112,35584
3113,36928
3114,38784
3115,40832
3116,42880
3117,44352
3118,44352
3119,43008
3120,40448
3121,37120
3122,33664
3123,30720
3124,28736
3125,27712
3126,27712
3127,28416
3128,29504
3129,30592
3130,31680
3131,32768
3132,33664
3133,34240
3134,34496
3135,34624
3136,34688
3137,34688
3138,34688
3139,34688
3140,34688
3141,34560
3142,34496
3143,34368
3144,34368
3145,34240
3146,34176
3147,34112
3148,34112
3149,34112
3150,34048
3151,34048
3152,34048
3153,34112
3154,34112
3155,34176
3156,34240
3157,34304
3158,34304
3159,34304
3160,34304
3161,34304
3162,34368
3163,34304
3164,34240
3165,34176
3166,34112
3167,34112
3168,34048
3169,34048
3170,33984
3171,33920
3172,33920
3173,34048
3174,34048
3175,33920
3176,33920
3177,33984
3178,33920
3179,33856
3180,33856
3181,33920
3182,33984
3183,33984
3184,33984
3185,33984
3186,33920
3187,33920
3188,33856
3189,33856
3190,33856
3191,33856
3192,33792
3193,33728
3194,33728
3195,33728
3196,33728
3197,33728
3198,33792
3199,33856
3200,33920
3201,33984
3202,33984
3203,33984
3204,33984
3205,34048
3206,33984
3207,33856
3208,33792
3209,33728
3210,33728
3211,33856
3212,33920
3213,33920
3214,33920
3215,33920
3216,33920
3217,33984
3218,33984
3219,33984
3220,33984
3221,34048
3222,34048
3223,34048
3224,34048
3225,34112
3226,34112
3227,33984
3228,33920
3229,33856
3230,33792
3231,33792
3232,33792
3233,33856
3234,33792
3235,33792
3236,33792
3237,33792
3238,33728
3239,33728
3240,33792
3241,33856
3242,33920
3243,33920
3244,34048
3245,34048
3246,34048
3247,34048
3248,34048
3249,34048
3250,34048
3251,33984
3252,33920
3253,33856
3254,33792
3255,33856
3256,33920
3257,33920
3258,33984
3259,33984
3260,34048
3261,34112
3262,34048
3263,33920
3264,33920
3265,33984
3266,33984
3267,33984
3268,33984
3269,34048
3270,34048
3271,34048
3272,34048
3273,34048
3274,33920
3275,33856
3276,33920
3277,34112
3278,34240
3279,34240
3280,34304
3281,34368
3282,34432
3283,34432
3284,34432
3285,34368
3286,34368
3287,34304
3288,34176
3289,34112
3290,34048
3291,34048
3292,34048
3293,34112
3294,34112
3295,34048
3296,33920
3297,33856
3298,33856
3299,33792
3300,33664
3301,33600
3302,33600
3303,33664
3304,33728
3305,33792
3306,33856
3307,33856
3308,33856
3309,33856
3310,33920
3311,34048
3312,33984
3313,33984
3314,33920
3315,33856
3316,33984
3317,34368
3318,34944
3319,35968
3320,37248
3321,39040
3322,41088
3323,43200
3324,44672
3325,44480
3326,42688
3327,39808
3328,36224
3329,32640
3330,29824
3331,28096
3332,27520
3333,27840
3334,28736
3335,29888
3336,31104
3337,32128
3338,33024
3339,33728
3340,34176
3341,34432
3342,34560
3343,34560
3344,34624
3345,34560
3346,34496
3347,34496
3348,34560
3349,34560
3350,34432
3351,34240
3352,34176
3353,34112
3354,34048
3355,34048
3356,34048
3357,34112
3358,34112
3359,34176
3360,34240
3361,34240
3362,34240
3363,34176
3364,34240
3365,34304
3366,34240
3367,34176
3368,34176
3369,34240
3370,34304
3371,34304
3372,34304
3373,34240
3374,34240
3375,34176
3376,34112
3377,34112
3378,34112
3379,34048
3380,34048
3381,33920
3382,33920
3383,33856
3384,33792
3385,33792
3386,33728
3387,33792
3388,33792
3389,33856
3390,33856
3391,33856
3392,33856
3393,33920
3394,33920
3395,33920
3396,33792
3397,33728
3398,33728
3399,33664
3400,33600
3401,33600
3402,33536
3403,33472
3404,33472
3405,33600
3406,33728
3407,33792
3408,33728
3409,33664
3410,33728
3411,33792
3412,33792
3413,33856
3414,33920
3415,33984
3416,33984
3417,33984
3418,34048
3419,34048
3420,34048
3421,33920
3422,33856
3423,33792
3424,33728
3425,33792
3426,33856
3427,33856
3428,33856
3429,33856
3430,33920
3431,33856
3432,33856
3433,33792
3434,33792
3435,33792
3436,33792
3437,33792
3438,33856
3439,33920
3440,33920
3441,33856
3442,33856
3443,33856
3444,33856
3445,33856
3446,33792
3447,33792
3448,33792
3449,33792
3450,33792
3451,33856
3452,33920
3453,33984
3454,33920
3455,33856
3456,33792
3457,33792
3458,33792
3459,33856
3460,33984
3461,34048
3462,34048
3463,33984
3464,33984
3465,33984
3466,33920
3467,33920
3468,33984
3469,33920
3470,33856
3471,33856
3472,33792
3473,33792
3474,33856
3475,33920
3476,33984
3477,33984
3478,33984
3479,33984
3480,33984
3481,33920
3482,33920
3483,33920
3484,33984
3485,34048
3486,34112
3487,34112
3488,34176
3489,34176
3490,34048
3491,33920
3492,33920
3493,33920
3494,33920
3495,33920
3496,33984
3497,34112
3498,34304
3499,34304
3500,34432
3501,34432
3502,34432
3503,34368
3504,34304
3505,34240
3506,34176
3507,34240
3508,34240
3509,34176
3510,34176
3511,34176
3512,34112
3513,34112
3514,34112
3515,34112
3516,34112
3517,34112
3518,34048
3519,33920
3520,33792
3521,33792
3522,33920
3523,33984
3524,34048
3525,34048
3526,34048
3527,34048
3528,33984
3529,33984
3530,33984
3531,33984
3532,33920
3533,33920
3534,33856
3535,33920
3536,34112
3537,34496
3538,35200
3539,36352
3540,37952
3541,39936
3542,42048
3543,44096
3544,45056
3545,44096
3546,41664
3547,38400
3548,34752
3549,31360
3550,28928
3551,27712
3552,27520
3553,28224
3554,29184
3555,30464
3556,31552
3557,32512
3558,33280
3559,33792
3560,34304
3561,34688
3562,34816
3563,34752
3564,34688
3565,34688
3566,34624
3567,34560
3568,34496
3569,34368
3570,34240
3571,34112
3572,34048
3573,34048
3574,34112
3575,34176
3576,34112
3577,34112
3578,34048
3579,34048
3580,34048
3581,34112
3582,34176
3583,34176
3584,34176
3585,34240
3586,34304
3587,34304
3588,34304
3589,34304
3590,34304
3591,34240
3592,34176
3593,34112
3594,34112
3595,34112
3596,34048
3597,34048
3598,34048
3599,33984
3600,33920
3601,33856
3602,33920
3603,33920
3604,33984
3605,33984
3606,33920
3607,33920
3608,33856
3609,33792
3610,33856
3611,33920
3612,33920
3613,33984
3614,33920
3615,33792
3616,33664
3617,33600
3618,33600
3619,33600
3620,33536
3621,33536
3622,33664
3623,33792
3624,33920
3625,33856
3626,33792
3627,33728
3628,33728
3629,33792
3630,33856
3631,33920
3632,33920
3633,33920
3634,33856
3635,33792
3636,33856
3637,33856
3638,33920
3639,33920
3640,33984
3641,33984
3642,34048
3643,34048
3644,33984
3645,33984
3646,33920
3647,33920
3648,33920
3649,33984
3650,34048
3651,34048
3652,33920
3653,33856
3654,33728
3655,33664
3656,33664
3657,33664
3658,33728
3659,33792
3660,33920
3661,33920
3662,33920
3663,33920
3664,33920
3665,33920
3666,33984
3667,33920
3668,33920
3669,33920
3670,33920
3671,33856
3672,33920
3673,33920
3674,33856
3675,33856
3676,33792
3677,33856
3678,33856
3679,33856
3680,33856
3681,33920
3682,33984
3683,33984
3684,33984
3685,33920
3686,33920
3687,33856
3688,33792
3689,33920
3690,34048
3691,34112
3692,34112
3693,34112
3694,34112
3695,34048
3696,33920
3697,33856
3698,33856
3699,33856
3700,33920
3701,34048
3702,34048
3703,34048
3704,33984
3705,33984
3706,34048
3707,34112
3708,34176
3709,34112
3710,34112
3711,34176
3712,34112
3713,34048
3714,33984
3715,33920
3716,33856
3717,33856
3718,33856
3719,33920
3720,33920
3721,33984
3722,34048
3723,34240
3724,34304
3725,34304
3726,34368
3727,34432
3728,34432
3729,34432
3730,34432
3731,34304
3732,34304
3733,34304
3734,34304
3735,34304
3736,34240
3737,34112
3738,34048
3739,34048
3740,34048
3741,34048
3742,34048
3743,34048
3744,34112
3745,34112
3746,34048
3747,33984
3748,33920
3749,33856
3750,33856
3751,33856
3752,33856
3753,33856
3754,33856
3755,33920
3756,33984
3757,34112
3758,34176
3759,34176
3760,34112
3761,33984
3762,33920
3763,33856
3764,34048
3765,34432
3766,35008
3767,36096
3768,37632
3769,39552
3770,41728
3771,43712
3772,44672
3773,44032
3774,41920
3775,38912
3776,35456
3777,32192
3778,29696
3779,28096
3780,27648
3781,28032
3782,28928
3783,30080
3784,31104
3785,32128
3786,33024
3787,33792
3788,34368
3789,34688
3790,34880
3791,34944
3792,34880
3793,34880
3794,34752
3795,34624
3796,34496
3797,34368
3798,34240
3799,34176
3800,34048
3801,34048
3802,33984
3803,33984
3804,33984
3805,33984
3806,34048
3807,34112
3808,34112
3809,34112
3810,34176
3811,34176
3812,34240
3813,34304
3814,34304
3815,34304
3816,34240
3817,34176
3818,34176
3819,34240
3820,34304
3821,34304
3822,34304
3823,34176
3824,34048
3825,33984
3826,33920
3827,33984
3828,34048
3829,34048
3830,33920
3831,33792
3832,33728
3833,33728
3834,33792
3835,33856
3836,33920
3837,33984
3838,33984
3839,33984
3840,34048
3841,34048
3842,33984
3843,33856
3844,33856
3845,33792
3846,33792
3847,33728
3848,33792
3849,33792
3850,33728
3851,33664
3852,33728
3853,33792
3854,33856
3855,33856
3856,33856
3857,33792
3858,33792
3859,33792
3860,33792
3861,33792
3862,33792
3863,33728
3864,33792
3865,33856
3866,33920
3867,33984
3868,34048
3869,34048
3870,34112
3871,34112
3872,34112
3873,34112
3874,34176
3875,34176
3876,34112
3877,34048
3878,33920
3879,33792
3880,33728
3881,33792
3882,33856
3883,33920
3884,33920
3885,33984
3886,33984
3887,33856
3888,33792
3889,33792
3890,33856
3891,33856
3892,33792
3893,33728
3894,33792
3895,33856
3896,33984
3897,33984
3898,33984
3899,34048
3900,33984
3901,33920
3902,33856
3903,33920
3904,33984
3905,33984
3906,33984
3907,33984
3908,33920
3909,33856
3910,33856
3911,33856
3912,33856
3913,33856
3914,33920
3915,34112
3916,34240
3917,34240
3918,34240
3919,34368
3920,34432
3921,34496
3922,34496
3923,34432
3924,34240
3925,34112
3926,34048
3927,34048
3928,34176
3929,34176
3930,34176
3931,34176
3932,34112
3933,34112
3934,34048
3935,34048
3936,34112
3937,34112
3938,34112
3939,33984
3940,33856
3941,33792
3942,33664
3943,33536
3944,33472
3945,33536
3946,33600
3947,33728
3948,33920
3949,33984
3950,33984
3951,34048
3952,34048
3953,34048
3954,33984
3955,33856
3956,33792
3957,33984
3958,34432
3959,35200
3960,36416
3961,38080
3962,40064
3963,42112
3964,44032
3965,44672
3966,43648
3967,41280
3968,38144
3969,34688
3970,31488
3971,29184
3972,27840
3973,27520
3974,28096
3975,29056
3976,30208
3977,31360
3978,32448
3979,33216
3980,33920
3981,34432
3982,34752
3983,34816
3984,34816
3985,34752
3986,34624
3987,34432
3988,34304
3989,34240
3990,34240
3991,34240
3992,34240
3993,34304
3994,34304
3995,34176
3996,34112
3997,34048
3998,34048
3999,34112
4000,34112
4001,34176
4002,34176
4003,34240
4004,34240
4005,34240
4006,34240
4007,34240
4008,34240
4009,34240
4010,34240
4011,34368
4012,34368
4013,34368
4014,34368
4015,34304
4016,34304
4017,34304
4018,34176
4019,34048
4020,34048
4021,33920
4022,33856
4023,33856
4024,33792
4025,33728
4026,33664
4027,33728
4028,33792
4029,33856
4030,33856
4031,33856
4032,33920
4033,33920
4034,33920
4035,33792
4036,33728
4037,33728
4038,33664
4039,33664
4040,33664
4041,33664
4042,33536
4043,33472
4044,33536
4045,33664
4046,33792
4047,33728
4048,33728
4049,33792
4050,33792
4051,33728
4052,33664
4053,33664
4054,33728
4055,33792
4056,33856
4057,33984
4058,33984
4059,33920
4060,33920
4061,33984
4062,33984
4063,33920
4064,33856
4065,33856
4066,33920
4067,33984
4068,33984
4069,33984
4070,33920
4071,33920
4072,33920
4073,33984
4074,33984
4075,34048
4076,33984
4077,33984
4078,33984
4079,34048
4080,33984
4081,33856
4082,33728
4083,33664
4084,33600
4085,33600
4086,33664
4087,33728
4088,33792
4089,33856
4090,33984
4091,34048
4092,34112
4093,34048
4094,33920
4095,33856
4096,33792
4097,33792
4098,33792
4099,33856
4100,33984
4101,33984
4102,34048
4103,34048
4104,34112
4105,34112
4106,34112
4107,34048
4108,33984
4109,33856
4110,33856
4111,33920
4112,34048
4113,34048
4114,34048
4115,33984
4116,33920
4117,33920
4118,33856
4119,33856
4120,33920
4121,33984
4122,34112
4123,34304
4124,34368
4125,34432
4126,34432
4127,34432
4128,34496
4129,34432
4130,34432
4131,34432
4132,34368
4133,34368
4134,34368
4135,34304
4136,34240
4137,34176
4138,33984
4139,33920
4140,33856
4141,33856
4142,33856
4143,33920
4144,33920
4145,33984
4146,33920
4147,33856
4148,33792
4149,33792
4150,33856
4151,33856
4152,33920
4153,33984
4154,34112
4155,34176
4156,34112
4157,34048
4158,34048
4159,34048
4160,33984
4161,33984
4162,33984
4163,34240
4164,34816
4165,35712
4166,37120
4167,38976
4168,41088
4169,43264
4170,44800
4171,44608
4172,42816
4173,40000
4174,36544
4175,33152
4176,30336
4177,28480
4178,27648
4179,27712
4180,28480
4181,29568
4182,30720
4183,31808
4184,32704
4185,33472
4186,34048
4187,34496
4188,34816
4189,34880
4190,34880
4191,34880
4192,34816
4193,34688
4194,34624
4195,34560
4196,34432
4197,34368
4198,34368
4199,34368
4200,34304
4201,34176
4202,34048
4203,34048
4204,34048
4205,33984
4206,33920
4207,33984
4208,34112
4209,34176
4210,34240
4211,34240
4212,34304
4213,34368
4214,34368
4215,34432
4216,34496
4217,34496
4218,34432
4219,34368
4220,34368
4221,34368
4222,34240
4223,34112
4224,34048
4225,34048
4226,34112
4227,34048
4228,34048
4229,34048
4230,34112
4231,33984
4232,33920
4233,33856
4234,33856
4235,33792
4236,33856
4237,33856
4238,33856
4239,33856
4240,33856
4241,33792
4242,33792
4243,33792
4244,33728
4245,33792
4246,33792
4247,33728
4248,33728
4249,33728
4250,33728
4251,33664
4252,33664
4253,33664
4254,33728
4255,33728
4256,33792
4257,33920
4258,34048
4259,33984
4260,34048
4261,34112
4262,34112
4263,34048
4264,33984
4265,33920
4266,33856
4267,33920
4268,33920
4269,33920
4270,33920
4271,33984
4272,33984
4273,33920
4274,33920
4275,33984
4276,33920
4277,33920
4278,33984
4279,34048
4280,33984
4281,33984
4282,33984
4283,33984
4284,34048
4285,34048
4286,34048
4287,34048
4288,34048
4289,33920
4290,33856
4291,33792
4292,33792
4293,33792
4294,33792
4295,33792
4296,33792
4297,33856
4298,33920
4299,33984
4300,33984
4301,33984
4302,33920
4303,33920
4304,33984
4305,33984
4306,33920
4307,33920
4308,33984
4309,33984
4310,34048
4311,34112
4312,34112
4313,34048
4314,33984
4315,33920
4316,33984
4317,33984
4318,33984
4319,33984
4320,34112
4321,34176
4322,34176
4323,34304
4324,34304
4325,34240
4326,34176
4327,34176
4328,34240
4329,34304
4330,34368
4331,34304
4332,34240
4333,34176
4334,34112
4335,34112
4336,34048
4337,34048
4338,34048
4339,34048
4340,33984
4341,33920
4342,33856
4343,33792
4344,33664
4345,33664
4346,33728
4347,33792
4348,33856
4349,33856
4350,33920
4351,33984
4352,33984
4353,33984
4354,33920
4355,33856
4356,33792
4357,33792
4358,33920
4359,34176
4360,34688
4361,35584
4362,36928
4363,38656
4364,40640
4365,42688
4366,44288
4367,44544
4368,43072
4369,40640
4370,37440
4371,33920
4372,30848
4373,28736
4374,27648
4375,27584
4376,28224
4377,29248
4378,30464
4379,31552
4380,32640
4381,33408
4382,33984
4383,34432
4384,34816
4385,34944
4386,34880
4387,34752
4388,34624
4389,34496
4390,34432
4391,34432
4392,34368
4393,34368
4394,34368
4395,34304
4396,34304
4397,34304
4398,34176
4399,34048
4400,33984
4401,33920
4402,33920
4403,33984
4404,34112
4405,34176
4406,34176
4407,34240
4408,34240
4409,34240
4410,34304
4411,34368
4412,34368
4413,34368
4414,34368
4415,34304
4416,34432
4417,34496
4418,34432
4419,34304
4420,34176
4421,34048
4422,33920
4423,33856
4424,33920
4425,33920
4426,33856
4427,33792
4428,33792
4429,33792
4430,33856
4431,33920
4432,33920
4433,33984
4434,34048
4435,34048
4436,33984
4437,33856
4438,33728
4439,33600
4440,33536
4441,33536
4442,33536
4443,33536
4444,33536
4445,33536
4446,33600
4447,33664
4448,33728
4449,33792
4450,33856
4451,33920
4452,33856
4453,33856
4454,33920
4455,33984
4456,33984
4457,33920
4458,33984
4459,33984
4460,33920
4461,33920
4462,33920
4463,33856
4464,33856
4465,33984
4466,34048
4467,34048
4468,33920
4469,33856
4470,33856
4471,33920
4472,33984
4473,33920
4474,33920
4475,33920
4476,33920
4477,33856
4478,33920
4479,33984
4480,33984
4481,33984
4482,33920
4483,33920
4484,33920
4485,33920
4486,33856
4487,33920
4488,33856
4489,33792
4490,33664
4491,33664
4492,33728
4493,33856
4494,33920
4495,33984
4496,34048
4497,33984
4498,33920
4499,33920
4500,33920
4501,33984
4502,33920
4503,33984
4504,33984
4505,33984
4506,33984
4507,33984
4508,33984
4509,33984
4510,34048
4511,34112
4512,34048
4513,33984
4514,33920
4515,33856
4516,33856
4517,33856
4518,33856
4519,33856
4520,33920
4521,33984
4522,34048
4523,34112
4524,34112
4525,34112
4526,34048
4527,33920
4528,33984
4529,34048
4530,34112
4531,34048
4532,34048
4533,34112
4534,34112
4535,34112
4536,34048
4537,34048
4538,34048
4539,33984
4540,33984
4541,33984
4542,34048
4543,34112
4544,34176
4545,34240
4546,34304
4547,34368
4548,34432
4549,34432
4550,34496
4551,34496
4552,34432
4553,34368
4554,34368
4555,34304
4556,34176
4557,34112
4558,34112
4559,34112
4560,34112
4561,34112
4562,34176
4563,34176
4564,34112
4565,34048
4566,33920
4567,33792
4568,33664
4569,33600
4570,33600
4571,33728
4572,33792
4573,33792
4574,33856
4575,33920
4576,34048
4577,34112
4578,34240
4579,34176
4580,34112
4581,34048
4582,34048
4583,34368
4584,34880
4585,35776
4586,37056
4587,38848
4588,40896
4589,43008
4590,44672
4591,44800
4592,43200
4593,40384
4594,36800
4595,33216
4596,30208
4597,28288
4598,27456
4599,27776
4600,28608
4601,29696
4602,30784
4603,31872
4604,32832
4605,33600
4606,34112
4607,34432
4608,34752
4609,34816
4610,34816
4611,34880
4612,34880
4613,34752
4614,34560
4615,34368
4616,34240
4617,34176
4618,34112
4619,34048
4620,34048
4621,34048
4622,34048
4623,34048
4624,34048
4625,34048
4626,34112
4627,34176
4628,34176
4629,34304
4630,34368
4631,34496
4632,34432
4633,34432
4634,34368
4635,34368
4636,34432
4637,34432
4638,34368
4639,34304
4640,34240
4641,34240
4642,34304
4643,34240
4644,34112
4645,34048
4646,34048
4647,34048
4648,34112
4649,34176
4650,34176
4651,34048
4652,33984
4653,33984
4654,33984
4655,33920
4656,33920
4657,33856
4658,33856
4659,33920
4660,33856
4661,33792
4662,33792
4663,33728
4664,33728
4665,33728
4666,33664
4667,33664
4668,33600
4669,33600
4670,33600
4671,33600
4672,33600
4673,33600
4674,33664
4675,33728
4676,33856
4677,33920
4678,33984
4679,33984
4680,34048
4681,33984
4682,33920
4683,34048
4684,33984
4685,33920
4686,33920
4687,33984
4688,34048
4689,33920
4690,33792
4691,33792
4692,33792
4693,33856
4694,33920
4695,33920
4696,33984
4697,34048
4698,34048
4699,34048
4700,33920
4701,33856
4702,33792
4703,33792
4704,33856
4705,33920
4706,33984
4707,34048
4708,33984
4709,33984
4710,33920
4711,33920
4712,33920
4713,33920
4714,33856
4715,33792
4716,33792
4717,33856
4718,33856
4719,33856
4720,33792
4721,33792
4722,33856
4723,33920
4724,33984
4725,34048
4726,34112
4727,34048
4728,33984
4729,33984
4730,33920
4731,33856
4732,33856
4733,33856
4734,33920
4735,33984
4736,34048
4737,33984
4738,33920
4739,33856
4740,33920
4741,33984
4742,33984
4743,33920
4744,33920
4745,34048
4746,34112
4747,34112
4748,33984
4749,33920
4750,33920
4751,33920
4752,33984
4753,33984
4754,34048
4755,33984
4756,33984
4757,34048
4758,34048
4759,33984
4760,33984
4761,34048
4762,34048
4763,34048
4764,34048
4765,34048
4766,34112
4767,34048
4768,34048
4769,34112
4770,34048
4771,33984
4772,33984
4773,34176
4774,34240
4775,34304
4776,34368
4777,34304
4778,34304
4779,34304
4780,34368
4781,34368
4782,34368
4783,34368
4784,34368
4785,34368
4786,34304
4787,34240
4788,34240
4789,34240
4790,34176
4791,34112
4792,34048
4793,34048
4794,34048
4795,34048
4796,34112
4797,34112
4798,34048
4799,33984
4800,33856
4801,33728
4802,33664
4803,33728
4804,33792
4805,33856
4806,33920
4807,33984
4808,34048
4809,34112
4810,34112
4811,33984
4812,33920
4813,33920
4814,34048
4815,34304
4816,34816
4817,35776
4818,38208
4819,39168
4820,41216
4821,43136
4822,44480
4823,44352
4824,42688
4825,40000
4826,36672
4827,33216
4828,30272
4829,28352
4830,27520
4831,27712
4832,28544
4833,30272
4834,30784
4835,31872
4836,32768
4837,33536
4838,34176
4839,34560
4840,34752
4841,34816
4842,34752
4843,34816
4844,34752
4845,34688
4846,34624
4847,34496
4848,34368
4849,34304
4850,34240
4851,34240
4852,34240
4853,34112
4854,34048
4855,34048
4856,34048
4857,34048
4858,34048
4859,34112
4860,34112
4861,34176
4862,34240
4863,34304
4864,34432
4865,34368
4866,34304
4867,34304
4868,34368
4869,34368
4870,34368
4871,34304
4872,34304
4873,34304
4874,34240
4875,34112
4876,33984
4877,33856
4878,33856
4879,33856
4880,33856
4881,33856
4882,33856
4883,33856
4884,33920
4885,33920
4886,33920
4887,33984
4888,34048
4889,34048
4890,34048
4891,34048
4892,34048
4893,33984
4894,33920
4895,33792
4896,33728
4897,33664
4898,33664
4899,33664
4900,33728
4901,33728
4902,33664
4903,33600
4904,33664
4905,33728
4906,33792
4907,33856
4908,33856
4909,33856
4910,33792
4911,33792
4912,33792
4913,33856
4914,33920
4915,33984
4916,33984
4917,34048
4918,34112
4919,34112
4920,34176
4921,34176
4922,34176
4923,34112
4924,34048
4925,33984
4926,33920
4927,33920
4928,33856
4929,33856
4930,33856
4931,33856
4932,33856
4933,33856
4934,33856
4935,33920
4936,33920
4937,33984
4938,33984
4939,33984
4940,33984
4941,34048
4942,34112
4943,34112
4944,34048
4945,33984
4946,33920
4947,33920
4948,33984
4949,34112
4950,34112
4951,33984
4952,33792
4953,33728
4954,33728
4955,33792
4956,33792
4957,33792
4958,33920
4959,34112
4960,34176
4961,34176
4962,34240
4963,34368
4964,34496
4965,34496
4966,34496
4967,34432
4968,34432
4969,34304
4970,34240
4971,34176
4972,34112
4973,34048
4974,33984
4975,33984
4976,33984
4977,34048
4978,34048
4979,33984
4980,33856
4981,33728
4982,33600
4983,33536
4984,33600
4985,33600
4986,33664
4987,33664
4988,33728
4989,33792
4990,33856
4991,33856
4992,33920
4993,33984
4994,33984
4995,33920
4996,33856
4997,33856
4998,33984
4999,34496
5000,35328
5001,36736
5002,38528
5003,40512
5004,42560
5005,44288
5006,44608
5007,43456
5008,40960
5009,37824
5010,34240
5011,31168
5012,28864
5013,27648
5014,27520
5015,28224
5016,29248
5017,30400
5018,31488
5019,32448
5020,33280
5021,33792
5022,34240
5023,34560
5024,34752
5025,34880
5026,34944
5027,34816
5028,34688
5029,34560
5030,34432
5031,34368
5032,34240
5033,34176
5034,34112
5035,34112
5036,34176
5037,34240
5038,34240
5039,34240
5040,34176
5041,34176
5042,34240
5043,34368
5044,34432
5045,34368
5046,34368
5047,34368
5048,34368
5049,34304
5050,34304
5051,34240
5052,34176
5053,34176
5054,34176
5055,34176
5056,34176
5057,34176
5058,34176
5059,34176
5060,34176
5061,34048
5062,33984
5063,33920
5064,33984
5065,33984
5066,34112
5067,34176
5068,34112
5069,33984
5070,33856
5071,33856
5072,33856
5073,33856
5074,33856
5075,33728
5076,33664
5077,33536
5078,33472
5079,33472
5080,33536
5081,33600
5082,33664
5083,33728
5084,33792
5085,33856
5086,33920
5087,33920
5088,33856
5089,33856
5090,33856
5091,33856
5092,33792
5093,33728
5094,33728
5095,33728
5096,33792
5097,33856
5098,33920
5099,33984
5100,34048
5101,34112
5102,34240
5103,34304
5104,34304
5105,34240
5106,34176
5107,34176
5108,34176
5109,34048
5110,33984
5111,33984
5112,33920
5113,33856
5114,33920
5115,33984
5116,33984
5117,33984
5118,33920
5119,33920
5120,33856
5121,33856
5122,33920
5123,33984
5124,33984
5125,33984
5126,34048
5127,34112
5128,34176
5129,34048
5130,33920
5131,33920
5132,33984
5133,34112
5134,34240
5135,34304
5136,34304
5137,34240
5138,34304
5139,34304
5140,34368
5141,34368
5142,34432
5143,34496
5144,34432
5145,34304
5146,34176
5147,34176
5148,34176
5149,34048
5150,33920
5151,33920
5152,33984
5153,33920
5154,33728
5155,33664
5156,33600
5157,33600
5158,33664
5159,33728
5160,33728
5161,33728
5162,33728
5163,33792
5164,33856
5165,33920
5166,34048
5167,34048
5168,33984
5169,33856
5170,33728
5171,33856
5172,34240
5173,35008
5174,36032
5175,37440
5176,39232
5177,41152
5178,43072
5179,44544
5180,44480
5181,42752
5182,39808
5183,36224
5184,32704
5185,29888
5186,28160
5187,27520
5188,27776
5189,28672
5190,29696
5191,30848
5192,32000
5193,32960
5194,33600
5195,34304
5196,34560
5197,34752
5198,34816
5199,34752
5200,34624
5201,34496
5202,34368
5203,34304
5204,34176
5205,34176
5206,34112
5207,34112
5208,34112
5209,34048
5210,34048
5211,34112
5212,34176
5213,34176
5214,34176
5215,34176
5216,34176
5217,34176
5218,34240
5219,34304
5220,34304
5221,34368
5222,34368
5223,34304
5224,34304
5225,34304
5226,34304
5227,34240
5228,34240
5229,34240
5230,34240
5231,34176
5232,34112
5233,34176
5234,34240
5235,34240
5236,34240
5237,33984
5238,33984
5239,33920
5240,33984
5241,33920
5242,33920
5243,33856
5244,33792
5245,33728
5246,33664
5247,33600
5248,33472
5249,33472
5250,33536
5251,33472
5252,33664
5253,33792
5254,33728
5255,33792
5256,33792
5257,33728
5258,33728
5259,33792
5260,33792
5261,33728
5262,33728
5263,33728
5264,33792
5265,33792
5266,33856
5267,33920
5268,33920
5269,33920
5270,33856
5271,33856
5272,33856
5273,33856
5274,33856
5275,33920
5276,33984
5277,34048
5278,34112
5279,34112
5280,34112
5281,34048
5282,34048
5283,34112
5284,34112
5285,33984
5286,33920
5287,33856
5288,33920
5289,33984
5290,33920
5291,33856
5292,33792
5293,33792
5294,33728
5295,33792
5296,33792
5297,33856
5298,33920
5299,33920
5300,33984
5301,33984
5302,33920
5303,33920
5304,33984
5305,34048
5306,34048
5307,34048
5308,33984
5309,33920
5310,33920
5311,33920
5312,33920
5313,33920
5314,33856
5315,33856
5316,33856
5317,33856
5318,33856
5319,33920
5320,33920
5321,33984
5322,34048
5323,34112
5324,34176
5325,34176
5326,34176
5327,34112
5328,33984
5329,33984
5330,33920
5331,33920
5332,33920
5333,33984
5334,34112
5335,34112
5336,34048
5337,33984
5338,33920
5339,33920
5340,33920
5341,33984
5342,34176
5343,34304
5344,34432
5345,34432
5346,34432
5347,34496
5348,34496
5349,34560
5350,34560
5351,34496
5352,34368
5353,34304
5354,34240
5355,34304
5356,34304
5357,34176
5358,34048
5359,33920
5360,33792
5361,33792
5362,33856
5363,33856
5364,33856
5365,33792
5366,33792
5367,33792
5368,33856
5369,33856
5370,33856
5371,33920
5372,33984
5373,34048
5374,34048
5375,34048
5376,33984
5377,33920
5378,33856
5379,33856
5380,33920
5381,34048
5382,34304
5383,34944
5384,35904
5385,37440
5386,39104
5387,41088
5388,43200
5389,44672
5390,44864
5391,43328
5392,40512
5393,36992
5394,33280
5395,30144
5396,28224
5397,27456
5398,27648
5399,28480
5400,29568
5401,30720
5402,31744
5403,32768
5404,33472
5405,34048
5406,34496
5407,34688
5408,34816
5409,34880
5410,34816
5411,34688
5412,34560
5413,34496
5414,34368
5415,34368
5416,34304
5417,34176
5418,34112
5419,33984
5420,33920
5421,33920
5422,33984
5423,33984
5424,33984
5425,34048
5426,34112
5427,34176
5428,34304
5429,34432
5430,34368
5431,34304
5432,34304
5433,34304
5434,34304
5435,34304
5436,34240
5437,34240
5438,34240
5439,34176
5440,34112
5441,34112
5442,34112
5443,34176
5444,34112
5445,34048
5446,33984
5447,33920
5448,33920
5449,33984
5450,33984
5451,33984
5452,33920
5453,33920
5454,33920
5455,33920
5456,33920
5457,33920
5458,33920
5459,33856
5460,33856
5461,33792
5462,33728
5463,33728
5464,33728
5465,33728
5466,33792
5467,33792
5468,33920
5469,33856
5470,33728
5471,33600
5472,33536
5473,33600
5474,33664
5475,33728
5476,33728
5477,33728
5478,33728
5479,33856
5480,33920
5481,33984
5482,34048
5483,34112
5484,34176
5485,34112
5486,34112
5487,34112
5488,34048
5489,33984
5490,33856
5491,33792
5492,33856
5493,33856
5494,33856
5495,33920
5496,33920
5497,33984
5498,33984
5499,33984
5500,33984
5501,33920
5502,33856
5503,33856
5504,33856
5505,33856
5506,33856
5507,33792
5508,33728
5509,33792
5510,33856
5511,33856
5512,33920
5513,33920
5514,33984
5515,33920
5516,33920
5517,33920
5518,33920
5519,33920
5520,33856
5521,33792
5522,33856
5523,33920
5524,33920
5525,33984
5526,34048
5527,34048
5528,33984
5529,33984
5530,34048
5531,34048
5532,34112
5533,34048
5534,33920
5535,33920
5536,33920
5537,33984
5538,33984
5539,34048
5540,33984
5541,33920
5542,33920
5543,33920
5544,33920
5545,33920
5546,33984
5547,33984
5548,34048
5549,34112
5550,34176
5551,34176
5552,34176
5553,34112
5554,34048
5555,33984
5556,33984
5557,33984
5558,34048
5559,34176
5560,34176
5561,34112
5562,34048
5563,34048
5564,34112
5565,33984
5566,33920
5567,33920
5568,33984
5569,34112
5570,34176
5571,34304
5572,34368
5573,34432
5574,34432
5575,34368
5576,34432
5577,34432
5578,34496
5579,34496
5580,34432
5581,34368
5582,34368
5583,34368
5584,34368
5585,34432
5586,34304
5587,34176
5588,34112
5589,34048
5590,33984
5591,34048
5592,34048
5593,34112
5594,34176
5595,34048
5596,33856
5597,33728
5598,33728
5599,33792
5600,33792
5601,33920
5602,33920
5603,33984
5604,33984
5605,33984
5606,34112
5607,34176
5608,34176
5609,34176
5610,34176
5611,34240
5612,34560
5613,35200
5614,36160
5615,37696
5616,39552
5617,41728
5618,43840
5619,44928
5620,44352
5621,42240
5622,39232
5623,35776
5624,32384
5625,29696
5626,28224
5627,27712
5628,28032
5629,28864
5630,29888
5631,30976
5632,31872
5633,32768
5634,33408
5635,33920
5636,34304
5637,34560
5638,34816
5639,34944
5640,34944
5641,34816
5642,34688
5643,34688
5644,34624
5645,34560
5646,34368
5647,34176
5648,33984
5649,33984
5650,34048
5651,34112
5652,34112
5653,34112
5654,34112
5655,34304
5656,34368
5657,34240
5658,34112
5659,34112
5660,34112
5661,34048
5662,34048
5663,34112
5664,34176
5665,34176
5666,34112
5667,34176
5668,34368
5669,34368
5670,34432
5671,34368
5672,34304
5673,34304
5674,34240
5675,34176
5676,34304
5677,34432
5678,34368
5679,34176
5680,33984
5681,33920
5682,33792
5683,33792
5684,33792
5685,33856
5686,33920
5687,33856
5688,33792
5689,33792
5690,33728
5691,33728
5692,33728
5693,33728
5694,33600
5695,33472
5696,33408
5697,33408
5698,33408
5699,33472
5700,33536
5701,33472
5702,33408
5703,33408
5704,33344
5705,33408
5706,33536
5707,33600
5708,33664
5709,33728
5710,33856
5711,33920
5712,33920
5713,33984
5714,33984
5715,34048
5716,33984
5717,33920
5718,33984
5719,33984
5720,33856
5721,33664
5722,33536
5723,33472
5724,33472
5725,33536
5726,33728
5727,33856
5728,33920
5729,33984
5730,34048
5731,34048
5732,33984
5733,33984
5734,34112
5735,34176
5736,33984
5737,33792
5738,33664
5739,33600
5740,33664
5741,33792
5742,33856
5743,33920
5744,33984
5745,33984
5746,33920
5747,33920
5748,33984
5749,33984
5750,33984
5751,33984
5752,33920
5753,33856
5754,33792
5755,33856
5756,33920
5757,33984
5758,33984
5759,34048
5760,34176
5761,34304
5762,34304
5763,34368
5764,34432
5765,34432
5766,34368
5767,34304
5768,34112
5769,33920
5770,33856
5771,33856
5772,33856
5773,33856
5774,33792
5775,33792
5776,33920
5777,33920
5778,33984
5779,34176
5780,34304
5781,34496
5782,34496
5783,34496
5784,34496
5785,34560
5786,34624
5787,34560
5788,34496
5789,34496
5790,34496
5791,34432
5792,34304
5793,34176
5794,34240
5795,34112
5796,33984
5797,33792
5798,33728
5799,33728
5800,33792
5801,33792
5802,33792
5803,33792
5804,33856
5805,33856
5806,33792
5807,33792
5808,33856
5809,33920
5810,33984
5811,34048
5812,33920
5813,33856
5814,33792
5815,33920
5816,33920
5817,33728
5818,33664
5819,33792
5820,34048
5821,34624
5822,35712
5823,37376
5824,39360
5825,41600
5826,43776
5827,44864
5828,44352
5829,42304
5830,39296
5831,35776
5832,32256
5833,29504
5834,27776
5835,27136
5836,27392
5837,28352
5838,29568
5839,30720
5840,31808
5841,32768
5842,33600
5843,34240
5844,34560
5845,34816
5846,34944
5847,34880
5848,34880
5849,34816
5850,34624
5851,34368
5852,34240
5853,34112
5854,33984
5855,33920
5856,33920
5857,33920
5858,33920
5859,33920
5860,33984
5861,34048
5862,34048
5863,34048
5864,34112
5865,34240
5866,34304
5867,34304
5868,34368
5869,34304
5870,34176
5871,34176
5872,34240
5873,34304
5874,34304
5875,34176
5876,34112
5877,34112
5878,34112
5879,34112
5880,34176
5881,34176
5882,34176
5883,34176
5884,34176
5885,34240
5886,34240
5887,34240
5888,34304
5889,34304
5890,34304
5891,34304
5892,34176
5893,34048
5894,33856
5895,33728
5896,33664
5897,33664
5898,33664
5899,33664
5900,33664
5901,33664
5902,33792
5903,33856
5904,33792
5905,33664
5906,33536
5907,33536
5908,33600
5909,33664
5910,33728
5911,33792
5912,33856
5913,34112
5914,34176
5915,34240
5916,34176
5917,34048
5918,34048
5919,34048
5920,34112
5921,34048
5922,34112
5923,34048
5924,33920
5925,33920
5926,33856
5927,33856
5928,33856
5929,33920
5930,33984
5931,33984
5932,33984
5933,33856
5934,33856
5935,33856
5936,33728
5937,33536
5938,33472
5939,33472
5940,33536
5941,33536
5942,33600
5943,33792
5944,33920
5945,34048
5946,34112
5947,34176
5948,34176
5949,34112
5950,34112
5951,34112
5952,33984
5953,33856
5954,33856
5955,33792
5956,33920
5957,33920
5958,33856
5959,33856
5960,33792
5961,33728
5962,33664
5963,33664
5964,33728
5965,33856
5966,34048
5967,34112
5968,34304
5969,34496
5970,34560
5971,34688
5972,34816
5973,34816
5974,34624
5975,34240
5976,34048
5977,33984
5978,33856
5979,33664
5980,33472
5981,33408
5982,33344
5983,33344
5984,33408
5985,33472
5986,33600
5987,33664
5988,33728
5989,33664
5990,33664
5991,33664
5992,33728
5993,33728
5994,33536
5995,33472
5996,33536
5997,33664
5998,33728
5999,33728
6000,33792
6001,33792
6002,33920
6003,34112
6004,34496
6005,35008
6006,35968
6007,37376
6008,39232
6009,41344
6010,43456
6011,44352
6012,43648
6013,41472
6014,38400
6015,34944
6016,31296
6017,29120
6018,27584
6019,27328
6020,27840
6021,28800
6022,30016
6023,31168
6024,32256
6025,33088
6026,33792
6027,34304
6028,34624
6029,34816
6030,35008
6031,35008
6032,34944
6033,34880
6034,34624
6035,34304
6036,33920
6037,33856
6038,33856
6039,33856
6040,33856
6041,33856
6042,33856
6043,33856
6044,33920
6045,34048
6046,34176
6047,34240
6048,34304
6049,34368
6050,34304
6051,34240
6052,34176
6053,34240
6054,34176
6055,34112
6056,34240
6057,34240
6058,34240
6059,34240
6060,34176
6061,34304
6062,34368
6063,34368
6064,34176
6065,34240
6066,34304
6067,34304
6068,34304
6069,34304
6070,34432
6071,34432
6072,34432
6073,34368
6074,34240
6075,34112
6076,34048
6077,33984
6078,33984
6079,33920
6080,33856
6081,33856
6082,33920
6083,33792
6084,33728
6085,33728
6086,33792
6087,33856
6088,34048
6089,34048
6090,33728
6091,33216
6092,33024
6093,33024
6094,33088
6095,33344
6096,33536
6097,33664
6098,33856
6099,33984
6100,33984
6101,33920
6102,33984
6103,34048
6104,33920
6105,33920
6106,33920
6107,33984
6108,33984
6109,33920
6110,33856
6111,33920
6112,33984
6113,34048
6114,34048
6115,34048
6116,33920
6117,33792
6118,33792
6119,33728
6120,33728
6121,33600
6122,33536
6123,33536
6124,33472
6125,33472
6126,33536
6127,33664
6128,33856
6129,33984
6130,34112
6131,34240
6132,34240
6133,34304
6134,34496
6135,34560
6136,34432
6137,34240
6138,34048
6139,33984
6140,34048
6141,34176
6142,34240
6143,34176
6144,34112
6145,34176
6146,34112
6147,33984
6148,33920
6149,33856
6150,33792
6151,33728
6152,33728
6153,33792
6154,33728
6155,33536
6156,33536
6157,33472
6158,33472
6159,33472
6160,33600
6161,33664
6162,33792
6163,33792
6164,33920
6165,34048
6166,34112
6167,34048
6168,33984
6169,34048
6170,34112
6171,34240
6172,34624
6173,35264
6174,36288
6175,37760
6176,39616
6177,41728
6178,43648
6179,44288
6180,43328
6181,40896
6182,38080
6183,33920
6184,31040
6185,28736
6186,27584
6187,27520
6188,28160
6189,29184
6190,30272
6191,31360
6192,32384
6193,33280
6194,34048
6195,34496
6196,34880
6197,34944
6198,34880
6199,34816
6200,34752
6201,34688
6202,34624
6203,34496
6204,34432
6205,34432
6206,34368
6207,34304
6208,34112
6209,34048
6210,34048
6211,34112
6212,34112
6213,34112
6214,34176
6215,34240
6216,34240
6217,34176
6218,34112
6219,34112
6220,34240
6221,34368
6222,34368
6223,34368
6224,34304
6225,34240
6226,34304
6227,34368
6228,34560
6229,34496
6230,34496
6231,34496
6232,34560
6233,34560
6234,34560
6235,34496
6236,34432
6237,34304
6238,34176
6239,34048
6240,34048
6241,33984
6242,33792
6243,33536
6244,33280
6245,33216
6246,33152
6247,33088
6248,33280
6249,33536
6250,33536
6251,33600
6252,33472
6253,33600
6254,33792
6255,33856
6256,33856
6257,33856
6258,33792
6259,33664
6260,33664
6261,33728
6262,33792
6263,33856
6264,33920
6265,33984
6266,34048
6267,34112
6268,34176
6269,34176
6270,34112
6271,34048
6272,34048
6273,33920
6274,33728
6275,33792
6276,33856
6277,33856
6278,33856
6279,33792
6280,33856
6281,33920
6282,33728
6283,33664
6284,33600
6285,33600
6286,33600
6287,33536
6288,33536
6289,33600
6290,33664
6291,33728
6292,33920
6293,33728
6294,33600
6295,33664
6296,33536
6297,33600
6298,34112
6299,34304
6300,34304
6301,34240
6302,34048
6303,34048
6304,33984
6305,34048
6306,34048
6307,34112
6308,34048
6309,33920
6310,33792
6311,33728
6312,33728
6313,33792
6314,33728
6315,33792
6316,33728
6317,33536
6318,33408
6319,33408
6320,33472
6321,33472
6322,33472
6323,33472
6324,33536
6325,33728
6326,33984
6327,34112
6328,34176
6329,34112
6330,33984
6331,34112
6332,34560
6333,35136
6334,35392
6335,35968
6336,36864
6337,38016
6338,39424
6339,41024
6340,41856
6341,41344
6342,39872
6343,37632
6344,34816
6345,31936
6346,29568
6347,28352
6348,28480
6349,29248
6350,30272
6351,31168
6352,31744
6353,32320
6354,32832
6355,33344
6356,33664
6357,34048
6358,34368
6359,34624
6360,34816
6361,34816
6362,34752
6363,34624
6364,34496
6365,34496
6366,34496
6367,34432
6368,34240
6369,34048
6370,33984
6371,33984
6372,34048
6373,34112
6374,34240
6375,34368
6376,34496
6377,34560
6378,34688
6379,34624
6380,34496
6381,34496
6382,34496
6383,34496
6384,34560
6385,34624
6386,34688
6387,34752
6388,34752
6389,34688
6390,34816
6391,34880
6392,34880
6393,34688
6394,34624
6395,34624
6396,34624
6397,34624
6398,34624
6399,34496
6400,34432
6401,34368
6402,34240
6403,34112
6404,33984
6405,33920
6406,33856
6407,33856
6408,33792
6409,33728
6410,33664
6411,33664
6412,33664
6413,33664
6414,33600
6415,33664
6416,33664
6417,33728
6418,33728
6419,33728
6420,33728
6421,33728
6422,33728
6423,33600
6424,33536
6425,33472
6426,33600
6427,33664
6428,33728
6429,33856
6430,33856
6431,33856
6432,33856
6433,33920
6434,33984
6435,33984
6436,33984
6437,33920
6438,33856
6439,33856
6440,33856
6441,33728
6442,33664
6443,33664
6444,33728
6445,33728
6446,33728
6447,33792
6448,33920
6449,33920
6450,33792
6451,33792
6452,33792
6453,33792
6454,33792
6455,33728
6456,33792
6457,33984
6458,34176
6459,34176
6460,34240
6461,34240
6462,34304
6463,34240
6464,34176
6465,34176
6466,34176
6467,34048
6468,34048
6469,34048
6470,34048
6471,33984
6472,33920
6473,33920
6474,33856
6475,33728
6476,33728
6477,33728
6478,33728
6479,33792
6480,33856
6481,33728
6482,33600
6483,33472
6484,33408
6485,33472
6486,33472
6487,33536
6488,33600
6489,33600
6490,33600
6491,33664
6492,33664
6493,33792
6494,34048
6495,34432
6496,35008
6497,35712
6498,37440
6499,38528
6500,40512
6501,42560
6502,43712
6503,43392
6504,41792
6505,39168
6506,35904
6507,32576
6508,29888
6509,28224
6510,27520
6511,27968
6512,28864
6513,30400
6514,31104
6515,32064
6516,33024
6517,33728
6518,34304
6519,34688
6520,34880
6521,34880
6522,34816
6523,34816
6524,34752
6525,34688
6526,34560
6527,34304
6528,34176
6529,34112
6530,34048
6531,33984
6532,33920
6533,34048
6534,34176
6535,34368
6536,34432
6537,34304
6538,34176
6539,34176
6540,34240
6541,34304
6542,34304
6543,34368
6544,34368
6545,34304
6546,34240
6547,34112
6548,34176
6549,34304
6550,34368
6551,34304
6552,34240
6553,34176
6554,34112
6555,34112
6556,34112
6557,34112
6558,34112
6559,34112
6560,34112
6561,34112
6562,34176
6563,34176
6564,34176
6565,34176
6566,34176
6567,34176
6568,34112
6569,34048
6570,34048
6571,34048
6572,34048
6573,34048
6574,33856
6575,33664
6576,33600
6577,33664
6578,33664
6579,33600
6580,33600
6581,33728
6582,33792
6583,33792
6584,33728
6585,33728
6586,33792
6587,33920
6588,33920
6589,33856
6590,33856
6591,33920
6592,33920
6593,33856
6594,33920
6595,33984
6596,34112
6597,34048
6598,34048
6599,33984
6600,33920
6601,34048
6602,34112
6603,34048
6604,33920
6605,33792
6606,33728
6607,33792
6608,33792
6609,33792
6610,33856
6611,33920
6612,34048
6613,34112
6614,34176
6615,34240
6616,34368
6617,34432
6618,34304
6619,34304
6620,34304
6621,34368
6622,34432
6623,34432
6624,34368
6625,34240
6626,34048
6627,33984
6628,34112
6629,34176
6630,33920
6631,33664
6632,33408
6633,33408
6634,33408
6635,33408
6636,33408
6637,33472
6638,33536
6639,33600
6640,33664
6641,33728
6642,33856
6643,33856
6644,33920
6645,34048
6646,34112
6647,33984
6648,33856
6649,33856
6650,33856
6651,33920
6652,34240
6653,34752
6654,35648
6655,36800
6656,38336
6657,40192
6658,42240
6659,43584
6660,43520
6661,41920
6662,39488
6663,35136
6664,32896
6665,30144
6666,28416
6667,27648
6668,27840
6669,28736
6670,29888
6671,31104
6672,32128
6673,33088
6674,33856
6675,34432
6676,34752
6677,34816
6678,35008
6679,35008
6680,35008
6681,34816
6682,34624
6683,34432
6684,34304
6685,34112
6686,34112
6687,34112
6688,34048
6689,33984
6690,33920
6691,33984
6692,34048
6693,34048
6694,34112
6695,34240
6696,34304
6697,34432
6698,34496
6699,34496
6700,34432
6701,34496
6702,34496
6703,34496
6704,34432
6705,34432
6706,34368
6707,34304
6708,34432
6709,34368
6710,34304
6711,34304
6712,34304
6713,34304
6714,34176
6715,34112
6716,34112
6717,34176
6718,34240
6719,34240
6720,34240
6721,34240
6722,34176
6723,34112
6724,34048
6725,34048
6726,33984
6727,33920
6728,33792
6729,33728
6730,33792
6731,33920
6732,33920
6733,33856
6734,33728
6735,33536
6736,33472
6737,33472
6738,33600
6739,33600
6740,33664
6741,33728
6742,33792
6743,33856
6744,33920
6745,34048
6746,34112
6747,34112
6748,34048
6749,33920
6750,33856
6751,33856
6752,33792
6753,33856
6754,33856
6755,33856
6756,33984
6757,34048
6758,34048
6759,33984
6760,33856
6761,33792
6762,33792
6763,33856
6764,33856
6765,33856
6766,33984
6767,33984
6768,34112
6769,34176
6770,34240
6771,34240
6772,34176
6773,34112
6774,34112
6775,34240
6776,34304
6777,34240
6778,34176
6779,34176
6780,34240
6781,34176
6782,34176
6783,34368
6784,34304
6785,34176
6786,33984
6787,33792
6788,33728
6789,33664
6790,33600
6791,33600
6792,33536
6793,33472
6794,33408
6795,33472
6796,33536
6797,33664
6798,33664
6799,33664
6800,33664
6801,33664
6802,33664
6803,33792
6804,33856
6805,33856
6806,33856
6807,33856
6808,33920
6809,34112
6810,34432
6811,35008
6812,35840
6813,37120
6814,38912
6815,40768
6816,42752
6817,43968
6818,43648
6819,41920
6820,39104
6821,35712
6822,32320
6823,29696
6824,28032
6825,27456
6826,27840
6827,28864
6828,29952
6829,31168
6830,32192
6831,33088
6832,33728
6833,34240
6834,34560
6835,34752
6836,34880
6837,35008
6838,34944
6839,34816
6840,34688
6841,34560
6842,34368
6843,34176
6844,34048
6845,33984
6846,34048
6847,34048
6848,34176
6849,34176
6850,34176
6851,34112
6852,34048
6853,34048
6854,34176
6855,34240
6856,34240
6857,34304
6858,34304
6859,34368
6860,34432
6861,34432
6862,34496
6863,34560
6864,34496
6865,34432
6866,34368
6867,34432
6868,34368
6869,34304
6870,34240
6871,34240
6872,34176
6873,34176
6874,34240
6875,34304
6876,34304
6877,34240
6878,34176
6879,34112
6880,34048
6881,33984
6882,33920
6883,33856
6884,33920
6885,33792
6886,33728
6887,33664
6888,33664
6889,33728
6890,33664
6891,33600
6892,33600
6893,33664
6894,33664
6895,33600
6896,33664
6897,33664
6898,33664
6899,33728
6900,33792
6901,33792
6902,33792
6903,33792
6904,33792
6905,33856
6906,33920
6907,33920
6908,33920
6909,33856
6910,33856
6911,33920
6912,34048
6913,34048
6914,33920
6915,33792
6916,33856
6917,33920
6918,33792
6919,33728
6920,33728
6921,33728
6922,33792
6923,33792
6924,33792
6925,33856
6926,33920
6927,33984
6928,33984
6929,33984
6930,33984
6931,33920
6932,33920
6933,33984
6934,33920
6935,33856
6936,33728
6937,33664
6938,33664
6939,33600
6940,33600
6941,33664
6942,33792
6943,33792
6944,33856
6945,33856
6946,33920
6947,34048
6948,34112
6949,34112
6950,34176
6951,34304
6952,34304
6953,34304
6954,34304
6955,34304
6956,34368
6957,34304
6958,34304
6959,34304
6960,34304
6961,34240
6962,34304
6963,34240
6964,34048
6965,33920
6966,33792
6967,33728
6968,33728
6969,33664
6970,33664
6971,33728
6972,33792
6973,33728
6974,33536
6975,33472
6976,33536
6977,33536
6978,33600
6979,33600
6980,33664
6981,33728
6982,33792
6983,33856
6984,33984
6985,33984
6986,34048
6987,34048
6988,34112
6989,34368
6990,34816
6991,35456
6992,36416
6993,37824
6994,39680
6995,41728
6996,43584
6997,44224
6998,43200
6999,40832
7000,37632
7001,34112
7002,30848
7003,28608
7004,27520
7005,27520
7006,28352
7007,29440
7008,30592
7009,31616
7010,32576
7011,33408
7012,33984
7013,34368
7014,34816
7015,34816
7016,34816
7017,34816
7018,34688
7019,34496
7020,34368
7021,34304
7022,34176
7023,34112
7024,34176
7025,34176
7026,34112
7027,34048
7028,34112
7029,34112
7030,34048
7031,33984
7032,33984
7033,34048
7034,34176
7035,34240
7036,34240
7037,34304
7038,34368
7039,34432
7040,34432
7041,34496
7042,34496
7043,34432
7044,34368
7045,34304
7046,34304
7047,34368
7048,34368
7049,34304
7050,34368
7051,34304
7052,34240
7053,34112
7054,34112
7055,34112
7056,34112
7057,34176
7058,34240
7059,34176
7060,34176
7061,34176
7062,34112
7063,34048
7064,33984
7065,33856
7066,33792
7067,33664
7068,33600
7069,33600
7070,33728
7071,33856
7072,33792
7073,33664
7074,33600
7075,33664
7076,33664
7077,33664
7078,33728
7079,33792
7080,33792
7081,33728
7082,33728
7083,33856
7084,33920
7085,34048
7086,34112
7087,34048
7088,33920
7089,33792
7090,33792
7091,33792
7092,33856
7093,33856
7094,33856
7095,33792
7096,33728
7097,33728
7098,33728
7099,33792
7100,33920
7101,33920
7102,33920
7103,33856
7104,33856
7105,33792
7106,33792
7107,33792
7108,33856
7109,33856
7110,33920
7111,33984
7112,34048
7113,33984
7114,33920
7115,33984
7116,33984
7117,33856
7118,33728
7119,33664
7120,33664
7121,33728
7122,33728
7123,33728
7124,33856
7125,33984
7126,33984
7127,33920
7128,33920
7129,33856
7130,33920
7131,33920
7132,33984
7133,34048
7134,33984
7135,33856
7136,33792
7137,33856
7138,33984
7139,33984
7140,33920
7141,33920
7142,33856
7143,33856
7144,33920
7145,33984
7146,33984
7147,33984
7148,33984
7149,33920
7150,33920
7151,33920
7152,33920
7153,33984
7154,34176
7155,34240
7156,34368
7157,34432
7158,34560
7159,34688
7160,34560
7161,34432
7162,34368
7163,34304
7164,34176
7165,34112
7166,34048
7167,33920
7168,33856
7169,33856
7170,33856
7171,33920
7172,33920
7173,33920
7174,33920
7175,33920
7176,33920
7177,33856
7178,33792
7179,33728
7180,33728
7181,33728
7182,33792
7183,33856
7184,33984
7185,34112
7186,34176
7187,34176
7188,34112
7189,33984
7190,33856
7191,33792
7192,33728
7193,33728
7194,33920
7195,34368
7196,35008
7197,35904
7198,37248
7199,39040
7200,41280
7201,43328
7202,44544
7203,44032
7204,42240
7205,39232
7206,35648
7207,32128
7208,29504
7209,27968
7210,27456
7211,27840
7212,28864
7213,30144
7214,31360
7215,32448
7216,33344
7217,34048
7218,34432
7219,34688
7220,34752
7221,34752
7222,34688
7223,34624
7224,34624
7225,34560
7226,34496
7227,34368
7228,34304
7229,34240
7230,34240
7231,34176
7232,34240
7233,34240
7234,34240
7235,34176
7236,34176
7237,34112
7238,34112
7239,34112
7240,34112
7241,34176
7242,34304
7243,34368
7244,34368
7245,34432
7246,34432
7247,34368
7248,34368
7249,34368
7250,34368
7251,34368
7252,34304
7253,34240
7254,34304
7255,34368
7256,34432
7257,34368
7258,34304
7259,34176
7260,34112
7261,34048
7262,34048
7263,34112
7264,34112
7265,34112
7266,34112
7267,34176
7268,34112
7269,34048
7270,34048
7271,34048
7272,34048
7273,34048
7274,33984
7275,33792
7276,33664
7277,33600
7278,33536
7279,33472
7280,33472
7281,33472
7282,33472
7283,33600
7284,33664
7285,33664
7286,33664
7287,33792
7288,33856
7289,33920
7290,33920
7291,33984
7292,33984
7293,33984
7294,33920
7295,33984
7296,33984
7297,33856
7298,33728
7299,33728
7300,33792
7301,33856
7302,33920
7303,33984
7304,34112
7305,34048
7306,33984
7307,33856
7308,33856
7309,33792
7310,33792
7311,33792
7312,33728
7313,33728
7314,33664
7315,33728
7316,33856
7317,33856
7318,33856
7319,33920
7320,33920
7321,33856
7322,33728
7323,33664
7324,33728
7325,33920
7326,33920
7327,33792
7328,33792
7329,33856
7330,33920
7331,33856
7332,33856
7333,33856
7334,33856
7335,33920
7336,33856
7337,33920
7338,33984
7339,33920
7340,33856
7341,33920
7342,33920
7343,33984
7344,33984
7345,33984
7346,33984
7347,34048
7348,34112
7349,34112
7350,34176
7351,34304
7352,34368
7353,34240
7354,34176
7355,34176
7356,34176
7357,34176
7358,34240
7359,34304
7360,34240
7361,34240
7362,34304
7363,34304
7364,34240
7365,34112
7366,33984
7367,34048
7368,34112
7369,34048
7370,33920
7371,33856
7372,33984
7373,34112
7374,34048
7375,33920
7376,33728
7377,33536
7378,33472
7379,33472
7380,33600
7381,33728
7382,33792
7383,33920
7384,34048
7385,34176
7386,34112
7387,33984
7388,33920
7389,33856
7390,33792
7391,33792
7392,34048
7393,34496
7394,35136
7395,36032
7396,37120
7397,38592
7398,40448
7399,42560
7400,44224
7401,44352
7402,42816
7403,40128
7404,36736
7405,33152
7406,30208
7407,28288
7408,27456
7409,27712
7410,28672
7411,29760
7412,30976
7413,32128
7414,33088
7415,33856
7416,34496
7417,34816
7418,34880
7419,34880
7420,34880
7421,34944
7422,34944
7423,34752
7424,34624
7425,34560
7426,34496
7427,34432
7428,34304
7429,34304
7430,34304
7431,34304
7432,34176
7433,34112
7434,34048
7435,34048
7436,34048
7437,34112
7438,34240
7439,34304
7440,34368
7441,34432
7442,34496
7443,34496
7444,34496
7445,34496
7446,34496
7447,34432
7448,34432
7449,34368
7450,34368
7451,34368
7452,34240
7453,34240
7454,34240
7455,34368
7456,34368
7457,34240
7458,34112
7459,34112
7460,34112
7461,34048
7462,34112
7463,34112
7464,34112
7465,34048
7466,34048
7467,33984
7468,33856
7469,33728
7470,33728
7471,33728
7472,33728
7473,33792
7474,33856
7475,33792
7476,33856
7477,33856
7478,33920
7479,33920
7480,33920
7481,33856
7482,33920
7483,33984
7484,33984
7485,33792
7486,33664
7487,33600
7488,33664
7489,33792
7490,33856
7491,33920
7492,33984
7493,34048
7494,34112
7495,34176
7496,34176
7497,34176
7498,34176
7499,34112
7500,34112
7501,34112
7502,34048
7503,34112
7504,34048
7505,33984
7506,33920
7507,33856
7508,33856
7509,33984
7510,33984
7511,34048
7512,34048
7513,34048
7514,33984
7515,33856
7516,33856
7517,33920
7518,33920
7519,33984
7520,34112
7521,34240
7522,34176
7523,33984
7524,33920
7525,33856
7526,33920
7527,33920
7528,33920
7529,33984
7530,34048
7531,34112
7532,34240
7533,34240
7534,34240
7535,34176
7536,33984
7537,33984
7538,34048
7539,33920
7540,33856
7541,33856
7542,33920
7543,33920
7544,33984
7545,33984
7546,34112
7547,34240
7548,34368
7549,34432
7550,34560
7551,34496
7552,34496
7553,34496
7554,34432
7555,34368
7556,34368
7557,34368
7558,34432
7559,34496
7560,34496
7561,34368
7562,34176
7563,34048
7564,33984
7565,33920
7566,33984
7567,34048
7568,33984
7569,33792
7570,33664
7571,33664
7572,33728
7573,33728
7574,33792
7575,33856
7576,33856
7577,33920
7578,33920
7579,33920
7580,33984
7581,33984
7582,34048
7583,34048
7584,34048
7585,33984
7586,34048
7587,34304
7588,34752
7589,35584
7590,36800
7591,38464
7592,40512
7593,42688
7594,44352
7595,44672
7596,43456
7597,40896
7598,37568
7599,33920
7600,30720
7601,28608
7602,27584
7603,27648
7604,28416
7605,29440
7606,30592
7607,31616
7608,32640
7609,33472
7610,34048
7611,34432
7612,34688
7613,34816
7614,34944
7615,34944
7616,34816
7617,34624
7618,34496
7619,34432
7620,34368
7621,34240
7622,34112
7623,33984
7624,34048
7625,34112
7626,34176
7627,34176
7628,34112
7629,34176
7630,34176
7631,34240
7632,34368
7633,34432
7634,34496
7635,34432
7636,34304
7637,34112
7638,34048
7639,34112
7640,34176
7641,34240
7642,34304
7643,34368
7644,34304
7645,34240
7646,34240
7647,34240
7648,34240
7649,34176
7650,34112
7651,34112
7652,34048
7653,34048
7654,33984
7655,33984
7656,33984
7657,34048
7658,33984
7659,33984
7660,33984
7661,33984
7662,33984
7663,33984
7664,33792
7665,33600
7666,33536
7667,33472
7668,33536
7669,33600
7670,33600
7671,33664
7672,33728
7673,33728
7674,33728
7675,33792
7676,33856
7677,33856
7678,33728
7679,33664
7680,33600
7681,33664
7682,33728
7683,33792
7684,33792
7685,33856
7686,33792
7687,33728
7688,33792
7689,33984
7690,33984
7691,33920
7692,33984
7693,33984
7694,34048
7695,34048
7696,33984
7697,33984
7698,34048
7699,34048
7700,33920
7701,33856
7702,33792
7703,33792
7704,33856
7705,33856
7706,33856
7707,33920
7708,33920
7709,33856
7710,33792
7711,33728
7712,33728
7713,33792
7714,33792
7715,33856
7716,33856
7717,33856
7718,33856
7719,33920
7720,33920
7721,33920
7722,33984
7723,33984
7724,33920
7725,33920
7726,33920
7727,33856
7728,33792
7729,33728
7730,33792
7731,33920
7732,33984
7733,33984
7734,33984
7735,33984
7736,33856
7737,33792
7738,33792
7739,33856
7740,33920
7741,34048
7742,34048
7743,34048
7744,33984
7745,33984
7746,33984
7747,33984
7748,33920
7749,33920
7750,33920
7751,33920
7752,33984
7753,34048
7754,34048
7755,34048
7756,34112
7757,34112
7758,34048
7759,33984
7760,33856
7761,33792
7762,33856
7763,33984
7764,34048
7765,34048
7766,34048
7767,34048
7768,34112
7769,34176
7770,34176
7771,34176
7772,34304
7773,34496
7774,34496
7775,34432
7776,34368
7777,34368
7778,34368
7779,34304
7780,34304
7781,34304
7782,34304
7783,34368
7784,34304
7785,34176
7786,34048
7787,33920
7788,33920
7789,33920
7790,33984
7791,34048
7792,34048
7793,34048
7794,34048
7795,33856
7796,33728
7797,33664
7798,33728
7799,33792
7800,33856
7801,33984
7802,34048
7803,34112
7804,34176
7805,34176
7806,34112
7807,33984
7808,33856
7809,33792
7810,33920
7811,34176
7812,34624
7813,35328
7814,36416
7815,38080
7816,40320
7817,42176
7818,44288
7819,45056
7820,43904
7821,41280
7822,37952
7823,34304
7824,31104
7825,28928
7826,27904
7827,27968
7828,28672
7829,29568
7830,30528
7831,31616
7832,32384
7833,33152
7834,33792
7835,34304
7836,34624
7837,34816
7838,34880
7839,34880
7840,34816
7841,34624
7842,34496
7843,34432
7844,34368
7845,34368
7846,34240
7847,34240
7848,34240
7849,34176
7850,34176
7851,34176
7852,34176
7853,34176
7854,34240
7855,34368
7856,34432
7857,34240
7858,34176
7859,34240
7860,34304
7861,34304
7862,34240
7863,34240
7864,34304
7865,34368
7866,34368
7867,34304
7868,34368
7869,34368
7870,34304
7871,34240
7872,34240
7873,34304
7874,34304
7875,34240
7876,34176
7877,34176
7878,34112
7879,34048
7880,34048
7881,33984
7882,33920
7883,33856
7884,33856
7885,33920
7886,33984
7887,33984
7888,33920
7889,33920
7890,33856
7891,33792
7892,33792
7893,33792
7894,33792
7895,33728
7896,33728
7897,33792
7898,33856
7899,33920
7900,33984
7901,33920
7902,33728
7903,33664
7904,33600
7905,33600
7906,33664
7907,33728
7908,33792
7909,33856
7910,33920
7911,33920
7912,34048
7913,34048
7914,34048
7915,33984
7916,33984
7917,33984
7918,34048
7919,34048
7920,34112
7921,34112
7922,34112
7923,34112
7924,33984
7925,33856
7926,33792
7927,33856
7928,33920
7929,33920
7930,33920
7931,33792
7932,33792
7933,33792
7934,33856
7935,33920
7936,33920
7937,33920
7938,33856
7939,33920
7940,33920
7941,33984
7942,34112
7943,34176
7944,34048
7945,33984
7946,33920
7947,33920
7948,33984
7949,34048
7950,33920
7951,33792
7952,33856
7953,33856
7954,33792
7955,33792
7956,33856
7957,33856
7958,33920
7959,33920
7960,33984
7961,34048
7962,34048
7963,34176
7964,34240
7965,34112
7966,34048
7967,33984
7968,34112
7969,34240
7970,34176
7971,33920
7972,33856
7973,33920
7974,34112
7975,34304
7976,34240
7977,34048
7978,33984
7979,33984
7980,34048
7981,34048
7982,33920
7983,33792
7984,33728
7985,33792
7986,33920
7987,34048
7988,34048
7989,33984
7990,33984
7991,33984
7992,34048
7993,34112
7994,34176
7995,34240
7996,34240
7997,34176
7998,34176
7999,34240
8000,34240
8001,34240
8002,34304
8003,34368
8004,34496
8005,34560
8006,34624
8007,34496
8008,34368
8009,34368
8010,34304
8011,34304
8012,34240
8013,34240
8014,34368
8015,34432
8016,34368
8017,34240
8018,34176
8019,34176
8020,34176
8021,34176
8022,34240
8023,34304
8024,34240
8025,34112
8026,33920
8027,33920
8028,33856
8029,33856
8030,33792
8031,33792
8032,33792
8033,33728
8034,33792
8035,33856
8036,33920
8037,33984
8038,34048
8039,34176
8040,34240
8041,34240
8042,34176
8043,34368
8044,34752
8045,35456
8046,36480
8047,37952
8048,39744
8049,41728
8050,43776
8051,44800
8052,44288
8053,42112
8054,38912
8055,35328
8056,31936
8057,29312
8058,27840
8059,27456
8060,28032
8061,29056
8062,30208
8063,31360
8064,32384
8065,33216
8066,33920
8067,34368
8068,34624
8069,34816
8070,34880
8071,34816
8072,34816
8073,34880
8074,34752
8075,34560
8076,34496
8077,34432
8078,34368
8079,34176
8080,34112
8081,34048
8082,34112
8083,34048
8084,34112
8085,34176
8086,34176
8087,34176
8088,34240
8089,34240
8090,34240
8091,34304
8092,34368
8093,34432
8094,34560
8095,34496
8096,34304
8097,34240
8098,34304
8099,34304
8100,34240
8101,34176
8102,34112
8103,34112
8104,34112
8105,34048
8106,34048
8107,34048
8108,34048
8109,34048
8110,34048
8111,33984
8112,33984
8113,34048
8114,34048
8115,34048
8116,34048
8117,34048
8118,34112
8119,34048
8120,33984
8121,33856
8122,33792
8123,33664
8124,33664
8125,33728
8126,33728
8127,33728
8128,33664
8129,33536
8130,33600
8131,33664
8132,33728
8133,33792
8134,33856
8135,33984
8136,33984
8137,33920
8138,33984
8139,34112
8140,34112
8141,33984
8142,33856
8143,33856
8144,33920
8145,33984
8146,33984
8147,34048
8148,34112
8149,34112
8150,33984
8151,33984
8152,34112
8153,34048
8154,33920
8155,33856
8156,33920
8157,33920
8158,33920
8159,33984
8160,34048
8161,34048
8162,34048
8163,33984
8164,33984
8165,34048
8166,34112
8167,34048
8168,33856
8169,33792
8170,33792
8171,33792
8172,33728
8173,33728
8174,33792
8175,33856
8176,33856
8177,33920
8178,33984
8179,33984
8180,33984
8181,34048
8182,34048
8183,34048
8184,34048
8185,34048
8186,34176
8187,34112
8188,34048
8189,34112
8190,34112
8191,33984
8192,33856
8193,33792
8194,33792
8195,33792
8196,33856
8197,33920
8198,34048
8199,33984
8200,33920
8201,33856
8202,33920
8203,33984
8204,33984
8205,33984
8206,34048
8207,34240
8208,34368
8209,34432
8210,34432
8211,34432
8212,34368
8213,34432
8214,34496
8215,34496
8216,34496
8217,34368
8218,34240
8219,34176
8220,34048
8221,33984
8222,33920
8223,33984
8224,33920
8225,33920
8226,33920
8227,33984
8228,34112
8229,34048
8230,33920
8231,33856
8232,33792
8233,33792
8234,33728
8235,33856
8236,33984
8237,33984
8238,34048
8239,33984
8240,33792
8241,33728
8242,33664
8243,33728
8244,33856
8245,33920
8246,34048
8247,34240
8248,34688
8249,35392
8250,36352
8251,37888
8252,39616
8253,42304
8254,43776
8255,44864
8256,44224
8257,41984
8258,38912
8259,35264
8260,31872
8261,29376
8262,27904
8263,27520
8264,27904
8265,28864
8266,30016
8267,31168
8268,32192
8269,33088
8270,33792
8271,34240
8272,34560
8273,34752
8274,34880
8275,34944
8276,34944
8277,34816
8278,34624
8279,34432
8280,34240
8281,34176
8282,34240
8283,34176
8284,34048
8285,33984
8286,34048
8287,34048
8288,34048
8289,34112
8290,34176
8291,34176
8292,34112
8293,34048
8294,34112
8295,34176
8296,34240
8297,34368
8298,34496
8299,34560
8300,34496
8301,34432
8302,34432
8303,34368
8304,34304
8305,34240
8306,34240
8307,34240
8308,34176
8309,34048
8310,33984
8311,33984
8312,33984
8313,33920
8314,33856
8315,33920
8316,33920
8317,33920
8318,33984
8319,33984
8320,33920
8321,33920
8322,33856
8323,33856
8324,33856
8325,33792
8326,33664
8327,33664
8328,33664
8329,33536
8330,33472
8331,33472
8332,33472
8333,33472
8334,33536
8335,33600
8336,33600
8337,33664
8338,33664
8339,33728
8340,33792
8341,33792
8342,33856
8343,33856
8344,33792
8345,33792
8346,33792
8347,33856
8348,33920
8349,33984
8350,33920
8351,33856
8352,33856
8353,33920
8354,33920
8355,33856
8356,33920
8357,33920
8358,33792
8359,33728
8360,33728
8361,33792
8362,33792
8363,33856
8364,33856
8365,33856
8366,33856
8367,33920
8368,33984
8369,34048
8370,33920
8371,33728
8372,33664
8373,33728
8374,33728
8375,33664
8376,33664
8377,33728
8378,33792
8379,33792
8380,33792
8381,33792
8382,33856
8383,33856
8384,33856
8385,33856
8386,33920
8387,33920
8388,33920
8389,33920
8390,33984
8391,33984
8392,33920
8393,33856
8394,33920
8395,34048
8396,34048
8397,33984
8398,34048
8399,33984
8400,33792
8401,33664
8402,33728
8403,33856
8404,33856
8405,33792
8406,33856
8407,33856
8408,33856
8409,33856
8410,33856
8411,33920
8412,33984
8413,34048
8414,34112
8415,34112
8416,34048
8417,34112
8418,34240
8419,34432
8420,34560
8421,34496
8422,34432
8423,34432
8424,34432
8425,34304
8426,34176
8427,34176
8428,34048
8429,34048
8430,33984
8431,33984
8432,33920
8433,33920
8434,33856
8435,33792
8436,33856
8437,33984
8438,34048
8439,34048
8440,33984
8441,33856
8442,33728
8443,33664
8444,33728
8445,33856
8446,33856
8447,33856
8448,33920
8449,33984
8450,33984
8451,34048
8452,33984
8453,34048
8454,34048
8455,33920
8456,33920
8457,34112
8458,34560
8459,35328
8460,36480
8461,38144
8462,40128
8463,43136
8464,44288
8465,44800
8466,43648
8467,41088
8468,37760
8469,34112
8470,30976
8471,28800
8472,27712
8473,27712
8474,28416
8475,29504
8476,30528
8477,31616
8478,32640
8479,33472
8480,34112
8481,34496
8482,34624
8483,34688
8484,34688
8485,34752
8486,34752
8487,34624
8488,34432
8489,34304
8490,34304
8491,34304
8492,34304
8493,34240
8494,34240
8495,34304
8496,34240
8497,34112
8498,34112
8499,34112
8500,34048
8501,34112
8502,34240
8503,34304
8504,34176
8505,34112
8506,34112
8507,34176
8508,34240
8509,34240
8510,34304
8511,34304
8512,34304
8513,34304
8514,34304
8515,34432
8516,34432
8517,34432
8518,34432
8519,34304
8520,34176
8521,34048
8522,33984
8523,33984
8524,34048
8525,34112
8526,34112
8527,34048
8528,34048
8529,33984
8530,33984
8531,33920
8532,33984
8533,33984
8534,33856
8535,33664
8536,33600
8537,33536
8538,33536
8539,33536
8540,33472
8541,33472
8542,33536
8543,33600
8544,33664
8545,33728
8546,33728
8547,33728
8548,33792
8549,33920
8550,33984
8551,34112
8552,34176
8553,34112
8554,33984
8555,33856
8556,33728
8557,33728
8558,33792
8559,33792
8560,33856
8561,33920
8562,33984
8563,34048
8564,34048
8565,34048
8566,33984
8567,33984
8568,33920
8569,33920
8570,33920
8571,33920
8572,33920
8573,33984
8574,34048
8575,34112
8576,34112
8577,34048
8578,33920
8579,33856
8580,33792
8581,33792
8582,33792
8583,33792
8584,33728
8585,33792
8586,33792
8587,33856
8588,33856
8589,33920
8590,34048
8591,34112
8592,34112
8593,34112
8594,34112
8595,33920
8596,33792
8597,33728
8598,33792
8599,33856
8600,33984
8601,34048
8602,33984
8603,33984
8604,33920
8605,33920
8606,33920
8607,33984
8608,34048
8609,33984
8610,33856
8611,33856
8612,33920
8613,33984
8614,33984
8615,34048
8616,34048
8617,34112
8618,34112
8619,34176
8620,34240
8621,34240
8622,34240
8623,34240
8624,34240
8625,34176
8626,34240
8627,34304
8628,34368
8629,34304
8630,34240
8631,34304
8632,34304
8633,34304
8634,34240
8635,34176
8636,34112
8637,34048
8638,33920
8639,33920
8640,33920
8641,33984
8642,34048
8643,34048
8644,33920
8645,33792
8646,33728
8647,33600
8648,33600
8649,33600
8650,33664
8651,33792
8652,33920
8653,33984
8654,34048
8655,34112
8656,34112
8657,34048
8658,34112
8659,34112
8660,34176
8661,34304
8662,34816
8663,35840
8664,37312
8665,39168
8666,41216
8667,43328
8668,44672
8669,44352
8670,42496
8671,39488
8672,36224
8673,31360
8674,29824
8675,28224
8676,27456
8677,27776
8678,28608
8679,29760
8680,30912
8681,32064
8682,32960
8683,33664
8684,34176
8685,34496
8686,34752
8687,34880
8688,34944
8689,34944
8690,34944
8691,34880
8692,34688
8693,34496
8694,34240
8695,34048
8696,33984
8697,33984
8698,34048
8699,34112
8700,34176
8701,34304
8702,34240
8703,34240
8704,34176
8705,34176
8706,34112
8707,34176
8708,34176
8709,34304
8710,34432
8711,34496
8712,34496
8713,34496
8714,34432
8715,34432
8716,34496
8717,34368
8718,34176
8719,34112
8720,34048
8721,34112
8722,34048
8723,33984
8724,33984
8725,33984
8726,33984
8727,33920
8728,33920
8729,33920
8730,33920
8731,33920
8732,33984
8733,34048
8734,34048
8735,34048
8736,34048
8737,34048
8738,34048
8739,33984
8740,33920
8741,33792
8742,33664
8743,33536
8744,33536
8745,33600
8746,33728
8747,33792
8748,33728
8749,33664
8750,33600
8751,33600
8752,33600
8753,33728
8754,33792
8755,33792
8756,33856
8757,33920
8758,33984
8759,34048
8760,34112
8761,34176
8762,34240
8763,34176
8764,34112
8765,34048
8766,33984
8767,33984
8768,33856
8769,33792
8770,33792
8771,33728
8772,33792
8773,33856
8774,33856
8775,33856
8776,33792
8777,33792
8778,33856
8779,33920
8780,33920
8781,33984
8782,33984
8783,34048
8784,34048
8785,33920
8786,33792
8787,33792
8788,33856
8789,33920
8790,33856
8791,33856
8792,33856
8793,33920
8794,34112
8795,34112
8796,33984
8797,33856
8798,33856
8799,33856
8800,33856
8801,33856
8802,33856
8803,33920
8804,33920
8805,33920
8806,33920
8807,33856
8808,33920
8809,33920
8810,33920
8811,33856
8812,33920
8813,33984
8814,33984
8815,33984
8816,34048
8817,34048
8818,34112
8819,34112
8820,34048
8821,33984
8822,33984
8823,34048
8824,34176
8825,34240
8826,34240
8827,34304
8828,34368
8829,34432
8830,34368
8831,34304
8832,34304
8833,34304
8834,34176
8835,34112
8836,34112
8837,34112
8838,34048
8839,34048
8840,33984
8841,34048
8842,34048
8843,34048
8844,33920
8845,33856
8846,33728
8847,33664
8848,33600
8849,33664
8850,33792
8851,33856
8852,33856
8853,33856
8854,33856
8855,34048
8856,33984
8857,33920
8858,33856
8859,33728
8860,33728
8861,33984
8862,34368
8863,34880
8864,35712
8865,37056
8866,38848
8867,40960
8868,43072
8869,43264
8870,44544
8871,42752
8872,39872
8873,36352
8874,32832
8875,29952
8876,28224
8877,27520
8878,27840
8879,28672
8880,29760
8881,30848
8882,31936
8883,32832
8884,33536
8885,34048
8886,34432
8887,34688
8888,34880
8889,34880
8890,34816
8891,34752
8892,34560
8893,34432
8894,34304
8895,34304
8896,34240
8897,34176
8898,34112
8899,34112
8900,34240
8901,34112
8902,34048
8903,33984
8904,34048
8905,34048
8906,33984
8907,33984
8908,34048
8909,34176
8910,34240
8911,34368
8912,34368
8913,34368
8914,34368
8915,34368
8916,34368
8917,34368
8918,34368
8919,34368
8920,34368
8921,34304
8922,34240
8923,34176
8924,34112
8925,34112
8926,34048
8927,33984
8928,34048
8929,34048
8930,33984
8931,33856
8932,33856
8933,33984
8934,33984
8935,33920
8936,33856
8937,33856
8938,33856
8939,33728
8940,33600
8941,33600
8942,33600
8943,33600
8944,33600
8945,33600
8946,33600
8947,33664
8948,33664
8949,33664
8950,33600
8951,33536
8952,33536
8953,33664
8954,33728
8955,33728
8956,33792
8957,33856
8958,33920
8959,33920
8960,33984
8961,33984
8962,34048
8963,33984
8964,33920
8965,33856
8966,33856
8967,33856
8968,33856
8969,33856
8970,33920
8971,33984
8972,34048
8973,34048
8974,34048
8975,34048
8976,33920
8977,33792
8978,33728
8979,33664
8980,33600
8981,33600
8982,33728
8983,33792
8984,33792
8985,33792
8986,33792
8987,33920
8988,33984
8989,33984
8990,33920
8991,33920
8992,33920
8993,33984
8994,34048
8995,33984
8996,33984
8997,33920
8998,34048
8999,34048
9000,33984
9001,33920
9002,33856
9003,33856
9004,33856
9005,33856
9006,33920
9007,33856
9008,33792
9009,33792
9010,33856
9011,33856
9012,33984
9013,34048
9014,34048
9015,34048
9016,34112
9017,34176
9018,34176
9019,34112
9020,34048
9021,34048
9022,34048
9023,33920
9024,33856
9025,33856
9026,33920
9027,33920
9028,34048
9029,34112
9030,34176
9031,34112
9032,34048
9033,33984
9034,34048
9035,34112
9036,34240
9037,34176
9038,34048
9039,33920
9040,33856
9041,33856
9042,33920
9043,33984
9044,34112
9045,34176
9046,34368
9047,34432
9048,34368
9049,34432
9050,34496
9051,34432
9052,34368
9053,34368
9054,34368
9055,34368
9056,34304
9057,34368
9058,34304
9059,34368
9060,34368
9061,34240
9062,34112
9063,33920
9064,33792
9065,33856
9066,33856
9067,33856
9068,33856
9069,33856
9070,33920
9071,33920
9072,33984
9073,33984
9074,33920
9075,33920
9076,33856
9077,33920
9078,33984
9079,34048
9080,34112
9081,34176
9082,34240
9083,34240
9084,34048
9085,34048
9086,34368
9087,34944
9088,35904
9089,37376
9090,39104
9091,41216
9092,43328
9093,44544
9094,44224
9095,42496
9096,39744
9097,36352
9098,32896
9099,30080
9100,28352
9101,27712
9102,27904
9103,28672
9104,29760
9105,30848
9106,31936
9107,32960
9108,33792
9109,34304
9110,34496
9111,34624
9112,34752
9113,34816
9114,34752
9115,34688
9116,34688
9117,34624
9118,34496
9119,34304
9120,34240
9121,34240
9122,34176
9123,34112
9124,34112
9125,34176
9126,34304
9127,34304
9128,34176
9129,34112
9130,34112
9131,34112
9132,34176
9133,34176
9134,34176
9135,34176
9136,34240
9137,34368
9138,34432
9139,34368
9140,34240
9141,34240
9142,34240
9143,34240
9144,34176
9145,34176
9146,34176
9147,34176
9148,34176
9149,34240
9150,34240
9151,34176
9152,34048
9153,34048
9154,34112
9155,34112
9156,34048
9157,34048
9158,33920
9159,33856
9160,33728
9161,33728
9162,33728
9163,33728
9164,33728
9165,33728
9166,33728
9167,33664
9168,33728
9169,33728
9170,33792
9171,33856
9172,33856
9173,33856
9174,33920
9175,33984
9176,33984
9177,33856
9178,33792
9179,33792
9180,33792
9181,33728
9182,33792
9183,33920
9184,33920
9185,33856
9186,33792
9187,33856
9188,33920
9189,33984
9190,34048
9191,34048
9192,34048
9193,34048
9194,34048
9195,33984
9196,33984
9197,34048
9198,34048
9199,34048
9200,34112
9201,34048
9202,33984
9203,33920
9204,33920
9205,33856
9206,33920
9207,33856
9208,33920
9209,33920
9210,33920
9211,33856
9212,33856
9213,33856
9214,33920
9215,33920
9216,33920
9217,33984
9218,33920
9219,33920
9220,33984
9221,34112
9222,34112
9223,33984
9224,33856
9225,33920
9226,33984
9227,33984
9228,33984
9229,34048
9230,34048
9231,33984
9232,34048
9233,34112
9234,34048
9235,33984
9236,33920
9237,33984
9238,34048
9239,34048
9240,34048
9241,33984
9242,33920
9243,33920
9244,33920
9245,33984
9246,33984
9247,34048
9248,34048
9249,34112
9250,34112
9251,34048
9252,33984
9253,34048
9254,34240
9255,34496
9256,34496
9257,34432
9258,34368
9259,34304
9260,34304
9261,34240
9262,34304
9263,34368
9264,34368
9265,34304
9266,34240
9267,34112
9268,34048
9269,33984
9270,33984
9271,33984
9272,33984
9273,33984
9274,34048
9275,34048
9276,33984
9277,33920
9278,33856
9279,33792
9280,33728
9281,33728
9282,33792
9283,33920
9284,34048
9285,34112
9286,34048
9287,33984
9288,33984
9289,33984
9290,33920
9291,33920
9292,33984
9293,34176
9294,34432
9295,34816
9296,35648
9297,36992
9298,38720
9299,40704
9300,42752
9301,44480
9302,44608
9303,43008
9304,40448
9305,37056
9306,33408
9307,30400
9308,28416
9309,27584
9310,27712
9311,28480
9312,29568
9313,30784
9314,31872
9315,32832
9316,33536
9317,34112
9318,34560
9319,34752
9320,34880
9321,34944
9322,34944
9323,34944
9324,34880
9325,34752
9326,34560
9327,34368
9328,34176
9329,34112
9330,34112
9331,34112
9332,34176
9333,34176
9334,34112
9335,34048
9336,34048
9337,34112
9338,34112
9339,34112
9340,34176
9341,34240
9342,34368
9343,34432
9344,34432
9345,34432
9346,34432
9347,34368
9348,34368
9349,34368
9350,34368
9351,34432
9352,34560
9353,34496
9354,34368
9355,34304
9356,34240
9357,34240
9358,34112
9359,33984
9360,33856
9361,33792
9362,33792
9363,33792
9364,33792
9365,33792
9366,33792
9367,33792
9368,33856
9369,33856
9370,33856
9371,33856
9372,33792
9373,33856
9374,33792
9375,33792
9376,33792
9377,33728
9378,33600
9379,33600
9380,33664
9381,33664
9382,33664
9383,33728
9384,33792
9385,33856
9386,33792
9387,33664
9388,33664
9389,33728
9390,33920
9391,33984
9392,33920
9393,33856
9394,33792
9395,33728
9396,33728
9397,33792
9398,33856
9399,33920
9400,33920
9401,33984
9402,33920
9403,33920
9404,33920
9405,33984
9406,33984
9407,33984
9408,33920
9409,33920
9410,33920
9411,34048
9412,33984
9413,33856
9414,33792
9415,33792
9416,33856
9417,33856
9418,33856
9419,33856
9420,33792
9421,33728
9422,33664
9423,33664
9424,33664
9425,33792
9426,33856
9427,33856
9428,33856
9429,33792
9430,33856
9431,33920
9432,33920
9433,33984
9434,33984
9435,33984
9436,33920
9437,33920
9438,33984
9439,33920
9440,33984
9441,34048
9442,34048
9443,33920
9444,33920
9445,33920
9446,33856
9447,33856
9448,33856
9449,33920
9450,33984
9451,33984
9452,33984
9453,33984
9454,33984
9455,33984
9456,33984
9457,33984
9458,33920
9459,33920
9460,33920
9461,33984
9462,33984
9463,33984
9464,33984
9465,33984
9466,34048
9467,34112
9468,34176
9469,34112
9470,33984
9471,33920
9472,33920
9473,33984
9474,34112
9475,34240
9476,34368
9477,34368
9478,34368
9479,34432
9480,34432
9481,34432
9482,34368
9483,34304
9484,34304
9485,34176
9486,34048
9487,33984
9488,33984
9489,33984
9490,33984
9491,34048
9492,34112
9493,34112
9494,33984
9495,33984
9496,33920
9497,33856
9498,33728
9499,33728
9500,33792
9501,33856
9502,33792
9503,33728
9504,33792
9505,33856
9506,33920
9507,33920
9508,34048
9509,34112
9510,34112
9511,34048
9512,33984
9513,34240
9514,34688
9515,35520
9516,36608
9517,38080
9518,39872
9519,41920
9520,43840
9521,44608
9522,43648
9523,41280
9524,38080
9525,34560
9526,31424
9527,29120
9528,27840
9529,27648
9530,28288
9531,29248
9532,30336
9533,31424
9534,32512
9535,33408
9536,34048
9537,34432
9538,34688
9539,34880
9540,35072
9541,35072
9542,35008
9543,34816
9544,34624
9545,34368
9546,34176
9547,34112
9548,34048
9549,33984
9550,33984
9551,34048
9552,34112
9553,34112
9554,34176
9555,34240
9556,34240
9557,34240
9558,34176
9559,34240
9560,34304
9561,34368
9562,34496
9563,34432
9564,34304
9565,34304
9566,34304
9567,34304
9568,34368
9569,34304
9570,34368
9571,34368
9572,34368
9573,34240
9574,34048
9575,33984
9576,33984
9577,33984
9578,33984
9579,34048
9580,34048
9581,34112
9582,34048
9583,34048
9584,34112
9585,34176
9586,34112
9587,34048
9588,33984
9589,33856
9590,33664
9591,33472
9592,33472
9593,33536
9594,33600
9595,33600
9596,33664
9597,33728
9598,33728
9599,33728
9600,33728
9601,33792
9602,33920
9603,34048
9604,34048
9605,33856
9606,33728
9607,33728
9608,33792
9609,33856
9610,33856
9611,33792
9612,33792
9613,33856
9614,33920
9615,33984
9616,33984
9617,33984
9618,34112
9619,34048
9620,33984
9621,34048
9622,34048
9623,34048
9624,33984
9625,33984
9626,33984
9627,33984
9628,33984
9629,33984
9630,34048
9631,34112
9632,34048
9633,33920
9634,33920
9635,33920
9636,33792
9637,33728
9638,33728
9639,33728
9640,33728
9641,33728
9642,33856
9643,33920
9644,33920
9645,33920
9646,33984
9647,34048
9648,34048
9649,33984
9650,33920
9651,33984
9652,33984
9653,34048
9654,34048
9655,34112
9656,34112
9657,34048
9658,33920
9659,33856
9660,33792
9661,33728
9662,33664
9663,33792
9664,33856
9665,33856
9666,33920
9667,33984
9668,34048
9669,34112
9670,34112
9671,34112
9672,34176
9673,34112
9674,34048
9675,33984
9676,33984
9677,33984
9678,33984
9679,33984
9680,34048
9681,34176
9682,34240
9683,34112
9684,34112
9685,34304
9686,34304
9687,34304
9688,34176
9689,34176
9690,34176
9691,34176
9692,34304
9693,34432
9694,34432
9695,34304
9696,34176
9697,34176
9698,34176
9699,34176
9700,34112
9701,34048
9702,34112
9703,34112
9704,34112
9705,33984
9706,33856
9707,33792
9708,33728
9709,33792
9710,33856
9711,33856
9712,33792
9713,33664
9714,33664
9715,33728
9716,33856
9717,33984
9718,34048
9719,34048
9720,33984
9721,33920
9722,33984
9723,34176
9724,34432
9725,35072
9726,36096
9727,37568
9728,39296
9729,41344
9730,43456
9731,44544
9732,44032
9733,42176
9734,39424
9735,36032
9736,32512
9737,29760
9738,28096
9739,27520
9740,27840
9741,28736
9742,29888
9743,31040
9744,32192
9745,33024
9746,33728
9747,34240
9748,34560
9749,34816
9750,34944
9751,34944
9752,34880
9753,34880
9754,34752
9755,34496
9756,34368
9757,34240
9758,34176
9759,34112
9760,34176
9761,34240
9762,34176
9763,34176
9764,34112
9765,34112
9766,34112
9767,34176
9768,34240
9769,34304
9770,34304
9771,34304
9772,34304
9773,34304
9774,34240
9775,34240
9776,34304
9777,34368
9778,34368
9779,34368
9780,34304
9781,34176
9782,34176
9783,34112
9784,34112
9785,34176
9786,34176
9787,34112
9788,34112
9789,34112
9790,34112
9791,34048
9792,34112
9793,34112
9794,34112
9795,34112
9796,33984
9797,33920
9798,33856
9799,33792
9800,33856
9801,33856
9802,33856
9803,33728
9804,33728
9805,33792
9806,33728
9807,33664
9808,33600
9809,33600
9810,33664
9811,33728
9812,33728
9813,33728
9814,33728
9815,33792
9816,33856
9817,33856
9818,33920
9819,33984
9820,34048
9821,34112
9822,34112
9823,34176
9824,34112
9825,33984
9826,33920
9827,33920
9828,33856
9829,33856
9830,33920
9831,33984
9832,34048
9833,33984
9834,33920
9835,33856
9836,33856
9837,33856
9838,33856
9839,33920
9840,33920
9841,33920
9842,33856
9843,33920
9844,33984
9845,33984
9846,33984
9847,34048
9848,34048
9849,34048
9850,34048
9851,34048
9852,33984
9853,33792
9854,33792
9855,33856
9856,33984
9857,34048
9858,34048
9859,33856
9860,33792
9861,33792
9862,33792
9863,33792
9864,33856
9865,33920
9866,33984
9867,34112
9868,34112
9869,34112
9870,34048
9871,34048
9872,34048
9873,33920
9874,33920
9875,33856
9876,33984
9877,33984
9878,33984
9879,33984
9880,33984
9881,34048
9882,34176
9883,34304
9884,34432
9885,34496
9886,34496
9887,34432
9888,34368
9889,34368
9890,34368
9891,34368
9892,34304
9893,34240
9894,34176
9895,34112
9896,34048
9897,33984
9898,34048
9899,33984
9900,33984
9901,34048
9902,34048
9903,33984
9904,33856
9905,33792
9906,33728
9907,33600
9908,33536
9909,33536
9910,33664
9911,33856
9912,33984
9913,33984
9914,34048
9915,34048
9916,34048
9917,33920
9918,33856
9919,33792
9920,33856
9921,34112
9922,34688
9923,35584
9924,36800
9925,38464
9926,40384
9927,42560
9928,44288
9929,44608
9930,43200
9931,40576
9932,37440
9933,33408
9934,30720
9935,28672
9936,27712
9937,27776
9938,28480
9939,29504
9940,30656
9941,31872
9942,32768
9943,33408
9944,33920
9945,34240
9946,34496
9947,34624
9948,34688
9949,34688
9950,34624
9951,34560
9952,34496
9953,34432
9954,34432
9955,34432
9956,34368
9957,34304
9958,34240
9959,34176
9960,34176
9961,34176
9962,34176
9963,34176
9964,34176
9965,34112
9966,34112
9967,34112
9968,34176
9969,34176
9970,34240
9971,34304
9972,34304
9973,34304
9974,34304
9975,34304
9976,34432
9977,34496
9978,34496
9979,34368
9980,34240
9981,34240
9982,34304
9983,34368
9984,34304
9985,34240
9986,34048
9987,33920
9988,33856
9989,33856
9990,33856
9991,33856
9992,33920
9993,33984
9994,34048
9995,34048
9996,33920
9997,33792
9998,33728
9999,33664
10000,33536
10001,33472
10002,33472
10003,33472
10004,33472
10005,33472
10006,33600
10007,33728
10008,33728
10009,33600
10010,33536
10011,33600
10012,33728
10013,33856
10014,33920
10015,33920
10016,33856
10017,33728
10018,33728
10019,33792
10020,33856
10021,33920
10022,33984
10023,33984
10024,33920
10025,33920
10026,33920
10027,33920
10028,33984
10029,33920
10030,33920
10031,33920
10032,33920
10033,33856
10034,33856
10035,33856
10036,33920
10037,33920
10038,33920
10039,33920
10040,33856
10041,33856
10042,33856
10043,33856
10044,33856
10045,33856
10046,33792
10047,33856
10048,33920
10049,34048
10050,33984
10051,33920
10052,33856
10053,33856
10054,33792
10055,33856
10056,33920
10057,33856
10058,33920
10059,33920
10060,33984
10061,33984
10062,33984
10063,33984
10064,34048
10065,34048
10066,33984
10067,33920
10068,33920
10069,33856
10070,33856
10071,33856
10072,33856
10073,33920
10074,33920
10075,33984
10076,33984
10077,34048
10078,33984
10079,33984
10080,34048
10081,34048
10082,34048
10083,34112
10084,34176
10085,34112
10086,34048
10087,34048
10088,34112
10089,34240
10090,34368
10091,34432
10092,34432
10093,34368
10094,34432
10095,34432
10096,34304
10097,34240
10098,34240
10099,34176
10100,34112
10101,34176
10102,34176
10103,34176
10104,34048
10105,33984
10106,33984
10107,34048
10108,34048
10109,34112
10110,34048
10111,33920
10112,33792
10113,33600
10114,33600
10115,33664
10116,33856
10117,33920
10118,33856
10119,33856
10120,33920
10121,33984
10122,34048
10123,33984
10124,33984
10125,33920
10126,33920
10127,34112
10128,34624
10129,35136
10130,35968
10131,37376
10132,39232
10133,41280
10134,43392
10135,44736
10136,44352
10137,42304
10138,39232
10139,35648
10140,32128
10141,29376
10142,27968
10143,27584
10144,28096
10145,29056
10146,30208
10147,31296
10148,32320
10149,33152
10150,33856
10151,34368
10152,34624
10153,34816
10154,34816
10155,34880
10156,34880
10157,34816
10158,34752
10159,34560
10160,34368
10161,34240
10162,34240
10163,34176
10164,34112
10165,34048
10166,34048
10167,34112
10168,34240
10169,34240
10170,34176
10171,34240
10172,34240
10173,34368
10174,34368
10175,34432
10176,34432
10177,34368
10178,34368
10179,34368
10180,34432
10181,34496
10182,34496
10183,34432
10184,34368
10185,34368
10186,34304
10187,34304
10188,34304
10189,34240
10190,34176
10191,34176
10192,34112
10193,34112
10194,34112
10195,34112
10196,34112
10197,34048
10198,34048
10199,34048
10200,34048
10201,33920
10202,33856
10203,33920
10204,33920
10205,33856
10206,33792
10207,33792
10208,33792
10209,33728
10210,33664
10211,33600
10212,33600
10213,33664
10214,33664
10215,33792
10216,33856
10217,33856
10218,33728
10219,33728
10220,33728
10221,33792
10222,33856
10223,33920
10224,33920
10225,33984
10226,34048
10227,34048
10228,33984
10229,33984
10230,33984
10231,34048
10232,34048
10233,34048
10234,33984
10235,33920
10236,33920
10237,33920
10238,33984
10239,33984
10240,33984
10241,34048
10242,34112
10243,34048
10244,33984
10245,34048
10246,34048
10247,34112
10248,34112
10249,33984
10250,33856
10251,33792
10252,33792
10253,33856
10254,33920
10255,33984
10256,33984
10257,33920
10258,33920
10259,33920
10260,33920
10261,33920
10262,33920
10263,33920
10264,33920
10265,33920
10266,33920
10267,33920
10268,33920
10269,34048
10270,34048
10271,34048
10272,33984
10273,33984
10274,34048
10275,34048
10276,34048
10277,34112
10278,34048
10279,33984
10280,33984
10281,34048
10282,34048
10283,34048
10284,34048
10285,34048
10286,34176
10287,34112
10288,34112
10289,34048
10290,33984
10291,33984
10292,33920
10293,33984
10294,33984
10295,34048
10296,34048
10297,34112
10298,34176
10299,34240
10300,34176
10301,34112
10302,34048
10303,34112
10304,34112
10305,34112
10306,34176
10307,34240
10308,34240
10309,34176
10310,34176
10311,34176
10312,34112
10313,34112
10314,34240
10315,34304
10316,34304
10317,34240
10318,34240
10319,34240
10320,34368
10321,34368
10322,34368
10323,34432
10324,34432
10325,34432
10326,34496
10327,34496
10328,34496
10329,34432
10330,34368
10331,34240
10332,34112
10333,34112
10334,34112
10335,34240
10336,34176
10337,34112
10338,33920
10339,33856
10340,33728
10341,33728
10342,33728
10343,33792
10344,33856
10345,33920
10346,33984
10347,34048
10348,34112
10349,34240
10350,34304
10351,34368
10352,34304
10353,34176
10354,34048
10355,34048
10356,34304
10357,34944
10358,35968
10359,37440
10360,39296
10361,41408
10362,43520
10363,44608
10364,44160
10365,42304
10366,39424
10367,35968
10368,32576
10369,29888
10370,28288
10371,27648
10372,28032
10373,28992
10374,30144
10375,31232
10376,32256
10377,33088
10378,33792
10379,34304
10380,34560
10381,34688
10382,34752
10383,34816
10384,34816
10385,34816
10386,34816
10387,34752
10388,34496
10389,34304
10390,34240
10391,34176
10392,34112
10393,34048
10394,34048
10395,34112
10396,34176
10397,34176
10398,34304
10399,34304
10400,34240
10401,34240
10402,34240
10403,34368
10404,34432
10405,34368
10406,34304
10407,34240
10408,34240
10409,34240
10410,34240
10411,34368
10412,34432
10413,34432
10414,34304
10415,34240
10416,34176
10417,34112
10418,34048
10419,34048
10420,33984
10421,33984
10422,33984
10423,34048
10424,34176
10425,34112
10426,34048
10427,33984
10428,34048
10429,33984
10430,33856
10431,33856
10432,33920
10433,33920
10434,33984
10435,33984
10436,33920
10437,33856
10438,33792
10439,33728
10440,33728
10441,33792
10442,33792
10443,33728
10444,33728
10445,33728
10446,33792
10447,33920
10448,33984
10449,33984
10450,33920
10451,33920
10452,33920
10453,33920
10454,33920
10455,33984
10456,33984
10457,34048
10458,34048
10459,33984
10460,33984
10461,33984
10462,33984
10463,34048
10464,34048
10465,34112
10466,34240
10467,34240
10468,34240
10469,34176
10470,34112
10471,33920
10472,33856
10473,33792
10474,33728
10475,33792
10476,33856
10477,33856
10478,33920
10479,33920
10480,33984
10481,33984
10482,34112
10483,34112
10484,34048
10485,33920
10486,33856
10487,33920
10488,33984
10489,33984
10490,34112
10491,34176
10492,34176
10493,34112
10494,34048
10495,33984
10496,33920
10497,33856
10498,33856
10499,33856
10500,33856
10501,33920
10502,33856
10503,34048
10504,34112
10505,34176
10506,34176
10507,34240
10508,34176
10509,34112
10510,33984
10511,33920
10512,33920
10513,33920
10514,33920
10515,33984
10516,34048
10517,34112
10518,34112
10519,34240
10520,34240
10521,34240
10522,34112
10523,34048
10524,34048
10525,34176
10526,34176
10527,34240
10528,34304
10529,34368
10530,34432
10531,34432
10532,34368
10533,34368
10534,34368
10535,34368
10536,34368
10537,34432
10538,34432
10539,34368
10540,34240
10541,34048
10542,33920
10543,33792
10544,33856
10545,33984
10546,33984
10547,33920
10548,33856
10549,33856
10550,33856
10551,33856
10552,33856
10553,33856
10554,33856
10555,33856
10556,33856
10557,33920
10558,33984
10559,33984
10560,33984
10561,33984
10562,34048
10563,34112
10564,34176
10565,34496
10566,34944
10567,35776
10568,37056
10569,38784
10570,40832
10571,42944
10572,44480
10573,44480
10574,42880
10575,40192
10576,36800
10577,33280
10578,30272
10579,28416
10580,27584
10581,27776
10582,28672
10583,29760
10584,30848
10585,31872
10586,32832
10587,33600
10588,34112
10589,34496
10590,34752
10591,34944
10592,34880
10593,34816
10594,34688
10595,34560
10596,34432
10597,34368
10598,34304
10599,34304
10600,34240
10601,34176
10602,34112
10603,34112
10604,34112
10605,34112
10606,34112
10607,34176
10608,34304
10609,34304
10610,34304
10611,34240
10612,34240
10613,34240
10614,34240
10615,34240
10616,34304
10617,34368
10618,34496
10619,34496
10620,34432
10621,34432
10622,34304
10623,34304
10624,34304
10625,34304
10626,34240
10627,34176
10628,34176
10629,34240
10630,34176
10631,34048
10632,34048
10633,34048
10634,33984
10635,33920
10636,33920
10637,33920
10638,33984
10639,33920
10640,33856
10641,33792
10642,33728
10643,33728
10644,33728
10645,33792
10646,33792
10647,33664
10648,33536
10649,33472
10650,33472
10651,33536
10652,33600
10653,33664
10654,33664
10655,33664
10656,33728
10657,33792
10658,33792
10659,33792
10660,33792
10661,33856
10662,33856
10663,33856
10664,33920
10665,33984
10666,33984
10667,34176
10668,34112
10669,34112
10670,34048
10671,33920
10672,33792
10673,33792
10674,33792
10675,33856
10676,33856
10677,33792
10678,33792
10679,33792
10680,33792
10681,33856
10682,33920
10683,33856
10684,33856
10685,33856
10686,33856
10687,33856
10688,33856
10689,33984
10690,34048
10691,34048
10692,33984
10693,33856
10694,33792
10695,33728
10696,33664
10697,33984
10698,33920
10699,33856
10700,33728
10701,33664
10702,33728
10703,33792
10704,33856
10705,33856
10706,33920
10707,33984
10708,33920
10709,33856
10710,33792
10711,33792
10712,33856
10713,33792
10714,33792
10715,33984
10716,34048
10717,34048
10718,34048
10719,33984
10720,33984
10721,33920
10722,33856
10723,33856
10724,33984
10725,34048
10726,34048
10727,33984
10728,33920
10729,33920
10730,33920
10731,33984
10732,33984
10733,33984
10734,33984
10735,33984
10736,33984
10737,33984
10738,33920
10739,33920
10740,33920
10741,33984
10742,33984
10743,33984
10744,33920
10745,34112
10746,34112
10747,34176
10748,34176
10749,34176
10750,34176
10751,34048
10752,33984
10753,33984
10754,34048
10755,34048
10756,33984
10757,33984
10758,33920
10759,33920
10760,33920
10761,34048
10762,34112
10763,34176
10764,34176
10765,34176
10766,34240
10767,34304
10768,34368
10769,34496
10770,34560
10771,34496
10772,34432
10773,34432
10774,34368
10775,34368
10776,34304
10777,34112
10778,33984
10779,33920
10780,33856
10781,33920
10782,33984
10783,34048
10784,34048
10785,34112
10786,34176
10787,34176
10788,33984
10789,33792
10790,33728
10791,33664
10792,33664
10793,33728
10794,33792
10795,33856
10796,33920
10797,33984
10798,34176
10799,34240
10800,34176
10801,34048
10802,33920
10803,33856
10804,33984
10805,34304
10806,34816
10807,35648
10808,36928
10809,38592
10810,40640
10811,42752
10812,44352
10813,44416
10814,42752
10815,39872
10816,36672
10817,33152
10818,30208
10819,28416
10820,27712
10821,27968
10822,28800
10823,29888
10824,30976
10825,32000
10826,32896
10827,33600
10828,34112
10829,34560
10830,34752
10831,34816
10832,34816
10833,34816
10834,34816
10835,34624
10836,34432
10837,34240
10838,34176
10839,34112
10840,34112
10841,34112
10842,34048
10843,34048
10844,34112
10845,34176
10846,34176
10847,34112
10848,34112
10849,34240
10850,34368
10851,34368
10852,34240
10853,34176
10854,34176
10855,34176
10856,34176
10857,34304
10858,34368
10859,34432
10860,34368
10861,34304
10862,34304
10863,34304
10864,34304
10865,34240
10866,34176
10867,34112
10868,34048
10869,34048
10870,34112
10871,34112
10872,34112
10873,34112
10874,34112
10875,34112
10876,34048
10877,34048
10878,34048
10879,34048
10880,33984
10881,33920
10882,33856
10883,33792
10884,33728
10885,33664
10886,33664
10887,33664
10888,33728
10889,33792
10890,33792
10891,33792
10892,33792
10893,33792
10894,33728
10895,33792
10896,33856
10897,33920
10898,33920
10899,33856
10900,33856
10901,33792
10902,33728
10903,33728
10904,33728
10905,33792
10906,33856
10907,33984
10908,34048
10909,34048
10910,33984
10911,33984
10912,33920
10913,33920
10914,33920
10915,34048
10916,34176
10917,34176
10918,34112
10919,34048
10920,34112
10921,34048
10922,33920
10923,33856
10924,33792
