,ECG
0,34496
1,34560
2,34624
3,34624
4,34624
5,34624
6,34560
7,34560
8,34496
9,34496
10,34496
11,34496
12,34496
13,34496
14,34432
15,34368
16,34304
17,34176
18,34112
19,34112
20,34112
21,34112
22,34176
23,34176
24,34048
25,33856
26,33792
27,33728
28,33664
29,33600
30,33600
31,33600
32,33664
33,33728
34,33728
35,33728
36,33664
37,33728
38,33728
39,33856
40,33920
41,33920
42,33856
43,33792
44,33728
45,33728
46,33728
47,33792
48,33856
49,33920
50,33984
51,33920
52,34112
53,34048
54,33984
55,33984
56,33984
57,34048
58,33984
59,33920
60,33984
61,33984
62,33984
63,33984
64,33984
65,34048
66,34112
67,34176
68,34176
69,34112
70,33984
71,33920
72,33856
73,33792
74,33792
75,33728
76,33728
77,33728
78,33792
79,33856
80,33984
81,33920
82,34048
83,34048
84,34048
85,34048
86,34048
87,34048
88,33984
89,33920
90,33856
91,33792
92,33792
93,33856
94,33856
95,33920
96,33920
97,34048
98,34112
99,34112
100,34112
101,34112
102,34112
103,34112
104,34112
105,34112
106,34176
107,34176
108,34240
109,34240
110,34368
111,34368
112,34304
113,34304
114,34304
115,34368
116,34368
117,34368
118,34368
119,34432
120,34432
121,34368
122,34304
123,34304
124,34240
125,34176
126,34176
127,34176
128,34240
129,34240
130,34240
131,34176
132,34048
133,33856
134,33728
135,33664
136,33600
137,33536
138,33600
139,33664
140,33792
141,33856
142,33920
143,33920
144,33984
145,34048
146,34112
147,34176
148,34176
149,34304
150,34496
151,35008
152,36032
153,37376
154,39232
155,42496
156,42880
157,45056
158,44928
159,43200
160,40320
161,36800
162,33216
163,30336
164,28544
165,27840
166,28096
167,28864
168,29888
169,30912
170,31936
171,32768
172,33536
173,34048
174,34368
175,34496
176,34624
177,34624
178,34624
179,34560
180,34496
181,34496
182,34496
183,34432
184,34368
185,34368
186,34304
187,34304
188,34240
189,34176
190,34176
191,34112
192,34176
193,34240
194,34368
195,34432
196,34368
197,34304
198,34304
199,34304
200,34304
201,34240
202,34368
203,34432
204,34496
205,34560
206,34624
207,34624
208,34560
209,34624
210,34624
211,34624
212,34560
213,34496
214,34432
215,34368
216,34304
217,34304
218,34368
219,34304
220,34304
221,34176
222,34048
223,33920
224,33920
225,33856
226,33792
227,33728
228,33728
229,33664
230,33600
231,33664
232,33600
233,33536
234,33472
235,33472
236,33536
237,33536
238,33536
239,33600
240,33600
241,33664
242,33728
243,33792
244,33856
245,33856
246,33792
247,33856
248,33856
249,33856
250,33920
251,33920
252,33984
253,33984
254,33984
255,33920
256,33920
257,33920
258,33856
259,33856
260,33920
261,33856
262,33856
263,33856
264,33920
265,33920
266,33856
267,33792
268,33856
269,33920
270,33920
271,33856
272,33856
273,33856
274,33856
275,33792
276,33792
277,33792
278,33792
279,33792
280,33792
281,33920
282,33920
283,33920
284,33856
285,33792
286,33792
287,33856
288,33920
289,33984
290,34048
291,33984
292,33984
293,33984
294,33984
295,33984
296,33856
297,33856
298,33856
299,33920
300,33920
301,33920
302,33984
303,33920
304,33984
305,34112
306,34048
307,34048
308,33984
309,33984
310,34048
311,34112
312,34112
313,34048
314,34112
315,34112
316,34112
317,34112
318,34112
319,34048
320,33984
321,33920
322,33856
323,33920
324,33920
325,33920
326,33984
327,34048
328,34112
329,34176
330,34176
331,34176
332,34176
333,34240
334,34176
335,34240
336,34176
337,34176
338,34176
339,34304
340,34368
341,34432
342,34432
343,34496
344,34560
345,34496
346,34432
347,34432
348,34368
349,34304
350,34240
351,34176
352,34176
353,34176
354,34176
355,34112
356,34176
357,34176
358,34176
359,34176
360,34112
361,33984
362,33856
363,33792
364,33792
365,33792
366,33856
367,33920
368,33984
369,34048
370,33984
371,33984
372,33984
373,33984
374,33984
375,34048
376,34048
377,34112
378,34368
379,34816
380,35520
381,36800
382,38464
383,40448
384,42624
385,44672
386,45440
387,44352
388,41664
389,38464
390,34816
391,31488
392,29120
393,27968
394,27904
395,28480
396,29440
397,30400
398,31488
399,32448
400,33280
401,33856
402,34304
403,34560
404,34688
405,34688
406,34688
407,34624
408,34560
409,34496
410,34432
411,34368
412,34304
413,34304
414,34304
415,34304
416,34304
417,34240
418,34240
419,34240
420,34176
421,34176
422,34240
423,34240
424,34240
425,34240
426,34304
427,34304
428,34304
429,34304
430,34368
431,34432
432,34432
433,34432
434,34432
435,34432
436,34496
437,34560
438,34560
439,34560
440,34560
441,34496
442,34432
443,34432
444,34496
445,34496
446,34432
447,34368
448,34304
449,34176
450,34048
451,34048
452,33984
453,33984
454,33984
455,33920
456,33920
457,33856
458,33728
459,33728
460,33664
461,33600
462,33600
463,33600
464,33600
465,33664
466,33664
467,33664
468,33664
469,33664
470,33664
471,33664
472,33728
473,33728
474,33728
475,33792
476,33792
477,33856
478,33856
479,33856
480,33856
481,33920
482,33984
483,33984
484,33984
485,34048
486,33984
487,33984
488,33984
489,33984
490,33984
491,33920
492,33984
493,33984
494,33984
495,33920
496,33856
497,33792
498,33792
499,33792
500,33792
501,33792
502,33792
503,33856
504,33856
505,33856
506,33792
507,33792
508,33792
509,33856
510,33920
511,33856
512,33856
513,33856
514,33920
515,33920
516,33920
517,33984
518,34048
519,34048
520,33984
521,33984
522,33984
523,33984
524,33984
525,33920
526,33920
527,33920
528,33920
529,33920
530,33920
531,33920
532,33920
533,33856
534,33792
535,33856
536,33920
537,33984
538,33984
539,34048
540,34048
541,34112
542,34176
543,34240
544,34368
545,34368
546,34368
547,34432
548,34432
549,34432
550,34432
551,34368
552,34368
553,34432
554,34368
555,34240
556,34176
557,34112
558,34112
559,34048
560,34048
561,34048
562,33984
563,33984
564,33984
565,33984
566,33856
567,33728
568,33792
569,33856
570,33920
571,33984
572,34048
573,34048
574,34048
575,33984
576,33920
577,33920
578,33920
579,33920
580,33920
581,33920
582,34048
583,34368
584,34944
585,35968
586,37440
587,39360
588,41536
589,43712
590,45056
591,44800
592,43008
593,40192
594,36672
595,33088
596,30208
597,28416
598,27712
599,27968
600,28800
601,29824
602,31040
603,32064
604,32960
605,33600
606,34048
607,34368
608,34624
609,34752
610,34816
611,34816
612,34752
613,34624
614,34560
615,34432
616,34368
617,34304
618,34304
619,34368
620,34368
621,34304
622,34240
623,34240
624,34240
625,34176
626,34176
627,34240
628,34304
629,34304
630,34368
631,34368
632,34432
633,34432
634,34496
635,34496
636,34560
637,34560
638,34560
639,34624
640,34688
641,34752
642,34752
643,34624
644,34560
645,34368
646,34240
647,34176
648,34112
649,34112
650,34112
651,34176
652,34240
653,34240
654,34240
655,34240
656,34240
657,34176
658,34112
659,33984
660,33984
661,33920
662,33856
663,33792
664,33792
665,33792
666,33664
667,33536
668,33408
669,33344
670,33344
671,33408
672,33472
673,33536
674,33600
675,33664
676,33792
677,33920
678,33984
679,33984
680,33984
681,33920
682,33984
683,34048
684,34048
685,34048
686,34048
687,34048
688,33984
689,33984
690,33984
691,33920
692,33920
693,33920
694,33920
695,33984
696,33984
697,33984
698,33920
699,33920
700,33856
701,33856
702,33856
703,33920
704,33920
705,33920
706,33920
707,33856
708,33792
709,33728
710,33728
711,33728
712,33728
713,33728
714,33792
715,33920
716,33920
717,33920
718,33920
719,33920
720,33920
721,33920
722,33920
723,33920
724,33984
725,33984
726,33856
727,33792
728,33728
729,33728
730,33792
731,33792
732,33856
733,33856
734,33984
735,33984
736,34048
737,33984
738,33984
739,33984
740,34048
741,34112
742,34048
743,34048
744,34112
745,34240
746,34304
747,34304
748,34368
749,34368
750,34368
751,34368
752,34368
753,34304
754,34304
755,34304
756,34304
757,34304
758,34240
759,34176
760,34176
761,34112
762,34048
763,34048
764,34048
765,34048
766,33984
767,33856
768,33728
769,33728
770,33664
771,33664
772,33728
773,33792
774,33856
775,33984
776,34048
777,34048
778,34112
779,34112
780,34048
781,34048
782,33984
783,34048
784,34240
785,34752
786,35520
787,36800
788,38528
789,40576
790,42944
791,44736
792,45248
793,43904
794,40960
795,37760
796,34112
797,30912
798,28736
799,27776
800,27776
801,28544
802,29568
803,30656
804,31680
805,32640
806,33408
807,33856
808,34240
809,34496
810,34624
811,34624
812,34624
813,34560
814,34560
815,34496
816,34368
817,34304
818,34304
819,34304
820,34304
821,34304
822,34240
823,34240
824,34304
825,34240
826,34240
827,34240
828,34304
829,34304
830,34368
831,34432
832,34432
833,34432
834,34368
835,34368
836,34368
837,34304
838,34368
839,34432
840,34496
841,34560
842,34560
843,34560
844,34560
845,34560
846,34560
847,34496
848,34496
849,34432
850,34432
851,34368
852,34368
853,34368
854,34304
855,34240
856,34240
857,34176
858,34176
859,34112
860,33920
861,33792
862,33664
863,33536
864,33536
865,33536
866,33472
867,33472
868,33408
869,33408
870,33408
871,33408
872,33472
873,33600
874,33664
875,33664
876,33728
877,33792
878,33856
879,33856
880,33856
881,33920
882,33920
883,33920
884,33856
885,33856
886,33792
887,33792
888,33792
889,33792
890,33792
891,33856
892,33856
893,33856
894,33920
895,33984
896,33984
897,33984
898,33984
899,33920
900,33920
901,33920
902,33856
903,33920
904,33856
905,33792
906,33792
907,33856
908,33792
909,33792
910,33792
911,33792
912,33792
913,33728
914,33728
915,33728
916,33728
917,33728
918,33792
919,33856
920,33984
921,33984
922,33920
923,33984
924,34048
925,34048
926,33984
927,33984
928,33984
929,33984
930,33920
931,33920
932,33920
933,33856
934,33856
935,33920
936,34048
937,34048
938,34048
939,33984
940,33984
941,33856
942,33856
943,33920
944,34048
945,34240
946,34304
947,34368
948,34432
949,34496
950,34496
951,34432
952,34432
953,34368
954,34368
955,34304
956,34304
957,34240
958,34112
959,34048
960,33984
961,34048
962,34112
963,34112
964,34048
965,33984
966,33920
967,33856
968,33728
969,33664
970,33600
971,33600
972,33664
973,33792
974,33856
975,33920
976,33984
977,34048
978,34112
979,34112
980,34176
981,34176
982,34176
983,34176
984,34368
985,34816
986,35584
987,36800
988,38528
989,40640
990,43200
991,44800
992,45120
993,43648
994,41024
995,37696
996,33984
997,31040
998,28992
999,28032
1000,28096
1001,28736
1002,29696
1003,30720
1004,31680
1005,32576
1006,33344
1007,33920
1008,34304
1009,34496
1010,34624
1011,34688
1012,34752
1013,34688
1014,34496
1015,34432
1016,34304
1017,34240
1018,34240
1019,34304
1020,34304
1021,34304
1022,34304
1023,34304
1024,34240
1025,34176
1026,34112
1027,34176
1028,34240
1029,34240
1030,34240
1031,34240
1032,34304
1033,34368
1034,34368
1035,34496
1036,34496
1037,34560
1038,34560
1039,34560
1040,34560
1041,34560
1042,34560
1043,34496
1044,34432
1045,34432
1046,34432
1047,34496
1048,34432
1049,34432
1050,34496
1051,34432
1052,34368
1053,34368
1054,34304
1055,34240
1056,34240
1057,34176
1058,34112
1059,34048
1060,33984
1061,33920
1062,33792
1063,33728
1064,33664
1065,33600
1066,33536
1067,33472
1068,33472
1069,33472
1070,33472
1071,33536
1072,33536
1073,33536
1074,33600
1075,33664
1076,33728
1077,33792
1078,33856
1079,33920
1080,34048
1081,34048
1082,34112
1083,33984
1084,33920
1085,33792
1086,33792
1087,33792
1088,33792
1089,33856
1090,33920
1091,33920
1092,33856
1093,33856
1094,33920
1095,33920
1096,33920
1097,33920
1098,33920
1099,33920
1100,33920
1101,33920
1102,33920
1103,33920
1104,33856
1105,33856
1106,33856
1107,33856
1108,33792
1109,33728
1110,33728
1111,33664
1112,33664
1113,33728
1114,33792
1115,33856
1116,33920
1117,33920
1118,33920
1119,33920
1120,33984
1121,33984
1122,34048
1123,34048
1124,34048
1125,33984
1126,33984
1127,33984
1128,33920
1129,33920
1130,33856
1131,33856
1132,33920
1133,33920
1134,33984
1135,34048
1136,34112
1137,34240
1138,34304
1139,34368
1140,34432
1141,34496
1142,34432
1143,34368
1144,34368
1145,34432
1146,34496
1147,34560
1148,34496
1149,34368
1150,34240
1151,34112
1152,34048
1153,34048
1154,34048
1155,33984
1156,33920
1157,33920
1158,33856
1159,33728
1160,33664
1161,33664
1162,33664
1163,33664
1164,33728
1165,33792
1166,33856
1167,33920
1168,33984
1169,34112
1170,34112
1171,34048
1172,34112
1173,34112
1174,34112
1175,34176
1176,34368
1177,34880
1178,35840
1179,37184
1180,38976
1181,41088
1182,43264
1183,44672
1184,44480
1185,42880
1186,40192
1187,36800
1188,33280
1189,30464
1190,28672
1191,27840
1192,27968
1193,28672
1194,29760
1195,30848
1196,31936
1197,32832
1198,33536
1199,34112
1200,34496
1201,34624
1202,34752
1203,34752
1204,34688
1205,34560
1206,34496
1207,34496
1208,34432
1209,34368
1210,34304
1211,34240
1212,34176
1213,34112
1214,34112
1215,34176
1216,34176
1217,34240
1218,34240
1219,34304
1220,34304
1221,34304
1222,34240
1223,34240
1224,34304
1225,34304
1226,34304
1227,34432
1228,34432
1229,34432
1230,34432
1231,34496
1232,34560
1233,34560
1234,34560
1235,34496
1236,34496
1237,34496
1238,34496
1239,34496
1240,34432
1241,34432
1242,34368
1243,34368
1244,34368
1245,34368
1246,34304
1247,34240
1248,34240
1249,34176
1250,34112
1251,33984
1252,33920
1253,33920
1254,33920
1255,33856
1256,33856
1257,33792
1258,33728
1259,33664
1260,33664
1261,33664
1262,33664
1263,33664
1264,33664
1265,33664
1266,33728
1267,33792
1268,33856
1269,33856
1270,33920
1271,33920
1272,33984
1273,34048
1274,34048
1275,34048
1276,33984
1277,34048
1278,33984
1279,33920
1280,33920
1281,33984
1282,33984
1283,33984
1284,33984
1285,33984
1286,33984
1287,33920
1288,33920
1289,33920
1290,33920
1291,33920
1292,33920
1293,33920
1294,33920
1295,33984
1296,33984
1297,33920
1298,33856
1299,33920
1300,33920
1301,33856
1302,33856
1303,33856
1304,33920
1305,33984
1306,34048
1307,34048
1308,34112
1309,34176
1310,34176
1311,34240
1312,34304
1313,34304
1314,34304
1315,34304
1316,34304
1317,34304
1318,34304
1319,34368
1320,34368
1321,34304
1322,34176
1323,34176
1324,34112
1325,34048
1326,33984
1327,33920
1328,33920
1329,33856
1330,33728
1331,33664
1332,33600
1333,33600
1334,33600
1335,33664
1336,33728
1337,33728
1338,33728
1339,33728
1340,33792
1341,33856
1342,33920
1343,33984
1344,33984
1345,33984
1346,34048
1347,34176
1348,34624
1349,35328
1350,36416
1351,38144
1352,39936
1353,42048
1354,44096
1355,44864
1356,43968
1357,41664
1358,38528
1359,35072
1360,31808
1361,29440
1362,28096
1363,27840
1364,28288
1365,29312
1366,30336
1367,31424
1368,32384
1369,33216
1370,33920
1371,34304
1372,34560
1373,34688
1374,34688
1375,34688
1376,34624
1377,34560
1378,34496
1379,34432
1380,34368
1381,34304
1382,34304
1383,34240
1384,34176
1385,34176
1386,34176
1387,34176
1388,34112
1389,34176
1390,34176
1391,34240
1392,34304
1393,34304
1394,34368
1395,34432
1396,34496
1397,34496
1398,34496
1399,34496
1400,34496
1401,34496
1402,34560
1403,34624
1404,34560
1405,34496
1406,34560
1407,34496
1408,34496
1409,34432
1410,34496
1411,34496
1412,34496
1413,34432
1414,34432
1415,34432
1416,34368
1417,34240
1418,34176
1419,34112
1420,33984
1421,33856
1422,33728
1423,33728
1424,33728
1425,33664
1426,33600
1427,33600
1428,33600
1429,33600
1430,33600
1431,33664
1432,33664
1433,33728
1434,33728
1435,33728
1436,33728
1437,33728
1438,33728
1439,33792
1440,33792
1441,33856
1442,33856
1443,33856
1444,33856
1445,33856
1446,33856
1447,33856
1448,33920
1449,33856
1450,33792
1451,33792
1452,33728
1453,33792
1454,33856
1455,33856
1456,33920
1457,33984
1458,34048
1459,34048
1460,34048
1461,33984
1462,33920
1463,33856
1464,33856
1465,33792
1466,33792
1467,33792
1468,33728
1469,33728
1470,33664
1471,33728
1472,33792
1473,33856
1474,33984
1475,33984
1476,33920
1477,33920
1478,33920
1479,33920
1480,33920
1481,33920
1482,33920
1483,33920
1484,33920
1485,33920
1486,33920
1487,33920
1488,33920
1489,33920
1490,33984
1491,34048
1492,34112
1493,34176
1494,34112
1495,34048
1496,33920
1497,33728
1498,33728
1499,33664
1500,33728
1501,33920
1502,34240
1503,34496
1504,34624
1505,34688
1506,34624
1507,34688
1508,34624
1509,34560
1510,34496
1511,34560
1512,34560
1513,34560
1514,34496
1515,34304
1516,34176
1517,34048
1518,34112
1519,34240
1520,34176
1521,34112
1522,34112
1523,34048
1524,33920
1525,33792
1526,33728
1527,33792
1528,33792
1529,33792
1530,33792
1531,33856
1532,33856
1533,33920
1534,33984
1535,34048
1536,34112
1537,34176
1538,34176
1539,34176
1540,34176
1541,34304
1542,34560
1543,35200
1544,36416
1545,37888
1546,39872
1547,42048
1548,44160
1549,45184
1550,44160
1551,43712
1552,38976
1553,35328
1554,31936
1555,29440
1556,28160
1557,27904
1558,28480
1559,29440
1560,30464
1561,31488
1562,32384
1563,33152
1564,33792
1565,34240
1566,34240
1567,34496
1568,34560
1569,34496
1570,34432
1571,34496
1572,34560
1573,34496
1574,34304
1575,34112
1576,34048
1577,34112
1578,34240
1579,34304
1580,34304
1581,34304
1582,34368
1583,34496
1584,34624
1585,34688
1586,34624
1587,34560
1588,34560
1589,34560
1590,34560
1591,34624
1592,34624
1593,34368
1594,34176
1595,34304
1596,34496
1597,34624
1598,34560
1599,34432
1600,34432
1601,34560
1602,34688
1603,34688
1604,34624
1605,34560
1606,34496
1607,34432
1608,34304
1609,34304
1610,34368
1611,34368
1612,34240
1613,34112
1614,34112
1615,34112
1616,34176
1617,34240
1618,34176
1619,34176
1620,34112
1621,33920
1622,33792
1623,33792
1624,33856
1625,33920
1626,33856
1627,33664
1628,33408
1629,33344
1630,33344
1631,33408
1632,33472
1633,33472
1634,33600
1635,33728
1636,33792
1637,33728
1638,33792
1639,33792
1640,33728
1641,33792
1642,33792
1643,33792
1644,33920
1645,34048
1646,34112
1647,34048
1648,33856
1649,33600
1650,33344
1651,33280
1652,33280
1653,33408
1654,33472
1655,33600
1656,33664
1657,33600
1658,33472
1659,33344
1660,33280
1661,33280
1662,33344
1663,33472
1664,33536
1665,33600
1666,33600
1667,33600
1668,33600
1669,33600
1670,33664
1671,33600
1672,33536
1673,33600
1674,34048
1675,34368
1676,34560
1677,34496
1678,34112
1679,33664
1680,33472
1681,33408
1682,33216
1683,33152
1684,33152
1685,33344
1686,33344
1687,33536
1688,33536
1689,33536
1690,33472
1691,33472
1692,33408
1693,33408
1694,33344
1695,33216
1696,33088
1697,32960
1698,32960
1699,32960
1700,32960
1701,33024
1702,33152
1703,33408
1704,33664
1705,33792
1706,33984
1707,34176
1708,34176
1709,33792
1710,33344
1711,33152
1712,33216
1713,33344
1714,33600
1715,34560
1716,34752
1717,37312
1718,39424
1719,41664
1720,43712
1721,44544
1722,43776
1723,41728
1724,38336
1725,35200
1726,31872
1727,29504
1728,28096
1729,27648
1730,28160
1731,28992
1732,30080
1733,31104
1734,32128
1735,33088
1736,33792
1737,34304
1738,34624
1739,34624
1740,34432
1741,34368
1742,34432
1743,34432
1744,34432
1745,34368
1746,34304
1747,34304
1748,34368
1749,34368
1750,34368
1751,34304
1752,34304
1753,34304
1754,34240
1755,34240
1756,34240
1757,34304
1758,34368
1759,34432
1760,34496
1761,34432
1762,34432
1763,34432
1764,34496
1765,34496
1766,34496
1767,34432
1768,34432
1769,34560
1770,34560
1771,34560
1772,34560
1773,34496
1774,34496
1775,34496
1776,34432
1777,34432
1778,34432
1779,34304
1780,34240
1781,34240
1782,34176
1783,34112
1784,34048
1785,33984
1786,33920
1787,33920
1788,33984
1789,34048
1790,34176
1791,34112
1792,34112
1793,34112
1794,34048
1795,33984
1796,33920
1797,33920
1798,34176
1799,34496
1800,34432
1801,34112
1802,33984
1803,33984
1804,34048
1805,34240
1806,34432
1807,34496
1808,34496
1809,34496
1810,34496
1811,34432
1812,34368
1813,34240
1814,34048
1815,33920
1816,33856
1817,33856
1818,33920
1819,33920
1820,33920
1821,33856
1822,33920
1823,33984
1824,34048
1825,34176
1826,34240
1827,34176
1828,34112
1829,34048
1830,33920
1831,33856
1832,33856
1833,33984
1834,34048
1835,34240
1836,34304
1837,34304
1838,34240
1839,34176
1840,34176
1841,34112
1842,34112
1843,34176
1844,34176
1845,34112
1846,33984
1847,33856
1848,33792
1849,33728
1850,33664
1851,33600
1852,33536
1853,33536
1854,33536
1855,33536
1856,33344
1857,33088
1858,32896
1859,32832
1860,32896
1861,32960
1862,32960
1863,33024
1864,33216
1865,33536
1866,33472
1867,33600
1868,33600
1869,33600
1870,33728
1871,34048
1872,34176
1873,34368
1874,34944
1875,35904
1876,37376
1877,39232
1878,41344
1879,43264
1880,44096
1881,43968
1882,41536
1883,38400
1884,34752
1885,31296
1886,28800
1887,27392
1888,27008
1889,27520
1890,28480
1891,29504
1892,30528
1893,31552
1894,32512
1895,33280
1896,33792
1897,34304
1898,34688
1899,34816
1900,34880
1901,34944
1902,35200
1903,35392
1904,35520
1905,35776
1906,35968
1907,36032
1908,36096
1909,36224
1910,36352
1911,36544
1912,36672
1913,36800
1914,36864
1915,36928
1916,36928
1917,36864
1918,36800
1919,36672
1920,36544
1921,36352
1922,36224
1923,36096
1924,35968
1925,35840
1926,35776
1927,36032
1928,36288
1929,36608
1930,36992
1931,37376
1932,37696
1933,38016
1934,38272
1935,38464
1936,38656
1937,38656
1938,38592
1939,38592
1940,38528
1941,38464
1942,38208
1943,38016
1944,37888
1945,37824
1946,37696
1947,37376
1948,37056
1949,36864
1950,36672
1951,36608
1952,36480
1953,36416
1954,36288
1955,36160
1956,36096
1957,36032
1958,35968
1959,35904
1960,35776
1961,35648
1962,35456
1963,35328
1964,35200
1965,35072
1966,35200
1967,35392
1968,35392
1969,35264
1970,35264
1971,35200
1972,35264
1973,35328
1974,35456
1975,35584
1976,35712
1977,35712
1978,35712
1979,35712
1980,35712
1981,35904
1982,36160
1983,36352
1984,36480
1985,36608
1986,36544
1987,36608
1988,36544
1989,36544
1990,36480
1991,36416
1992,36480
1993,36544
1994,36480
1995,36352
1996,36224
1997,36032
1998,35904
1999,35776
2000,35584
2001,35456
2002,35392
2003,35200
2004,35008
2005,34752
2006,34560
2007,34496
2008,34432
2009,34496
2010,34496
2011,34560
2012,34624
2013,34752
2014,34816
2015,34880
2016,34944
2017,35008
2018,35008
2019,34880
2020,34816
2021,34816
2022,35008
2023,35584
2024,36608
2025,38144
2026,40128
2027,42432
2028,44800
2029,46464
2030,46208
2031,44800
2032,41920
2033,38400
2034,34688
2035,31552
2036,29440
2037,28480
2038,28480
2039,29184
2040,30144
2041,31168
2042,32128
2043,33024
2044,33728
2045,34496
2046,34496
2047,34944
2048,35136
2049,35200
2050,35200
2051,35072
2052,35008
2053,34880
2054,34688
2055,34560
2056,34496
2057,34560
2058,34560
2059,34624
2060,34624
2061,34560
2062,34496
2063,34368
2064,34304
2065,34176
2066,34176
2067,34112
2068,34176
2069,34240
2070,34304
2071,34432
2072,34432
2073,34496
2074,34432
2075,34368
2076,34304
2077,34304
2078,34304
2079,34304
2080,34304
2081,34304
2082,34304
2083,34240
2084,34240
2085,34304
2086,34432
2087,34560
2088,34560
2089,34624
2090,34688
2091,34752
2092,34816
2093,34880
2094,34816
2095,34688
2096,34496
2097,34240
2098,33984
2099,33728
2100,33536
2101,33344
2102,33344
2103,33408
2104,33600
2105,33856
2106,33792
2107,34112
2108,34176
2109,34112
2110,34048
2111,34048
2112,34048
2113,34048
2114,33984
2115,34048
2116,34048
2117,34048
2118,34048
2119,34112
2120,34112
2121,34176
2122,34176
2123,34176
2124,34112
2125,33920
2126,33792
2127,33664
2128,33536
2129,33472
2130,33472
2131,33472
2132,33536
2133,33600
2134,33728
2135,33920
2136,33920
2137,33984
2138,33920
2139,33856
2140,33728
2141,33664
2142,33600
2143,33664
2144,33792
2145,33920
2146,33920
2147,33856
2148,33728
2149,33536
2150,33216
2151,33152
2152,33024
2153,32960
2154,32832
2155,32640
2156,32448
2157,32384
2158,32256
2159,32192
2160,32128
2161,32064
2162,32064
2163,32064
2164,32064
2165,32192
2166,32256
2167,32320
2168,32384
2169,32384
2170,32320
2171,32256
2172,32384
2173,32768
2174,33600
2175,35008
2176,36864
2177,39040
2178,41408
2179,43264
2180,43264
2181,42880
2182,39744
2183,36352
2184,32576
2185,29440
2186,27136
2187,25984
2188,25856
2189,26560
2190,27584
2191,28608
2192,29632
2193,30656
2194,31488
2195,32192
2196,32640
2197,32896
2198,33088
2199,33216
2200,33280
2201,33216
2202,33280
2203,33216
2204,33088
2205,32960
2206,32960
2207,33024
2208,33088
2209,33088
2210,33152
2211,33088
2212,33152
2213,33088
2214,33152
2215,33152
2216,33152
2217,33088
2218,33152
2219,33280
2220,33344
2221,33408
2222,33536
2223,33664
2224,33792
2225,33856
2226,33792
2227,33792
2228,33728
2229,33728
2230,33664
2231,33728
2232,33728
2233,33728
2234,33664
2235,33600
2236,33536
2237,33536
2238,33536
2239,33536
2240,33664
2241,33600
2242,33536
2243,33472
2244,33472
2245,33408
2246,33344
2247,33216
2248,33152
2249,33152
2250,33088
2251,33088
2252,33152
2253,33088
2254,33088
2255,33088
2256,33024
2257,33088
2258,33152
2259,33216
2260,33280
2261,33408
2262,33472
2263,33472
2264,33472
2265,33472
2266,33472
2267,33408
2268,33408
2269,33472
2270,33472
2271,33408
2272,33408
2273,33472
2274,33472
2275,33472
2276,33472
2277,33472
2278,33408
2279,33408
2280,33472
2281,33536
2282,33664
2283,33664
2284,33664
2285,33728
2286,33664
2287,33728
2288,33664
2289,33664
2290,33728
2291,33792
2292,33792
2293,33728
2294,33792
2295,33728
2296,33600
2297,33472
2298,33472
2299,33472
2300,33472
2301,33472
2302,33472
2303,33408
2304,33216
2305,33088
2306,33024
2307,33088
2308,33088
2309,33152
2310,33216
2311,33280
2312,33344
2313,33408
2314,33408
2315,33472
2316,33536
2317,33472
2318,33472
2319,33536
2320,33728
2321,34048
2322,34688
2323,35840
2324,37504
2325,39552
2326,41792
2327,43840
2328,44736
2329,44032
2330,41920
2331,38976
2332,35584
2333,32192
2334,29568
2335,27968
2336,27456
2337,27776
2338,28672
2339,29760
2340,30848
2341,31872
2342,32704
2343,33344
2344,33856
2345,34240
2346,34368
2347,34368
2348,34432
2349,34432
2350,34432
2351,34368
2352,34240
2353,34176
2354,34112
2355,34048
2356,34048
2357,34048
2358,33984
2359,33920
2360,33920
2361,33984
2362,33984
2363,33984
2364,33920
2365,33984
2366,34048
2367,34048
2368,34048
2369,34112
2370,34176
2371,34176
2372,34240
2373,34240
2374,34240
2375,34240
2376,34240
2377,34240
2378,34176
2379,34112
2380,34048
2381,34048
2382,34048
2383,33984
2384,33984
2385,33984
2386,33984
2387,33920
2388,33856
2389,33856
2390,33856
2391,33792
2392,33792
2393,33728
2394,33728
2395,33664
2396,33600
2397,33536
2398,33536
2399,33536
2400,33536
2401,33472
2402,33536
2403,33536
2404,33472
2405,33472
2406,33536
2407,33536
2408,33600
2409,33600
2410,33664
2411,33728
2412,33792
2413,33792
2414,33856
2415,33920
2416,33920
2417,33856
2418,33856
2419,33920
2420,33920
2421,33856
2422,33792
2423,33792
2424,33792
2425,33792
2426,33792
2427,33792
2428,33856
2429,33856
2430,33920
2431,33984
2432,34048
2433,34048
2434,34048
2435,34048
2436,34048
2437,34048
2438,33984
2439,34048
2440,34176
2441,34176
2442,34112
2443,34048
2444,34048
2445,33920
2446,33856
2447,33792
2448,33728
2449,33728
2450,33728
2451,33664
2452,33600
2453,33472
2454,33344
2455,33280
2456,33280
2457,33344
2458,33408
2459,33472
2460,33536
2461,33664
2462,33664
2463,33664
2464,33664
2465,33728
2466,33728
2467,33728
2468,33664
2469,33792
2470,34112
2471,34752
2472,35776
2473,37376
2474,39488
2475,41472
2476,43584
2477,44736
2478,44352
2479,42496
2480,39616
2481,36160
2482,32768
2483,29952
2484,28160
2485,27520
2486,27776
2487,28608
2488,29632
2489,30720
2490,31744
2491,32576
2492,33280
2493,33792
2494,34176
2495,34368
2496,34432
2497,34432
2498,34432
2499,34432
2500,34304
2501,34240
2502,34176
2503,34112
2504,34048
2505,33984
2506,33984
2507,34048
2508,34048
2509,34048
2510,34048
2511,34048
2512,34112
2513,34112
2514,34112
2515,34176
2516,34176
2517,34176
2518,34176
2519,34304
2520,34368
2521,34368
2522,34304
2523,34304
2524,34304
2525,34304
2526,34368
2527,34368
2528,34304
2529,34240
2530,34176
2531,34176
2532,34176
2533,34112
2534,34048
2535,34048
2536,34048
2537,34048
2538,33984
2539,33920
2540,33920
2541,33920
2542,33856
2543,33792
2544,33792
2545,33792
2546,33728
2547,33664
2548,33664
2549,33664
2550,33600
2551,33536
2552,33600
2553,33600
2554,33536
2555,33536
2556,33600
2557,33664
2558,33664
2559,33664
2560,33664
2561,33728
2562,33792
2563,33856
2564,33856
2565,33856
2566,33920
2567,33920
2568,33920
2569,33920
2570,33920
2571,33920
2572,33920
2573,33920
2574,33920
2575,33920
2576,33920
2577,33856
2578,33920
2579,33920
2580,33856
2581,33856
2582,33920
2583,33984
2584,34048
2585,34112
2586,34176
2587,34176
2588,34176
2589,34176
2590,34240
2591,34240
2592,34176
2593,34112
2594,34176
2595,34176
2596,34112
2597,34048
2598,33984
2599,33920
2600,33792
2601,33792
2602,33792
2603,33856
2604,33856
2605,33792
2606,33664
2607,33536
2608,33472
2609,33408
2610,33408
2611,33472
2612,33536
2613,33536
2614,33600
2615,33664
2616,33728
2617,33728
2618,33728
2619,33728
2620,33792
2621,33728
2622,33856
2623,34240
2624,34944
2625,35968
2626,37504
2627,39552
2628,41792
2629,44032
2630,45184
2631,44544
2632,42304
2633,39168
2634,35456
2635,32000
2636,29440
2637,28032
2638,27648
2639,28160
2640,29056
2641,30080
2642,31104
2643,32064
2644,32832
2645,33472
2646,33920
2647,34176
2648,34368
2649,34496
2650,34496
2651,34432
2652,34368
2653,34368
2654,34304
2655,34240
2656,34176
2657,34176
2658,34176
2659,34112
2660,34112
2661,34112
2662,34176
2663,34176
2664,34176
2665,34176
2666,34240
2667,34240
2668,34240
2669,34304
2670,34368
2671,34368
2672,34368
2673,34432
2674,34432
2675,34432
2676,34432
2677,34432
2678,34432
2679,34432
2680,34368
2681,34368
2682,34432
2683,34368
2684,34368
2685,34304
2686,34304
2687,34240
2688,34176
2689,34112
2690,34112
2691,34112
2692,34048
2693,33984
2694,33920
2695,33920
2696,33856
2697,33792
2698,33728
2699,33664
2700,33600
2701,33472
2702,33472
2703,33472
2704,33472
2705,33472
2706,33472
2707,33472
2708,33472
2709,33536
2710,33536
2711,33600
2712,33664
2713,33664
2714,33664
2715,33728
2716,33728
2717,33728
2718,33728
2719,33792
2720,33856
2721,33856
2722,33856
2723,33856
2724,33856
2725,33856
2726,33856
2727,33856
2728,33856
2729,33856
2730,33792
2731,33792
2732,33792
2733,33792
2734,33792
2735,33792
2736,33792
2737,33792
2738,33792
2739,33792
2740,33792
2741,33856
2742,33792
2743,33792
2744,33792
2745,33856
2746,33792
2747,33792
2748,33792
2749,33792
2750,33792
2751,33792
2752,33856
2753,33920
2754,33920
2755,33920
2756,33856
2757,33856
2758,33920
2759,33920
2760,33920
2761,33920
2762,33920
2763,33920
2764,33920
2765,33984
2766,33984
2767,33984
2768,33920
2769,33984
2770,34048
2771,34048
2772,33984
2773,33984
2774,34048
2775,34048
2776,33984
2777,33984
2778,33984
2779,33984
2780,33984
2781,34048
2782,34048
2783,34048
2784,34048
2785,33984
2786,34048
2787,34048
2788,34048
2789,34048
2790,34048
2791,34112
2792,34048
2793,34112
2794,34112
2795,34112
2796,34048
2797,34048
2798,34112
2799,34240
2800,34368
2801,34432
2802,34432
2803,34496
2804,34496
2805,34496
2806,34432
2807,34432
2808,34496
2809,34432
2810,34368
2811,34368
2812,34304
2813,34176
2814,34112
2815,34112
2816,34048
2817,34048
2818,34048
2819,34048
2820,33984
2821,33856
2822,33728
2823,33664
2824,33728
2825,33728
2826,33728
2827,33792
2828,33856
2829,33920
2830,33920
2831,33920
2832,33984
2833,33920
2834,33920
2835,33920
2836,34048
2837,34368
2838,34944
2839,35904
2840,37376
2841,39360
2842,41536
2843,43776
2844,45440
2845,45376
2846,43456
2847,40448
2848,36800
2849,33152
2850,30144
2851,28288
2852,27584
2853,27840
2854,28608
2855,29632
2856,30720
2857,31808
2858,32704
2859,33408
2860,33856
2861,34240
2862,34496
2863,34560
2864,34624
2865,34624
2866,34560
2867,34496
2868,34368
2869,34368
2870,34304
2871,34176
2872,34112
2873,34048
2874,34112
2875,34048
2876,34048
2877,34048
2878,34112
2879,34112
2880,34048
2881,34048
2882,34112
2883,34176
2884,34176
2885,34240
2886,34304
2887,34368
2888,34304
2889,34304
2890,34304
2891,34368
2892,34304
2893,34304
2894,34368
2895,34368
2896,34368
2897,34304
2898,34304
2899,34368
2900,34304
2901,34304
2902,34240
2903,34240
2904,34240
2905,34240
2906,34240
2907,34240
2908,34304
2909,34240
2910,34240
2911,34176
2912,34176
2913,34112
2914,34048
2915,33984
2916,33984
2917,33920
2918,33792
2919,33792
2920,33728
2921,33728
2922,33664
2923,33664
2924,33728
2925,33792
2926,33728
2927,33792
2928,33856
2929,33856
2930,33856
2931,33920
2932,33920
2933,33920
2934,33920
2935,33920
2936,33984
2937,33984
2938,33984
2939,33984
2940,33984
2941,33984
2942,33984
2943,33984
2944,33920
2945,33920
2946,33920
2947,33856
2948,33856
2949,33856
2950,33856
2951,33856
2952,33856
2953,33856
2954,33920
2955,33856
2956,33856
2957,33856
2958,33856
2959,33856
2960,33856
2961,33856
2962,33856
2963,33856
2964,33792
2965,33856
2966,33856
2967,33792
2968,33792
2969,33792
2970,33856
2971,33856
2972,33856
2973,33856
2974,33920
2975,33856
2976,33856
2977,33856
2978,33920
2979,33920
2980,33856
2981,33856
2982,33920
2983,33920
2984,33920
2985,33920
2986,33920
2987,33984
2988,33984
2989,33984
2990,33984
2991,33984
2992,33984
2993,33984
2994,33984
2995,34048
2996,34112
2997,34240
2998,34368
2999,34432
3000,34432
3001,34432
3002,34368
3003,34368
3004,34368
3005,34368
3006,34368
3007,34368
3008,34368
3009,34304
3010,34176
3011,34176
3012,34112
3013,34048
3014,33984
3015,33984
3016,34048
3017,33984
3018,33856
3019,33728
3020,33664
3021,33664
3022,33664
3023,33664
3024,33728
3025,33728
3026,33792
3027,33792
3028,33856
3029,33920
3030,33920
3031,33920
3032,33856
3033,33920
3034,34112
3035,34624
3036,35520
3037,36736
3038,38528
3039,40640
3040,42880
3041,44736
3042,45184
3043,44032
3044,41536
3045,38336
3046,34752
3047,31424
3048,29120
3049,27840
3050,27712
3051,28224
3052,29184
3053,30272
3054,31360
3055,32256
3056,33088
3057,33728
3058,34176
3059,34432
3060,34560
3061,34624
3062,34624
3063,34560
3064,34496
3065,34432
3066,34368
3067,34304
3068,34176
3069,34112
3070,34112
3071,34112
3072,34048
3073,34048
3074,34048
3075,34112
3076,34048
3077,34112
3078,34176
3079,34176
3080,34176
3081,34176
3082,34240
3083,34304
3084,34304
3085,34304
3086,34368
3087,34432
3088,34368
3089,34368
3090,34432
3091,34432
3092,34368
3093,34368
3094,34368
3095,34368
3096,34368
3097,34304
3098,34304
3099,34304
3100,34240
3101,34240
3102,34240
3103,34240
3104,34240
3105,34176
3106,34176
3107,34176
3108,34112
3109,34112
3110,34048
3111,34048
3112,33984
3113,33920
3114,33792
3115,33728
3116,33728
3117,33728
3118,33664
3119,33600
3120,33600
3121,33600
3122,33664
3123,33664
3124,33728
3125,33792
3126,33792
3127,33792
3128,33856
3129,33920
3130,33920
3131,33920
3132,33920
3133,33984
3134,33984
3135,33984
3136,33984
3137,33984
3138,33984
3139,33920
3140,33920
3141,33984
3142,33984
3143,33920
3144,33920
3145,33920
3146,33920
3147,33856
3148,33856
3149,33920
3150,33920
3151,33856
3152,33856
3153,33920
3154,33920
3155,33856
3156,33856
3157,33856
3158,33856
3159,33856
3160,33792
3161,33856
3162,33856
3163,33856
3164,33856
3165,33856
3166,33920
3167,33920
3168,33920
3169,33920
3170,33920
3171,33920
3172,33856
3173,33856
3174,33920
3175,33920
3176,33920
3177,33920
3178,33920
3179,33984
3180,33920
3181,33920
3182,33920
3183,33984
3184,33984
3185,33920
3186,33984
3187,33984
3188,34112
3189,34240
3190,34368
3191,34432
3192,34368
3193,34368
3194,34368
3195,34368
3196,34368
3197,34304
3198,34368
3199,34432
3200,34368
3201,34240
3202,34176
3203,34112
3204,34048
3205,33984
3206,33984
3207,33984
3208,34048
3209,33984
3210,33920
3211,33856
3212,33728
3213,33600
3214,33536
3215,33536
3216,33664
3217,33728
3218,33728
3219,33792
3220,33856
3221,33920
3222,33920
3223,33856
3224,33920
3225,33856
3226,34432
3227,35136
3228,36352
3229,38016
3230,40064
3231,40448
3232,44544
3233,45504
3234,44672
3235,42368
3236,39104
3237,35456
3238,31936
3239,29312
3240,29056
3241,27520
3242,27968
3243,28864
3244,30016
3245,31104
3246,31296
3247,32896
3248,33536
3249,34048
3250,34368
3251,34496
3252,34624
3253,34624
3254,34624
3255,34560
3256,34432
3257,34368
3258,34304
3259,34176
3260,34176
3261,34112
3262,34112
3263,34048
3264,34048
3265,34048
3266,34112
3267,34048
3268,34048
3269,34112
3270,34112
3271,34112
3272,34112
3273,34176
3274,34176
3275,34240
3276,34240
3277,34304
3278,34368
3279,34304
3280,34304
3281,34368
3282,34368
3283,34432
3284,34368
3285,34368
3286,34368
3287,34304
3288,34304
3289,34240
3290,34240
3291,34176
3292,34176
3293,34176
3294,34176
3295,34112
3296,34112
3297,34048
3298,34048
3299,34048
3300,33984
3301,33984
3302,33920
3303,33856
3304,33792
3305,33728
3306,33728
3307,33728
3308,33664
3309,33600
3310,33600
3311,33600
3312,33600
3313,33600
3314,33600
3315,33664
3316,33728
3317,33728
3318,33728
3319,33792
3320,33856
3321,33856
3322,33856
3323,33920
3324,33920
3325,33920
3326,33920
3327,33984
3328,33984
3329,33920
3330,33920
3331,33920
3332,33920
3333,33920
3334,33856
3335,33856
3336,33920
3337,33920
3338,33856
3339,33856
3340,33856
3341,33856
3342,33792
3343,33792
3344,33792
3345,33792
3346,33792
3347,33792
3348,33792
3349,33856
3350,33856
3351,33856
3352,33856
3353,33856
3354,33856
3355,33792
3356,33856
3357,33856
3358,33856
3359,33856
3360,33856
3361,33920
3362,33920
3363,33920
3364,33920
3365,33984
3366,33984
3367,33920
3368,33920
3369,33920
3370,33920
3371,33920
3372,33920
3373,33920
3374,33920
3375,33920
3376,33920
3377,33984
3378,33984
3379,33984
3380,33984
3381,33984
3382,34048
3383,34048
3384,33984
3385,33984
3386,34048
3387,34048
3388,33984
3389,34048
3390,34048
3391,34048
3392,34048
3393,34048
3394,34048
3395,34112
3396,34048
3397,34112
3398,34112
3399,34240
3400,34304
3401,34368
3402,34432
3403,34496
3404,34496
3405,34432
3406,34432
3407,34432
3408,34432
3409,34432
3410,34432
3411,34432
3412,34368
3413,34240
3414,34176
3415,34176
3416,34112
3417,34048
3418,33984
3419,34048
3420,34112
3421,34048
3422,33856
3423,33792
3424,33728
3425,33664
3426,33664
3427,33728
3428,33792
3429,33856
3430,33856
3431,33984
3432,34048
3433,34048
3434,33984
3435,33920
3436,33984
3437,34304
3438,34816
3439,35712
3440,37312
3441,38976
3442,41088
3443,43392
3444,45248
3445,45504
3446,43968
3447,41152
3448,37568
3449,33920
3450,30720
3451,28608
3452,27648
3453,27776
3454,28480
3455,29632
3456,30592
3457,31680
3458,32640
3459,33344
3460,33856
3461,34240
3462,34496
3463,34624
3464,34688
3465,34688
3466,34624
3467,34496
3468,34432
3469,34368
3470,34304
3471,34176
3472,34176
3473,34112
3474,34112
3475,34048
3476,34048
3477,34048
3478,34048
3479,34048
3480,34048
3481,34112
3482,34176
3483,34240
3484,34240
3485,34240
3486,34304
3487,34304
3488,34304
3489,34304
3490,34304
3491,34368
3492,34368
3493,34368
3494,34432
3495,34368
3496,34368
3497,34304
3498,34304
3499,34304
3500,34240
3501,34240
3502,34240
3503,34240
3504,34240
3505,34176
3506,34176
3507,34176
3508,34240
3509,34176
3510,34176
3511,34240
3512,34176
3513,34112
3514,34112
3515,34112
3516,34048
3517,33920
3518,33856
3519,33856
3520,33856
3521,33792
3522,33728
3523,33728
3524,33728
3525,33792
3526,33728
3527,33792
3528,33792
3529,33856
3530,33856
3531,33920
3532,33984
3533,33984
3534,33984
3535,33984
3536,33984
3537,33984
3538,33984
3539,33984
3540,33984
3541,34048
3542,33984
3543,33984
3544,33984
3545,33984
3546,33984
3547,33984
3548,33984
3549,33984
3550,33984
3551,33920
3552,33920
3553,33920
3554,33920
3555,33920
3556,33920
3557,33984
3558,33920
3559,33856
3560,33856
3561,33856
3562,33856
3563,33856
3564,33856
3565,33920
3566,33920
3567,33920
3568,33920
3569,33920
3570,33984
3571,33920
3572,33920
3573,33920
3574,33920
3575,33984
3576,33920
3577,33984
3578,33984
3579,33920
3580,33920
3581,33984
3582,34048
3583,34048
3584,34048
3585,34048
3586,34048
3587,34112
3588,34048
3589,33984
3590,33984
3591,33984
3592,33984
3593,33984
3594,33984
3595,34048
3596,34048
3597,34112
3598,34240
3599,34432
3600,34432
3601,34432
3602,34432
3603,34432
3604,34368
3605,34368
3606,34368
3607,34496
3608,34496
3609,34432
3610,34368
3611,34304
3612,34240
3613,34176
3614,34112
3615,34112
3616,34112
3617,34048
3618,33984
3619,33920
3620,33792
3621,33728
3622,33664
3623,33664
3624,33728
3625,33728
3626,33792
3627,33856
3628,33920
3629,33984
3630,33984
3631,33984
3632,33984
3633,33920
3634,33984
3635,34176
3636,34688
3637,35520
3638,36800
3639,38592
3640,40768
3641,43008
3642,44800
3643,45056
3644,43840
3645,41408
3646,38144
3647,34560
3648,31360
3649,29056
3650,27776
3651,27584
3652,28224
3653,29184
3654,30336
3655,31360
3656,32384
3657,33216
3658,33856
3659,34240
3660,34496
3661,34688
3662,34688
3663,34688
3664,34560
3665,34560
3666,34432
3667,34368
3668,34304
3669,34240
3670,34176
3671,34112
3672,34112
3673,34048
3674,34112
3675,34048
3676,34048
3677,34048
3678,34112
3679,34112
3680,34112
3681,34112
3682,34176
3683,34176
3684,34176
3685,34240
3686,34240
3687,34304
3688,34304
3689,34368
3690,34368
3691,34368
3692,34368
3693,34304
3694,34368
3695,34368
3696,34304
3697,34240
3698,34240
3699,34176
3700,34176
3701,34176
3702,34176
3703,34176
3704,34176
3705,34112
3706,34112
3707,34112
3708,34112
3709,34112
3710,34112
3711,34112
3712,34112
3713,34112
3714,34048
3715,34048
3716,33984
3717,33920
3718,33792
3719,33792
3720,33792
3721,33792
3722,33792
3723,33792
3724,33856
3725,33856
3726,33792
3727,33792
3728,33856
3729,33920
3730,33920
3731,33920
3732,33984
3733,34048
3734,33984
3735,33984
3736,33984
3737,34048
3738,34048
3739,33984
3740,33984
3741,33984
3742,33984
3743,33984
3744,33984
3745,33984
3746,33984
3747,33984
3748,33920
3749,33920
3750,33920
3751,33856
3752,33856
3753,33856
3754,33856
3755,33856
3756,33856
3757,33920
3758,33920
3759,33920
3760,33856
3761,33920
3762,33920
3763,33920
3764,33984
3765,33984
3766,33984
3767,34112
3768,34176
3769,34368
3770,34432
3771,34432
3772,34368
3773,34368
3774,34368
3775,34368
3776,34368
3777,34368
3778,34368
3779,34368
3780,34304
3781,34176
3782,34112
3783,34048
3784,33984
3785,33984
3786,33984
3787,33984
3788,33920
3789,33792
3790,33664
3791,33600
3792,33536
3793,33536
3794,33600
3795,33664
3796,33728
3797,33792
3798,33856
3799,33920
3800,33920
3801,33920
3802,33856
3803,33856
3804,33856
3805,33984
3806,34304
3807,35072
3808,36160
3809,37888
3810,39808
3811,42112
3812,44224
3813,45248
3814,44544
3815,41600
3816,39296
3817,35776
3818,32256
3819,29568
3820,27968
3821,27520
3822,27904
3823,28800
3824,29952
3825,30976
3826,32000
3827,32832
3828,33536
3829,33984
3830,34368
3831,34496
3832,34560
3833,34560
3834,34560
3835,34496
3836,34432
3837,34368
3838,34304
3839,34176
3840,34112
3841,34112
3842,34048
3843,34048
3844,34048
3845,34048
3846,34048
3847,34048
3848,34048
3849,34112
3850,34112
3851,34176
3852,34176
3853,34240
3854,34240
3855,34240
3856,34240
3857,34304
3858,34304
3859,34304
3860,34304
3861,34304
3862,34304
3863,34304
3864,34240
3865,34304
3866,34304
3867,34240
3868,34176
3869,34176
3870,34112
3871,34112
3872,34048
3873,34048
3874,34048
3875,34048
3876,33984
3877,33984
3878,33984
3879,34048
3880,33984
3881,33984
3882,33984
3883,33984
3884,33920
3885,33920
3886,33856
3887,33792
3888,33728
3889,33664
3890,33664
3891,33664
3892,33664
3893,33664
3894,33664
3895,33728
3896,33728
3897,33792
3898,33856
3899,33856
3900,33920
3901,33856
3902,33856
3903,33920
3904,33920
3905,33920
3906,33920
3907,33920
3908,33920
3909,33920
3910,33920
3911,33920
3912,33920
3913,33920
3914,33856
3915,33856
3916,33856
3917,33856
3918,33792
3919,33792
3920,33792
3921,33792
3922,33792
3923,33792
3924,33792
3925,33856
3926,33792
3927,33792
3928,33792
3929,33792
3930,33792
3931,33792
3932,33856
3933,33856
3934,33792
3935,33856
3936,33856
3937,33920
3938,33920
3939,33920
3940,33920
3941,33920
3942,33920
3943,33920
3944,33920
3945,33920
3946,33984
3947,33920
3948,33920
3949,33984
3950,33984
3951,33920
3952,33920
3953,33984
3954,33984
3955,33984
3956,33984
3957,33984
3958,33984
3959,33984
3960,34048
3961,34176
3962,34368
3963,34432
3964,34432
3965,34432
3966,34432
3967,34368
3968,34304
3969,34304
3970,34368
3971,34432
3972,34368
3973,34304
3974,34304
3975,34240
3976,34112
3977,34048
3978,34048
3979,34048
3980,34048
3981,33984
3982,33984
3983,33920
3984,33792
3985,33664
3986,33600
3987,33600
3988,33600
3989,33664
3990,33728
3991,33856
3992,33856
3993,33856
3994,33920
3995,33984
3996,33920
3997,33856
3998,33984
3999,34304
4000,34880
4001,35840
4002,37312
4003,39232
4004,41472
4005,43712
4006,45376
4007,45312
4008,43520
4009,40512
4010,36864
4011,33152
4012,30208
4013,28288
4014,27584
4015,27840
4016,28672
4017,29696
4018,30784
4019,31808
4020,32704
4021,33408
4022,33856
4023,34240
4024,34496
4025,34624
4026,34624
4027,34560
4028,34560
4029,34496
4030,34432
4031,34304
4032,34240
4033,34176
4034,34112
4035,34048
4036,33984
4037,34048
4038,33984
4039,33984
4040,34048
4041,34048
4042,34048
4043,34048
4044,34112
4045,34176
4046,34176
4047,34176
4048,34176
4049,34176
4050,34240
4051,34176
4052,34176
4053,34240
4054,34240
4055,34240
4056,34176
4057,34176
4058,34240
4059,34176
4060,34176
4061,34112
4062,34112
4063,34112
4064,34048
4065,34048
4066,34048
4067,33984
4068,33984
4069,33984
4070,34048
4071,34048
4072,34048
4073,34048
4074,34112
4075,34176
4076,34112
4077,34112
4078,34112
4079,34048
4080,33984
4081,33920
4082,33856
4083,33856
4084,33792
4085,33792
4086,33728
4087,33792
4088,33792
4089,33792
4090,33856
4091,33920
4092,33920
4093,33920
4094,33920
4095,33984
4096,33984
4097,33920
4098,33920
4099,33920
4100,33984
4101,33984
4102,33984
4103,33984
4104,33984
4105,33984
4106,33920
4107,33920
4108,33920
4109,33920
4110,33920
4111,33920
4112,33920
4113,33920
4114,33856
4115,33856
4116,33920
4117,33920
4118,33920
4119,33856
4120,33920
4121,33856
4122,33856
4123,33792
4124,33856
4125,33856
4126,33856
4127,33856
4128,33920
4129,33920
4130,33920
4131,33920
4132,33984
4133,33984
4134,33984
4135,33920
4136,33984
4137,33984
4138,33984
4139,33984
4140,33984
4141,33984
4142,34048
4143,34048
4144,33984
4145,34048
4146,33984
4147,33984
4148,33984
4149,33984
4150,34048
4151,34048
4152,34048
4153,34048
4154,34176
4155,34240
4156,34368
4157,34432
4158,34496
4159,34496
4160,34496
4161,34432
4162,34432
4163,34432
4164,34432
4165,34496
4166,34432
4167,34432
4168,34304
4169,34240
4170,34176
4171,34112
4172,34048
4173,34048
4174,34048
4175,34048
4176,33984
4177,33856
4178,33728
4179,33728
4180,33664
4181,33664
4182,33728
4183,33856
4184,33920
4185,33920
4186,33920
4187,33984
4188,33984
4189,33984
4190,33984
4191,33984
4192,34176
4193,34560
4194,35328
4195,36544
4196,38272
4197,40384
4198,42624
4199,44672
4200,45248
4201,44160
4202,41728
4203,38528
4204,34944
4205,31040
4206,29184
4207,27904
4208,27712
4209,28224
4210,29184
4211,30272
4212,31360
4213,32320
4214,33152
4215,33728
4216,34176
4217,34496
4218,34624
4219,34624
4220,34688
4221,34624
4222,34560
4223,34432
4224,34368
4225,34368
4226,34240
4227,34176
4228,34112
4229,34112
4230,34048
4231,33984
4232,33984
4233,34048
4234,34048
4235,34112
4236,34112
4237,34176
4238,34176
4239,34176
4240,34176
4241,34176
4242,34176
4243,34176
4244,34176
4245,34240
4246,34240
4247,34240
4248,34240
4249,34240
4250,34240
4251,34176
4252,34112
4253,34112
4254,34112
4255,34048
4256,34048
4257,34048
4258,34048
4259,33984
4260,33984
4261,33920
4262,33984
4263,33984
4264,33984
4265,33984
4266,34048
4267,34112
4268,34112
4269,34112
4270,34176
4271,34176
4272,34112
4273,34112
4274,34048
4275,33984
4276,33920
4277,33920
4278,33920
4279,33920
4280,33856
4281,33856
4282,33856
4283,33920
4284,33920
4285,33920
4286,33984
4287,33984
4288,34048
4289,34048
4290,34048
4291,34048
4292,34048
4293,34048
4294,34048
4295,34048
4296,34048
4297,34048
4298,33984
4299,34048
4300,34048
4301,34048
4302,33984
4303,33984
4304,33984
4305,33920
4306,33920
4307,33920
4308,33920
4309,33920
4310,33920
4311,33920
4312,33984
4313,33984
4314,33920
4315,33920
4316,33920
4317,33920
4318,33984
4319,33984
4320,34112
4321,34240
4322,34304
4323,34304
4324,34368
4325,34368
4326,34368
4327,34304
4328,34304
4329,34368
4330,34368
4331,34368
4332,34368
4333,34368
4334,34240
4335,34112
4336,34048
4337,33984
4338,33984
4339,33920
4340,33856
4341,33856
4342,33792
4343,33664
4344,33536
4345,33536
4346,33600
4347,33600
4348,33664
4349,33728
4350,33792
4351,33856
4352,33856
4353,33920
4354,33920
4355,33856
4356,33792
4357,33792
4358,33984
4359,34304
4360,34880
4361,35904
4362,37504
4363,39424
4364,41600
4365,43776
4366,44864
4367,44416
4368,42432
4369,39552
4370,36160
4371,32768
4372,30016
4373,28352
4374,27776
4375,28032
4376,28864
4377,29888
4378,30976
4379,32000
4380,32960
4381,33472
4382,33984
4383,34368
4384,34560
4385,34624
4386,34688
4387,34624
4388,34560
4389,34496
4390,34368
4391,34304
4392,34304
4393,34176
4394,34112
4395,34048
4396,34048
4397,34048
4398,33984
4399,34048
4400,34112
4401,34112
4402,34112
4403,34176
4404,34240
4405,34240
4406,34176
4407,34176
4408,34112
4409,34112
4410,34112
4411,34112
4412,34176
4413,34240
4414,34240
4415,34240
4416,34240
4417,34240
4418,34240
4419,34176
4420,34176
4421,34176
4422,34112
4423,34048
4424,33984
4425,33984
4426,33984
4427,33920
4428,33920
4429,33920
4430,33920
4431,33984
4432,34048
4433,34048
4434,34112
4435,34112
4436,34112
4437,34112
4438,34112
4439,34048
4440,33920
4441,33920
4442,33920
4443,33856
4444,33856
4445,33856
4446,33920
4447,33920
4448,33920
4449,33920
4450,33984
4451,33984
4452,34048
4453,34112
4454,34176
4455,34176
4456,34112
4457,34112
4458,34176
4459,34176
4460,34176
4461,34112
4462,34112
4463,34112
4464,34112
4465,34112
4466,34048
4467,34048
4468,34048
4469,33984
4470,33984
4471,34048
4472,33984
4473,34048
4474,33984
4475,33920
4476,33856
4477,33792
4478,33792
4479,33792
4480,33792
4481,33792
4482,33856
4483,33856
4484,33856
4485,33856
4486,33856
4487,33856
4488,33856
4489,33856
4490,33856
4491,33856
4492,33856
4493,33856
4494,33856
4495,33920
4496,33984
4497,33984
4498,33984
4499,34048
4500,34112
4501,34176
4502,34304
4503,34368
4504,34432
4505,34432
4506,34368
4507,34368
4508,34368
4509,34368
4510,34368
4511,34368
4512,34368
4513,34368
4514,34368
4515,34304
4516,34176
4517,34112
4518,33984
4519,33920
4520,33984
4521,34048
4522,33984
4523,33920
4524,33856
4525,33728
4526,33664
4527,33600
4528,33536
4529,33664
4530,33728
4531,33792
4532,33856
4533,33920
4534,33984
4535,33984
4536,33920
4537,33984
4538,34048
4539,34112
4540,34304
4541,34880
4542,35904
4543,37376
4544,39296
4545,41536
4546,43840
4547,45312
4548,44992
4549,42944
4550,39872
4551,36224
4552,32640
4553,29824
4554,28224
4555,27712
4556,28032
4557,28864
4558,29952
4559,31040
4560,32128
4561,32896
4562,33536
4563,33984
4564,34304
4565,34496
4566,34560
4567,34560
4568,34496
4569,34432
4570,34368
4571,34304
4572,34240
4573,34176
4574,34112
4575,34048
4576,34112
4577,34048
4578,34048
4579,34112
4580,34112
4581,34112
4582,34176
4583,34176
4584,34240
4585,34112
4586,34048
4587,34112
4588,34304
4589,34240
4590,34112
4591,34048
4592,33984
4593,33984
4594,33984
4595,34048
4596,34112
4597,34048
4598,33984
4599,33984
4600,33984
4601,34048
4602,34048
4603,34048
4604,33984
4605,33920
4606,33792
4607,33920
4608,33920
4609,33792
4610,33472
4611,33344
4612,33280
4613,33344
4614,33472
4615,33600
4616,33728
4617,33920
4618,34048
4619,34048
4620,34176
4621,34240
4622,34176
4623,34048
4624,33920
4625,33920
4626,33984
4627,33984
4628,33984
4629,34048
4630,33984
4631,33920
4632,33920
4633,33920
4634,33984
4635,34048
4636,34048
4637,34176
4638,34240
4639,34240
4640,34304
4641,34368
4642,34368
4643,34368
4644,34368
4645,34304
4646,34304
4647,34240
4648,34048
4649,33920
4650,33792
4651,33728
4652,33664
4653,33664
4654,33728
4655,33792
4656,33920
4657,33984
4658,34048
4659,34112
4660,34112
4661,34048
4662,33984
4663,34048
4664,34112
4665,34240
4666,34368
4667,34496
4668,34496
4669,34368
4670,34176
4671,34048
4672,33984
4673,33920
4674,33920
4675,33984
4676,34048
4677,34112
4678,34176
4679,34240
4680,34240
4681,34240
4682,34240
4683,34304
4684,34368
4685,34368
4686,34368
4687,34496
4688,34560
4689,34496
4690,34496
4691,34624
4692,34688
4693,34624
4694,34560
4695,34624
4696,34688
4697,34688
4698,34560
4699,34432
4700,34368
4701,34432
4702,34304
4703,34176
4704,33984
4705,33856
4706,33728
4707,33664
4708,33664
4709,33728
4710,33664
4711,33600
4712,33600
4713,33664
4714,33728
4715,33792
4716,33984
4717,34176
4718,34176
4719,34112
4720,34048
4721,34048
4722,33984
4723,33792
4724,33600
4725,33792
4726,34176
4727,35072
4728,36480
4729,38400
4730,40704
4731,43136
4732,44736
4733,44800
4734,43392
4735,40768
4736,37440
4737,33856
4738,30720
4739,28608
4740,27648
4741,27712
4742,28416
4743,29376
4744,30400
4745,31488
4746,32448
4747,33152
4748,33664
4749,34112
4750,34368
4751,34496
4752,34496
4753,34496
4754,34560
4755,34560
4756,34368
4757,34240
4758,34176
4759,34176
4760,34176
4761,34048
4762,34048
4763,34112
4764,34112
4765,34048
4766,34112
4767,34112
4768,34048
4769,34048
4770,33984
4771,33984
4772,34048
4773,34176
4774,34240
4775,34368
4776,34368
4777,34368
4778,34432
4779,34496
4780,34432
4781,34368
4782,34304
4783,34304
4784,34304
4785,34240
4786,34112
4787,34048
4788,34048
4789,34048
4790,34048
4791,33984
4792,33856
4793,33792
4794,33728
4795,33664
4796,33664
4797,33728
4798,33856
4799,33920
4800,33984
4801,34048
4802,34048
4803,34112
4804,34112
4805,33984
4806,33856
4807,33856
4808,33856
4809,33920
4810,33856
4811,33728
4812,33664
4813,33600
4814,33664
4815,33664
4816,33664
4817,33664
4818,33664
4819,33664
4820,33728
4821,33856
4822,33920
4823,33920
4824,33920
4825,33984
4826,33984
4827,33984
4828,33920
4829,33920
4830,33984
4831,33984
4832,33920
4833,33920
4834,33920
4835,33920
4836,33856
4837,33920
4838,33920
4839,33920
4840,33920
4841,33984
4842,33984
4843,33920
4844,33856
4845,33856
4846,33856
4847,33920
4848,33856
4849,33856
4850,33984
4851,34176
4852,34176
4853,34112
4854,34112
4855,34176
4856,34176
4857,34112
4858,34048
4859,34112
4860,34176
4861,34112
4862,34176
4863,34240
4864,34176
4865,34112
4866,34048
4867,34048
4868,33984
4869,33856
4870,33792
4871,33792
4872,33664
4873,33472
4874,33408
4875,33472
4876,33600
4877,33664
4878,33664
4879,33664
4880,33664
4881,33664
4882,33664
4883,33728
4884,33792
4885,33792
4886,33728
4887,33728
4888,33920
4889,34304
4890,34944
4891,35968
4892,37568
4893,39552
4894,41664
4895,43712
4896,44672
4897,44032
4898,42048
4899,39104
4900,35712
4901,32384
4902,29824
4903,28288
4904,27840
4905,28224
4906,28992
4907,29888
4908,30912
4909,31936
4910,32768
4911,33408
4912,33856
4913,34240
4914,34432
4915,34496
4916,34560
4917,34688
4918,34688
4919,34560
4920,34368
4921,34304
4922,34176
4923,34048
4924,34048
4925,34048
4926,34048
4927,34048
4928,34048
4929,34112
4930,34240
4931,34304
4932,34368
4933,34368
4934,34368
4935,34304
4936,34176
4937,34112
4938,34112
4939,34048
4940,33984
4941,33984
4942,34048
4943,34048
4944,34112
4945,34112
4946,34240
4947,34240
4948,34112
4949,34048
4950,33984
4951,33984
4952,33920
4953,33856
4954,33856
4955,33856
4956,33856
4957,33856
4958,33856
4959,33920
4960,33984
4961,33920
4962,33984
4963,33984
4964,34048
4965,34048
4966,34048
4967,34048
4968,34048
4969,33984
4970,33984
4971,34048
4972,34112
4973,34112
4974,34048
4975,34048
4976,33984
4977,33920
4978,33792
4979,33728
4980,33792
4981,33792
4982,33792
4983,33792
4984,33792
4985,33856
4986,33984
4987,34112
4988,34176
4989,34240
4990,34240
4991,34368
4992,34560
4993,34752
4994,34816
4995,34752
4996,34688
4997,34624
4998,34432
4999,34368
5000,34304
5001,34176
5002,34112
5003,34048
5004,34112
5005,34240
5006,34304
5007,34240
5008,34240
5009,34304
5010,34240
5011,34176
5012,34176
5013,34240
5014,34368
5015,34368
5016,34368
5017,34304
5018,34240
5019,34112
5020,33984
5021,33984
5022,33984
5023,33984
5024,33984
5025,33920
5026,33856
5027,33728
5028,33600
5029,33600
5030,33600
5031,33728
5032,33728
5033,33792
5034,33856
5035,33920
5036,33920
5037,33920
5038,33984
5039,34048
5040,33984
5041,33984
5042,34624
5043,35264
5044,36352
5045,38016
5046,38272
5047,42176
5048,44160
5049,44928
5050,44032
5051,41792
5052,38720
5053,35200
5054,32064
5055,29632
5056,28224
5057,27904
5058,28416
5059,29312
5060,30272
5061,31360
5062,32320
5063,33088
5064,33664
5065,34112
5066,34432
5067,34560
5068,34624
5069,34560
5070,34496
5071,34432
5072,34368
5073,34304
5074,34176
5075,34176
5076,34112
5077,33984
5078,33920
5079,33984
5080,33984
5081,33984
5082,33984
5083,34048
5084,34048
5085,34048
5086,34048
5087,34112
5088,34112
5089,34112
5090,34112
5091,34112
5092,34176
5093,34176
5094,34112
5095,34112
5096,34176
5097,34112
5098,34112
5099,34048
5100,34112
5101,34048
5102,33984
5103,33920
5104,33920
5105,33920
5106,33792
5107,33728
5108,33792
5109,33792
5110,33792
5111,33728
5112,33792
5113,33856
5114,33856
5115,33856
5116,33920
5117,33920
5118,33984
5119,33984
5120,33984
5121,33984
5122,33920
5123,33856
5124,33856
5125,33856
5126,33856
5127,33792
5128,33792
5129,33856
5130,33856
5131,33920
5132,33920
5133,33920
5134,33920
5135,33920
5136,33856
5137,33984
5138,33984
5139,33984
5140,33984
5141,33984
5142,34048
5143,33984
5144,33984
5145,33984
5146,34048
5147,33984
5148,33984
5149,33920
5150,33920
5151,33920
5152,33856
5153,33856
5154,33856
5155,33920
5156,33856
5157,33792
5158,33792
5159,33792
5160,33792
5161,33792
5162,33856
5163,33920
5164,33984
5165,34112
5166,34240
5167,34304
5168,34240
5169,34240
5170,34240
5171,34304
5172,34304
5173,34304
5174,34304
5175,34304
5176,34304
5177,34176
5178,34112
5179,33984
5180,33920
5181,33856
5182,33792
5183,33792
5184,33856
5185,33792
5186,33728
5187,33664
5188,33600
5189,33536
5190,33536
5191,33664
5192,33728
5193,33728
5194,33792
5195,33856
5196,33920
5197,33920
5198,33920
5199,33920
5200,33920
5201,33920
5202,34048
5203,34496
5204,35200
5205,36224
5206,37760
5207,39744
5208,42048
5209,44224
5210,45248
5211,44416
5212,42048
5213,38848
5214,35200
5215,31808
5216,29312
5217,27904
5218,27648
5219,28160
5220,29056
5221,30144
5222,31232
5223,32128
5224,32960
5225,33600
5226,34048
5227,34304
5228,34496
5229,34560
5230,34560
5231,34496
5232,34432
5233,34368
5234,34304
5235,34176
5236,34048
5237,34048
5238,34048
5239,33984
5240,33920
5241,33920
5242,33984
5243,34048
5244,34048
5245,34048
5246,34048
5247,34112
5248,34112
5249,34112
5250,34176
5251,34176
5252,34112
5253,34112
5254,34176
5255,34176
5256,34176
5257,34112
5258,34112
5259,34112
5260,34048
5261,33984
5262,33920
5263,33920
5264,33920
5265,33856
5266,33792
5267,33856
5268,33792
5269,33792
5270,33792
5271,33792
5272,33792
5273,33792
5274,33856
5275,33920
5276,34048
5277,34048
5278,34112
5279,34176
5280,34240
5281,34176
5282,34176
5283,34112
5284,34112
5285,34048
5286,33984
5287,33984
5288,33984
5289,33984
5290,33920
5291,33920
5292,33984
5293,33984
5294,33984
5295,33984
5296,34048
5297,34048
5298,34048
5299,34048
5300,34112
5301,34112
5302,34112
5303,34048
5304,34048
5305,34048
5306,33984
5307,33984
5308,34048
5309,34048
5310,33984
5311,33984
5312,33984
5313,33984
5314,33920
5315,33920
5316,33856
5317,33920
5318,33920
5319,33856
5320,33792
5321,33856
5322,33920
5323,33920
5324,33920
5325,33920
5326,33920
5327,33920
5328,33920
5329,33984
5330,33984
5331,33984
5332,33984
5333,33984
5334,34048
5335,33984
5336,33984
5337,33984
5338,33984
5339,34048
5340,33984
5341,33984
5342,34048
5343,34048
5344,33984
5345,33984
5346,34048
5347,34112
5348,34176
5349,34368
5350,34496
5351,34560
5352,34560
5353,34496
5354,34496
5355,34432
5356,34368
5357,34368
5358,34432
5359,34432
5360,34304
5361,34304
5362,34240
5363,34240
5364,34176
5365,34048
5366,34048
5367,34048
5368,34048
5369,33984
5370,33856
5371,33792
5372,33664
5373,33600
5374,33600
5375,33664
5376,33728
5377,33792
5378,33856
5379,33920
5380,33984
5381,33984
5382,33984
5383,33984
5384,33984
5385,33984
5386,34048
5387,34368
5388,35008
5389,36032
5390,37632
5391,39488
5392,41728
5393,43968
5394,45312
5395,44800
5396,42816
5397,39808
5398,36224
5399,32448
5400,29888
5401,28224
5402,27648
5403,27968
5404,28864
5405,30016
5406,30976
5407,31936
5408,32832
5409,33536
5410,33984
5411,34304
5412,34496
5413,34624
5414,34624
5415,34560
5416,34560
5417,34496
5418,34368
5419,34304
5420,34240
5421,34176
5422,34112
5423,34048
5424,33984
5425,34048
5426,34048
5427,33984
5428,33984
5429,34048
5430,34048
5431,34048
5432,34048
5433,34112
5434,34176
5435,34112
5436,34112
5437,34112
5438,34176
5439,34176
5440,34112
5441,34112
5442,34112
5443,34112
5444,34048
5445,33984
5446,33920
5447,33920
5448,33792
5449,33728
5450,33728
5451,33728
5452,33664
5453,33664
5454,33728
5455,33792
5456,33856
5457,33856
5458,33920
5459,34048
5460,34112
5461,34112
5462,34240
5463,34304
5464,34368
5465,34368
5466,34368
5467,34304
5468,34304
5469,34240
5470,34176
5471,34176
5472,34176
5473,34112
5474,34048
5475,34112
5476,34112
5477,34112
5478,34048
5479,34112
5480,34112
5481,34112
5482,34112
5483,34048
5484,34048
5485,34048
5486,34048
5487,34048
5488,34112
5489,34112
5490,34112
5491,34048
5492,34048
5493,34048
5494,34048
5495,34048
5496,34048
5497,34048
5498,33984
5499,33984
5500,33984
5501,33984
5502,33984
5503,33984
5504,33984
5505,33984
5506,33984
5507,33984
5508,33984
5509,33984
5510,33984
5511,33920
5512,33920
5513,33984
5514,33984
5515,33984
5516,33984
5517,34048
5518,34112
5519,34112
5520,34112
5521,34176
5522,34176
5523,34176
5524,34176
5525,34304
5526,34432
5527,34496
5528,34496
5529,34496
5530,34560
5531,34496
5532,34432
5533,34432
5534,34560
5535,34560
5536,34496
5537,34496
5538,34432
5539,34368
5540,34176
5541,34112
5542,34112
5543,34112
5544,34048
5545,33984
5546,33984
5547,33856
5548,33728
5549,33600
5550,33600
5551,33664
5552,33728
5553,33728
5554,33792
5555,33920
5556,33920
5557,33856
5558,33920
5559,33984
5560,33984
5561,33920
5562,33920
5563,34176
5564,34624
5565,35264
5566,36480
5567,38272
5568,40320
5569,42560
5570,44672
5571,44928
5572,43840
5573,41536
5574,38336
5575,34880
5576,31680
5577,29312
5578,27968
5579,27712
5580,28288
5581,29184
5582,30272
5583,31360
5584,32384
5585,33152
5586,33728
5587,34176
5588,34496
5589,34688
5590,34752
5591,34688
5592,34688
5593,34624
5594,34496
5595,34368
5596,34304
5597,34240
5598,34176
5599,34112
5600,34048
5601,34048
5602,34048
5603,33984
5604,34048
5605,34048
5606,34048
5607,34048
5608,34048
5609,34112
5610,34112
5611,34112
5612,34112
5613,34176
5614,34176
5615,34112
5616,34048
5617,34048
5618,34048
5619,33984
5620,33920
5621,33920
5622,33920
5623,33856
5624,33792
5625,33792
5626,33792
5627,33792
5628,33728
5629,33728
5630,33728
5631,33728
5632,33728
5633,33792
5634,33856
5635,33920
5636,33984
5637,34048
5638,34176
5639,34240
5640,34304
5641,34304
5642,34304
5643,34368
5644,34304
5645,34304
5646,34240
5647,34240
5648,34176
5649,34048
5650,34048
5651,34048
5652,33984
5653,33984
5654,33984
5655,33984
5656,34048
5657,34048
5658,34048
5659,34112
5660,34176
5661,34112
5662,34112
5663,34112
5664,34112
5665,34112
5666,34112
5667,34112
5668,34112
5669,34112
5670,34048
5671,34048
5672,34048
5673,34048
5674,33920
5675,33920
5676,33920
5677,33920
5678,33920
5679,33920
5680,33984
5681,33920
5682,33920
5683,33920
5684,33984
5685,33984
5686,34048
5687,34176
5688,34368
5689,34496
5690,34496
5691,34496
5692,34496
5693,34432
5694,34368
5695,34368
5696,34368
5697,34432
5698,34368
5699,34368
5700,34240
5701,34176
5702,34112
5703,33984
5704,33920
5705,33920
5706,33920
5707,33856
5708,33728
5709,33664
5710,33600
5711,33536
5712,33472
5713,33600
5714,33664
5715,33664
5716,33728
5717,33792
5718,33920
5719,33920
5720,33920
5721,33920
5722,33920
5723,33856
5724,33856
5725,34112
5726,34624
5727,35520
5728,36864
5729,38720
5730,40896
5731,43200
5732,44864
5733,44992
5734,43520
5735,40896
5736,37504
5737,33920
5738,30784
5739,28672
5740,27712
5741,27776
5742,28480
5743,29504
5744,30592
5745,31616
5746,32512
5747,33280
5748,33792
5749,34176
5750,34432
5751,34560
5752,34560
5753,34496
5754,34496
5755,34432
5756,34368
5757,34240
5758,34176
5759,34112
5760,34048
5761,33984
5762,33984
5763,33984
5764,34048
5765,34048
5766,33984
5767,34048
5768,34112
5769,34112
5770,34048
5771,34048
5772,34112
5773,34048
5774,34048
5775,34048
5776,34112
5777,34112
5778,34048
5779,34048
5780,34048
5781,33984
5782,33920
5783,33856
5784,33856
5785,33856
5786,33728
5787,33728
5788,33664
5789,33728
5790,33664
5791,33664
5792,33728
5793,33728
5794,33728
5795,33728
5796,33792
5797,33920
5798,33984
5799,34048
5800,34112
5801,34240
5802,34240
5803,34176
5804,34112
5805,34176
5806,34112
5807,34048
5808,34048
5809,34048
5810,34048
5811,34048
5812,33984
5813,34048
5814,34048
5815,33984
5816,33984
5817,34048
5818,34048
5819,34048
5820,34048
5821,34048
5822,34112
5823,34048
5824,33984
5825,33984
5826,33984
5827,33984
5828,33920
5829,33984
5830,33984
5831,33984
5832,33920
5833,33920
5834,33984
5835,33984
5836,33920
5837,33920
5838,33920
5839,33920
5840,33920
5841,33856
5842,33856
5843,33856
5844,33856
5845,33856
5846,33920
5847,33984
5848,33984
5849,33984
5850,33984
5851,33984
5852,33984
5853,33920
5854,33920
5855,33984
5856,33984
5857,33984
5858,33920
5859,33984
5860,34048
5861,34048
5862,34048
5863,34048
5864,34048
5865,34048
5866,34048
5867,34048
5868,34112
5869,34048
5870,34048
5871,34112
5872,34240
5873,34432
5874,34496
5875,34560
5876,34624
5877,34560
5878,34432
5879,34432
5880,34432
5881,34496
5882,34496
5883,34496
5884,34432
5885,34368
5886,34240
5887,34112
5888,34048
5889,34048
5890,33984
5891,33984
5892,34048
5893,34048
5894,33856
5895,33728
5896,33600
5897,33600
5898,33664
5899,33664
5900,33728
5901,33856
5902,33920
5903,33920
5904,33920
5905,33984
5906,34048
5907,33984
5908,33920
5909,33984
5910,34240
5911,34816
5912,35712
5913,37248
5914,39168
5915,41472
5916,43776
5917,45440
5918,45376
5919,43584
5920,40576
5921,36928
5922,33216
5923,30208
5924,28288
5925,27584
5926,27904
5927,28736
5928,29760
5929,30848
5930,32256
5931,32768
5932,33408
5933,33856
5934,34176
5935,34432
5936,34496
5937,34560
5938,34560
5939,34560
5940,34496
5941,34368
5942,34304
5943,34240
5944,34176
5945,34112
5946,34048
5947,34048
5948,34048
5949,34048
5950,34048
5951,34048
5952,34112
5953,34048
5954,34048
5955,34112
5956,34048
5957,34048
5958,34048
5959,34112
5960,34112
5961,34112
5962,34048
5963,34048
5964,34048
5965,34048
5966,34048
5967,34048
5968,34112
5969,34048
5970,33920
5971,33856
5972,33856
5973,33792
5974,33664
5975,33664
5976,33664
5977,33728
5978,33728
5979,33792
5980,33856
5981,33920
5982,34048
5983,34112
5984,34240
5985,34304
5986,34368
5987,34368
5988,34432
5989,34432
5990,34432
5991,34432
5992,34432
5993,34496
5994,34496
5995,34496
5996,34368
5997,34304
5998,34176
5999,34112
6000,34112
6001,34176
6002,34176
6003,34176
6004,34112
6005,34112
6006,34112
6007,34048
6008,34112
6009,34112
6010,34176
6011,34176
6012,34176
6013,34240
6014,34304
6015,34240
6016,34112
6017,33984
6018,34048
6019,34048
6020,33984
6021,33984
6022,34048
6023,34048
6024,33984
6025,33920
6026,33984
6027,33984
6028,33984
6029,33984
6030,33984
6031,33984
6032,34048
6033,34048
6034,34176
6035,34304
6036,34240
6037,34176
6038,34112
6039,34112
6040,34112
6041,34112
6042,34176
6043,34240
6044,34240
6045,34176
6046,34240
6047,34176
6048,34112
6049,33856
6050,33728
6051,33728
6052,33856
6053,33920
6054,34112
6055,34240
6056,34304
6057,34368
6058,34432
6059,34496
6060,34624
6061,34752
6062,34816
6063,34880
6064,34944
6065,35008
6066,34944
6067,34944
6068,35008
6069,35072
6070,35008
6071,34816
6072,34560
6073,34240
6074,33984
6075,33856
6076,33920
6077,33984
6078,34048
6079,34176
6080,34304
6081,34368
6082,34304
6083,34240
6084,34240
6085,34176
6086,34048
6087,34112
6088,34176
6089,34368
6090,34880
6091,35328
6092,35392
6093,34816
6094,33984
6095,33024
6096,32832
6097,32896
6098,33408
6099,34112
6100,35392
6101,37056
6102,39232
6103,41536
6104,43904
6105,45184
6106,44800
6107,42944
6108,40128
6109,36736
6110,33152
6111,30400
6112,28544
6113,27840
6114,28096
6115,28864
6116,30016
6117,31296
6118,32320
6119,33152
6120,33984
6121,34240
6122,34176
6123,33984
6124,33920
6125,33920
6126,33856
6127,33856
6128,33920
6129,33920
6130,33984
6131,33984
6132,33984
6133,33984
6134,34048
6135,33984
6136,33984
6137,33984
6138,34048
6139,33984
6140,33856
6141,33792
6142,33984
6143,34304
6144,34432
6145,34304
6146,34112
6147,33984
6148,33984
6149,33984
6150,33984
6151,33984
6152,34048
6153,34048
6154,33984
6155,33984
6156,33984
6157,33920
6158,33920
6159,33920
6160,33920
6161,33856
6162,33728
6163,33792
6164,33920
6165,33984
6166,33920
6167,33920
6168,33984
6169,34048
6170,34176
6171,34176
6172,34304
6173,34368
6174,34432
6175,34432
6176,34368
6177,34368
6178,34304
6179,34176
6180,34176
6181,34368
6182,34496
6183,34688
6184,34624
6185,34240
6186,34048
6187,33920
6188,33920
6189,33920
6190,33984
6191,34048
6192,34048
6193,34112
6194,34176
6195,34176
6196,34048
6197,34112
6198,34048
6199,34048
6200,34048
6201,34048
6202,34112
6203,33984
6204,33920
6205,34048
6206,34304
6207,34176
6208,33920
6209,33728
6210,33664
6211,33536
6212,33472
6213,33536
6214,33728
6215,33984
6216,34112
6217,34304
6218,34304
6219,34304
6220,34240
6221,34240
6222,34304
6223,34368
6224,34496
6225,34432
6226,34496
6227,34560
6228,34560
6229,34432
6230,34368
6231,34304
6232,34176
6233,33984
6234,33920
6235,33856
6236,33792
6237,33728
6238,33664
6239,33728
6240,33792
6241,33792
6242,33920
6243,34112
6244,34176
6245,34048
6246,33920
6247,33984
6248,34176
6249,34240
6250,34176
6251,34176
6252,34240
6253,34368
6254,34688
6255,35520
6256,36864
6257,38592
6258,40640
6259,42752
6260,44288
6261,44288
6262,42752
6263,40256
6264,37056
6265,33408
6266,30272
6267,28224
6268,27392
6269,27584
6270,28416
6271,29440
6272,30720
6273,31872
6274,32704
6275,33216
6276,33664
6277,34048
6278,34368
6279,34496
6280,34688
6281,34880
6282,34752
6283,34560
6284,34368
6285,34176
6286,34048
6287,33856
6288,33728
6289,33792
6290,33920
6291,33920
6292,33920
6293,33920
6294,33984
6295,34176
6296,34240
6297,34304
6298,34240
6299,34240
6300,34240
6301,34304
6302,34368
6303,34368
6304,34368
6305,34368
6306,34304
6307,34176
6308,33984
6309,33856
6310,33856
6311,33984
6312,34112
6313,34176
6314,34112
6315,33984
6316,33856
6317,33792
6318,33728
6319,33664
6320,33664
6321,33600
6322,33600
6323,33728
6324,33984
6325,34048
6326,33920
6327,33792
6328,33792
6329,33792
6330,33856
6331,33920
6332,34048
6333,34048
6334,34048
6335,34048
6336,34048
6337,33984
6338,33920
6339,33984
6340,33984
6341,33920
6342,33856
6343,33856
6344,33984
6345,33920
6346,33984
6347,34048
6348,34112
6349,34048
6350,34048
6351,34048
6352,34176
6353,34368
6354,34432
6355,34304
6356,34048
6357,33792
6358,33792
6359,33920
6360,34176
6361,34304
6362,34304
6363,34240
6364,34176
6365,34240
6366,34240
6367,34304
6368,34368
6369,34496
6370,34560
6371,34688
6372,34688
6373,34624
6374,34368
6375,34048
6376,33856
6377,33792
6378,33792
6379,33856
6380,33920
6381,33984
6382,33792
6383,33536
6384,33408
6385,33472
6386,33536
6387,33536
6388,33728
6389,33920
6390,33984
6391,33856
6392,33920
6393,33984
6394,34048
6395,33984
6396,33920
6397,33984
6398,34112
6399,34560
6400,35328
6401,36672
6402,38528
6403,40640
6404,42944
6405,44800
6406,45056
6407,43840
6408,41280
6409,37888
6410,34240
6411,30848
6412,28864
6413,27776
6414,27776
6415,28480
6416,29504
6417,30464
6418,31488
6419,32384
6420,33152
6421,33728
6422,34112
6423,34368
6424,34496
6425,34624
6426,34688
6427,34624
6428,34560
6429,34432
6430,34368
6431,34432
6432,34432
6433,34112
6434,33856
6435,33792
6436,33856
6437,34048
6438,34112
6439,33984
6440,33856
6441,33792
6442,33792
6443,33856
6444,33984
6445,34112
6446,34048
6447,34048
6448,34048
6449,34048
6450,34112
6451,34112
6452,34176
6453,34240
6454,34176
6455,34048
6456,33984
6457,33984
6458,33920
6459,33792
6460,33664
6461,33536
6462,33536
6463,33536
6464,33536
6465,33536
6466,33536
6467,33664
6468,33792
6469,33856
6470,33792
6471,33856
6472,34048
6473,34176
6474,34304
6475,34304
6476,34240
6477,34176
6478,34176
6479,34112
6480,33920
6481,33856
6482,33920
6483,33984
6484,34048
6485,34112
6486,34048
6487,33984
6488,33920
6489,34048
6490,34176
6491,34176
6492,34176
6493,34304
6494,34240
6495,34304
6496,34240
6497,34048
6498,33920
6499,33728
6500,33600
6501,33664
6502,33792
6503,33920
6504,34048
6505,34176
6506,34240
6507,34368
6508,34496
6509,34624
6510,34624
6511,34560
6512,34624
6513,34688
6514,34624
6515,34496
6516,34304
6517,34112
6518,33984
6519,33984
6520,33984
6521,34048
6522,34176
6523,34112
6524,33792
6525,33536
6526,33536
6527,33728
6528,33920
6529,33984
6530,33856
6531,33664
6532,33664
6533,33664
6534,33792
6535,33984
6536,34112
6537,34240
6538,34368
6539,34304
6540,34304
6541,34560
6542,35200
6543,36416
6544,38016
6545,40000
6546,42304
6547,44032
6548,44416
6549,43136
6550,40640
6551,37504
6552,33920
6553,30784
6554,28736
6555,28032
6556,28416
6557,29248
6558,30080
6559,30976
6560,31936
6561,32896
6562,33600
6563,34112
6564,34368
6565,34560
6566,34624
6567,34688
6568,34816
6569,34816
6570,34496
6571,34368
6572,34368
6573,34304
6574,34112
6575,34112
6576,34048
6577,34048
6578,33984
6579,34048
6580,34112
6581,34240
6582,34368
6583,34432
6584,34496
6585,34496
6586,34496
6587,34304
6588,34112
6589,34176
6590,34368
6591,34304
6592,34240
6593,34176
6594,34240
6595,34176
6596,34112
6597,34176
6598,34240
6599,34368
6600,34496
6601,34368
6602,34176
6603,34048
6604,33984
6605,34112
6606,34176
6607,34240
6608,34304
6609,34240
6610,34368
6611,34432
6612,34432
6613,34368
6614,34304
6615,34304
6616,34368
6617,34304
6618,34368
6619,34432
6620,34432
6621,34304
6622,34240
6623,34240
6624,34176
6625,34112
6626,34240
6627,34368
6628,34368
6629,34176
6630,33984
6631,33920
6632,33856
6633,33856
6634,33728
6635,33728
6636,33664
6637,33600
6638,33536
6639,33600
6640,33664
6641,33728
6642,33600
6643,33600
6644,33600
6645,33728
6646,33856
6647,33984
6648,34112
6649,34368
6650,34368
6651,34048
6652,33984
6653,33792
6654,33792
6655,33792
6656,33856
6657,33920
6658,34048
6659,34048
6660,33920
6661,33856
6662,33664
6663,33600
6664,33664
6665,33792
6666,34048
6667,33792
6668,33472
6669,33152
6670,33088
6671,33152
6672,33344
6673,33472
6674,33472
6675,33408
6676,33408
6677,33536
6678,33664
6679,33728
6680,33792
6681,33920
6682,33984
6683,33920
6684,34048
6685,34432
6686,35264
6687,36224
6688,37632
6689,39552
6690,41728
6691,43456
6692,43840
6693,42560
6694,40192
6695,37056
6696,33344
6697,30592
6698,28672
6699,27904
6700,28096
6701,28928
6702,30016
6703,31040
6704,32000
6705,32960
6706,33600
6707,33792
6708,33984
6709,34240
6710,34304
6711,34432
6712,34560
6713,34752
6714,34816
6715,34496
6716,34176
6717,34048
6718,34048
6719,34048
6720,34048
6721,34112
6722,34048
6723,34048
6724,33984
6725,33984
6726,34048
6727,34112
6728,34176
6729,34112
6730,33984
6731,34176
6732,34304
6733,34112
6734,33984
6735,33920
6736,33984
6737,33984
6738,34048
6739,34112
6740,34112
6741,34048
6742,33856
6743,33728
6744,33728
6745,33792
6746,33920
6747,33856
6748,33664
6749,33472
6750,33600
6751,33856
6752,33792
6753,33600
6754,33536
6755,33536
6756,33600
6757,33728
6758,33920
6759,33984
6760,34112
6761,34176
6762,34176
6763,34112
6764,33984
6765,33984
6766,33856
6767,33728
6768,33664
6769,33728
6770,33664
6771,33472
6772,33344
6773,33344
6774,33408
6775,33472
6776,33408
6777,33536
6778,33536
6779,33536
6780,33536
6781,33408
6782,33472
6783,33472
6784,33472
6785,33536
6786,33600
6787,33536
6788,33408
6789,33344
6790,33344
6791,33344
6792,33344
6793,33472
6794,33664
6795,33792
6796,33792
6797,33792
6798,33792
6799,33792
6800,33792
6801,33920
6802,34048
6803,34112
6804,34048
6805,33984
6806,33856
6807,33728
6808,33600
6809,33472
6810,33408
6811,33408
6812,33408
6813,33472
6814,33536
6815,33536
6816,33408
6817,33216
6818,33152
6819,33152
6820,33216
6821,33216
6822,33280
6823,33344
6824,33472
6825,33664
6826,33728
6827,33792
6828,33728
6829,33600
6830,33600
6831,33728
6832,34048
6833,34688
6834,35904
6835,37696
6836,40064
6837,42560
6838,44736
6839,45440
6840,44416
6841,41984
6842,38592
6843,34816
6844,31360
6845,28800
6846,27328
6847,26944
6848,27520
6849,28608
6850,29760
6851,30976
6852,32000
6853,32832
6854,33408
6855,33856
6856,34112
6857,34304
6858,34304
6859,34304
6860,34240
6861,34240
6862,34048
6863,33984
6864,33984
6865,33984
6866,33856
6867,33856
6868,33856
6869,33792
6870,33792
6871,33728
6872,33792
6873,33792
6874,33792
6875,33792
6876,33728
6877,33792
6878,33792
6879,33792
6880,33792
6881,33792
6882,33728
6883,33600
6884,33600
6885,33600
6886,33536
6887,33408
6888,33344
6889,33344
6890,33344
6891,33280
6892,33216
6893,33216
6894,33216
6895,33216
6896,33280
6897,33344
6898,33408
6899,33472
6900,33536
6901,33664
6902,33856
6903,33984
6904,34048
6905,34112
6906,34112
6907,34240
6908,34176
6909,34176
6910,34176
6911,34112
6912,34048
6913,34048
6914,34048
6915,34048
6916,33984
6917,33984
6918,33984
6919,33984
6920,33984
6921,33920
6922,33984
6923,34048
6924,34048
6925,33984
6926,34048
6927,34048
6928,34048
6929,33984
6930,33984
6931,34112
6932,34176
6933,34176
6934,34240
6935,34304
6936,34304
6937,34240
6938,34176
6939,34240
6940,34240
6941,34240
6942,34304
6943,34368
6944,34368
6945,34240
6946,34112
6947,34112
6948,34048
6949,33984
6950,33920
6951,33920
6952,33920
6953,33728
6954,33536
6955,33408
6956,33408
6957,33408
6958,33408
6959,33472
6960,33600
6961,33600
6962,33600
6963,33600
6964,33664
6965,33728
6966,33664
6967,33664
6968,33664
6969,33728
6970,33920
6971,34368
6972,35392
6973,36928
6974,39040
6975,41216
6976,43584
6977,45248
6978,45248
6979,43712
6980,40768
6981,40064
6982,36352
6983,30528
6984,28352
6985,27328
6986,27392
6987,28096
6988,29120
6989,30272
6990,31424
6991,32320
6992,33088
6993,33664
6994,34112
6995,34304
6996,34432
6997,34496
6998,34496
6999,34432
7000,34304
7001,34240
7002,34176
7003,34112
7004,34048
7005,33984
7006,33984
7007,33920
7008,33856
7009,33856
7010,33920
7011,33920
7012,33856
7013,33856
7014,33792
7015,33792
7016,33728
7017,33728
7018,33792
7019,33792
7020,33792
7021,33728
7022,33728
7023,33728
7024,33664
7025,33600
7026,33600
7027,33536
7028,33472
7029,33408
7030,33408
7031,33408
7032,33408
7033,33344
7034,33408
7035,33408
7036,33408
7037,33408
7038,33472
7039,33600
7040,33728
7041,33856
7042,33920
7043,34112
7044,34240
7045,34304
7046,34368
7047,34432
7048,34432
7049,34368
7050,34304
7051,34240
7052,34176
7053,34112
7054,34048
7055,34048
7056,34048
7057,34048
7058,34048
7059,33984
7060,34048
7061,34112
7062,34048
7063,34048
7064,34112
7065,34112
7066,34112
7067,34176
7068,34240
7069,34304
7070,34304
7071,34304
7072,34368
7073,34368
7074,34368
7075,34304
7076,34304
7077,34304
7078,34304
7079,34304
7080,34240
7081,34240
7082,34176
7083,34048
7084,34048
7085,34048
7086,34048
7087,33920
7088,33792
7089,33600
7090,33408
7091,33280
7092,33216
7093,33280
7094,33344
7095,33408
7096,33472
7097,33600
7098,33664
7099,33728
7100,33792
7101,33792
7102,33856
7103,33792
7104,33792
7105,33920
7106,34304
7107,35008
7108,36160
7109,37952
7110,39808
7111,41984
7112,43776
7113,44096
7114,43008
7115,40576
7116,37632
7117,34112
7118,30976
7119,28864
7120,27840
7121,27840
7122,28672
7123,29696
7124,30848
7125,31744
7126,32640
7127,33344
7128,33856
7129,34112
7130,34368
7131,34496
7132,34496
7133,34432
7134,34368
7135,34304
7136,34240
7137,34176
7138,34048
7139,34048
7140,34048
7141,33984
7142,33984
7143,33984
7144,33984
7145,33984
7146,33984
7147,33920
7148,33984
7149,33920
7150,33920
7151,33984
7152,34048
7153,34048
7154,34048
7155,34048
7156,34112
7157,34112
7158,34048
7159,33920
7160,33920
7161,33920
7162,33792
7163,33728
7164,33728
7165,33728
7166,33728
7167,33728
7168,33728
7169,33792
7170,33792
7171,33792
7172,33856
7173,33920
7174,33984
7175,33984
7176,34048
7177,34112
7178,34176
7179,34176
7180,34176
7181,34240
7182,34240
7183,34176
7184,34112
7185,34112
7186,34112
7187,34048
7188,33984
7189,33984
7190,33984
7191,33920
7192,33856
7193,33856
7194,33920
7195,33920
7196,33920
7197,33920
7198,33920
7199,33920
7200,33856
7201,33856
7202,33920
7203,33920
7204,33920
7205,33984
7206,34112
7207,34176
7208,34176
7209,34176
7210,34176
7211,34176
7212,34048
7213,33984
7214,34048
7215,34112
7216,34112
7217,34048
7218,34048
7219,33984
7220,33920
7221,33856
7222,33792
7223,33792
7224,33792
7225,33792
7226,33728
7227,33664
7228,33536
7229,33408
7230,33344
7231,33344
7232,33408
7233,33408
7234,33472
7235,33536
7236,33600
7237,33664
7238,33664
7239,33728
7240,33792
7241,33728
7242,33728
7243,33984
7244,34432
7245,35136
7246,36224
7247,37824
7248,39808
7249,41920
7250,43776
7251,44160
7252,43008
7253,40640
7254,37504
7255,33984
7256,30912
7257,28800
7258,27904
7259,27968
7260,28800
7261,29824
7262,30848
7263,31808
7264,32640
7265,33344
7266,33792
7267,34112
7268,34304
7269,34432
7270,34496
7271,34432
7272,34368
7273,34368
7274,34240
7275,34176
7276,34112
7277,34112
7278,34048
7279,33984
7280,33984
7281,33984
7282,34048
7283,33984
7284,33984
7285,34048
7286,34112
7287,34112
7288,34112
7289,34112
7290,34176
7291,34112
7292,34112
7293,34112
7294,34112
7295,34048
7296,33984
7297,33920
7298,33920
7299,33920
7300,33856
7301,33728
7302,33728
7303,33728
7304,33728
7305,33728
7306,33728
7307,33792
7308,33792
7309,33792
7310,33856
7311,33984
7312,34048
7313,34048
7314,34112
7315,34240
7316,34304
7317,34304
7318,34240
7319,34304
7320,34240
7321,34176
7322,34176
7323,34176
7324,34112
7325,34048
7326,33984
7327,34048
7328,34048
7329,33984
7330,33984
7331,33984
7332,33984
7333,33984
7334,33984
7335,33984
7336,34048
7337,33984
7338,33984
7339,33984
7340,34048
7341,33984
7342,33920
7343,33920
7344,33920
7345,33920
7346,33856
7347,33856
7348,33856
7349,33856
7350,33792
7351,33792
7352,33856
7353,33856
7354,33856
7355,33856
7356,33856
7357,33984
7358,34112
7359,34176
7360,34304
7361,34368
7362,34368
7363,34304
7364,34304
7365,34304
7366,34304
7367,34304
7368,34304
7369,34368
7370,34304
7371,34176
7372,34048
7373,33920
7374,33856
7375,33856
7376,33792
7377,33792
7378,33856
7379,33728
7380,33536
7381,33472
7382,33472
7383,33472
7384,33472
7385,33600
7386,33664
7387,33728
7388,33728
7389,33856
7390,33920
7391,33984
7392,33920
7393,33920
7394,33984
7395,34176
7396,34432
7397,34944
7398,35840
7399,37184
7400,39104
7401,40896
7402,42880
7403,43776
7404,43072
7405,41088
7406,38336
7407,35136
7408,32000
7409,29632
7410,28416
7411,28224
7412,28800
7413,29696
7414,30720
7415,31744
7416,32640
7417,33344
7418,33856
7419,34240
7420,34432
7421,34560
7422,34560
7423,34560
7424,34560
7425,34432
7426,34368
7427,34304
7428,34240
7429,34176
7430,34112
7431,34112
7432,34112
7433,34112
7434,34048
7435,34112
7436,34176
7437,34176
7438,34176
7439,34176
7440,34240
7441,34240
7442,34176
7443,34176
7444,34240
7445,34176
7446,34112
7447,34112
7448,34112
7449,34112
7450,34048
7451,33984
7452,34048
7453,34048
7454,33984
7455,33920
7456,33920
7457,33920
7458,33920
7459,33856
7460,33920
7461,33920
7462,33984
7463,33984
7464,34048
7465,34112
7466,34176
7467,34240
7468,34240
7469,34368
7470,34368
7471,34368
7472,34368
7473,34368
7474,34368
7475,34304
7476,34240
7477,34176
7478,34176
7479,34112
7480,34048
7481,34048
7482,34048
7483,34048
7484,33984
7485,33984
7486,33984
7487,33984
7488,33920
7489,33920
7490,33984
7491,33984
7492,33984
7493,33984
7494,34048
7495,34048
7496,33984
7497,33984
7498,33984
7499,33984
7500,33984
7501,33920
7502,33984
7503,33984
7504,33920
7505,33856
7506,33856
7507,33856
7508,33856
7509,33856
7510,33792
7511,33856
7512,33856
7513,33856
7514,33856
7515,33920
7516,33920
7517,33920
7518,33920
7519,33984
7520,33984
7521,33984
7522,33984
7523,34048
7524,34048
7525,34048
7526,34048
7527,34048
7528,34048
7529,34048
7530,33984
7531,34048
7532,34048
7533,33984
7534,33984
7535,34048
7536,34176
7537,34368
7538,34432
7539,34432
7540,34496
7541,34496
7542,34432
7543,34368
7544,34432
7545,34496
7546,34496
7547,34432
7548,34432
7549,34432
7550,34304
7551,34176
7552,34112
7553,34112
7554,34048
7555,34048
7556,33984
7557,33920
7558,33792
7559,33664
7560,33600
7561,33664
7562,33728
7563,33728
7564,33792
7565,33920
7566,33920
7567,33920
7568,33984
7569,33984
7570,33984
7571,33984
7572,34048
7573,34304
7574,34880
7575,35712
7576,37120
7577,39040
7578,41344
7579,43776
7580,45504
7581,45504
7582,43904
7583,41088
7584,37568
7585,33856
7586,30656
7587,28544
7588,27584
7589,27648
7590,28352
7591,29440
7592,30528
7593,31616
7594,32576
7595,33536
7596,33920
7597,34240
7598,34496
7599,34624
7600,34688
7601,34624
7602,34560
7603,34496
7604,34432
7605,34304
7606,34240
7607,34176
7608,34112
7609,34048
7610,33984
7611,33984
7612,33984
7613,33984
7614,33984
7615,34048
7616,34048
7617,34048
7618,34048
7619,34112
7620,34112
7621,34048
7622,34048
7623,34048
7624,34048
7625,33984
7626,33920
7627,33856
7628,33856
7629,33792
7630,33728
7631,33664
7632,33600
7633,33536
7634,33472
7635,33472
7636,33472
7637,33536
7638,33536
7639,33536
7640,33664
7641,33664
7642,33728
7643,33792
7644,33920
7645,34048
7646,34176
7647,34240
7648,34304
7649,34496
7650,34496
7651,34496
7652,34496
7653,34496
7654,34432
7655,34368
7656,34304
7657,34304
7658,34240
7659,34112
7660,34112
7661,34112
7662,34112
7663,34112
7664,34048
7665,34112
7666,34112
7667,34112
7668,34112
7669,34112
7670,34176
7671,34112
7672,34112
7673,34112
7674,34176
7675,34112
7676,34112
7677,34048
7678,34112
7679,34112
7680,34048
7681,34048
7682,34048
7683,34048
7684,33984
7685,33984
7686,33984
7687,33984
7688,33984
7689,33984
7690,34048
7691,34176
7692,34304
7693,34368
7694,34496
7695,34560
7696,34496
7697,34432
7698,34368
7699,34368
7700,34432
7701,34432
7702,34432
7703,34496
7704,34432
7705,34304
7706,34240
7707,34176
7708,34112
7709,34048
7710,33984
7711,33920
7712,33856
7713,33728
7714,33600
7715,33536
7716,33536
7717,33600
7718,33600
7719,33728
7720,33856
7721,33920
7722,33920
7723,33920
7724,33984
7725,33984
7726,33920
7727,33920
7728,34048
7729,34304
7730,34752
7731,35712
7732,37184
7733,39168
7734,41408
7735,43648
7736,45056
7737,44800
7738,43072
7739,40320
7740,36608
7741,33408
7742,30464
7743,28480
7744,27712
7745,28032
7746,28608
7747,29632
7748,30720
7749,31744
7750,32704
7751,33344
7752,33920
7753,34304
7754,34496
7755,34624
7756,34624
7757,34624
7758,34560
7759,34432
7760,34304
7761,34240
7762,34176
7763,34048
7764,33984
7765,33984
7766,33984
7767,33984
7768,33920
7769,33984
7770,34048
7771,34048
7772,34048
7773,34048
7774,34048
7775,34048
7776,34048
7777,34048
7778,34112
7779,34112
7780,34048
7781,34048
7782,33984
7783,33920
7784,33856
7785,33792
7786,33792
7787,33728
7788,33664
7789,33600
7790,33600
7791,33536
7792,33536
7793,33472
7794,33472
7795,33536
7796,33536
7797,33536
7798,33664
7799,33792
7800,33920
7801,33920
7802,34048
7803,34112
7804,34176
7805,34240
7806,34240
7807,34240
7808,34240
7809,34176
7810,34112
7811,34112
7812,34048
7813,33984
7814,33984
7815,33984
7816,33984
7817,33984
7818,33984
7819,33984
7820,34048
7821,34048
7822,34048
7823,34048
7824,34112
7825,34112
7826,34048
7827,34048
7828,34048
7829,34048
7830,33984
7831,33984
7832,33984
7833,33984
7834,33984
7835,33984
7836,33984
7837,33984
7838,33920
7839,33920
7840,33984
7841,34112
7842,34176
7843,34240
7844,34304
7845,34304
7846,34304
7847,34240
7848,34240
7849,34240
7850,34368
7851,34368
7852,34304
7853,34304
7854,34304
7855,34176
7856,34048
7857,33984
7858,33984
7859,33920
7860,33856
7861,33856
7862,33792
7863,33664
7864,33472
7865,33408
7866,33408
7867,33472
7868,33472
7869,33472
7870,33600
7871,33664
7872,33728
7873,33728
7874,33792
7875,33792
7876,33728
7877,33792
7878,33984
7879,34368
7880,35264
7881,36160
7882,37824
7883,39936
7884,42304
7885,44480
7886,45312
7887,44416
7888,42048
7889,38848
7890,35200
7891,31808
7892,29184
7893,27712
7894,27392
7895,27968
7896,28864
7897,29952
7898,31040
7899,32064
7900,32896
7901,33472
7902,33920
7903,34240
7904,34432
7905,34496
7906,34496
7907,34432
7908,34432
7909,34304
7910,34176
7911,34112
7912,34048
7913,33984
7914,33920
7915,33920
7916,33920
7917,33920
7918,33920
7919,33920
7920,33984
7921,33984
7922,33920
7923,33920
7924,33984
7925,34048
7926,33984
7927,33984
7928,34048
7929,34048
7930,33984
7931,33920
7932,33920
7933,33856
7934,33856
7935,33728
7936,33728
7937,33728
7938,33664
7939,33600
7940,33536
7941,33536
7942,33536
7943,33472
7944,33472
7945,33536
7946,33600
7947,33664
7948,33664
7949,33792
7950,33920
7951,33984
7952,34048
7953,34112
7954,34176
7955,34176
7956,34176
7957,34176
7958,34112
7959,34112
7960,34048
7961,34048
7962,34048
7963,33984
7964,33920
7965,33920
7966,33920
7967,33920
7968,33920
7969,33920
7970,34048
7971,33984
7972,33984
7973,33984
7974,34048
7975,34048
7976,33984
7977,33984
7978,34048
7979,34048
7980,34048
7981,33984
7982,33984
7983,33984
7984,33920
7985,33920
7986,33856
7987,33920
7988,33920
7989,33856
7990,33856
7991,33920
7992,33920
7993,33984
7994,34048
7995,34240
7996,34304
7997,34304
7998,34304
7999,34368
8000,34368
8001,34304
8002,34304
8003,34368
8004,34432
8005,34368
8006,34304
8007,34240
8008,34176
8009,34048
8010,33984
8011,33920
8012,33920
8013,33920
8014,33856
8015,33728
8016,33600
8017,33536
8018,33408
8019,33472
8020,33536
8021,33664
8022,33664
8023,33792
8024,33920
8025,33984
8026,33920
8027,33920
8028,33920
8029,33920
8030,33984
8031,34112
8032,34624
8033,35456
8034,36800
8035,38656
8036,40960
8037,43392
8038,45248
8039,45376
8040,43840
8041,41024
8042,37504
8043,33792
8044,30592
8045,28480
8046,27584
8047,27648
8048,28352
8049,29440
8050,30528
8051,31616
8052,32512
8053,33280
8054,33920
8055,34240
8056,34432
8057,34624
8058,34688
8059,34624
8060,34560
8061,34496
8062,34368
8063,34240
8064,34112
8065,34048
8066,34048
8067,33984
8068,33984
8069,33920
8070,33984
8071,33984
8072,33984
8073,34048
8074,34048
8075,34176
8076,34112
8077,34112
8078,34112
8079,34176
8080,34112
8081,34048
8082,34048
8083,34112
8084,34048
8085,33984
8086,33920
8087,33856
8088,33792
8089,33728
8090,33664
8091,33600
8092,33600
8093,33536
8094,33536
8095,33536
8096,33600
8097,33600
8098,33600
8099,33664
8100,33792
8101,33856
8102,33920
8103,34048
8104,34240
8105,34304
8106,34304
8107,34368
8108,34368
8109,34368
8110,34304
8111,34240
8112,34240
8113,34176
8114,34112
8115,34112
8116,34112
8117,34112
8118,34048
8119,34048
8120,34176
8121,34112
8122,34112
8123,34112
8124,34112
8125,34112
8126,34112
8127,34048
8128,34112
8129,34112
8130,34112
8131,34112
8132,34112
8133,34112
8134,34112
8135,34112
8136,34048
8137,34112
8138,34048
8139,34048
8140,34048
8141,34048
8142,34048
8143,33984
8144,33984
8145,33984
8146,34048
8147,33984
8148,33984
8149,34048
8150,34112
8151,34112
8152,34176
8153,34304
8154,34496
8155,34496
8156,34496
8157,34560
8158,34496
8159,34496
8160,34496
8161,34496
8162,34560
8163,34560
8164,34432
8165,34368
8166,34304
8167,34240
8168,34112
8169,34048
8170,34048
8171,34048
8172,33984
8173,33920
8174,33856
8175,33792
8176,33664
8177,33664
8178,33664
8179,33792
8180,33792
8181,33792
8182,33920
8183,33984
8184,34048
8185,34048
8186,34048
8187,34048
8188,34048
8189,34176
8190,34432
8191,35008
8192,36096
8193,37632
8194,39616
8195,41984
8196,44416
8197,45440
8198,44864
8199,42816
8200,39872
8201,36288
8202,32768
8203,29888
8204,28160
8205,27648
8206,27904
8207,28800
8208,29888
8209,31040
8210,32064
8211,32960
8212,33728
8213,34240
8214,34496
8215,34624
8216,34752
8217,34752
8218,34688
8219,34560
8220,34560
8221,34560
8222,34496
8223,34368
8224,34240
8225,34176
8226,34112
8227,34048
8228,34048
8229,34048
8230,33984
8231,33920
8232,33984
8233,34048
8234,34048
8235,34048
8236,34048
8237,34112
8238,34112
8239,34112
8240,34112
8241,34112
8242,34176
8243,34112
8244,34048
8245,34048
8246,33984
8247,33920
8248,33792
8249,33728
8250,33728
8251,33664
8252,33664
8253,33600
8254,33664
8255,33664
8256,33728
8257,33792
8258,33920
8259,33984
8260,33984
8261,34048
8262,34112
8263,34176
8264,34176
8265,34304
8266,34432
8267,34496
8268,34496
8269,34432
8270,34304
8271,34240
8272,34176
8273,34112
8274,34112
8275,34112
8276,34176
8277,34112
8278,34176
8279,34240
8280,34304
8281,34304
8282,34304
8283,34240
8284,34240
8285,34176
8286,34176
8287,34176
8288,34176
8289,34112
8290,34112
8291,34112
8292,34112
8293,34048
8294,33984
8295,34048
8296,34048
8297,34048
8298,34048
8299,34048
8300,34112
8301,34112
8302,34048
8303,34048
8304,34048
8305,34048
8306,33984
8307,33984
8308,34112
8309,34304
8310,34432
8311,34496
8312,34496
8313,34496
8314,34432
8315,34432
8316,34432
8317,34496
8318,34496
8319,34560
8320,34560
8321,34560
8322,34432
8323,34240
8324,34048
8325,33984
8326,33920
8327,33856
8328,33856
8329,33856
8330,33728
8331,33600
8332,33536
8333,33728
8334,33856
8335,33984
8336,34048
8337,34048
8338,34048
8339,34048
8340,34048
8341,34048
8342,33984
8343,33792
8344,33728
8345,33920
8346,34368
8347,34880
8348,35776
8349,37248
8350,39168
8351,41344
8352,43584
8353,44992
8354,44864
8355,43136
8356,40320
8357,36928
8358,33408
8359,30400
8360,28416
8361,27584
8362,27776
8363,28544
8364,29568
8365,30656
8366,31744
8367,32640
8368,33344
8369,33920
8370,34304
8371,34496
8372,34624
8373,34624
8374,34624
8375,34560
8376,34432
8377,34304
8378,34240
8379,34240
8380,34176
8381,34112
8382,33984
8383,33984
8384,33984
8385,34048
8386,34176
8387,34304
8388,34368
8389,34304
8390,34240
8391,34240
8392,34176
8393,34112
8394,34048
8395,33984
8396,33984
8397,33920
8398,33856
8399,33856
8400,33792
8401,33792
8402,33664
8403,33600
8404,33664
8405,33664
8406,33600
8407,33472
8408,33408
8409,33408
8410,33344
8411,33344
8412,33408
8413,33472
8414,33472
8415,33536
8416,33664
8417,33792
8418,33920
8419,33984
8420,34112
8421,34176
8422,34240
8423,34240
8424,34240
8425,34240
8426,34176
8427,34112
8428,34048
8429,34048
8430,33984
8431,33920
8432,33984
8433,33984
8434,33984
8435,33984
8436,33984
8437,33984
8438,34048
8439,34048
8440,33984
8441,34048
8442,34048
8443,34048
8444,34048
8445,34048
8446,34048
8447,33984
8448,33920
8449,33984
8450,33984
8451,33984
8452,33920
8453,33920
8454,33920
8455,33920
8456,33920
8457,33856
8458,33856
8459,33856
8460,33856
8461,33792
8462,33792
8463,33856
8464,33920
8465,33984
8466,34112
8467,34304
8468,34368
8469,34304
8470,34368
8471,34368
8472,34368
8473,34304
8474,34304
8475,34368
8476,34368
8477,34304
8478,34304
8479,34240
8480,34112
8481,34048
8482,33984
8483,33920
8484,33920
8485,33856
8486,33728
8487,33664
8488,33536
8489,33408
8490,33344
8491,33408
8492,33472
8493,33600
8494,33600
8495,33728
8496,33856
8497,33856
8498,33856
8499,33856
8500,33920
8501,33856
8502,33920
8503,34176
8504,34624
8505,35520
8506,36736
8507,38528
8508,40768
8509,43200
8510,45120
8511,45376
8512,43904
8513,41216
8514,37696
8515,33920
8516,30656
8517,28480
8518,27456
8519,27456
8520,28224
8521,29312
8522,30464
8523,31488
8524,32448
8525,33280
8526,33856
8527,34240
8528,34432
8529,34560
8530,34624
8531,34560
8532,34496
8533,34368
8534,34304
8535,34176
8536,34112
8537,34048
8538,34048
8539,33984
8540,33920
8541,33920
8542,33920
8543,33984
8544,33920
8545,33920
8546,33984
8547,34048
8548,34048
8549,34112
8550,34112
8551,34112
8552,34048
8553,33984
8554,34048
8555,34048
8556,33984
8557,33856
8558,33856
8559,33792
8560,33728
8561,33664
8562,33664
8563,33600
8564,33600
8565,33536
8566,33536
8567,33536
8568,33536
8569,33536
8570,33536
8571,33600
8572,33664
8573,33728
8574,33856
8575,33984
8576,34048
8577,34112
8578,34176
8579,34240
8580,34304
8581,34304
8582,34240
8583,34240
8584,34240
8585,34176
8586,34112
8587,34112
8588,34112
8589,34048
8590,33984
8591,33984
8592,33984
8593,33984
8594,33984
8595,33984
8596,34048
8597,34112
8598,34112
8599,34048
8600,34112
8601,34112
8602,34048
8603,34048
8604,34112
8605,34112
8606,34112
8607,34048
8608,33984
8609,33984
8610,33984
8611,33920
8612,33920
8613,33984
8614,33984
8615,33920
8616,33920
8617,33920
8618,33984
8619,33920
8620,33920
8621,33984
8622,33984
8623,33984
8624,33984
8625,34048
8626,34048
8627,34048
8628,33984
8629,34048
8630,34048
8631,34048
8632,34048
8633,34048
8634,34112
8635,34048
8636,34048
8637,34048
8638,34112
8639,34112
8640,34048
8641,34048
8642,34048
8643,34048
8644,34048
8645,34048
8646,34112
8647,34112
8648,34112
8649,34112
8650,34112
8651,34176
8652,34112
8653,34112
8654,34112
8655,34176
8656,34112
8657,34112
8658,34176
8659,34176
8660,34176
8661,34112
8662,34112
8663,34112
8664,34112
8665,34112
8666,34112
8667,34176
8668,34176
8669,34176
8670,34176
8671,34176
8672,34240
8673,34176
8674,34112
8675,34112
8676,34176
8677,34176
8678,34112
8679,34176
8680,34304
8681,34560
8682,34560
8683,34624
8684,34624
8685,34560
8686,34496
8687,34560
8688,34560
8689,34560
8690,34496
8691,34496
8692,34432
8693,34304
8694,34240
8695,34240
8696,34240
8697,34176
8698,34176
8699,34176
8700,34112
8701,34176
8702,33920
8703,33856
8704,33792
8705,33792
8706,33792
8707,33856
8708,33984
8709,34048
8710,34048
8711,34048
8712,34112
8713,34112
8714,34048
8715,34048
8716,34240
8717,34688
8718,35392
8719,36672
8720,38592
8721,38912
8722,43136
8723,45376
8724,46144
8725,45120
8726,42560
8727,39104
8728,35264
8729,31744
8730,29120
8731,27648
8732,27328
8733,27904
8734,28928
8735,30016
8736,31168
8737,32256
8738,33088
8739,33728
8740,34240
8741,34560
8742,34688
8743,34752
8744,34752
8745,34688
8746,34624
8747,34496
8748,34368
8749,34304
8750,34240
8751,34176
8752,34048
8753,34048
8754,34048
8755,33984
8756,33920
8757,33984
8758,33984
8759,33984
8760,33984
8761,33984
8762,34048
8763,34048
8764,34048
8765,34048
8766,33984
8767,34048
8768,33984
8769,33920
8770,33984
8771,33984
8772,33856
8773,33792
8774,33728
8775,33728
8776,33664
8777,33600
8778,33600
8779,33600
8780,33600
8781,33600
8782,33600
8783,33664
8784,33728
8785,33728
8786,33856
8787,33984
8788,34048
8789,34112
8790,34176
8791,34368
8792,34432
8793,34496
8794,34560
8795,34560
8796,34624
8797,34560
8798,34496
8799,34432
8800,34432
8801,34368
8802,34240
8803,34240
8804,34240
8805,34176
8806,34112
8807,34048
8808,34112
8809,34112
8810,34048
8811,34048
8812,34112
8813,34112
8814,34112
8815,34112
8816,34176
8817,34176
8818,34112
8819,34048
8820,34048
8821,34048
8822,34048
8823,34048
8824,34048
8825,34048
8826,34048
8827,34048
8828,33984
8829,34048
8830,33984
8831,33984
8832,33984
8833,33984
8834,33984
8835,33984
8836,33984
8837,33984
8838,34048
8839,34048
8840,34048
8841,34048
8842,34048
8843,33984
8844,34048
8845,34048
8846,34112
8847,34048
8848,34048
8849,34048
8850,34112
8851,34048
8852,34048
8853,34048
8854,34112
8855,34112
8856,34048
8857,34048
8858,34112
8859,34112
8860,34112
8861,34112
8862,34112
8863,34112
8864,34112
8865,34048
8866,34112
8867,34112
8868,34112
8869,34112
8870,34176
8871,34176
8872,34176
8873,34176
8874,34176
8875,34176
8876,34176
8877,34112
8878,34112
8879,34176
8880,34112
8881,34112
8882,34112
8883,34176
8884,34176
8885,34176
8886,34112
8887,34176
8888,34176
8889,34240
8890,34304
8891,34432
8892,34496
8893,34560
8894,34560
8895,34560
8896,34624
8897,34560
8898,34560
8899,34560
8900,34624
8901,34624
8902,34560
8903,34496
8904,34432
8905,34368
8906,34304
8907,34240
8908,34240
8909,34240
8910,34240
8911,34176
8912,34176
8913,34048
8914,33920
8915,33792
8916,33792
8917,33856
8918,33856
8919,33920
8920,33984
8921,34048
8922,34112
8923,34176
8924,34176
8925,34176
8926,34176
8927,34176
8928,34368
8929,34816
8930,35776
8931,36992
8932,38848
8933,41152
8934,43648
8935,45504
8936,45824
8937,44416
8938,41792
8939,38336
8940,34624
8941,31232
8942,28864
8943,27584
8944,27456
8945,28096
8946,29184
8947,30272
8948,31424
8949,32448
8950,33344
8951,33984
8952,34368
8953,34688
8954,34880
8955,34880
8956,34816
8957,34688
8958,34560
8959,34496
8960,34368
8961,34240
8962,34176
8963,34112
8964,34112
8965,33984
8966,34048
8967,34048
8968,34048
8969,34048
8970,34112
8971,34112
8972,34176
8973,34176
8974,34176
8975,34240
8976,34176
8977,34176
8978,34112
8979,34112
8980,34112
8981,33984
8982,33984
8983,33984
8984,33984
8985,33920
8986,33856
8987,33856
8988,33792
8989,33728
8990,33728
8991,33664
8992,33728
8993,33664
8994,33664
8995,33728
8996,33792
8997,33792
8998,33792
8999,33856
9000,33984
9001,34048
9002,34112
9003,34176
9004,34304
9005,34432
9006,34432
9007,34432
9008,34496
9009,34496
9010,34432
9011,34368
9012,34304
9013,34304
9014,34240
9015,34112
9016,34112
9017,34112
9018,34048
9019,34048
9020,34048
9021,34048
9022,34112
9023,34112
9024,34176
9025,34176
9026,34176
9027,34176
9028,34176
9029,34176
9030,34176
9031,34112
9032,34048
9033,34112
9034,34112
9035,34112
9036,34112
9037,34112
9038,34112
9039,34048
9040,33984
9041,34048
9042,34048
9043,34048
9044,34048
9045,34048
9046,34048
9047,34112
9048,34048
9049,33984
9050,33984
9051,33984
9052,33984
9053,33984
9054,34048
9055,34048
9056,34048
9057,34048
9058,34112
9059,34112
9060,34112
9061,34048
9062,34112
9063,34112
9064,34176
9065,34176
9066,34240
9067,34176
9068,34176
9069,34048
9070,33984
9071,34048
9072,34048
9073,34048
9074,34048
9075,34112
9076,34176
9077,34176
9078,34176
9079,34240
9080,34304
9081,34368
9082,34432
9083,34560
9084,34624
9085,34624
9086,34560
9087,34560
9088,34560
9089,34560
9090,34496
9091,34560
9092,34560
9093,34496
9094,34368
9095,34240
9096,34240
9097,34176
9098,34176
9099,34176
9100,34240
9101,34176
9102,34048
9103,33856
9104,33728
9105,33664
9106,33664
9107,33664
9108,33792
9109,33856
9110,33920
9111,33920
9112,33984
9113,34048
9114,34048
9115,33984
9116,33920
9117,34048
9118,34240
9119,34816
9120,35776
9121,37312
9122,39296
9123,41536
9124,43904
9125,45440
9126,45248
9127,43584
9128,40768
9129,37312
9130,33664
9131,30528
9132,28416
9133,27520
9134,27648
9135,28352
9136,29376
9137,30528
9138,31616
9139,32576
9140,33344
9141,33920
9142,34368
9143,34624
9144,34688
9145,34752
9146,34688
9147,34624
9148,34496
9149,34368
9150,34304
9151,34240
9152,34176
9153,34112
9154,34048
9155,34048
9156,33984
9157,33984
9158,33984
9159,34048
9160,34048
9161,34048
9162,34048
9163,34048
9164,34048
9165,34048
9166,34048
9167,34112
9168,34112
9169,34112
9170,34112
9171,34112
9172,34048
9173,33984
9174,33920
9175,33920
9176,33856
9177,33728
9178,33728
9179,33728
9180,33728
9181,33664
9182,33600
9183,33600
9184,33664
9185,33664
9186,33664
9187,33664
9188,33728
9189,33792
9190,33856
9191,33920
9192,34112
9193,34176
9194,34240
9195,34240
9196,34304
9197,34304
9198,34240
9199,34176
9200,34176
9201,34112
9202,34048
9203,33984
9204,33984
9205,34048
9206,33984
9207,33984
9208,33984
9209,34048
9210,34048
9211,33984
9212,34048
9213,34048
9214,34048
9215,34048
9216,34112
9217,34112
9218,34112
9219,34048
9220,34048
9221,34048
9222,34048
9223,33920
9224,33920
9225,33920
9226,33984
9227,33984
9228,33920
9229,33920
9230,33920
9231,33920
9232,33856
9233,33920
9234,33984
9235,33984
9236,33920
9237,33920
9238,33984
9239,33984
9240,33920
9241,33920
9242,33984
9243,33984
9244,33984
9245,33984
9246,34048
9247,33984
9248,33984
9249,33984
9250,34048
9251,34112
9252,34048
9253,33984
9254,33984
9255,33984
9256,33984
9257,33984
9258,33984
9259,34048
9260,34048
9261,33984
9262,34048
9263,34112
9264,34112
9265,34048
9266,34048
9267,34048
9268,34112
9269,34112
9270,34112
9271,34112
9272,34240
9273,34304
9274,34368
9275,34496
9276,34496
9277,34496
9278,34496
9279,34432
9280,34432
9281,34432
9282,34432
9283,34496
9284,34496
9285,34368
9286,34240
9287,34176
9288,34176
9289,34112
9290,34048
9291,33984
9292,34048
9293,34112
9294,34048
9295,33920
9296,33792
9297,33728
9298,33664
9299,33664
9300,33728
9301,33792
9302,33792
9303,33792
9304,33856
9305,33920
9306,33920
9307,33920
9308,33856
9309,33920
9310,34112
9311,34560
9312,35456
9313,36800
9314,38720
9315,40960
9316,43392
9317,45440
9318,45952
9319,44608
9320,41664
9321,38400
9322,34752
9323,31232
9324,28736
9325,27456
9326,27328
9327,27904
9328,28928
9329,30080
9330,31296
9331,32256
9332,33088
9333,33728
9334,34176
9335,34496
9336,34624
9337,34624
9338,34688
9339,34624
9340,34496
9341,34432
9342,34368
9343,34304
9344,34176
9345,34112
9346,34048
9347,34048
9348,33984
9349,33920
9350,34048
9351,34048
9352,34048
9353,34048
9354,34048
9355,34048
9356,34112
9357,34048
9358,34048
9359,34112
9360,34112
9361,34048
9362,34048
9363,34048
9364,34048
9365,33984
9366,33984
9367,33984
9368,33984
9369,33920
9370,33856
9371,33792
9372,33728
9373,33664
9374,33600
9375,33600
9376,33600
9377,33600
9378,33600
9379,33664
9380,33728
9381,33792
9382,33856
9383,33920
9384,34048
9385,34176
9386,34240
9387,34304
9388,34432
9389,34432
9390,34368
9391,34304
9392,34240
9393,34240
9394,34112
9395,34048
9396,34048
9397,34048
9398,33984
9399,33920
9400,33920
9401,33984
9402,33984
9403,33984
9404,34048
9405,34048
9406,34048
9407,34048
9408,34048
9409,34048
9410,34048
9411,34048
9412,34048
9413,34112
9414,34112
9415,34048
9416,33984
9417,33984
9418,33984
9419,33920
9420,33920
9421,33920
9422,33920
9423,33920
9424,33856
9425,33920
9426,33920
9427,33920
9428,33920
9429,33984
9430,34048
9431,34048
9432,33984
9433,33984
9434,33984
9435,33984
9436,33920
9437,33920
9438,33984
9439,33984
9440,33984
9441,33984
9442,33984
9443,34048
9444,34048
9445,34048
9446,34048
9447,34112
9448,34048
9449,33984
9450,34048
9451,34048
9452,34048
9453,34048
9454,34048
9455,34112
9456,34112
9457,34112
9458,34112
9459,34176
9460,34176
9461,34112
9462,34048
9463,34112
9464,34112
9465,34112
9466,34112
9467,34112
9468,34112
9469,34048
9470,34048
9471,34112
9472,34176
9473,34112
9474,34112
9475,34112
9476,34176
9477,34112
9478,34112
9479,34112
9480,34176
9481,34240
9482,34304
9483,34368
9484,34496
9485,34560
9486,34560
9487,34560
9488,34560
9489,34560
9490,34496
9491,34496
9492,34496
9493,34496
9494,34432
9495,34368
9496,34304
9497,34240
9498,34240
9499,34176
9500,34112
9501,34112
9502,34112
9503,34048
9504,33984
9505,33920
9506,33792
9507,33728
9508,33792
9509,33856
9510,33920
9511,33920
9512,33984
9513,34048
9514,34112
9515,34048
9516,34048
9517,33984
9518,34048
9519,34112
9520,34432
9521,35136
9522,36352
9523,38016
9524,40128
9525,42944
9526,44928
9527,46208
9528,45568
9529,43264
9530,39296
9531,36160
9532,32448
9533,29568
9534,27840
9535,27328
9536,27776
9537,28672
9538,29760
9539,30976
9540,32128
9541,32832
9542,33600
9543,34112
9544,34432
9545,34688
9546,34688
9547,34752
9548,34688
9549,34560
9550,34496
9551,34432
9552,34304
9553,34176
9554,34112
9555,34112
9556,34048
9557,33984
9558,33984
9559,33984
9560,33984
9561,33984
9562,33984
9563,34048
9564,34112
9565,34048
9566,34048
9567,34048
9568,34112
9569,34112
9570,34048
9571,34048
9572,34112
9573,34048
9574,33984
9575,33984
9576,33984
9577,33920
9578,33856
9579,33728
9580,33728
9581,33728
9582,33664
9583,33664
9584,33664
9585,33600
9586,33600
9587,33600
9588,33664
9589,33728
9590,33856
9591,33856
9592,33920
9593,34048
9594,34112
9595,34176
9596,34240
9597,34304
9598,34368
9599,34368
9600,34304
9601,34304
9602,34240
9603,34176
9604,34112
9605,34112
9606,34112
9607,34048
9608,33984
9609,33984
9610,33984
9611,33984
9612,33920
9613,33984
9614,34048
9615,34048
9616,33984
9617,34048
9618,34048
9619,34048
9620,34048
9621,34048
9622,34048
9623,34048
9624,34048
9625,34048
9626,34048
9627,34048
9628,33984
9629,33984
9630,33984
9631,34048
9632,33984
9633,33984
9634,33984
9635,33984
9636,33984
9637,33920
9638,33984
9639,34048
9640,34048
9641,33984
9642,34048
9643,34048
9644,34048
9645,34048
9646,34048
9647,34112
9648,34112
9649,34048
9650,34112
9651,34112
9652,34112
9653,34112
9654,34048
9655,34048
9656,34048
9657,34048
9658,34048
9659,34112
9660,34112
9661,34112
9662,34112
9663,34112
9664,34176
9665,34112
9666,34112
9667,34112
9668,34112
9669,34176
9670,34112
9671,34176
9672,34176
9673,34176
9674,34176
9675,34176
9676,34240
9677,34176
9678,34176
9679,34176
9680,34112
9681,34112
9682,34112
9683,34112
9684,34112
9685,34176
9686,34176
9687,34176
9688,34304
9689,34432
9690,34496
9691,34496
9692,34560
9693,34624
9694,34624
9695,34496
9696,34496
9697,34560
9698,34560
9699,34560
9700,34560
9701,34496
9702,34432
9703,34304
9704,34304
9705,34304
9706,34304
9707,34240
9708,34240
9709,34176
9710,34176
9711,34048
9712,33856
9713,33856
9714,33856
9715,33792
9716,33856
9717,33920
9718,33984
9719,34048
9720,34048
9721,34048
9722,34112
9723,34112
9724,34048
9725,34112
9726,34304
9727,34688
9728,35392
9729,36672
9730,38464
9731,40704
9732,43136
9733,45184
9734,45824
9735,44800
9736,42368
9737,38976
9738,35392
9739,31936
9740,28672
9741,27776
9742,27392
9743,27968
9744,28928
9745,30016
9746,31232
9747,32320
9748,33216
9749,33856
9750,34304
9751,34624
9752,34752
9753,34752
9754,34752
9755,34688
9756,34688
9757,34560
9758,34432
9759,34368
9760,34304
9761,34240
9762,34112
9763,34048
9764,34048
9765,33984
9766,34048
9767,34048
9768,34112
9769,34112
9770,34112
9771,34112
9772,34176
9773,34176
9774,34112
9775,34112
9776,34176
9777,34176
9778,34112
9779,34048
9780,34048
9781,34048
9782,33984
9783,33984
9784,33984
9785,33984
9786,33856
9787,33792
9788,33792
9789,33792
9790,33728
9791,33664
9792,33664
9793,33664
9794,33728
9795,33728
9796,33792
9797,33920
9798,34048
9799,34048
9800,34112
9801,34240
9802,34304
9803,34304
9804,34304
9805,34368
9806,34432
9807,34432
9808,34368
9809,34304
9810,34240
9811,34176
9812,34112
9813,34048
9814,34112
9815,34048
9816,33984
9817,33984
9818,34048
9819,34048
9820,34048
9821,34048
9822,34112
9823,34112
9824,34048
9825,34048
9826,34112
9827,34112
9828,34048
9829,34048
9830,34048
9831,34048
9832,33984
9833,33984
9834,34048
9835,33984
9836,33984
9837,33920
9838,33920
9839,33984
9840,33984
9841,33920
9842,33920
9843,33984
9844,33984
9845,33920
9846,33920
9847,33984
9848,33984
9849,33984
9850,33984
9851,33984
9852,33984
9853,33984
9854,33984
9855,33984
9856,34048
9857,34048
9858,33984
9859,33984
9860,34048
9861,34048
9862,34048
9863,34048
9864,34048
9865,34112
9866,34112
9867,34112
9868,34112
9869,34112
9870,34112
9871,34048
9872,34048
9873,34048
9874,34048
9875,34048
9876,34112
9877,34240
9878,34304
9879,34432
9880,34496
9881,34560
9882,34560
9883,34496
9884,34432
9885,34432
9886,34432
9887,34496
9888,34496
9889,34496
9890,34432
9891,34304
9892,34240
9893,34176
9894,34176
9895,34176
9896,34112
9897,34112
9898,34112
9899,34048
9900,33856
9901,33728
9902,33728
9903,33728
9904,33728
9905,33792
9906,33856
9907,33856
9908,33856
9909,33920
9910,33984
9911,33984
9912,33920
9913,33856
9914,33984
9915,34176
9916,34624
9917,35584
9918,37056
9919,39040
9920,42240
9921,43648
9922,45440
9923,45632
9924,44096
9925,41408
9926,37952
9927,34240
9928,30912
9929,28608
9930,27456
9931,27456
9932,28096
9933,29120
9934,30272
9935,31360
9936,32384
9937,33152
9938,33792
9939,34304
9940,34560
9941,34624
9942,34688
9943,34688
9944,34624
9945,34496
9946,34432
9947,34368
9948,34304
9949,34240
9950,34112
9951,34048
9952,34048
9953,34048
9954,33984
9955,33984
9956,33984
9957,34048
9958,33984
9959,33984
9960,34048
9961,34048
9962,33984
9963,34048
9964,34048
9965,34112
9966,34048
9967,34048
9968,34048
9969,34048
9970,33984
9971,33920
9972,33920
9973,33920
9974,33856
9975,33792
9976,33728
9977,33728
9978,33664
9979,33600
9980,33664
9981,33600
9982,33600
9983,33600
9984,33664
9985,33728
9986,33792
9987,33792
9988,33920
9989,33984
9990,34112
9991,34112
9992,34176
9993,34240
9994,34240
9995,34176
9996,34176
9997,34112
9998,34112
9999,34048
10000,33984
10001,33984
10002,33984
10003,33984
10004,33984
10005,33984
10006,33984
10007,33984
10008,33984
10009,33984
10010,34112
10011,34048
10012,34048
10013,33984
10014,34048
10015,34048
10016,33984
10017,33984
10018,33984
10019,33984
10020,33920
10021,33920
10022,33920
10023,33984
10024,33984
10025,33984
10026,33984
10027,33984
10028,33984
10029,33920
10030,33920
10031,33920
10032,33920
10033,33920
10034,33920
10035,33920
10036,33920
10037,33856
10038,33856
10039,33920
10040,33984
10041,33920
10042,33920
10043,33984
10044,33984
10045,33984
10046,33984
10047,33984
10048,33984
10049,33984
10050,33984
10051,33984
10052,34048
10053,34048
10054,33984
10055,34048
10056,34048
10057,34048
10058,34048
10059,34048
10060,34112
10061,34112
10062,34048
10063,34048
10064,34048
10065,34048
10066,34048
10067,33984
10068,34048
10069,34112
10070,34304
10071,34304
10072,34432
10073,34496
10074,34496
10075,34496
10076,34496
10077,34432
10078,34432
10079,34432
10080,34432
10081,34432
10082,34368
10083,34304
10084,34240
10085,34176
10086,34112
10087,34048
10088,33984
10089,34048
10090,34048
10091,34048
10092,33920
10093,33856
10094,33728
10095,33664
10096,33664
10097,33728
10098,33792
10099,33792
10100,33856
10101,33920
10102,34048
10103,34048
10104,34048
10105,33984
10106,33984
10107,33984
10108,34176
10109,34752
10110,35776
10111,37120
10112,39040
10113,41344
10114,43776
10115,46144
10116,45952
10117,44416
10118,41600
10119,37952
10120,34048
10121,30656
10122,28352
10123,27328
10124,27392
10125,28160
10126,29184
10127,30336
10128,31488
10129,32448
10130,33600
10131,33920
10132,34304
10133,34496
10134,34624
10135,34688
10136,34688
10137,34560
10138,34432
10139,34368
10140,34304
10141,34176
10142,34112
10143,34112
10144,34112
10145,34048
10146,33984
10147,33984
10148,33984
10149,33984
10150,33984
10151,34048
10152,34048
10153,34112
10154,34048
10155,34048
10156,34048
10157,34048
10158,34048
10159,33984
10160,33984
10161,33984
10162,33984
10163,33920
10164,33984
10165,33984
10166,33920
10167,33792
10168,33792
10169,33728
10170,33664
10171,33600
10172,33600
10173,33664
10174,33664
10175,33664
10176,33664
10177,33792
10178,33792
10179,33792
10180,33856
10181,33984
10182,34048
10183,34048
10184,34112
10185,34240
10186,34240
10187,34240
10188,34176
10189,34176
10190,34176
10191,34112
10192,33984
10193,34048
10194,34048
10195,33984
10196,33920
10197,33920
10198,33984
10199,33984
10200,33920
10201,33984
10202,34048
10203,34048
10204,33984
10205,33984
10206,34048
10207,34048
10208,33984
10209,33984
10210,33984
10211,33920
10212,33920
10213,33920
10214,33920
10215,33984
10216,33984
10217,33920
10218,33920
10219,33984
10220,33920
10221,33920
10222,33920
10223,33984
10224,33920
10225,33856
10226,33856
10227,33920
10228,33920
10229,33920
10230,33920
10231,33984
10232,33984
10233,33920
10234,33920
10235,33984
10236,33984
10237,33984
10238,33984
10239,33984
10240,34048
10241,34048
10242,34048
10243,34048
10244,34048
10245,34048
10246,33984
10247,33984
10248,34048
10249,34048
10250,33984
10251,34048
10252,34112
10253,34048
10254,34048
10255,33984
10256,34048
10257,34112
10258,34048
10259,34048
10260,34112
10261,34112
10262,34048
10263,34048
10264,34112
10265,34112
10266,34112
10267,34112
10268,34112
10269,34176
10270,34112
10271,34048
10272,34048
10273,34112
10274,34112
10275,34112
10276,34176
10277,34304
10278,34432
10279,34432
10280,34496
10281,34560
10282,34560
10283,34496
10284,34432
10285,34496
10286,34496
10287,34432
10288,34368
10289,34368
10290,34368
10291,34304
10292,34176
10293,34176
10294,34112
10295,34048
10296,33984
10297,33984
10298,33920
10299,33856
10300,33728
10301,33728
10302,33728
10303,33792
10304,33792
10305,33856
10306,33984
10307,34048
10308,34048
10309,34048
10310,34048
10311,34048
10312,33984
10313,33984
10314,34112
10315,34496
10316,35136
10317,36288
10318,37952
10319,40192
10320,42624
10321,44928
10322,46080
10323,45440
10324,43136
10325,39808
10326,36032
10327,32320
10328,29440
10329,27776
10330,27264
10331,27776
10332,28736
10333,29824
10334,30976
10335,32000
10336,32960
10337,33664
10338,34112
10339,34432
10340,34624
10341,34688
10342,34688
10343,34624
10344,34560
10345,34496
10346,34368
10347,34304
10348,34240
10349,34240
10350,34112
10351,34048
10352,33984
10353,33984
10354,33984
10355,33984
10356,34048
10357,34048
10358,34048
10359,34048
10360,34048
10361,34112
10362,34112
10363,34048
10364,34112
10365,34176
10366,34112
10367,34112
10368,34048
10369,34048
10370,33984
10371,33920
10372,33920
10373,33920
10374,33856
10375,33856
10376,33792
10377,33728
10378,33728
10379,33664
10380,33600
10381,33600
10382,33664
10383,33664
10384,33664
10385,33792
10386,33920
10387,33984
10388,34048
10389,34112
10390,34240
10391,34304
10392,34304
10393,34368
10394,34368
10395,34368
10396,34304
10397,34240
10398,34240
10399,34176
10400,34112
10401,34048
10402,34048
10403,34048
10404,33984
10405,33920
10406,33984
10407,34048
10408,33984
10409,33984
10410,34048
10411,34048
10412,34048
10413,33984
10414,34048
10415,34048
10416,34048
10417,34048
10418,34048
10419,34112
10420,34112
10421,34048
10422,33984
10423,33984
10424,33984
10425,33920
10426,33920
10427,33984
10428,33984
10429,33920
10430,33920
10431,33920
10432,33984
10433,33984
10434,33984
10435,34048
10436,34048
10437,33984
10438,33984
10439,33920
10440,34048
10441,34048
10442,34048
10443,33984
10444,34048
10445,33984
10446,33984
10447,34048
10448,34048
10449,34048
10450,34048
10451,33984
10452,34048
10453,34048
10454,34112
10455,34112
10456,34112
10457,34176
10458,34112
10459,34112
10460,34112
10461,34176
10462,34112
10463,34048
10464,34048
10465,34112
10466,34112
10467,34112
10468,34112
10469,34112
10470,34112
10471,34048
10472,34048
10473,34112
10474,34176
10475,34112
10476,34112
10477,34176
10478,34176
10479,34176
10480,34112
10481,34176
10482,34176
10483,34176
10484,34176
10485,34176
10486,34304
10487,34368
10488,34432
10489,34496
10490,34560
10491,34560
10492,34496
10493,34432
10494,34432
10495,34432
10496,34496
10497,34496
10498,34496
10499,34432
10500,34304
10501,34304
10502,34240
10503,34176
10504,34176
10505,34176
10506,34176
10507,34048
10508,33984
10509,33856
10510,33856
10511,33856
10512,33792
10513,33856
10514,33920
10515,33984
10516,34048
10517,34112
10518,34176
10519,34240
10520,34112
10521,34048
10522,34112
10523,34304
10524,34624
10525,35328
10526,36608
10527,38400
10528,40576
10529,43136
10530,43456
10531,45824
10532,44864
10533,42496
10534,39296
10535,35648
10536,32064
10537,29376
10538,27776
10539,27392
10540,27904
10541,28864
10542,30016
10543,31168
10544,32256
10545,32384
10546,33728
10547,34240
10548,34560
10549,34752
10550,34752
10551,34816
10552,34752
10553,34688
10554,34496
10555,34432
10556,34304
10557,34240
10558,34176
10559,34112
10560,34112
10561,34112
10562,34048
10563,34048
10564,34048
10565,34048
10566,33984
10567,33984
10568,34048
10569,34112
10570,34112
10571,34112
10572,34176
10573,34176
10574,34112
10575,34112
10576,34112
10577,34112
10578,34048
10579,34048
10580,33984
10581,33984
10582,33920
10583,33792
10584,33728
10585,33728
10586,33664
10587,33600
10588,33600
10589,33600
10590,33664
10591,33664
10592,33664
10593,33792
10594,33856
10595,33920
10596,33984
10597,34048
10598,34112
10599,34176
10600,34240
10601,34304
10602,34368
10603,34368
10604,34304
10605,34240
10606,34240
10607,34112
10608,34048
10609,34048
10610,34048
10611,33984
10612,33920
10613,33920
10614,33984
10615,34048
10616,33984
10617,33984
10618,34048
10619,34048
10620,34048
10621,34048
10622,34112
10623,34112
10624,34112
10625,34048
10626,34112
10627,34176
10628,34176
10629,34112
10630,34048
10631,34048
10632,34048
10633,34048
10634,34048
10635,34048
10636,33984
10637,33920
10638,33920
10639,33984
10640,33984
10641,33984
10642,33920
10643,34048
10644,34112
10645,34112
10646,34048
10647,34048
10648,34048
10649,34048
10650,33984
10651,33984
10652,34048
10653,34048
10654,34048
10655,34048
10656,34112
10657,34112
10658,34048
10659,34048
10660,34112
10661,34112
10662,34048
10663,34112
10664,34112
10665,34112
10666,34112
10667,34112
10668,34176
10669,34176
10670,34112
10671,34048
10672,34112
10673,34112
10674,34112
10675,34112
10676,34176
10677,34240
10678,34368
10679,34496
10680,34560
10681,34560
10682,34624
10683,34560
10684,34496
10685,34496
10686,34432
10687,34432
10688,34496
10689,34496
10690,34432
10691,34368
10692,34240
10693,34240
10694,34240
10695,34176
10696,34176
10697,34176
10698,34240
10699,34112
10700,33920
10701,33792
10702,33728
10703,33664
10704,33664
10705,33728
10706,33856
10707,33920
10708,33984
10709,34048
10710,34112
10711,34112
10712,34048
10713,33984
10714,34048
10715,34112
10716,34368
10717,35008
10718,36096
10719,37760
10720,39744
10721,42048
10722,44352
10723,45632
10724,45248
10725,43264
10726,40320
10727,36736
10728,33088
10729,30080
10730,28224
10731,27584
10732,27776
10733,28544
10734,29632
10735,30784
10736,31872
10737,32768
10738,33536
10739,34112
10740,34496
10741,34624
10742,34688
10743,34752
10744,34752
10745,34624
10746,34496
10747,34432
10748,34368
10749,34240
10750,34176
10751,34112
10752,34112
10753,34048
10754,34048
10755,34048
10756,34048
10757,34048
10758,34048
10759,34048
10760,34048
10761,34112
10762,34112
10763,34112
10764,34112
10765,34112
10766,34112
10767,34048
10768,34048
10769,34112
10770,34048
10771,34048
10772,33984
10773,33984
10774,33920
10775,33792
10776,33728
10777,33728
10778,33664
10779,33600
10780,33600
10781,33600
10782,33600
10783,33536
10784,33536
10785,33600
10786,33728
10787,33792
10788,33792
10789,33920
10790,34048
10791,34112
10792,34112
10793,34176
10794,34240
10795,34176
10796,34048
10797,34048
10798,34048
10799,33984
10800,33920
10801,33920
10802,33920
10803,33920
10804,33856
10805,33920
10806,33984
10807,33984
10808,33920
10809,33984
10810,34048
10811,34048
10812,33984
10813,33984
10814,34048
10815,34048
10816,33984
10817,33984
10818,33984
10819,34048
10820,33984
10821,33920
10822,33920
10823,33984
10824,33920
10825,33920
10826,33920
10827,33920
10828,33920
10829,33920
10830,33920
10831,33920
10832,33984
10833,33984
10834,33984
10835,33984
10836,33920
10837,33920
10838,33856
10839,33920
10840,33920
10841,33920
10842,33920
10843,33920
10844,34048
10845,33984
10846,33920
10847,33984
10848,33984
10849,33984
10850,33984
10851,33984
10852,34048
10853,34048
10854,33984
10855,33984
10856,33984
10857,33984
10858,33984
10859,33984
10860,34048
10861,34048
10862,34048
10863,34048
10864,34048
10865,34112
10866,34048
10867,33984
10868,34048
10869,34048
10870,34048
10871,33984
10872,33984
10873,34048
10874,34048
10875,34048
10876,34048
10877,34112
10878,34048
10879,34048
10880,34048
10881,34240
10882,34368
10883,34432
10884,34432
10885,34496
10886,34496
10887,34432
10888,34368
10889,34368
10890,34368
10891,34368
10892,34304
10893,34240
10894,34240
10895,34240
10896,34112
10897,34048
10898,34048
10899,33984
10900,33984
10901,34048
10902,34048
10903,34048
10904,33920
10905,33792
10906,33792
10907,33792
10908,33792
10909,33792
10910,33920
10911,33984
10912,33920
10913,33984
10914,34048
10915,34112
10916,34048
10917,33984
10918,33984
10919,34176
10920,34560
10921,35200
10922,36416
10923,38144
10924,40320
