,ECG
0,32512
1,32256
2,32000
3,31808
4,31744
5,31680
6,31552
7,31488
8,31552
9,31680
10,31744
11,31808
12,32000
13,32128
14,32192
15,32256
16,32320
17,32448
18,32512
19,32448
20,32512
21,32512
22,32576
23,32512
24,32512
25,32576
26,32576
27,32640
28,32640
29,32704
30,32704
31,32640
32,32576
33,32576
34,32576
35,32512
36,32384
37,32384
38,32384
39,32384
40,32320
41,32320
42,32384
43,32320
44,32256
45,32256
46,32320
47,32384
48,32384
49,32320
50,32384
51,32448
52,32448
53,32448
54,32448
55,32448
56,32384
57,32384
58,32384
59,32448
60,32384
61,32320
62,32384
63,32576
64,32576
65,32640
66,32768
67,32832
68,32832
69,32832
70,32832
71,33024
72,33024
73,32896
74,32832
75,32832
76,32768
77,32640
78,32512
79,32448
80,32384
81,32256
82,32064
83,32000
84,32000
85,32000
86,32000
87,32192
88,32192
89,32192
90,32192
91,32256
92,32384
93,32384
94,32320
95,32320
96,32192
97,32064
98,31808
99,31936
100,32576
101,33856
102,37184
103,38464
104,41280
105,43712
106,44608
107,43328
108,40192
109,36224
110,32576
111,29760
112,28096
113,27328
114,27136
115,27456
116,28032
117,28928
118,29568
119,30272
120,30912
121,31552
122,32000
123,32320
124,32576
125,32832
126,32960
127,32960
128,32896
129,32960
130,32960
131,32896
132,32832
133,32896
134,32896
135,32832
136,32768
137,32768
138,32832
139,32896
140,32832
141,32832
142,32960
143,33024
144,33024
145,33088
146,33152
147,33280
148,33344
149,33408
150,33536
151,33664
152,33664
153,33664
154,33728
155,33792
156,33792
157,33792
158,33792
159,33856
160,33792
161,33728
162,33728
163,33728
164,33664
165,33536
166,33408
167,33280
168,33088
169,32896
170,32640
171,32448
172,32256
173,32064
174,31872
175,31872
176,31936
177,31872
178,31872
179,31936
180,32064
181,32064
182,32128
183,32256
184,32384
185,32448
186,32448
187,32512
188,32640
189,32640
190,32576
191,32576
192,32640
193,32704
194,32640
195,32640
196,32704
197,32704
198,32640
199,32640
200,32704
201,32704
202,32576
203,32576
204,32640
205,32704
206,32640
207,32576
208,32640
209,32640
210,32640
211,32576
212,32576
213,32640
214,32640
215,32512
216,32512
217,32576
218,32576
219,32512
220,32512
221,32512
222,32576
223,32512
224,32512
225,32512
226,32512
227,32448
228,32448
229,32448
230,32512
231,32512
232,32576
233,32768
234,32960
235,33024
236,33088
237,33152
238,33152
239,33152
240,33088
241,33152
242,33216
243,33216
244,33088
245,32960
246,32832
247,32704
248,32576
249,32448
250,32448
251,32384
252,32320
253,32192
254,32192
255,32192
256,32192
257,32128
258,32192
259,32320
260,32384
261,32384
262,32448
263,32576
264,32576
265,32448
266,32256
267,32192
268,32192
269,32384
270,33216
271,34944
272,37312
273,40064
274,42752
275,44672
276,44672
277,42432
278,38720
279,34752
280,31424
281,29120
282,27776
283,27200
284,27264
285,27712
286,28352
287,29120
288,29952
289,30656
290,31232
291,31744
292,32320
293,32640
294,32896
295,32960
296,33088
297,33152
298,33088
299,33024
300,33024
301,32960
302,32896
303,32832
304,32832
305,32896
306,32896
307,32896
308,32896
309,33024
310,33024
311,33024
312,33088
313,33152
314,33216
315,33216
316,33280
317,33344
318,33408
319,33408
320,33472
321,33600
322,33728
323,33728
324,33792
325,33856
326,33920
327,33856
328,33856
329,33856
330,33856
331,33856
332,33728
333,33728
334,33728
335,33600
336,33408
337,33216
338,33024
339,32832
340,32512
341,32256
342,32128
343,32000
344,31808
345,31744
346,31744
347,31808
348,31744
349,31808
350,31936
351,32064
352,32064
353,32128
354,32256
355,32384
356,32512
357,32512
358,32576
359,32704
360,32704
361,32640
362,32640
363,32704
364,32704
365,32640
366,32576
367,32640
368,32640
369,32512
370,32512
371,32576
372,32576
373,32576
374,32512
375,32512
376,32576
377,32512
378,32448
379,32512
380,32576
381,32576
382,32512
383,32512
384,32576
385,32576
386,32512
387,32448
388,32512
389,32512
390,32448
391,32384
392,32448
393,32448
394,32384
395,32384
396,32448
397,32448
398,32384
399,32384
400,32448
401,32576
402,32512
403,32512
404,32576
405,32640
406,32640
407,32576
408,32576
409,32704
410,32640
411,32640
412,32576
413,32640
414,32640
415,32576
416,32640
417,32768
418,32896
419,32960
420,33024
421,33088
422,33088
423,33024
424,33024
425,33152
426,33216
427,33152
428,33024
429,32960
430,32896
431,32768
432,32576
433,32448
434,32448
435,32384
436,32256
437,32192
438,32192
439,32192
440,32128
441,32192
442,32256
443,32320
444,32384
445,32384
446,32448
447,32512
448,32512
449,32448
450,32320
451,32192
452,32064
453,32128
454,32768
455,34304
456,36608
457,39360
458,42368
459,44864
460,45440
461,43840
462,40384
463,36096
464,32576
465,29760
466,27968
467,27136
468,27008
469,27264
470,27840
471,28672
472,29568
473,30336
474,31040
475,31616
476,32192
477,32512
478,32704
479,32896
480,33088
481,33088
482,33024
483,33024
484,33024
485,33024
486,32896
487,32768
488,32832
489,32832
490,32768
491,32768
492,32832
493,32896
494,32832
495,32832
496,32960
497,33024
498,33088
499,33088
500,33216
501,33344
502,33408
503,33408
504,33536
505,33664
506,33728
507,33728
508,33792
509,33856
510,33856
511,33792
512,33792
513,33856
514,33856
515,33792
516,33728
517,33728
518,33728
519,33600
520,33472
521,33344
522,33216
523,32896
524,32640
525,32448
526,32256
527,32064
528,31808
529,31680
530,31680
531,31616
532,31616
533,31680
534,31744
535,31872
536,31936
537,32064
538,32256
539,32384
540,32384
541,32448
542,32512
543,32576
544,32576
545,32576
546,32576
547,32640
548,32576
549,32512
550,32512
551,32576
552,32576
553,32512
554,32512
555,32512
556,32448
557,32384
558,32384
559,32448
560,32448
561,32384
562,32384
563,32384
564,32448
565,32384
566,32384
567,32448
568,32448
569,32448
570,32384
571,32448
572,32448
573,32448
574,32384
575,32448
576,32448
577,32448
578,32384
579,32384
580,32448
581,32448
582,32320
583,32384
584,32448
585,32448
586,32384
587,32384
588,32448
589,32512
590,32448
591,32448
592,32512
593,32576
594,32512
595,32448
596,32512
597,32576
598,32512
599,32448
600,32512
601,32576
602,32512
603,32512
604,32512
605,32512
606,32512
607,32512
608,32512
609,32704
610,32832
611,32896
612,32960
613,33088
614,33152
615,33088
616,33024
617,33088
618,33152
619,33152
620,33088
621,33024
622,32960
623,32832
624,32640
625,32512
626,32512
627,32384
628,32320
629,32192
630,32192
631,32128
632,32064
633,32064
634,32192
635,32256
636,32256
637,32320
638,32448
639,32512
640,32448
641,32448
642,32448
643,32320
644,32064
645,31936
646,32192
647,33088
648,34816
649,37184
650,40128
651,43072
652,45056
653,45120
654,42880
655,39232
656,35200
657,31616
658,29056
659,27776
660,27072
661,27008
662,27392
663,28160
664,28992
665,29696
666,30464
667,31168
668,31744
669,32256
670,32512
671,32832
672,33024
673,33152
674,33088
675,33088
676,33152
677,33088
678,33024
679,32960
680,32960
681,32960
682,32832
683,32832
684,32896
685,32896
686,32896
687,32896
688,32960
689,33024
690,33024
691,33088
692,33152
693,33280
694,33344
695,33344
696,33472
697,33600
698,33600
699,33664
700,33728
701,33856
702,33856
703,33856
704,33856
705,33920
706,33920
707,33920
708,33856
709,33856
710,33856
711,33728
712,33664
713,33600
714,33472
715,33216
716,32960
717,32768
718,32576
719,32320
720,32064
721,31936
722,31808
723,31744
724,31616
725,31680
726,31744
727,31872
728,31872
729,32000
730,32128
731,32256
732,32256
733,32320
734,32448
735,32576
736,32576
737,32512
738,32576
739,32640
740,32576
741,32512
742,32576
743,32640
744,32576
745,32512
746,32512
747,32576
748,32576
749,32448
750,32448
751,32448
752,32448
753,32384
754,32384
755,32384
756,32448
757,32384
758,32384
759,32448
760,32448
761,32384
762,32320
763,32384
764,32384
765,32384
766,32320
767,32320
768,32320
769,32256
770,32192
771,32256
772,32320
773,32320
774,32256
775,32320
776,32384
777,32384
778,32320
779,32320
780,32384
781,32448
782,32384
783,32384
784,32448
785,32512
786,32448
787,32448
788,32448
789,32512
790,32448
791,32384
792,32384
793,32448
794,32448
795,32448
796,32512
797,32576
798,32512
799,32512
800,32512
801,32576
802,32576
803,32512
804,32512
805,32576
806,32576
807,32576
808,32640
809,32768
810,32896
811,32960
812,33024
813,33088
814,33088
815,33024
816,33024
817,33152
818,33216
819,33152
820,33024
821,32960
822,32960
823,32768
824,32576
825,32512
826,32448
827,32384
828,32256
829,32192
830,32192
831,32192
832,32128
833,32128
834,32256
835,32320
836,32320
837,32320
838,32448
839,32448
840,32448
841,32320
842,32192
843,32064
844,32000
845,32192
846,33152
847,35008
848,37504
849,40704
850,43264
851,45120
852,44992
853,42560
854,38720
855,34752
856,31424
857,29056
858,27648
859,27072
860,27136
861,27584
862,28224
863,29056
864,29952
865,30656
866,31232
867,31808
868,32384
869,32640
870,32832
871,32960
872,33088
873,33088
874,33024
875,33024
876,33024
877,32960
878,32832
879,32832
880,32832
881,32832
882,32768
883,32768
884,32768
885,32896
886,32896
887,32896
888,32960
889,33088
890,33152
891,33152
892,33216
893,33344
894,33408
895,33472
896,33536
897,33664
898,33728
899,33728
900,33728
901,33856
902,33920
903,33856
904,33856
905,33920
906,33920
907,33856
908,33792
909,33792
910,33792
911,33664
912,33472
913,33408
914,33280
915,32960
916,32704
917,32320
918,32128
919,31872
920,31808
921,31744
922,31680
923,31680
924,31680
925,31616
926,31936
927,32000
928,31936
929,32192
930,32320
931,32320
932,32448
933,32512
934,32640
935,32640
936,32704
937,32704
938,32768
939,32768
940,32704
941,32640
942,32768
943,32704
944,32768
945,32768
946,32832
947,32832
948,32768
949,32704
950,32768
951,32704
952,32640
953,32576
954,32640
955,32640
956,32512
957,32448
958,32448
959,32512
960,32384
961,32320
962,32320
963,32384
964,32384
965,32320
966,32320
967,32384
968,32320
969,32256
970,32256
971,32320
972,32384
973,32320
974,32320
975,32384
976,32384
977,32384
978,32384
979,32384
980,32448
981,32384
982,32320
983,32384
984,32448
985,32384
986,32384
987,32384
988,32384
989,32448
990,32384
991,32384
992,32448
993,32448
994,32384
995,32384
996,32448
997,32512
998,32448
999,32448
1000,32448
1001,32512
1002,32512
1003,32448
1004,32576
1005,32640
1006,32704
1007,32704
1008,32832
1009,32960
1010,32896
1011,32832
1012,32896
1013,33024
1014,33024
1015,33024
1016,33024
1017,33024
1018,32896
1019,32768
1020,32640
1021,32640
1022,32576
1023,32448
1024,32320
1025,32320
1026,32256
1027,32128
1028,32064
1029,32128
1030,32192
1031,32256
1032,32256
1033,32192
1034,32384
1035,32448
1036,32384
1037,32384
1038,32384
1039,32256
1040,32000
1041,31936
1042,32320
1043,33344
1044,35136
1045,37568
1046,40448
1047,43392
1048,43584
1049,44288
1050,41728
1051,37952
1052,34048
1053,30912
1054,28864
1055,27648
1056,27200
1057,27264
1058,27776
1059,28544
1060,29248
1061,29952
1062,30656
1063,31360
1064,31872
1065,32192
1066,32512
1067,32768
1068,32960
1069,32960
1070,33024
1071,33088
1072,33024
1073,32960
1074,32896
1075,32960
1076,32896
1077,32832
1078,32768
1079,32768
1080,32832
1081,32896
1082,32832
1083,32896
1084,33024
1085,33024
1086,32960
1087,33024
1088,33152
1089,33216
1090,33280
1091,33280
1092,33472
1093,33536
1094,33536
1095,33600
1096,33728
1097,33792
1098,33792
1099,33792
1100,33856
1101,33920
1102,33856
1103,33792
1104,33856
1105,33856
1106,33792
1107,33664
1108,33600
1109,33536
1110,33344
1111,33088
1112,32896
1113,32704
1114,32448
1115,32192
1116,32000
1117,31872
1118,31744
1119,31616
1120,31616
1121,31680
1122,31744
1123,31808
1124,31872
1125,32000
1126,32128
1127,32192
1128,32256
1129,32384
1130,32448
1131,32448
1132,32448
1133,32512
1134,32576
1135,32576
1136,32512
1137,32576
1138,32576
1139,32576
1140,32512
1141,32512
1142,32576
1143,32576
1144,32448
1145,32448
1146,32448
1147,32512
1148,32448
1149,32448
1150,32448
1151,32512
1152,32448
1153,32384
1154,32384
1155,32448
1156,32448
1157,32384
1158,32448
1159,32448
1160,32448
1161,32384
1162,32320
1163,32448
1164,32448
1165,32384
1166,32320
1167,32384
1168,32384
1169,32320
1170,32320
1171,32384
1172,32448
1173,32384
1174,32320
1175,32384
1176,32448
1177,32384
1178,32384
1179,32384
1180,32448
1181,32448
1182,32384
1183,32384
1184,32448
1185,32512
1186,32448
1187,32448
1188,32448
1189,32512
1190,32448
1191,32448
1192,32512
1193,32512
1194,32448
1195,32448
1196,32576
1197,32640
1198,32640
1199,32704
1200,32832
1201,32960
1202,32960
1203,32896
1204,32960
1205,33024
1206,33024
1207,33024
1208,33088
1209,33152
1210,33024
1211,32896
1212,32768
1213,32768
1214,32576
1215,32448
1216,32448
1217,32448
1218,32384
1219,32256
1220,32192
1221,32192
1222,32256
1223,32256
1224,32256
1225,32384
1226,32448
1227,32512
1228,32448
1229,32512
1230,32512
1231,32384
1232,32128
1233,32064
1234,32192
1235,32704
1236,33920
1237,35968
1238,38720
1239,41600
1240,43968
1241,44928
1242,43840
1243,40704
1244,36672
1245,32960
1246,30144
1247,28416
1248,27456
1249,27136
1250,27456
1251,28096
1252,28800
1253,29504
1254,30336
1255,31040
1256,31616
1257,32128
1258,32512
1259,32768
1260,32960
1261,33024
1262,33088
1263,33216
1264,33216
1265,33088
1266,33024
1267,33088
1268,33024
1269,32960
1270,32896
1271,32896
1272,32960
1273,32960
1274,32960
1275,33024
1276,33088
1277,33088
1278,33088
1279,33152
1280,33280
1281,33344
1282,33344
1283,33408
1284,33536
1285,33600
1286,33600
1287,33728
1288,33792
1289,33856
1290,33856
1291,33920
1292,33984
1293,33984
1294,33920
1295,33920
1296,33920
1297,33920
1298,33856
1299,33792
1300,33792
1301,33728
1302,33536
1303,33280
1304,33152
1305,32960
1306,32640
1307,32384
1308,32192
1309,32064
1310,31936
1311,31744
1312,31680
1313,31744
1314,31808
1315,31808
1316,31936
1317,32064
1318,32192
1319,32192
1320,32256
1321,32384
1322,32512
1323,32512
1324,32512
1325,32640
1326,32640
1327,32640
1328,32640
1329,32640
1330,32704
1331,32704
1332,32640
1333,32640
1334,32640
1335,32640
1336,32576
1337,32576
1338,32640
1339,32640
1340,32576
1341,32576
1342,32576
1343,32640
1344,32576
1345,32512
1346,32576
1347,32576
1348,32576
1349,32512
1350,32512
1351,32576
1352,32576
1353,32512
1354,32512
1355,32512
1356,32512
1357,32448
1358,32448
1359,32512
1360,32512
1361,32448
1362,32512
1363,32576
1364,32576
1365,32512
1366,32512
1367,32576
1368,32640
1369,32576
1370,32576
1371,32640
1372,32640
1373,32576
1374,32512
1375,32576
1376,32640
1377,32576
1378,32512
1379,32576
1380,32640
1381,32640
1382,32576
1383,32576
1384,32640
1385,32640
1386,32640
1387,32704
1388,32768
1389,32832
1390,32832
1391,32896
1392,33088
1393,33152
1394,33088
1395,33088
1396,33088
1397,33152
1398,33216
1399,33152
1400,33152
1401,33152
1402,33024
1403,32896
1404,32832
1405,32768
1406,32640
1407,32512
1408,32448
1409,32448
1410,32384
1411,32256
1412,32256
1413,32320
1414,32320
1415,32320
1416,32384
1417,32448
1418,32512
1419,32512
1420,32512
1421,32576
1422,32512
1423,32320
1424,32128
1425,32128
1426,32512
1427,33472
1428,35328
1429,37888
1430,40768
1431,43520
1432,45120
1433,44736
1434,42176
1435,38272
1436,34240
1437,30976
1438,28800
1439,27648
1440,27136
1441,27264
1442,27776
1443,28544
1444,29312
1445,30016
1446,30784
1447,31424
1448,32000
1449,32384
1450,32704
1451,32960
1452,33088
1453,33088
1454,33152
1455,33152
1456,33152
1457,33024
1458,33024
1459,33024
1460,33024
1461,32960
1462,32896
1463,32896
1464,32896
1465,32896
1466,32896
1467,33024
1468,33024
1469,33088
1470,33088
1471,33216
1472,33344
1473,33344
1474,33408
1475,33536
1476,33664
1477,33728
1478,33792
1479,33856
1480,33984
1481,33984
1482,33984
1483,33984
1484,34048
1485,34048
1486,34048
1487,33984
1488,33984
1489,33920
1490,33856
1491,33728
1492,33664
1493,33600
1494,33344
1495,33088
1496,32896
1497,32640
1498,32384
1499,32128
1500,31936
1501,31872
1502,31744
1503,31680
1504,31680
1505,31744
1506,31872
1507,31872
1508,32000
1509,32128
1510,32192
1511,32256
1512,32384
1513,32448
1514,32512
1515,32512
1516,32512
1517,32576
1518,32640
1519,32640
1520,32576
1521,32640
1522,32640
1523,32640
1524,32576
1525,32576
1526,32576
1527,32576
1528,32512
1529,32512
1530,32576
1531,32512
1532,32512
1533,32512
1534,32576
1535,32576
1536,32512
1537,32448
1538,32512
1539,32512
1540,32448
1541,32448
1542,32448
1543,32512
1544,32448
1545,32448
1546,32448
1547,32512
1548,32512
1549,32448
1550,32512
1551,32576
1552,32512
1553,32448
1554,32448
1555,32448
1556,32512
1557,32448
1558,32448
1559,32448
1560,32512
1561,32448
1562,32448
1563,32512
1564,32512
1565,32512
1566,32512
1567,32512
1568,32576
1569,32512
1570,32512
1571,32512
1572,32576
1573,32576
1574,32576
1575,32576
1576,32640
1577,32640
1578,32576
1579,32576
1580,32640
1581,32640
1582,32640
1583,32640
1584,32704
1585,32704
1586,32640
1587,32640
1588,32704
1589,32768
1590,32832
1591,32896
1592,33024
1593,33152
1594,33152
1595,33088
1596,33088
1597,33216
1598,33216
1599,33216
1600,33152
1601,33152
1602,33024
1603,32960
1604,32832
1605,32768
1606,32704
1607,32576
1608,32512
1609,32448
1610,32384
1611,32256
1612,32192
1613,32256
1614,32320
1615,32320
1616,32384
1617,32448
1618,32576
1619,32640
1620,32576
1621,32576
1622,32576
1623,32384
1624,32192
1625,32128
1626,32448
1627,33280
1628,35072
1629,37632
1630,40512
1631,43392
1632,45568
1633,45312
1634,43136
1635,39360
1636,35136
1637,31616
1638,29184
1639,27776
1640,27072
1641,27072
1642,27520
1643,28224
1644,28992
1645,29760
1646,30528
1647,31296
1648,31872
1649,32256
1650,32640
1651,32896
1652,33088
1653,33152
1654,33152
1655,33216
1656,33216
1657,33088
1658,33024
1659,33024
1660,32960
1661,32960
1662,32896
1663,32896
1664,32960
1665,32960
1666,32960
1667,32960
1668,33088
1669,33088
1670,33088
1671,33216
1672,33344
1673,33408
1674,33408
1675,33472
1676,33600
1677,33728
1678,33728
1679,33792
1680,33920
1681,34048
1682,34048
1683,34048
1684,34112
1685,34176
1686,34112
1687,34048
1688,34048
1689,34048
1690,33984
1691,33920
1692,33856
1693,33728
1694,33536
1695,33280
1696,33024
1697,32832
1698,32576
1699,32256
1700,32064
1701,31936
1702,31808
1703,31680
1704,31616
1705,31744
1706,31808
1707,31808
1708,31872
1709,32000
1710,32192
1711,32256
1712,32256
1713,32384
1714,32448
1715,32512
1716,32512
1717,32576
1718,32640
1719,32576
1720,32576
1721,32576
1722,32640
1723,32640
1724,32512
1725,32512
1726,32576
1727,32576
1728,32512
1729,32448
1730,32512
1731,32512
1732,32448
1733,32448
1734,32512
1735,32512
1736,32448
1737,32448
1738,32512
1739,32512
1740,32512
1741,32448
1742,32448
1743,32512
1744,32512
1745,32448
1746,32448
1747,32512
1748,32448
1749,32384
1750,32384
1751,32448
1752,32448
1753,32384
1754,32384
1755,32448
1756,32448
1757,32384
1758,32384
1759,32384
1760,32448
1761,32448
1762,32384
1763,32448
1764,32448
1765,32448
1766,32384
1767,32512
1768,32512
1769,32512
1770,32448
1771,32448
1772,32512
1773,32512
1774,32448
1775,32448
1776,32512
1777,32512
1778,32448
1779,32448
1780,32512
1781,32512
1782,32512
1783,32448
1784,32512
1785,32576
1786,32512
1787,32512
1788,32512
1789,32576
1790,32576
1791,32512
1792,32576
1793,32640
1794,32576
1795,32576
1796,32576
1797,32640
1798,32640
1799,32640
1800,32640
1801,32704
1802,32768
1803,32768
1804,32832
1805,32960
1806,33088
1807,33152
1808,33088
1809,33088
1810,33152
1811,33152
1812,33152
1813,33216
1814,33216
1815,33088
1816,32960
1817,32832
1818,32768
1819,32640
1820,32512
1821,32448
1822,32512
1823,32448
1824,32320
1825,32256
1826,32256
1827,32320
1828,32256
1829,32320
1830,32448
1831,32512
1832,32512
1833,32512
1834,32576
1835,32640
1836,32512
1837,32256
1838,32128
1839,32192
1840,32576
1841,33600
1842,36672
1843,38592
1844,41408
1845,44160
1846,45632
1847,45056
1848,42304
1849,38144
1850,34048
1851,30848
1852,28672
1853,27392
1854,26880
1855,27072
1856,27648
1857,28352
1858,29120
1859,29952
1860,30720
1861,31360
1862,31936
1863,32320
1864,32704
1865,32960
1866,33024
1867,33088
1868,33152
1869,33152
1870,33088
1871,33024
1872,32960
1873,32960
1874,32896
1875,32832
1876,32896
1877,32896
1878,32896
1879,32832
1880,32960
1881,33024
1882,33024
1883,33024
1884,33088
1885,33216
1886,33216
1887,33280
1888,33408
1889,33536
1890,33600
1891,33664
1892,33728
1893,33856
1894,33920
1895,33920
1896,33984
1897,34048
1898,34048
1899,34048
1900,34048
1901,34048
1902,34048
1903,33984
1904,33920
1905,33920
1906,33856
1907,33664
1908,33408
1909,33216
1910,33024
1911,32768
1912,32448
1913,32192
1914,32000
1915,31808
1916,31680
1917,31552
1918,31616
1919,31616
1920,31616
1921,31616
1922,31808
1923,31936
1924,32000
1925,32064
1926,32192
1927,32320
1928,32384
1929,32384
1930,32448
1931,32512
1932,32512
1933,32448
1934,32512
1935,32576
1936,32512
1937,32448
1938,32448
1939,32512
1940,32512
1941,32448
1942,32448
1943,32448
1944,32448
1945,32384
1946,32384
1947,32448
1948,32448
1949,32384
1950,32320
1951,32384
1952,32448
1953,32448
1954,32384
1955,32448
1956,32448
1957,32448
1958,32384
1959,32384
1960,32448
1961,32448
1962,32384
1963,32384
1964,32448
1965,32384
1966,32384
1967,32320
1968,32384
1969,32448
1970,32384
1971,32320
1972,32384
1973,32384
1974,32320
1975,32320
1976,32384
1977,32448
1978,32384
1979,32384
1980,32448
1981,32512
1982,32512
1983,32448
1984,32448
1985,32512
1986,32512
1987,32512
1988,32512
1989,32576
1990,32576
1991,32512
1992,32512
1993,32512
1994,32576
1995,32512
1996,32448
1997,32512
1998,32576
1999,32512
2000,32512
2001,32512
2002,32576
2003,32512
2004,32512
2005,32512
2006,32576
2007,32576
2008,32512
2009,32576
2010,32576
2011,32640
2012,32576
2013,32576
2014,32640
2015,32640
2016,32576
2017,32576
2018,32640
2019,32640
2020,32640
2021,32576
2022,32768
2023,32768
2024,32832
2025,32896
2026,33088
2027,33152
2028,33152
2029,33088
2030,33152
2031,33280
2032,33280
2033,33216
2034,33216
2035,33152
2036,33024
2037,32768
2038,32704
2039,32640
2040,32576
2041,32512
2042,32448
2043,32448
2044,32384
2045,32320
2046,32256
2047,32384
2048,32448
2049,32448
2050,32448
2051,32512
2052,32640
2053,32576
2054,32576
2055,32576
2056,32512
2057,32320
2058,32128
2059,32256
2060,32896
2061,34176
2062,36352
2063,39168
2064,42176
2065,44736
2066,45632
2067,44160
2068,41216
2069,37120
2070,33152
2071,30208
2072,28352
2073,27392
2074,27072
2075,27264
2076,27904
2077,28672
2078,29440
2079,30272
2080,30976
2081,31616
2082,32320
2083,32448
2084,32768
2085,33024
2086,33152
2087,33152
2088,33152
2089,33216
2090,33216
2091,33088
2092,33024
2093,33024
2094,33024
2095,32960
2096,32896
2097,32896
2098,32960
2099,32960
2100,32896
2101,32960
2102,33088
2103,33088
2104,33152
2105,33216
2106,33344
2107,33472
2108,33472
2109,33536
2110,33728
2111,33792
2112,33856
2113,33920
2114,34048
2115,34112
2116,34112
2117,34112
2118,34176
2119,34176
2120,34112
2121,34048
2122,34112
2123,34112
2124,33984
2125,33920
2126,33792
2127,33728
2128,33472
2129,33216
2130,32960
2131,32704
2132,32448
2133,32128
2134,31936
2135,31808
2136,31680
2137,31552
2138,31552
2139,31616
2140,31744
2141,31808
2142,31872
2143,32064
2144,32192
2145,32256
2146,32320
2147,32448
2148,32512
2149,32576
2150,32512
2151,32576
2152,32640
2153,32576
2154,32576
2155,32576
2156,32640
2157,32576
2158,32512
2159,32512
2160,32512
2161,32576
2162,32512
2163,32512
2164,32576
2165,32576
2166,32512
2167,32512
2168,32512
2169,32576
2170,32512
2171,32448
2172,32512
2173,32512
2174,32512
2175,32448
2176,32448
2177,32448
2178,32448
2179,32384
2180,32384
2181,32448
2182,32512
2183,32448
2184,32448
2185,32512
2186,32512
2187,32448
2188,32448
2189,32448
2190,32512
2191,32448
2192,32384
2193,32448
2194,32512
2195,32448
2196,32448
2197,32448
2198,32512
2199,32512
2200,32448
2201,32512
2202,32576
2203,32576
2204,32576
2205,32576
2206,32576
2207,32576
2208,32512
2209,32512
2210,32576
2211,32576
2212,32512
2213,32512
2214,32576
2215,32640
2216,32640
2217,32576
2218,32576
2219,32640
2220,32576
2221,32576
2222,32576
2223,32640
2224,32640
2225,32640
2226,32640
2227,32640
2228,32640
2229,32640
2230,32640
2231,32640
2232,32704
2233,32640
2234,32640
2235,32704
2236,32704
2237,32640
2238,32640
2239,32704
2240,32704
2241,32704
2242,32640
2243,32704
2244,32768
2245,32704
2246,32640
2247,32704
2248,32832
2249,32832
2250,32832
2251,32960
2252,33088
2253,33216
2254,33152
2255,33152
2256,33216
2257,33344
2258,33280
2259,33280
2260,33280
2261,33216
2262,33088
2263,32960
2264,32896
2265,32768
2266,32704
2267,32576
2268,32576
2269,32512
2270,32448
2271,32320
2272,32384
2273,32448
2274,32448
2275,32448
2276,32512
2277,32576
2278,32640
2279,32640
2280,32640
2281,32640
2282,32512
2283,32256
2284,32128
2285,32320
2286,33024
2287,34496
2288,36800
2289,39744
2290,42688
2291,44992
2292,45568
2293,43968
2294,40512
2295,36352
2296,32576
2297,29824
2298,28160
2299,27328
2300,27136
2301,27456
2302,28096
2303,28864
2304,29632
2305,30400
2306,31104
2307,31744
2308,32192
2309,32512
2310,32896
2311,33088
2312,33152
2313,33152
2314,33216
2315,33216
2316,33152
2317,33088
2318,33024
2319,33024
2320,32960
2321,32896
2322,32896
2323,32960
2324,32960
2325,32960
2326,32960
2327,33024
2328,33088
2329,33088
2330,33088
2331,33216
2332,33344
2333,33344
2334,33472
2335,33600
2336,33664
2337,33728
2338,33728
2339,33856
2340,33984
2341,33984
2342,34048
2343,34112
2344,34176
2345,34112
2346,34048
2347,34048
2348,34112
2349,34112
2350,33984
2351,33920
2352,33856
2353,33728
2354,33472
2355,33216
2356,33024
2357,32768
2358,32448
2359,32128
2360,31936
2361,31808
2362,31680
2363,31552
2364,31552
2365,31616
2366,31616
2367,31680
2368,31808
2369,31936
2370,32000
2371,32064
2372,32192
2373,32320
2374,32320
2375,32384
2376,32448
2377,32512
2378,32512
2379,32512
2380,32512
2381,32512
2382,32576
2383,32512
2384,32448
2385,32512
2386,32512
2387,32448
2388,32384
2389,32384
2390,32448
2391,32448
2392,32384
2393,32448
2394,32512
2395,32448
2396,32448
2397,32448
2398,32448
2399,32448
2400,32384
2401,32384
2402,32448
2403,32448
2404,32384
2405,32384
2406,32448
2407,32448
2408,32384
2409,32384
2410,32448
2411,32448
2412,32384
2413,32384
2414,32384
2415,32448
2416,32448
2417,32448
2418,32448
2419,32448
2420,32384
2421,32384
2422,32384
2423,32448
2424,32448
2425,32448
2426,32448
2427,32512
2428,32576
2429,32512
2430,32448
2431,32512
2432,32576
2433,32512
2434,32448
2435,32448
2436,32512
2437,32512
2438,32448
2439,32512
2440,32512
2441,32512
2442,32448
2443,32512
2444,32576
2445,32512
2446,32512
2447,32512
2448,32576
2449,32576
2450,32512
2451,32512
2452,32576
2453,32576
2454,32576
2455,32512
2456,32576
2457,32640
2458,32576
2459,32576
2460,32576
2461,32640
2462,32576
2463,32576
2464,32640
2465,32704
2466,32704
2467,32704
2468,32768
2469,32960
2470,33024
2471,33024
2472,33024
2473,33088
2474,33088
2475,33152
2476,33216
2477,33280
2478,33216
2479,33088
2480,32960
2481,32896
2482,32768
2483,32640
2484,32512
2485,32512
2486,32448
2487,32320
2488,32256
2489,32256
2490,32320
2491,32320
2492,32320
2493,32448
2494,32512
2495,32576
2496,32512
2497,32576
2498,32576
2499,32448
2500,32256
2501,32128
2502,32192
2503,32576
2504,33600
2505,35520
2506,38080
2507,40960
2508,43584
2509,44992
2510,44480
2511,41792
2512,37824
2513,33920
2514,30848
2515,28736
2516,27648
2517,27200
2518,27392
2519,27968
2520,28608
2521,29376
2522,30144
2523,30912
2524,31552
2525,32000
2526,32384
2527,32768
2528,32960
2529,33088
2530,33088
2531,33216
2532,33280
2533,33152
2534,33088
2535,33088
2536,33088
2537,32960
2538,32960
2539,32960
2540,33024
2541,33024
2542,32960
2543,33024
2544,33088
2545,33152
2546,33152
2547,33152
2548,33280
2549,33344
2550,33344
2551,33408
2552,33536
2553,33664
2554,33664
2555,33792
2556,33920
2557,34048
2558,34112
2559,34112
2560,34176
2561,34240
2562,34176
2563,34176
2564,34112
2565,34176
2566,34112
2567,34048
2568,33984
2569,33984
2570,33856
2571,33664
2572,33408
2573,33216
2574,32960
2575,32576
2576,32384
2577,32192
2578,32000
2579,31808
2580,31680
2581,31616
2582,31616
2583,31680
2584,31680
2585,31808
2586,31936
2587,32064
2588,32128
2589,32256
2590,32448
2591,32512
2592,32512
2593,32576
2594,32640
2595,32640
2596,32576
2597,32576
2598,32640
2599,32640
2600,32576
2601,32512
2602,32576
2603,32576
2604,32512
2605,32512
2606,32512
2607,32576
2608,32576
2609,32512
2610,32512
2611,32576
2612,32576
2613,32512
2614,32576
2615,32640
2616,32640
2617,32576
2618,32576
2619,32640
2620,32640
2621,32512
2622,32448
2623,32512
2624,32512
2625,32448
2626,32384
2627,32448
2628,32448
2629,32448
2630,32384
2631,32448
2632,32512
2633,32512
2634,32448
2635,32448
2636,32512
2637,32512
2638,32512
2639,32448
2640,32512
2641,32448
2642,32448
2643,32448
2644,32512
2645,32576
2646,32512
2647,32512
2648,32576
2649,32640
2650,32576
2651,32512
2652,32512
2653,32576
2654,32512
2655,32512
2656,32576
2657,32640
2658,32576
2659,32576
2660,32576
2661,32640
2662,32640
2663,32576
2664,32640
2665,32640
2666,32640
2667,32576
2668,32576
2669,32704
2670,32768
2671,32768
2672,32832
2673,32960
2674,33088
2675,33088
2676,33088
2677,33088
2678,33216
2679,33216
2680,33216
2681,33216
2682,33152
2683,33088
2684,32896
2685,32832
2686,32768
2687,32704
2688,32576
2689,32512
2690,32512
2691,32384
2692,32320
2693,32256
2694,32320
2695,32384
2696,32320
2697,32320
2698,32448
2699,32576
2700,32576
2701,32576
2702,32576
2703,32576
2704,32384
2705,32128
2706,32192
2707,32576
2708,33472
2709,35200
2710,37760
2711,40512
2712,43200
2713,44864
2714,44608
2715,42240
2716,38464
2717,34496
2718,31232
2719,29056
2720,27840
2721,27264
2722,27392
2723,27904
2724,28608
2725,29376
2726,30080
2727,30848
2728,31552
2729,32000
2730,32384
2731,32704
2732,32960
2733,33088
2734,33152
2735,33152
2736,33216
2737,33088
2738,33024
2739,33088
2740,33024
2741,32960
2742,32960
2743,33024
2744,33024
2745,32960
2746,32960
2747,33088
2748,33088
2749,33088
2750,33152
2751,33216
2752,33344
2753,33408
2754,33408
2755,33536
2756,33664
2757,33600
2758,33792
2759,33920
2760,34048
2761,34112
2762,34112
2763,34048
2764,34240
2765,34176
2766,34176
2767,34112
2768,34176
2769,34176
2770,34112
2771,33984
2772,33920
2773,33920
2774,33664
2775,33408
2776,33216
2777,32960
2778,32704
2779,32384
2780,32192
2781,32064
2782,31872
2783,31744
2784,31680
2785,31680
2786,31744
2787,31808
2788,31744
2789,32064
2790,32192
2791,32256
2792,32320
2793,32448
2794,32512
2795,32512
2796,32512
2797,32576
2798,32640
2799,32640
2800,32640
2801,32640
2802,32704
2803,32640
2804,32576
2805,32640
2806,32704
2807,32640
2808,32640
2809,32640
2810,32704
2811,32704
2812,32640
2813,32640
2814,32640
2815,32704
2816,32640
2817,32576
2818,32576
2819,32640
2820,32640
2821,32576
2822,32640
2823,32640
2824,32640
2825,32576
2826,32576
2827,32640
2828,32576
2829,32512
2830,32576
2831,32576
2832,32576
2833,32512
2834,32512
2835,32576
2836,32576
2837,32512
2838,32512
2839,32576
2840,32640
2841,32576
2842,32576
2843,32640
2844,32640
2845,32576
2846,32576
2847,32640
2848,32640
2849,32640
2850,32576
2851,32640
2852,32704
2853,32704
2854,32640
2855,32640
2856,32704
2857,32704
2858,32640
2859,32640
2860,32704
2861,32704
2862,32704
2863,32640
2864,32704
2865,32704
2866,32640
2867,32576
2868,32704
2869,32832
2870,32896
2871,32896
2872,33024
2873,33152
2874,33216
2875,33152
2876,33152
2877,33216
2878,33280
2879,33216
2880,33280
2881,33280
2882,33152
2883,33024
2884,32896
2885,32832
2886,32704
2887,32640
2888,32576
2889,32512
2890,32512
2891,32384
2892,32320
2893,32384
2894,32448
2895,32448
2896,32448
2897,32512
2898,32640
2899,32640
2900,32640
2901,32640
2902,32640
2903,32448
2904,32256
2905,32192
2906,32448
2907,33216
2908,34752
2909,37120
2910,40064
2911,42944
2912,45056
2913,45440
2914,43520
2915,39936
2916,35712
2917,32064
2918,29504
2919,27968
2920,27200
2921,27136
2922,27584
2923,28224
2924,28992
2925,29760
2926,30528
2927,31296
2928,31872
2929,32320
2930,32704
2931,32960
2932,33152
2933,33216
2934,33280
2935,33280
2936,33280
2937,33216
2938,33152
2939,33088
2940,33088
2941,33024
2942,32960
2943,33024
2944,33024
2945,33024
2946,32960
2947,33088
2948,33152
2949,33152
2950,33216
2951,33280
2952,33408
2953,33472
2954,33472
2955,33536
2956,33728
2957,33856
2958,33856
2959,33920
2960,34112
2961,34176
2962,34176
2963,34240
2964,34304
2965,34304
2966,34240
2967,34240
2968,34240
2969,34240
2970,34176
2971,34112
2972,34048
2973,33984
2974,33728
2975,33472
2976,33216
2977,32960
2978,32704
2979,32384
2980,32128
2981,31936
2982,31808
2983,31680
2984,31552
2985,31616
2986,31680
2987,31744
2988,31808
2989,32000
2990,32128
2991,32192
2992,32256
2993,32384
2994,32576
2995,32576
2996,32576
2997,32640
2998,32640
2999,32640
3000,32640
3001,32640
3002,32704
3003,32704
3004,32704
3005,32704
3006,32704
3007,32704
3008,32640
3009,32640
3010,32640
3011,32640
3012,32640
3013,32576
3014,32576
3015,32576
3016,32576
3017,32512
3018,32576
3019,32576
3020,32576
3021,32512
3022,32576
3023,32640
3024,32640
3025,32576
3026,32576
3027,32640
3028,32640
3029,32576
3030,32576
3031,32640
3032,32640
3033,32640
3034,32576
3035,32640
3036,32640
3037,32576
3038,32512
3039,32576
3040,32576
3041,32576
3042,32512
3043,32576
3044,32640
3045,32576
3046,32576
3047,32576
3048,32640
3049,32640
3050,32576
3051,32576
3052,32640
3053,32704
3054,32640
3055,32640
3056,32704
3057,32704
3058,32640
3059,32704
3060,32768
3061,32768
3062,32704
3063,32704
3064,32704
3065,32704
3066,32704
3067,32640
3068,32704
3069,32768
3070,32768
3071,32704
3072,32704
3073,32768
3074,32704
3075,32704
3076,32704
3077,32768
3078,32704
3079,32704
3080,32704
3081,32832
3082,32896
3083,32960
3084,33024
3085,33152
3086,33280
3087,33280
3088,33216
3089,33280
3090,33344
3091,33344
3092,33280
3093,33280
3094,33280
3095,33088
3096,32960
3097,32832
3098,32768
3099,32640
3100,32576
3101,32512
3102,32448
3103,32384
3104,32320
3105,32256
3106,32384
3107,32448
3108,32448
3109,32512
3110,32576
3111,32640
3112,32640
3113,32640
3114,32640
3115,32576
3116,32320
3117,32128
3118,32256
3119,32832
3120,34176
3121,36288
3122,39040
3123,42176
3124,44800
3125,45888
3126,44864
3127,41792
3128,37632
3129,33472
3130,30400
3131,28416
3132,27328
3133,27008
3134,27136
3135,27776
3136,28544
3137,29376
3138,30144
3139,30848
3140,31552
3141,32128
3142,32512
3143,32832
3144,33088
3145,33216
3146,33216
3147,33216
3148,33280
3149,33216
3150,33088
3151,33024
3152,33024
3153,33024
3154,32896
3155,32896
3156,32896
3157,32960
3158,32960
3159,32960
3160,33024
3161,33088
3162,33152
3163,33152
3164,33216
3165,33344
3166,33408
3167,33472
3168,33536
3169,33664
3170,33792
3171,33856
3172,33920
3173,34048
3174,34176
3175,34176
3176,34176
3177,34304
3178,34304
3179,34240
3180,34240
3181,34240
3182,34240
3183,34176
3184,34048
3185,33984
3186,33856
3187,33664
3188,33344
3189,33088
3190,32896
3191,32576
3192,32256
3193,32064
3194,31936
3195,31744
3196,31616
3197,31552
3198,31616
3199,31680
3200,31680
3201,31808
3202,31936
3203,32064
3204,32128
3205,32192
3206,32320
3207,32448
3208,32448
3209,32448
3210,32512
3211,32576
3212,32576
3213,32512
3214,32576
3215,32640
3216,32576
3217,32576
3218,32576
3219,32576
3220,32576
3221,32512
3222,32512
3223,32576
3224,32576
3225,32512
3226,32448
3227,32512
3228,32512
3229,32448
3230,32448
3231,32448
3232,32448
3233,32448
3234,32448
3235,32448
3236,32512
3237,32512
3238,32512
3239,32512
3240,32576
3241,32576
3242,32512
3243,32512
3244,32576
3245,32512
3246,32448
3247,32448
3248,32448
3249,32448
3250,32448
3251,32384
3252,32448
3253,32512
3254,32448
3255,32448
3256,32512
3257,32576
3258,32512
3259,32512
3260,32512
3261,32640
3262,32640
3263,32576
3264,32576
3265,32640
3266,32576
3267,32576
3268,32576
3269,32640
3270,32640
3271,32576
3272,32576
3273,32640
3274,32640
3275,32640
3276,32576
3277,32640
3278,32640
3279,32640
3280,32576
3281,32640
3282,32704
3283,32640
3284,32640
3285,32640
3286,32704
3287,32704
3288,32704
3289,32704
3290,32704
3291,32704
3292,32640
3293,32640
3294,32768
3295,32768
3296,32704
3297,32768
3298,32832
3299,32960
3300,32960
3301,33024
3302,33152
3303,33216
3304,33152
3305,33152
3306,33216
3307,33344
3308,33344
3309,33280
3310,33216
3311,33216
3312,33024
3313,32896
3314,32768
3315,32704
3316,32640
3317,32512
3318,32448
3319,32448
3320,32384
3321,32320
3322,32256
3323,32384
3324,32448
3325,32448
3326,32512
3327,32576
3328,32640
3329,32640
3330,32576
3331,32576
3332,32448
3333,32256
3334,32128
3335,32448
3336,33344
3337,35136
3338,37632
3339,40768
3340,43584
3341,45568
3342,45376
3343,43200
3344,39616
3345,35392
3346,31744
3347,29248
3348,27776
3349,27072
3350,27008
3351,27392
3352,28160
3353,28992
3354,29824
3355,30528
3356,31232
3357,31936
3358,32320
3359,32576
3360,32896
3361,33088
3362,33216
3363,33216
3364,33216
3365,33216
3366,33152
3367,33088
3368,33024
3369,33088
3370,33024
3371,32960
3372,32896
3373,32960
3374,32960
3375,32960
3376,32960
3377,33024
3378,33088
3379,33088
3380,33152
3381,33216
3382,33344
3383,33472
3384,33536
3385,33600
3386,33728
3387,33856
3388,33856
3389,33920
3390,34048
3391,34176
3392,34176
3393,34176
3394,34240
3395,34304
3396,34240
3397,34176
3398,34176
3399,34176
3400,34112
3401,34048
3402,33920
3403,33792
3404,33536
3405,33280
3406,32960
3407,32704
3408,32448
3409,32128
3410,31936
3411,31808
3412,31680
3413,31552
3414,31552
3415,31616
3416,31680
3417,31744
3418,31872
3419,32000
3420,32128
3421,32256
3422,32320
3423,32448
3424,32512
3425,32512
3426,32512
3427,32576
3428,32640
3429,32640
3430,32576
3431,32576
3432,32576
3433,32576
3434,32512
3435,32512
3436,32576
3437,32512
3438,32448
3439,32448
3440,32512
3441,32512
3442,32448
3443,32448
3444,32448
3445,32512
3446,32448
3447,32448
3448,32512
3449,32576
3450,32512
3451,32512
3452,32512
3453,32512
3454,32512
3455,32448
3456,32448
3457,32512
3458,32512
3459,32448
3460,32448
3461,32448
3462,32512
3463,32448
3464,32448
3465,32512
3466,32512
3467,32448
3468,32384
3469,32448
3470,32512
3471,32448
3472,32448
3473,32512
3474,32576
3475,32512
3476,32512
3477,32512
3478,32576
3479,32512
3480,32448
3481,32512
3482,32512
3483,32512
3484,32448
3485,32448
3486,32512
3487,32576
3488,32512
3489,32512
3490,32576
3491,32576
3492,32576
3493,32576
3494,32576
3495,32640
3496,32576
3497,32576
3498,32576
3499,32640
3500,32640
3501,32576
3502,32576
3503,32640
3504,32640
3505,32704
3506,32768
3507,32960
3508,32960
3509,33024
3510,33088
3511,33152
3512,33152
3513,33088
3514,33152
3515,33280
3516,33280
3517,33216
3518,33152
3519,33152
3520,33088
3521,32960
3522,32768
3523,32704
3524,32640
3525,32512
3526,32384
3527,32320
3528,32384
3529,32320
3530,32320
3531,32384
3532,32448
3533,32448
3534,32448
3535,32512
3536,32640
3537,32640
3538,32640
3539,32512
3540,32448
3541,32320
3542,32192
3543,32384
3544,33280
3545,35008
3546,37376
3547,40128
3548,43008
3549,45056
3550,45056
3551,42816
3552,38080
3553,35136
3554,31744
3555,29312
3556,27904
3557,27328
3558,27328
3559,27712
3560,28352
3561,29248
3562,30016
3563,30720
3564,31360
3565,31936
3566,32384
3567,32768
3568,32896
3569,33088
3570,33152
3571,33152
3572,33152
3573,33088
3574,33088
3575,33024
3576,32960
3577,32960
3578,32960
3579,32960
3580,32896
3581,32896
3582,32960
3583,32960
3584,32960
3585,33024
3586,33152
3587,33216
3588,33216
3589,33280
3590,33408
3591,33472
3592,33536
3593,33536
3594,33728
3595,33856
3596,33856
3597,33920
3598,34048
3599,34112
3600,34112
3601,34112
3602,34112
3603,34176
3604,34176
3605,34112
3606,34112
3607,34112
3608,34112
3609,33984
3610,33856
3611,33728
3612,33472
3613,33280
3614,32960
3615,32768
3616,32512
3617,32256
3618,32000
3619,31808
3620,31680
3621,31616
3622,31552
3623,31616
3624,31808
3625,31872
3626,31936
3627,32064
3628,32192
3629,32256
3630,32320
3631,32384
3632,32512
3633,32576
3634,32576
3635,32576
3636,32640
3637,32704
3638,32640
3639,32640
3640,32704
3641,32704
3642,32640
3643,32576
3644,32640
3645,32704
3646,32640
3647,32576
3648,32640
3649,32704
3650,32640
3651,32576
3652,32576
3653,32640
3654,32640
3655,32576
3656,32576
3657,32640
3658,32640
3659,32640
3660,32576
3661,32640
3662,32640
3663,32576
3664,32512
3665,32576
3666,32576
3667,32512
3668,32512
3669,32576
3670,32576
3671,32512
3672,32512
3673,32512
3674,32576
3675,32576
3676,32512
3677,32512
3678,32576
3679,32576
3680,32512
3681,32448
3682,32512
3683,32512
3684,32512
3685,32512
3686,32576
3687,32576
3688,32576
3689,32576
3690,32640
3691,32704
3692,32640
3693,32640
3694,32640
3695,32640
3696,32640
3697,32576
3698,32640
3699,32768
3700,32832
3701,32832
3702,33024
3703,33088
3704,33152
3705,33088
3706,33024
3707,33088
3708,33152
3709,33152
3710,33152
3711,33152
3712,33088
3713,33024
3714,32896
3715,32832
3716,32768
3717,32640
3718,32576
3719,32512
3720,32448
3721,32384
3722,32256
3723,32256
3724,32320
3725,32384
3726,32384
3727,32448
3728,32512
3729,32576
3730,32576
3731,32576
3732,32640
3733,32576
3734,32384
3735,32192
3736,32192
3737,32448
3738,33216
3739,34816
3740,37248
3741,40064
3742,42880
3743,44800
3744,44992
3745,42944
3746,39232
3747,35200
3748,31744
3749,29376
3750,27904
3751,27264
3752,27264
3753,27712
3754,28416
3755,29120
3756,29888
3757,30656
3758,31296
3759,31872
3760,32256
3761,32640
3762,33024
3763,33088
3764,33152
3765,33216
3766,33280
3767,33216
3768,33088
3769,33024
3770,33024
3771,33024
3772,32960
3773,32960
3774,33024
3775,33024
3776,33024
3777,33088
3778,33088
3779,33152
3780,33152
3781,33152
3782,33280
3783,33408
3784,33408
3785,33472
3786,33600
3787,33728
3788,33792
3789,33856
3790,33920
3791,34048
3792,34112
3793,34112
3794,34176
3795,34240
3796,34240
3797,34240
3798,34176
3799,34240
3800,34176
3801,34112
3802,34048
3803,33984
3804,33920
3805,33664
3806,33408
3807,33152
3808,32960
3809,32640
3810,32384
3811,32192
3812,32064
3813,31872
3814,31744
3815,31744
3816,31808
3817,31872
3818,31872
3819,31936
3820,32064
3821,32128
3822,32256
3823,32320
3824,32448
3825,32512
3826,32576
3827,32576
3828,32640
3829,32704
3830,32640
3831,32640
3832,32704
3833,32704
3834,32704
3835,32640
3836,32640
3837,32704
3838,32640
3839,32576
3840,32640
3841,32640
3842,32640
3843,32576
3844,32576
3845,32640
3846,32640
3847,32640
3848,32576
3849,32704
3850,32704
3851,32640
3852,32640
3853,32640
3854,32640
3855,32576
3856,32576
3857,32640
3858,32640
3859,32640
3860,32576
3861,32576
3862,32640
3863,32576
3864,32512
3865,32512
3866,32576
3867,32576
3868,32512
3869,32576
3870,32640
3871,32640
3872,32576
3873,32576
3874,32640
3875,32704
3876,32640
3877,32640
3878,32640
3879,32704
3880,32640
3881,32576
3882,32704
3883,32704
3884,32640
3885,32640
3886,32640
3887,32704
3888,32704
3889,32704
3890,32768
3891,32960
3892,33024
3893,33088
3894,33152
3895,33280
3896,33216
3897,33152
3898,33216
3899,33280
3900,33344
3901,33280
3902,33152
3903,33152
3904,33024
3905,32896
3906,32768
3907,32640
3908,32640
3909,32576
3910,32448
3911,32384
3912,32384
3913,32320
3914,32256
3915,32256
3916,32384
3917,32448
3918,32448
3919,32512
3920,32640
3921,32704
3922,32640
3923,32640
3924,32576
3925,32384
3926,32192
3927,32448
3928,32896
3929,34176
3930,36224
3931,38976
3932,41984
3933,44544
3934,45632
3935,44544
3936,41408
3937,37312
3938,33408
3939,30336
3940,28352
3941,27392
3942,27136
3943,27328
3944,27904
3945,28672
3946,29504
3947,30272
3948,30976
3949,31616
3950,32128
3951,32512
3952,32832
3953,33088
3954,33216
3955,33216
3956,33216
3957,33216
3958,33216
3959,33152
3960,33088
3961,33024
3962,33088
3963,33024
3964,32960
3965,32960
3966,33024
3967,33024
3968,33024
3969,33088
3970,33152
3971,33216
3972,33216
3973,33280
3974,33344
3975,33472
3976,33536
3977,33600
3978,33792
3979,33920
3980,33984
3981,34048
3982,34112
3983,34240
3984,34304
3985,34240
3986,34304
3987,34368
3988,34304
3989,34240
3990,34240
3991,34240
3992,34176
3993,34048
3994,33856
3995,33728
3996,33536
3997,33280
3998,32960
3999,32768
4000,32512
4001,32192
4002,31936
4003,31808
4004,31744
4005,31680
4006,31616
4007,31680
4008,31808
4009,31872
4010,32000
4011,32128
4012,32320
4013,32384
4014,32448
4015,32512
4016,32576
4017,32640
4018,32640
4019,32640
4020,32704
4021,32704
4022,32640
4023,32640
4024,32640
4025,32704
4026,32640
4027,32576
4028,32640
4029,32640
4030,32640
4031,32576
4032,32640
4033,32640
4034,32576
4035,32512
4036,32512
4037,32576
4038,32576
4039,32512
4040,32512
4041,32640
4042,32640
4043,32640
4044,32576
4045,32576
4046,32576
4047,32512
4048,32512
4049,32512
4050,32576
4051,32576
4052,32512
4053,32512
4054,32576
4055,32576
4056,32512
4057,32512
4058,32576
4059,32576
4060,32512
4061,32512
4062,32576
4063,32576
4064,32512
4065,32512
4066,32576
4067,32640
4068,32576
4069,32576
4070,32576
4071,32640
4072,32576
4073,32512
4074,32640
4075,32704
4076,32640
4077,32640
4078,32640
4079,32704
4080,32640
4081,32640
4082,32640
4083,32704
4084,32704
4085,32640
4086,32640
4087,32704
4088,32768
4089,32832
4090,32896
4091,33088
4092,33216
4093,33216
4094,33216
4095,33216
4096,33216
4097,33216
4098,33216
4099,33280
4100,33280
4101,33216
4102,33024
4103,32960
4104,32896
4105,32768
4106,32576
4107,32512
4108,32576
4109,32512
4110,32384
4111,32320
4112,32320
4113,32320
4114,32320
4115,32384
4116,32448
4117,32512
4118,32512
4119,32576
4120,32640
4121,32704
4122,32576
4123,32448
4124,32320
4125,32256
4126,32384
4127,33024
4128,34624
4129,37056
4130,39936
4131,42944
4132,45248
4133,45888
4134,44160
4135,40448
4136,36352
4137,32576
4138,29760
4139,27968
4140,27072
4141,26944
4142,27264
4143,27904
4144,28608
4145,29504
4146,30336
4147,31040
4148,31616
4149,32192
4150,32640
4151,32896
4152,33024
4153,33152
4154,33216
4155,33216
4156,33152
4157,33088
4158,33152
4159,33088
4160,33024
4161,32960
4162,33024
4163,32960
4164,32960
4165,32896
4166,32960
4167,33024
4168,33024
4169,33088
4170,33152
4171,33280
4172,33280
4173,33344
4174,33472
4175,33600
4176,33600
4177,33664
4178,33792
4179,33984
4180,34048
4181,34048
4182,34112
4183,34240
4184,34304
4185,34240
4186,34240
4187,34304
4188,34304
4189,34240
4190,34176
4191,34176
4192,34112
4193,33920
4194,33664
4195,33472
4196,33280
4197,32960
4198,32640
4199,32320
4200,32128
4201,31936
4202,31680
4203,31616
4204,31616
4205,31616
4206,31616
4207,31680
4208,31808
4209,31936
4210,32000
4211,32128
4212,32256
4213,32384
4214,32384
4215,32448
4216,32576
4217,32640
4218,32576
4219,32576
4220,32640
4221,32640
4222,32576
4223,32576
4224,32576
4225,32640
4226,32576
4227,32512
4228,32512
4229,32576
4230,32512
4231,32448
4232,32448
4233,32512
4234,32512
4235,32512
4236,32512
4237,32512
4238,32576
4239,32512
4240,32512
4241,32512
4242,32512
4243,32448
4244,32384
4245,32448
4246,32512
4247,32512
4248,32512
4249,32512
4250,32576
4251,32576
4252,32512
4253,32512
4254,32576
4255,32576
4256,32512
4257,32512
4258,32576
4259,32576
4260,32512
4261,32512
4262,32576
4263,32640
4264,32576
4265,32512
4266,32576
4267,32576
4268,32576
4269,32512
4270,32576
4271,32640
4272,32640
4273,32576
4274,32576
4275,32640
4276,32640
4277,32576
4278,32576
4279,32640
4280,32704
4281,32640
4282,32640
4283,32704
4284,32768
4285,32704
4286,32704
4287,32704
4288,32768
4289,32704
4290,32640
4291,32704
4292,32768
4293,32768
4294,32768
4295,32896
4296,33024
4297,33088
4298,33152
4299,33216
4300,33280
4301,33216
4302,33216
4303,33280
4304,33344
4305,33344
4306,33216
4307,33152
4308,33088
4309,33024
4310,32832
4311,32704
4312,32640
4313,32640
4314,32576
4315,32448
4316,32384
4317,32384
4318,32320
4319,32320
4320,32384
4321,32512
4322,32512
4323,32512
4324,32576
4325,32704
4326,32704
4327,32640
4328,32576
4329,32512
4330,32320
4331,32192
4332,32448
4333,33344
4334,35072
4335,37568
4336,40512
4337,43520
4338,45632
4339,45760
4340,43584
4341,39872
4342,35648
4343,32000
4344,29376
4345,27776
4346,27136
4347,27072
4348,27392
4349,28096
4350,28928
4351,29760
4352,30464
4353,31168
4354,31808
4355,32320
4356,32640
4357,32896
4358,33152
4359,33280
4360,33280
4361,33216
4362,33216
4363,33216
4364,33088
4365,33024
4366,33024
4367,33024
4368,32960
4369,32960
4370,32960
4371,33024
4372,33088
4373,33024
4374,33088
4375,33216
4376,33280
4377,33280
4378,33344
4379,33472
4380,33536
4381,33600
4382,33664
4383,33792
4384,33920
4385,33984
4386,33984
4387,34112
4388,34240
4389,34240
4390,34304
4391,34304
4392,34368
4393,34304
4394,34240
4395,34176
4396,34240
4397,34176
4398,34048
4399,33920
4400,33728
4401,33536
4402,33216
4403,32960
4404,32704
4405,32448
4406,32128
4407,31872
4408,31744
4409,31680
4410,31616
4411,31552
4412,31680
4413,31808
4414,31872
4415,31936
4416,32128
4417,32256
4418,32384
4419,32384
4420,32448
4421,32576
4422,32576
4423,32576
4424,32576
4425,32640
4426,32640
4427,32640
4428,32576
4429,32640
4430,32640
4431,32576
4432,32576
4433,32576
4434,32640
4435,32576
4436,32512
4437,32576
4438,32576
4439,32576
4440,32512
4441,32576
4442,32576
4443,32576
4444,32512
4445,32512
4446,32576
4447,32576
4448,32512
4449,32512
4450,32576
4451,32576
4452,32576
4453,32512
4454,32576
4455,32576
4456,32576
4457,32576
4458,32576
4459,32640
4460,32576
4461,32512
4462,32576
4463,32576
4464,32576
4465,32512
4466,32512
4467,32576
4468,32576
4469,32512
4470,32512
4471,32576
4472,32576
4473,32576
4474,32512
4475,32576
4476,32640
4477,32640
4478,32576
4479,32640
4480,32640
4481,32640
4482,32576
4483,32576
4484,32640
4485,32640
4486,32576
4487,32640
4488,32640
4489,32640
4490,32576
4491,32576
4492,32640
4493,32640
4494,32576
4495,32576
4496,32640
4497,32640
4498,32640
4499,32640
4500,32768
4501,32832
4502,32896
4503,32960
4504,33088
4505,33216
4506,33216
4507,33152
4508,33216
4509,33280
4510,33280
4511,33152
4512,33088
4513,33088
4514,32960
4515,32768
4516,32640
4517,32576
4518,32512
4519,32448
4520,32384
4521,32384
4522,32320
4523,32256
4524,32256
4525,32320
4526,32384
4527,32384
4528,32384
4529,32512
4530,32576
4531,32576
4532,32576
4533,32576
4534,32512
4535,32320
4536,32128
4537,32128
4538,32576
4539,33728
4540,35776
4541,38400
4542,41472
4543,44288
4544,45632
4545,44928
4546,42112
4547,38080
4548,34048
4549,30784
4550,28672
4551,27456
4552,27008
4553,27136
4554,27712
4555,28480
4556,29952
4557,30784
4558,30848
4559,31936
4560,32320
4561,32704
4562,32960
4563,33088
4564,33152
4565,33152
4566,33152
4567,33152
4568,33088
4569,33024
4570,32960
4571,32960
4572,32896
4573,32896
4574,32960
4575,32960
4576,32960
4577,32960
4578,33024
4579,33088
4580,33088
4581,33088
4582,33216
4583,33344
4584,33408
4585,33408
4586,33536
4587,33664
4588,33792
4589,33856
4590,33920
4591,34048
4592,34176
4593,34176
4594,34176
4595,34240
4596,34240
4597,34240
4598,34240
4599,34240
4600,34176
4601,34112
4602,34048
4603,33984
4604,33920
4605,33664
4606,33408
4607,33152
4608,32896
4609,32576
4610,32256
4611,32064
4612,31936
4613,31744
4614,31616
4615,31616
4616,31680
4617,31744
4618,31680
4619,31872
4620,32064
4621,32192
4622,32256
4623,32320
4624,32448
4625,32512
4626,32512
4627,32512
4628,32576
4629,32640
4630,32640
4631,32576
4632,32576
4633,32704
4634,32640
4635,32576
4636,32576
4637,32640
4638,32576
4639,32512
4640,32512
4641,32576
4642,32640
4643,32576
4644,32576
4645,32640
4646,32640
4647,32576
4648,32512
4649,32512
4650,32576
4651,32576
4652,32512
4653,32576
4654,32576
4655,32576
4656,32512
4657,32512
4658,32576
4659,32576
4660,32512
4661,32512
4662,32576
4663,32512
4664,32448
4665,32448
4666,32512
4667,32512
4668,32448
4669,32448
4670,32512
4671,32576
4672,32512
4673,32448
4674,32576
4675,32576
4676,32576
4677,32576
4678,32576
4679,32640
4680,32640
4681,32640
4682,32576
4683,32640
4684,32640
4685,32576
4686,32576
4687,32640
4688,32640
4689,32576
4690,32576
4691,32640
4692,32640
4693,32704
4694,32768
4695,32832
4696,32960
4697,33024
4698,33088
4699,33152
4700,33152
4701,33152
4702,33152
4703,33216
4704,33280
4705,33280
4706,33152
4707,33088
4708,33024
4709,32896
4710,32768
4711,32640
4712,32640
4713,32640
4714,32512
4715,32384
4716,32384
4717,32384
4718,32320
4719,32320
4720,32448
4721,32512
4722,32576
4723,32512
4724,32576
4725,32704
4726,32704
4727,32640
4728,32512
4729,32448
4730,32256
4731,32256
4732,32832
4733,34112
4734,36224
4735,38912
4736,41856
4737,44416
4738,45440
4739,44288
4740,41152
4741,37184
4742,33408
4743,30464
4744,28608
4745,27648
4746,27328
4747,27584
4748,28096
4749,28864
4750,29696
4751,30464
4752,31104
4753,31680
4754,32256
4755,32640
4756,32896
4757,33088
4758,33280
4759,33344
4760,33344
4761,33344
4762,33344
4763,33344
4764,33216
4765,33152
4766,33152
4767,33152
4768,33088
4769,33024
4770,33088
4771,33152
4772,33152
4773,33152
4774,33216
4775,33344
4776,33344
4777,33344
4778,33408
4779,33536
4780,33664
4781,33728
4782,33792
4783,33984
4784,34048
4785,34112
4786,34176
4787,34304
4788,34368
4789,34368
4790,34368
4791,34432
4792,34432
4793,34368
4794,34304
4795,34240
4796,34240
4797,34112
4798,33920
4799,33792
4800,33600
4801,33344
4802,33024
4803,32768
4804,32512
4805,32320
4806,32064
4807,31872
4808,31872
4809,31808
4810,31744
4811,31808
4812,31936
4813,32064
4814,32064
4815,32192
4816,32320
4817,32448
4818,32448
4819,32512
4820,32576
4821,32704
4822,32704
4823,32640
4824,32704
4825,32768
4826,32704
4827,32640
4828,32640
4829,32704
4830,32704
4831,32640
4832,32640
4833,32704
4834,32704
4835,32704
4836,32640
4837,32704
4838,32768
4839,32704
4840,32704
4841,32704
4842,32768
4843,32704
4844,32640
4845,32704
4846,32704
4847,32640
4848,32576
4849,32640
4850,32640
4851,32640
4852,32576
4853,32576
4854,32640
4855,32640
4856,32576
4857,32576
4858,32576
4859,32640
4860,32576
4861,32576
4862,32640
4863,32704
4864,32640
4865,32640
4866,32640
4867,32704
4868,32704
4869,32640
4870,32640
4871,32704
4872,32704
4873,32640
4874,32640
4875,32704
4876,32704
4877,32704
4878,32704
4879,32704
4880,32768
4881,32704
4882,32704
4883,32768
4884,32768
4885,32704
4886,32704
4887,32768
4888,32768
4889,32768
4890,32768
4891,32832
4892,32832
4893,32832
4894,32832
4895,32960
4896,33088
4897,33152
4898,33216
4899,33280
4900,33280
4901,33280
4902,33216
4903,33280
4904,33344
4905,33344
4906,33216
4907,33152
4908,33152
4909,33024
4910,32896
4911,32768
4912,32704
4913,32640
4914,32576
4915,32512
4916,32448
4917,32448
4918,32448
4919,32384
4920,32448
4921,32576
4922,32640
4923,32640
4924,32640
4925,32704
4926,32768
4927,32704
4928,32640
4929,32576
4930,32384
4931,32256
4932,32384
4933,33024
4934,34496
4935,36736
4936,39552
4937,42624
4938,45056
4939,45824
4940,44352
4941,40960
4942,36800
4943,32832
4944,30016
4945,28160
4946,27328
4947,27136
4948,27328
4949,27968
4950,28800
4951,29632
4952,30336
4953,31040
4954,31744
4955,32256
4956,32576
4957,32896
4958,33088
4959,33216
4960,33280
4961,33280
4962,33280
4963,33280
4964,33216
4965,33152
4966,33088
4967,33152
4968,33088
4969,33024
4970,33024
4971,33088
4972,33088
4973,33088
4974,33152
4975,33216
4976,33280
4977,33344
4978,33344
4979,33472
4980,33600
4981,33600
4982,33664
4983,33792
4984,33920
4985,33984
4986,34048
4987,34176
4988,34240
4989,34304
4990,34304
4991,34368
4992,34432
4993,34368
4994,34304
4995,34304
4996,34304
4997,34240
4998,34048
4999,33920
5000,33856
5001,33600
5002,33280
5003,33024
5004,32768
5005,32448
5006,32128
5007,31936
5008,31808
5009,31744
5010,31680
5011,31616
5012,31680
5013,31808
5014,31872
5015,31936
5016,32064
5017,32256
5018,32320
5019,32384
5020,32448
5021,32576
5022,32640
5023,32576
5024,32640
5025,32704
5026,32704
5027,32640
5028,32640
5029,32704
5030,32704
5031,32640
5032,32640
5033,32640
5034,32704
5035,32640
5036,32576
5037,32640
5038,32640
5039,32640
5040,32576
5041,32576
5042,32640
5043,32576
5044,32512
5045,32512
5046,32576
5047,32576
5048,32512
5049,32512
5050,32576
5051,32576
5052,32512
5053,32448
5054,32512
5055,32576
5056,32512
5057,32512
5058,32576
5059,32640
5060,32576
5061,32512
5062,32512
5063,32576
5064,32576
5065,32512
5066,32512
5067,32576
5068,32576
5069,32512
5070,32512
5071,32576
5072,32576
5073,32576
5074,32512
5075,32640
5076,32640
5077,32576
5078,32512
5079,32576
5080,32640
5081,32640
5082,32576
5083,32640
5084,32640
5085,32640
5086,32576
5087,32576
5088,32640
5089,32704
5090,32640
5091,32640
5092,32704
5093,32704
5094,32640
5095,32704
5096,32704
5097,32768
5098,32704
5099,32704
5100,32768
5101,32768
5102,32768
5103,32704
5104,32768
5105,32768
5106,32768
5107,32704
5108,32832
5109,32896
5110,32960
5111,33024
5112,33152
5113,33280
5114,33280
5115,33216
5116,33216
5117,33344
5118,33344
5119,33344
5120,33280
5121,33280
5122,33152
5123,33024
5124,32896
5125,32832
5126,32768
5127,32640
5128,32576
5129,32512
5130,32512
5131,32384
5132,32320
5133,32384
5134,32448
5135,32512
5136,32512
5137,32640
5138,32704
5139,32704
5140,32704
5141,32704
5142,32768
5143,32640
5144,32384
5145,32256
5146,32384
5147,32960
5148,34304
5149,36480
5150,39360
5151,42432
5152,44992
5153,46016
5154,44864
5155,41664
5156,37440
5157,33408
5158,30336
5159,28416
5160,27328
5161,27008
5162,27200
5163,27840
5164,28672
5165,29440
5166,30208
5167,30976
5168,31616
5169,32128
5170,32576
5171,32960
5172,33216
5173,33280
5174,33280
5175,33344
5176,33408
5177,33280
5178,33216
5179,33152
5180,33152
5181,33088
5182,33024
5183,33024
5184,33024
5185,33024
5186,33024
5187,33088
5188,33152
5189,33216
5190,33216
5191,33280
5192,33408
5193,33472
5194,33472
5195,33536
5196,33664
5197,33792
5198,33856
5199,33920
5200,34048
5201,34176
5202,34240
5203,34240
5204,34368
5205,34432
5206,34432
5207,34368
5208,34368
5209,34432
5210,34368
5211,34240
5212,34176
5213,34112
5214,33984
5215,33728
5216,33472
5217,33280
5218,32960
5219,32640
5220,32320
5221,32128
5222,31936
5223,31744
5224,31616
5225,31616
5226,31680
5227,31680
5228,31744
5229,31936
5230,32064
5231,32128
5232,32192
5233,32320
5234,32448
5235,32512
5236,32512
5237,32576
5238,32640
5239,32704
5240,32640
5241,32640
5242,32704
5243,32704
5244,32640
5245,32640
5246,32640
5247,32640
5248,32576
5249,32576
5250,32576
5251,32576
5252,32576
5253,32576
5254,32576
5255,32640
5256,32640
5257,32576
5258,32576
5259,32576
5260,32576
5261,32512
5262,32512
5263,32576
5264,32576
5265,32576
5266,32512
5267,32576
5268,32640
5269,32576
5270,32512
5271,32576
5272,32576
5273,32576
5274,32512
5275,32576
5276,32640
5277,32576
5278,32512
5279,32512
5280,32576
5281,32576
5282,32512
5283,32512
5284,32640
5285,32640
5286,32576
5287,32576
5288,32640
5289,32704
5290,32640
5291,32640
5292,32704
5293,32704
5294,32640
5295,32640
5296,32640
5297,32704
5298,32704
5299,32640
5300,32640
5301,32704
5302,32640
5303,32576
5304,32640
5305,32704
5306,32640
5307,32640
5308,32640
5309,32704
5310,32704
5311,32640
5312,32640
5313,32704
5314,32768
5315,32704
5316,32704
5317,32768
5318,32832
5319,32768
5320,32704
5321,32768
5322,32768
5323,32768
5324,32704
5325,32768
5326,32768
5327,32768
5328,32704
5329,32832
5330,32960
5331,33024
5332,33024
5333,33088
5334,33216
5335,33216
5336,33152
5337,33216
5338,33344
5339,33344
5340,33280
5341,33216
5342,33216
5343,33152
5344,32960
5345,32832
5346,32768
5347,32704
5348,32640
5349,32512
5350,32512
5351,32448
5352,32320
5353,32320
5354,32320
5355,32448
5356,32448
5357,32512
5358,32576
5359,32640
5360,32768
5361,32704
5362,32704
5363,32640
5364,32512
5365,32256
5366,32192
5367,32448
5368,33280
5369,34944
5370,37376
5371,40384
5372,43392
5373,45504
5374,45760
5375,43776
5376,40128
5377,35840
5378,32128
5379,29440
5380,27968
5381,27200
5382,27136
5383,27456
5384,28160
5385,28992
5386,29760
5387,30528
5388,31296
5389,31872
5390,32320
5391,32640
5392,32960
5393,33152
5394,33216
5395,33216
5396,33280
5397,33280
5398,33216
5399,33152
5400,33088
5401,33088
5402,33024
5403,32960
5404,33024
5405,33024
5406,33088
5407,33024
5408,33024
5409,33152
5410,33216
5411,33216
5412,33280
5413,33344
5414,33472
5415,33472
5416,33536
5417,33664
5418,33856
5419,33920
5420,33920
5421,34048
5422,34176
5423,34240
5424,34240
5425,34304
5426,34368
5427,34368
5428,34304
5429,34304
5430,34304
5431,34304
5432,34240
5433,34112
5434,34048
5435,33920
5436,33664
5437,33408
5438,33152
5439,32896
5440,32576
5441,32256
5442,32000
5443,31808
5444,31616
5445,31488
5446,31488
5447,31616
5448,31616
5449,31680
5450,31808
5451,32000
5452,32128
5453,32192
5454,32256
5455,32384
5456,32448
5457,32512
5458,32512
5459,32576
5460,32576
5461,32576
5462,32576
5463,32576
5464,32640
5465,32576
5466,32512
5467,32576
5468,32576
5469,32576
5470,32512
5471,32512
5472,32576
5473,32512
5474,32512
5475,32512
5476,32512
5477,32512
5478,32448
5479,32448
5480,32512
5481,32512
5482,32512
5483,32512
5484,32512
5485,32576
5486,32512
5487,32448
5488,32512
5489,32512
5490,32512
5491,32448
5492,32512
5493,32512
5494,32512
5495,32448
5496,32448
5497,32512
5498,32512
5499,32448
5500,32448
5501,32512
5502,32448
5503,32448
5504,32448
5505,32512
5506,32576
5507,32512
5508,32512
5509,32576
5510,32640
5511,32576
5512,32576
5513,32576
5514,32640
5515,32576
5516,32512
5517,32576
5518,32576
5519,32576
5520,32576
5521,32576
5522,32640
5523,32640
5524,32576
5525,32576
5526,32640
5527,32704
5528,32576
5529,32576
5530,32640
5531,32640
5532,32640
5533,32576
5534,32640
5535,32704
5536,32704
5537,32640
5538,32704
5539,32704
5540,32704
5541,32640
5542,32704
5543,32832
5544,32832
5545,32832
5546,32960
5547,33088
5548,33088
5549,33088
5550,33088
5551,33152
5552,33216
5553,33216
5554,33216
5555,33216
5556,33216
5557,33024
5558,32896
5559,32896
5560,32832
5561,32704
5562,32576
5563,32512
5564,32448
5565,32320
5566,32256
5567,32256
5568,32384
5569,32384
5570,32384
5571,32448
5572,32512
5573,32576
5574,32512
5575,32512
5576,32640
5577,32576
5578,32384
5579,32256
5580,32192
5581,32512
5582,33344
5583,35008
5584,37504
5585,40384
5586,43264
5587,45120
5588,45248
5589,43008
5590,39232
5591,35136
5592,30848
5593,29184
5594,27840
5595,27200
5596,27200
5597,27712
5598,28352
5599,29120
5600,29888
5601,30656
5602,31360
5603,31872
5604,32256
5605,32704
5606,32960
5607,33152
5608,33152
5609,33216
5610,33280
5611,33216
5612,33152
5613,33152
5614,33152
5615,33088
5616,32960
5617,32960
5618,33024
5619,33024
5620,33024
5621,33088
5622,33216
5623,33216
5624,33216
5625,33216
5626,33344
5627,33472
5628,33472
5629,33472
5630,33600
5631,33728
5632,33792
5633,33856
5634,33984
5635,34112
5636,34176
5637,34176
5638,34240
5639,34304
5640,34304
5641,34240
5642,34240
5643,34240
5644,34240
5645,34176
5646,34112
5647,34112
5648,33984
5649,33792
5650,33600
5651,33408
5652,33088
5653,32832
5654,32576
5655,32320
5656,32064
5657,31808
5658,31680
5659,31616
5660,31680
5661,31616
5662,31616
5663,31808
5664,31936
5665,32000
5666,32064
5667,32192
5668,32320
5669,32384
5670,32384
5671,32448
5672,32576
5673,32640
5674,32576
5675,32512
5676,32640
5677,32704
5678,32640
5679,32576
5680,32640
5681,32704
5682,32640
5683,32576
5684,32576
5685,32640
5686,32640
5687,32576
5688,32576
5689,32640
5690,32576
5691,32576
5692,32576
5693,32576
5694,32640
5695,32576
5696,32576
5697,32640
5698,32576
5699,32512
5700,32448
5701,32512
5702,32512
5703,32448
5704,32448
5705,32448
5706,32512
5707,32448
5708,32384
5709,32448
5710,32512
5711,32512
5712,32448
5713,32448
5714,32512
5715,32512
5716,32448
5717,32512
5718,32576
5719,32640
5720,32512
5721,32512
5722,32576
5723,32576
5724,32576
5725,32576
5726,32576
5727,32640
5728,32576
5729,32576
5730,32640
5731,32640
5732,32640
5733,32576
5734,32576
5735,32640
5736,32640
5737,32640
5738,32640
5739,32704
5740,32704
5741,32640
5742,32640
5743,32704
5744,32704
5745,32640
5746,32640
5747,32640
5748,32704
5749,32704
5750,32704
5751,32768
5752,32896
5753,32896
5754,32960
5755,33088
5756,33152
5757,33152
5758,33152
5759,33216
5760,33344
5761,33344
5762,33280
5763,33216
5764,33216
5765,33088
5766,32960
5767,32832
5768,32768
5769,32704
5770,32576
5771,32448
5772,32448
5773,32384
5774,32320
5775,32320
5776,32384
5777,32512
5778,32512
5779,32512
5780,32576
5781,32640
5782,32640
5783,32640
5784,32704
5785,32576
5786,32448
5787,32256
5788,32320
5789,32896
5790,34112
5791,36096
5792,38720
5793,41664
5794,44224
5795,45376
5796,44416
5797,41408
5798,37376
5799,33344
5800,30336
5801,28544
5802,27392
5803,27264
5804,27456
5805,28032
5806,28800
5807,29568
5808,30272
5809,31040
5810,31680
5811,32128
5812,32512
5813,32832
5814,33088
5815,33216
5816,33216
5817,33216
5818,33216
5819,33216
5820,33152
5821,33024
5822,33088
5823,33088
5824,33024
5825,32960
5826,33024
5827,33024
5828,33024
5829,33024
5830,33088
5831,33152
5832,33216
5833,33216
5834,33280
5835,33408
5836,33472
5837,33536
5838,33600
5839,33728
5840,33856
5841,33856
5842,33984
5843,34112
5844,34176
5845,34240
5846,34240
5847,34304
5848,34368
5849,34304
5850,34240
5851,34240
5852,34240
5853,34176
5854,34048
5855,33984
5856,33920
5857,33728
5858,33472
5859,33216
5860,32960
5861,32704
5862,32256
5863,32128
5864,32000
5865,31872
5866,31744
5867,31616
5868,31680
5869,31744
5870,31744
5871,31872
5872,32000
5873,32128
5874,32192
5875,32256
5876,32320
5877,32512
5878,32512
5879,32512
5880,32576
5881,32704
5882,32640
5883,32640
5884,32640
5885,32704
5886,32704
5887,32576
5888,32576
5889,32640
5890,32640
5891,32576
5892,32512
5893,32576
5894,32640
5895,32640
5896,32576
5897,32640
5898,32704
5899,32640
5900,32640
5901,32640
5902,32704
5903,32640
5904,32576
5905,32576
5906,32640
5907,32640
5908,32576
5909,32576
5910,32576
5911,32576
5912,32512
5913,32512
5914,32576
5915,32640
5916,32576
5917,32512
5918,32512
5919,32576
5920,32512
5921,32512
5922,32512
5923,32576
5924,32576
5925,32512
5926,32576
5927,32640
5928,32640
5929,32576
5930,32576
5931,32640
5932,32640
5933,32640
5934,32640
5935,32704
5936,32704
5937,32640
5938,32576
5939,32640
5940,32704
5941,32640
5942,32640
5943,32640
5944,32704
5945,32704
5946,32640
5947,32704
5948,32704
5949,32768
5950,32704
5951,32704
5952,32768
5953,32768
5954,32704
5955,32704
5956,32768
5957,32768
5958,32768
5959,32768
5960,32896
5961,33024
5962,33088
5963,33152
5964,33280
5965,33280
5966,33216
5967,33280
5968,33344
5969,33408
5970,33344
5971,33216
5972,33216
5973,33152
5974,33024
5975,32896
5976,32768
5977,32768
5978,32704
5979,32576
5980,32512
5981,32512
5982,32512
5983,32448
5984,32448
5985,32576
5986,32640
5987,32640
5988,32640
5989,32704
5990,32768
5991,32704
5992,32640
5993,32576
5994,32448
5995,32320
5996,32256
5997,32704
5998,33664
5999,35456
6000,37952
6001,40832
6002,43584
6003,45312
6004,44992
6005,42496
6006,38656
6007,34688
6008,31360
6009,29056
6010,27840
6011,27392
6012,27584
6013,27904
6014,28608
6015,29376
6016,30144
6017,30848
6018,31488
6019,32064
6020,32512
6021,32768
6022,33024
6023,33216
6024,33280
6025,33280
6026,33280
6027,33280
6028,33216
6029,33152
6030,33088
6031,33088
6032,33088
6033,33088
6034,33024
6035,33088
6036,33152
6037,33152
6038,33152
6039,33216
6040,33280
6041,33280
6042,33344
6043,33472
6044,33536
6045,33536
6046,33600
6047,33728
6048,33856
6049,33920
6050,33984
6051,34112
6052,34240
6053,34304
6054,34368
6055,34368
6056,34432
6057,34368
6058,34368
6059,34304
6060,34368
6061,34304
6062,34240
6063,34112
6064,34048
6065,33920
6066,33664
6067,33408
6068,33152
6069,32896
6070,32576
6071,32256
6072,32064
6073,31936
6074,31808
6075,31680
6076,31744
6077,31808
6078,31872
6079,31872
6080,31936
6081,32128
6082,32256
6083,32256
6084,32384
6085,32512
6086,32576
6087,32576
6088,32576
6089,32640
6090,32704
6091,32704
6092,32640
6093,32640
6094,32704
6095,32704
6096,32640
6097,32640
6098,32704
6099,32704
6100,32640
6101,32704
6102,32704
6103,32704
6104,32640
6105,32640
6106,32704
6107,32704
6108,32640
6109,32640
6110,32640
6111,32704
6112,32704
6113,32640
6114,32640
6115,32704
6116,32704
6117,32640
6118,32640
6119,32704
6120,32640
6121,32576
6122,32576
6123,32640
6124,32640
6125,32576
6126,32576
6127,32640
6128,32640
6129,32576
6130,32576
6131,32640
6132,32640
6133,32576
6134,32576
6135,32640
6136,32704
6137,32704
6138,32640
6139,32640
6140,32704
6141,32704
6142,32640
6143,32640
6144,32768
6145,32768
6146,32704
6147,32704
6148,32768
6149,32768
6150,32704
6151,32704
6152,32768
6153,32768
6154,32704
6155,32704
6156,32768
6157,32768
6158,32704
6159,32640
6160,32704
6161,32768
6162,32704
6163,32704
6164,32768
6165,32832
6166,32768
6167,32768
6168,32768
6169,32832
6170,32832
6171,32832
6172,32832
6173,32960
6174,33088
6175,33088
6176,33152
6177,33280
6178,33280
6179,33280
6180,33280
6181,33344
6182,33408
6183,33408
6184,33280
6185,33280
6186,33280
6187,33152
6188,33024
6189,32960
6190,32960
6191,32832
6192,32704
6193,32640
6194,32640
6195,32576
6196,32448
6197,32448
6198,32576
6199,32640
6200,32576
6201,32640
6202,32704
6203,32832
6204,32832
6205,32768
6206,32768
6207,32640
6208,32448
6209,32320
6210,32512
6211,33344
6212,34880
6213,37184
6214,40064
6215,43072
6216,45312
6217,45760
6218,43968
6219,40384
6220,35968
6221,32384
6222,29696
6223,28096
6224,27392
6225,27200
6226,27584
6227,28288
6228,29120
6229,29888
6230,30656
6231,31360
6232,31936
6233,32384
6234,32704
6235,33024
6236,33216
6237,33280
6238,33344
6239,33344
6240,33344
6241,33216
6242,33152
6243,33152
6244,33152
6245,33152
6246,33088
6247,33088
6248,33088
6249,33152
6250,33088
6251,33152
6252,33216
6253,33280
6254,33280
6255,33280
6256,33408
6257,33472
6258,33536
6259,33600
6260,33792
6261,33920
6262,33984
6263,33984
6264,34112
6265,34240
6266,34304
6267,34304
6268,34368
6269,34432
6270,34432
6271,34368
6272,34368
6273,34368
6274,34368
6275,34240
6276,34176
6277,34048
6278,33984
6279,33728
6280,33472
6281,33216
6282,33024
6283,32704
6284,32384
6285,32128
6286,32000
6287,31808
6288,31680
6289,31616
6290,31680
6291,31744
6292,31744
6293,31872
6294,32064
6295,32192
6296,32256
6297,32320
6298,32448
6299,32576
6300,32576
6301,32576
6302,32640
6303,32704
6304,32704
6305,32640
6306,32704
6307,32768
6308,32704
6309,32640
6310,32704
6311,32704
6312,32704
6313,32640
6314,32640
6315,32704
6316,32704
6317,32640
6318,32576
6319,32640
6320,32640
6321,32640
6322,32576
6323,32640
6324,32640
6325,32640
6326,32576
6327,32640
6328,32640
6329,32640
6330,32576
6331,32576
6332,32640
6333,32640
6334,32576
6335,32576
6336,32640
6337,32576
6338,32576
6339,32576
6340,32640
6341,32640
6342,32576
6343,32576
6344,32640
6345,32640
6346,32576
6347,32576
6348,32640
6349,32640
6350,32640
6351,32576
6352,32640
6353,32704
6354,32704
6355,32640
6356,32640
6357,32704
6358,32704
6359,32640
6360,32640
6361,32704
6362,32768
6363,32704
6364,32704
6365,32768
6366,32768
6367,32704
6368,32704
6369,32768
6370,32832
6371,32768
6372,32768
6373,32832
6374,32832
6375,32768
6376,32768
6377,32832
6378,32832
6379,32768
6380,32768
6381,32832
6382,32832
6383,32832
6384,32832
6385,32896
6386,32896
6387,32832
6388,32768
6389,32896
6390,32896
6391,32896
6392,32896
6393,33024
6394,33152
6395,33216
6396,33216
6397,33280
6398,33344
6399,33344
6400,33344
6401,33408
6402,33472
6403,33408
6404,33280
6405,33280
6406,33216
6407,33088
6408,32896
6409,32768
6410,32768
6411,32768
6412,32640
6413,32576
6414,32576
6415,32512
6416,32448
6417,32448
6418,32576
6419,32640
6420,32640
6421,32704
6422,32768
6423,32832
6424,32832
6425,32768
6426,32640
6427,32512
6428,32384
6429,32448
6430,33088
6431,34560
6432,37056
6433,37376
6434,42688
6435,45248
6436,46144
6437,44736
6438,41344
6439,37120
6440,33216
6441,30208
6442,28288
6443,27392
6444,27200
6445,27456
6446,28032
6447,28800
6448,29696
6449,30400
6450,31104
6451,31744
6452,32320
6453,32704
6454,32960
6455,33152
6456,33344
6457,33344
6458,33344
6459,33344
6460,33344
6461,33280
6462,33216
6463,33088
6464,33152
6465,33152
6466,33088
6467,33024
6468,33088
6469,33152
6470,33152
6471,33152
6472,33216
6473,33344
6474,33344
6475,33344
6476,33472
6477,33600
6478,33664
6479,33664
6480,33792
6481,33920
6482,34048
6483,34112
6484,34176
6485,34304
6486,34432
6487,34432
6488,34432
6489,34560
6490,34560
6491,34496
6492,34432
6493,34432
6494,34432
6495,34304
6496,34176
6497,34112
6498,33920
6499,33664
6500,33344
6501,33024
6502,32768
6503,32448
6504,32128
6505,31936
6506,31872
6507,31744
6508,31616
6509,31616
6510,31744
6511,31808
6512,31872
6513,31936
6514,32128
6515,32256
6516,32320
6517,32384
6518,32512
6519,32576
6520,32640
6521,32576
6522,32640
6523,32704
6524,32640
6525,32640
6526,32640
6527,32704
6528,32640
6529,32576
6530,32576
6531,32640
6532,32640
6533,32576
6534,32576
6535,32640
6536,32640
6537,32640
6538,32576
6539,32640
6540,32704
6541,32640
6542,32576
6543,32640
6544,32704
6545,32640
6546,32576
6547,32576
6548,32640
6549,32640
6550,32576
6551,32576
6552,32576
6553,32576
6554,32512
6555,32512
6556,32576
6557,32576
6558,32512
6559,32512
6560,32576
6561,32576
6562,32576
6563,32512
6564,32576
6565,32640
6566,32576
6567,32512
6568,32576
6569,32640
6570,32576
6571,32576
6572,32576
6573,32640
6574,32640
6575,32576
6576,32640
6577,32704
6578,32704
6579,32640
6580,32640
6581,32704
6582,32704
6583,32640
6584,32640
6585,32704
6586,32704
6587,32640
6588,32640
6589,32704
6590,32768
6591,32704
6592,32704
6593,32704
6594,32768
6595,32704
6596,32640
6597,32704
6598,32768
6599,32704
6600,32640
6601,32704
6602,32768
6603,32768
6604,32704
6605,32768
6606,32832
6607,32832
6608,32768
6609,32768
6610,32768
6611,32832
6612,32768
6613,32704
6614,32768
6615,32832
6616,32896
6617,32896
6618,33024
6619,33152
6620,33280
6621,33280
6622,33280
6623,33344
6624,33344
6625,33344
6626,33344
6627,33408
6628,33280
6629,33152
6630,33088
6631,33024
6632,32960
6633,32768
6634,32640
6635,32704
6636,32640
6637,32512
6638,32448
6639,32448
6640,32512
6641,32512
6642,32512
6643,32576
6644,32640
6645,32704
6646,32704
6647,32768
6648,32832
6649,32768
6650,32640
6651,32448
6652,32384
6653,32448
6654,33088
6655,34304
6656,36544
6657,39424
6658,42432
6659,44992
6660,46144
6661,45056
6662,41792
6663,37568
6664,33600
6665,30528
6666,28544
6667,27392
6668,27136
6669,27392
6670,27968
6671,28608
6672,29504
6673,30336
6674,31040
6675,31616
6676,32192
6677,32640
6678,33024
6679,33152
6680,33280
6681,33344
6682,33408
6683,33344
6684,33280
6685,33216
6686,33216
6687,33088
6688,33024
6689,33024
6690,33088
6691,33088
6692,33024
6693,33088
6694,33152
6695,33152
6696,33152
6697,33152
6698,33280
6699,33344
6700,33408
6701,33472
6702,33600
6703,33664
6704,33728
6705,33792
6706,33920
6707,34048
6708,34112
6709,34176
6710,34304
6711,34432
6712,34432
6713,34432
6714,34432
6715,34496
6716,34432
6717,34368
6718,34304
6719,34304
6720,34240
6721,34048
6722,33920
6723,33728
6724,33472
6725,33088
6726,32768
6727,32576
6728,32320
6729,32000
6730,31808
6731,31744
6732,31680
6733,31616
6734,31680
6735,31744
6736,31936
6737,32000
6738,32064
6739,32192
6740,32384
6741,32448
6742,32448
6743,32512
6744,32576
6745,32640
6746,32576
6747,32576
6748,32640
6749,32640
6750,32640
6751,32640
6752,32704
6753,32704
6754,32640
6755,32640
6756,32640
6757,32640
6758,32576
6759,32576
6760,32576
6761,32576
6762,32576
6763,32512
6764,32576
6765,32576
6766,32576
6767,32512
6768,32512
6769,32576
6770,32576
6771,32512
6772,32512
6773,32576
6774,32640
6775,32576
6776,32576
6777,32640
6778,32640
6779,32576
6780,32576
6781,32640
6782,32640
6783,32576
6784,32512
6785,32576
6786,32576
6787,32512
6788,32512
6789,32512
6790,32576
6791,32576
6792,32512
6793,32576
6794,32640
6795,32640
6796,32640
6797,32640
6798,32704
6799,32704
6800,32640
6801,32576
6802,32704
6803,32704
6804,32640
6805,32640
6806,32704
6807,32768
6808,32704
6809,32704
6810,32704
6811,32768
6812,32704
6813,32704
6814,32768
6815,32768
6816,32768
6817,32704
6818,32704
6819,32768
6820,32768
6821,32704
6822,32704
6823,32768
6824,32832
6825,32768
6826,32768
6827,32896
6828,32960
6829,33024
6830,33024
6831,33216
6832,33280
6833,33280
6834,33216
6835,33280
6836,33344
6837,33408
6838,33344
6839,33344
6840,33344
6841,33216
6842,33088
6843,32960
6844,32896
6845,32768
6846,32640
6847,32576
6848,32576
6849,32512
6850,32384
6851,32320
6852,32384
6853,32448
6854,32448
6855,32448
6856,32576
6857,32640
6858,32640
6859,32640
6860,32704
6861,32704
6862,32512
6863,32256
6864,32192
6865,32448
6866,33152
6867,34752
6868,37056
6869,40000
6870,43008
6871,45184
6872,45696
6873,43968
6874,40384
6875,36160
6876,32448
6877,29824
6878,28160
6879,27392
6880,27200
6881,27584
6882,28288
6883,28992
6884,29760
6885,30528
6886,31296
6887,31872
6888,32256
6889,32704
6890,33024
6891,33216
6892,33216
6893,33280
6894,33344
6895,33344
6896,33280
6897,33216
6898,33216
6899,33216
6900,33152
6901,33088
6902,33152
6903,33216
6904,33152
6905,33152
6906,33216
6907,33280
6908,33280
6909,33280
6910,33280
6911,33408
6912,33472
6913,33472
6914,33536
6915,33664
6916,33792
6917,33856
6918,33920
6919,34112
6920,34176
6921,34240
6922,34304
6923,34432
6924,34432
6925,34368
6926,34368
6927,34432
6928,34432
6929,34368
6930,34304
6931,34240
6932,34176
6933,33984
6934,33792
6935,33536
6936,33344
6937,33024
6938,32704
6939,32384
6940,32192
6941,31936
6942,31744
6943,31616
6944,31616
6945,31680
6946,31680
6947,31744
6948,31936
6949,32064
6950,32128
6951,32192
6952,32320
6953,32448
6954,32448
6955,32448
6956,32576
6957,32640
6958,32640
6959,32576
6960,32640
6961,32704
6962,32704
6963,32640
6964,32640
6965,32704
6966,32704
6967,32640
6968,32576
6969,32640
6970,32640
6971,32576
6972,32576
6973,32640
6974,32640
6975,32576
6976,32576
6977,32640
6978,32640
6979,32640
6980,32576
6981,32576
6982,32640
6983,32640
6984,32576
6985,32576
6986,32576
6987,32576
6988,32512
6989,32512
6990,32576
6991,32576
6992,32576
6993,32512
6994,32576
6995,32576
6996,32512
6997,32512
6998,32576
6999,32576
7000,32576
7001,32512
7002,32576
7003,32640
7004,32640
7005,32576
7006,32640
7007,32704
7008,32704
7009,32640
7010,32640
7011,32704
7012,32704
7013,32640
7014,32640
7015,32640
7016,32640
7017,32576
7018,32576
7019,32640
7020,32704
7021,32704
7022,32640
7023,32704
7024,32768
7025,32768
7026,32768
7027,32896
7028,33024
7029,33088
7030,33152
7031,33152
7032,33216
7033,33216
7034,33216
7035,33280
7036,33344
7037,33280
7038,33152
7039,33088
7040,33088
7041,32960
7042,32832
7043,32704
7044,32704
7045,32640
7046,32512
7047,32384
7048,32320
7049,32384
7050,32320
7051,32320
7052,32384
7053,32512
7054,32512
7055,32576
7056,32576
7057,32704
7058,32704
7059,32576
7060,32384
7061,32320
7062,32256
7063,32384
7064,33024
7065,34560
7066,36864
7067,39680
7068,42560
7069,44864
7070,45440
7071,43776
7072,40256
7073,36160
7074,32512
7075,29824
7076,28160
7077,27392
7078,27328
7079,27648
7080,28224
7081,28992
7082,29888
7083,30592
7084,31232
7085,31808
7086,32320
7087,32704
7088,32896
7089,33088
7090,33216
7091,33344
7092,33344
7093,33280
7094,33280
7095,33216
7096,33152
7097,33088
7098,33152
7099,33152
7100,33152
7101,33088
7102,33088
7103,33152
7104,33216
7105,33152
7106,33280
7107,33344
7108,33408
7109,33408
7110,33472
7111,33664
7112,33728
7113,33792
7114,33856
7115,33984
7116,34112
7117,34176
7118,34240
7119,34368
7120,34432
7121,34432
7122,34432
7123,34496
7124,34496
7125,34432
7126,34368
7127,34368
7128,34368
7129,34304
7130,34176
7131,34048
7132,33856
7133,33600
7134,33280
7135,33024
7136,32768
7137,32512
7138,32192
7139,32000
7140,31872
7141,31744
7142,31680
7143,31680
7144,31808
7145,31936
7146,32000
7147,32064
7148,32192
7149,32384
7150,32448
7151,32448
7152,32576
7153,32640
7154,32704
7155,32640
7156,32704
7157,32768
7158,32768
7159,32704
7160,32768
7161,32768
7162,32768
7163,32768
7164,32768
7165,32768
7166,32768
7167,32768
7168,32704
7169,32704
7170,32768
7171,32704
7172,32704
7173,32704
7174,32768
7175,32768
7176,32704
7177,32704
7178,32768
7179,32704
7180,32640
7181,32640
7182,32704
7183,32704
7184,32640
7185,32640
7186,32704
7187,32704
7188,32704
7189,32640
7190,32704
7191,32704
7192,32704
7193,32640
7194,32704
7195,32704
7196,32704
7197,32640
7198,32704
7199,32768
7200,32704
7201,32704
7202,32704
7203,32768
7204,32768
7205,32768
7206,32768
7207,32832
7208,32832
7209,32832
7210,32768
7211,32832
7212,32832
7213,32768
7214,32768
7215,32832
7216,32832
7217,32832
7218,32832
7219,32896
7220,33024
7221,33088
7222,33152
7223,33280
7224,33408
7225,33344
7226,33280
7227,33344
7228,33472
7229,33472
7230,33408
7231,33344
7232,33344
7233,33216
7234,33088
7235,32896
7236,32832
7237,32832
7238,32704
7239,32640
7240,32640
7241,32576
7242,32512
7243,32448
7244,32512
7245,32640
7246,32640
7247,32640
7248,32704
7249,32832
7250,32832
7251,32832
7252,32768
7253,32704
7254,32512
7255,32320
7256,32320
7257,32832
7258,34048
7259,36096
7260,38848
7261,41856
7262,44544
7263,45824
7264,44992
7265,42112
7266,38016
7267,33984
7268,30784
7269,28736
7270,27648
7271,27264
7272,27456
7273,27968
7274,28736
7275,29568
7276,30272
7277,31040
7278,31680
7279,32256
7280,32576
7281,32896
7282,33216
7283,33344
7284,33344
7285,33344
7286,33408
7287,33408
7288,33280
7289,33216
7290,33216
7291,33216
7292,33152
7293,33088
7294,33088
7295,33152
7296,33152
7297,33152
7298,33216
7299,33344
7300,33344
7301,33408
7302,33472
7303,33600
7304,33664
7305,33728
7306,33792
7307,33920
7308,34048
7309,34048
7310,34112
7311,34240
7312,34368
7313,34432
7314,34432
7315,34496
7316,34560
7317,34496
7318,34432
7319,34432
7320,34432
7321,34368
7322,34240
7323,34176
7324,34112
7325,33856
7326,33600
7327,33280
7328,33088
7329,32768
7330,32448
7331,32192
7332,32000
7333,31872
7334,31744
7335,31680
7336,31744
7337,31808
7338,31872
7339,32000
7340,32128
7341,32320
7342,32384
7343,32384
7344,32512
7345,32640
7346,32640
7347,32640
7348,32704
7349,32768
7350,32768
7351,32704
7352,32704
7353,32768
7354,32768
7355,32704
7356,32704
7357,32768
7358,32768
7359,32704
7360,32640
7361,32704
7362,32704
7363,32704
7364,32640
7365,32704
7366,32704
7367,32704
7368,32640
7369,32640
7370,32704
7371,32640
7372,32640
7373,32640
7374,32704
7375,32640
7376,32576
7377,32640
7378,32640
7379,32640
7380,32640
7381,32576
7382,32640
7383,32640
7384,32640
7385,32576
7386,32640
7387,32704
7388,32640
7389,32576
7390,32640
7391,32640
7392,32640
7393,32576
7394,32576
7395,32640
7396,32640
7397,32640
7398,32640
7399,32704
7400,32704
7401,32640
7402,32640
7403,32704
7404,32704
7405,32704
7406,32640
7407,32768
7408,32768
7409,32704
7410,32704
7411,32768
7412,32832
7413,32768
7414,32704
7415,32768
7416,32832
7417,32768
7418,32704
7419,32768
7420,32832
7421,32896
7422,32960
7423,33024
7424,33152
7425,33280
7426,33280
7427,33280
7428,33280
7429,33280
7430,33280
7431,33344
7432,33408
7433,33408
7434,33280
7435,33152
7436,33088
7437,33024
7438,32896
7439,32768
7440,32704
7441,32704
7442,32640
7443,32576
7444,32512
7445,32512
7446,32512
7447,32448
7448,32512
7449,32640
7450,32704
7451,32704
7452,32768
7453,32768
7454,32832
7455,32768
7456,32640
7457,32512
7458,32448
7459,32448
7460,32896
7461,34240
7462,36480
7463,39232
7464,42560
7465,44928
7466,46208
7467,45248
7468,42048
7469,37888
7470,33856
7471,30656
7472,28544
7473,27456
7474,27136
7475,27328
7476,27840
7477,28608
7478,29440
7479,30336
7480,31040
7481,31616
7482,32320
7483,32640
7484,32896
7485,33088
7486,33280
7487,33344
7488,33344
7489,33344
7490,33280
7491,33280
7492,33216
7493,33152
7494,33152
7495,33152
7496,33088
7497,33024
7498,33024
7499,33088
7500,33152
7501,33088
7502,33152
7503,33280
7504,33344
7505,33344
7506,33408
7507,33536
7508,33664
7509,33728
7510,33792
7511,33920
7512,34048
7513,34112
7514,34176
7515,34304
7516,34368
7517,34432
7518,34432
7519,34432
7520,34496
7521,34496
7522,34432
7523,34368
7524,34368
7525,34304
7526,34176
7527,34048
7528,33856
7529,33664
7530,33344
7531,32960
7532,32704
7533,32448
7534,32128
7535,31936
7536,31808
7537,31744
7538,31680
7539,31616
7540,31680
7541,31808
7542,31936
7543,31936
7544,32064
7545,32256
7546,32384
7547,32384
7548,32448
7549,32576
7550,32640
7551,32640
7552,32640
7553,32704
7554,32768
7555,32704
7556,32640
7557,32704
7558,32704
7559,32640
7560,32640
7561,32640
7562,32704
7563,32640
7564,32640
7565,32640
7566,32704
7567,32704
7568,32640
7569,32640
7570,32704
7571,32704
7572,32640
7573,32640
7574,32640
7575,32704
7576,32640
7577,32576
7578,32640
7579,32640
7580,32640
7581,32640
7582,32704
7583,32704
7584,32704
7585,32640
7586,32640
7587,32640
7588,32640
7589,32576
7590,32640
7591,32640
7592,32640
7593,32576
7594,32640
7595,32704
7596,32704
7597,32704
7598,32704
7599,32768
7600,32768
7601,32768
7602,32704
7603,32768
7604,32768
7605,32704
7606,32640
7607,32704
7608,32768
7609,32704
7610,32640
7611,32704
7612,32704
7613,32704
7614,32640
7615,32704
7616,32768
7617,32704
7618,32704
7619,32704
7620,32768
7621,32768
7622,32768
7623,32768
7624,32896
7625,33024
7626,33024
7627,33088
7628,33216
7629,33280
7630,33280
7631,33216
7632,33216
7633,33280
7634,33344
7635,33344
7636,33344
7637,33344
7638,33216
7639,33024
7640,32896
7641,32832
7642,32768
7643,32640
7644,32576
7645,32576
7646,32512
7647,32384
7648,32320
7649,32384
7650,32448
7651,32448
7652,32512
7653,32576
7654,32640
7655,32640
7656,32640
7657,32704
7658,32704
7659,32576
7660,32384
7661,32256
7662,32448
7663,32768
7664,33920
7665,36032
7666,38848
7667,41856
7668,44608
7669,45952
7670,45184
7671,42240
7672,38080
7673,33984
7674,30784
7675,28672
7676,27456
7677,27072
7678,27264
7679,27840
7680,28544
7681,29248
7682,30080
7683,30848
7684,31488
7685,32000
7686,32448
7687,32768
7688,33024
7689,33152
7690,33216
7691,33280
7692,33216
7693,33152
7694,33152
7695,33152
7696,33152
7697,33024
7698,32960
7699,33024
7700,33024
7701,33024
7702,32960
7703,33088
7704,33152
7705,33152
7706,33152
7707,33280
7708,33344
7709,33344
7710,33408
7711,33536
7712,33664
7713,33728
7714,33792
7715,33856
7716,34048
7717,34112
7718,34112
7719,34176
7720,34304
7721,34368
7722,34304
7723,34304
7724,34304
7725,34304
7726,34240
7727,34176
7728,34176
7729,34112
7730,33984
7731,33792
7732,33600
7733,33344
7734,33024
7735,32704
7736,32448
7737,32256
7738,32000
7739,31808
7740,31680
7741,31744
7742,31680
7743,31680
7744,31744
7745,31936
7746,32064
7747,32128
7748,32192
7749,32320
7750,32448
7751,32448
7752,32512
7753,32640
7754,32640
7755,32640
7756,32640
7757,32704
7758,32704
7759,32704
7760,32640
7761,32640
7762,32704
7763,32704
7764,32640
7765,32576
7766,32640
7767,32576
7768,32512
7769,32512
7770,32576
7771,32576
7772,32512
7773,32512
7774,32576
7775,32640
7776,32576
7777,32576
7778,32640
7779,32640
7780,32576
7781,32576
7782,32576
7783,32640
7784,32576
7785,32512
7786,32512
7787,32640
7788,32640
7789,32576
7790,32576
7791,32576
7792,32576
7793,32512
7794,32512
7795,32576
7796,32640
7797,32576
7798,32576
7799,32576
7800,32640
7801,32576
7802,32576
7803,32576
7804,32640
7805,32640
7806,32576
7807,32576
7808,32640
7809,32640
7810,32640
7811,32640
7812,32704
7813,32704
7814,32640
7815,32640
7816,32768
7817,32832
7818,32896
7819,33024
7820,33152
7821,33216
7822,33152
7823,33088
7824,33152
7825,33216
7826,33280
7827,33280
7828,33280
7829,33280
7830,33152
7831,33024
7832,32960
7833,32896
7834,32768
7835,32640
7836,32512
7837,32512
7838,32384
7839,32256
7840,32256
7841,32320
7842,32384
7843,32448
7844,32448
7845,32576
7846,32640
7847,32640
7848,32640
7849,32704
7850,32704
7851,32640
7852,32384
7853,32256
7854,32256
7855,32512
7856,33280
7857,36032
7858,37504
7859,40320
7860,43136
7861,45120
7862,45376
7863,43200
7864,39424
7865,35328
7866,31872
7867,29376
7868,27904
7869,27264
7870,27328
7871,27712
7872,28672
7873,29120
7874,29888
7875,30720
7876,31360
7877,31936
7878,32384
7879,32768
7880,32960
7881,33088
7882,33216
7883,33344
7884,33344
7885,33216
7886,33152
7887,33216
7888,33152
7889,33024
7890,32960
7891,32960
7892,33024
7893,33024
7894,33024
7895,33088
7896,33152
7897,33152
7898,33216
7899,33280
7900,33408
7901,33408
7902,33472
7903,33536
7904,33600
7905,33664
7906,33728
7907,33856
7908,33984
7909,34048
7910,34112
7911,34176
7912,34304
7913,34304
7914,34240
7915,34240
7916,34304
7917,34240
7918,34176
7919,34176
7920,34176
7921,34112
7922,33920
7923,33728
7924,33600
7925,33344
7926,33088
7927,32768
7928,32512
7929,32320
7930,32064
7931,31808
7932,31744
7933,31680
7934,31680
7935,31680
7936,31744
7937,31872
7938,32000
7939,32064
7940,32192
7941,32320
7942,32448
7943,32448
7944,32512
7945,32576
7946,32640
7947,32640
7948,32576
7949,32640
7950,32704
7951,32704
7952,32640
7953,32640
7954,32704
7955,32640
7956,32640
7957,32640
7958,32640
7959,32704
7960,32640
7961,32640
7962,32768
7963,32704
7964,32640
7965,32640
7966,32704
7967,32704
7968,32704
7969,32704
7970,32704
7971,32704
7972,32640
7973,32640
7974,32640
7975,32704
7976,32640
7977,32640
7978,32640
7979,32704
7980,32640
7981,32640
7982,32640
7983,32704
7984,32704
7985,32640
7986,32640
7987,32704
7988,32704
7989,32640
7990,32640
7991,32704
7992,32704
7993,32704
7994,32704
7995,32768
7996,32832
7997,32768
7998,32768
7999,32768
8000,32832
8001,32832
8002,32768
8003,32832
8004,32960
8005,33024
8006,33088
8007,33216
8008,33344
8009,33344
8010,33280
8011,33280
8012,33344
8013,33408
8014,33408
8015,33408
8016,33408
8017,33408
8018,33216
8019,33088
8020,33024
8021,32960
8022,32768
8023,32640
8024,32640
8025,32640
8026,32512
8027,32384
8028,32384
8029,32448
8030,32512
8031,32512
8032,32576
8033,32704
8034,32768
8035,32768
8036,32768
8037,32832
8038,32832
8039,32640
8040,32512
8041,32384
8042,32320
8043,32576
8044,33536
8045,35392
8046,37952
8047,40832
8048,43648
8049,45568
8050,45504
8051,43136
8052,39232
8053,35136
8054,31744
8055,29376
8056,27968
8057,27392
8058,27456
8059,27904
8060,28544
8061,29312
8062,30144
8063,30912
8064,31488
8065,32064
8066,32576
8067,32960
8068,33152
8069,33216
8070,33344
8071,33408
8072,33408
8073,33280
8074,33280
8075,33280
8076,33216
8077,33152
8078,33216
8079,33216
8080,33216
8081,33152
8082,33152
8083,33280
8084,33280
8085,33280
8086,33344
8087,33408
8088,33536
8089,33536
8090,33600
8091,33728
8092,33792
8093,33856
8094,33920
8095,34048
8096,34176
8097,34240
8098,34240
8099,34368
8100,34432
8101,34496
8102,34432
8103,34496
8104,34496
8105,34432
8106,34368
8107,34368
8108,34304
8109,34240
8110,34048
8111,33856
8112,33664
8113,33408
8114,33088
8115,32768
8116,32576
8117,32320
8118,32128
8119,31936
8120,31808
8121,31808
8122,31808
8123,31808
8124,31872
8125,32000
8126,32128
8127,32192
8128,32320
8129,32448
8130,32512
8131,32576
8132,32576
8133,32704
8134,32704
8135,32704
8136,32704
8137,32768
8138,32768
8139,32768
8140,32768
8141,32768
8142,32832
8143,32768
8144,32768
8145,32768
8146,32832
8147,32768
8148,32704
8149,32704
8150,32704
8151,32704
8152,32640
8153,32704
8154,32768
8155,32768
8156,32704
8157,32640
8158,32704
8159,32704
8160,32640
8161,32576
8162,32640
8163,32640
8164,32640
8165,32576
8166,32640
8167,32640
8168,32640
8169,32640
8170,32704
8171,32704
8172,32704
8173,32640
8174,32640
8175,32704
8176,32704
8177,32640
8178,32640
8179,32704
8180,32704
8181,32640
8182,32640
8183,32704
8184,32768
8185,32704
8186,32704
8187,32704
8188,32768
8189,32704
8190,32704
8191,32704
8192,32768
8193,32768
8194,32704
8195,32832
8196,32832
8197,32832
8198,32960
8199,33152
8200,33152
8201,33152
8202,33216
8203,33280
8204,33280
8205,33216
8206,33280
8207,33408
8208,33408
8209,33344
8210,33280
8211,33280
8212,33216
8213,33088
8214,32896
8215,32896
8216,32768
8217,32704
8218,32576
8219,32512
8220,32448
8221,32384
8222,32320
8223,32384
8224,32512
8225,32576
8226,32576
8227,32640
8228,32768
8229,32768
8230,32768
8231,32768
8232,32768
8233,32640
8234,32384
8235,32320
8236,32448
8237,33088
8238,34560
8239,36800
8240,39680
8241,42752
8242,45184
8243,46016
8244,44672
8245,41280
8246,36992
8247,33024
8248,30144
8249,28352
8250,27392
8251,27136
8252,27392
8253,28032
8254,28800
8255,29632
8256,30400
8257,31168
8258,31808
8259,32256
8260,32640
8261,33024
8262,33216
8263,33344
8264,33344
8265,33408
8266,33408
8267,33344
8268,33280
8269,33216
8270,33216
8271,33152
8272,33088
8273,33088
8274,33152
8275,33152
8276,33088
8277,33152
8278,33216
8279,33216
8280,33280
8281,33280
8282,33472
8283,33536
8284,33600
8285,33664
8286,33792
8287,33920
8288,33984
8289,34048
8290,34112
8291,34304
8292,34368
8293,34368
8294,34496
8295,34560
8296,34496
8297,34432
8298,34432
8299,34496
8300,34432
8301,34368
8302,34240
8303,34176
8304,34048
8305,33792
8306,33536
8307,33344
8308,33088
8309,32768
8310,32448
8311,32192
8312,32064
8313,31872
8314,31744
8315,31744
8316,31808
8317,31872
8318,31872
8319,32000
8320,32128
8321,32256
8322,32320
8323,32384
8324,32576
8325,32640
8326,32640
8327,32640
8328,32768
8329,32768
8330,32704
8331,32704
8332,32704
8333,32768
8334,32704
8335,32704
8336,32704
8337,32768
8338,32704
8339,32704
8340,32704
8341,32768
8342,32704
8343,32640
8344,32640
8345,32704
8346,32704
8347,32640
8348,32640
8349,32704
8350,32704
8351,32640
8352,32640
8353,32704
8354,32704
8355,32640
8356,32640
8357,32640
8358,32704
8359,32640
8360,32640
8361,32640
8362,32640
8363,32576
8364,32576
8365,32576
8366,32640
8367,32640
8368,32576
8369,32640
8370,32704
8371,32704
8372,32640
8373,32704
8374,32704
8375,32704
8376,32704
8377,32704
8378,32768
8379,32768
8380,32704
8381,32704
8382,32704
8383,32768
8384,32704
8385,32704
8386,32768
8387,32832
8388,32768
8389,32768
8390,32768
8391,32832
8392,32832
8393,32768
8394,32832
8395,32896
8396,32960
8397,33024
8398,33088
8399,33216
8400,33280
8401,33344
8402,33280
8403,33344
8404,33344
8405,33280
8406,33344
8407,33408
8408,33472
8409,33344
8410,33280
8411,33216
8412,33152
8413,33024
8414,32832
8415,32768
8416,32704
8417,32640
8418,32512
8419,32384
8420,32448
8421,32384
8422,32384
8423,32448
8424,32576
8425,32640
8426,32640
8427,32640
8428,32768
8429,32832
8430,32768
8431,32768
8432,32704
8433,32512
8434,32320
8435,32320
8436,32832
8437,34048
8438,36160
8439,38976
8440,41920
8441,44736
8442,46080
8443,45248
8444,42240
8445,38144
8446,34048
8447,30784
8448,28672
8449,27520
8450,27136
8451,27264
8452,27776
8453,28608
8454,29440
8455,30144
8456,30848
8457,31552
8458,32128
8459,32512
8460,32832
8461,33088
8462,33280
8463,33344
8464,33280
8465,33280
8466,33280
8467,33280
8468,33152
8469,33152
8470,33152
8471,33152
8472,33088
8473,33088
8474,33152
8475,33152
8476,33152
8477,33152
8478,33280
8479,33344
8480,33344
8481,33344
8482,33472
8483,33600
8484,33600
8485,33664
8486,33792
8487,33984
8488,34048
8489,34112
8490,34176
8491,34304
8492,34368
8493,34368
8494,34432
8495,34496
8496,34496
8497,34432
8498,34432
8499,34432
8500,34432
8501,34304
8502,34176
8503,34048
8504,33920
8505,33600
8506,33344
8507,33088
8508,32832
8509,32512
8510,32192
8511,32064
8512,31936
8513,31808
8514,31680
8515,31744
8516,31808
8517,31872
8518,31936
8519,32064
8520,32256
8521,32384
8522,32448
8523,32448
8524,32576
8525,32640
8526,32576
8527,32640
8528,32704
8529,32768
8530,32768
8531,32704
8532,32768
8533,32832
8534,32768
8535,32704
8536,32768
8537,32832
8538,32768
8539,32704
8540,32704
8541,32768
8542,32768
8543,32704
8544,32704
8545,32704
8546,32704
8547,32640
8548,32640
8549,32704
8550,32704
8551,32704
8552,32640
8553,32704
8554,32704
8555,32640
8556,32640
8557,32640
8558,32640
8559,32640
8560,32576
8561,32640
8562,32704
8563,32640
8564,32640
8565,32640
8566,32704
8567,32640
8568,32576
8569,32576
8570,32640
8571,32704
8572,32640
8573,32640
8574,32704
8575,32704
8576,32704
8577,32640
8578,32704
8579,32768
8580,32704
8581,32640
8582,32704
8583,32768
8584,32704
8585,32704
8586,32704
8587,32768
8588,32768
8589,32704
8590,32704
8591,32768
8592,32768
8593,32704
8594,32704
8595,32768
8596,32768
8597,32704
8598,32640
8599,32704
8600,32768
8601,32768
8602,32768
8603,32896
8604,33088
8605,33088
8606,33152
8607,33280
8608,33344
8609,33280
8610,33216
8611,33216
8612,33344
8613,33344
8614,33344
8615,33280
8616,33216
8617,33152
8618,32960
8619,32832
8620,32768
8621,32704
8622,32640
8623,32576
8624,32512
8625,32448
8626,32384
8627,32384
8628,32448
8629,32512
8630,32512
8631,32512
8632,32640
8633,32704
8634,32704
8635,32704
8636,32768
8637,32768
8638,32576
8639,32384
8640,32256
8641,32384
8642,32960
8643,34240
8644,36480
8645,39360
8646,42432
8647,44928
8648,45952
8649,44864
8650,41600
8651,37312
8652,33216
8653,30336
8654,28416
8655,27392
8656,27072
8657,27328
8658,27904
8659,28672
8660,29440
8661,30272
8662,31040
8663,31680
8664,32128
8665,32576
8666,32960
8667,33152
8668,33216
8669,33280
8670,33344
8671,33344
8672,33280
8673,33216
8674,33216
8675,33152
8676,33088
8677,33024
8678,33088
8679,33088
8680,33088
8681,33024
8682,33152
8683,33216
8684,33216
8685,33216
8686,33344
8687,33472
8688,33472
8689,33536
8690,33600
8691,33728
8692,33856
8693,33856
8694,33984
8695,34112
8696,34176
8697,34240
8698,34304
8699,34368
8700,34432
8701,34432
8702,34368
8703,34432
8704,34432
8705,34368
8706,34304
8707,34304
8708,34240
8709,34112
8710,33856
8711,33664
8712,33408
8713,33088
8714,32768
8715,32448
8716,32256
8717,32064
8718,31872
8719,31744
8720,31744
8721,31744
8722,31808
8723,31872
8724,32000
8725,32128
8726,32256
8727,32320
8728,32384
8729,32512
8730,32576
8731,32576
8732,32640
8733,32768
8734,32768
8735,32704
8736,32704
8737,32832
8738,32832
8739,32768
8740,32768
8741,32768
8742,32768
8743,32704
8744,32704
8745,32768
8746,32768
8747,32704
8748,32704
8749,32704
8750,32768
8751,32704
8752,32704
8753,32704
8754,32768
8755,32704
8756,32640
8757,32640
8758,32704
8759,32704
8760,32640
8761,32640
8762,32704
8763,32704
8764,32640
8765,32640
8766,32704
8767,32704
8768,32640
8769,32640
8770,32704
8771,32704
8772,32640
8773,32576
8774,32640
8775,32704
8776,32640
8777,32576
8778,32640
8779,32704
8780,32640
8781,32640
8782,32704
8783,32768
8784,32704
8785,32640
8786,32640
8787,32704
8788,32704
8789,32640
8790,32640
8791,32768
8792,32768
8793,32704
8794,32704
8795,32768
8796,32832
8797,32768
8798,32768
8799,32768
8800,32832
8801,32768
8802,32768
8803,32768
8804,32832
8805,32768
8806,32704
8807,32768
8808,32896
8809,32960
8810,33024
8811,33152
8812,33280
8813,33344
8814,33344
8815,33344
8816,33344
8817,33408
8818,33408
8819,33408
8820,33408
8821,33408
8822,33280
8823,33152
8824,33088
8825,32960
8826,32832
8827,32704
8828,32704
8829,32704
8830,32576
8831,32448
8832,32448
8833,32512
8834,32512
8835,32576
8836,32576
8837,32704
8838,32768
8839,32768
8840,32768
8841,32832
8842,32896
8843,32768
8844,32576
8845,32448
8846,32384
8847,32576
8848,33408
8849,35136
8850,37696
8851,40640
8852,43584
8853,45696
8854,45952
8855,43840
8856,40000
8857,35840
8858,32192
8859,29504
8860,28032
8861,27328
8862,27328
8863,27712
8864,28288
8865,29056
8866,29952
8867,30720
8868,31360
8869,31936
8870,32448
8871,32832
8872,33088
8873,33216
8874,33344
8875,33408
8876,33408
8877,33344
8878,33344
8879,33344
8880,33216
8881,33152
8882,33152
8883,33216
8884,33216
8885,33152
8886,33216
8887,33280
8888,33280
8889,33280
8890,33344
8891,33408
8892,33472
8893,33472
8894,33536
8895,33664
8896,33728
8897,33792
8898,33856
8899,33984
8900,34112
8901,34176
8902,34240
8903,34304
8904,34496
8905,34496
8906,34496
8907,34560
8908,34560
8909,34560
8910,34496
8911,34496
8912,34432
8913,34368
8914,34240
8915,34048
8916,33920
8917,33664
8918,33344
8919,33024
8920,32768
8921,32512
8922,32192
8923,32000
8924,31872
8925,31808
8926,31744
8927,31744
8928,31808
8929,31936
8930,32000
8931,32064
8932,32192
8933,32384
8934,32448
8935,32448
8936,32512
8937,32640
8938,32704
8939,32640
8940,32704
8941,32768
8942,32768
8943,32768
8944,32768
8945,32768
8946,32832
8947,32768
8948,32704
8949,32768
8950,32768
8951,32768
8952,32704
8953,32768
8954,32768
8955,32768
8956,32704
8957,32704
8958,32768
8959,32768
8960,32704
8961,32640
8962,32704
8963,32704
8964,32640
8965,32640
8966,32640
8967,32704
8968,32640
8969,32640
8970,32704
8971,32704
8972,32704
8973,32640
8974,32640
8975,32704
8976,32704
8977,32640
8978,32640
8979,32704
8980,32704
8981,32640
8982,32640
8983,32704
8984,32704
8985,32640
8986,32704
8987,32768
8988,32768
8989,32704
8990,32704
8991,32768
8992,32768
8993,32704
8994,32704
8995,32704
8996,32768
8997,32704
8998,32704
8999,32768
9000,32832
9001,32768
9002,32768
9003,32768
9004,32832
9005,32832
9006,32768
9007,32832
9008,32896
9009,32896
9010,32832
9011,32832
9012,32896
9013,32896
9014,32832
9015,32896
9016,33024
9017,33088
9018,33152
9019,33216
9020,33344
9021,33408
9022,33344
9023,33280
9024,33408
9025,33536
9026,33472
9027,33408
9028,33344
9029,33344
9030,33216
9031,33024
9032,32960
9033,32896
9034,32832
9035,32704
9036,32640
9037,32576
9038,32512
9039,32448
9040,32448
9041,32512
9042,32576
9043,32576
9044,32576
9045,32704
9046,32768
9047,32768
9048,32768
9049,32896
9050,32896
9051,32704
9052,32448
9053,32448
9054,32768
9055,33536
9056,35200
9057,37888
9058,40704
9059,43648
9060,45632
9061,45760
9062,43648
9063,39872
9064,35648
9065,32064
9066,29568
9067,28096
9068,27392
9069,27264
9070,27712
9071,28416
9072,29248
9073,29888
9074,30720
9075,31424
9076,32000
9077,32448
9078,32768
9079,33088
9080,33280
9081,33280
9082,33344
9083,33408
9084,33408
9085,33280
9086,33216
9087,33280
9088,33216
9089,33152
9090,33152
9091,33152
9092,33216
9093,33152
9094,33152
9095,33280
9096,33280
9097,33280
9098,33280
9099,33408
9100,33536
9101,33600
9102,33600
9103,33728
9104,33856
9105,33920
9106,33984
9107,34048
9108,34240
9109,34304
9110,34368
9111,34432
9112,34560
9113,34560
9114,34560
9115,34496
9116,34560
9117,34560
9118,34496
9119,34432
9120,34368
9121,34304
9122,34112
9123,33856
9124,33664
9125,33408
9126,33152
9127,32768
9128,32512
9129,32320
9130,32128
9131,31936
9132,31808
9133,31808
9134,31808
9135,31808
9136,31872
9137,32000
9138,32128
9139,32192
9140,32320
9141,32448
9142,32576
9143,32576
9144,32640
9145,32704
9146,32768
9147,32768
9148,32704
9149,32768
9150,32832
9151,32832
9152,32768
9153,32768
9154,32832
9155,32832
9156,32768
9157,32704
9158,32768
9159,32768
9160,32704
9161,32704
9162,32704
9163,32704
9164,32640
9165,32640
9166,32704
9167,32704
9168,32704
9169,32640
9170,32640
9171,32704
9172,32704
9173,32640
9174,32640
9175,32704
9176,32704
9177,32640
9178,32640
9179,32768
9180,32768
9181,32704
9182,32704
9183,32768
9184,32768
9185,32704
9186,32704
9187,32704
9188,32704
9189,32704
9190,32704
9191,32704
9192,32768
9193,32704
9194,32704
9195,32704
9196,32768
9197,32704
9198,32704
9199,32704
9200,32768
9201,32768
9202,32768
9203,32768
9204,32832
9205,32832
9206,32768
9207,32768
9208,32832
9209,32832
9210,32832
9211,32832
9212,32896
9213,32896
9214,32832
9215,32832
9216,32832
9217,32896
9218,32832
9219,32768
9220,32832
9221,32832
9222,32832
9223,32768
9224,32832
9225,32896
9226,33024
9227,33024
9228,33088
9229,33280
9230,33344
9231,33344
9232,33280
9233,33344
9234,33344
9235,33408
9236,33408
9237,33472
9238,33408
9239,33280
9240,33152
9241,33088
9242,33024
9243,32896
9244,32768
9245,32704
9246,32704
9247,32576
9248,32448
9249,32448
9250,32512
9251,32512
9252,32512
9253,32576
9254,32704
9255,32704
9256,32704
9257,32768
9258,32832
9259,32832
9260,32704
9261,32512
9262,32384
9263,32384
9264,32768
9265,34112
9266,35904
9267,39168
9268,41664
9269,44352
9270,45888
9271,45376
9272,42624
9273,38528
9274,34496
9275,31232
9276,29056
9277,27776
9278,27264
9279,27456
9280,28032
9281,28544
9282,29504
9283,30208
9284,30976
9285,31552
9286,32064
9287,32576
9288,32896
9289,33088
9290,33216
9291,33344
9292,33408
9293,33408
9294,33344
9295,33344
9296,33344
9297,33216
9298,33152
9299,33152
9300,33152
9301,33152
9302,33152
9303,33152
9304,33216
9305,33280
9306,33280
9307,33280
9308,33408
9309,33472
9310,33536
9311,33536
9312,33664
9313,33792
9314,33856
9315,33856
9316,34048
9317,34176
9318,34240
9319,34304
9320,34432
9321,34496
9322,34496
9323,34496
9324,34496
9325,34560
9326,34560
9327,34432
9328,34432
9329,34432
9330,34368
9331,34240
9332,34048
9333,33856
9334,33664
9335,33344
9336,33024
9337,32768
9338,32512
9339,32256
9340,32000
9341,31872
9342,31808
9343,31744
9344,31744
9345,31808
9346,31936
9347,32064
9348,32128
9349,32256
9350,32384
9351,32448
9352,32512
9353,32576
9354,32704
9355,32768
9356,32704
9357,32704
9358,32768
9359,32832
9360,32768
9361,32704
9362,32768
9363,32768
9364,32704
9365,32640
9366,32704
9367,32704
9368,32704
9369,32640
9370,32640
9371,32704
9372,32704
9373,32640
9374,32640
9375,32704
9376,32704
9377,32640
9378,32640
9379,32704
9380,32704
9381,32640
9382,32640
9383,32640
9384,32704
9385,32640
9386,32640
9387,32640
9388,32640
9389,32640
9390,32576
9391,32640
9392,32640
9393,32576
9394,32576
9395,32576
9396,32640
9397,32640
9398,32640
9399,32640
9400,32704
9401,32704
9402,32640
9403,32640
9404,32704
9405,32704
9406,32704
9407,32704
9408,32704
9409,32768
9410,32704
9411,32704
9412,32768
9413,32768
9414,32704
9415,32704
9416,32704
9417,32768
9418,32768
9419,32704
9420,32768
9421,32832
9422,32832
9423,32768
9424,32768
9425,32832
9426,32832
9427,32768
9428,32768
9429,32832
9430,32896
9431,32832
9432,32896
9433,32960
9434,33088
9435,33152
9436,33216
9437,33344
9438,33408
9439,33344
9440,33280
9441,33344
9442,33472
9443,33408
9444,33408
9445,33344
9446,33280
9447,33152
9448,33024
9449,32896
9450,32832
9451,32768
9452,32640
9453,32576
9454,32576
9455,32512
9456,32448
9457,32448
9458,32512
9459,32576
9460,32576
9461,32640
9462,32704
9463,32768
9464,32768
9465,32768
9466,32768
9467,32704
9468,32512
9469,32384
9470,32384
9471,32832
9472,34048
9473,36032
9474,38784
9475,41856
9476,44544
9477,45952
9478,45184
9479,42368
9480,38336
9481,34240
9482,30976
9483,28864
9484,27712
9485,27200
9486,27328
9487,27904
9488,28672
9489,29440
9490,30208
9491,30976
9492,31808
9493,32192
9494,32512
9495,32832
9496,33152
9497,33280
9498,33344
9499,33344
9500,33408
9501,33344
9502,33280
9503,33216
9504,33216
9505,33152
9506,33088
9507,33088
9508,33088
9509,33152
9510,33152
9511,33152
9512,33216
9513,33280
9514,33280
9515,33280
9516,33408
9517,33536
9518,33600
9519,33664
9520,33728
9521,33856
9522,33984
9523,34048
9524,34112
9525,34240
9526,34304
9527,34368
9528,34432
9529,34496
9530,34496
9531,34496
9532,34496
9533,34496
9534,34496
9535,34432
9536,34304
9537,34304
9538,34176
9539,33984
9540,33792
9541,33536
9542,33344
9543,33024
9544,32704
9545,32448
9546,32192
9547,32000
9548,31808
9549,31744
9550,31808
9551,31808
9552,31872
9553,31936
9554,32064
9555,32192
9556,32256
9557,32320
9558,32448
9559,32576
9560,32576
9561,32576
9562,32704
9563,32768
9564,32768
9565,32704
9566,32768
9567,32832
9568,32768
9569,32768
9570,32768
9571,32832
9572,32768
9573,32704
9574,32704
9575,32768
9576,32704
9577,32640
9578,32640
9579,32704
9580,32704
9581,32704
9582,32640
9583,32704
9584,32704
9585,32704
9586,32640
9587,32640
9588,32704
9589,32704
9590,32640
9591,32640
9592,32704
9593,32704
9594,32640
9595,32640
9596,32704
9597,32640
9598,32576
9599,32576
9600,32640
9601,32640
9602,32576
9603,32576
9604,32640
9605,32704
9606,32640
9607,32640
9608,32704
9609,32768
9610,32704
9611,32704
9612,32768
9613,32768
9614,32704
9615,32704
9616,32704
9617,32768
9618,32704
9619,32704
9620,32704
9621,32768
9622,32768
9623,32704
9624,32704
9625,32768
9626,32832
9627,32768
9628,32768
9629,32832
9630,32896
9631,32832
9632,32832
9633,32896
9634,32960
9635,32896
9636,32960
9637,33024
9638,33152
9639,33216
9640,33280
9641,33344
9642,33408
9643,33344
9644,33344
9645,33344
9646,33472
9647,33472
9648,33344
9649,33280
9650,33216
9651,33088
9652,32960
9653,32768
9654,32768
9655,32704
9656,32640
9657,32512
9658,32448
9659,32512
9660,32448
9661,32448
9662,32512
9663,32640
9664,32640
9665,32704
9666,32768
9667,32832
9668,32832
9669,32832
9670,32768
9671,32640
9672,32512
9673,32448
9674,32704
9675,33536
9676,35264
9677,37632
9678,40512
9679,43456
9680,45504
9681,45696
9682,43648
9683,39936
9684,35840
9685,32064
9686,29632
9687,27712
9688,27392
9689,27328
9690,27648
9691,28352
9692,29120
9693,29952
9694,30656
9695,31360
9696,32000
9697,32448
9698,32768
9699,33024
9700,33280
9701,33408
9702,33408
9703,33344
9704,33344
9705,33344
9706,33280
9707,33216
9708,33216
9709,33216
9710,33152
9711,33152
9712,33152
9713,33216
9714,33216
9715,33216
9716,33280
9717,33408
9718,33408
9719,33408
9720,33536
9721,33664
9722,33728
9723,33728
9724,33856
9725,33984
9726,34048
9727,34112
9728,34176
9729,34304
9730,34432
9731,34432
9732,34496
9733,34560
9734,34560
9735,34560
9736,34496
9737,34496
9738,34496
9739,34432
9740,34368
9741,34240
9742,34112
9743,33920
9744,33664
9745,33408
9746,33152
9747,32832
9748,32512
9749,32256
9750,32064
9751,31936
9752,31808
9753,31808
9754,31872
9755,31936
9756,31936
9757,32000
9758,32192
9759,32320
9760,32384
9761,32448
9762,32576
9763,32640
9764,32704
9765,32640
9766,32704
9767,32832
9768,32832
9769,32768
9770,32832
9771,32896
9772,32896
9773,32832
9774,32832
9775,32896
9776,32832
9777,32768
9778,32768
9779,32768
9780,32768
9781,32768
9782,32704
9783,32768
9784,32768
9785,32704
9786,32640
9787,32704
9788,32768
9789,32768
9790,32704
9791,32704
9792,32768
9793,32704
9794,32640
9795,32704
9796,32704
9797,32768
9798,32704
9799,32704
9800,32768
9801,32768
9802,32704
9803,32640
9804,32704
9805,32768
9806,32704
9807,32704
9808,32704
9809,32768
9810,32704
9811,32704
9812,32768
9813,32768
9814,32768
9815,32768
9816,32768
9817,32832
9818,32768
9819,32768
9820,32768
9821,32768
9822,32832
9823,32768
9824,32768
9825,32832
9826,32832
9827,32768
9828,32768
9829,32832
9830,32896
9831,32832
9832,32832
9833,32896
9834,33024
9835,33088
9836,33152
9837,33280
9838,33408
9839,33344
9840,33280
9841,33344
9842,33472
9843,33472
9844,33408
9845,33408
9846,33344
9847,33280
9848,33088
9849,32896
9850,32832
9851,32768
9852,32640
9853,32576
9854,32576
9855,32576
9856,32448
9857,32448
9858,32512
9859,32576
9860,32640
9861,32640
9862,32768
9863,32832
9864,32832
9865,32832
9866,32832
9867,32832
9868,32640
9869,32448
9870,32384
9871,32704
9872,33536
9873,35136
9874,37504
9875,40448
9876,43392
9877,45440
9878,45696
9879,43776
9880,40128
9881,35968
9882,32064
9883,29696
9884,28160
9885,27392
9886,27264
9887,27648
9888,28352
9889,29056
9890,29824
9891,30592
9892,31360
9893,31936
9894,32384
9895,32768
9896,33088
9897,33344
9898,33344
9899,33344
9900,33408
9901,33408
9902,33344
9903,33280
9904,33280
9905,33280
9906,33216
9907,33152
9908,33152
9909,33216
9910,33216
9911,33152
9912,33280
9913,33280
9914,33344
9915,33344
9916,33408
9917,33536
9918,33600
9919,33664
9920,33728
9921,33920
9922,33984
9923,34048
9924,34112
9925,34304
9926,34368
9927,34368
9928,34368
9929,34432
9930,34560
9931,34496
9932,34496
9933,34496
9934,34496
9935,34432
9936,34304
9937,34240
9938,34176
9939,34048
9940,33792
9941,33536
9942,33344
9943,33024
9944,32704
9945,32448
9946,32256
9947,32064
9948,31872
9949,31808
9950,31808
9951,31808
9952,31808
9953,31872
9954,32000
9955,32192
9956,32256
9957,32320
9958,32448
9959,32576
9960,32640
9961,32640
9962,32704
9963,32768
9964,32768
9965,32704
9966,32768
9967,32832
9968,32768
9969,32768
9970,32768
9971,32768
9972,32768
9973,32704
9974,32640
9975,32704
9976,32704
9977,32704
9978,32640
9979,32704
9980,32704
9981,32704
9982,32640
9983,32704
9984,32768
9985,32704
9986,32640
9987,32640
9988,32704
9989,32704
9990,32640
9991,32640
9992,32704
9993,32704
9994,32704
9995,32704
9996,32768
9997,32768
9998,32640
9999,32640
10000,32704
10001,32640
10002,32640
10003,32576
10004,32640
10005,32704
10006,32640
10007,32640
10008,32704
10009,32704
10010,32704
10011,32704
10012,32704
10013,32768
10014,32768
10015,32768
10016,32832
10017,32768
10018,32768
10019,32768
10020,32832
10021,32832
10022,32832
10023,32832
10024,32832
10025,32896
10026,32832
10027,32832
10028,32896
10029,32896
10030,32896
10031,32960
10032,33088
10033,33024
10034,33280
10035,33280
10036,33344
10037,33344
10038,33280
10039,33280
10040,33344
10041,33472
10042,33472
10043,33344
10044,33280
10045,33216
10046,33088
10047,32960
10048,32832
10049,32832
10050,32768
10051,32704
10052,32576
10053,32512
10054,32512
10055,32448
10056,32448
10057,32576
10058,32640
10059,32704
10060,32704
10061,32768
10062,32832
10063,32832
10064,32832
10065,32704
10066,32640
10067,32448
10068,32448
10069,32768
10070,33728
10071,35520
10072,38016
10073,40960
10074,43840
10075,45696
10076,45632
10077,43264
10078,39424
10079,35328
10080,31872
10081,29376
10082,27968
10083,27392
10084,27328
10085,27712
10086,28416
10087,29248
10088,30016
10089,30720
10090,31424
10091,32064
10092,32512
10093,32832
10094,33088
10095,33280
10096,33408
10097,33408
10098,33344
10099,33408
10100,33344
10101,33280
10102,33216
10103,33216
10104,33216
10105,33152
10106,33088
10107,33088
10108,33152
10109,33088
10110,33152
10111,33216
10112,33280
10113,33344
10114,33408
10115,33472
10116,33600
10117,33664
10118,33728
10119,33792
10120,33920
10121,34048
10122,34176
10123,34112
10124,34368
10125,34432
10126,34496
10127,34496
10128,34560
10129,34560
10130,34496
10131,34496
10132,34496
10133,34496
10134,34368
10135,34240
10136,34176
10137,34048
10138,33856
10139,33536
10140,33216
10141,33024
10142,32704
10143,32384
10144,32128
10145,32000
10146,31872
10147,31680
10148,31680
10149,31744
10150,31808
10151,31872
10152,31936
10153,32128
10154,32256
10155,32320
10156,32384
10157,32512
10158,32576
10159,32640
10160,32640
10161,32704
10162,32768
10163,32768
10164,32768
10165,32768
10166,32768
10167,32832
10168,32768
10169,32704
10170,32768
10171,32768
10172,32704
10173,32704
10174,32704
10175,32704
10176,32640
10177,32576
10178,32640
10179,32640
10180,32640
10181,32576
10182,32576
10183,32640
10184,32640
10185,32576
10186,32576
10187,32640
10188,32640
10189,32640
10190,32640
10191,32704
10192,32640
10193,32576
10194,32576
10195,32640
10196,32640
10197,32640
10198,32640
10199,32640
10200,32704
10201,32640
10202,32640
10203,32640
10204,32704
10205,32640
10206,32576
10207,32640
10208,32704
10209,32704
10210,32640
10211,32640
10212,32704
10213,32704
10214,32640
10215,32704
10216,32768
10217,32768
10218,32704
10219,32704
10220,32768
10221,32768
10222,32768
10223,32704
10224,32768
10225,32832
10226,32768
10227,32832
10228,32960
10229,33088
10230,33152
10231,33216
10232,33280
10233,33280
10234,33280
10235,33216
10236,33280
10237,33344
10238,33344
10239,33280
10240,33152
10241,33088
10242,33024
10243,32896
10244,32768
10245,32768
10246,32704
10247,32576
10248,32448
10249,32448
10250,32448
10251,32384
10252,32384
10253,32512
10254,32576
10255,32640
10256,32640
10257,32704
10258,32768
10259,32768
10260,32768
10261,32704
10262,32576
10263,32448
10264,32384
10265,32640
10266,33536
10267,35200
10268,37568
10269,40448
10270,43328
10271,45312
10272,45440
10273,43328
10274,39744
10275,35712
10276,32192
10277,29632
10278,28160
10279,27456
10280,27392
10281,27712
10282,28416
10283,29184
10284,29952
10285,30656
10286,31360
10287,32000
10288,32448
10289,32768
10290,32960
10291,33152
10292,33280
10293,33280
10294,33280
10295,33344
10296,33280
10297,33216
10298,33088
10299,33088
10300,33088
10301,33088
10302,33024
10303,33088
10304,33152
10305,33088
10306,33088
10307,33152
10308,33216
10309,33280
10310,33280
10311,33408
10312,33536
10313,33600
10314,33664
10315,33728
10316,33920
10317,34048
10318,34048
10319,34176
10320,34240
10321,34368
10322,34368
10323,34368
10324,34432
10325,34496
10326,34432
10327,34368
10328,34368
10329,34432
10330,34304
10331,34176
10332,34048
10333,33920
10334,33728
10335,33472
10336,33152
10337,32896
10338,32640
10339,32320
10340,32128
10341,32000
10342,31872
10343,31744
10344,31680
10345,31808
10346,31872
10347,31936
10348,32000
10349,32192
10350,32320
10351,32384
10352,32384
10353,32448
10354,32576
10355,32640
10356,32640
10357,32704
10358,32768
10359,32768
10360,32704
10361,32768
10362,32768
10363,32832
10364,32768
10365,32704
10366,32704
10367,32704
10368,32640
10369,32640
10370,32640
10371,32704
10372,32640
10373,32576
10374,32640
10375,32704
10376,32640
10377,32512
10378,32512
10379,32576
10380,32512
10381,32448
10382,32384
10383,32448
10384,32384
10385,32320
10386,32384
10387,32448
10388,32512
10389,32448
10390,32512
10391,32576
10392,32640
10393,32576
10394,32576
10395,32640
10396,32704
10397,32640
10398,32640
10399,32640
10400,32704
10401,32704
10402,32640
10403,32704
10404,32768
10405,32704
10406,32704
10407,32768
10408,32768
10409,32768
10410,32704
10411,32768
10412,32832
10413,32832
10414,32768
10415,32768
10416,32832
10417,32832
10418,32832
10419,32832
10420,32832
10421,32896
10422,32960
10423,32960
10424,33088
10425,33152
10426,33216
10427,33280
10428,33344
10429,33408
10430,33408
10431,33472
10432,33472
10433,33536
10434,33472
10435,33344
10436,33280
10437,33216
10438,33088
10439,32960
10440,32832
10441,32832
10442,32768
10443,32576
10444,32512
10445,32512
10446,32576
10447,32576
10448,32576
10449,32640
10450,32768
10451,32768
10452,32768
10453,32832
10454,32896
10455,32896
10456,32768
10457,32704
10458,32576
10459,32448
10460,32512
10461,33216
10462,34752
10463,37056
10464,39808
10465,42752
10466,45120
10467,45696
10468,44032
10469,40576
10470,36544
10471,32896
10472,30080
10473,28352
10474,27520
10475,27392
10476,27648
10477,28224
10478,28992
10479,29888
10480,30592
10481,31232
10482,31872
10483,32384
10484,32704
10485,32960
10486,33152
10487,33344
10488,33408
10489,33408
10490,33344
10491,33408
10492,33344
10493,33280
10494,33152
10495,33152
10496,33152
10497,33152
10498,33088
10499,33152
10500,33216
10501,33216
10502,33216
10503,33280
10504,33408
10505,33408
10506,33472
10507,33536
10508,33664
10509,33792
10510,33792
10511,33920
10512,34048
10513,34112
10514,34176
10515,34304
10516,34432
10517,34496
10518,34496
10519,34496
10520,34496
10521,34560
10522,34432
10523,34368
10524,34368
10525,34368
10526,34240
10527,34048
10528,33984
10529,33792
10530,33536
10531,33216
10532,32896
10533,32704
10534,32448
10535,32192
10536,32000
10537,31936
10538,31872
10539,31808
10540,31744
10541,31872
10542,31936
10543,31936
10544,32000
10545,32192
10546,32256
10547,32320
10548,32320
10549,32384
10550,32448
10551,32448
10552,32448
10553,32512
10554,32640
10555,32576
10556,32576
10557,32576
10558,32640
10559,32576
10560,32512
10561,32512
10562,32640
10563,32640
10564,32576
10565,32576
10566,32576
10567,32640
10568,32576
10569,32512
10570,32576
10571,32576
10572,32512
10573,32512
10574,32512
10575,32512
10576,32448
10577,32384
10578,32448
10579,32448
10580,32448
10581,32448
10582,32512
10583,32576
10584,32576
10585,32512
10586,32576
10587,32640
10588,32704
10589,32704
10590,32640
10591,32768
10592,32768
10593,32768
10594,32768
10595,32832
10596,32832
10597,32832
10598,32768
10599,32832
10600,32832
10601,32832
10602,32768
10603,32832
10604,32832
10605,32832
10606,32704
10607,32704
10608,32832
10609,32768
10610,32768
10611,32768
10612,32832
10613,32896
10614,32832
10615,32832
10616,32960
10617,33024
10618,33024
10619,33024
10620,33152
10621,33344
10622,33344
10623,33280
10624,33280
10625,33408
10626,33408
10627,33408
10628,33472
10629,33472
10630,33408
10631,33280
10632,33216
10633,33152
10634,33088
10635,32896
10636,32832
10637,32832
10638,32832
10639,32640
10640,32512
10641,32576
10642,32640
10643,32640
10644,32640
10645,32768
10646,32896
10647,32832
10648,32768
10649,32832
10650,32960
10651,32896
10652,32704
10653,32640
10654,32512
10655,32576
10656,32960
10657,34112
10658,36160
10659,38976
10660,41664
10661,44288
10662,45760
10663,44992
10664,42048
10665,38016
10666,34176
10667,31040
10668,28992
10669,27840
10670,27456
10671,27648
10672,28096
10673,28736
10674,29568
10675,30400
10676,31104
10677,31744
10678,32256
10679,32704
10680,32960
10681,33152
10682,33280
10683,33408
10684,33408
10685,33344
10686,33344
10687,33344
10688,33344
10689,33280
10690,33216
10691,33216
10692,33216
10693,33152
10694,33088
10695,33152
10696,33280
10697,33280
10698,33280
10699,33344
10700,33472
10701,33472
10702,33472
10703,33600
10704,33728
10705,33792
10706,33792
10707,33984
10708,34112
10709,34240
10710,34240
10711,34304
10712,34432
10713,34560
10714,34496
10715,34496
10716,34560
10717,34496
10718,34432
10719,34368
10720,34368
10721,34368
10722,34176
10723,33984
10724,33856
10725,33664
10726,33344
10727,33024
10728,32768
10729,32512
10730,32320
10731,32064
10732,31936
10733,31872
10734,31808
10735,31744
10736,31808
10737,31936
10738,32064
10739,32128
10740,32192
10741,32320
10742,32448
10743,32512
10744,32512
10745,32640
10746,32768
10747,32704
10748,32704
10749,32768
10750,32832
10751,32768
10752,32704
10753,32768
10754,32768
10755,32768
10756,32768
10757,32704
10758,32768
10759,32832
10760,32768
10761,32768
10762,32896
10763,32896
10764,32896
10765,32832
10766,32896
10767,32960
10768,32896
10769,32896
10770,32896
10771,32960
10772,32896
10773,32832
10774,32832
10775,32896
10776,32832
10777,32768
10778,32768
10779,32832
10780,32768
10781,32704
10782,32704
10783,32768
10784,32768
10785,32640
10786,32640
10787,32704
10788,32768
10789,32704
10790,32704
10791,32768
10792,32832
10793,32768
10794,32768
10795,32832
10796,32832
10797,32832
10798,32768
10799,32832
10800,32896
10801,32896
10802,32832
10803,32832
10804,32896
10805,32896
10806,32832
10807,32832
10808,32960
10809,33024
10810,32960
10811,33024
10812,33152
10813,33216
10814,33216
10815,33216
10816,33344
10817,33344
10818,33280
10819,33280
10820,33408
10821,33408
10822,33344
10823,33216
10824,33216
10825,33152
10826,33088
10827,32896
10828,32832
10829,32832
10830,32768
10831,32576
10832,32512
10833,32512
10834,32512
10835,32448
10836,32448
10837,32576
10838,32704
10839,32704
10840,32704
10841,32768
10842,32896
10843,32832
10844,32768
10845,32704
10846,32576
10847,32384
10848,32320
10849,32832
10850,33984
10851,35968
10852,38528
10853,41472
10854,44224
10855,45760
10856,45120
10857,42112
10858,38464
10859,34432
10860,31104
10861,28928
10862,27776
10863,27328
10864,27456
10865,27968
10866,28736
10867,29568
10868,30272
10869,30976
10870,31744
10871,32256
10872,32640
10873,32896
10874,33152
10875,33344
10876,33408
10877,33344
10878,33344
10879,33408
10880,33344
10881,33280
10882,33216
10883,33280
10884,33280
10885,33152
10886,33152
10887,33152
10888,33216
10889,33216
10890,33216
10891,33344
10892,33408
10893,33408
10894,33472
10895,33536
10896,33728
10897,33792
10898,33856
10899,33984
10900,34112
10901,34176
10902,34240
10903,34304
10904,34432
10905,34496
10906,34496
10907,34560
10908,34624
10909,34624
10910,34560
10911,34496
10912,34496
10913,34496
10914,34368
10915,34240
10916,34112
10917,33920
10918,33664
10919,33408
10920,33152
10921,32896
10922,32640
10923,32320
10924,32192
