,ECG
0,33152
1,33088
2,33024
3,33088
4,33216
5,33280
6,33216
7,33280
8,33408
9,33536
10,33408
11,33280
12,33152
13,33024
14,32704
15,32448
16,32256
17,32192
18,32256
19,32448
20,32640
21,32960
22,33216
23,33408
24,33536
25,33600
26,33600
27,33600
28,33600
29,33664
30,33728
31,33536
32,33344
33,33344
34,33344
35,33344
36,33280
37,33472
38,33600
39,33600
40,33600
41,33664
42,33728
43,33792
44,33856
45,34112
46,34304
47,34560
48,34688
49,34880
50,35072
51,35264
52,35392
53,35584
54,35648
55,35456
56,35136
57,34944
58,34752
59,34496
60,34112
61,33792
62,33472
63,33280
64,33088
65,32896
66,32896
67,33024
68,33024
69,33024
70,33088
71,33216
72,33216
73,33152
74,33088
75,32704
76,32384
77,32064
78,31936
79,31808
80,31808
81,31680
82,31680
83,32256
84,33600
85,35584
86,37952
87,40576
88,42688
89,43008
90,40896
91,37760
92,33024
93,30272
94,27968
95,27072
96,27008
97,27136
98,27392
99,27840
100,28416
101,29120
102,29952
103,30912
104,32064
105,33280
106,33984
107,34560
108,34944
109,35200
110,35456
111,35776
112,36096
113,36160
114,36160
115,36160
116,35904
117,35520
118,35136
119,34880
120,34496
121,33728
122,32960
123,32576
124,32640
125,32832
126,32960
127,33152
128,33408
129,33600
130,33472
131,33216
132,33088
133,33216
134,33408
135,33344
136,33536
137,34112
138,34368
139,34432
140,34304
141,34048
142,33792
143,33664
144,33408
145,33088
146,32832
147,32576
148,32384
149,32192
150,32000
151,31808
152,31616
153,31616
154,31744
155,31872
156,31872
157,31744
158,31616
159,31680
160,32064
161,32192
162,32256
163,32384
164,32448
165,32512
166,32768
167,33216
168,33664
169,34240
170,34816
171,35328
172,35776
173,36224
174,36608
175,36736
176,36800
177,36736
178,36672
179,36736
180,36736
181,36224
182,35584
183,35264
184,35072
185,34880
186,34752
187,34944
188,35136
189,35264
190,35456
191,35520
192,35392
193,35136
194,34944
195,34944
196,35008
197,35008
198,34944
199,34944
200,35072
201,35136
202,35200
203,35200
204,35328
205,35200
206,35008
207,35072
208,35200
209,35264
210,35200
211,34944
212,34816
213,34688
214,34368
215,34176
216,34304
217,34496
218,34560
219,34752
220,34880
221,35136
222,35328
223,35456
224,35392
225,35328
226,35392
227,35392
228,35200
229,34816
230,34112
231,33600
232,33344
233,33408
234,33600
235,33664
236,33792
237,33792
238,33728
239,33664
240,33792
241,33856
242,33600
243,33536
244,33536
245,33536
246,33728
247,33728
248,33728
249,33856
250,34304
251,34752
252,35840
253,37952
254,40832
255,44096
256,47104
257,49088
258,48640
259,46144
260,42240
261,38336
262,35328
263,33408
264,31936
265,31424
266,31552
267,31744
268,31680
269,31808
270,32320
271,32704
272,32960
273,33280
274,33856
275,34560
276,35072
277,35008
278,34944
279,35136
280,35200
281,34816
282,34624
283,34816
284,34944
285,34880
286,35072
287,35392
288,35520
289,35584
290,35328
291,35328
292,35264
293,35136
294,34944
295,34688
296,34752
297,34944
298,34880
299,34752
300,34688
301,34816
302,35008
303,35136
304,35264
305,35136
306,35072
307,35200
308,35264
309,35136
310,35072
311,35072
312,35072
313,35264
314,35520
315,35648
316,35776
317,35712
318,35584
319,35200
320,34816
321,34560
322,34176
323,33536
324,33088
325,32896
326,32640
327,32256
328,32064
329,32256
330,32512
331,32768
332,32704
333,32448
334,32576
335,32768
336,32960
337,33536
338,33792
339,33664
340,33664
341,33856
342,34240
343,34560
344,34432
345,34176
346,33792
347,33344
348,33344
349,33664
350,34112
351,34304
352,34240
353,34240
354,34112
355,33856
356,33792
357,33920
358,33984
359,34048
360,34048
361,33920
362,33728
363,33792
364,33728
365,33536
366,33792
367,34048
368,34112
369,34304
370,34624
371,34816
372,34752
373,34752
374,34752
375,34880
376,34816
377,34304
378,34176
379,34368
380,34304
381,34048
382,33792
383,33984
384,33984
385,33728
386,33536
387,33600
388,33600
389,33664
390,34112
391,34688
392,34560
393,34496
394,34368
395,34176
396,34176
397,34048
398,33728
399,33536
400,33536
401,33664
402,33408
403,33088
404,32704
405,32448
406,32448
407,32448
408,32384
409,32448
410,32704
411,33216
412,33344
413,33024
414,33024
415,32576
416,32000
417,31552
418,31424
419,32000
420,33280
421,35072
422,38272
423,40384
424,43264
425,45824
426,47040
427,46016
428,42880
429,38656
430,34752
431,31552
432,29312
433,27712
434,26944
435,26752
436,27136
437,27648
438,27840
439,28032
440,28800
441,29824
442,30592
443,31040
444,31296
445,31552
446,31936
447,32256
448,32512
449,32896
450,33472
451,33792
452,33664
453,33600
454,33664
455,33856
456,34048
457,34176
458,34240
459,34304
460,34624
461,34624
462,34112
463,33856
464,33536
465,33216
466,33152
467,33344
468,33600
469,33600
470,33728
471,34112
472,34368
473,34368
474,34304
475,34176
476,34368
477,34560
478,34560
479,34496
480,34624
481,34752
482,34880
483,34880
484,34624
485,34688
486,34880
487,34752
488,34752
489,34944
490,34624
491,34048
492,33408
493,32768
494,32384
495,32256
496,32064
497,31872
498,31936
499,32064
500,31552
501,31168
502,31296
503,31744
504,32256
505,32384
506,32064
507,32128
508,32448
509,32896
510,33408
511,33536
512,33728
513,33984
514,34432
515,33856
516,33216
517,33216
518,33152
519,32576
520,32192
521,32512
522,33152
523,33536
524,33408
525,33600
526,33728
527,33600
528,33344
529,33088
530,33152
531,33344
532,33536
533,33856
534,33536
535,33344
536,33216
537,33344
538,33152
539,33024
540,33088
541,32704
542,32512
543,32512
544,33024
545,33280
546,32832
547,32448
548,32512
549,33088
550,33088
551,32896
552,32896
553,32896
554,33024
555,33280
556,33600
557,33728
558,33728
559,33920
560,34048
561,33984
562,33536
563,33088
564,32960
565,33216
566,33536
567,33728
568,33536
569,33024
570,33152
571,33664
572,33728
573,33472
574,33216
575,33216
576,33088
577,32896
578,32896
579,33152
580,33792
581,33920
582,33472
583,32896
584,32448
585,32320
586,32448
587,32704
588,32448
589,31808
590,31360
591,31232
592,31616
593,32192
594,33728
595,36608
596,40064
597,43712
598,46592
599,48000
600,47936
601,45440
602,39040
603,36608
604,33216
605,31104
606,29760
607,28608
608,28352
609,29120
610,29760
611,30272
612,30784
613,30912
614,31168
615,32064
616,32704
617,32064
618,31680
619,31680
620,31872
621,32064
622,32192
623,32000
624,31936
625,31552
626,31168
627,31104
628,30976
629,31104
630,31744
631,31872
632,31872
633,32384
634,32640
635,32512
636,32448
637,32256
638,32128
639,32256
640,32704
641,32832
642,32448
643,31744
644,30976
645,31104
646,31680
647,31552
648,31744
649,32384
650,32896
651,33024
652,32960
653,33408
654,33408
655,33216
656,32896
657,32704
658,33152
659,33536
660,33536
661,33472
662,33216
663,33152
664,32768
665,32384
666,31936
667,32000
668,31808
669,31552
670,30976
671,30592
672,30400
673,30464
674,31232
675,32064
676,32064
677,31424
678,31168
679,31424
680,32128
681,32448
682,32704
683,32832
684,32512
685,32128
686,32000
687,32064
688,32384
689,32448
690,32192
691,32256
692,32576
693,32640
694,32960
695,33152
696,33216
697,32960
698,32512
699,32512
700,33280
701,33920
702,33984
703,33472
704,32832
705,32704
706,33152
707,33344
708,32512
709,31872
710,31552
711,31360
712,31552
713,32064
714,32192
715,32576
716,32704
717,33280
718,33536
719,34112
720,34688
721,34496
722,34368
723,34368
724,34304
725,34368
726,34048
727,33600
728,34048
729,34880
730,34880
731,34112
732,33664
733,34176
734,34176
735,33984
736,33856
737,33280
738,33152
739,33280
740,33472
741,33728
742,33472
743,33152
744,33216
745,32896
746,32640
747,32896
748,32576
749,32256
750,32384
751,33088
752,33792
753,33856
754,33600
755,33344
756,32832
757,32512
758,32768
759,33472
760,34560
761,36480
762,39232
763,42048
764,45056
765,47552
766,48064
767,46080
768,42624
769,38528
770,34880
771,32064
772,30080
773,28992
774,28352
775,28288
776,28928
777,29312
778,30464
779,31616
780,32640
781,33024
782,32768
783,32320
784,32384
785,32704
786,32960
787,32832
788,32832
789,33408
790,34304
791,34880
792,34816
793,34880
794,34240
795,33728
796,33088
797,32576
798,32448
799,32704
800,33728
801,34112
802,34176
803,33920
804,33984
805,34432
806,34496
807,34176
808,34240
809,34496
810,34304
811,33792
812,33536
813,33920
814,34432
815,34624
816,34560
817,34688
818,34880
819,34688
820,34240
821,33920
822,34496
823,35072
824,35456
825,35520
826,35520
827,35392
828,35008
829,34944
830,34624
831,34368
832,33408
833,32448
834,32320
835,32832
836,33152
837,32832
838,32384
839,32256
840,32512
841,32896
842,32832
843,32448
844,32256
845,32384
846,32640
847,32512
848,32384
849,32256
850,33024
851,33792
852,33664
853,32960
854,32512
855,32384
856,32448
857,33216
858,33856
859,34048
860,33856
861,33664
862,33280
863,33152
864,33152
865,32832
866,32192
867,32064
868,32128
869,32640
870,33408
871,32896
872,32192
873,32448
874,33024
875,34048
876,34368
877,33856
878,32896
879,32576
880,32768
881,33344
882,33536
883,32960
884,32832
885,32640
886,33024
887,33792
888,34496
889,34048
890,33472
891,33728
892,34432
893,34112
894,33984
895,34112
896,34304
897,34112
898,34048
899,34368
900,34368
901,34112
902,34176
903,34560
904,34816
905,34432
906,33920
907,32768
908,32128
909,32256
910,32704
911,32960
912,32640
913,32896
914,32832
915,32768
916,32640
917,32768
918,33152
919,33408
920,33408
921,33600
922,33728
923,33856
924,33280
925,33152
926,33280
927,33792
928,35264
929,37824
930,40896
931,43904
932,46720
933,47872
934,46400
935,42432
936,37952
937,34496
938,32448
939,31232
940,29632
941,28544
942,28672
943,29184
944,29504
945,29568
946,30400
947,31616
948,32320
949,32704
950,32704
951,32448
952,32256
953,32256
954,31872
955,31552
956,32192
957,32448
958,32576
959,33344
960,33792
961,33664
962,33536
963,33536
964,34240
965,35008
966,34240
967,34048
968,34688
969,34880
970,34688
971,34112
972,33792
973,33664
974,33920
975,34560
976,34816
977,34944
978,35200
979,35520
980,35648
981,35584
982,35264
983,34816
984,34688
985,34304
986,33792
987,33792
988,34112
989,34432
990,34432
991,33984
992,33920
993,34304
994,34816
995,34496
996,33920
997,33856
998,34432
999,34560
1000,34240
1001,34368
1002,34496
1003,34112
1004,32832
1005,31808
1006,30912
1007,30912
1008,30784
1009,31232
1010,32128
1011,32320
1012,32960
1013,33600
1014,33792
1015,33600
1016,33984
1017,34368
1018,34048
1019,33664
1020,33600
1021,33792
1022,33664
1023,33664
1024,33600
1025,33600
1026,33664
1027,33664
1028,34112
1029,34176
1030,33856
1031,33280
1032,33152
1033,32960
1034,33728
1035,33920
1036,33088
1037,32832
1038,32576
1039,32704
1040,32384
1041,31808
1042,31936
1043,31808
1044,32000
1045,32704
1046,32256
1047,31872
1048,31936
1049,32576
1050,32512
1051,32192
1052,32384
1053,32704
1054,32768
1055,32576
1056,32704
1057,32896
1058,32896
1059,33088
1060,33472
1061,34112
1062,35072
1063,35200
1064,34368
1065,33088
1066,33024
1067,33664
1068,33920
1069,33344
1070,32640
1071,32576
1072,32448
1073,32576
1074,32640
1075,32512
1076,32960
1077,33280
1078,33088
1079,32448
1080,32576
1081,33024
1082,32896
1083,32000
1084,31616
1085,32064
1086,32448
1087,32704
1088,32832
1089,33664
1090,34112
1091,33792
1092,34944
1093,36928
1094,39104
1095,41472
1096,44032
1097,46016
1098,45760
1099,43136
1100,40192
1101,36800
1102,33280
1103,30912
1104,29888
1105,29248
1106,28736
1107,28864
1108,29952
1109,30336
1110,30528
1111,30720
1112,31040
1113,31808
1114,32576
1115,32832
1116,33344
1117,33536
1118,33664
1119,33728
1120,33280
1121,33280
1122,33472
1123,33600
1124,33792
1125,33664
1126,34112
1127,33472
1128,32576
1129,32704
1130,33792
1131,34112
1132,33792
1133,33600
1134,34112
1135,34560
1136,34240
1137,34112
1138,33600
1139,33408
1140,33344
1141,33472
1142,33856
1143,34432
1144,34240
1145,34112
1146,34496
1147,35392
1148,35072
1149,34368
1150,34240
1151,34368
1152,34688
1153,34880
1154,34176
1155,33472
1156,33664
1157,34560
1158,35456
1159,35456
1160,36160
1161,36288
1162,35584
1163,35520
1164,35264
1165,34432
1166,34624
1167,35200
1168,34624
1169,34112
1170,33472
1171,32960
1172,33280
1173,33728
1174,33536
1175,33088
1176,33024
1177,33920
1178,34816
1179,33984
1180,33600
1181,33664
1182,33728
1183,33856
1184,33536
1185,33344
1186,33792
1187,33856
1188,33600
1189,34240
1190,34816
1191,34304
1192,33984
1193,34304
1194,34496
1195,34048
1196,33984
1197,33792
1198,33152
1199,32576
1200,32576
1201,32704
1202,33216
1203,34240
1204,33984
1205,33536
1206,33664
1207,34304
1208,34240
1209,33792
1210,34112
1211,34816
1212,34496
1213,33856
1214,32832
1215,32256
1216,32896
1217,33216
1218,33216
1219,32768
1220,32832
1221,33152
1222,33664
1223,33792
1224,33856
1225,33920
1226,34432
1227,34816
1228,35264
1229,35648
1230,34560
1231,33152
1232,32640
1233,32640
1234,32832
1235,32960
1236,32576
1237,32448
1238,33152
1239,33216
1240,33216
1241,33216
1242,33088
1243,33344
1244,33984
1245,34240
1246,33920
1247,33920
1248,33664
1249,33216
1250,32320
1251,32512
1252,33408
1253,34816
1254,36160
1255,38784
1256,42240
1257,44672
1258,46336
1259,47040
1260,46912
1261,42560
1262,38912
1263,35072
1264,32320
1265,30592
1266,28480
1267,27584
1268,27712
1269,28032
1270,29056
1271,29888
1272,30720
1273,31552
1274,32384
1275,33408
1276,33856
1277,32960
1278,33024
1279,33792
1280,33536
1281,33216
1282,32384
1283,32128
1284,32448
1285,32832
1286,33472
1287,33472
1288,33152
1289,33216
1290,33216
1291,33408
1292,33408
1293,33664
1294,34496
1295,35072
1296,34240
1297,33280
1298,33600
1299,34112
1300,34304
1301,33728
1302,33856
1303,34048
1304,34496
1305,34496
1306,35072
1307,34624
1308,34496
1309,34560
1310,34304
1311,34752
1312,35200
1313,35136
1314,34752
1315,34432
1316,34496
1317,34880
1318,34880
1319,35264
1320,34880
1321,34624
1322,34624
1323,34496
1324,34304
1325,34624
1326,34368
1327,33664
1328,33344
1329,33088
1330,32448
1331,32576
1332,33280
1333,32704
1334,32000
1335,31808
1336,32448
1337,32512
1338,32448
1339,32512
1340,32768
1341,33088
1342,33664
1343,34176
1344,34240
1345,34048
1346,33792
1347,33664
1348,33280
1349,33216
1350,33024
1351,32640
1352,32768
1353,33280
1354,33472
1355,33280
1356,32960
1357,32896
1358,33024
1359,32576
1360,32576
1361,32832
1362,32832
1363,32960
1364,32896
1365,33024
1366,32896
1367,33280
1368,33984
1369,33856
1370,33472
1371,33152
1372,32832
1373,33280
1374,33664
1375,33152
1376,32576
1377,32384
1378,33088
1379,33472
1380,33536
1381,33408
1382,33600
1383,34176
1384,34496
1385,34304
1386,34048
1387,34112
1388,34560
1389,34304
1390,33472
1391,33088
1392,33152
1393,33216
1394,32960
1395,32704
1396,32960
1397,33088
1398,33088
1399,33152
1400,33088
1401,33600
1402,33600
1403,33344
1404,33152
1405,33536
1406,33600
1407,32896
1408,32768
1409,33152
1410,32832
1411,32256
1412,32064
1413,32384
1414,32704
1415,33280
1416,35136
1417,37760
1418,40512
1419,43648
1420,46528
1421,47552
1422,46336
1423,43264
1424,39360
1425,35584
1426,32000
1427,29632
1428,28224
1429,27520
1430,27200
1431,27776
1432,28736
1433,29376
1434,30080
1435,30912
1436,31360
1437,31808
1438,32704
1439,33600
1440,33728
1441,33344
1442,33344
1443,33856
1444,33344
1445,32704
1446,32384
1447,32256
1448,32448
1449,32640
1450,33280
1451,33856
1452,33600
1453,33472
1454,33472
1455,33344
1456,33536
1457,33408
1458,33280
1459,33280
1460,33344
1461,33792
1462,33984
1463,33600
1464,33344
1465,33344
1466,33280
1467,33536
1468,33920
1469,34176
1470,34368
1471,34752
1472,35456
1473,35264
1474,33920
1475,33280
1476,33152
1477,33280
1478,33664
1479,34112
1480,34368
1481,34368
1482,34304
1483,34560
1484,35008
1485,34624
1486,34048
1487,33792
1488,33728
1489,33536
1490,33344
1491,33280
1492,33088
1493,32832
1494,32640
1495,32640
1496,32896
1497,33216
1498,33600
1499,33920
1500,34112
1501,34368
1502,34432
1503,33984
1504,33792
1505,33664
1506,33408
1507,33600
1508,33920
1509,34176
1510,34176
1511,34176
1512,34240
1513,34240
1514,33984
1515,34048
1516,34560
1517,34176
1518,33536
1519,33536
1520,34048
1521,34496
1522,34688
1523,35072
1524,35008
1525,33792
1526,33088
1527,32960
1528,32384
1529,32384
1530,32640
1531,32448
1532,32128
1533,32128
1534,32704
1535,33088
1536,33344
1537,33856
1538,33792
1539,33216
1540,32960
1541,33280
1542,33536
1543,33856
1544,33728
1545,33664
1546,34112
1547,34304
1548,34432
1549,34368
1550,33920
1551,33792
1552,33856
1553,33344
1554,32960
1555,33152
1556,33152
1557,32768
1558,32832
1559,33408
1560,33344
1561,33152
1562,32896
1563,32704
1564,32832
1565,33088
1566,33472
1567,33600
1568,33536
1569,33536
1570,33920
1571,34304
1572,33984
1573,33792
1574,34432
1575,35776
1576,37824
1577,40576
1578,44032
1579,46976
1580,48384
1581,48384
1582,46464
1583,43008
1584,38656
1585,34752
1586,31872
1587,30080
1588,28864
1589,27968
1590,27648
1591,27776
1592,28416
1593,29184
1594,29888
1595,30656
1596,31808
1597,32960
1598,32576
1599,32320
1600,32448
1601,32320
1602,31936
1603,32000
1604,33152
1605,33600
1606,33088
1607,32960
1608,33152
1609,33216
1610,33216
1611,33280
1612,33152
1613,33152
1614,33536
1615,33536
1616,33600
1617,33600
1618,33600
1619,33664
1620,33920
1621,34112
1622,34432
1623,34688
1624,34880
1625,35136
1626,35456
1627,35712
1628,35904
1629,36224
1630,36800
1631,37184
1632,37376
1633,37504
1634,37440
1635,37376
1636,37376
1637,37184
1638,37056
1639,36864
1640,36672
1641,36416
1642,36288
1643,36480
1644,36352
1645,36032
1646,35648
1647,35328
1648,35008
1649,34752
1650,34560
1651,34368
1652,34304
1653,34368
1654,34752
1655,35072
1656,35200
1657,35328
1658,35520
1659,35840
1660,36352
1661,36608
1662,36736
1663,36992
1664,37184
1665,37376
1666,37440
1667,37184
1668,36864
1669,36544
1670,36224
1671,36096
1672,35776
1673,35328
1674,34880
1675,34496
1676,33984
1677,33408
1678,32896
1679,32640
1680,32512
1681,32512
1682,32320
1683,31872
1684,31296
1685,30848
1686,30592
1687,30208
1688,30272
1689,30720
1690,31424
1691,32064
1692,32896
1693,33664
1694,33792
1695,33536
1696,33280
1697,33024
1698,32768
1699,32640
1700,32640
1701,32768
1702,32832
1703,32896
1704,33088
1705,33472
1706,33728
1707,33920
1708,33920
1709,33792
1710,33536
1711,33344
1712,33408
1713,33856
1714,34560
1715,35264
1716,35648
1717,35968
1718,36288
1719,36544
1720,36608
1721,36416
1722,35968
1723,35520
1724,34944
1725,34368
1726,33920
1727,33664
1728,33344
1729,33024
1730,32704
1731,32320
1732,31808
1733,31360
1734,31808
1735,33600
1736,36416
1737,39872
1738,43520
1739,46720
1740,48320
1741,47552
1742,44288
1743,39488
1744,34752
1745,31104
1746,28800
1747,27584
1748,27200
1749,27328
1750,27968
1751,28800
1752,29696
1753,30528
1754,31360
1755,32192
1756,32704
1757,33088
1758,33280
1759,33472
1760,33536
1761,33600
1762,33600
1763,33664
1764,33728
1765,33664
1766,33472
1767,33280
1768,33280
1769,33280
1770,33408
1771,33728
1772,34176
1773,34560
1774,34752
1775,35008
1776,35264
1777,35520
1778,35776
1779,36096
1780,36416
1781,36672
1782,36864
1783,37056
1784,37376
1785,37632
1786,37760
1787,37824
1788,37760
1789,37696
1790,37440
1791,37184
1792,37056
1793,37056
1794,36992
1795,36992
1796,37120
1797,37312
1798,37568
1799,37888
1800,38208
1801,38592
1802,38784
1803,38656
1804,38400
1805,38016
1806,37632
1807,37120
1808,36736
1809,36480
1810,36288
1811,36160
1812,35968
1813,35776
1814,35584
1815,35456
1816,35264
1817,35264
1818,35392
1819,35520
1820,35520
1821,35456
1822,35328
1823,35136
1824,34880
1825,34560
1826,34432
1827,34176
1828,33920
1829,33664
1830,33472
1831,33280
1832,33088
1833,32832
1834,32704
1835,32704
1836,32640
1837,32512
1838,32512
1839,32512
1840,32384
1841,32192
1842,32000
1843,31936
1844,31936
1845,31936
1846,31936
1847,31872
1848,31680
1849,31552
1850,31360
1851,31232
1852,31168
1853,31040
1854,31040
1855,31104
1856,31168
1857,31168
1858,31104
1859,31104
1860,31040
1861,31104
1862,31168
1863,31360
1864,31616
1865,31936
1866,32128
1867,32320
1868,32704
1869,33024
1870,33408
1871,33728
1872,34112
1873,34496
1874,34816
1875,35072
1876,35264
1877,35456
1878,35584
1879,35712
1880,35968
1881,36288
1882,36544
1883,36736
1884,36800
1885,36864
1886,36608
1887,36288
1888,35968
1889,35776
1890,35840
1891,36224
1892,37376
1893,39424
1894,42112
1895,44928
1896,47360
1897,48192
1898,46528
1899,42752
1900,38144
1901,33984
1902,30784
1903,28800
1904,27712
1905,27456
1906,27712
1907,28288
1908,29056
1909,29952
1910,30848
1911,31616
1912,32320
1913,32896
1914,33408
1915,33856
1916,34240
1917,34560
1918,34816
1919,35008
1920,34880
1921,34560
1922,34304
1923,34240
1924,34432
1925,34752
1926,35136
1927,35392
1928,35456
1929,35456
1930,35456
1931,35392
1932,35264
1933,35136
1934,34816
1935,34368
1936,33920
1937,33792
1938,34176
1939,34752
1940,35328
1941,35712
1942,35968
1943,36224
1944,36352
1945,36352
1946,36352
1947,36352
1948,36352
1949,36288
1950,36224
1951,36288
1952,36288
1953,36032
1954,35776
1955,35904
1956,36288
1957,36608
1958,36864
1959,36928
1960,36928
1961,36736
1962,36480
1963,36224
1964,35968
1965,35712
1966,35328
1967,34880
1968,34624
1969,34240
1970,33984
1971,33856
1972,33856
1973,33856
1974,33856
1975,33920
1976,34048
1977,34240
1978,34304
1979,34368
1980,34496
1981,34560
1982,34560
1983,34560
1984,34624
1985,34688
1986,34688
1987,34688
1988,34688
1989,34752
1990,34752
1991,34688
1992,34560
1993,34560
1994,34496
1995,34368
1996,34240
1997,34240
1998,34304
1999,34240
2000,34240
2001,34368
2002,34432
2003,34432
2004,34368
2005,34368
2006,34432
2007,34368
2008,34368
2009,34368
2010,34432
2011,34496
2012,34496
2013,34496
2014,34560
2015,34688
2016,34688
2017,34816
2018,34944
2019,34944
2020,34880
2021,34944
2022,35008
2023,35008
2024,34944
2025,34752
2026,34624
2027,34496
2028,34368
2029,34176
2030,34112
2031,34048
2032,33920
2033,33728
2034,33600
2035,33536
2036,33472
2037,33408
2038,33408
2039,33472
2040,33536
2041,33536
2042,33536
2043,33536
2044,33664
2045,33664
2046,33600
2047,33536
2048,33408
2049,33152
2050,33152
2051,33664
2052,34944
2053,37120
2054,40064
2055,43328
2056,46400
2057,48320
2058,48000
2059,45248
2060,41088
2061,36864
2062,33344
2063,30912
2064,29632
2065,29056
2066,28992
2067,29312
2068,29824
2069,30528
2070,31168
2071,31808
2072,32640
2073,33024
2074,33472
2075,33728
2076,33984
2077,34240
2078,34368
2079,34368
2080,34432
2081,34560
2082,34560
2083,34560
2084,34624
2085,34688
2086,34752
2087,34752
2088,34752
2089,34816
2090,34880
2091,34944
2092,35008
2093,35136
2094,35200
2095,35200
2096,35264
2097,35392
2098,35456
2099,35520
2100,35584
2101,35712
2102,35840
2103,35904
2104,35968
2105,36032
2106,36160
2107,36224
2108,36160
2109,36224
2110,36288
2111,36352
2112,36288
2113,36352
2114,36480
2115,36544
2116,36544
2117,36608
2118,36672
2119,36672
2120,36608
2121,36416
2122,36288
2123,36096
2124,35840
2125,35456
2126,35136
2127,34880
2128,34560
2129,34240
2130,33984
2131,33856
2132,33792
2133,33664
2134,33664
2135,33792
2136,33856
2137,33856
2138,33856
2139,33984
2140,34112
2141,34112
2142,34112
2143,34176
2144,34240
2145,34240
2146,34240
2147,34240
2148,34240
2149,34176
2150,34112
2151,34048
2152,34112
2153,34048
2154,33984
2155,33920
2156,33920
2157,33920
2158,33920
2159,33920
2160,33984
2161,34048
2162,33984
2163,33920
2164,33920
2165,33920
2166,33856
2167,33856
2168,33792
2169,33856
2170,33792
2171,33728
2172,33728
2173,33792
2174,33792
2175,33792
2176,33792
2177,33792
2178,33792
2179,33792
2180,33792
2181,33920
2182,33984
2183,34112
2184,34176
2185,34368
2186,34432
2187,34432
2188,34496
2189,34624
2190,34688
2191,34624
2192,34560
2193,34496
2194,34432
2195,34304
2196,34112
2197,34048
2198,33984
2199,33856
2200,33728
2201,33600
2202,33536
2203,33536
2204,33536
2205,33600
2206,33728
2207,33856
2208,33856
2209,33920
2210,34048
2211,34112
2212,34176
2213,34048
2214,33920
2215,33728
2216,33664
2217,33984
2218,35072
2219,37184
2220,39936
2221,43136
2222,46720
2223,48576
2224,48832
2225,46528
2226,42560
2227,38272
2228,34560
2229,31872
2230,30272
2231,29504
2232,29376
2233,29696
2234,30208
2235,30912
2236,31616
2237,32256
2238,32832
2239,33408
2240,33920
2241,34240
2242,34496
2243,34624
2244,34752
2245,34816
2246,34816
2247,34816
2248,34816
2249,34816
2250,34816
2251,34816
2252,34816
2253,34816
2254,34752
2255,34752
2256,34752
2257,34752
2258,34752
2259,34752
2260,34816
2261,34880
2262,34816
2263,34816
2264,34880
2265,34944
2266,34944
2267,34944
2268,35008
2269,35072
2270,35136
2271,35136
2272,35200
2273,35328
2274,35456
2275,35520
2276,35584
2277,35648
2278,35712
2279,35712
2280,35776
2281,35904
2282,35968
2283,35968
2284,35904
2285,35968
2286,35968
2287,35904
2288,35712
2289,35584
2290,35328
2291,35072
2292,34688
2293,34432
2294,34112
2295,33792
2296,33472
2297,33280
2298,33280
2299,33280
2300,33280
2301,33344
2302,33408
2303,33472
2304,33536
2305,33536
2306,33728
2307,33792
2308,33792
2309,33856
2310,33920
2311,33984
2312,33984
2313,33984
2314,33984
2315,34048
2316,33984
2317,33920
2318,33856
2319,33856
2320,33856
2321,33792
2322,33728
2323,33728
2324,33728
2325,33728
2326,33664
2327,33664
2328,33664
2329,33600
2330,33600
2331,33600
2332,33664
2333,33664
2334,33664
2335,33728
2336,33792
2337,33728
2338,33728
2339,33792
2340,33856
2341,33856
2342,33792
2343,33792
2344,33984
2345,34048
2346,34112
2347,34240
2348,34432
2349,34560
2350,34624
2351,34624
2352,34688
2353,34816
2354,34816
2355,34816
2356,34880
2357,34816
2358,34688
2359,34560
2360,34432
2361,34368
2362,34240
2363,34112
2364,34048
2365,33984
2366,33792
2367,33664
2368,33664
2369,33728
2370,33792
2371,33792
2372,33856
2373,33984
2374,34048
2375,34048
2376,34048
2377,34048
2378,33984
2379,33728
2380,33536
2381,33536
2382,33920
2383,34944
2384,36928
2385,39872
2386,42944
2387,46976
2388,48128
2389,48128
2390,45888
2391,41984
2392,37824
2393,34240
2394,31744
2395,30208
2396,29440
2397,29312
2398,29632
2399,30144
2400,30784
2401,31360
2402,32192
2403,32512
2404,33024
2405,33408
2406,33792
2407,34048
2408,34176
2409,34240
2410,34304
2411,34368
2412,34368
2413,34304
2414,34304
2415,34368
2416,34368
2417,34368
2418,34368
2419,34432
2420,34432
2421,34432
2422,34432
2423,34496
2424,34560
2425,34624
2426,34624
2427,34752
2428,34816
2429,34816
2430,34816
2431,34944
2432,35072
2433,35072
2434,35072
2435,35200
2436,35264
2437,35328
2438,35328
2439,35392
2440,35456
2441,35456
2442,35456
2443,35520
2444,35584
2445,35648
2446,35648
2447,35712
2448,35776
2449,35840
2450,35840
2451,35840
2452,35776
2453,35648
2454,35456
2455,35136
2456,34880
2457,34560
2458,34240
2459,33920
2460,33728
2461,33536
2462,33408
2463,33280
2464,33216
2465,33280
2466,33344
2467,33408
2468,33472
2469,33600
2470,33664
2471,33728
2472,33792
2473,33856
2474,33984
2475,33984
2476,33984
2477,34048
2478,34112
2479,34112
2480,34048
2481,34048
2482,34112
2483,34048
2484,33984
2485,33920
2486,33920
2487,33920
2488,33856
2489,33856
2490,33920
2491,33920
2492,33920
2493,33856
2494,33920
2495,33920
2496,33920
2497,33856
2498,33920
2499,33984
2500,33920
2501,33856
2502,33856
2503,33920
2504,33920
2505,33920
2506,33984
2507,34176
2508,34176
2509,34176
2510,34176
2511,34240
2512,34368
2513,34432
2514,34496
2515,34624
2516,34688
2517,34752
2518,34816
2519,34880
2520,34880
2521,34752
2522,34560
2523,34496
2524,34432
2525,34240
2526,34112
2527,34048
2528,33984
2529,33792
2530,33600
2531,33536
2532,33536
2533,33536
2534,33600
2535,33664
2536,33792
2537,33920
2538,33984
2539,33984
2540,34048
2541,33984
2542,33856
2543,33664
2544,33536
2545,33728
2546,34240
2547,35648
2548,37888
2549,40768
2550,43904
2551,46656
2552,48000
2553,47168
2554,44160
2555,40000
2556,36096
2557,33024
2558,30912
2559,29696
2560,29248
2561,29312
2562,29632
2563,30144
2564,30784
2565,31424
2566,32064
2567,32576
2568,32960
2569,33344
2570,33664
2571,33856
2572,33984
2573,34176
2574,34304
2575,34304
2576,34304
2577,34368
2578,34368
2579,34368
2580,34368
2581,34368
2582,34432
2583,34432
2584,34368
2585,34368
2586,34432
2587,34496
2588,34496
2589,34560
2590,34624
2591,34688
2592,34752
2593,34752
2594,34880
2595,34944
2596,35008
2597,35072
2598,35200
2599,35328
2600,35328
2601,35392
2602,35392
2603,35328
2604,35264
2605,35136
2606,35200
2607,35328
2608,35392
2609,35392
2610,35392
2611,35456
2612,35520
2613,35520
2614,35520
2615,35584
2616,35584
2617,35392
2618,35136
2619,34944
2620,34624
2621,34240
2622,33920
2623,33664
2624,33472
2625,33280
2626,33152
2627,33088
2628,33088
2629,33152
2630,33152
2631,33344
2632,33600
2633,33728
2634,33792
2635,33856
2636,33984
2637,34048
2638,34048
2639,33984
2640,34048
2641,34176
2642,34176
2643,34176
2644,34112
2645,34112
2646,33920
2647,33728
2648,33664
2649,33664
2650,33600
2651,33536
2652,33600
2653,33664
2654,33792
2655,33728
2656,33792
2657,33920
2658,33920
2659,33792
2660,33792
2661,33792
2662,33792
2663,33792
2664,33856
2665,33920
2666,33984
2667,33984
2668,33984
2669,34048
2670,34240
2671,34304
2672,34496
2673,34560
2674,34688
2675,34752
2676,34816
2677,34880
2678,34944
2679,34880
2680,34688
2681,34432
2682,34304
2683,34176
2684,33984
2685,33920
2686,34048
2687,34048
2688,33920
2689,33856
2690,33792
2691,33600
2692,33472
2693,33600
2694,33728
2695,33792
2696,33792
2697,33728
2698,33664
2699,33600
2700,33344
2701,33152
2702,33472
2703,33600
2704,33728
2705,34112
2706,35392
2707,37632
2708,40512
2709,43648
2710,46336
2711,47488
2712,46464
2713,43328
2714,39296
2715,35456
2716,32512
2717,30528
2718,29440
2719,29056
2720,29248
2721,29760
2722,30336
2723,31040
2724,31680
2725,32192
2726,32640
2727,33152
2728,33600
2729,33792
2730,33920
2731,34048
2732,34240
2733,34368
2734,34368
2735,34368
2736,34368
2737,34304
2738,34240
2739,34240
2740,34240
2741,34368
2742,34496
2743,34496
2744,34432
2745,34304
2746,34176
2747,34048
2748,33984
2749,33984
2750,33920
2751,34240
2752,34688
2753,34880
2754,34880
2755,34752
2756,34752
2757,34944
2758,35072
2759,35200
2760,35200
2761,35200
2762,35136
2763,35072
2764,34880
2765,34752
2766,34752
2767,34560
2768,34496
2769,34688
2770,35008
2771,35520
2772,36160
2773,36480
2774,36352
2775,36032
2776,35648
2777,35200
2778,34944
2779,34304
2780,33536
2781,33088
2782,32960
2783,32896
2784,32832
2785,32768
2786,32640
2787,32704
2788,32832
2789,33024
2790,33152
2791,33472
2792,33856
2793,33920
2794,33920
2795,33920
2796,33856
2797,33600
2798,33600
2799,33856
2800,33920
2801,33728
2802,33536
2803,33664
2804,33856
2805,33856
2806,33728
2807,33792
2808,33856
2809,33664
2810,33344
2811,33344
2812,33728
2813,33856
2814,33792
2815,33600
2816,33408
2817,33088
2818,32896
2819,32576
2820,32640
2821,33344
2822,33600
2823,33472
2824,33920
2825,34304
2826,34432
2827,34432
2828,34176
2829,34048
2830,34112
2831,34048
2832,33856
2833,33792
2834,33664
2835,33664
2836,33728
2837,33664
2838,33536
2839,33728
2840,34048
2841,34240
2842,34240
2843,33984
2844,33856
2845,34048
2846,34112
2847,34176
2848,34368
2849,34496
2850,34496
2851,34432
2852,34176
2853,33664
2854,33344
2855,33408
2856,33984
2857,35200
2858,37184
2859,39744
2860,42880
2861,46016
2862,47808
2863,47680
2864,45440
2865,41728
2866,37760
2867,34304
2868,31744
2869,30208
2870,29440
2871,29184
2872,29376
2873,29760
2874,30272
2875,30720
2876,31168
2877,31744
2878,32256
2879,32704
2880,33152
2881,33472
2882,33728
2883,33856
2884,33856
2885,33920
2886,34048
2887,34112
2888,34112
2889,34176
2890,34240
2891,34432
2892,34496
2893,34624
2894,34624
2895,34816
2896,34944
2897,35008
2898,35072
2899,35200
2900,35200
2901,35200
2902,35136
2903,35200
2904,35264
2905,35328
2906,35392
2907,35456
2908,35520
2909,35520
2910,35392
2911,35264
2912,35264
2913,35392
2914,35520
2915,35584
2916,35584
2917,35520
2918,35456
2919,35520
2920,35584
2921,35648
2922,35648
2923,35648
2924,35712
2925,35584
2926,35392
2927,35136
2928,34944
2929,34624
2930,34240
2931,33856
2932,33536
2933,33344
2934,33152
2935,33088
2936,33024
2937,33088
2938,33088
2939,33152
2940,33216
2941,33344
2942,33472
2943,33536
2944,33664
2945,33792
2946,33856
2947,33984
2948,34048
2949,34112
2950,34304
2951,34432
2952,34496
2953,34496
2954,34368
2955,34176
2956,33856
2957,33664
2958,33536
2959,33280
2960,33216
2961,33280
2962,33344
2963,33344
2964,33408
2965,33536
2966,33728
2967,33920
2968,34112
2969,34432
2970,34752
2971,34880
2972,34880
2973,34880
2974,34944
2975,34944
2976,34688
2977,34432
2978,34368
2979,34368
2980,34496
2981,34624
2982,34816
2983,34880
2984,34752
2985,34496
2986,34176
2987,33856
2988,33536
2989,33216
2990,33024
2991,32960
2992,32832
2993,32768
2994,32768
2995,32896
2996,33024
2997,33088
2998,33088
2999,33216
3000,33344
3001,33792
3002,34816
3003,36672
3004,39360
3005,42496
3006,45568
3007,47808
3008,48064
3009,45952
3010,41920
3011,37504
3012,33856
3013,31040
3014,29184
3015,28160
3016,27840
3017,28032
3018,28480
3019,29120
3020,29888
3021,30592
3022,31168
3023,31744
3024,32256
3025,32704
3026,33088
3027,33280
3028,33472
3029,33600
3030,33728
3031,33792
3032,33792
3033,33792
3034,33856
3035,33792
3036,33856
3037,33920
3038,33984
3039,34048
3040,34048
3041,34112
3042,34176
3043,34176
3044,34304
3045,34432
3046,34560
3047,34624
3048,34624
3049,34688
3050,34816
3051,34880
3052,35008
3053,35136
3054,35200
3055,35264
3056,35264
3057,35328
3058,35456
3059,35456
3060,35456
3061,35456
3062,35520
3063,35520
3064,35520
3065,35520
3066,35520
3067,35456
3068,35328
3069,35264
3070,35264
3071,35072
3072,34752
3073,34560
3074,34432
3075,34304
3076,34112
3077,33664
3078,33472
3079,33280
3080,33152
3081,33152
3082,33216
3083,33344
3084,33408
3085,33472
3086,33600
3087,33664
3088,33728
3089,33856
3090,33984
3091,34048
3092,33984
3093,33984
3094,33984
3095,33984
3096,33984
3097,33856
3098,33856
3099,33856
3100,33792
3101,33792
3102,33728
3103,33728
3104,33664
3105,33728
3106,33728
3107,33728
3108,33920
3109,33920
3110,33984
3111,34176
3112,34240
3113,34304
3114,34368
3115,34496
3116,34496
3117,34368
3118,34176
3119,33984
3120,33856
3121,33792
3122,33472
3123,33408
3124,33280
3125,33088
3126,32960
3127,32896
3128,32832
3129,32832
3130,32704
3131,32704
3132,32832
3133,32896
3134,32960
3135,33088
3136,33024
3137,33344
3138,33344
3139,33280
3140,33216
3141,33216
3142,33408
3143,34112
3144,35712
3145,38080
3146,41024
3147,44096
3148,46656
3149,47744
3150,46464
3151,43072
3152,38848
3153,34944
3154,31936
3155,29952
3156,28928
3157,28608
3158,28800
3159,29248
3160,29888
3161,30720
3162,31424
3163,32000
3164,32448
3165,32896
3166,33216
3167,33472
3168,33728
3169,33856
3170,33792
3171,33664
3172,33536
3173,33600
3174,33664
3175,33792
3176,33856
3177,33984
3178,34048
3179,33984
3180,33920
3181,33920
3182,34048
3183,34176
3184,34112
3185,34176
3186,34176
3187,34240
3188,34304
3189,34432
3190,34560
3191,34624
3192,34688
3193,34816
3194,34944
3195,35072
3196,35136
3197,35200
3198,35264
3199,35392
3200,35392
3201,35392
3202,35392
3203,35392
3204,35392
3205,35328
3206,35392
3207,35456
3208,35392
3209,35264
3210,35200
3211,35136
3212,35008
3213,34752
3214,34496
3215,34240
3216,33984
3217,33664
3218,33344
3219,33088
3220,32960
3221,32768
3222,32768
3223,32832
3224,32960
3225,32960
3226,33024
3227,33088
3228,33280
3229,33408
3230,33472
3231,33536
3232,33600
3233,33664
3234,33600
3235,33600
3236,33664
3237,33728
3238,33728
3239,33664
3240,33728
3241,33792
3242,33728
3243,33728
3244,33728
3245,33728
3246,33728
3247,33728
3248,33792
3249,33920
3250,33984
3251,34048
3252,34048
3253,34176
3254,34240
3255,34304
3256,34368
3257,34368
3258,34368
3259,34176
3260,34048
3261,33920
3262,33856
3263,33728
3264,33600
3265,33600
3266,33600
3267,33536
3268,33344
3269,33280
3270,33216
3271,33216
3272,33216
3273,33280
3274,33344
3275,33408
3276,33408
3277,33472
3278,33536
3279,33472
3280,33216
3281,32960
3282,32960
3283,33280
3284,34112
3285,35840
3286,38336
3287,41408
3288,44416
3289,46784
3290,47360
3291,45696
3292,42112
3293,37952
3294,34240
3295,31552
3296,29824
3297,28928
3298,28736
3299,29056
3300,29568
3301,30080
3302,30720
3303,31424
3304,32000
3305,32448
3306,32832
3307,33152
3308,33472
3309,33600
3310,33728
3311,33792
3312,33920
3313,33920
3314,33856
3315,33856
3316,33920
3317,33856
3318,33856
3319,33920
3320,34048
3321,34048
3322,34048
3323,34048
3324,34176
3325,34240
3326,34240
3327,34304
3328,34432
3329,34496
3330,34496
3331,34496
3332,34624
3333,34688
3334,34752
3335,34752
3336,34880
3337,34944
3338,34944
3339,35008
3340,35072
3341,35072
3342,35072
3343,35072
3344,35072
3345,35136
3346,35136
3347,35072
3348,35072
3349,35136
3350,35136
3351,35008
3352,34880
3353,34688
3354,34496
3355,34176
3356,33920
3357,33728
3358,33536
3359,33280
3360,33024
3361,32896
3362,32832
3363,32768
3364,32704
3365,32768
3366,32896
3367,32960
3368,33024
3369,33152
3370,33344
3371,33472
3372,33472
3373,33472
3374,33600
3375,33664
3376,33664
3377,33664
3378,33792
3379,33792
3380,33792
3381,33792
3382,33792
3383,33856
3384,33792
3385,33728
3386,33728
3387,33792
3388,33856
3389,33920
3390,33984
3391,34112
3392,34176
3393,34176
3394,34176
3395,34304
3396,34368
3397,34304
3398,34304
3399,34240
3400,34176
3401,33984
3402,33856
3403,33792
3404,33728
3405,33600
3406,33536
3407,33472
3408,33408
3409,33280
3410,33152
3411,33088
3412,33152
3413,33152
3414,33216
3415,33280
3416,33408
3417,33472
3418,33536
3419,33536
3420,33536
3421,33408
3422,33088
3423,32960
3424,33152
3425,34048
3426,35840
3427,38528
3428,41792
3429,45184
3430,47744
3431,48512
3432,46784
3433,43008
3434,38464
3435,34240
3436,31296
3437,29376
3438,28416
3439,28160
3440,28416
3441,28928
3442,29568
3443,30208
3444,30912
3445,31552
3446,32192
3447,32576
3448,32896
3449,33216
3450,33472
3451,33536
3452,33536
3453,33664
3454,33664
3455,33664
3456,33664
3457,33664
3458,33664
3459,33664
3460,33600
3461,33664
3462,33728
3463,33792
3464,33792
3465,33856
3466,33984
3467,34048
3468,34048
3469,34112
3470,34240
3471,34304
3472,34432
3473,34496
3474,34624
3475,34688
3476,34752
3477,34816
3478,34944
3479,35008
3480,35008
3481,35072
3482,35136
3483,35200
3484,35200
3485,35136
3486,35200
3487,35264
3488,35264
3489,35264
3490,35200
3491,35264
3492,35136
3493,34944
3494,34752
3495,34560
3496,34304
3497,34048
3498,33728
3499,33536
3500,33344
3501,33152
3502,32960
3503,32896
3504,32896
3505,32832
3506,32832
3507,32896
3508,33024
3509,33152
3510,33216
3511,33344
3512,33472
3513,33600
3514,33600
3515,33664
3516,33728
3517,33792
3518,33728
3519,33728
3520,33792
3521,33856
3522,33792
3523,33856
3524,33920
3525,33984
3526,33984
3527,33920
3528,33984
3529,34048
3530,34048
3531,34048
3532,34112
3533,34240
3534,34368
3535,34368
3536,34432
3537,34496
3538,34560
3539,34560
3540,34560
3541,34560
3542,34560
3543,34368
3544,34176
3545,34048
3546,33920
3547,33792
3548,33728
3549,33728
3550,33792
3551,33664
3552,33472
3553,33408
3554,33408
3555,33408
3556,33344
3557,33408
3558,33536
3559,33536
3560,33536
3561,33600
3562,33664
3563,33536
3564,33344
3565,33088
3566,33088
3567,33408
3568,34432
3569,36480
3570,39552
3571,42816
3572,46400
3573,48640
3574,49024
3575,46784
3576,42560
3577,37824
3578,33728
3579,30784
3580,28992
3581,28096
3582,27904
3583,28288
3584,28864
3585,29504
3586,30208
3587,30976
3588,31616
3589,32064
3590,32512
3591,32960
3592,33216
3593,33408
3594,33472
3595,33600
3596,33664
3597,33664
3598,33600
3599,33664
3600,33728
3601,33664
3602,33664
3603,33664
3604,33728
3605,33728
3606,33792
3607,33856
3608,33920
3609,33984
3610,33984
3611,34048
3612,34176
3613,34240
3614,34176
3615,34240
3616,34368
3617,34496
3618,34560
3619,34624
3620,34752
3621,34880
3622,34944
3623,34944
3624,35072
3625,35136
3626,35136
3627,35200
3628,35328
3629,35456
3630,35456
3631,35392
3632,35392
3633,35392
3634,35328
3635,35200
3636,35008
3637,34816
3638,34560
3639,34304
3640,33984
3641,33664
3642,33408
3643,33152
3644,32960
3645,32896
3646,32832
3647,32768
3648,32832
3649,32896
3650,33024
3651,33088
3652,33152
3653,33280
3654,33408
3655,33472
3656,33536
3657,33600
3658,33664
3659,33664
3660,33664
3661,33664
3662,33792
3663,33856
3664,33856
3665,33856
3666,33856
3667,33856
3668,33856
3669,33792
3670,33792
3671,33792
3672,33792
3673,33728
3674,33728
3675,33792
3676,33792
3677,33792
3678,33856
3679,33984
3680,34048
3681,34112
3682,34304
3683,34496
3684,34496
3685,34432
3686,34432
3687,34496
3688,34560
3689,34496
3690,34432
3691,34432
3692,34368
3693,34176
3694,33984
3695,33856
3696,33792
3697,33664
3698,33536
3699,33536
3700,33472
3701,33344
3702,33216
3703,33152
3704,33280
3705,33280
3706,33344
3707,33408
3708,33536
3709,33536
3710,33600
3711,33536
3712,33472
3713,33280
3714,32960
3715,32960
3716,33472
3717,34816
3718,37120
3719,40192
3720,43776
3721,47104
3722,49152
3723,48832
3724,46080
3725,41728
3726,37120
3727,33216
3728,30528
3729,28992
3730,28288
3731,28160
3732,28480
3733,29056
3734,29824
3735,30464
3736,31168
3737,31872
3738,32448
3739,32832
3740,33152
3741,33472
3742,33728
3743,33792
3744,33792
3745,33856
3746,33856
3747,33856
3748,33792
3749,33856
3750,33920
3751,33920
3752,33856
3753,33856
3754,33920
3755,33984
3756,34048
3757,34112
3758,34176
3759,34304
3760,34304
3761,34368
3762,34496
3763,34560
3764,34624
3765,34688
3766,34816
3767,34944
3768,35008
3769,35072
3770,35200
3771,35392
3772,35456
3773,35520
3774,35584
3775,35584
3776,35584
3777,35520
3778,35584
3779,35648
3780,35712
3781,35712
3782,35712
3783,35648
3784,35584
3785,35328
3786,35136
3787,34880
3788,34688
3789,34304
3790,34048
3791,33792
3792,33600
3793,33344
3794,33152
3795,33024
3796,33024
3797,33024
3798,32960
3799,32960
3800,33088
3801,33152
3802,33216
3803,33280
3804,33408
3805,33472
3806,33472
3807,33536
3808,33600
3809,33728
3810,33728
3811,33728
3812,33728
3813,33792
3814,33792
3815,33728
3816,33792
3817,33856
3818,33792
3819,33728
3820,33728
3821,33792
3822,33728
3823,33728
3824,33792
3825,33920
3826,33856
3827,33792
3828,33792
3829,33792
3830,33792
3831,33728
3832,33728
3833,33792
3834,33792
3835,33728
3836,33728
3837,33728
3838,33728
3839,33664
3840,33664
3841,33728
3842,33728
3843,33792
3844,33856
3845,33984
3846,34176
3847,34240
3848,34176
3849,34176
3850,34240
3851,34304
3852,34304
3853,34304
3854,34304
3855,34304
3856,34112
3857,34048
3858,33984
3859,33920
3860,33792
3861,33728
3862,33664
3863,33600
3864,33408
3865,33280
3866,33280
3867,33344
3868,33408
3869,33408
3870,33536
3871,33600
3872,33664
3873,33664
3874,33664
3875,33600
3876,33472
3877,33216
3878,33088
3879,33344
3880,34240
3881,35968
3882,38528
3883,41664
3884,44928
3885,47424
3886,47744
3887,45824
3888,42112
3889,37760
3890,33984
3891,31232
3892,29632
3893,28800
3894,28672
3895,28928
3896,29504
3897,30144
3898,30784
3899,31488
3900,32064
3901,32576
3902,32896
3903,33152
3904,33408
3905,33600
3906,33728
3907,33792
3908,33920
3909,33920
3910,33856
3911,33856
3912,33856
3913,33920
3914,33856
3915,33792
3916,33792
3917,33792
3918,33856
3919,33856
3920,33856
3921,33984
3922,33984
3923,34048
3924,34112
3925,34304
3926,34432
3927,34432
3928,34496
3929,34624
3930,34752
3931,34752
3932,34880
3933,35008
3934,35136
3935,35200
3936,35200
3937,35264
3938,35392
3939,35392
3940,35392
3941,35392
3942,35456
3943,35456
3944,35456
3945,35456
3946,35456
3947,35456
3948,35392
3949,35200
3950,35072
3951,34880
3952,34624
3953,34368
3954,34176
3955,33920
3956,33600
3957,33344
3958,33152
3959,33088
3960,33024
3961,32960
3962,33024
3963,33088
3964,33152
3965,33216
3966,33280
3967,33408
3968,33536
3969,33600
3970,33664
3971,33728
3972,33728
3973,33728
3974,33728
3975,33792
3976,33856
3977,33856
3978,33856
3979,33920
3980,33920
3981,33856
3982,33856
3983,33856
3984,33984
3985,33984
3986,33920
3987,33856
3988,33920
3989,33856
3990,33792
3991,33792
3992,33856
3993,33856
3994,33792
3995,33792
3996,33856
3997,33856
3998,33792
3999,33792
4000,33792
4001,33856
4002,33856
4003,33920
4004,34112
4005,34304
4006,34304
4007,34176
4008,34176
4009,34240
4010,34304
4011,34240
4012,34240
4013,34304
4014,34240
4015,34112
4016,33984
4017,33984
4018,33920
4019,33792
4020,33664
4021,33600
4022,33472
4023,33280
4024,33216
4025,33280
4026,33344
4027,33344
4028,33408
4029,33472
4030,33600
4031,33600
4032,33536
4033,33600
4034,33664
4035,33536
4036,33344
4037,33152
4038,33152
4039,33536
4040,34560
4041,36608
4042,39488
4043,42688
4044,45824
4045,47808
4046,47808
4047,45376
4048,41280
4049,37056
4050,33536
4051,31040
4052,29504
4053,28800
4054,28800
4055,29184
4056,29696
4057,30272
4058,30976
4059,31680
4060,32192
4061,32704
4062,33088
4063,33472
4064,33728
4065,33856
4066,33920
4067,34048
4068,34048
4069,33984
4070,33920
4071,33920
4072,33984
4073,33920
4074,33920
4075,33984
4076,34048
4077,33984
4078,33984
4079,34112
4080,34176
4081,34176
4082,34176
4083,34240
4084,34368
4085,34432
4086,34432
4087,34496
4088,34688
4089,34752
4090,34816
4091,34944
4092,35072
4093,35200
4094,35200
4095,35200
4096,35328
4097,35392
4098,35328
4099,35328
4100,35392
4101,35456
4102,35456
4103,35392
4104,35456
4105,35520
4106,35456
4107,35328
4108,35200
4109,35136
4110,34944
4111,34624
4112,34368
4113,34176
4114,33984
4115,33664
4116,33472
4117,33344
4118,33280
4119,33152
4120,33024
4121,33088
4122,33152
4123,33152
4124,33216
4125,33344
4126,33472
4127,33536
4128,33536
4129,33664
4130,33728
4131,33792
4132,33728
4133,33856
4134,33920
4135,33920
4136,33856
4137,33856
4138,33920
4139,33984
4140,33920
4141,33920
4142,33984
4143,33984
4144,33920
4145,33920
4146,33984
4147,33984
4148,33984
4149,33984
4150,33984
4151,34048
4152,33984
4153,33856
4154,33856
4155,33920
4156,33856
4157,33856
4158,33856
4159,33856
4160,33792
4161,33728
4162,33728
4163,33728
4164,33728
4165,33664
4166,33664
4167,33728
4168,33728
4169,33728
4170,33792
4171,33856
4172,33920
4173,33920
4174,33920
4175,33984
4176,34048
4177,34048
4178,33984
4179,33984
4180,33984
4181,33920
4182,33920
4183,33920
4184,33984
4185,33984
4186,33920
4187,33920
4188,33920
4189,33984
4190,33856
4191,33856
4192,33856
4193,33920
4194,33920
4195,33920
4196,33984
4197,34112
4198,34112
4199,34176
4200,34368
4201,34624
4202,34752
4203,34688
4204,34560
4205,34624
4206,34688
4207,34688
4208,34688
4209,34688
4210,34624
4211,34496
4212,34432
4213,34496
4214,34432
4215,34240
4216,34112
4217,34048
4218,34048
4219,33920
4220,33792
4221,33792
4222,33856
4223,33856
4224,33920
4225,34048
4226,34112
4227,34176
4228,34176
4229,34176
4230,34112
4231,33856
4232,33536
4233,33344
4234,33408
4235,33856
4236,35200
4237,37504
4238,40640
4239,44160
4240,47360
4241,49216
4242,48832
4243,46016
4244,41536
4245,36800
4246,33088
4247,30016
4248,28992
4249,28288
4250,28288
4251,28736
4252,29312
4253,30016
4254,30720
4255,31424
4256,32000
4257,32512
4258,32832
4259,33216
4260,33472
4261,33664
4262,33792
4263,33920
4264,34048
4265,34048
4266,34048
4267,34112
4268,34240
4269,34240
4270,34240
4271,34240
4272,34240
4273,34176
4274,34112
4275,34112
4276,34176
4277,34176
4278,34112
4279,34176
4280,34240
4281,34240
4282,34240
4283,34304
4284,34496
4285,34560
4286,34560
4287,34560
4288,34688
4289,34816
4290,34880
4291,34944
4292,35136
4293,35264
4294,35264
4295,35264
4296,35264
4297,35328
4298,35328
4299,35328
4300,35392
4301,35520
4302,35520
4303,35456
4304,35456
4305,35456
4306,35392
4307,35264
4308,35136
4309,34944
4310,34752
4311,34496
4312,34240
4313,33984
4314,33728
4315,33536
4316,33344
4317,33280
4318,33280
4319,33152
4320,33088
4321,33088
4322,33280
4323,33280
4324,33408
4325,33536
4326,33728
4327,33792
4328,33856
4329,33856
4330,33984
4331,33984
4332,33920
4333,33856
4334,33856
4335,33920
4336,33856
4337,33920
4338,33984
4339,34048
4340,33984
4341,33920
4342,33984
4343,34112
4344,34176
4345,34176
4346,34240
4347,34304
4348,34240
4349,34176
4350,34176
4351,34112
4352,34048
4353,33984
4354,33984
4355,34048
4356,34048
4357,33984
4358,33984
4359,34048
4360,34048
4361,33984
4362,33920
4363,33920
4364,33920
4365,33856
4366,33792
4367,33856
4368,33920
4369,33856
4370,33792
4371,33792
4372,33792
4373,33728
4374,33728
4375,33792
4376,33856
4377,33920
4378,33920
4379,33984
4380,34048
4381,34048
4382,34048
4383,34048
4384,34112
4385,34112
4386,33984
4387,33984
4388,34048
4389,34048
4390,33984
4391,33984
4392,34048
4393,34176
4394,34240
4395,34432
4396,34624
4397,35008
4398,35072
4399,35200
4400,35328
4401,35456
4402,35520
4403,35584
4404,35584
4405,35520
4406,35392
4407,35136
4408,35008
4409,34944
4410,34816
4411,34624
4412,34432
4413,34368
4414,34304
4415,34048
4416,33920
4417,33856
4418,33920
4419,33984
4420,33984
4421,34048
4422,34176
4423,34240
4424,34304
4425,34304
4426,34368
4427,34176
4428,33920
4429,33664
4430,33664
4431,34048
4432,35072
4433,36992
4434,39808
4435,43072
4436,46336
4437,48512
4438,48640
4439,46272
4440,41856
4441,37504
4442,32768
4443,30848
4444,29312
4445,28480
4446,28416
4447,28800
4448,29440
4449,30080
4450,30720
4451,31360
4452,31936
4453,32448
4454,32896
4455,33344
4456,33536
4457,33664
4458,33728
4459,33856
4460,33984
4461,33856
4462,33600
4463,33408
4464,33344
4465,33280
4466,33344
4467,33408
4468,33600
4469,33728
4470,33856
4471,33920
4472,33984
4473,33984
4474,33856
4475,33792
4476,33728
4477,33664
4478,33728
4479,33984
4480,34112
4481,34240
4482,34368
4483,34624
4484,34816
4485,35008
4486,35008
4487,35008
4488,35072
4489,35328
4490,35456
4491,35456
4492,35520
4493,35584
4494,35584
4495,35520
4496,35648
4497,35712
4498,35648
4499,35584
4500,35392
4501,35328
4502,35136
4503,35008
4504,34880
4505,34688
4506,34496
4507,34176
4508,33856
4509,33728
4510,33664
4511,33472
4512,33216
4513,32960
4514,32896
4515,32960
4516,32960
4517,33088
4518,33088
4519,33024
4520,33024
4521,33088
4522,33280
4523,33408
4524,33536
4525,33536
4526,33536
4527,33536
4528,33600
4529,33664
4530,33856
4531,33920
4532,33856
4533,33728
4534,33728
4535,33856
4536,33920
4537,33920
4538,33856
4539,33792
4540,33728
4541,33600
4542,33600
4543,33664
4544,33728
4545,33856
4546,33728
4547,33536
4548,33472
4549,33600
4550,33792
4551,33856
4552,33792
4553,33664
4554,33664
4555,33728
4556,33792
4557,33792
4558,33920
4559,33920
4560,33856
4561,33600
4562,33536
4563,33600
4564,33856
4565,33984
4566,33856
4567,33728
4568,33728
4569,33792
4570,33792
4571,33920
4572,33856
4573,33856
4574,33792
4575,33728
4576,33600
4577,33664
4578,33792
4579,33920
4580,34176
4581,34240
4582,34304
4583,34240
4584,34240
4585,34176
4586,34240
4587,34368
4588,34496
4589,34560
4590,34560
4591,34624
4592,34624
4593,34560
4594,34496
4595,34560
4596,34560
4597,34496
4598,34432
4599,34496
4600,34560
4601,34496
4602,34304
4603,34112
4604,33920
4605,33856
4606,33856
4607,33728
4608,33664
4609,33664
4610,33792
4611,33856
4612,33984
4613,34048
4614,34048
4615,34176
4616,34240
4617,34176
4618,34048
4619,33856
4620,33728
4621,33664
4622,33856
4623,34048
4624,35072
4625,37184
4626,40192
4627,43584
4628,46784
4629,48768
4630,48512
4631,45696
4632,41344
4633,36736
4634,32960
4635,30464
4636,28992
4637,28288
4638,28352
4639,28736
4640,29376
4641,30144
4642,30912
4643,31680
4644,32256
4645,32768
4646,33216
4647,33472
4648,33664
4649,33792
4650,33920
4651,33984
4652,34048
4653,33984
4654,33920
4655,33984
4656,34048
4657,33984
4658,33920
4659,33920
4660,33920
4661,33600
4662,33344
4663,33536
4664,33984
4665,34432
4666,34816
4667,35200
4668,35520
4669,35776
4670,35840
4671,35840
4672,35776
4673,35712
4674,35584
4675,35520
4676,35520
4677,35520
4678,35520
4679,35456
4680,35456
4681,35392
4682,35328
4683,35264
4684,35200
4685,35072
4686,35008
4687,34944
4688,34944
4689,35008
4690,34944
4691,34944
4692,34944
4693,35008
4694,34880
4695,34752
4696,34560
4697,34368
4698,34048
4699,33664
4700,33280
4701,32896
4702,32576
4703,32192
4704,31872
4705,31680
4706,31488
4707,31296
4708,31360
4709,31680
4710,32256
4711,32704
4712,33152
4713,33472
4714,33664
4715,33728
4716,33664
4717,33792
4718,33920
4719,33920
4720,33856
4721,33728
4722,33664
4723,33536
4724,33344
4725,33280
4726,33280
4727,33280
4728,33280
4729,33280
4730,33344
4731,33344
4732,33344
4733,33408
4734,33536
4735,33664
4736,33664
4737,33664
4738,33664
4739,33792
4740,33792
4741,33792
4742,33792
4743,33792
4744,33792
4745,33728
4746,33664
4747,33664
4748,33664
4749,33600
4750,33536
4751,33536
4752,33472
4753,33408
4754,33344
4755,33344
4756,33344
4757,33344
4758,33344
4759,33344
4760,33408
4761,33408
4762,33408
4763,33472
4764,33536
4765,33472
4766,33344
4767,33344
4768,33472
4769,33600
4770,33536
4771,33536
4772,33600
4773,33664
4774,33664
4775,33728
4776,33856
4777,33984
4778,33984
4779,34048
4780,34048
4781,34112
4782,33984
4783,33920
4784,33984
4785,33984
4786,33856
4787,33664
4788,33536
4789,33536
4790,33600
4791,33600
4792,33600
4793,33408
4794,33216
4795,32960
4796,33152
4797,34048
4798,35968
4799,38592
4800,41856
4801,45056
4802,47488
4803,47936
4804,46016
4805,42240
4806,38016
4807,34240
4808,31424
4809,29760
4810,28864
4811,28672
4812,28992
4813,29568
4814,30272
4815,31040
4816,31680
4817,32256
4818,32768
4819,33152
4820,33408
4821,33600
4822,33792
4823,33856
4824,33856
4825,33792
4826,33728
4827,33728
4828,33664
4829,33600
4830,33664
4831,33664
4832,33600
4833,33600
4834,33600
4835,33600
4836,33600
4837,33600
4838,33664
4839,33728
4840,33664
4841,33664
4842,33664
4843,33792
4844,33984
4845,34176
4846,34304
4847,34496
4848,34688
4849,34752
4850,34880
4851,35008
4852,35136
4853,35200
4854,35200
4855,35328
4856,35456
4857,35456
4858,35456
4859,35520
4860,35584
4861,35520
4862,35520
4863,35520
4864,35520
4865,35520
4866,35392
4867,35264
4868,35200
4869,35136
4870,34944
4871,34752
4872,34624
4873,34496
4874,34240
4875,34048
4876,33984
4877,33856
4878,33728
4879,33664
4880,33664
4881,33664
4882,33664
4883,33664
4884,33728
4885,33856
4886,33856
4887,33856
4888,33920
4889,34112
4890,34048
4891,34112
4892,34176
4893,34240
4894,34176
4895,34112
4896,34176
4897,34176
4898,34112
4899,34048
4900,34048
4901,34048
4902,33984
4903,33984
4904,33984
4905,33920
4906,33984
4907,33920
4908,33856
4909,33920
4910,33856
4911,33792
4912,33792
4913,33792
4914,33856
4915,33792
4916,33792
4917,33856
4918,33920
4919,33856
4920,33792
4921,33920
4922,33920
4923,33920
4924,33920
4925,33920
4926,33984
4927,33920
4928,33920
4929,33920
4930,33984
4931,33920
4932,33856
4933,33920
4934,33984
4935,33920
4936,33920
4937,33984
4938,34112
4939,34240
4940,34304
4941,34432
4942,34560
4943,34624
4944,34624
4945,34560
4946,34624
4947,34688
4948,34688
4949,34624
4950,34560
4951,34560
4952,34432
4953,34304
4954,34176
4955,34112
4956,33984
4957,33920
4958,33920
4959,33920
4960,33792
4961,33664
4962,33536
4963,33600
4964,33600
4965,33600
4966,33536
4967,33792
4968,33856
4969,33856
4970,33792
4971,33728
4972,33536
4973,33472
4974,33344
4975,33920
4976,35264
4977,37504
4978,40512
4979,44288
4980,47168
4981,49024
4982,48576
4983,45760
4984,41408
4985,36864
4986,33088
4987,30464
4988,28992
4989,28416
4990,28352
4991,28736
4992,29376
4993,30144
4994,30976
4995,30976
4996,32192
4997,32704
4998,33088
4999,33408
5000,33664
5001,33856
5002,33920
5003,33920
5004,33984
5005,34048
5006,33984
5007,33920
5008,33920
5009,33984
5010,33984
5011,33920
5012,33920
5013,33984
5014,34048
5015,34048
5016,34048
5017,34112
5018,34112
5019,34176
5020,34176
5021,34240
5022,34368
5023,34368
5024,34432
5025,34560
5026,34496
5027,34752
5028,34816
5029,34880
5030,35008
5031,35072
5032,35072
5033,35200
5034,35264
5035,35328
5036,35328
5037,35392
5038,35456
5039,35456
5040,35456
5041,35392
5042,35456
5043,35456
5044,35392
5045,35328
5046,35264
5047,35200
5048,35008
5049,34816
5050,34624
5051,34432
5052,34176
5053,33920
5054,33728
5055,33600
5056,33472
5057,33280
5058,33216
5059,33216
5060,33216
5061,33216
5062,33280
5063,33344
5064,33472
5065,33472
5066,33536
5067,33664
5068,33728
5069,33728
5070,33728
5071,33664
5072,33856
5073,33856
5074,33856
5075,33856
5076,33920
5077,33920
5078,33856
5079,33920
5080,33920
5081,33920
5082,33920
5083,33856
5084,33856
5085,33856
5086,33792
5087,33792
5088,33792
5089,33792
5090,33792
5091,33664
5092,33664
5093,33728
5094,33664
5095,33600
5096,33664
5097,33728
5098,33792
5099,33728
5100,33728
5101,33728
5102,33728
5103,33664
5104,33728
5105,33792
5106,33792
5107,33728
5108,33792
5109,33856
5110,33856
5111,33856
5112,33792
5113,33856
5114,33856
5115,33856
5116,33856
5117,33920
5118,33984
5119,34048
5120,34112
5121,34240
5122,34432
5123,34496
5124,34496
5125,34496
5126,34560
5127,34560
5128,34560
5129,34496
5130,34496
5131,34432
5132,34304
5133,34240
5134,34176
5135,34048
5136,33920
5137,33856
5138,33792
5139,33792
5140,33664
5141,33536
5142,33472
5143,33536
5144,33472
5145,33536
5146,33472
5147,33664
5148,33664
5149,33664
5150,33664
5151,33600
5152,33408
5153,33216
5154,33088
5155,33472
5156,34496
5157,36352
5158,39104
5159,42432
5160,45760
5161,48192
5162,48640
5163,46592
5164,42624
5165,38016
5166,33984
5167,30976
5168,29248
5169,28352
5170,28160
5171,28544
5172,29120
5173,29824
5174,30528
5175,31232
5176,31936
5177,32512
5178,32896
5179,33216
5180,33536
5181,33728
5182,33792
5183,33920
5184,33920
5185,33984
5186,33920
5187,33920
5188,33920
5189,33920
5190,33856
5191,33856
5192,33920
5193,33920
5194,33920
5195,33920
5196,33984
5197,34112
5198,34112
5199,34176
5200,34176
5201,34304
5202,34368
5203,34368
5204,34432
5205,34496
5206,34624
5207,34688
5208,34752
5209,34880
5210,34944
5211,35008
5212,35008
5213,35136
5214,35200
5215,35264
5216,35264
5217,35264
5218,35328
5219,35328
5220,35264
5221,35264
5222,35328
5223,35328
5224,35264
5225,35264
5226,35264
5227,35200
5228,35008
5229,34880
5230,34752
5231,34560
5232,34240
5233,33984
5234,33856
5235,33600
5236,33408
5237,33280
5238,33216
5239,33216
5240,33152
5241,33152
5242,33216
5243,33280
5244,33344
5245,33408
5246,33536
5247,33664
5248,33728
5249,33728
5250,33792
5251,33792
5252,33856
5253,33856
5254,33856
5255,33920
5256,33920
5257,33856
5258,33856
5259,33856
5260,33920
5261,33856
5262,33792
5263,33856
5264,33920
5265,33856
5266,33792
5267,33792
5268,33856
5269,33792
5270,33728
5271,33728
5272,33792
5273,33728
5274,33664
5275,33728
5276,33728
5277,33728
5278,33728
5279,33728
5280,33792
5281,33792
5282,33728
5283,33664
5284,33728
5285,33792
5286,33792
5287,33792
5288,33856
5289,33984
5290,33984
5291,34048
5292,34176
5293,34368
5294,34432
5295,34432
5296,34368
5297,34432
5298,34496
5299,34496
5300,34496
5301,34496
5302,34432
5303,34304
5304,34240
5305,34176
5306,34048
5307,33920
5308,33792
5309,33792
5310,33728
5311,33600
5312,33472
5313,33408
5314,33408
5315,33408
5316,33472
5317,33472
5318,33600
5319,33664
5320,33600
5321,33664
5322,33664
5323,33472
5324,33280
5325,33088
5326,33280
5327,34048
5328,35456
5329,37824
5330,41024
5331,44416
5332,47360
5333,48704
5334,47744
5335,44416
5336,39936
5337,35584
5338,32192
5339,29952
5340,28672
5341,28224
5342,28416
5343,28992
5344,29632
5345,30336
5346,31040
5347,31744
5348,32320
5349,32768
5350,33088
5351,33408
5352,33600
5353,33664
5354,33728
5355,33856
5356,33920
5357,33856
5358,33792
5359,33792
5360,33792
5361,33792
5362,33728
5363,33728
5364,33792
5365,33856
5366,33856
5367,33920
5368,33984
5369,33984
5370,33984
5371,34048
5372,34176
5373,34240
5374,34240
5375,34304
5376,34432
5377,34496
5378,34560
5379,34624
5380,34688
5381,34816
5382,34816
5383,34816
5384,34944
5385,35008
5386,35008
5387,35008
5388,35008
5389,35072
5390,35072
5391,35008
5392,35008
5393,35008
5394,35072
5395,35008
5396,35008
5397,35008
5398,34944
5399,34752
5400,34624
5401,34560
5402,34368
5403,34112
5404,33856
5405,33728
5406,33600
5407,33472
5408,33280
5409,33216
5410,33216
5411,33216
5412,33216
5413,33280
5414,33408
5415,33408
5416,33472
5417,33472
5418,33600
5419,33600
5420,33600
5421,33600
5422,33728
5423,33792
5424,33792
5425,33792
5426,33856
5427,33920
5428,33920
5429,33920
5430,33920
5431,33984
5432,33920
5433,33920
5434,33920
5435,33920
5436,33920
5437,33856
5438,33856
5439,33856
5440,33792
5441,33728
5442,33728
5443,33728
5444,33792
5445,33728
5446,33664
5447,33664
5448,33728
5449,33664
5450,33664
5451,33728
5452,33728
5453,33728
5454,33728
5455,33792
5456,33856
5457,33920
5458,33984
5459,34112
5460,34304
5461,34304
5462,34304
5463,34368
5464,34432
5465,34560
5466,34496
5467,34496
5468,34496
5469,34432
5470,34240
5471,34112
5472,34048
5473,33920
5474,33792
5475,33664
5476,33664
5477,33600
5478,33472
5479,33280
5480,33280
5481,33344
5482,33344
5483,33408
5484,33472
5485,33600
5486,33664
5487,33664
5488,33664
5489,33664
5490,33536
5491,33280
5492,33088
5493,33280
5494,33920
5495,35328
5496,37632
5497,40704
5498,44032
5499,46976
5500,48384
5501,47488
5502,44352
5503,40000
5504,35776
5505,32256
5506,30144
5507,28864
5508,28352
5509,28544
5510,29056
5511,29760
5512,30464
5513,31168
5514,31808
5515,32384
5516,32768
5517,33152
5518,33472
5519,33664
5520,33792
5521,33856
5522,33984
5523,33984
5524,33984
5525,33920
5526,33920
5527,33920
5528,33856
5529,33856
5530,33856
5531,33920
5532,33920
5533,33920
5534,33984
5535,34048
5536,34112
5537,34112
5538,34176
5539,34304
5540,34368
5541,34432
5542,34432
5543,34560
5544,34624
5545,34624
5546,34688
5547,34816
5548,34880
5549,34944
5550,34944
5551,35008
5552,35072
5553,35072
5554,35008
5555,35008
5556,35072
5557,35072
5558,35008
5559,35072
5560,35136
5561,35136
5562,35136
5563,35072
5564,35072
5565,35008
5566,34816
5567,34688
5568,34560
5569,34368
5570,34112
5571,33920
5572,33792
5573,33664
5574,33472
5575,33280
5576,33280
5577,33344
5578,33344
5579,33344
5580,33408
5581,33536
5582,33536
5583,33600
5584,33600
5585,33728
5586,33728
5587,33792
5588,33856
5589,33920
5590,33984
5591,33920
5592,33920
5593,34048
5594,34048
5595,34048
5596,34048
5597,34048
5598,34112
5599,34048
5600,33984
5601,33984
5602,34048
5603,34048
5604,33984
5605,33984
5606,34048
5607,33984
5608,33920
5609,33920
5610,33920
5611,33920
5612,33856
5613,33856
5614,33856
5615,33856
5616,33792
5617,33728
5618,33792
5619,33856
5620,33856
5621,33792
5622,33856
5623,33856
5624,33856
5625,33856
5626,33920
5627,33984
5628,33920
5629,33856
5630,33856
5631,33984
5632,33984
5633,33984
5634,33984
5635,34048
5636,34048
5637,34112
5638,34176
5639,34304
5640,34496
5641,34560
5642,34624
5643,34688
5644,34624
5645,34560
5646,34496
5647,34496
5648,34496
5649,34432
5650,34304
5651,34304
5652,34304
5653,34176
5654,34048
5655,33984
5656,33920
5657,33856
5658,33792
5659,33728
5660,33728
5661,33664
5662,33536
5663,33536
5664,33600
5665,33664
5666,33664
5667,33728
5668,33792
5669,33856
5670,33792
5671,33600
5672,33472
5673,33280
5674,33216
5675,33536
5676,34688
5677,36736
5678,39616
5679,43008
5680,46336
5681,48640
5682,48832
5683,46464
5684,42304
5685,37632
5686,33664
5687,30720
5688,28928
5689,28160
5690,28096
5691,28416
5692,29056
5693,29824
5694,30592
5695,31232
5696,31808
5697,32384
5698,32896
5699,33280
5700,33536
5701,33728
5702,33920
5703,33920
5704,33920
5705,33920
5706,33920
5707,33920
5708,33792
5709,33792
5710,33792
5711,33792
5712,33792
5713,33792
5714,33856
5715,33920
5716,33920
5717,33984
5718,34048
5719,34112
5720,34112
5721,34112
5722,34240
5723,34368
5724,34496
5725,34496
5726,34624
5727,34752
5728,34816
5729,34816
5730,34880
5731,34944
5732,35008
5733,35008
5734,35008
5735,35072
5736,35200
5737,35136
5738,35200
5739,35200
5740,35264
5741,35264
5742,35200
5743,35264
5744,35264
5745,35264
5746,35136
5747,35072
5748,35008
5749,34816
5750,34624
5751,34432
5752,34304
5753,34112
5754,33856
5755,33728
5756,33664
5757,33536
5758,33408
5759,33344
5760,33408
5761,33408
5762,33408
5763,33408
5764,33536
5765,33600
5766,33600
5767,33664
5768,33728
5769,33856
5770,33856
5771,33856
5772,33920
5773,33920
5774,33984
5775,33920
5776,33920
5777,33984
5778,33984
5779,33920
5780,33920
5781,33920
5782,33920
5783,33856
5784,33856
5785,33856
5786,33920
5787,33856
5788,33792
5789,33792
5790,33792
5791,33728
5792,33728
5793,33728
5794,33728
5795,33664
5796,33664
5797,33664
5798,33728
5799,33728
5800,33728
5801,33728
5802,33792
5803,33792
5804,33728
5805,33728
5806,33792
5807,33792
5808,33792
5809,33728
5810,33792
5811,33792
5812,33792
5813,33728
5814,33792
5815,33792
5816,33792
5817,33792
5818,33792
5819,33856
5820,33856
5821,33856
5822,33856
5823,33920
5824,33984
5825,33984
5826,34048
5827,34176
5828,34368
5829,34432
5830,34496
5831,34560
5832,34560
5833,34496
5834,34496
5835,34560
5836,34560
5837,34560
5838,34432
5839,34368
5840,34304
5841,34176
5842,33984
5843,33920
5844,33856
5845,33856
5846,33728
5847,33664
5848,33664
5849,33600
5850,33536
5851,33536
5852,33664
5853,33664
5854,33664
5855,33728
5856,33792
5857,33856
5858,33856
5859,33664
5860,33536
5861,33344
5862,33280
5863,33664
5864,34880
5865,37056
5866,39936
5867,43328
5868,46592
5869,48704
5870,48640
5871,46016
5872,41728
5873,37184
5874,33344
5875,30592
5876,28992
5877,28352
5878,28352
5879,28672
5880,29248
5881,30016
5882,30784
5883,31424
5884,32000
5885,32576
5886,33024
5887,33280
5888,33472
5889,33664
5890,33792
5891,33856
5892,33856
5893,33856
5894,33920
5895,33856
5896,33792
5897,33792
5898,33856
5899,33856
5900,33792
5901,33856
5902,33920
5903,33984
5904,33984
5905,33984
5906,34048
5907,34112
5908,34176
5909,34176
5910,34304
5911,34368
5912,34432
5913,34432
5914,34496
5915,34624
5916,34688
5917,34752
5918,34816
5919,34816
5920,34880
5921,34880
5922,34880
5923,34944
5924,34944
5925,34944
5926,34944
5927,35008
5928,35008
5929,35008
5930,35008
5931,35008
5932,35008
5933,34944
5934,34880
5935,34816
5936,34752
5937,34624
5938,34432
5939,34304
5940,34176
5941,33984
5942,33728
5943,33600
5944,33536
5945,33408
5946,33280
5947,33280
5948,33344
5949,33344
5950,33344
5951,33344
5952,33408
5953,33472
5954,33472
5955,33536
5956,33600
5957,33664
5958,33664
5959,33664
5960,33728
5961,33792
5962,33856
5963,33792
5964,33856
5965,33920
5966,33920
5967,33856
5968,33920
5969,33920
5970,33856
5971,33792
5972,33792
5973,33792
5974,33792
5975,33728
5976,33664
5977,33728
5978,33664
5979,33664
5980,33600
5981,33664
5982,33664
5983,33664
5984,33664
5985,33728
5986,33728
5987,33664
5988,33600
5989,33600
5990,33664
5991,33664
5992,33664
5993,33664
5994,33728
5995,33728
5996,33664
5997,33664
5998,33728
5999,33728
6000,33728
6001,33728
6002,33792
6003,33856
6004,33856
6005,33792
6006,33792
6007,33792
6008,33792
6009,33728
6010,33728
6011,33792
6012,33792
6013,33792
6014,33856
6015,33984
6016,33984
6017,33984
6018,34048
6019,34176
6020,34304
6021,34368
6022,34368
6023,34432
6024,34432
6025,34432
6026,34496
6027,34560
6028,34560
6029,34496
6030,34432
6031,34304
6032,34240
6033,34112
6034,33984
6035,33920
6036,33856
6037,33728
6038,33664
6039,33536
6040,33472
6041,33472
6042,33472
6043,33472
6044,33600
6045,33600
6046,33600
6047,33664
6048,33728
6049,33792
6050,33664
6051,33472
6052,33344
6053,33216
6054,33408
6055,34240
6056,36032
6057,38656
6058,41792
6059,45056
6060,47616
6061,48320
6062,46592
6063,42816
6064,38400
6065,34368
6066,31360
6067,29440
6068,28544
6069,28416
6070,28672
6071,29248
6072,29888
6073,30656
6074,31360
6075,32000
6076,32512
6077,33088
6078,33344
6079,33536
6080,33664
6081,33856
6082,33920
6083,33920
6084,33856
6085,33856
6086,33920
6087,33856
6088,33792
6089,33792
6090,33920
6091,33856
6092,33856
6093,33856
6094,33920
6095,33984
6096,33984
6097,34048
6098,34112
6099,34176
6100,34240
6101,34240
6102,34368
6103,34496
6104,34496
6105,34560
6106,34624
6107,34688
6108,34688
6109,34752
6110,34752
6111,34880
6112,34880
6113,34880
6114,34944
6115,35008
6116,35008
6117,34944
6118,34880
6119,34944
6120,35008
6121,34944
6122,34944
6123,34944
6124,35008
6125,34944
6126,34816
6127,34816
6128,34752
6129,34624
6130,34432
6131,34304
6132,34176
6133,33984
6134,33792
6135,33664
6136,33536
6137,33408
6138,33344
6139,33344
6140,33344
6141,33344
6142,33344
6143,33408
6144,33472
6145,33600
6146,33600
6147,33664
6148,33728
6149,33856
6150,33856
6151,33856
6152,33920
6153,33984
6154,33920
6155,33920
6156,33920
6157,33920
6158,33920
6159,33856
6160,33856
6161,33920
6162,33856
6163,33856
6164,33792
6165,33856
6166,33856
6167,33792
6168,33728
6169,33792
6170,33792
6171,33792
6172,33728
6173,33792
6174,33792
6175,33792
6176,33728
6177,33728
6178,33792
6179,33792
6180,33728
6181,33792
6182,33856
6183,33856
6184,33792
6185,33856
6186,33856
6187,33920
6188,33856
6189,33856
6190,33920
6191,33920
6192,33856
6193,33792
6194,33792
6195,33792
6196,33728
6197,33664
6198,33728
6199,33792
6200,33792
6201,33792
6202,33856
6203,33920
6204,33856
6205,33856
6206,33920
6207,33984
6208,33984
6209,33984
6210,34048
6211,34112
6212,34112
6213,34048
6214,34048
6215,34112
6216,34176
6217,34112
6218,34112
6219,34240
6220,34432
6221,34432
6222,34560
6223,34752
6224,34816
6225,34816
6226,34752
6227,34880
6228,34880
6229,34752
6230,34688
6231,34560
6232,34496
6233,34368
6234,34240
6235,34176
6236,34112
6237,34048
6238,33920
6239,33856
6240,33792
6241,33792
6242,33664
6243,33664
6244,33664
6245,33792
6246,33856
6247,33856
6248,33984
6249,34048
6250,33984
6251,33856
6252,33728
6253,33600
6254,33408
6255,33408
6256,33920
6257,35328
6258,37568
6259,40640
6260,44096
6261,47296
6262,49088
6263,48448
6264,45376
6265,40960
6266,36416
6267,32704
6268,30144
6269,28736
6270,28288
6271,28352
6272,28928
6273,29376
6274,30144
6275,30848
6276,31424
6277,32064
6278,32576
6279,32896
6280,33152
6281,33408
6282,33536
6283,33664
6284,33664
6285,33728
6286,33792
6287,33792
6288,33728
6289,33728
6290,33792
6291,33792
6292,33792
6293,33792
6294,33856
6295,33984
6296,33984
6297,33984
6298,34048
6299,34112
6300,34112
6301,34112
6302,34176
6303,34240
6304,34304
6305,34304
6306,34368
6307,34496
6308,34560
6309,34560
6310,34624
6311,34752
6312,34816
6313,34816
6314,34880
6315,34880
6316,34944
6317,34944
6318,34880
6319,34944
6320,34944
6321,34880
6322,34880
6323,34944
6324,35008
6325,35008
6326,34880
6327,34880
6328,34944
6329,34816
6330,34688
6331,34496
6332,34368
6333,34240
6334,34048
6335,33856
6336,33728
6337,33600
6338,33472
6339,33344
6340,33344
6341,33408
6342,33344
6343,33344
6344,33408
6345,33536
6346,33536
6347,33600
6348,33664
6349,33728
6350,33728
6351,33728
6352,33792
6353,33856
6354,33856
6355,33856
6356,33856
6357,33920
6358,33920
6359,33856
6360,33792
6361,33856
6362,33920
6363,33856
6364,33856
6365,33856
6366,33920
6367,33856
6368,33856
6369,33856
6370,33792
6371,33728
6372,33600
6373,33600
6374,33600
6375,33600
6376,33600
6377,33664
6378,33664
6379,33664
6380,33664
6381,33664
6382,33728
6383,33728
6384,33728
6385,33728
6386,33728
6387,33792
6388,33728
6389,33728
6390,33792
6391,33792
6392,33792
6393,33728
6394,33728
6395,33792
6396,33792
6397,33728
6398,33792
6399,33856
6400,33856
6401,33792
6402,33856
6403,33920
6404,33984
6405,33920
6406,33920
6407,33984
6408,33920
6409,33920
6410,33856
6411,33920
6412,33920
6413,33856
6414,33856
6415,33856
6416,33920
6417,33856
6418,33856
6419,33856
6420,33920
6421,33920
6422,33856
6423,33856
6424,33920
6425,33984
6426,33920
6427,33920
6428,33984
6429,33984
6430,33920
6431,33920
6432,33984
6433,34048
6434,34048
6435,34048
6436,34112
6437,34176
6438,34112
6439,34176
6440,34240
6441,34368
6442,34432
6443,34496
6444,34624
6445,34688
6446,34624
6447,34624
6448,34688
6449,34752
6450,34752
6451,34688
6452,34624
6453,34624
6454,34496
6455,34304
6456,34176
6457,34112
6458,34048
6459,33920
6460,33856
6461,33792
6462,33792
6463,33664
6464,33664
6465,33664
6466,33728
6467,33792
6468,33728
6469,33792
6470,33856
6471,33856
6472,33728
6473,33664
6474,33536
6475,33344
6476,33344
6477,33920
6478,35392
6479,37696
6480,40896
6481,44608
6482,48384
6483,49024
6484,48384
6485,45248
6486,40768
6487,36288
6488,32576
6489,30080
6490,28736
6491,28288
6492,28352
6493,28800
6494,29440
6495,30272
6496,30976
6497,31680
6498,32192
6499,32768
6500,33152
6501,33408
6502,33664
6503,33792
6504,33920
6505,33920
6506,33856
6507,33920
6508,33920
6509,33856
6510,33792
6511,33856
6512,33856
6513,33856
6514,33792
6515,33856
6516,33920
6517,33920
6518,33920
6519,33984
6520,34112
6521,34112
6522,34112
6523,34176
6524,34240
6525,34304
6526,34368
6527,34496
6528,34560
6529,34624
6530,34624
6531,34688
6532,34752
6533,34816
6534,34816
6535,34880
6536,34944
6537,34944
6538,34944
6539,34880
6540,34880
6541,34944
6542,34944
6543,34944
6544,34944
6545,35008
6546,35008
6547,34944
6548,34944
6549,34944
6550,34880
6551,34752
6552,34624
6553,34496
6554,34304
6555,34048
6556,33856
6557,33728
6558,33600
6559,33472
6560,33344
6561,33344
6562,33280
6563,33280
6564,33216
6565,33280
6566,33344
6567,33408
6568,33408
6569,33536
6570,33664
6571,33664
6572,33664
6573,33664
6574,33728
6575,33728
6576,33728
6577,33728
6578,33792
6579,33856
6580,33792
6581,33792
6582,33856
6583,33856
6584,33792
6585,33792
6586,33792
6587,33792
6588,33792
6589,33728
6590,33728
6591,33728
6592,33728
6593,33664
6594,33664
6595,33664
6596,33664
6597,33600
6598,33600
6599,33664
6600,33728
6601,33664
6602,33664
6603,33664
6604,33664
6605,33664
6606,33600
6607,33664
6608,33728
6609,33664
6610,33664
6611,33664
6612,33728
6613,33728
6614,33728
6615,33728
6616,33792
6617,33792
6618,33728
6619,33728
6620,33792
6621,33792
6622,33728
6623,33728
6624,33792
6625,33792
6626,33792
6627,33728
6628,33792
6629,33856
6630,33792
6631,33792
6632,33856
6633,33920
6634,33856
6635,33792
6636,33792
6637,33856
6638,33856
6639,33856
6640,33856
6641,33920
6642,33920
6643,33856
6644,33856
6645,33920
6646,33920
6647,33920
6648,33920
6649,33984
6650,34112
6651,34112
6652,34176
6653,34304
6654,34432
6655,34496
6656,34496
6657,34560
6658,34624
6659,34688
6660,34688
6661,34688
6662,34688
6663,34624
6664,34496
6665,34432
6666,34368
6667,34176
6668,34048
6669,33984
6670,33984
6671,33856
6672,33728
6673,33664
6674,33600
6675,33600
6676,33536
6677,33600
6678,33664
6679,33792
6680,33856
6681,33792
6682,33856
6683,33856
6684,33664
6685,33408
6686,33280
6687,33408
6688,33984
6689,35392
6690,38144
6691,40896
6692,44608
6693,47552
6694,48960
6695,48128
6696,44928
6697,40384
6698,35968
6699,32448
6700,30080
6701,28800
6702,28288
6703,28416
6704,28928
6705,29568
6706,30208
6707,30976
6708,31744
6709,32640
6710,33024
6711,33344
6712,33536
6713,33664
6714,33728
6715,33856
6716,33856
6717,33856
6718,33856
6719,33856
6720,33856
6721,33792
6722,33792
6723,33920
6724,33920
6725,33920
6726,33856
6727,33920
6728,34048
6729,34048
6730,34048
6731,34176
6732,34304
6733,34368
6734,34368
6735,34368
6736,34432
6737,34496
6738,34560
6739,34688
6740,34752
6741,34816
6742,34880
6743,34880
6744,34944
6745,34944
6746,34944
6747,34944
6748,34944
6749,35008
6750,35008
6751,34944
6752,35008
6753,34944
6754,35008
6755,34944
6756,34944
6757,35008
6758,34944
6759,34816
6760,34688
6761,34624
6762,34496
6763,34304
6764,34112
6765,33984
6766,33792
6767,33600
6768,33536
6769,33408
6770,33280
6771,33216
6772,33216
6773,33216
6774,33280
6775,33280
6776,33280
6777,33344
6778,33472
6779,33536
6780,33600
6781,33664
6782,33728
6783,33792
6784,33792
6785,33792
6786,33792
6787,33856
6788,33792
6789,33856
6790,33920
6791,33920
6792,33856
6793,33856
6794,33920
6795,33920
6796,33856
6797,33792
6798,33792
6799,33792
6800,33792
6801,33728
6802,33728
6803,33792
6804,33728
6805,33664
6806,33664
6807,33664
6808,33664
6809,33600
6810,33664
6811,33728
6812,33728
6813,33664
6814,33664
6815,33728
6816,33728
6817,33728
6818,33728
6819,33792
6820,33792
6821,33792
6822,33728
6823,33792
6824,33856
6825,33856
6826,33792
6827,33856
6828,33856
6829,33792
6830,33792
6831,33792
6832,33856
6833,33920
6834,33920
6835,33920
6836,33920
6837,33920
6838,33856
6839,33856
6840,33920
6841,33984
6842,33920
6843,33920
6844,33984
6845,34048
6846,33984
6847,34048
6848,34112
6849,34240
6850,34304
6851,34368
6852,34496
6853,34624
6854,34624
6855,34624
6856,34624
6857,34752
6858,34816
6859,34816
6860,34752
6861,34752
6862,34688
6863,34560
6864,34432
6865,34368
6866,34240
6867,34112
6868,34048
6869,33984
6870,33920
6871,33728
6872,33664
6873,33664
6874,33728
6875,33728
6876,33792
6877,33856
6878,33920
6879,33984
6880,33920
6881,33920
6882,33920
6883,33728
6884,33536
6885,33408
6886,33728
6887,34688
6888,36480
6889,39232
6890,42560
6891,46016
6892,48512
6893,49024
6894,47104
6895,43200
6896,38528
6897,34432
6898,31424
6899,29568
6900,28608
6901,28352
6902,28736
6903,29312
6904,30016
6905,30720
6906,31424
6907,32064
6908,32576
6909,32960
6910,33344
6911,33600
6912,33792
6913,33856
6914,33984
6915,34048
6916,34048
6917,33984
6918,33920
6919,33920
6920,33920
6921,33856
6922,33792
6923,33856
6924,33920
6925,33984
6926,33984
6927,34048
6928,34176
6929,34176
6930,34176
6931,34240
6932,34304
6933,34368
6934,34368
6935,34432
6936,34560
6937,34624
6938,34688
6939,34752
6940,34816
6941,34880
6942,34880
6943,34880
6944,34944
6945,35008
6946,35008
6947,34944
6948,35008
6949,35008
6950,35008
6951,34944
6952,35008
6953,35008
6954,35008
6955,34944
6956,34944
6957,34944
6958,34880
6959,34688
6960,34560
6961,34432
6962,34304
6963,34048
6964,33856
6965,33728
6966,33600
6967,33408
6968,33280
6969,33216
6970,33216
6971,33216
6972,33216
6973,33280
6974,33408
6975,33472
6976,33472
6977,33536
6978,33664
6979,33664
6980,33728
6981,33792
6982,33856
6983,33920
6984,33856
6985,33856
6986,33920
6987,33984
6988,33920
6989,33920
6990,33920
6991,33920
6992,33920
6993,33920
6994,33920
6995,33920
6996,33856
6997,33792
6998,33792
6999,33856
7000,33792
7001,33728
7002,33728
7003,33728
7004,33728
7005,33664
7006,33664
7007,33728
7008,33728
7009,33664
7010,33728
7011,33792
7012,33792
7013,33728
7014,33664
7015,33728
7016,33728
7017,33728
7018,33664
7019,33728
7020,33856
7021,33792
7022,33792
7023,33728
7024,33792
7025,33792
7026,33792
7027,33792
7028,33856
7029,33856
7030,33792
7031,33856
7032,33920
7033,33920
7034,33856
7035,33856
7036,33920
7037,33920
7038,33920
7039,33920
7040,33920
7041,33920
7042,33920
7043,33856
7044,33856
7045,33920
7046,33920
7047,33856
7048,33920
7049,33984
7050,33920
7051,33920
7052,33920
7053,33984
7054,33984
7055,33920
7056,33856
7057,33856
7058,34048
7059,34048
7060,34048
7061,34048
7062,34112
7063,34240
7064,34304
7065,34496
7066,34560
7067,34560
7068,34496
7069,34496
7070,34560
7071,34624
7072,34560
7073,34560
7074,34560
7075,34496
7076,34368
7077,34240
7078,34176
7079,34048
7080,33920
7081,33792
7082,33728
7083,33664
7084,33536
7085,33472
7086,33536
7087,33600
7088,33600
7089,33600
7090,33664
7091,33792
7092,33792
7093,33728
7094,33792
7095,33664
7096,33472
7097,33216
7098,33216
7099,33728
7100,34944
7101,36992
7102,39936
7103,43264
7104,46464
7105,48384
7106,48192
7107,45568
7108,41408
7109,36992
7110,33216
7111,30592
7112,29120
7113,28480
7114,28480
7115,28928
7116,29568
7117,30272
7118,30912
7119,31616
7120,32192
7121,32704
7122,33088
7123,33408
7124,33664
7125,33792
7126,33856
7127,33920
7128,33920
7129,33920
7130,33920
7131,33920
7132,33920
7133,33984
7134,33920
7135,33856
7136,33920
7137,33920
7138,33856
7139,33856
7140,33984
7141,34048
7142,34112
7143,34112
7144,34176
7145,34304
7146,34304
7147,34304
7148,34368
7149,34496
7150,34560
7151,34560
7152,34624
7153,34752
7154,34816
7155,34816
7156,34816
7157,34880
7158,34944
7159,34880
7160,34880
7161,34880
7162,34944
7163,34880
7164,34816
7165,34880
7166,34880
7167,34880
7168,34880
7169,34880
7170,34880
7171,34816
7172,34688
7173,34624
7174,34496
7175,34368
7176,34112
7177,33920
7178,33728
7179,33600
7180,33472
7181,33344
7182,33280
7183,33216
7184,33088
7185,33152
7186,33216
7187,33280
7188,33344
7189,33408
7190,33472
7191,33664
7192,33728
7193,33728
7194,33728
7195,33792
7196,33856
7197,33792
7198,33856
7199,33920
7200,33984
7201,33984
7202,33920
7203,33984
7204,33984
7205,33984
7206,33920
7207,33920
7208,33920
7209,33856
7210,33792
7211,33856
7212,33856
7213,33792
7214,33792
7215,33792
7216,33792
7217,33792
7218,33728
7219,33728
7220,33792
7221,33792
7222,33728
7223,33664
7224,33728
7225,33792
7226,33728
7227,33728
7228,33792
7229,33792
7230,33728
7231,33728
7232,33792
7233,33856
7234,33792
7235,33792
7236,33792
7237,33856
7238,33856
7239,33856
7240,33856
7241,33920
7242,33856
7243,33856
7244,33856
7245,33856
7246,33856
7247,33792
7248,33856
7249,33920
7250,33920
7251,33920
7252,33920
7253,33984
7254,33984
7255,33920
7256,33920
7257,33984
7258,33984
7259,33984
7260,33984
7261,34048
7262,34176
7263,34240
7264,34304
7265,34496
7266,34560
7267,34560
7268,34496
7269,34560
7270,34688
7271,34688
7272,34688
7273,34624
7274,34624
7275,34560
7276,34368
7277,34304
7278,34240
7279,34112
7280,33984
7281,33920
7282,33856
7283,33728
7284,33664
7285,33600
7286,33664
7287,33728
7288,33728
7289,33728
7290,33792
7291,33920
7292,33920
7293,33856
7294,33792
7295,33728
7296,33536
7297,33280
7298,33280
7299,33920
7300,35264
7301,37504
7302,40448
7303,43840
7304,46912
7305,48640
7306,48000
7307,45120
7308,40832
7309,36416
7310,32832
7311,30400
7312,29056
7313,28544
7314,28608
7315,29056
7316,29760
7317,30464
7318,31104
7319,31808
7320,32448
7321,32896
7322,33216
7323,33472
7324,33728
7325,33856
7326,33920
7327,33984
7328,33984
7329,34048
7330,33984
7331,33920
7332,33920
7333,33984
7334,33920
7335,33920
7336,33984
7337,34048
7338,34048
7339,34048
7340,34048
7341,34176
7342,34176
7343,34176
7344,34304
7345,34368
7346,34432
7347,34496
7348,34560
7349,34624
7350,34752
7351,34752
7352,34752
7353,34816
7354,34944
7355,34944
7356,34944
7357,35008
7358,35072
7359,35072
7360,35072
7361,35136
7362,35136
7363,35072
7364,35008
7365,34944
7366,35008
7367,35008
7368,34944
7369,34880
7370,34880
7371,34752
7372,34560
7373,34368
7374,34304
7375,34112
7376,33920
7377,33728
7378,33600
7379,33472
7380,33344
7381,33216
7382,33216
7383,33216
7384,33216
7385,33216
7386,33344
7387,33408
7388,33472
7389,33472
7390,33600
7391,33728
7392,33792
7393,33792
7394,33856
7395,33920
7396,33920
7397,33920
7398,33920
7399,33984
7400,34048
7401,33984
7402,33920
7403,33984
7404,33984
7405,33984
7406,33920
7407,33920
7408,33920
7409,33920
7410,33856
7411,33856
7412,33856
7413,33856
7414,33792
7415,33728
7416,33792
7417,33792
7418,33728
7419,33728
7420,33792
7421,33792
7422,33728
7423,33728
7424,33728
7425,33792
7426,33728
7427,33728
7428,33792
7429,33792
7430,33792
7431,33792
7432,33792
7433,33856
7434,33792
7435,33792
7436,33792
7437,33856
7438,33856
7439,33792
7440,33792
7441,33792
7442,33856
7443,33792
7444,33792
7445,33792
7446,33856
7447,33792
7448,33792
7449,33856
7450,33920
7451,33856
7452,33856
7453,33920
7454,33920
7455,33920
7456,33856
7457,33920
7458,33984
7459,33920
7460,33920
7461,33920
7462,33984
7463,33984
7464,33984
7465,33984
7466,33984
7467,33984
7468,33984
7469,33984
7470,34048
7471,34112
7472,34176
7473,34240
7474,34368
7475,34496
7476,34496
7477,34496
7478,34560
7479,34560
7480,34624
7481,34688
7482,34688
7483,34688
7484,34624
7485,34496
7486,34432
7487,34368
7488,34240
7489,34112
7490,34048
7491,33984
7492,33920
7493,33792
7494,33664
7495,33600
7496,33600
7497,33664
7498,33664
7499,33792
7500,33856
7501,33856
7502,33856
7503,33984
7504,33984
7505,33856
7506,33664
7507,33472
7508,33408
7509,33728
7510,34688
7511,36672
7512,39552
7513,42880
7514,46272
7515,48704
7516,49152
7517,47040
7518,42944
7519,38272
7520,34176
7521,31168
7522,29312
7523,28480
7524,28352
7525,28736
7526,29248
7527,30016
7528,30784
7529,31488
7530,32128
7531,32640
7532,33088
7533,33408
7534,33664
7535,33792
7536,33920
7537,33984
7538,33984
7539,33984
7540,33984
7541,33984
7542,33984
7543,33920
7544,33920
7545,33984
7546,34048
7547,33984
7548,34048
7549,34048
7550,34112
7551,34112
7552,34112
7553,34240
7554,34304
7555,34432
7556,34432
7557,34496
7558,34624
7559,34624
7560,34688
7561,34688
7562,34816
7563,34880
7564,34880
7565,34944
7566,35008
7567,35072
7568,35072
7569,35072
7570,35072
7571,35136
7572,35072
7573,35072
7574,35072
7575,35136
7576,35136
7577,35072
7578,35136
7579,35136
7580,35008
7581,34880
7582,34752
7583,34624
7584,34432
7585,34240
7586,34048
7587,33920
7588,33728
7589,33536
7590,33408
7591,33280
7592,33216
7593,33152
7594,33088
7595,33152
7596,33216
7597,33216
7598,33280
7599,33408
7600,33536
7601,33536
7602,33600
7603,33664
7604,33728
7605,33728
7606,33728
7607,33792
7608,33856
7609,33856
7610,33856
7611,33856
7612,33920
7613,33920
7614,33856
7615,33856
7616,33920
7617,33920
7618,33856
7619,33856
7620,33856
7621,33856
7622,33792
7623,33792
7624,33792
7625,33792
7626,33728
7627,33728
7628,33728
7629,33792
7630,33792
7631,33728
7632,33728
7633,33728
7634,33728
7635,33664
7636,33664
7637,33728
7638,33728
7639,33728
7640,33728
7641,33792
7642,33792
7643,33728
7644,33728
7645,33792
7646,33856
7647,33792
7648,33792
7649,33856
7650,33920
7651,33856
7652,33856
7653,33856
7654,33920
7655,33920
7656,33856
7657,33856
7658,33920
7659,33920
7660,33920
7661,33920
7662,33984
7663,33984
7664,33920
7665,33920
7666,33984
7667,33984
7668,33984
7669,33920
7670,33984
7671,33984
7672,33920
7673,33920
7674,33984
7675,33984
7676,33984
7677,33984
7678,33984
7679,34112
7680,34112
7681,34176
7682,34304
7683,34432
7684,34560
7685,34624
7686,34624
7687,34688
7688,34688
7689,34624
7690,34688
7691,34752
7692,34752
7693,34688
7694,34560
7695,34560
7696,34496
7697,34304
7698,34112
7699,34048
7700,34048
7701,33920
7702,33856
7703,33792
7704,33728
7705,33664
7706,33600
7707,33664
7708,33728
7709,33792
7710,33792
7711,33856
7712,33920
7713,33984
7714,33856
7715,33728
7716,33600
7717,33472
7718,33472
7719,33920
7720,35328
7721,37632
7722,40704
7723,44096
7724,47296
7725,49088
7726,48576
7727,45568
7728,41216
7729,36736
7730,32960
7731,30400
7732,28928
7733,28416
7734,28416
7735,28800
7736,29440
7737,30208
7738,30976
7739,31616
7740,32192
7741,32768
7742,33216
7743,33408
7744,33600
7745,33792
7746,33920
7747,33920
7748,33920
7749,33984
7750,33984
7751,33920
7752,33920
7753,33920
7754,33984
7755,33984
7756,33920
7757,33920
7758,33984
7759,34048
7760,34048
7761,34112
7762,34176
7763,34240
7764,34304
7765,34368
7766,34496
7767,34560
7768,34560
7769,34560
7770,34688
7771,34752
7772,34816
7773,34880
7774,34944
7775,35072
7776,35072
7777,35072
7778,35072
7779,35136
7780,35136
7781,35072
7782,35072
7783,35072
7784,35072
7785,35008
7786,35008
7787,35008
7788,35008
7789,34880
7790,34816
7791,34688
7792,34560
7793,34368
7794,34240
7795,34048
7796,33920
7797,33728
7798,33472
7799,33408
7800,33344
7801,33216
7802,33152
7803,33152
7804,33152
7805,33216
7806,33216
7807,33280
7808,33408
7809,33472
7810,33472
7811,33536
7812,33600
7813,33728
7814,33728
7815,33792
7816,33856
7817,33856
7818,33856
7819,33792
7820,33856
7821,33920
7822,33856
7823,33792
7824,33856
7825,33920
7826,33920
7827,33856
7828,33856
7829,33856
7830,33856
7831,33792
7832,33792
7833,33792
7834,33856
7835,33792
7836,33792
7837,33792
7838,33792
7839,33728
7840,33664
7841,33664
7842,33728
7843,33664
7844,33664
7845,33664
7846,33728
7847,33728
7848,33664
7849,33728
7850,33728
7851,33728
7852,33728
7853,33728
7854,33728
7855,33728
7856,33728
7857,33728
7858,33792
7859,33856
7860,33792
7861,33792
7862,33856
7863,33856
7864,33792
7865,33728
7866,33792
7867,33856
7868,33856
7869,33856
7870,33856
7871,33920
7872,33920
7873,33856
7874,33856
7875,33920
7876,33856
7877,33856
7878,33856
7879,33920
7880,33920
7881,33920
7882,33984
7883,34112
7884,34176
7885,34240
7886,34368
7887,34496
7888,34560
7889,34496
7890,34496
7891,34496
7892,34624
7893,34688
7894,34624
7895,34624
7896,34624
7897,34496
7898,34304
7899,34176
7900,34112
7901,33984
7902,33856
7903,33792
7904,33728
7905,33664
7906,33536
7907,33536
7908,33536
7909,33600
7910,33600
7911,33664
7912,33792
7913,33856
7914,33856
7915,33856
7916,33856
7917,33728
7918,33472
7919,33280
7920,33216
7921,33664
7922,35200
7923,37056
7924,40000
7925,43392
7926,46656
7927,48704
7928,48576
7929,45952
7930,41728
7931,37184
7932,33408
7933,30720
7934,29184
7935,28480
7936,28480
7937,28864
7938,29568
7939,30208
7940,30912
7941,31616
7942,32256
7943,32704
7944,33088
7945,33408
7946,33728
7947,33856
7948,33920
7949,33984
7950,34048
7951,34048
7952,33984
7953,33920
7954,33984
7955,33984
7956,33920
7957,33920
7958,33984
7959,34048
7960,33984
7961,34048
7962,34112
7963,34176
7964,34176
7965,34240
7966,34304
7967,34432
7968,34432
7969,34432
7970,34560
7971,34688
7972,34688
7973,34752
7974,34816
7975,34944
7976,35008
7977,35008
7978,35072
7979,35136
7980,35136
7981,35136
7982,35136
7983,35136
7984,35136
7985,35136
7986,35072
7987,35072
7988,35136
7989,35072
7990,35008
7991,34944
7992,34880
7993,34752
7994,34560
7995,34432
7996,34304
7997,34048
7998,33792
7999,33600
8000,33472
8001,33344
8002,33216
8003,33152
8004,33152
8005,33152
8006,33088
8007,33152
8008,33280
8009,33344
8010,33408
8011,33472
8012,33600
8013,33664
8014,33664
8015,33728
8016,33792
8017,33856
8018,33856
8019,33856
8020,33856
8021,33920
8022,33920
8023,33920
8024,33920
8025,33920
8026,33920
8027,33856
8028,33856
8029,33920
8030,33920
8031,33856
8032,33856
8033,33856
8034,33856
8035,33792
8036,33792
8037,33856
8038,33856
8039,33792
8040,33728
8041,33792
8042,33792
8043,33792
8044,33728
8045,33792
8046,33856
8047,33792
8048,33728
8049,33728
8050,33792
8051,33792
8052,33792
8053,33792
8054,33856
8055,33920
8056,33856
8057,33792
8058,33856
8059,33856
8060,33792
8061,33792
8062,33856
8063,33856
8064,33856
8065,33856
8066,33920
8067,33920
8068,33856
8069,33856
8070,33856
8071,33920
8072,33984
8073,33920
8074,33984
8075,34048
8076,34048
8077,33984
8078,33984
8079,34048
8080,34048
8081,34048
8082,33984
8083,34048
8084,34048
8085,33984
8086,33984
8087,34048
8088,34048
8089,34048
8090,34048
8091,34048
8092,34112
8093,34112
8094,34112
8095,34112
8096,34176
8097,34176
8098,34112
8099,34112
8100,34176
8101,34176
8102,34112
8103,34112
8104,34176
8105,34240
8106,34304
8107,34368
8108,34496
8109,34688
8110,34688
8111,34624
8112,34688
8113,34752
8114,34752
8115,34816
8116,34816
8117,34816
8118,34688
8119,34560
8120,34432
8121,34368
8122,34240
8123,34112
8124,33984
8125,33984
8126,33856
8127,33728
8128,33664
8129,33664
8130,33664
8131,33664
8132,33664
8133,33728
8134,33792
8135,33792
8136,33856
8137,33856
8138,33920
8139,33792
8140,33536
8141,33408
8142,33344
8143,33600
8144,34560
8145,36544
8146,39296
8147,42688
8148,46080
8149,48576
8150,49152
8151,47168
8152,43136
8153,38464
8154,34304
8155,31232
8156,29312
8157,28416
8158,28288
8159,28608
8160,29184
8161,29824
8162,30848
8163,31360
8164,31936
8165,32448
8166,32896
8167,33280
8168,33536
8169,33664
8170,33792
8171,33920
8172,33984
8173,33920
8174,33856
8175,33920
8176,33920
8177,33856
8178,33792
8179,33856
8180,33856
8181,33856
8182,33856
8183,33920
8184,33984
8185,33984
8186,34048
8187,34112
8188,34240
8189,34240
8190,34304
8191,34368
8192,34496
8193,34560
8194,34560
8195,34688
8196,34752
8197,34816
8198,34880
8199,34880
8200,35008
8201,35072
8202,35072
8203,35072
8204,35136
8205,35136
8206,35136
8207,35072
8208,35136
8209,35136
8210,35136
8211,35072
8212,35072
8213,35072
8214,35008
8215,34880
8216,34752
8217,34624
8218,34432
8219,34176
8220,33984
8221,33792
8222,33536
8223,33344
8224,33216
8225,33152
8226,33088
8227,33024
8228,33024
8229,33088
8230,33152
8231,33216
8232,33280
8233,33344
8234,33472
8235,33472
8236,33536
8237,33664
8238,33728
8239,33728
8240,33728
8241,33728
8242,33792
8243,33792
8244,33792
8245,33792
8246,33856
8247,33856
8248,33856
8249,33856
8250,33856
8251,33856
8252,33792
8253,33792
8254,33792
8255,33792
8256,33792
8257,33792
8258,33792
8259,33792
8260,33792
8261,33728
8262,33792
8263,33792
8264,33792
8265,33728
8266,33728
8267,33792
8268,33792
8269,33728
8270,33728
8271,33792
8272,33792
8273,33792
8274,33792
8275,33792
8276,33792
8277,33792
8278,33728
8279,33792
8280,33792
8281,33792
8282,33792
8283,33856
8284,33856
8285,33856
8286,33792
8287,33792
8288,33856
8289,33792
8290,33792
8291,33792
8292,33856
8293,33856
8294,33856
8295,33856
8296,33856
8297,33920
8298,33856
8299,33856
8300,33920
8301,33984
8302,33920
8303,33920
8304,33984
8305,34048
8306,33984
8307,33984
8308,33984
8309,34048
8310,33984
8311,33984
8312,33984
8313,34048
8314,33984
8315,33984
8316,33984
8317,34048
8318,34048
8319,34048
8320,34048
8321,34048
8322,34112
8323,34048
8324,34048
8325,34112
8326,34112
8327,34112
8328,34112
8329,34176
8330,34304
8331,34368
8332,34432
8333,34624
8334,34688
8335,34688
8336,34688
8337,34688
8338,34816
8339,34816
8340,34816
8341,34752
8342,34688
8343,34560
8344,34432
8345,34304
8346,34176
8347,34112
8348,33984
8349,33920
8350,33920
8351,33856
8352,33664
8353,33600
8354,33600
8355,33664
8356,33664
8357,33664
8358,33792
8359,33856
8360,33856
8361,33856
8362,33920
8363,33856
8364,33664
8365,33408
8366,33344
8367,33536
8368,34304
8369,35904
8370,38656
8371,42048
8372,46656
8373,48256
8374,49216
8375,47936
8376,44352
8377,39680
8378,35328
8379,31936
8380,29760
8381,28672
8382,28288
8383,28480
8384,29056
8385,29696
8386,30464
8387,31360
8388,31808
8389,32320
8390,32768
8391,33152
8392,33472
8393,33664
8394,33792
8395,33920
8396,33984
8397,33984
8398,33920
8399,33920
8400,33920
8401,33984
8402,33856
8403,33856
8404,33856
8405,33920
8406,33920
8407,33920
8408,33984
8409,34112
8410,34112
8411,34112
8412,34176
8413,34304
8414,34368
8415,34368
8416,34432
8417,34560
8418,34624
8419,34688
8420,34752
8421,34880
8422,35008
8423,35008
8424,35072
8425,35136
8426,35200
8427,35200
8428,35136
8429,35200
8430,35264
8431,35200
8432,35136
8433,35136
8434,35136
8435,35136
8436,35072
8437,35072
8438,35008
8439,34880
8440,34688
8441,34560
8442,34432
8443,34240
8444,33920
8445,33728
8446,33536
8447,33344
8448,33216
8449,33088
8450,33024
8451,33024
8452,33024
8453,33024
8454,33088
8455,33216
8456,33280
8457,33344
8458,33408
8459,33536
8460,33536
8461,33600
8462,33664
8463,33728
8464,33728
8465,33728
8466,33728
8467,33792
8468,33792
8469,33792
8470,33792
8471,33856
8472,33792
8473,33792
8474,33728
8475,33792
8476,33856
8477,33792
8478,33792
8479,33792
8480,33856
8481,33792
8482,33792
8483,33792
8484,33792
8485,33792
8486,33728
8487,33792
8488,33792
8489,33856
8490,33792
8491,33792
8492,33792
8493,33728
8494,33664
8495,33600
8496,33664
8497,33728
8498,33664
8499,33664
8500,33664
8501,33728
8502,33792
8503,33728
8504,33728
8505,33792
8506,33792
8507,33792
8508,33792
8509,33856
8510,33856
8511,33792
8512,33792
8513,33856
8514,33856
8515,33792
8516,33792
8517,33856
8518,33856
8519,33856
8520,33856
8521,33920
8522,33920
8523,33920
8524,33856
8525,33920
8526,33984
8527,33984
8528,33984
8529,33984
8530,33984
8531,33920
8532,33920
8533,33984
8534,34048
8535,33984
8536,33920
8537,33984
8538,33984
8539,33984
8540,33984
8541,34048
8542,34048
8543,34048
8544,34048
8545,34048
8546,34176
8547,34176
8548,34240
8549,34368
8550,34560
8551,34496
8552,34560
8553,34496
8554,34624
8555,34688
8556,34688
8557,34688
8558,34688
8559,34624
8560,34496
8561,34368
8562,34368
8563,34240
8564,34048
8565,33984
8566,33984
8567,33920
8568,33728
8569,33600
8570,33664
8571,33664
8572,33664
8573,33664
8574,33728
8575,33856
8576,33856
8577,33792
8578,33856
8579,33920
8580,33856
8581,33600
8582,33536
8583,33344
8584,33472
8585,34112
8586,35712
8587,38144
8588,41280
8589,44544
8590,47360
8591,48576
8592,47424
8593,43968
8594,39552
8595,35264
8596,34112
8597,30912
8598,28864
8599,28544
8600,28736
8601,29248
8602,29888
8603,30592
8604,31296
8605,31872
8606,32384
8607,32832
8608,33216
8609,33472
8610,33664
8611,33664
8612,33920
8613,33920
8614,33920
8615,33920
8616,33984
8617,33984
8618,33920
8619,33920
8620,33920
8621,33984
8622,33984
8623,33920
8624,34048
8625,34112
8626,34048
8627,34112
8628,34176
8629,34304
8630,34368
8631,34368
8632,34432
8633,34560
8634,34688
8635,34688
8636,34752
8637,34880
8638,34880
8639,34880
8640,34944
8641,35008
8642,35072
8643,35072
8644,35072
8645,35136
8646,35136
8647,35072
8648,35008
8649,35008
8650,35072
8651,35008
8652,35008
8653,35008
8654,35008
8655,34944
8656,34752
8657,34688
8658,34560
8659,34432
8660,34176
8661,33920
8662,33792
8663,33600
8664,33344
8665,33216
8666,33152
8667,33152
8668,33024
8669,33024
8670,33088
8671,33152
8672,33216
8673,33280
8674,33408
8675,33536
8676,33600
8677,33600
8678,33728
8679,33792
8680,33856
8681,33792
8682,33856
8683,33920
8684,33984
8685,33920
8686,33920
8687,33984
8688,33984
8689,33920
8690,33920
8691,33984
8692,33984
8693,33920
8694,33920
8695,33984
8696,33984
8697,33920
8698,33920
8699,33920
8700,33920
8701,33856
8702,33856
8703,33856
8704,33856
8705,33856
8706,33792
8707,33792
8708,33792
8709,33792
8710,33728
8711,33728
8712,33792
8713,33792
8714,33728
8715,33728
8716,33792
8717,33856
8718,33792
8719,33792
8720,33792
8721,33856
8722,33856
8723,33792
8724,33856
8725,33920
8726,33856
8727,33792
8728,33856
8729,33856
8730,33856
8731,33856
8732,33856
8733,33920
8734,33920
8735,33856
8736,33856
8737,33920
8738,33920
8739,33920
8740,33920
8741,33920
8742,33984
8743,33920
8744,33920
8745,33984
8746,33984
8747,33984
8748,33984
8749,33984
8750,34048
8751,33984
8752,33984
8753,33984
8754,34048
8755,34112
8756,34048
8757,34048
8758,34048
8759,34112
8760,34048
8761,34048
8762,34112
8763,34112
8764,34112
8765,34112
8766,34240
8767,34368
8768,34432
8769,34496
8770,34624
8771,34752
8772,34752
8773,34688
8774,34752
8775,34816
8776,34816
8777,34816
8778,34752
8779,34752
8780,34624
8781,34496
8782,34368
8783,34304
8784,34176
8785,34048
8786,33984
8787,33984
8788,33856
8789,33728
8790,33600
8791,33664
8792,33728
8793,33664
8794,33664
8795,33728
8796,33856
8797,33856
8798,33920
8799,33920
8800,33920
8801,33728
8802,33472
8803,33344
8804,33472
8805,34176
8806,35712
8807,38208
8808,41408
8809,44864
8810,47872
8811,49280
8812,48256
8813,44864
8814,40256
8815,35840
8816,32320
8817,30016
8818,28736
8819,28288
8820,28480
8821,28992
8822,29632
8823,30336
8824,31040
8825,31744
8826,32320
8827,32768
8828,33152
8829,33472
8830,33664
8831,33728
8832,33856
8833,33984
8834,33984
8835,33920
8836,33920
8837,33920
8838,33920
8839,33856
8840,33856
8841,33920
8842,33920
8843,33856
8844,33856
8845,33920
8846,34048
8847,34048
8848,34048
8849,34176
8850,34304
8851,34304
8852,34368
8853,34432
8854,34560
8855,34624
8856,34688
8857,34752
8858,34880
8859,34944
8860,35008
8861,35072
8862,35136
8863,35200
8864,35136
8865,35136
8866,35200
8867,35200
8868,35136
8869,35072
8870,35072
8871,35136
8872,35136
8873,35072
8874,35072
8875,35008
8876,34880
8877,34688
8878,34496
8879,34368
8880,34112
8881,33792
8882,33600
8883,33408
8884,33280
8885,33088
8886,33024
8887,33024
8888,33024
8889,32960
8890,32960
8891,33088
8892,33152
8893,33152
8894,33216
8895,33408
8896,33472
8897,33536
8898,33600
8899,33664
8900,33792
8901,33792
8902,33792
8903,33792
8904,33856
8905,33792
8906,33792
8907,33792
8908,33792
8909,33856
8910,33856
8911,33792
8912,33792
8913,33792
8914,33728
8915,33728
8916,33792
8917,33792
8918,33792
8919,33728
8920,33728
8921,33792
8922,33792
8923,33728
8924,33728
8925,33792
8926,33728
8927,33728
8928,33728
8929,33792
8930,33728
8931,33664
8932,33664
8933,33728
8934,33728
8935,33664
8936,33664
8937,33728
8938,33792
8939,33728
8940,33728
8941,33792
8942,33856
8943,33856
8944,33792
8945,33792
8946,33856
8947,33856
8948,33792
8949,33856
8950,33856
8951,33856
8952,33792
8953,33792
8954,33856
8955,33856
8956,33792
8957,33792
8958,33920
8959,33920
8960,33920
8961,33920
8962,33984
8963,33984
8964,33920
8965,33856
8966,33920
8967,33984
8968,33984
8969,33920
8970,33984
8971,33984
8972,33984
8973,33920
8974,33920
8975,33984
8976,33984
8977,33920
8978,33984
8979,33984
8980,33984
8981,33984
8982,33984
8983,34048
8984,34112
8985,34112
8986,34176
8987,34304
8988,34432
8989,34496
8990,34496
8991,34560
8992,34560
8993,34560
8994,34624
8995,34688
8996,34752
8997,34688
8998,34560
8999,34496
9000,34432
9001,34304
9002,34112
9003,33984
9004,33984
9005,33920
9006,33792
9007,33664
9008,33664
9009,33664
9010,33600
9011,33600
9012,33664
9013,33728
9014,33792
9015,33792
9016,33856
9017,33920
9018,33920
9019,33728
9020,33536
9021,33408
9022,33344
9023,33600
9024,34624
9025,36544
9026,39232
9027,42496
9028,45824
9029,48384
9030,48896
9031,46976
9032,43008
9033,38464
9034,34368
9035,31360
9036,29440
9037,28544
9038,28416
9039,28672
9040,29248
9041,30016
9042,30720
9043,31424
9044,32000
9045,32576
9046,33024
9047,33344
9048,33536
9049,33728
9050,33920
9051,33984
9052,33920
9053,33920
9054,33984
9055,33984
9056,33920
9057,33920
9058,33920
9059,33920
9060,33920
9061,33920
9062,33984
9063,34048
9064,34048
9065,34048
9066,34112
9067,34240
9068,34304
9069,34304
9070,34432
9071,34496
9072,34560
9073,34624
9074,34688
9075,34816
9076,34816
9077,34880
9078,34944
9079,35072
9080,35136
9081,35136
9082,35200
9083,35200
9084,35200
9085,35136
9086,35072
9087,35136
9088,35136
9089,35136
9090,35072
9091,35072
9092,35072
9093,35008
9094,34880
9095,34752
9096,34624
9097,34432
9098,34240
9099,33984
9100,33792
9101,33600
9102,33344
9103,33216
9104,33152
9105,33024
9106,32960
9107,32960
9108,33024
9109,33088
9110,33088
9111,33088
9112,33216
9113,33280
9114,33344
9115,33408
9116,33536
9117,33664
9118,33664
9119,33728
9120,33792
9121,33856
9122,33856
9123,33792
9124,33792
9125,33856
9126,33856
9127,33792
9128,33792
9129,33792
9130,33792
9131,33792
9132,33792
9133,33792
9134,33792
9135,33792
9136,33728
9137,33792
9138,33856
9139,33792
9140,33792
9141,33792
9142,33792
9143,33792
9144,33728
9145,33728
9146,33728
9147,33728
9148,33664
9149,33664
9150,33728
9151,33728
9152,33664
9153,33664
9154,33728
9155,33728
9156,33728
9157,33664
9158,33728
9159,33792
9160,33792
9161,33792
9162,33792
9163,33856
9164,33792
9165,33792
9166,33728
9167,33792
9168,33792
9169,33728
9170,33792
9171,33856
9172,33856
9173,33792
9174,33792
9175,33856
9176,33856
9177,33856
9178,33856
9179,33920
9180,33984
9181,33920
9182,33920
9183,33920
9184,33984
9185,33920
9186,33856
9187,33920
9188,33984
9189,33984
9190,33984
9191,33984
9192,34048
9193,34048
9194,33984
9195,33984
9196,34048
9197,33984
9198,33984
9199,33984
9200,34048
9201,34112
9202,34176
9203,34240
9204,34432
9205,34496
9206,34560
9207,34560
9208,34624
9209,34624
9210,34688
9211,34688
9212,34752
9213,34752
9214,34624
9215,34496
9216,34432
9217,34368
9218,34240
9219,34112
9220,34048
9221,34048
9222,33920
9223,33792
9224,33664
9225,33664
9226,33664
9227,33664
9228,33728
9229,33856
9230,33920
9231,33920
9232,33856
9233,33920
9234,33984
9235,33856
9236,33664
9237,33472
9238,33344
9239,33408
9240,34048
9241,35584
9242,38080
9243,41088
9244,44416
9245,47424
9246,48896
9247,48000
9248,44736
9249,40320
9250,35968
9251,32512
9252,30208
9253,28864
9254,28480
9255,28608
9256,29056
9257,29696
9258,30464
9259,31168
9260,31744
9261,32320
9262,32896
9263,33280
9264,33600
9265,33728
9266,33920
9267,33984
9268,33984
9269,33984
9270,33984
9271,33984
9272,33984
9273,33920
9274,33920
9275,33984
9276,33984
9277,33920
9278,33920
9279,33984
9280,34048
9281,34048
9282,34048
9283,34176
9284,34240
9285,34304
9286,34304
9287,34432
9288,34560
9289,34624
9290,34688
9291,34752
9292,34880
9293,34944
9294,34944
9295,35072
9296,35136
9297,35200
9298,35200
9299,35200
9300,35264
9301,35264
9302,35264
9303,35200
9304,35200
9305,35200
9306,35136
9307,35072
9308,35072
9309,35072
9310,34944
9311,34752
9312,34688
9313,34496
9314,34304
9315,34048
9316,33856
9317,33664
9318,33472
9319,33216
9320,33152
9321,33088
9322,33024
9323,32960
9324,32960
9325,33024
9326,33088
9327,33152
9328,33152
9329,33344
9330,33408
9331,33472
9332,33536
9333,33600
9334,33728
9335,33728
9336,33728
9337,33792
9338,33856
9339,33856
9340,33856
9341,33856
9342,33920
9343,33920
9344,33856
9345,33856
9346,33920
9347,33920
9348,33792
9349,33792
9350,33792
9351,33856
9352,33792
9353,33792
9354,33856
9355,33856
9356,33856
9357,33792
9358,33792
9359,33856
9360,33792
9361,33728
9362,33792
9363,33792
9364,33792
9365,33728
9366,33728
9367,33792
9368,33792
9369,33792
9370,33792
9371,33792
9372,33792
9373,33728
9374,33728
9375,33792
9376,33792
9377,33792
9378,33728
9379,33792
9380,33856
9381,33792
9382,33792
9383,33856
9384,33856
9385,33856
9386,33792
9387,33856
9388,33920
9389,33920
9390,33856
9391,33856
9392,33920
9393,33920
9394,33856
9395,33920
9396,33984
9397,33984
9398,33984
9399,33984
9400,33984
9401,33984
9402,33984
9403,33984
9404,34048
9405,34048
9406,34048
9407,33984
9408,34048
9409,34112
9410,34048
9411,34048
9412,34112
9413,34176
9414,34176
9415,34112
9416,34176
9417,34304
9418,34432
9419,34496
9420,34624
9421,34688
9422,34752
9423,34688
9424,34688
9425,34752
9426,34880
9427,34816
9428,34752
9429,34752
9430,34688
9431,34560
9432,34368
9433,34304
9434,34240
9435,34112
9436,34048
9437,33984
9438,33920
9439,33792
9440,33664
9441,33664
9442,33728
9443,33792
9444,33792
9445,33856
9446,33920
9447,33984
9448,33984
9449,33984
9450,33984
9451,33792
9452,33600
9453,33344
9454,33408
9455,33984
9456,35328
9457,37632
9458,40768
9459,44288
9460,47488
9461,49280
9462,48832
9463,45888
9464,41408
9465,36800
9466,33024
9467,30400
9468,28928
9469,28288
9470,28352
9471,28800
9472,29504
9473,30208
9474,30912
9475,31616
9476,32320
9477,32768
9478,33152
9479,33472
9480,33728
9481,33792
9482,33856
9483,33984
9484,34048
9485,34048
9486,33984
9487,33984
9488,33984
9489,33984
9490,33920
9491,33920
9492,33984
9493,33984
9494,33984
9495,34048
9496,34112
9497,34176
9498,34176
9499,34240
9500,34368
9501,34432
9502,34432
9503,34496
9504,34624
9505,34688
9506,34752
9507,34816
9508,34944
9509,35072
9510,35072
9511,35136
9512,35200
9513,35328
9514,35328
9515,35264
9516,35264
9517,35328
9518,35328
9519,35264
9520,35264
9521,35264
9522,35264
9523,35200
9524,35136
9525,35072
9526,34944
9527,34752
9528,34496
9529,34304
9530,34112
9531,33856
9532,33664
9533,33472
9534,33344
9535,33152
9536,33024
9537,32960
9538,32960
9539,32960
9540,32960
9541,33088
9542,33216
9543,33280
9544,33344
9545,33472
9546,33536
9547,33600
9548,33664
9549,33664
9550,33728
9551,33792
9552,33792
9553,33792
9554,33856
9555,33856
9556,33856
9557,33792
9558,33856
9559,33856
9560,33856
9561,33792
9562,33792
9563,33856
9564,33856
9565,33856
9566,33856
9567,33856
9568,33856
9569,33792
9570,33792
9571,33856
9572,33856
9573,33792
9574,33792
9575,33792
9576,33792
9577,33728
9578,33728
9579,33792
9580,33856
9581,33792
9582,33728
9583,33792
9584,33792
9585,33792
9586,33728
9587,33728
9588,33792
9589,33792
9590,33728
9591,33728
9592,33856
9593,33856
9594,33856
9595,33792
9596,33856
9597,33856
9598,33856
9599,33856
9600,33920
9601,33920
9602,33920
9603,33856
9604,33920
9605,33984
9606,33920
9607,33920
9608,33920
9609,33984
9610,33984
9611,33920
9612,33920
9613,33984
9614,33984
9615,33984
9616,33984
9617,33984
9618,34048
9619,33984
9620,33984
9621,34048
9622,34048
9623,34048
9624,34048
9625,34048
9626,34048
9627,34048
9628,34048
9629,34048
9630,34112
9631,34112
9632,34112
9633,34112
9634,34240
9635,34304
9636,34368
9637,34496
9638,34624
9639,34624
9640,34560
9641,34560
9642,34624
9643,34688
9644,34688
9645,34688
9646,34688
9647,34624
9648,34496
9649,34432
9650,34304
9651,34240
9652,34112
9653,33984
9654,33920
9655,33856
9656,33792
9657,33664
9658,33664
9659,33664
9660,33664
9661,33664
9662,33728
9663,33792
9664,33792
9665,33792
9666,33856
9667,33920
9668,33792
9669,33600
9670,33408
9671,33344
9672,33600
9673,34496
9674,36352
9675,39040
9676,42368
9677,45696
9678,48320
9679,49024
9680,47296
9681,43456
9682,38848
9683,34688
9684,31552
9685,29568
9686,28608
9687,28352
9688,28672
9689,29184
9690,29888
9691,30592
9692,31360
9693,31936
9694,32448
9695,32896
9696,33280
9697,33536
9698,33728
9699,33856
9700,33920
9701,33984
9702,33920
9703,33920
9704,33920
9705,33920
9706,33920
9707,33856
9708,33856
9709,33920
9710,33920
9711,33920
9712,33984
9713,34048
9714,34048
9715,34048
9716,34112
9717,34240
9718,34304
9719,34368
9720,34432
9721,34560
9722,34624
9723,34688
9724,34752
9725,34880
9726,35008
9727,35072
9728,35072
9729,35200
9730,35264
9731,35200
9732,35200
9733,35264
9734,35328
9735,35264
9736,35200
9737,35136
9738,35200
9739,35136
9740,35072
9741,35072
9742,35008
9743,34880
9744,34752
9745,34560
9746,34368
9747,34176
9748,33920
9749,33664
9750,33536
9751,33344
9752,33152
9753,33024
9754,32960
9755,32960
9756,32960
9757,32896
9758,32960
9759,33024
9760,33088
9761,33152
9762,33216
9763,33344
9764,33472
9765,33472
9766,33536
9767,33664
9768,33664
9769,33664
9770,33728
9771,33728
9772,33792
9773,33792
9774,33728
9775,33792
9776,33856
9777,33856
9778,33792
9779,33792
9780,33856
9781,33792
9782,33792
9783,33792
9784,33792
9785,33792
9786,33728
9787,33728
9788,33792
9789,33792
9790,33728
9791,33792
9792,33792
9793,33856
9794,33792
9795,33792
9796,33792
9797,33792
9798,33728
9799,33664
9800,33664
9801,33664
9802,33664
9803,33600
9804,33664
9805,33728
9806,33792
9807,33728
9808,33792
9809,33856
9810,33856
9811,33856
9812,33792
9813,33856
9814,33792
9815,33728
9816,33792
9817,33792
9818,33792
9819,33792
9820,33792
9821,33792
9822,33856
9823,33792
9824,33792
9825,33856
9826,33920
9827,33920
9828,33856
9829,33920
9830,34048
9831,34048
9832,34048
9833,34112
9834,34240
9835,34304
9836,34304
9837,34432
9838,34560
9839,34560
9840,34496
9841,34496
9842,34624
9843,34688
9844,34688
9845,34688
9846,34688
9847,34688
9848,34496
9849,34368
9850,34304
9851,34176
9852,34048
9853,33920
9854,33856
9855,33856
9856,33728
9857,33664
9858,33600
9859,33664
9860,33664
9861,33664
9862,33728
9863,33856
9864,33920
9865,33920
9866,33984
9867,34048
9868,33984
9869,33728
9870,33536
9871,33408
9872,33664
9873,34304
9874,35904
9875,38528
9876,41792
9877,45184
9878,48064
9879,49280
9880,48000
9881,44352
9882,39744
9883,35392
9884,32064
9885,29760
9886,28672
9887,28288
9888,28544
9889,29056
9890,29696
9891,30464
9892,31232
9893,31872
9894,32384
9895,32832
9896,33280
9897,33600
9898,33728
9899,33856
9900,33984
9901,34048
9902,33984
9903,33920
9904,33920
9905,33920
9906,33920
9907,33920
9908,33920
9909,33984
9910,33984
9911,33920
9912,33984
9913,34048
9914,34048
9915,34112
9916,34112
9917,34240
9918,34304
9919,34368
9920,34432
9921,34496
9922,34560
9923,34624
9924,34688
9925,34816
9926,34944
9927,35008
9928,35008
9929,35136
9930,35264
9931,35328
9932,35264
9933,35328
9934,35328
9935,35264
9936,35200
9937,35200
9938,35200
9939,35200
9940,35136
9941,35072
9942,35072
9943,34944
9944,34688
9945,34432
9946,34240
9947,33984
9948,33792
9949,33600
9950,33408
9951,33280
9952,33088
9953,32960
9954,32896
9955,32960
9956,32896
9957,32960
9958,33024
9959,33152
9960,33280
9961,33280
9962,33408
9963,33536
9964,33600
9965,33600
9966,33664
9967,33728
9968,33792
9969,33792
9970,33792
9971,33856
9972,33920
9973,33856
9974,33856
9975,33856
9976,33920
9977,33856
9978,33856
9979,33920
9980,33920
9981,33920
9982,33920
9983,33920
9984,33984
9985,33984
9986,33920
9987,33920
9988,33920
9989,33984
9990,33920
9991,33920
9992,33984
9993,33920
9994,33792
9995,33792
9996,33792
9997,33856
9998,33792
9999,33792
10000,33856
10001,33920
10002,33920
10003,33856
10004,33856
10005,33856
10006,33792
10007,33792
10008,33792
10009,33792
10010,33856
10011,33856
10012,33856
10013,33920
10014,33856
10015,33728
10016,33728
10017,33728
10018,33792
10019,33792
10020,33792
10021,33856
10022,33984
10023,33856
10024,33792
10025,33792
10026,33856
10027,33856
10028,33792
10029,33856
10030,33920
10031,33920
10032,33856
10033,33856
10034,33856
10035,33856
10036,33856
10037,33920
10038,34048
10039,34176
10040,34240
10041,34368
10042,34496
10043,34624
10044,34560
10045,34560
10046,34624
10047,34688
10048,34688
10049,34688
10050,34752
10051,34688
10052,34624
10053,34496
10054,34432
10055,34368
10056,34176
10057,34112
10058,34112
10059,34048
10060,33856
10061,33728
10062,33728
10063,33792
10064,33728
10065,33728
10066,33728
10067,33792
10068,33856
10069,33792
10070,33792
10071,33856
10072,33856
10073,33664
10074,33408
10075,33280
10076,33344
10077,33728
10078,34944
10079,37184
10080,40256
10081,43840
10082,48000
10083,49344
10084,49280
10085,46528
10086,42240
10087,37568
10088,33664
10089,30848
10090,29120
10091,28352
10092,28288
10093,28672
10094,29248
10095,29952
10096,30784
10097,31552
10098,32128
10099,32640
10100,33088
10101,33408
10102,33664
10103,33856
10104,33984
10105,34048
10106,34048
10107,33984
10108,33920
10109,33920
10110,33856
10111,33792
10112,33856
10113,33856
10114,33920
10115,33856
10116,33856
10117,33984
10118,33984
10119,34048
10120,34112
10121,34176
10122,34240
10123,34304
10124,34368
10125,34496
10126,34560
10127,34560
10128,34560
10129,34624
10130,34752
10131,34816
10132,34880
10133,34944
10134,35072
10135,35136
10136,35136
10137,35136
10138,35200
10139,35264
10140,35264
10141,35200
10142,35328
10143,35328
10144,35264
10145,35200
10146,35200
10147,35136
10148,35008
10149,34816
10150,34624
10151,34432
10152,34176
10153,33856
10154,33600
10155,33408
10156,33216
10157,33024
10158,32960
10159,32896
10160,32896
10161,32896
10162,33088
10163,33280
10164,33280
10165,33280
10166,33344
10167,33472
10168,33472
10169,33536
10170,33600
10171,33664
10172,33664
10173,33600
10174,33536
10175,33600
10176,33664
10177,33600
10178,33472
10179,33472
10180,33536
10181,33536
10182,33536
10183,33536
10184,33664
10185,33664
10186,33664
10187,33728
10188,33728
10189,33728
10190,33664
10191,33664
10192,33728
10193,33792
10194,33792
10195,33792
10196,33856
10197,33856
10198,33792
10199,33728
10200,33792
10201,33792
10202,33728
10203,33664
10204,33728
10205,33792
10206,33728
10207,33728
10208,33792
10209,33792
10210,33792
10211,33728
10212,33728
10213,33856
10214,33920
10215,33920
10216,33920
10217,33920
10218,33920
10219,33856
10220,33856
10221,33792
10222,33792
10223,33664
10224,33664
10225,33728
10226,33856
10227,33856
10228,33920
10229,34048
10230,34240
10231,34368
10232,34368
10233,34368
10234,34432
10235,34688
10236,34816
10237,34816
10238,34816
10239,34688
10240,34560
10241,34368
10242,34240
10243,34048
10244,33920
10245,33792
10246,33792
10247,33728
10248,33536
10249,33408
10250,33408
10251,33472
10252,33472
10253,33472
10254,33472
10255,33536
10256,33472
10257,33472
10258,33536
10259,33664
10260,33664
10261,33600
10262,33472
10263,33408
10264,33408
10265,33728
10266,34752
10267,36800
10268,39552
10269,42816
10270,46208
10271,48448
10272,48512
10273,46144
10274,42112
10275,37760
10276,33920
10277,30592
10278,29632
10279,28928
10280,28800
10281,29056
10282,29504
10283,30208
10284,30912
10285,31552
10286,32064
10287,32576
10288,33088
10289,33408
10290,33600
10291,33792
10292,33920
10293,33856
10294,33728
10295,33664
10296,33728
10297,33856
10298,33856
10299,33792
10300,33920
10301,33920
10302,33856
10303,33856
10304,33984
10305,34048
10306,34112
10307,34176
10308,34240
10309,34368
10310,34432
10311,34432
10312,34496
10313,34560
10314,34624
10315,34752
10316,34752
10317,34752
10318,34752
10319,34816
10320,34816
10321,34816
10322,34944
10323,34944
10324,35008
10325,35072
10326,35072
10327,35008
10328,34944
10329,34880
10330,34880
10331,34816
10332,34624
10333,34496
10334,34368
10335,34240
10336,34240
10337,34304
10338,34304
10339,34176
10340,34048
10341,33856
10342,33664
10343,33472
10344,33216
10345,32960
10346,32832
10347,32768
10348,32704
10349,32960
10350,33216
10351,33344
10352,33344
10353,33280
10354,33344
10355,33472
10356,33600
10357,33664
10358,33664
10359,33728
10360,33664
10361,33600
10362,33664
10363,33664
10364,33664
10365,33600
10366,33536
10367,33600
10368,33728
10369,33792
10370,33856
10371,33856
10372,33728
10373,33728
10374,33856
10375,33920
10376,33920
10377,33920
10378,33920
10379,33920
10380,33728
10381,33664
10382,33664
10383,33728
10384,33792
10385,33792
10386,33728
10387,33600
10388,33472
10389,33728
10390,34304
10391,34752
10392,34944
10393,34944
10394,35008
10395,35008
10396,35008
10397,35136
10398,35072
10399,34944
10400,34944
10401,34880
10402,34880
10403,35008
10404,35200
10405,35392
10406,35520
10407,35584
10408,35648
10409,35584
10410,35456
10411,35328
10412,35264
10413,35136
10414,35008
10415,34944
10416,34816
10417,34816
10418,34688
10419,34496
10420,34368
10421,34368
10422,34496
10423,34496
10424,34560
10425,34560
10426,34496
10427,34496
10428,34560
10429,34560
10430,34496
10431,34432
10432,34368
10433,34368
10434,34304
10435,34176
10436,34112
10437,33984
10438,33664
10439,33280
10440,33280
10441,33344
10442,34304
10443,37120
10444,39744
10445,42688
10446,45440
10447,46720
10448,45696
10449,42560
10450,38400
10451,34304
10452,30976
10453,28928
10454,27968
10455,27648
10456,27840
10457,28288
10458,28992
10459,29632
10460,30272
10461,30848
10462,31424
10463,31872
10464,32128
10465,32384
10466,32576
10467,32832
10468,33088
10469,33088
10470,33024
10471,32832
10472,32768
10473,32896
10474,33024
10475,33152
10476,33216
10477,33152
10478,33280
10479,33408
10480,33472
10481,33536
10482,33728
10483,33920
10484,33920
10485,33984
10486,34368
10487,34368
10488,34752
10489,34688
10490,34496
10491,34304
10492,34304
10493,34368
10494,34304
10495,34176
10496,33920
10497,33664
10498,33600
10499,33728
10500,33536
10501,33600
10502,33600
10503,34112
10504,34432
10505,34624
10506,34816
10507,34944
10508,35072
10509,35072
10510,34944
10511,34624
10512,34368
10513,34240
10514,34112
10515,33984
10516,33856
10517,33792
10518,33792
10519,33664
10520,33664
10521,33728
10522,33664
10523,33664
10524,33728
10525,33856
10526,33920
10527,33728
10528,33344
10529,33216
10530,33600
10531,34240
10532,34240
10533,34624
10534,34752
10535,34752
10536,34688
10537,34752
10538,34752
10539,34496
10540,34112
10541,33792
10542,33664
10543,33664
10544,33600
10545,33536
10546,33728
10547,33664
10548,33856
10549,33920
10550,33984
10551,33856
10552,33664
10553,33408
10554,33216
10555,33088
10556,33216
10557,33536
10558,33856
10559,34112
10560,34368
10561,34368
10562,34432
10563,34624
10564,34752
10565,34688
10566,34752
10567,34752
10568,34688
10569,34688
10570,35008
10571,35328
10572,35520
10573,35520
10574,35392
10575,35328
10576,35264
10577,34944
10578,34816
10579,35008
10580,35072
10581,34944
10582,34688
10583,34432
10584,34048
10585,33728
10586,33536
10587,33536
10588,33600
10589,33536
10590,33472
10591,33536
10592,33600
10593,33536
10594,33472
10595,33600
10596,33728
10597,33792
10598,33728
10599,33664
10600,33600
10601,33664
10602,33600
10603,33536
10604,33472
10605,33280
10606,33024
10607,32704
10608,32576
10609,32768
10610,33536
10611,35136
10612,37504
10613,40384
10614,43392
10615,45888
10616,47040
10617,46016
10618,42944
10619,39040
10620,35328
10621,32384
10622,30464
10623,29376
10624,29056
10625,29248
10626,29696
10627,30336
10628,31040
10629,31680
10630,32256
10631,32704
10632,33088
10633,33472
10634,33792
10635,33920
10636,34048
10637,34240
10638,34304
10639,34304
10640,34368
10641,34496
10642,34688
10643,34688
10644,34560
10645,34560
10646,34560
10647,34496
10648,34432
10649,34368
10650,34304
10651,34304
10652,34432
10653,34624
10654,34688
10655,34752
10656,34880
10657,34880
10658,34880
10659,34816
10660,34624
10661,34624
10662,34688
10663,34880
10664,35008
10665,35008
10666,34880
10667,34880
10668,34816
10669,34752
10670,34688
10671,34688
10672,34688
10673,34560
10674,34496
10675,34368
10676,34304
10677,34304
10678,34112
10679,33920
10680,33664
10681,33280
10682,32896
10683,32896
10684,32960
10685,32768
10686,32320
10687,31872
10688,31552
10689,31360
10690,31296
10691,31360
10692,31552
10693,31808
10694,32128
10695,32512
10696,32832
10697,33088
10698,33280
10699,33600
10700,33856
10701,34112
10702,34368
10703,34624
10704,34816
10705,34944
10706,35136
10707,35264
10708,35392
10709,35456
10710,35328
10711,35136
10712,35136
10713,35136
10714,35200
10715,35392
10716,35520
10717,35584
10718,35648
10719,35712
10720,35776
10721,35776
10722,35584
10723,35328
10724,35008
10725,34752
10726,34368
10727,33920
10728,33664
10729,33536
10730,33472
10731,33408
10732,33408
10733,33472
10734,33472
10735,33408
10736,33344
10737,33344
10738,33152
10739,32768
10740,32192
10741,31680
10742,31104
10743,30720
10744,30464
10745,30336
10746,30272
10747,30144
10748,29888
10749,29568
10750,29376
10751,29184
10752,29248
10753,29632
10754,30400
10755,31360
10756,32256
10757,33152
10758,33856
10759,34304
10760,34432
10761,34304
10762,34176
10763,34112
10764,33984
10765,34048
10766,34304
10767,34432
10768,34432
10769,34240
10770,33984
10771,33664
10772,33280
10773,32896
10774,32512
10775,32448
10776,32704
10777,33152
10778,33664
10779,34176
10780,34560
10781,34752
10782,35008
10783,35200
10784,35328
10785,35200
10786,35008
10787,34880
10788,34944
10789,35456
10790,36672
10791,38720
10792,41408
10793,44288
10794,46976
10795,48384
10796,47808
10797,45120
10798,41344
10799,37376
10800,34176
10801,32064
10802,30592
10803,30080
10804,30144
10805,30336
10806,30848
10807,31424
10808,32064
10809,32512
10810,32768
10811,33088
10812,33600
10813,33984
10814,34048
10815,34112
10816,34176
10817,34112
10818,33984
10819,33856
10820,33856
10821,33856
10822,33792
10823,33984
10824,34176
10825,34304
10826,34368
10827,34368
10828,34368
10829,34432
10830,34496
10831,34624
10832,34688
10833,34560
10834,34368
10835,34368
10836,34432
10837,34624
10838,34688
10839,34560
10840,34176
10841,33984
10842,34368
10843,34816
10844,35200
10845,35264
10846,35136
10847,34880
10848,34752
10849,34752
10850,34944
10851,35264
10852,35584
10853,35840
10854,35968
10855,35968
10856,36032
10857,36096
10858,36224
10859,36224
10860,36096
10861,35776
10862,35392
10863,35200
10864,35136
10865,35072
10866,35072
10867,34944
10868,34688
10869,34560
10870,34624
10871,34688
10872,34688
10873,34688
10874,34688
10875,34880
10876,35136
10877,35328
10878,35328
10879,35328
10880,35328
10881,35264
10882,35072
10883,34816
10884,34816
10885,35136
10886,35456
10887,35520
10888,35264
10889,35200
10890,35456
10891,35840
10892,36288
10893,36608
10894,36736
10895,36736
10896,36544
10897,36224
10898,35776
10899,35520
10900,35328
10901,35136
10902,35008
10903,34688
10904,34176
10905,33344
10906,32960
10907,33088
10908,33600
10909,34368
10910,35008
10911,35456
10912,35520
10913,35392
10914,35200
10915,34816
10916,34176
10917,33600
10918,32832
10919,31680
10920,29888
10921,28928
10922,29888
10923,32192
10924,35072
