,ECG
0,31616
1,32000
2,32448
3,32704
4,32896
5,33088
6,33216
7,33280
8,33280
9,33344
10,33408
11,33472
12,33536
13,33536
14,33536
15,33600
16,33600
17,33664
18,33792
19,34048
20,34048
21,33856
22,33792
23,33856
24,33920
25,33984
26,34112
27,34368
28,34432
29,34368
30,34368
31,34560
32,34688
33,34752
34,34880
35,35072
36,35200
37,35264
38,35520
39,35712
40,35776
41,35712
42,35840
43,35968
44,36032
45,35968
46,36032
47,36032
48,35968
49,35840
50,35776
51,35712
52,35712
53,35456
54,35072
55,34752
56,34432
57,34048
58,33664
59,33280
60,33088
61,32960
62,32832
63,32640
64,32512
65,32448
66,32320
67,32384
68,32512
69,32704
70,32832
71,33024
72,33152
73,33216
74,33152
75,33088
76,33088
77,33216
78,33216
79,33216
80,33344
81,33536
82,33600
83,33600
84,33600
85,33664
86,33728
87,33728
88,33728
89,33920
90,33920
91,33728
92,33664
93,33728
94,33792
95,33856
96,33920
97,33920
98,33984
99,33920
100,33920
101,33856
102,33856
103,33728
104,33664
105,33728
106,33856
107,33920
108,33984
109,33984
110,33856
111,33728
112,33664
113,33664
114,33728
115,33664
116,33664
117,33728
118,33856
119,33856
120,33728
121,33600
122,33664
123,33728
124,33792
125,33792
126,33792
127,33856
128,33984
129,34176
130,34368
131,34560
132,34688
133,34688
134,34816
135,35008
136,35136
137,35136
138,34944
139,34816
140,34624
141,34304
142,34048
143,33856
144,33664
145,33472
146,33344
147,33344
148,33280
149,33216
150,33152
151,33216
152,33152
153,33088
154,33088
155,33216
156,33344
157,33472
158,33472
159,33536
160,33536
161,33600
162,33664
163,33728
164,33664
165,33472
166,33216
167,33408
168,34304
169,35840
170,37888
171,40576
172,43840
173,46656
174,47616
175,45824
176,42752
177,39296
178,35840
179,32768
180,30592
181,29376
182,28800
183,28864
184,29312
185,30016
186,30656
187,31168
188,31552
189,31872
190,32256
191,32512
192,32576
193,32768
194,32832
195,32832
196,32896
197,32960
198,33024
199,33088
200,33152
201,33216
202,33280
203,33344
204,33344
205,33344
206,33536
207,33728
208,33728
209,33728
210,33792
211,33792
212,33792
213,33856
214,33984
215,34112
216,34176
217,34304
218,34368
219,34432
220,34496
221,34624
222,34752
223,34880
224,35008
225,35136
226,35264
227,35392
228,35456
229,35584
230,35776
231,35968
232,36032
233,35904
234,35840
235,35776
236,35712
237,35648
238,35584
239,35520
240,35392
241,35072
242,34688
243,34304
244,33984
245,33600
246,33216
247,33024
248,32768
249,32576
250,32384
251,32256
252,32128
253,32064
254,32192
255,32320
256,32320
257,32320
258,32384
259,32512
260,32576
261,32704
262,32768
263,32896
264,32960
265,33024
266,33152
267,33152
268,33152
269,33152
270,33088
271,33088
272,33216
273,33344
274,33408
275,33600
276,33792
277,33728
278,33536
279,33408
280,33408
281,33536
282,33600
283,33536
284,33600
285,33664
286,33728
287,33664
288,33600
289,33600
290,33664
291,33664
292,33728
293,33856
294,33856
295,33792
296,33664
297,33600
298,33600
299,33664
300,33664
301,33728
302,33792
303,33856
304,33792
305,33792
306,33792
307,33792
308,33664
309,33600
310,33664
311,33728
312,33728
313,33792
314,33920
315,33856
316,33728
317,33664
318,33792
319,33856
320,33856
321,33792
322,33856
323,33920
324,33792
325,33728
326,33728
327,33920
328,34112
329,34240
330,34304
331,34560
332,34816
333,35008
334,35072
335,35200
336,35328
337,35328
338,35200
339,35008
340,34816
341,34432
342,34048
343,33792
344,33664
345,33472
346,33344
347,33280
348,33344
349,33344
350,33344
351,33344
352,33472
353,33600
354,33600
355,33536
356,33536
357,33600
358,33536
359,33536
360,33664
361,33856
362,33856
363,33856
364,33792
365,33536
366,33408
367,33792
368,34816
369,36608
370,38912
371,41984
372,45184
373,47616
374,47744
375,45504
376,42112
377,38400
378,34880
379,32000
380,30080
381,29120
382,28864
383,29120
384,29632
385,30272
386,30912
387,31296
388,31680
389,32064
390,32384
391,32512
392,32640
393,32768
394,32960
395,33152
396,33152
397,33216
398,33280
399,33344
400,33536
401,33536
402,33344
403,33280
404,33280
405,33408
406,33536
407,33536
408,33536
409,33600
410,33728
411,33920
412,34048
413,34176
414,34240
415,34304
416,34304
417,34368
418,34496
419,34624
420,34752
421,34816
422,34880
423,35072
424,35136
425,35200
426,35392
427,35712
428,35840
429,35776
430,35648
431,35712
432,35776
433,35776
434,35712
435,35776
436,35840
437,35776
438,35648
439,35584
440,35456
441,35200
442,34752
443,34368
444,34048
445,33664
446,33216
447,32896
448,32768
449,32576
450,32320
451,32192
452,32256
453,32384
454,32256
455,32128
456,32192
457,32320
458,32384
459,32448
460,32640
461,32768
462,32832
463,32832
464,32832
465,32896
466,32896
467,32960
468,33088
469,33280
470,33408
471,33344
472,33344
473,33472
474,33664
475,33792
476,33856
477,33920
478,33920
479,33856
480,33920
481,33984
482,34048
483,34048
484,34048
485,34048
486,34048
487,33984
488,33920
489,33920
490,33920
491,33856
492,33856
493,33856
494,33984
495,34048
496,34048
497,33984
498,33984
499,33728
500,33536
501,33472
502,33536
503,33600
504,33600
505,33664
506,33792
507,33856
508,33792
509,33792
510,33792
511,33792
512,33856
513,33792
514,33792
515,33856
516,33792
517,33728
518,33792
519,33920
520,33792
521,33728
522,33664
523,33600
524,33600
525,33600
526,33664
527,33856
528,33920
529,33856
530,33856
531,33856
532,33920
533,33856
534,33856
535,33984
536,33984
537,33856
538,33920
539,33920
540,33856
541,33792
542,33792
543,33792
544,33856
545,33856
546,33984
547,34048
548,34048
549,33984
550,33920
551,33856
552,33920
553,33984
554,34176
555,34304
556,34496
557,34624
558,34752
559,34880
560,35072
561,35136
562,35264
563,35328
564,35392
565,35200
566,34752
567,34304
568,33984
569,33856
570,33728
571,33536
572,33344
573,33280
574,33216
575,33216
576,33280
577,33472
578,33536
579,33600
580,33600
581,33600
582,33728
583,33728
584,33600
585,33664
586,33728
587,33728
588,33728
589,33792
590,33984
591,33728
592,33408
593,33536
594,34368
595,35904
596,38016
597,40832
598,44160
599,47040
600,48128
601,46528
602,43456
603,39744
604,36032
605,32832
606,30656
607,29376
608,28864
609,28992
610,29376
611,29952
612,30592
613,30976
614,31360
615,31808
616,32064
617,32320
618,32576
619,32832
620,33024
621,33024
622,32960
623,33024
624,33216
625,33408
626,33408
627,33280
628,33216
629,33216
630,33216
631,33344
632,33472
633,33472
634,33472
635,33472
636,33600
637,33664
638,33792
639,33920
640,34112
641,34304
642,34368
643,34304
644,34368
645,34432
646,34368
647,34432
648,34624
649,34752
650,34880
651,35008
652,35200
653,35328
654,35456
655,35520
656,35648
657,35712
658,35776
659,35776
660,35840
661,35904
662,35904
663,35840
664,35840
665,35712
666,35456
667,35200
668,34880
669,34688
670,34368
671,33920
672,33536
673,33216
674,32896
675,32576
676,32256
677,32128
678,32064
679,32000
680,32000
681,32064
682,32192
683,32256
684,32384
685,32448
686,32448
687,32384
688,32384
689,32512
690,32704
691,32768
692,32832
693,32768
694,32832
695,32960
696,33024
697,32960
698,33088
699,33088
700,33024
701,33024
702,33152
703,33216
704,33216
705,33152
706,33152
707,33216
708,33280
709,33344
710,33408
711,33536
712,33664
713,33600
714,33472
715,33472
716,33408
717,33280
718,33216
719,33280
720,33408
721,33472
722,33536
723,33536
724,33472
725,33408
726,33408
727,33408
728,33472
729,33408
730,33472
731,33600
732,33792
733,33728
734,33472
735,33344
736,33408
737,33408
738,33344
739,33408
740,33536
741,33600
742,33536
743,33536
744,33600
745,33600
746,33600
747,33600
748,33600
749,33600
750,33536
751,33536
752,33600
753,33664
754,33664
755,33728
756,33856
757,33920
758,33856
759,33728
760,33728
761,33728
762,33600
763,33472
764,33600
765,33664
766,33728
767,33792
768,33856
769,33856
770,33856
771,33792
772,33792
773,33856
774,33792
775,33792
776,33792
777,33792
778,33856
779,33792
780,33792
781,33920
782,33984
783,33920
784,33728
785,33728
786,33728
787,33792
788,33792
789,33984
790,34176
791,34176
792,34240
793,34304
794,34432
795,34560
796,34624
797,34880
798,35072
799,35136
800,35008
801,34944
802,34560
803,34240
804,33984
805,33792
806,33600
807,33408
808,33344
809,33344
810,33280
811,33152
812,33088
813,33088
814,33216
815,33344
816,33408
817,33408
818,33536
819,33600
820,33600
821,33536
822,33472
823,33536
824,33536
825,33536
826,33600
827,33600
828,33472
829,33472
830,33984
831,35264
832,36992
833,39296
834,42368
835,45696
836,47936
837,47808
838,47296
839,41536
840,37824
841,34368
842,31744
843,29952
844,28992
845,28736
846,28992
847,29504
848,30144
849,30784
850,31296
851,31616
852,31936
853,32192
854,32384
855,32576
856,32768
857,32832
858,32832
859,32896
860,32960
861,33088
862,33152
863,33280
864,33280
865,33280
866,33280
867,33216
868,33472
869,33536
870,33472
871,33472
872,33536
873,33728
874,33856
875,33856
876,33856
877,33920
878,33920
879,34048
880,34240
881,34368
882,34304
883,34624
884,34688
885,34688
886,34688
887,34752
888,34944
889,35200
890,35456
891,35520
892,35584
893,35776
894,36032
895,36096
896,35968
897,35904
898,35968
899,35904
900,35776
901,35712
902,35584
903,35456
904,35264
905,35072
906,34752
907,34368
908,33856
909,33408
910,33152
911,32960
912,32704
913,32448
914,32320
915,32192
916,32128
917,32128
918,32192
919,32384
920,32448
921,32448
922,32448
923,32448
924,32512
925,32576
926,32768
927,32704
928,32896
929,32960
930,32960
931,33152
932,33216
933,33152
934,32960
935,33024
936,33152
937,33216
938,33216
939,33216
940,33280
941,33344
942,33280
943,33344
944,33408
945,33472
946,33472
947,33536
948,33600
949,33536
950,33472
951,33536
952,33664
953,33664
954,33536
955,33472
956,33536
957,33536
958,33472
959,33536
960,33600
961,33600
962,33472
963,33408
964,33344
965,33408
966,33472
967,33536
968,33600
969,33664
970,33600
971,33600
972,33536
973,33728
974,33792
975,33664
976,33600
977,33600
978,33600
979,33600
980,33600
981,33728
982,33792
983,33792
984,33664
985,33600
986,33664
987,33600
988,33728
989,33856
990,33856
991,33728
992,33600
993,33664
994,33792
995,33728
996,33664
997,33728
998,33792
999,33856
1000,33856
1001,33920
1002,33856
1003,33984
1004,34112
1005,34176
1006,34048
1007,33856
1008,33600
1009,33536
1010,33664
1011,33792
1012,33856
1013,33856
1014,33920
1015,33984
1016,33984
1017,33920
1018,33920
1019,33984
1020,33920
1021,33856
1022,33920
1023,33984
1024,34048
1025,34112
1026,34176
1027,34304
1028,34368
1029,34432
1030,34496
1031,34688
1032,34816
1033,35072
1034,35264
1035,35392
1036,35328
1037,35072
1038,34816
1039,34560
1040,34304
1041,34112
1042,33920
1043,33856
1044,33792
1045,33728
1046,33472
1047,33408
1048,33408
1049,33408
1050,33408
1051,33472
1052,33664
1053,33728
1054,33664
1055,33664
1056,33728
1057,33792
1058,33728
1059,33728
1060,33792
1061,33920
1062,33920
1063,33920
1064,33792
1065,33600
1066,33664
1067,34368
1068,35968
1069,38144
1070,40960
1071,44288
1072,47232
1073,48448
1074,46976
1075,43776
1076,39040
1077,38784
1078,33088
1079,30784
1080,29440
1081,28928
1082,29056
1083,29568
1084,30208
1085,30848
1086,31360
1087,31616
1088,31872
1089,32192
1090,32448
1091,32704
1092,32704
1093,32832
1094,32896
1095,32960
1096,33024
1097,33152
1098,33344
1099,33408
1100,33408
1101,33408
1102,33536
1103,33664
1104,33600
1105,33664
1106,33728
1107,33664
1108,33856
1109,33856
1110,33920
1111,33984
1112,34048
1113,34048
1114,34048
1115,34112
1116,34240
1117,34304
1118,34368
1119,34432
1120,34560
1121,34624
1122,34688
1123,34816
1124,34944
1125,35136
1126,35328
1127,35520
1128,35648
1129,35648
1130,35648
1131,35904
1132,36224
1133,36480
1134,36544
1135,36672
1136,36608
1137,36544
1138,36224
1139,35904
1140,35584
1141,35200
1142,34752
1143,34304
1144,33984
1145,33664
1146,33280
1147,32960
1148,32704
1149,32448
1150,32128
1151,31872
1152,31808
1153,31936
1154,32000
1155,32128
1156,32192
1157,32256
1158,32384
1159,32576
1160,32704
1161,32704
1162,32704
1163,32704
1164,32768
1165,32832
1166,32896
1167,32896
1168,32960
1169,33024
1170,33024
1171,32960
1172,32960
1173,33024
1174,33088
1175,33024
1176,32960
1177,32960
1178,33024
1179,33024
1180,33088
1181,33280
1182,33216
1183,33280
1184,33280
1185,33344
1186,33408
1187,33408
1188,33344
1189,33344
1190,33408
1191,33280
1192,33216
1193,33216
1194,33216
1195,33216
1196,33152
1197,33088
1198,33280
1199,33408
1200,33408
1201,33472
1202,33536
1203,33472
1204,33344
1205,33216
1206,33216
1207,33216
1208,33280
1209,33344
1210,33344
1211,33344
1212,33280
1213,33280
1214,33280
1215,33344
1216,33344
1217,33344
1218,33344
1219,33344
1220,33344
1221,33408
1222,33472
1223,33600
1224,33728
1225,33728
1226,33728
1227,33664
1228,33728
1229,33600
1230,33472
1231,33472
1232,33600
1233,33664
1234,33728
1235,33664
1236,33472
1237,33408
1238,33472
1239,33664
1240,33792
1241,33728
1242,33728
1243,33728
1244,33792
1245,33920
1246,33920
1247,33920
1248,33984
1249,33920
1250,33856
1251,33792
1252,33728
1253,33728
1254,33728
1255,33792
1256,34048
1257,33984
1258,34112
1259,34048
1260,34048
1261,34112
1262,34176
1263,34240
1264,34368
1265,34560
1266,34624
1267,34688
1268,34880
1269,35200
1270,35456
1271,35520
1272,35392
1273,35200
1274,34944
1275,34496
1276,34240
1277,34048
1278,33984
1279,33856
1280,33600
1281,33472
1282,33472
1283,33408
1284,33408
1285,33408
1286,33600
1287,33600
1288,33728
1289,33792
1290,33792
1291,33792
1292,33792
1293,33856
1294,33920
1295,33920
1296,33856
1297,33856
1298,33856
1299,33664
1300,33408
1301,33792
1302,33792
1303,35456
1304,37248
1305,39808
1306,42944
1307,45440
1308,46016
1309,44288
1310,41536
1311,38464
1312,35392
1313,32704
1314,30784
1315,29824
1316,29696
1317,29696
1318,30336
1319,30912
1320,31424
1321,31872
1322,32256
1323,32576
1324,32768
1325,32896
1326,32960
1327,33088
1328,33280
1329,33344
1330,33408
1331,33408
1332,33408
1333,33408
1334,33408
1335,33408
1336,33536
1337,33536
1338,33536
1339,33600
1340,33664
1341,33728
1342,33728
1343,33792
1344,33984
1345,34112
1346,34176
1347,34112
1348,34368
1349,34496
1350,34624
1351,34624
1352,34624
1353,34752
1354,34816
1355,34944
1356,35072
1357,35200
1358,35328
1359,35392
1360,35520
1361,35776
1362,35712
1363,35968
1364,36160
1365,36416
1366,36608
1367,36608
1368,36672
1369,36736
1370,36800
1371,36736
1372,36544
1373,36416
1374,36224
1375,35968
1376,35584
1377,35200
1378,34752
1379,34304
1380,33856
1381,33472
1382,33152
1383,32768
1384,32384
1385,32128
1386,32000
1387,31936
1388,31808
1389,31744
1390,31808
1391,31872
1392,31808
1393,32064
1394,32192
1395,32320
1396,32448
1397,32576
1398,32704
1399,32832
1400,32960
1401,33024
1402,33088
1403,33152
1404,33152
1405,33152
1406,33280
1407,33344
1408,33344
1409,33408
1410,33536
1411,33600
1412,33664
1413,33664
1414,33600
1415,33728
1416,33792
1417,33856
1418,33920
1419,33984
1420,33984
1421,33856
1422,33792
1423,33856
1424,33792
1425,33792
1426,33728
1427,33728
1428,33792
1429,33792
1430,33792
1431,33792
1432,33856
1433,33856
1434,33856
1435,33920
1436,33984
1437,33920
1438,33856
1439,33792
1440,33728
1441,33728
1442,33728
1443,33792
1444,33856
1445,33856
1446,33856
1447,33856
1448,33920
1449,33984
1450,33920
1451,33920
1452,33984
1453,33984
1454,33984
1455,33920
1456,33984
1457,34048
1458,34048
1459,33984
1460,33984
1461,34048
1462,34048
1463,34048
1464,34048
1465,34112
1466,34176
1467,34176
1468,34176
1469,34176
1470,34112
1471,34048
1472,33984
1473,34048
1474,34048
1475,34048
1476,33984
1477,34048
1478,34176
1479,34176
1480,34176
1481,34240
1482,34304
1483,34304
1484,34304
1485,34240
1486,34240
1487,34240
1488,34240
1489,34240
1490,34304
1491,34304
1492,34240
1493,34240
1494,34240
1495,34304
1496,34240
1497,34240
1498,34240
1499,34304
1500,34368
1501,34432
1502,34624
1503,34816
1504,34944
1505,35136
1506,35328
1507,35520
1508,35648
1509,35648
1510,35584
1511,35520
1512,35328
1513,34944
1514,34560
1515,34304
1516,34176
1517,34048
1518,33920
1519,33856
1520,33856
1521,33792
1522,33728
1523,33728
1524,33792
1525,33792
1526,33792
1527,33792
1528,33920
1529,33984
1530,34048
1531,33984
1532,33984
1533,33984
1534,33920
1535,33984
1536,34048
1537,33984
1538,33728
1539,33600
1540,34048
1541,35072
1542,36800
1543,39232
1544,42304
1545,45632
1546,47744
1547,47488
1548,45120
1549,41856
1550,38272
1551,34944
1552,32256
1553,30528
1554,29568
1555,29184
1556,29376
1557,29824
1558,30464
1559,30976
1560,31424
1561,31872
1562,32192
1563,32384
1564,32512
1565,32704
1566,32768
1567,32768
1568,32768
1569,32832
1570,32960
1571,33024
1572,33024
1573,33152
1574,33216
1575,33280
1576,33280
1577,33280
1578,33408
1579,33536
1580,33600
1581,33664
1582,33792
1583,33856
1584,33920
1585,33984
1586,33984
1587,34048
1588,34048
1589,34176
1590,34304
1591,34432
1592,34432
1593,34496
1594,34624
1595,34752
1596,34880
1597,34944
1598,35136
1599,35328
1600,35456
1601,35456
1602,35584
1603,35648
1604,35776
1605,35840
1606,35904
1607,35904
1608,35840
1609,35776
1610,35776
1611,35776
1612,35776
1613,35648
1614,35456
1615,35200
1616,34880
1617,34496
1618,34048
1619,33728
1620,33472
1621,33152
1622,32832
1623,32576
1624,32448
1625,32256
1626,32128
1627,32064
1628,32000
1629,32064
1630,32000
1631,32064
1632,32192
1633,32384
1634,32448
1635,32512
1636,32576
1637,32640
1638,32640
1639,32704
1640,32832
1641,33024
1642,33024
1643,33088
1644,33152
1645,33216
1646,33216
1647,33152
1648,33152
1649,33280
1650,33344
1651,33344
1652,33344
1653,33344
1654,33344
1655,33344
1656,33344
1657,33472
1658,33536
1659,33536
1660,33408
1661,33344
1662,33344
1663,33280
1664,33280
1665,33280
1666,33344
1667,33280
1668,33216
1669,33280
1670,33280
1671,33280
1672,33216
1673,33280
1674,33344
1675,33408
1676,33408
1677,33472
1678,33472
1679,33408
1680,33280
1681,33344
1682,33472
1683,33536
1684,33472
1685,33408
1686,33344
1687,33344
1688,33344
1689,33344
1690,33472
1691,33536
1692,33472
1693,33472
1694,33472
1695,33472
1696,33472
1697,33472
1698,33536
1699,33600
1700,33600
1701,33536
1702,33536
1703,33600
1704,33664
1705,33664
1706,33664
1707,33664
1708,33664
1709,33600
1710,33664
1711,33664
1712,33728
1713,33728
1714,33728
1715,33728
1716,33792
1717,33728
1718,33664
1719,33728
1720,33728
1721,33728
1722,33728
1723,33728
1724,33856
1725,33984
1726,34112
1727,34304
1728,34496
1729,34624
1730,34816
1731,35008
1732,35200
1733,35264
1734,35200
1735,35008
1736,34816
1737,34560
1738,34176
1739,33856
1740,33664
1741,33600
1742,33472
1743,33280
1744,33216
1745,33280
1746,33280
1747,33216
1748,33280
1749,33408
1750,33472
1751,33472
1752,33472
1753,33536
1754,33664
1755,33664
1756,33664
1757,33728
1758,33728
1759,33792
1760,33792
1761,33664
1762,33408
1763,33152
1764,33408
1765,34496
1766,36352
1767,38912
1768,41920
1769,45376
1770,47936
1771,48064
1772,45696
1773,42304
1774,38592
1775,35072
1776,32128
1777,30208
1778,29184
1779,28928
1780,29184
1781,29696
1782,30272
1783,30848
1784,31296
1785,31680
1786,32064
1787,32384
1788,32576
1789,32640
1790,32768
1791,32896
1792,32960
1793,33024
1794,33152
1795,33216
1796,33216
1797,33280
1798,33344
1799,33344
1800,33344
1801,33344
1802,33344
1803,33408
1804,33536
1805,33664
1806,33728
1807,33792
1808,33856
1809,33920
1810,33984
1811,34048
1812,34112
1813,34176
1814,34304
1815,34432
1816,34560
1817,34560
1818,34624
1819,34688
1820,34880
1821,35008
1822,35136
1823,35200
1824,35392
1825,35456
1826,35520
1827,35712
1828,35904
1829,36032
1830,36032
1831,36032
1832,36032
1833,35968
1834,35968
1835,35968
1836,35904
1837,35776
1838,35520
1839,35072
1840,34688
1841,34240
1842,33920
1843,33536
1844,33216
1845,32896
1846,32704
1847,32384
1848,32256
1849,32128
1850,32000
1851,31936
1852,31936
1853,32064
1854,32192
1855,32256
1856,32320
1857,32384
1858,32576
1859,32640
1860,32576
1861,32640
1862,32704
1863,32768
1864,32768
1865,32832
1866,32960
1867,33024
1868,33024
1869,33088
1870,33152
1871,33216
1872,33216
1873,33280
1874,33344
1875,33408
1876,33344
1877,33408
1878,33472
1879,33536
1880,33472
1881,33408
1882,33472
1883,33536
1884,33472
1885,33472
1886,33472
1887,33536
1888,33472
1889,33344
1890,33280
1891,33280
1892,33280
1893,33280
1894,33280
1895,33344
1896,33344
1897,33344
1898,33344
1899,33408
1900,33408
1901,33344
1902,33344
1903,33408
1904,33408
1905,33344
1906,33344
1907,33344
1908,33408
1909,33408
1910,33344
1911,33408
1912,33472
1913,33472
1914,33408
1915,33280
1916,33216
1917,33216
1918,33216
1919,33280
1920,33344
1921,33344
1922,33344
1923,33344
1924,33408
1925,33472
1926,33408
1927,33408
1928,33472
1929,33472
1930,33472
1931,33408
1932,33472
1933,33600
1934,33728
1935,33856
1936,34048
1937,34176
1938,34368
1939,34496
1940,34624
1941,34816
1942,34880
1943,34752
1944,34496
1945,34304
1946,33920
1947,33600
1948,33472
1949,33344
1950,33152
1951,32896
1952,32704
1953,32768
1954,32832
1955,32832
1956,32896
1957,32960
1958,33088
1959,33152
1960,33152
1961,33216
1962,33344
1963,33280
1964,33216
1965,33216
1966,33344
1967,33408
1968,33408
1969,33280
1970,32960
1971,32896
1972,33216
1973,34368
1974,36352
1975,38848
1976,41984
1977,45248
1978,47488
1979,47360
1980,44800
1981,41344
1982,37632
1983,34176
1984,31424
1985,29568
1986,28672
1987,28480
1988,28800
1989,29248
1990,29824
1991,30336
1992,30848
1993,31296
1994,31680
1995,32000
1996,32256
1997,32384
1998,32512
1999,32640
2000,32832
2001,32832
2002,32832
2003,32832
2004,32896
2005,32832
2006,32896
2007,33088
2008,33216
2009,33216
2010,33216
2011,33216
2012,33344
2013,33408
2014,33472
2015,33600
2016,33728
2017,33728
2018,33728
2019,33792
2020,33984
2021,34112
2022,34176
2023,34304
2024,34432
2025,34560
2026,34688
2027,34816
2028,34944
2029,35136
2030,35264
2031,35328
2032,35456
2033,35648
2034,35776
2035,35840
2036,35968
2037,36096
2038,36096
2039,36096
2040,36096
2041,36032
2042,36032
2043,35904
2044,35776
2045,35648
2046,35520
2047,35200
2048,34816
2049,34432
2050,34048
2051,33600
2052,33216
2053,32896
2054,32704
2055,32512
2056,32384
2057,32320
2058,32320
2059,32256
2060,32192
2061,32192
2062,32256
2063,32384
2064,32448
2065,32576
2066,32768
2067,32960
2068,33088
2069,33152
2070,33216
2071,33344
2072,33344
2073,33408
2074,33472
2075,33536
2076,33536
2077,33600
2078,33664
2079,33728
2080,33728
2081,33792
2082,33856
2083,33984
2084,34048
2085,34048
2086,34048
2087,34112
2088,34112
2089,34048
2090,34112
2091,34176
2092,34240
2093,34240
2094,34176
2095,34176
2096,34112
2097,34048
2098,33984
2099,34048
2100,34048
2101,34048
2102,34048
2103,34112
2104,34176
2105,34112
2106,34048
2107,34048
2108,34176
2109,34176
2110,34112
2111,34112
2112,34112
2113,34112
2114,34112
2115,34112
2116,34112
2117,34112
2118,34112
2119,34176
2120,34176
2121,34240
2122,34176
2123,34112
2124,34112
2125,34112
2126,34048
2127,34048
2128,34048
2129,34112
2130,34176
2131,34304
2132,34560
2133,34752
2134,34880
2135,35008
2136,35136
2137,35328
2138,35456
2139,35584
2140,35584
2141,35520
2142,35264
2143,34880
2144,34560
2145,34368
2146,34176
2147,33984
2148,33792
2149,33728
2150,33728
2151,33664
2152,33664
2153,33728
2154,33792
2155,33792
2156,33792
2157,33856
2158,33984
2159,33984
2160,33984
2161,34048
2162,34112
2163,34176
2164,34240
2165,34240
2166,34176
2167,33984
2168,33856
2169,34048
2170,34816
2171,36096
2172,37952
2173,40448
2174,43328
2175,45568
2176,45824
2177,43904
2178,41152
2179,38208
2180,35392
2181,33088
2182,31552
2183,30784
2184,30592
2185,30912
2186,31488
2187,32192
2188,32704
2189,33088
2190,33344
2191,33536
2192,33728
2193,33856
2194,33984
2195,34112
2196,34176
2197,34176
2198,34176
2199,34240
2200,34304
2201,34304
2202,34304
2203,34304
2204,34368
2205,34432
2206,34432
2207,34496
2208,34560
2209,34624
2210,34624
2211,34624
2212,34624
2213,34688
2214,34752
2215,34816
2216,34944
2217,35072
2218,35136
2219,35200
2220,35328
2221,35456
2222,35456
2223,35520
2224,35712
2225,35840
2226,36032
2227,36160
2228,36352
2229,36544
2230,36608
2231,36608
2232,36736
2233,36928
2234,36992
2235,37056
2236,37056
2237,37120
2238,37056
2239,36992
2240,36800
2241,36672
2242,36480
2243,36096
2244,35712
2245,35328
2246,34880
2247,34368
2248,33856
2249,33472
2250,33088
2251,32768
2252,32512
2253,32256
2254,32192
2255,32128
2256,32064
2257,32064
2258,32192
2259,32320
2260,32320
2261,32384
2262,32512
2263,32640
2264,32704
2265,32832
2266,32960
2267,33088
2268,33088
2269,33088
2270,33152
2271,33216
2272,33280
2273,33280
2274,33344
2275,33472
2276,33472
2277,33536
2278,33600
2279,33664
2280,33664
2281,33664
2282,33664
2283,33792
2284,33792
2285,33792
2286,33856
2287,33920
2288,34048
2289,34112
2290,34112
2291,34112
2292,34112
2293,34112
2294,34048
2295,34112
2296,34112
2297,34048
2298,33984
2299,33984
2300,34112
2301,34112
2302,34112
2303,34048
2304,34112
2305,34112
2306,34048
2307,34048
2308,34112
2309,34176
2310,34048
2311,34048
2312,34112
2313,34240
2314,34176
2315,34240
2316,34304
2317,34496
2318,34688
2319,34816
2320,35008
2321,35200
2322,35264
2323,35392
2324,35584
2325,35840
2326,35840
2327,35648
2328,35328
2329,35072
2330,34688
2331,34368
2332,34176
2333,34048
2334,33920
2335,33728
2336,33664
2337,33664
2338,33792
2339,33792
2340,33856
2341,33920
2342,33984
2343,33984
2344,33984
2345,34048
2346,34112
2347,34112
2348,34112
2349,34112
2350,34176
2351,34240
2352,34176
2353,33984
2354,33792
2355,33984
2356,34688
2357,36224
2358,38464
2359,41408
2360,44672
2361,47488
2362,48640
2363,47168
2364,44032
2365,40256
2366,36416
2367,33152
2368,31232
2369,29952
2370,29504
2371,29696
2372,30080
2373,30592
2374,31168
2375,31680
2376,32064
2377,32320
2378,32640
2379,32960
2380,33152
2381,33280
2382,33344
2383,33472
2384,33536
2385,33536
2386,33600
2387,33728
2388,33856
2389,33856
2390,33792
2391,33856
2392,33920
2393,33920
2394,33984
2395,34112
2396,34240
2397,34368
2398,34368
2399,34432
2400,34496
2401,34560
2402,34624
2403,34688
2404,34880
2405,34944
2406,35072
2407,35136
2408,35328
2409,35392
2410,35456
2411,35520
2412,35712
2413,35904
2414,36032
2415,36160
2416,36352
2417,36480
2418,36608
2419,36608
2420,36672
2421,36736
2422,36672
2423,36672
2424,36608
2425,36608
2426,36480
2427,36288
2428,36096
2429,35840
2430,35520
2431,35072
2432,34624
2433,34240
2434,33920
2435,33536
2436,33152
2437,32960
2438,32832
2439,32640
2440,32576
2441,32512
2442,32640
2443,32640
2444,32704
2445,32768
2446,32896
2447,33024
2448,33088
2449,33152
2450,33280
2451,33344
2452,33344
2453,33408
2454,33472
2455,33472
2456,33536
2457,33600
2458,33664
2459,33792
2460,33792
2461,33792
2462,33792
2463,33856
2464,33856
2465,33856
2466,33856
2467,33920
2468,33920
2469,33920
2470,34048
2471,34112
2472,34176
2473,34112
2474,34048
2475,34112
2476,34048
2477,34048
2478,34048
2479,34112
2480,34112
2481,34112
2482,34048
2483,34112
2484,34112
2485,34048
2486,34048
2487,34048
2488,34112
2489,34112
2490,34112
2491,34112
2492,34112
2493,34112
2494,34048
2495,34048
2496,34112
2497,34112
2498,34048
2499,34048
2500,34176
2501,34432
2502,34624
2503,34752
2504,34880
2505,35072
2506,35200
2507,35328
2508,35584
2509,35776
2510,35712
2511,35392
2512,35136
2513,34816
2514,34432
2515,34176
2516,33984
2517,33856
2518,33728
2519,33600
2520,33600
2521,33600
2522,33600
2523,33600
2524,33664
2525,33728
2526,33792
2527,33792
2528,33792
2529,33856
2530,33984
2531,33984
2532,33984
2533,34048
2534,34112
2535,34112
2536,34048
2537,33920
2538,33728
2539,33856
2540,34496
2541,35968
2542,38144
2543,40960
2544,44224
2545,47168
2546,48448
2547,47104
2548,44032
2549,40320
2550,36736
2551,33600
2552,31296
2553,29952
2554,29440
2555,29504
2556,29888
2557,30464
2558,31040
2559,31552
2560,31936
2561,32256
2562,32640
2563,32832
2564,33024
2565,33152
2566,33280
2567,33408
2568,33472
2569,33472
2570,33536
2571,33600
2572,33664
2573,33728
2574,33728
2575,33792
2576,33792
2577,33856
2578,33856
2579,33984
2580,34048
2581,34048
2582,34112
2583,34176
2584,34368
2585,34368
2586,34432
2587,34624
2588,34688
2589,34752
2590,34880
2591,35072
2592,35200
2593,35264
2594,35392
2595,35520
2596,35648
2597,35776
2598,35904
2599,36032
2600,36160
2601,36224
2602,36288
2603,36352
2604,36352
2605,36352
2606,36288
2607,36352
2608,36352
2609,36224
2610,35968
2611,35712
2612,35392
2613,35008
2614,34560
2615,34176
2616,33856
2617,33536
2618,33152
2619,32896
2620,32704
2621,32512
2622,32448
2623,32256
2624,32320
2625,32384
2626,32384
2627,32448
2628,32576
2629,32704
2630,32768
2631,32768
2632,32896
2633,33024
2634,33024
2635,33088
2636,33088
2637,33152
2638,33152
2639,33152
2640,33216
2641,33280
2642,33408
2643,33408
2644,33472
2645,33536
2646,33600
2647,33536
2648,33600
2649,33664
2650,33728
2651,33728
2652,33664
2653,33792
2654,33856
2655,33920
2656,33856
2657,33856
2658,33920
2659,33856
2660,33856
2661,33856
2662,33920
2663,33920
2664,33856
2665,33856
2666,33792
2667,33856
2668,33792
2669,33792
2670,33856
2671,33920
2672,33856
2673,33856
2674,33856
2675,33920
2676,33920
2677,33856
2678,33920
2679,33920
2680,33920
2681,33856
2682,33856
2683,33920
2684,33920
2685,33920
2686,33920
2687,33984
2688,34048
2689,33984
2690,33920
2691,33984
2692,33984
2693,33920
2694,33856
2695,34048
2696,34240
2697,34432
2698,34560
2699,34752
2700,34944
2701,35008
2702,35072
2703,35328
2704,35520
2705,35520
2706,35392
2707,35072
2708,34816
2709,34432
2710,34112
2711,33856
2712,33792
2713,33664
2714,33536
2715,33472
2716,33536
2717,33600
2718,33536
2719,33472
2720,33472
2721,33536
2722,33600
2723,33600
2724,33664
2725,33728
2726,33792
2727,33728
2728,33792
2729,33856
2730,33792
2731,33792
2732,33792
2733,33664
2734,33536
2735,33792
2736,34816
2737,36544
2738,38848
2739,41728
2740,45184
2741,47680
2742,48128
2743,46080
2744,42752
2745,39040
2746,35520
2747,32576
2748,30592
2749,29568
2750,29248
2751,29376
2752,29760
2753,30336
2754,30912
2755,31424
2756,31872
2757,31872
2758,32384
2759,32640
2760,32768
2761,32960
2762,33088
2763,33216
2764,33216
2765,33216
2766,33344
2767,33408
2768,33472
2769,33472
2770,33536
2771,33600
2772,33536
2773,33536
2774,33664
2775,33792
2776,33856
2777,33856
2778,33984
2779,34112
2780,34176
2781,34176
2782,34240
2783,34304
2784,34432
2785,34496
2786,34624
2787,34560
2788,34816
2789,34880
2790,34944
2791,35136
2792,35328
2793,35456
2794,35648
2795,35776
2796,35968
2797,36032
2798,36096
2799,36160
2800,36224
2801,36224
2802,36224
2803,36160
2804,36160
2805,36096
2806,35968
2807,35840
2808,35712
2809,35456
2810,35136
2811,34752
2812,34368
2813,33984
2814,33600
2815,33216
2816,32896
2817,32832
2818,32576
2819,32384
2820,32384
2821,32384
2822,32448
2823,32448
2824,32512
2825,32640
2826,32640
2827,32704
2828,32768
2829,32896
2830,32896
2831,32960
2832,33024
2833,33152
2834,33280
2835,33344
2836,33408
2837,33472
2838,33536
2839,33536
2840,33472
2841,33536
2842,33536
2843,33536
2844,33536
2845,33664
2846,33728
2847,33728
2848,33728
2849,33792
2850,33856
2851,33856
2852,33792
2853,33792
2854,33856
2855,33856
2856,33856
2857,33856
2858,33920
2859,33920
2860,33856
2861,33856
2862,33856
2863,33920
2864,33856
2865,33792
2866,33856
2867,33856
2868,33792
2869,33792
2870,33856
2871,33920
2872,33920
2873,33856
2874,33920
2875,33920
2876,33856
2877,33792
2878,33792
2879,33856
2880,33856
2881,33856
2882,33920
2883,33984
2884,33920
2885,33920
2886,33856
2887,33856
2888,33920
2889,33920
2890,33856
2891,33920
2892,33984
2893,33984
2894,33984
2895,33984
2896,34048
2897,33984
2898,33984
2899,33984
2900,34048
2901,34048
2902,34048
2903,34112
2904,34112
2905,34048
2906,33984
2907,33984
2908,34048
2909,34112
2910,34176
2911,34368
2912,34496
2913,34688
2914,34816
2915,34944
2916,35136
2917,35264
2918,35392
2919,35520
2920,35456
2921,35328
2922,35072
2923,34624
2924,34304
2925,34112
2926,33856
2927,33728
2928,33600
2929,33536
2930,33472
2931,33472
2932,33472
2933,33536
2934,33600
2935,33536
2936,33600
2937,33664
2938,33664
2939,33728
2940,33728
2941,33792
2942,33792
2943,33792
2944,33728
2945,33792
2946,33920
2947,33856
2948,33600
2949,33536
2950,33984
2951,35136
2952,36928
2953,39360
2954,42496
2955,45696
2956,47872
2957,47744
2958,45312
2959,41856
2960,38080
2961,34624
2962,31936
2963,30272
2964,29312
2965,29120
2966,29632
2967,29632
2968,30464
2969,30976
2970,31424
2971,31872
2972,32192
2973,32448
2974,32640
2975,32832
2976,32960
2977,33024
2978,33088
2979,33280
2980,33344
2981,33280
2982,33216
2983,33408
2984,33472
2985,33472
2986,33536
2987,33600
2988,33728
2989,33728
2990,33792
2991,33856
2992,33984
2993,34048
2994,34048
2995,34112
2996,34240
2997,34304
2998,34368
2999,34496
3000,34624
3001,34688
3002,34752
3003,34816
3004,35008
3005,35200
3006,35264
3007,35328
3008,35520
3009,35648
3010,35776
3011,35840
3012,35968
3013,36096
3014,36160
3015,36224
3016,36288
3017,36352
3018,36288
3019,36224
3020,36160
3021,36160
3022,36032
3023,35776
3024,35520
3025,35264
3026,34880
3027,34368
3028,33984
3029,33664
3030,33344
3031,33024
3032,32768
3033,32640
3034,32576
3035,32448
3036,32384
3037,32448
3038,32448
3039,32512
3040,32576
3041,32768
3042,32768
3043,32896
3044,32960
3045,33024
3046,33088
3047,33088
3048,33088
3049,33152
3050,33280
3051,33344
3052,33344
3053,33408
3054,33472
3055,33536
3056,33536
3057,33536
3058,33600
3059,33728
3060,33728
3061,33728
3062,33728
3063,33792
3064,33792
3065,33792
3066,33792
3067,33856
3068,33856
3069,33856
3070,33920
3071,33920
3072,33856
3073,33856
3074,33920
3075,33984
3076,33920
3077,33856
3078,33856
3079,33920
3080,33920
3081,33856
3082,33856
3083,33856
3084,33856
3085,33856
3086,33856
3087,33792
3088,33920
3089,33856
3090,33856
3091,33920
3092,33984
3093,33984
3094,33984
3095,33984
3096,33984
3097,33984
3098,33984
3099,33984
3100,34048
3101,34048
3102,33984
3103,33984
3104,33984
3105,34048
3106,33984
3107,33984
3108,34048
3109,34112
3110,34112
3111,34048
3112,34048
3113,34048
3114,34048
3115,34048
3116,34048
3117,34048
3118,34048
3119,34048
3120,34048
3121,34048
3122,34048
3123,33984
3124,33984
3125,34048
3126,34048
3127,33984
3128,33984
3129,33984
3130,34048
3131,34048
3132,33984
3133,34112
3134,34176
3135,34240
3136,34368
3137,34560
3138,34752
3139,34752
3140,34816
3141,34944
3142,35136
3143,35200
3144,35328
3145,35456
3146,35456
3147,35392
3148,35072
3149,34752
3150,34432
3151,34112
3152,33920
3153,33728
3154,33664
3155,33600
3156,33536
3157,33600
3158,33664
3159,33728
3160,33728
3161,33728
3162,33728
3163,33792
3164,33856
3165,33856
3166,33856
3167,33920
3168,33920
3169,33856
3170,33856
3171,33920
3172,33984
3173,33856
3174,33664
3175,33536
3176,34112
3177,34112
3178,35968
3179,38144
3180,40896
3181,44096
3182,46976
3183,48192
3184,46720
3185,43584
3186,39936
3187,36416
3188,33408
3189,31232
3190,29824
3191,29248
3192,29248
3193,29760
3194,30208
3195,30784
3196,31360
3197,31872
3198,32192
3199,32448
3200,32768
3201,32960
3202,33088
3203,33216
3204,33344
3205,33536
3206,33536
3207,33536
3208,33600
3209,33728
3210,33728
3211,33728
3212,33728
3213,33792
3214,33856
3215,33920
3216,33984
3217,34112
3218,34176
3219,34240
3220,34240
3221,34368
3222,34432
3223,34496
3224,34560
3225,34688
3226,34752
3227,34816
3228,34880
3229,35008
3230,35200
3231,35264
3232,35328
3233,35392
3234,35520
3235,35584
3236,35712
3237,35840
3238,35968
3239,36096
3240,36160
3241,36160
3242,36224
3243,36224
3244,36224
3245,36224
3246,36224
3247,36160
3248,36032
3249,35904
3250,35776
3251,35392
3252,35328
3253,34880
3254,34560
3255,34240
3256,33856
3257,33472
3258,33216
3259,33088
3260,32896
3261,32704
3262,32640
3263,32640
3264,32640
3265,32704
3266,32832
3267,32896
3268,32896
3269,32960
3270,33024
3271,33216
3272,33280
3273,33280
3274,33280
3275,33344
3276,33408
3277,33472
3278,33472
3279,33536
3280,33664
3281,33664
3282,33600
3283,33728
3284,33792
3285,33856
3286,33920
3287,33920
3288,33984
3289,33984
3290,33984
3291,33984
3292,34048
3293,34048
3294,34048
3295,34048
3296,34240
3297,34176
3298,34112
3299,34112
3300,34112
3301,34176
3302,34112
3303,34112
3304,34112
3305,34176
3306,34112
3307,34048
3308,34048
3309,34112
3310,34112
3311,34048
3312,33984
3313,34112
3314,34112
3315,34048
3316,34048
3317,34048
3318,34048
3319,34112
3320,34112
3321,34240
3322,34304
3323,34240
3324,34112
3325,34112
3326,34112
3327,34048
3328,34048
3329,34048
3330,34176
3331,34176
3332,34176
3333,34176
3334,34240
3335,34176
3336,34112
3337,34112
3338,34240
3339,34304
3340,34304
3341,34304
3342,34304
3343,34368
3344,34304
3345,34304
3346,34304
3347,34304
3348,34240
3349,34240
3350,34240
3351,34432
3352,34624
3353,34688
3354,34880
3355,35008
3356,35136
3357,35136
3358,35392
3359,35712
3360,35840
3361,35648
3362,35392
3363,35072
3364,34688
3365,34432
3366,34240
3367,34112
3368,33984
3369,33856
3370,33792
3371,33856
3372,33920
3373,33792
3374,33792
3375,33856
3376,33984
3377,33984
3378,33984
3379,33984
3380,34048
3381,34112
3382,34176
3383,34240
3384,34176
3385,34112
3386,34048
3387,33984
3388,33856
3389,33728
3390,33856
3391,34432
3392,35520
3393,37184
3394,39296
3395,41984
3396,44288
3397,44800
3398,43072
3399,40384
3400,37632
3401,34176
3402,33664
3403,31680
3404,30848
3405,30656
3406,30784
3407,31232
3408,31744
3409,32320
3410,32832
3411,33152
3412,33344
3413,33536
3414,33664
3415,33728
3416,33856
3417,33920
3418,33984
3419,33984
3420,33984
3421,34112
3422,34240
3423,34240
3424,34176
3425,34176
3426,34240
3427,34240
3428,34304
3429,34368
3430,34432
3431,34368
3432,34368
3433,34432
3434,34560
3435,34624
3436,34688
3437,34688
3438,34880
3439,35008
3440,35008
3441,35008
3442,35136
3443,35200
3444,35264
3445,35328
3446,35456
3447,35584
3448,35712
3449,35776
3450,35968
3451,36160
3452,36224
3453,36288
3454,36352
3455,36480
3456,36416
3457,36288
3458,36288
3459,36352
3460,36352
3461,36224
3462,36096
3463,35968
3464,35712
3465,35456
3466,35136
3467,34752
3468,34304
3469,33856
3470,33408
3471,33152
3472,32960
3473,32704
3474,32384
3475,32256
3476,32192
3477,32064
3478,32064
3479,32192
3480,32384
3481,32512
3482,32512
3483,32512
3484,32576
3485,32576
3486,32640
3487,32704
3488,32896
3489,33024
3490,33024
3491,32960
3492,33088
3493,33152
3494,33280
3495,33344
3496,33408
3497,33472
3498,33472
3499,33536
3500,33664
3501,33728
3502,33728
3503,33728
3504,33728
3505,33728
3506,33664
3507,33664
3508,33664
3509,33728
3510,33728
3511,33664
3512,33664
3513,33728
3514,33728
3515,33664
3516,33664
3517,33728
3518,33792
3519,33792
3520,33792
3521,33728
3522,33728
3523,33728
3524,33664
3525,33664
3526,33664
3527,33664
3528,33664
3529,33728
3530,33792
3531,33792
3532,33728
3533,33728
3534,33792
3535,33856
3536,33792
3537,33792
3538,33856
3539,33920
3540,33920
3541,33920
3542,33920
3543,33920
3544,33792
3545,33792
3546,33792
3547,33920
3548,33920
3549,33920
3550,34112
3551,34304
3552,34368
3553,34496
3554,34688
3555,34880
3556,35008
3557,35136
3558,35264
3559,35200
3560,34944
3561,34560
3562,34240
3563,34048
3564,33856
3565,33664
3566,33408
3567,33344
3568,33344
3569,33344
3570,33344
3571,33408
3572,33472
3573,33472
3574,33408
3575,33472
3576,33536
3577,33536
3578,33472
3579,33472
3580,33536
3581,33536
3582,33536
3583,33600
3584,33664
3585,33600
3586,33408
3587,33216
3588,33344
3589,33984
3590,35072
3591,36608
3592,38720
3593,41280
3594,43264
3595,43456
3596,41408
3597,38976
3598,36480
3599,34240
3600,32512
3601,31424
3602,30720
3603,30400
3604,30528
3605,30912
3606,31360
3607,31808
3608,32192
3609,32576
3610,32832
3611,32960
3612,33088
3613,33216
3614,33280
3615,33344
3616,33472
3617,33536
3618,33536
3619,33472
3620,33472
3621,33536
3622,33664
3623,33664
3624,33600
3625,33600
3626,33728
3627,33728
3628,33792
3629,33856
3630,33856
3631,33920
3632,33920
3633,33920
3634,33984
3635,34112
3636,34176
3637,34304
3638,34432
3639,34560
3640,34624
3641,34688
3642,34752
3643,34880
3644,34944
3645,35008
3646,35136
3647,35328
3648,35456
3649,35520
3650,35584
3651,35712
3652,35776
3653,35776
3654,35840
3655,35904
3656,35904
3657,35840
3658,35776
3659,35776
3660,35648
3661,35392
3662,35072
3663,34752
3664,34432
3665,33984
3666,33600
3667,33280
3668,32960
3669,32640
3670,32320
3671,32000
3672,31872
3673,31744
3674,31680
3675,31680
3676,31744
3677,31808
3678,31872
3679,31936
3680,32000
3681,32128
3682,32192
3683,32256
3684,32320
3685,32448
3686,32512
3687,32576
3688,32640
3689,32640
3690,32640
3691,32640
3692,32768
3693,32832
3694,32896
3695,32832
3696,32832
3697,32896
3698,33024
3699,33024
3700,33024
3701,33088
3702,33088
3703,33024
3704,33024
3705,33088
3706,33088
3707,33088
3708,33088
3709,33088
3710,33088
3711,33088
3712,33024
3713,33088
3714,33152
3715,33152
3716,33152
3717,33152
3718,33152
3719,33088
3720,33024
3721,33024
3722,33024
3723,33088
3724,33088
3725,33152
3726,33216
3727,33216
3728,33088
3729,33088
3730,33088
3731,33152
3732,33152
3733,33152
3734,33216
3735,33216
3736,33216
3737,33216
3738,33216
3739,33280
3740,33216
3741,33216
3742,33280
3743,33344
3744,33344
3745,33344
3746,33344
3747,33408
3748,33344
3749,33280
3750,33280
3751,33280
3752,33344
3753,33472
3754,33664
3755,33856
3756,34048
3757,34176
3758,34304
3759,34432
3760,34560
3761,34752
3762,34880
3763,34880
3764,34688
3765,34304
3766,33920
3767,33664
3768,33472
3769,33216
3770,33024
3771,32896
3772,32832
3773,32768
3774,32768
3775,32768
3776,32832
3777,32960
3778,32960
3779,32960
3780,33024
3781,33024
3782,33088
3783,33152
3784,33344
3785,33408
3786,33408
3787,33344
3788,33280
3789,33280
3790,33024
3791,32896
3792,33280
3793,34432
3794,36160
3795,38464
3796,41344
3797,44544
3798,46976
3799,47104
3800,44864
3801,41536
3802,37824
3803,34368
3804,31552
3805,29824
3806,28864
3807,28672
3808,28928
3809,29440
3810,29952
3811,30464
3812,30912
3813,31360
3814,31680
3815,31936
3816,32064
3817,32256
3818,32448
3819,32576
3820,32576
3821,32576
3822,32704
3823,32704
3824,32704
3825,32704
3826,32768
3827,32896
3828,32960
3829,33024
3830,33152
3831,33216
3832,33216
3833,33216
3834,33280
3835,33408
3836,33408
3837,33408
3838,33472
3839,33600
3840,33664
3841,33664
3842,33792
3843,33920
3844,33984
3845,34048
3846,34176
3847,34368
3848,34496
3849,34560
3850,34688
3851,34880
3852,35072
3853,35200
3854,35264
3855,35392
3856,35520
3857,35520
3858,35584
3859,35648
3860,35584
3861,35520
3862,35392
3863,35328
3864,35264
3865,35072
3866,34816
3867,34496
3868,34304
3869,33920
3870,33472
3871,33088
3872,32768
3873,32512
3874,32256
3875,32128
3876,32000
3877,32000
3878,32000
3879,31936
3880,32000
3881,32064
3882,32128
3883,32256
3884,32320
3885,32448
3886,32512
3887,32576
3888,32576
3889,32704
3890,32768
3891,32768
3892,32832
3893,32896
3894,32896
3895,32896
3896,32960
3897,33088
3898,33088
3899,33088
3900,33024
3901,33152
3902,33216
3903,33280
3904,33280
3905,33408
3906,33472
3907,33408
3908,33344
3909,33344
3910,33408
3911,33408
3912,33408
3913,33408
3914,33472
3915,33472
3916,33408
3917,33472
3918,33536
3919,33600
3920,33536
3921,33472
3922,33408
3923,33408
3924,33344
3925,33344
3926,33344
3927,33408
3928,33408
3929,33344
3930,33408
3931,33472
3932,33408
3933,33408
3934,33536
3935,33600
3936,33600
3937,33472
3938,33472
3939,33472
3940,33472
3941,33408
3942,33472
3943,33536
3944,33536
3945,33472
3946,33472
3947,33536
3948,33600
3949,33536
3950,33536
3951,33600
3952,33600
3953,33536
3954,33536
3955,33600
3956,33664
3957,33664
3958,33600
3959,33728
3960,33856
3961,34048
3962,34240
3963,34432
3964,34560
3965,34560
3966,34560
3967,34688
3968,34944
3969,35072
3970,35008
3971,34816
3972,34560
3973,34240
3974,33920
3975,33664
3976,33600
3977,33472
3978,33280
3979,33088
3980,33024
3981,33088
3982,33088
3983,33088
3984,33152
3985,33280
3986,33344
3987,33344
3988,33408
3989,33536
3990,33536
3991,33536
3992,33472
3993,33536
3994,33536
3995,33536
3996,33472
3997,33344
3998,33280
3999,33536
4000,34496
4001,36160
4002,38464
4003,41408
4004,44672
4005,47488
4006,48256
4007,46336
4008,43072
4009,39232
4010,35456
4011,32320
4012,30144
4013,28992
4014,28672
4015,28928
4016,29440
4017,30080
4018,30592
4019,31104
4020,31552
4021,31872
4022,32128
4023,32384
4024,32512
4025,32640
4026,32768
4027,32832
4028,32832
4029,32832
4030,32960
4031,33088
4032,33152
4033,33216
4034,33280
4035,33344
4036,33408
4037,33408
4038,33472
4039,33600
4040,33600
4041,33728
4042,33792
4043,33856
4044,33920
4045,33856
4046,33792
4047,33920
4048,34048
4049,34112
4050,34240
4051,34432
4052,34624
4053,34688
4054,34752
4055,34880
4056,35072
4057,35200
4058,35200
4059,35328
4060,35520
4061,35712
4062,35840
4063,35904
4064,35904
4065,35904
4066,35904
4067,35904
4068,35968
4069,35968
4070,35904
4071,35776
4072,35648
4073,35392
4074,35008
4075,34624
4076,34240
4077,33856
4078,33472
4079,33088
4080,32768
4081,32640
4082,32448
4083,32320
4084,32256
4085,32256
4086,32128
4087,32128
4088,32192
4089,32320
4090,32448
4091,32512
4092,32576
4093,32704
4094,32768
4095,32768
4096,32896
4097,33024
4098,33152
4099,33152
4100,33088
4101,33088
4102,33088
4103,33152
4104,33152
4105,33152
4106,33344
4107,33408
4108,33408
4109,33408
4110,33472
4111,33408
4112,33408
4113,33472
4114,33536
4115,33600
4116,33600
4117,33600
4118,33664
4119,33664
4120,33664
4121,33600
4122,33728
4123,33728
4124,33728
4125,33664
4126,33664
4127,33664
4128,33664
4129,33600
4130,33600
4131,33600
4132,33664
4133,33664
4134,33664
4135,33728
4136,33792
4137,33728
4138,33728
4139,33728
4140,33728
4141,33664
4142,33664
4143,33728
4144,33728
4145,33664
4146,33664
4147,33664
4148,33728
4149,33792
4150,33728
4151,33792
4152,33792
4153,33792
4154,33792
4155,33728
4156,33792
4157,33728
4158,33728
4159,33728
4160,33728
4161,33728
4162,33728
4163,33728
4164,33856
4165,33856
4166,33792
4167,33792
4168,33856
4169,33856
4170,33792
4171,33728
4172,33728
4173,33792
4174,33792
4175,33920
4176,34048
4177,34368
4178,34560
4179,34688
4180,34816
4181,35008
4182,35072
4183,35136
4184,35200
4185,35328
4186,35264
4187,35008
4188,34624
4189,34304
4190,33984
4191,33728
4192,33600
4193,33536
4194,33408
4195,33344
4196,33344
4197,33408
4198,33472
4199,33472
4200,33536
4201,33600
4202,33664
4203,33536
4204,33536
4205,33536
4206,33664
4207,33664
4208,33728
4209,33728
4210,33792
4211,33792
4212,33664
4213,33472
4214,33536
4215,34112
4216,35392
4217,37312
4218,40000
4219,43264
4220,46400
4221,48256
4222,47680
4223,44928
4224,41344
4225,37440
4226,33920
4227,31040
4228,29696
4229,28928
4230,28864
4231,29312
4232,29952
4233,30528
4234,31040
4235,31488
4236,31936
4237,32256
4238,32448
4239,32640
4240,32768
4241,32896
4242,33024
4243,33152
4244,33216
4245,33216
4246,33216
4247,33280
4248,33344
4249,33408
4250,33408
4251,33536
4252,33664
4253,33664
4254,33664
4255,33728
4256,33792
4257,33856
4258,33856
4259,33920
4260,34048
4261,34048
4262,34048
4263,34112
4264,34304
4265,34496
4266,34560
4267,34624
4268,34688
4269,34816
4270,34880
4271,35008
4272,35200
4273,35392
4274,35520
4275,35648
4276,35776
4277,35904
4278,35968
4279,36032
4280,36096
4281,36160
4282,36160
4283,36096
4284,36160
4285,36160
4286,36032
4287,35840
4288,35584
4289,35328
4290,35008
4291,34624
4292,34240
4293,33856
4294,33536
4295,33152
4296,32832
4297,32640
4298,32448
4299,32320
4300,32192
4301,32128
4302,32256
4303,32256
4304,32320
4305,32384
4306,32512
4307,32576
4308,32640
4309,32704
4310,32832
4311,32960
4312,32960
4313,32960
4314,33024
4315,33024
4316,33024
4317,33024
4318,33088
4319,33152
4320,33216
4321,33216
4322,33344
4323,33408
4324,33472
4325,33472
4326,33472
4327,33536
4328,33536
4329,33536
4330,33536
4331,33600
4332,33600
4333,33536
4334,33536
4335,33600
4336,33664
4337,33728
4338,33664
4339,33600
4340,33536
4341,33472
4342,33472
4343,33600
4344,33728
4345,33664
4346,33600
4347,33600
4348,33600
4349,33600
4350,33600
4351,33600
4352,33664
4353,33600
4354,33600
4355,33664
4356,33728
4357,33728
4358,33664
4359,33664
4360,33728
4361,33792
4362,33728
4363,33728
4364,33792
4365,33792
4366,33792
4367,33856
4368,33920
4369,33856
4370,33664
4371,33536
4372,33536
4373,33664
4374,33728
4375,33792
4376,33728
4377,33792
4378,33792
4379,33792
4380,33856
4381,33984
4382,33984
4383,33920
4384,33856
4385,33920
4386,33920
4387,33920
4388,33856
4389,33856
4390,33920
4391,33920
4392,33920
4393,33984
4394,33984
4395,33984
4396,34048
4397,34176
4398,34112
4399,33920
4400,33856
4401,33984
4402,34304
4403,34688
4404,34880
4405,35072
4406,35200
4407,35136
4408,35264
4409,35584
4410,35520
4411,35200
4412,34816
4413,34496
4414,34112
4415,33856
4416,33728
4417,33664
4418,33664
4419,33664
4420,33536
4421,33472
4422,33408
4423,33536
4424,33600
4425,33600
4426,33664
4427,33728
4428,33664
4429,33728
4430,33792
4431,33792
4432,33792
4433,33728
4434,33856
4435,33856
4436,33792
4437,33600
4438,33664
4439,34496
4440,36032
4441,38144
4442,40960
4443,44288
4444,47168
4445,48384
4446,46976
4447,43904
4448,40192
4449,36416
4450,33280
4451,30656
4452,30528
4453,29568
4454,29120
4455,29632
4456,30208
4457,30720
4458,31232
4459,31744
4460,32128
4461,32384
4462,32576
4463,32768
4464,32960
4465,33024
4466,33088
4467,33088
4468,33152
4469,33344
4470,33344
4471,33408
4472,33472
4473,33536
4474,33600
4475,33664
4476,33792
4477,33792
4478,33728
4479,33792
4480,33856
4481,33792
4482,33984
4483,33984
4484,34112
4485,34176
4486,34176
4487,34304
4488,34432
4489,34624
4490,34688
4491,34816
4492,35008
4493,35200
4494,35200
4495,35136
4496,35200
4497,35200
4498,35328
4499,35648
4500,35776
4501,35968
4502,36096
4503,36096
4504,36160
4505,36224
4506,36288
4507,36224
4508,36096
4509,36096
4510,36032
4511,35840
4512,35712
4513,35584
4514,35072
4515,34624
4516,34240
4517,33920
4518,33536
4519,33216
4520,32896
4521,32704
4522,32640
4523,32448
4524,32256
4525,32256
4526,32192
4527,32448
4528,32448
4529,32512
4530,32576
4531,32640
4532,32704
4533,32768
4534,32960
4535,33024
4536,33024
4537,33024
4538,33024
4539,33152
4540,33152
4541,33216
4542,33280
4543,33344
4544,33344
4545,33344
4546,33408
4547,33536
4548,33536
4549,33600
4550,33600
4551,33728
4552,33792
4553,33792
4554,33792
4555,33920
4556,33984
4557,33920
4558,33856
4559,33856
4560,33856
4561,33792
4562,33792
4563,33856
4564,33856
4565,33920
4566,33856
4567,33856
4568,33856
4569,33792
4570,33792
4571,33792
4572,33792
4573,33856
4574,33792
4575,33792
4576,33856
4577,33920
4578,33920
4579,33920
4580,33984
4581,33984
4582,33984
4583,33920
4584,33984
4585,33920
4586,33856
4587,33792
4588,33792
4589,33856
4590,33856
4591,33856
4592,33856
4593,33920
4594,33920
4595,33920
4596,33920
4597,33984
4598,33920
4599,33856
4600,33856
4601,33920
4602,33984
4603,33984
4604,33920
4605,33920
4606,33984
4607,33984
4608,33920
4609,33920
4610,33920
4611,33920
4612,34048
4613,34176
4614,34432
4615,34560
4616,34688
4617,34816
4618,35008
4619,35136
4620,35264
4621,35328
4622,35328
4623,35072
4624,34752
4625,34496
4626,34304
4627,34112
4628,33856
4629,33536
4630,33408
4631,33280
4632,33280
4633,33280
4634,33344
4635,33472
4636,33536
4637,33536
4638,33600
4639,33664
4640,33664
4641,33600
4642,33600
4643,33728
4644,33728
4645,33664
4646,33664
4647,33600
4648,33728
4649,33600
4650,33408
4651,33536
4652,34304
4653,35712
4654,37824
4655,40704
4656,44096
4657,46912
4658,47808
4659,46208
4660,43008
4661,38464
4662,38272
4663,32768
4664,30784
4665,29632
4666,29184
4667,29312
4668,29696
4669,30208
4670,30720
4671,31232
4672,31744
4673,32128
4674,32384
4675,32576
4676,32832
4677,32768
4678,32960
4679,33024
4680,33152
4681,33216
4682,33216
4683,33216
4684,33280
4685,33344
4686,33408
4687,33408
4688,33472
4689,33472
4690,33536
4691,33600
4692,33664
4693,33792
4694,33856
4695,33856
4696,33920
4697,34048
4698,34176
4699,34240
4700,34176
4701,34304
4702,34368
4703,34496
4704,34560
4705,34688
4706,34880
4707,34816
4708,35008
4709,35200
4710,35328
4711,35456
4712,35520
4713,35712
4714,35840
4715,35904
4716,35968
4717,36032
4718,36096
4719,36096
4720,36032
4721,35968
4722,35904
4723,35776
4724,35584
4725,35392
4726,35136
4727,34752
4728,34304
4729,33856
4730,33472
4731,33152
4732,32768
4733,32448
4734,32320
4735,32192
4736,32128
4737,32000
4738,32064
4739,32192
4740,32192
4741,32256
4742,32320
4743,32448
4744,32640
4745,32704
4746,32704
4747,32768
4748,32768
4749,32704
4750,32704
4751,32832
4752,32832
4753,33024
4754,33088
4755,33088
4756,33152
4757,33152
4758,33216
4759,33280
4760,33408
4761,33536
4762,33408
4763,33344
4764,33408
4765,33472
4766,33472
4767,33472
4768,33536
4769,33600
4770,33600
4771,33600
4772,33728
4773,33728
4774,33728
4775,33664
4776,33728
4777,33792
4778,33792
4779,33728
4780,33728
4781,33728
4782,33664
4783,33664
4784,33600
4785,33600
4786,33600
4787,33600
4788,33600
4789,33664
4790,33664
4791,33664
4792,33664
4793,33792
4794,33856
4795,33792
4796,33728
4797,33664
4798,33728
4799,33728
4800,33728
4801,33792
4802,33856
4803,33856
4804,33792
4805,33728
4806,33728
4807,33728
4808,33792
4809,33856
4810,33984
4811,33856
4812,33792
4813,33792
4814,33856
4815,33856
4816,33792
4817,33792
4818,33856
4819,33856
4820,33792
4821,33792
4822,33920
4823,33984
4824,33984
4825,33920
4826,33984
4827,33920
4828,33920
4829,33920
4830,33984
4831,33984
4832,33920
4833,33920
4834,34048
4835,34240
4836,34368
4837,34432
4838,34624
4839,34880
4840,34944
4841,35008
4842,35200
4843,35456
4844,35520
4845,35264
4846,34944
4847,34560
4848,34240
4849,33920
4850,33728
4851,33664
4852,33664
4853,33536
4854,33408
4855,33408
4856,33472
4857,33408
4858,33536
4859,33536
4860,33664
4861,33728
4862,33728
4863,33664
4864,33664
4865,33664
4866,33600
4867,33664
4868,33728
4869,33792
4870,33792
4871,33600
4872,33536
4873,33536
4874,34112
4875,35392
4876,37376
4877,40000
4878,43200
4879,46336
4880,48192
4881,47488
4882,44672
4883,41024
4884,37248
4885,33984
4886,30784
4887,30528
4888,28992
4889,28992
4890,29376
4891,29888
4892,30464
4893,31104
4894,31552
4895,31808
4896,32064
4897,32384
4898,32640
4899,32768
4900,32896
4901,33088
4902,33216
4903,33280
4904,33280
4905,33344
4906,33408
4907,33408
4908,33472
4909,33536
4910,33536
4911,33472
4912,33472
4913,33536
4914,33728
4915,33792
4916,33856
4917,33920
4918,34048
4919,34112
4920,34112
4921,34176
4922,34368
4923,34496
4924,34496
4925,34560
4926,34624
4927,34752
4928,34816
4929,34880
4930,35008
4931,35264
4932,35200
4933,35584
4934,35776
4935,35968
4936,36032
4937,36096
4938,36160
4939,36224
4940,36288
4941,36288
4942,36288
4943,36288
4944,36224
4945,36096
4946,35904
4947,35648
4948,35392
4949,35072
4950,34688
4951,34304
4952,33920
4953,33536
4954,33152
4955,32896
4956,32704
4957,32448
4958,32256
4959,32128
4960,32128
4961,32256
4962,32192
4963,32320
4964,32448
4965,32576
4966,32576
4967,32576
4968,32576
4969,32704
4970,32768
4971,32832
4972,32896
4973,33024
4974,33088
4975,33152
4976,33280
4977,33344
4978,33344
4979,33280
4980,33280
4981,33280
4982,33344
4983,33408
4984,33536
4985,33664
4986,33664
4987,33664
4988,33664
4989,33664
4990,33600
4991,33536
4992,33472
4993,33664
4994,33856
4995,33856
4996,33728
4997,33728
4998,33728
4999,33664
5000,33600
5001,33664
5002,33792
5003,33792
5004,33792
5005,33792
5006,33728
5007,33664
5008,33600
5009,33536
5010,33600
5011,33600
5012,33600
5013,33600
5014,33664
5015,33728
5016,33728
5017,33728
5018,33792
5019,33792
5020,33728
5021,33664
5022,33664
5023,33792
5024,33792
5025,33856
5026,33920
5027,33856
5028,33856
5029,33792
5030,33728
5031,33728
5032,33728
5033,33728
5034,33792
5035,33920
5036,33984
5037,33920
5038,33856
5039,33856
5040,33856
5041,33856
5042,33920
5043,33984
5044,33984
5045,33984
5046,33920
5047,33920
5048,33984
5049,33984
5050,33920
5051,33792
5052,33792
5053,33856
5054,33920
5055,33984
5056,34048
5057,34048
5058,33984
5059,33920
5060,33984
5061,34112
5062,34240
5063,34368
5064,34560
5065,34624
5066,34752
5067,34752
5068,35072
5069,35392
5070,35520
5071,35520
5072,35392
5073,35200
5074,34880
5075,34432
5076,34112
5077,33984
5078,33792
5079,33664
5080,33536
5081,33408
5082,33408
5083,33408
5084,33536
5085,33664
5086,33792
5087,33728
5088,33728
5089,33792
5090,33728
5091,33664
5092,33664
5093,33728
5094,33792
5095,33792
5096,33792
5097,33920
5098,33984
5099,33728
5100,33472
5101,33664
5102,34560
5103,36160
5104,38400
5105,41408
5106,44800
5107,47552
5108,48256
5109,46400
5110,43200
5111,39424
5112,35712
5113,32576
5114,30528
5115,29376
5116,28992
5117,29120
5118,29632
5119,30272
5120,30848
5121,31360
5122,31744
5123,32128
5124,32320
5125,32448
5126,32704
5127,32832
5128,32960
5129,33024
5130,33152
5131,33344
5132,33408
5133,33344
5134,33344
5135,33344
5136,33408
5137,33408
5138,33408
5139,33472
5140,33536
5141,33664
5142,33600
5143,33792
5144,33856
5145,33920
5146,33920
5147,34048
5148,34176
5149,34240
5150,34240
5151,34304
5152,34496
5153,34560
5154,34560
5155,34688
5156,35008
5157,35136
5158,35200
5159,35264
5160,35328
5161,35456
5162,35584
5163,35648
5164,35840
5165,35968
5166,36032
5167,36096
5168,36288
5169,36288
5170,36160
5171,35904
5172,35840
5173,35776
5174,35648
5175,35520
5176,35264
5177,35008
5178,34624
5179,34112
5180,33664
5181,33344
5182,33024
5183,32704
5184,32448
5185,32320
5186,32320
5187,32256
5188,32256
5189,32192
5190,32128
5191,32064
5192,32128
5193,32256
5194,32448
5195,32576
5196,32640
5197,32768
5198,32832
5199,32832
5200,32832
5201,33024
5202,32960
5203,33088
5204,33024
5205,33024
5206,33152
5207,33216
5208,33216
5209,33216
5210,33344
5211,33472
5212,33600
5213,33600
5214,33600
5215,33664
5216,33600
5217,33600
5218,33600
5219,33600
5220,33600
5221,33536
5222,33600
5223,33728
5224,33664
5225,33664
5226,33792
5227,33920
5228,33792
5229,33664
5230,33600
5231,33664
5232,33600
5233,33600
5234,33728
5235,33856
5236,33792
5237,33664
5238,33600
5239,33664
5240,33728
5241,33728
5242,33728
5243,33792
5244,33856
5245,33920
5246,33792
5247,33792
5248,33792
5249,33728
5250,33728
5251,33728
5252,33856
5253,33856
5254,33856
5255,33920
5256,33984
5257,34048
5258,33984
5259,33856
5260,33856
5261,33856
5262,33856
5263,33856
5264,33984
5265,34048
5266,33984
5267,33984
5268,34048
5269,34112
5270,34048
5271,33984
5272,34048
5273,34048
5274,33984
5275,33920
5276,33984
5277,34112
5278,34112
5279,34048
5280,33984
5281,34048
5282,34048
5283,33984
5284,33984
5285,34048
5286,34112
5287,34176
5288,34112
5289,34112
5290,34176
5291,34368
5292,34368
5293,34752
5294,34944
5295,35008
5296,35008
5297,35072
5298,35264
5299,35456
5300,35392
5301,35264
5302,35008
5303,34752
5304,34432
5305,34240
5306,34112
5307,34048
5308,33792
5309,33600
5310,33536
5311,33600
5312,33536
5313,33536
5314,33600
5315,33792
5316,33792
5317,33856
5318,33856
5319,33856
5320,33856
5321,33856
5322,33856
5323,33984
5324,34048
5325,33984
5326,33920
5327,33728
5328,33472
5329,33472
5330,33920
5331,34944
5332,36480
5333,38528
5334,41152
5335,43776
5336,45056
5337,44032
5338,41536
5339,38720
5340,35904
5341,33408
5342,31616
5343,30656
5344,30336
5345,30464
5346,30784
5347,31232
5348,31872
5349,32384
5350,32704
5351,32896
5352,33024
5353,33216
5354,33280
5355,33344
5356,33536
5357,33728
5358,33792
5359,33792
5360,33856
5361,33856
5362,33792
5363,33792
5364,33792
5365,33856
5366,33984
5367,33984
5368,34048
5369,34112
5370,34112
5371,34112
5372,34112
5373,34240
5374,34304
5375,34368
5376,34496
5377,34688
5378,34688
5379,34688
5380,34752
5381,34880
5382,35008
5383,35072
5384,35136
5385,35200
5386,35328
5387,35328
5388,35456
5389,35648
5390,35904
5391,36096
5392,36224
5393,36352
5394,36416
5395,36480
5396,36544
5397,36480
5398,36480
5399,36416
5400,36288
5401,36224
5402,36160
5403,36032
5404,35648
5405,35264
5406,34944
5407,34560
5408,34112
5409,33728
5410,33472
5411,33024
5412,32512
5413,32128
5414,31936
5415,31808
5416,31744
5417,31808
5418,31872
5419,32000
5420,32000
5421,31936
5422,32000
5423,32128
5424,32256
5425,32320
5426,32384
5427,32512
5428,32576
5429,32640
5430,32704
5431,32768
5432,32832
5433,32768
5434,32768
5435,32896
5436,33088
5437,33216
5438,33280
5439,33280
5440,33280
5441,33216
5442,33152
5443,33280
5444,33408
5445,33472
5446,33536
5447,33536
5448,33600
5449,33536
5450,33472
5451,33472
5452,33536
5453,33600
5454,33600
5455,33600
5456,33664
5457,33664
5458,33536
5459,33408
5460,33408
5461,33536
5462,33600
5463,33536
5464,33472
5465,33408
5466,33408
5467,33408
5468,33408
5469,33472
5470,33536
5471,33536
5472,33600
5473,33600
5474,33600
5475,33536
5476,33472
5477,33600
5478,33600
5479,33600
5480,33600
5481,33728
5482,33792
5483,33664
5484,33600
5485,33600
5486,33600
5487,33536
5488,33536
5489,33600
5490,33664
5491,33728
5492,33728
5493,33792
5494,33792
5495,33728
5496,33728
5497,33728
5498,33792
5499,33856
5500,33856
5501,33792
5502,33856
5503,33856
5504,33856
5505,33856
5506,33920
5507,33984
5508,33920
5509,33856
5510,33856
5511,33856
5512,33792
5513,33856
5514,34048
5515,34240
5516,34432
5517,34560
5518,34688
5519,34944
5520,35072
5521,35200
5522,35328
5523,35392
5524,35328
5525,35072
5526,34752
5527,34432
5528,34112
5529,33856
5530,33664
5531,33472
5532,33344
5533,33280
5534,33344
5535,33408
5536,33472
5537,33472
5538,33536
5539,33664
5540,33792
5541,33792
5542,33728
5543,33664
5544,33664
5545,33728
5546,33792
5547,33856
5548,33920
5549,33856
5550,33664
5551,33408
5552,33536
5553,34112
5554,35392
5555,37312
5556,39872
5557,42944
5558,46144
5559,48128
5560,47680
5561,44800
5562,41088
5563,37440
5564,34048
5565,31552
5566,29952
5567,29184
5568,29120
5569,29440
5570,30016
5571,30592
5572,31168
5573,31616
5574,31936
5575,32128
5576,32448
5577,32768
5578,32896
5579,32960
5580,33024
5581,33152
5582,33216
5583,33216
5584,33216
5585,33280
5586,33408
5587,33472
5588,33472
5589,33536
5590,33664
5591,33664
5592,33728
5593,33792
5594,33856
5595,33856
5596,33920
5597,33984
5598,34048
5599,34176
5600,34176
5601,34304
5602,34368
5603,34496
5604,34560
5605,34624
5606,34688
5607,34752
5608,34880
5609,35008
5610,35200
5611,35392
5612,35456
5613,35520
5614,35712
5615,35968
5616,36032
5617,36032
5618,36032
5619,36096
5620,36096
5621,36096
5622,36096
5623,36096
5624,36032
5625,35904
5626,35712
5627,35456
5628,35200
5629,34880
5630,34432
5631,34048
5632,33536
5633,33024
5634,32704
5635,32448
5636,32320
5637,32128
5638,32064
5639,32000
5640,32000
5641,32000
5642,32000
5643,32128
5644,32320
5645,32512
5646,32576
5647,32704
5648,32768
5649,32768
5650,32704
5651,32704
5652,32832
5653,32960
5654,33024
5655,32960
5656,32896
5657,32896
5658,32896
5659,32960
5660,33088
5661,33216
5662,33216
5663,33216
5664,33344
5665,33408
5666,33472
5667,33408
5668,33344
5669,33344
5670,33344
5671,33344
5672,33344
5673,33408
5674,33472
5675,33472
5676,33408
5677,33344
5678,33408
5679,33408
5680,33408
5681,33408
5682,33472
5683,33472
5684,33408
5685,33344
5686,33344
5687,33280
5688,33280
5689,33280
5690,33344
5691,33408
5692,33408
5693,33408
5694,33408
5695,33408
5696,33408
5697,33408
5698,33472
5699,33472
5700,33408
5701,33344
5702,33408
5703,33408
5704,33408
5705,33408
5706,33408
5707,33472
5708,33408
5709,33408
5710,33408
5711,33536
5712,33600
5713,33600
5714,33600
5715,33600
5716,33536
5717,33344
5718,33216
5719,33280
5720,33280
5721,33280
5722,33344
5723,33472
5724,33536
5725,33472
5726,33472
5727,33536
5728,33600
5729,33536
5730,33472
5731,33536
5732,33664
5733,33664
5734,33472
5735,33344
5736,33408
5737,33472
5738,33408
5739,33344
5740,33344
5741,33344
5742,33280
5743,33344
5744,33536
5745,33728
5746,33856
5747,34048
5748,34240
5749,34368
5750,34432
5751,34432
5752,34560
5753,34752
5754,34752
5755,34624
5756,34368
5757,34112
5758,33856
5759,33536
5760,33280
5761,33088
5762,32960
5763,32832
5764,32832
5765,32896
5766,32832
5767,32832
5768,32768
5769,32896
5770,32960
5771,32960
5772,32960
5773,33088
5774,33152
5775,33088
5776,33088
5777,33152
5778,33280
5779,33408
5780,33344
5781,33152
5782,32896
5783,32832
5784,33408
5785,34816
5786,36864
5787,39488
5788,42752
5789,45952
5790,47808
5791,46912
5792,43904
5793,40192
5794,36480
5795,33216
5796,30656
5797,29056
5798,28352
5799,28352
5800,28672
5801,29248
5802,29888
5803,30464
5804,30848
5805,31232
5806,31616
5807,31936
5808,32064
5809,32192
5810,32320
5811,32448
5812,32448
5813,32512
5814,32576
5815,32640
5816,32704
5817,32768
5818,32832
5819,32832
5820,32832
5821,32768
5822,32768
5823,32896
5824,33024
5825,33152
5826,33216
5827,33344
5828,33472
5829,33408
5830,33408
5831,33472
5832,33600
5833,33664
5834,33792
5835,33984
5836,34048
5837,33984
5838,34048
5839,34176
5840,34368
5841,34560
5842,34688
5843,34880
5844,35072
5845,35264
5846,35328
5847,35392
5848,35456
5849,35456
5850,35520
5851,35520
5852,35584
5853,35648
5854,35584
5855,35456
5856,35392
5857,35264
5858,35136
5859,34880
5860,34432
5861,33920
5862,33408
5863,32896
5864,32512
5865,32256
5866,31936
5867,31680
5868,31552
5869,31552
5870,31552
5871,31552
5872,31552
5873,31680
5874,31808
5875,31872
5876,31936
5877,32064
5878,32192
5879,32192
5880,32192
5881,32192
5882,32192
5883,32256
5884,32320
5885,32448
5886,32512
5887,32576
5888,32512
5889,32512
5890,32640
5891,32704
5892,32768
5893,32832
5894,32960
5895,33024
5896,33024
5897,33024
5898,33024
5899,33024
5900,32960
5901,32960
5902,33152
5903,33280
5904,33216
5905,33088
5906,33088
5907,33216
5908,33216
5909,33152
5910,33152
5911,33216
5912,33152
5913,33152
5914,33152
5915,33280
5916,33280
5917,33216
5918,33152
5919,33216
5920,33344
5921,33344
5922,33280
5923,33216
5924,33152
5925,33152
5926,33216
5927,33280
5928,33344
5929,33344
5930,33344
5931,33408
5932,33408
5933,33408
5934,33344
5935,33472
5936,33536
5937,33472
5938,33408
5939,33408
5940,33408
5941,33408
5942,33408
5943,33536
5944,33600
5945,33600
5946,33408
5947,33280
5948,33280
5949,33344
5950,33408
5951,33472
5952,33472
5953,33536
5954,33472
5955,33408
5956,33472
5957,33600
5958,33536
5959,33408
5960,33344
5961,33408
5962,33472
5963,33536
5964,33536
5965,33600
5966,33536
5967,33408
5968,33472
5969,33600
5970,33664
5971,33600
5972,33536
5973,33472
5974,33472
5975,33472
5976,33664
5977,33856
5978,34112
5979,34304
5980,34496
5981,34624
5982,34752
5983,34880
5984,35008
5985,34880
5986,34688
5987,34432
5988,33984
5989,33664
5990,33536
5991,33408
5992,33216
5993,33024
5994,32960
5995,32960
5996,32960
5997,32960
5998,33024
5999,33216
6000,33280
6001,33344
6002,33344
6003,33408
6004,33344
6005,33280
6006,33280
6007,33344
6008,33344
6009,33344
6010,33344
6011,33280
6012,33024
6013,32832
6014,33088
6015,34112
6016,35840
6017,38080
6018,41024
6019,44416
6020,47232
6021,47872
6022,45888
6023,42560
6024,38720
6025,35008
6026,32000
6027,29888
6028,28992
6029,28608
6030,28736
6031,29184
6032,29824
6033,30464
6034,30912
6035,31296
6036,31680
6037,32000
6038,32256
6039,32512
6040,32640
6041,32576
6042,32576
6043,32640
6044,32768
6045,32832
6046,32832
6047,32832
6048,32960
6049,33024
6050,33024
6051,32960
6052,33088
6053,33280
6054,33344
6055,33408
6056,33472
6057,33536
6058,33600
6059,33600
6060,33664
6061,33728
6062,33728
6063,33664
6064,33728
6065,33920
6066,34112
6067,34240
6068,34432
6069,34624
6070,34752
6071,34752
6072,34816
6073,34944
6074,35136
6075,35264
6076,35392
6077,35456
6078,35584
6079,35712
6080,35840
6081,35840
6082,35840
6083,35776
6084,35712
6085,35648
6086,35648
6087,35584
6088,35392
6089,35072
6090,34752
6091,34432
6092,33920
6093,33472
6094,33152
6095,32896
6096,32576
6097,32320
6098,32128
6099,31936
6100,31872
6101,31808
6102,31744
6103,31872
6104,31872
6105,31936
6106,32000
6107,32192
6108,32320
6109,32384
6110,32512
6111,32832
6112,32960
6113,32704
6114,32512
6115,32576
6116,32640
6117,32640
6118,32704
6119,32832
6120,33024
6121,33024
6122,33024
6123,33152
6124,33280
6125,33280
6126,33344
6127,33472
6128,33472
6129,33472
6130,33408
6131,33344
6132,33344
6133,33344
6134,33280
6135,33408
6136,33472
6137,33472
6138,33408
6139,33344
6140,33344
6141,33344
6142,33344
6143,33472
6144,33600
6145,33728
6146,33664
6147,33600
6148,33472
6149,33408
6150,33344
6151,33280
6152,33280
6153,33280
6154,33280
6155,33344
6156,33472
6157,33536
6158,33536
6159,33600
6160,33600
6161,33600
6162,33536
6163,33536
6164,33600
6165,33536
6166,33536
6167,33472
6168,33472
6169,33536
6170,33600
6171,33600
6172,33664
6173,33664
6174,33728
6175,33664
6176,33536
6177,33536
6178,33600
6179,33600
6180,33600
6181,33600
6182,33664
6183,33664
6184,33664
6185,33664
6186,33664
6187,33664
6188,33664
6189,33728
6190,33792
6191,33792
6192,33728
6193,33856
6194,33920
6195,33920
6196,33728
6197,33664
6198,33664
6199,33792
6200,33920
6201,33856
6202,33792
6203,33792
6204,33856
6205,33920
6206,34112
6207,34304
6208,34496
6209,34624
6210,34816
6211,35136
6212,35392
6213,35456
6214,35328
6215,35072
6216,34688
6217,34240
6218,33984
6219,33856
6220,33856
6221,33728
6222,33472
6223,33280
6224,33280
6225,33344
6226,33536
6227,33728
6228,33664
6229,33472
6230,33408
6231,33408
6232,33408
6233,33408
6234,33408
6235,33536
6236,33472
6237,33664
6238,33664
6239,33792
6240,33664
6241,33600
6242,33856
6243,34752
6244,36416
6245,38528
6246,41408
6247,44672
6248,47488
6249,48064
6250,46016
6251,45184
6252,42304
6253,35456
6254,32384
6255,30336
6256,29248
6257,28992
6258,29248
6259,29696
6260,30144
6261,30656
6262,31168
6263,31552
6264,31936
6265,32256
6266,32256
6267,32384
6268,32640
6269,32896
6270,33024
6271,33152
6272,33280
6273,33280
6274,33280
6275,33344
6276,33472
6277,33536
6278,33408
6279,33344
6280,33344
6281,33344
6282,33408
6283,33600
6284,33664
6285,33792
6286,33856
6287,33856
6288,33984
6289,34112
6290,34304
6291,34240
6292,34240
6293,34368
6294,34496
6295,34624
6296,34560
6297,34816
6298,34944
6299,35072
6300,35136
6301,35200
6302,35328
6303,35456
6304,35584
6305,35712
6306,35904
6307,35968
6308,35968
6309,36096
6310,36288
6311,36352
6312,36160
6313,35840
6314,35712
6315,35520
6316,35392
6317,35264
6318,35072
6319,34624
6320,34176
6321,33728
6322,33344
6323,33088
6324,32768
6325,32512
6326,32320
6327,32256
6328,32256
6329,32128
6330,32064
6331,32064
6332,32192
6333,32256
6334,32256
6335,32384
6336,32384
6337,32384
6338,32512
6339,32640
6340,32768
6341,32832
6342,32896
6343,33024
6344,33152
6345,33088
6346,33024
6347,33024
6348,33152
6349,33216
6350,33280
6351,33280
6352,33408
6353,33472
6354,33408
6355,33472
6356,33536
6357,33472
6358,33472
6359,33472
6360,33600
6361,33728
6362,33600
6363,33536
6364,33536
6365,33600
6366,33664
6367,33728
6368,33792
6369,33728
6370,33536
6371,33408
6372,33408
6373,33536
6374,33536
6375,33536
6376,33472
6377,33536
6378,33600
6379,33664
6380,33728
6381,33728
6382,33728
6383,33600
6384,33536
6385,33600
6386,33664
6387,33664
6388,33600
6389,33728
6390,33856
6391,33728
6392,33536
6393,33536
6394,33600
6395,33664
6396,33664
6397,33728
6398,33792
6399,33792
6400,33664
6401,33664
6402,33664
6403,33856
6404,33792
6405,33728
6406,33728
6407,33792
6408,33792
6409,33856
6410,33984
6411,34048
6412,33920
6413,33792
6414,33792
6415,33856
6416,33856
6417,33920
6418,34176
6419,34496
6420,34624
6421,34752
6422,34880
6423,35136
6424,35328
6425,35328
6426,35328
6427,35200
6428,34944
6429,34624
6430,34368
6431,34112
6432,33920
6433,33728
6434,33472
6435,33344
6436,33344
6437,33344
6438,33408
6439,33536
6440,33664
6441,33600
6442,33472
6443,33408
6444,33472
6445,33536
6446,33600
6447,33600
6448,33728
6449,33728
6450,33728
6451,33856
6452,33984
6453,33792
6454,33472
6455,33600
6456,34432
6457,35968
6458,38080
6459,40960
6460,44352
6461,47488
6462,48192
6463,46464
6464,43200
6465,39424
6466,35712
6467,32704
6468,30720
6469,29632
6470,29184
6471,29312
6472,29760
6473,30400
6474,30976
6475,31424
6476,31872
6477,32320
6478,32640
6479,32704
6480,32832
6481,32960
6482,33152
6483,33344
6484,33472
6485,33536
6486,33536
6487,33472
6488,33408
6489,33472
6490,33600
6491,33728
6492,33728
6493,33728
6494,33728
6495,33728
6496,33792
6497,33920
6498,34112
6499,34176
6500,34176
6501,34176
6502,34368
6503,34560
6504,34688
6505,34752
6506,34816
6507,34816
6508,34816
6509,34880
6510,35008
6511,35136
6512,35200
6513,35328
6514,35520
6515,35712
6516,35776
6517,35904
6518,36032
6519,36160
6520,36224
6521,36224
6522,36352
6523,36352
6524,36352
6525,36224
6526,36224
6527,36224
6528,36096
6529,35776
6530,35456
6531,35136
6532,34752
6533,34304
6534,33856
6535,33600
6536,33216
6537,32832
6538,32640
6539,32448
6540,32384
6541,32320
6542,32256
6543,32320
6544,32448
6545,32576
6546,32576
6547,32640
6548,32768
6549,32768
6550,32768
6551,32768
6552,32896
6553,33024
6554,33088
6555,33088
6556,33152
6557,33216
6558,33216
6559,33280
6560,33344
6561,33408
6562,33536
6563,33536
6564,33600
6565,33664
6566,33600
6567,33664
6568,33728
6569,33792
6570,33728
6571,33792
6572,33984
6573,33984
6574,33856
6575,33728
6576,33792
6577,33856
6578,33856
6579,33792
6580,33856
6581,33856
6582,33792
6583,33792
6584,33792
6585,33856
6586,33856
6587,33792
6588,33792
6589,33856
6590,33920
6591,33856
6592,33856
6593,33856
6594,33792
6595,33792
6596,33728
6597,33728
6598,33728
6599,33792
6600,33792
6601,33856
6602,33920
6603,33984
6604,33920
6605,33792
6606,33792
6607,33856
6608,33920
6609,33856
6610,33920
6611,33984
6612,33920
6613,33920
6614,33984
6615,34048
6616,34112
6617,34176
6618,34432
6619,34624
6620,34752
6621,34880
6622,35072
6623,35328
6624,35520
6625,35456
6626,35136
6627,34816
6628,34560
6629,34176
6630,33856
6631,33664
6632,33536
6633,33472
6634,33408
6635,33408
6636,33344
6637,33344
6638,33344
6639,33408
6640,33472
6641,33408
6642,33408
6643,33600
6644,33728
6645,33664
6646,33600
6647,33600
6648,33664
6649,33728
6650,33728
6651,33664
6652,33408
6653,33280
6654,33408
6655,34112
6656,35520
6657,37248
6658,39744
6659,42560
6660,44736
6661,44928
6662,42880
6663,40064
6664,37120
6665,34432
6666,32256
6667,30912
6668,30336
6669,30336
6670,30592
6671,31040
6672,31488
6673,32000
6674,32320
6675,32640
6676,32896
6677,33152
6678,33344
6679,33344
6680,33408
6681,33600
6682,33664
6683,33600
6684,33536
6685,33664
6686,33792
6687,33792
6688,33792
6689,33920
6690,34048
6691,34048
6692,33920
6693,33984
6694,34048
6695,34048
6696,34112
6697,34176
6698,34304
6699,34304
6700,34368
6701,34496
6702,34496
6703,34752
6704,34752
6705,34752
6706,34816
6707,34944
6708,35008
6709,35136
6710,35392
6711,35584
6712,35776
6713,36032
6714,36160
6715,36224
6716,36288
6717,36288
6718,36416
6719,36544
6720,36608
6721,36672
6722,36608
6723,36608
6724,36608
6725,36544
6726,36416
6727,36288
6728,36032
6729,35520
6730,35072
6731,34624
6732,34240
6733,33728
6734,33280
6735,32960
6736,32704
6737,32384
6738,32192
6739,32064
6740,32064
6741,32064
6742,32064
6743,32064
6744,32192
6745,32192
6746,32256
6747,32192
6748,32448
6749,32576
6750,32576
6751,32640
6752,32768
6753,32832
6754,32960
6755,33024
6756,33216
6757,33280
6758,33280
6759,33280
6760,33408
6761,33472
6762,33472
6763,33408
6764,33536
6765,33728
6766,33792
6767,33600
6768,33536
6769,33536
6770,33536
6771,33536
6772,33664
6773,33792
6774,33920
6775,33856
6776,33920
6777,33856
6778,34048
6779,33920
6780,33792
6781,33728
6782,33728
6783,33728
6784,33664
6785,33728
6786,33792
6787,33792
6788,33856
6789,33920
6790,33984
6791,33856
6792,33792
6793,33856
6794,33920
6795,33920
6796,33792
6797,33856
6798,33920
6799,33920
6800,33920
6801,33920
6802,34048
6803,34176
6804,34176
6805,34112
6806,34048
6807,34112
6808,34112
6809,34048
6810,33984
6811,33984
6812,33984
6813,33984
6814,34048
6815,34176
6816,34304
6817,34496
6818,34752
6819,35008
6820,35200
6821,35328
6822,35328
6823,35648
6824,35776
6825,35840
6826,35712
6827,35456
6828,35072
6829,34688
6830,34368
6831,34176
6832,34048
6833,33920
6834,33792
6835,33728
6836,33728
6837,33664
6838,33664
6839,33664
6840,33728
6841,33792
6842,33792
6843,33856
6844,33984
6845,34048
6846,34048
6847,34112
6848,34176
6849,34240
6850,34176
6851,34048
6852,33984
6853,33920
6854,34112
6855,34880
6856,36288
6857,38336
6858,41088
6859,44352
6860,47232
6861,48320
6862,46720
6863,43456
6864,39808
6865,36224
6866,32384
6867,32064
6868,30016
6869,29632
6870,29824
6871,30208
6872,30784
6873,31360
6874,31808
6875,32128
6876,32448
6877,32768
6878,33024
6879,33152
6880,33280
6881,33344
6882,33472
6883,33536
6884,33664
6885,33792
6886,33920
6887,33920
6888,33856
6889,33920
6890,34048
6891,34112
6892,34112
6893,34112
6894,34112
6895,34112
6896,34176
6897,34240
6898,34368
6899,34432
6900,34496
6901,34560
6902,34688
6903,34816
6904,34816
6905,34880
6906,35008
6907,35200
6908,35392
6909,35520
6910,35648
6911,35840
6912,35776
6913,35840
6914,35968
6915,36160
6916,36352
6917,36416
6918,36544
6919,36608
6920,36672
6921,36672
6922,36672
6923,36672
6924,36608
6925,36544
6926,36352
6927,36224
6928,36096
6929,35776
6930,35392
6931,35072
6932,34688
6933,34304
6934,33920
6935,33536
6936,33280
6937,33088
6938,32960
6939,32832
6940,32768
6941,32640
6942,32576
6943,32640
6944,32832
6945,32896
6946,32960
6947,33152
6948,33344
6949,33408
6950,33408
6951,33472
6952,33536
6953,33600
6954,33600
6955,33600
6956,33792
6957,33728
6958,33792
6959,33856
6960,33984
6961,33984
6962,33856
6963,33792
6964,33856
6965,33984
6966,34048
6967,34048
6968,34112
6969,34176
6970,34240
6971,34176
6972,34240
6973,34368
6974,34432
6975,34240
6976,34176
6977,34112
6978,34176
6979,34048
6980,34048
6981,34112
6982,34240
6983,34304
6984,34304
6985,34304
6986,34240
6987,34176
6988,34176
6989,34240
6990,34240
6991,34176
6992,34112
6993,34112
6994,34240
6995,34304
6996,34240
6997,34176
6998,34176
6999,34240
7000,34176
7001,34240
7002,34368
7003,34432
7004,34368
7005,34304
7006,34304
7007,34304
7008,34240
7009,34240
7010,34304
7011,34432
7012,34560
7013,34624
7014,34816
7015,35008
7016,35136
7017,35136
7018,35200
7019,35328
7020,35520
7021,35712
7022,35840
7023,35904
7024,35712
7025,35392
7026,35008
7027,34688
7028,34496
7029,34176
7030,33920
7031,33856
7032,33792
7033,33792
7034,33792
7035,33856
7036,33920
7037,33920
7038,33856
7039,33856
7040,33984
7041,34048
7042,34048
7043,34048
7044,34176
7045,34240
7046,34240
7047,34240
7048,34368
7049,34368
7050,34176
7051,33920
7052,34112
7053,34944
7054,36544
7055,38848
7056,41856
7057,45184
7058,47872
7059,48448
7060,46528
7061,41088
7062,40448
7063,35840
7064,32896
7065,30912
7066,29824
7067,29504
7068,29760
7069,30272
7070,30912
7071,31360
7072,31808
7073,32320
7074,32640
7075,32832
7076,33088
7077,33216
7078,33344
7079,33344
7080,33344
7081,33472
7082,33600
7083,33728
7084,33792
7085,33856
7086,33920
7087,33920
7088,33984
7089,34112
7090,34304
7091,34304
7092,34240
7093,34240
7094,34368
7095,34432
7096,34496
7097,34560
7098,34624
7099,34624
7100,34688
7101,34752
7102,35008
7103,35136
7104,35136
7105,35200
7106,35328
7107,35456
7108,35584
7109,35712
7110,35904
7111,36160
7112,36288
7113,36480
7114,36608
7115,36672
7116,36608
7117,36480
7118,36480
7119,36544
7120,36608
7121,36544
7122,36480
7123,36480
7124,36416
7125,36288
7126,36032
7127,35776
7128,35392
7129,34944
7130,34496
7131,34112
7132,33792
7133,33472
7134,33152
7135,32960
7136,32832
7137,32768
7138,32704
7139,32704
7140,32832
7141,32960
7142,32960
7143,32960
7144,33024
7145,33152
7146,33280
7147,33408
7148,33472
7149,33472
7150,33472
7151,33536
7152,33664
7153,33728
7154,33664
7155,33664
7156,33728
7157,33792
7158,33856
7159,33856
7160,33920
7161,33984
7162,33984
7163,33984
7164,34048
7165,34176
7166,34176
7167,34048
7168,34048
7169,34112
7170,34176
7171,34176
7172,34240
7173,34368
7174,34368
7175,34240
7176,34176
7177,34176
7178,34112
7179,34112
7180,34112
7181,34176
7182,34112
7183,34112
7184,34112
7185,34176
7186,34240
7187,34240
7188,34176
7189,34112
7190,34176
7191,34112
7192,34112
7193,34176
7194,34304
7195,34432
7196,34368
7197,34304
7198,34368
7199,34368
7200,34304
7201,34240
7202,34304
7203,34368
7204,34368
7205,34432
7206,34496
7207,34496
7208,34432
7209,34240
7210,34176
7211,34240
7212,34304
7213,34432
7214,34624
7215,34880
7216,35136
7217,35264
7218,35328
7219,35456
7220,35520
7221,35712
7222,35840
7223,35904
7224,35712
7225,35392
7226,34880
7227,34688
7228,34432
7229,34240
7230,34112
7231,33984
7232,33856
7233,33792
7234,33792
7235,33856
7236,33984
7237,33984
7238,33920
7239,33920
7240,34048
7241,34112
7242,34048
7243,34048
7244,34112
7245,34240
7246,34176
7247,34112
7248,34176
7249,34176
7250,33920
7251,33728
7252,33920
7253,34624
7254,35712
7255,37312
7256,39808
7257,42368
7258,44608
7259,45056
7260,43392
7261,40768
7262,37952
7263,35328
7264,33152
7265,31808
7266,30976
7267,30592
7268,30720
7269,31232
7270,31744
7271,32384
7272,32640
7273,33024
7274,33280
7275,33472
7276,33728
7277,33856
7278,33856
7279,33792
7280,33792
7281,33856
7282,33984
7283,34048
7284,34048
7285,34112
7286,34304
7287,34304
7288,34240
7289,34240
7290,34304
7291,34304
7292,34304
7293,34304
7294,34496
7295,34560
7296,34560
7297,34560
7298,34752
7299,34880
7300,34880
7301,34944
7302,35008
7303,35136
7304,35264
7305,35328
7306,35392
7307,35520
7308,35584
7309,35648
7310,35776
7311,35968
7312,36160
7313,36288
7314,36416
7315,36544
7316,36672
7317,36672
7318,36736
7319,36736
7320,36672
7321,36608
7322,36608
7323,36608
7324,36544
7325,36352
7326,36096
7327,35840
7328,35520
7329,35072
7330,34560
7331,33792
7332,33472
7333,33024
7334,32704
7335,32512
7336,32512
7337,32320
7338,32128
7339,32064
7340,32064
7341,32064
7342,32128
7343,32256
7344,32384
7345,32512
7346,32576
7347,32640
7348,32768
7349,32896
7350,32960
7351,32960
7352,33088
7353,33152
7354,33152
7355,33152
7356,33216
7357,33344
7358,33408
7359,33344
7360,33344
7361,33408
7362,33472
7363,33408
7364,33344
7365,33408
7366,33472
7367,33536
7368,33664
7369,33728
7370,33856
7371,33856
7372,33792
7373,33792
7374,33792
7375,33664
7376,33664
7377,33728
7378,33856
7379,33792
7380,33664
7381,33664
7382,33664
7383,33728
7384,33664
7385,33728
7386,33792
7387,33792
7388,33728
7389,33728
7390,33792
7391,33728
7392,33728
7393,33728
7394,33792
7395,33792
7396,33792
7397,33792
7398,33856
7399,33856
7400,33792
7401,33728
7402,33792
7403,33920
7404,33984
7405,33920
7406,33984
7407,34112
7408,34112
7409,34048
7410,34048
7411,33984
7412,33856
7413,33792
7414,33792
7415,33856
7416,33920
7417,33920
7418,33984
7419,34048
7420,34048
7421,33984
7422,33984
7423,34176
7424,34368
7425,34624
7426,34752
7427,35008
7428,35200
7429,35328
7430,35328
7431,35456
7432,35584
7433,35584
7434,35456
7435,35264
7436,35072
7437,34624
7438,34176
7439,33792
7440,33600
7441,33536
7442,33472
7443,33536
7444,33600
7445,33664
7446,33664
7447,33664
7448,33728
7449,33856
7450,33856
7451,33792
7452,33792
7453,33856
7454,33920
7455,33920
7456,34048
7457,34112
7458,34112
7459,33920
7460,33728
7461,33664
7462,33728
7463,34176
7464,35200
7465,36800
7466,39040
7467,41728
7468,44288
7469,45504
7470,44544
7471,42112
7472,39232
7473,36352
7474,33728
7475,31808
7476,30656
7477,30336
7478,30528
7479,30912
7480,31424
7481,32000
7482,32448
7483,32704
7484,32896
7485,33088
7486,33216
7487,33280
7488,33408
7489,33536
7490,33728
7491,33792
7492,33792
7493,33792
7494,33856
7495,33984
7496,34112
7497,34048
7498,34048
7499,34048
7500,34048
7501,34048
7502,34176
7503,34304
7504,34368
7505,34368
7506,34496
7507,34624
7508,34688
7509,34624
7510,34560
7511,34624
7512,34816
7513,34944
7514,35072
7515,35264
7516,35392
7517,35456
7518,35584
7519,35776
7520,35904
7521,35968
7522,36096
7523,36224
7524,36416
7525,36544
7526,36672
7527,36800
7528,36928
7529,36864
7530,36800
7531,36800
7532,36864
7533,36800
7534,36608
7535,36416
7536,36288
7537,36032
7538,35584
7539,35200
7540,34816
7541,34304
7542,33856
7543,33408
7544,33088
7545,32832
7546,32576
7547,32320
7548,32192
7549,32192
7550,32064
7551,32064
7552,32256
7553,32384
7554,32384
7555,32512
7556,32704
7557,32768
7558,32640
7559,32640
7560,32704
7561,32896
7562,32960
7563,33088
7564,33216
7565,33344
7566,33408
7567,33408
7568,33472
7569,33600
7570,33536
7571,33536
7572,33600
7573,33728
7574,33728
7575,33728
7576,33664
7577,33600
7578,33536
7579,33536
7580,33536
7581,33600
7582,33728
7583,33792
7584,33728
7585,33728
7586,33856
7587,33856
7588,33792
7589,33792
7590,33856
7591,33856
7592,33792
7593,33792
7594,33856
7595,33920
7596,33856
7597,33728
7598,33728
7599,33728
7600,33728
7601,33664
7602,33728
7603,33728
7604,33728
7605,33728
7606,33856
7607,33920
7608,33984
7609,33984
7610,33920
7611,33920
7612,33920
7613,33792
7614,33728
7615,33792
7616,33920
7617,33984
7618,34048
7619,34112
7620,34112
7621,34048
7622,33856
7623,33792
7624,33856
7625,33856
7626,33920
7627,34048
7628,34112
7629,34048
7630,33920
7631,33920
7632,33984
7633,34048
7634,34112
7635,34176
7636,34112
7637,34048
7638,34048
7639,34240
7640,34496
7641,34752
7642,34880
7643,35072
7644,35264
7645,35392
7646,35392
7647,35456
7648,35520
7649,35392
7650,35136
7651,34752
7652,34432
7653,34176
7654,33984
7655,33856
7656,33728
7657,33600
7658,33536
7659,33472
7660,33472
7661,33472
7662,33536
7663,33536
7664,33600
7665,33792
7666,33856
7667,33856
7668,33856
7669,33856
7670,33920
7671,33920
7672,33984
7673,34048
7674,33984
7675,33728
7676,33536
7677,33600
7678,34048
7679,35072
7680,36672
7681,38976
7682,41664
7683,44224
7684,45376
7685,44480
7686,42176
7687,39360
7688,36352
7689,33728
7690,31872
7691,30720
7692,30272
7693,30336
7694,30784
7695,31296
7696,31744
7697,32128
7698,32512
7699,32832
7700,32960
7701,33152
7702,33280
7703,33408
7704,33472
7705,33536
7706,33664
7707,33792
7708,33856
7709,33856
7710,33856
7711,33920
7712,33984
7713,33920
7714,33920
7715,33984
7716,33984
7717,33984
7718,34112
7719,34304
7720,34368
7721,34368
7722,34368
7723,34496
7724,34624
7725,34624
7726,34688
7727,34880
7728,35072
7729,35136
7730,35136
7731,35200
7732,35328
7733,35456
7734,35584
7735,35776
7736,36032
7737,36224
7738,36352
7739,36480
7740,36544
7741,36608
7742,36672
7743,36736
7744,36800
7745,36864
7746,36800
7747,36672
7748,36608
7749,36480
7750,36352
7751,36160
7752,35968
7753,35712
7754,35328
7755,34880
7756,34432
7757,34048
7758,33600
7759,33088
7760,32704
7761,32448
7762,32192
7763,32000
7764,32000
7765,32064
7766,32128
7767,32128
7768,32128
7769,32256
7770,32384
7771,32512
7772,32640
7773,32832
7774,33024
7775,33024
7776,33088
7777,33088
7778,33024
7779,32960
7780,33024
7781,33088
7782,33216
7783,33344
7784,33472
7785,33536
7786,33600
7787,33664
7788,33600
7789,33664
7790,33728
7791,33728
7792,33664
7793,33664
7794,33728
7795,33792
7796,33792
7797,33792
7798,33920
7799,33984
7800,33984
7801,33984
7802,33920
7803,33920
7804,33856
7805,33792
7806,33856
7807,33920
7808,33856
7809,33728
7810,33728
7811,33728
7812,33728
7813,33728
7814,33856
7815,34048
7816,34176
7817,34112
7818,33984
7819,33920
7820,33920
7821,33920
7822,33984
7823,33984
7824,34048
7825,33984
7826,33920
7827,33920
7828,33920
7829,33920
7830,33920
7831,34048
7832,34112
7833,34112
7834,34048
7835,34112
7836,34176
7837,34176
7838,34112
7839,34112
7840,34240
7841,34304
7842,34368
7843,34432
7844,34432
7845,34304
7846,34176
7847,34048
7848,34048
7849,34112
7850,34112
7851,34176
7852,34240
7853,34368
7854,34368
7855,34368
7856,34368
7857,34432
7858,34432
7859,34560
7860,34752
7861,35072
7862,35200
7863,35264
7864,35328
7865,35520
7866,35776
7867,35968
7868,35968
7869,35776
7870,35584
7871,35136
7872,34752
7873,34432
7874,34176
7875,34048
7876,33920
7877,33856
7878,33792
7879,33856
7880,33856
7881,33920
7882,33984
7883,33984
7884,33984
7885,34112
7886,34240
7887,34176
7888,34176
7889,34176
7890,34304
7891,34304
7892,34240
7893,34176
7894,34112
7895,33984
7896,33728
7897,33728
7898,34304
7899,35392
7900,37056
7901,39424
7902,42176
7903,44672
7904,45952
7905,44928
7906,42560
7907,39744
7908,36800
7909,34112
7910,32192
7911,30976
7912,30528
7913,30592
7914,30976
7915,31616
7916,32192
7917,32576
7918,32960
7919,33216
7920,33408
7921,33600
7922,33728
7923,33856
7924,33984
7925,33984
7926,34048
7927,34112
7928,34176
7929,34112
7930,34176
7931,34240
7932,34368
7933,34368
7934,34368
7935,34368
7936,34432
7937,34496
7938,34496
7939,34560
7940,34688
7941,34816
7942,34816
7943,34944
7944,35072
7945,35200
7946,35200
7947,35200
7948,35328
7949,35520
7950,35584
7951,35584
7952,35712
7953,35776
7954,35840
7955,35968
7956,36160
7957,36352
7958,36544
7959,36672
7960,36800
7961,36992
7962,37056
7963,37056
7964,37056
7965,37120
7966,37120
7967,37056
7968,36928
7969,36864
7970,36800
7971,36608
7972,36352
7973,36160
7974,35776
7975,35200
7976,34624
7977,34112
7978,33664
7979,33216
7980,32896
7981,32704
7982,32512
7983,32384
7984,32256
7985,32256
7986,32320
7987,32448
7988,32448
7989,32448
7990,32512
7991,32640
7992,32832
7993,32960
7994,32960
7995,33024
7996,33088
7997,33152
7998,33216
7999,33280
8000,33344
8001,33472
8002,33536
8003,33600
8004,33600
8005,33600
8006,33728
8007,33792
8008,33728
8009,33728
8010,33792
8011,33920
8012,33920
8013,33920
8014,34048
8015,34112
8016,34048
8017,33984
8018,33984
8019,34112
8020,34176
8021,34176
8022,34176
8023,34176
8024,34048
8025,33920
8026,33856
8027,33920
8028,33984
8029,33984
8030,33984
8031,33984
8032,34112
8033,34112
8034,34112
8035,34240
8036,34304
8037,34240
8038,34048
8039,33984
8040,34048
8041,34112
8042,34240
8043,34304
8044,34368
8045,34304
8046,34240
8047,34304
8048,34368
8049,34304
8050,34240
8051,34240
8052,34240
8053,34240
8054,34240
8055,34240
8056,34368
8057,34432
8058,34304
8059,34176
8060,34240
8061,34240
8062,34176
8063,34176
8064,34240
8065,34304
8066,34304
8067,34304
8068,34304
8069,34240
8070,34240
8071,34176
8072,34304
8073,34304
8074,34368
8075,34432
8076,34560
8077,34752
8078,34816
8079,34880
8080,35136
8081,35392
8082,35328
8083,35584
8084,35712
8085,35776
8086,35648
8087,35328
8088,35008
8089,34688
8090,34368
8091,34240
8092,34112
8093,33920
8094,33792
8095,33792
8096,33792
8097,33856
8098,33856
8099,33856
8100,33856
8101,33984
8102,34048
8103,34048
8104,33984
8105,34048
8106,34112
8107,34176
8108,34176
8109,34240
8110,34304
8111,34368
8112,34112
8113,33920
8114,34048
8115,34496
8116,35392
8117,37056
8118,39424
8119,42304
8120,44672
8121,45312
8122,43712
8123,41216
8124,38400
8125,35648
8126,33280
8127,33024
8128,31040
8129,30784
8130,30848
8131,31296
8132,31872
8133,32320
8134,32704
8135,33024
8136,33280
8137,33408
8138,33600
8139,33856
8140,34048
8141,34112
8142,34112
8143,34176
8144,34176
8145,34240
8146,34304
8147,34368
8148,34304
8149,34176
8150,34176
8151,34304
8152,34368
8153,34432
8154,34560
8155,34688
8156,34816
8157,34752
8158,34880
8159,34944
8160,35072
8161,35072
8162,35008
8163,35072
8164,35264
8165,35520
8166,35584
8167,35456
8168,35456
8169,35520
8170,35648
8171,35840
8172,36096
8173,36288
8174,36416
8175,36480
8176,36672
8177,36800
8178,36928
8179,36928
8180,36992
8181,37120
8182,37184
8183,37120
8184,36928
8185,36800
8186,36672
8187,36480
8188,36352
8189,36096
8190,35712
8191,35264
8192,34752
8193,34368
8194,33920
8195,33344
8196,32896
8197,32640
8198,32512
8199,32320
8200,32128
8201,32064
8202,32128
8203,32128
8204,32128
8205,32128
8206,32256
8207,32384
8208,32512
8209,32576
8210,32704
8211,32768
8212,32768
8213,32896
8214,33024
8215,33088
8216,33024
8217,32960
8218,33152
8219,33216
8220,33152
8221,33152
8222,33280
8223,33472
8224,33536
8225,33600
8226,33664
8227,33728
8228,33664
8229,33664
8230,33664
8231,33664
8232,33728
8233,33728
8234,33728
8235,33792
8236,33728
8237,33728
8238,33664
8239,33728
8240,33728
8241,33664
8242,33664
8243,33728
8244,33792
8245,33792
8246,33728
8247,33664
8248,33792
8249,33728
8250,33728
8251,33856
8252,33920
8253,33856
8254,33856
8255,33856
8256,33792
8257,33728
8258,33728
8259,33792
8260,33920
8261,33920
8262,33856
8263,33856
8264,33984
8265,33920
8266,33856
8267,33792
8268,33856
8269,33984
8270,33984
8271,33920
8272,33920
8273,33984
8274,33984
8275,33984
8276,34112
8277,34048
8278,34176
8279,33984
8280,33920
8281,33984
8282,34048
8283,34048
8284,34048
8285,34112
8286,34112
8287,34048
8288,34112
8289,34368
8290,34560
8291,34688
8292,34880
8293,35008
8294,35072
8295,35136
8296,35328
8297,35456
8298,35520
8299,35392
8300,35072
8301,34752
8302,34432
8303,34176
8304,33984
8305,33792
8306,33600
8307,33472
8308,33408
8309,33408
8310,33472
8311,33472
8312,33472
8313,33600
8314,33600
8315,33600
8316,33600
8317,33600
8318,33728
8319,33728
8320,33664
8321,33728
8322,33728
8323,33792
8324,33728
8325,33536
8326,33344
8327,33408
8328,33920
8329,35008
8330,36736
8331,39104
8332,41920
8333,44416
8334,45312
8335,44096
8336,40640
8337,40448
8338,35584
8339,33088
8340,31424
8341,30336
8342,29952
8343,30144
8344,30592
8345,31104
8346,31680
8347,32128
8348,32384
8349,32576
8350,32704
8351,32896
8352,32896
8353,33152
8354,33216
8355,33344
8356,33536
8357,33600
8358,33536
8359,33536
8360,33536
8361,33664
8362,33728
8363,33728
8364,33728
8365,33728
8366,33792
8367,33792
8368,33792
8369,33792
8370,33792
8371,33792
8372,33984
8373,34240
8374,34368
8375,34432
8376,34560
8377,34624
8378,34624
8379,34752
8380,34880
8381,35136
8382,35072
8383,35392
8384,35520
8385,35712
8386,35776
8387,35776
8388,35840
8389,36032
8390,36288
8391,36352
8392,36416
8393,36480
8394,36544
8395,36608
8396,36608
8397,36544
8398,36544
8399,36416
8400,36288
8401,36160
8402,35840
8403,35392
8404,34816
8405,34304
8406,33856
8407,33344
8408,32896
8409,32448
8410,32192
8411,32000
8412,31872
8413,31744
8414,31680
8415,31616
8416,31616
8417,31680
8418,31808
8419,31936
8420,32064
8421,32128
8422,32256
8423,32384
8424,32448
8425,32576
8426,32768
8427,32768
8428,32832
8429,32768
8430,32832
8431,32960
8432,33024
8433,33024
8434,33280
8435,33472
8436,33472
8437,33344
8438,33344
8439,33408
8440,33536
8441,33536
8442,33472
8443,33536
8444,33600
8445,33600
8446,33664
8447,33728
8448,33792
8449,33792
8450,33728
8451,33792
8452,33792
8453,33856
8454,33856
8455,33920
8456,33920
8457,33856
8458,33664
8459,33600
8460,33664
8461,33664
8462,33664
8463,33728
8464,33856
8465,33984
8466,33984
8467,33920
8468,33856
8469,33792
8470,33728
8471,33728
8472,33856
8473,33920
8474,33984
8475,33984
8476,34048
8477,34176
8478,34176
8479,34176
8480,34112
8481,34048
8482,33984
8483,33984
8484,33984
8485,34048
8486,33984
8487,33920
8488,33920
8489,33984
8490,33984
8491,34048
8492,34112
8493,34176
8494,34304
8495,34240
8496,34176
8497,34112
8498,34176
8499,34304
8500,34496
8501,34752
8502,34880
8503,35008
8504,35136
8505,35328
8506,35584
8507,35712
8508,35712
8509,35712
8510,35520
8511,35264
8512,34880
8513,34560
8514,34304
8515,34112
8516,33920
8517,33728
8518,33728
8519,33728
8520,33664
8521,33728
8522,33856
8523,33984
8524,33984
8525,33984
8526,33984
8527,33984
8528,33920
8529,33856
8530,33920
8531,34048
8532,34048
8533,33984
8534,34112
8535,34112
8536,33920
8537,33792
8538,34112
8539,35328
8540,37248
8541,39616
8542,42688
8543,45888
8544,48064
8545,47808
8546,44736
8547,41920
8548,38400
8549,34944
8550,32320
8551,30592
8552,29696
8553,29440
8554,29568
8555,30080
8556,30720
8557,31360
8558,31872
8559,32256
8560,32512
8561,32640
8562,32768
8563,32960
8564,33216
8565,33408
8566,33472
8567,33472
8568,33600
8569,33728
8570,33728
8571,33728
8572,33792
8573,33856
8574,33856
8575,33856
8576,33920
8577,34048
8578,34048
8579,34176
8580,34304
8581,34368
8582,34368
8583,34368
8584,34432
8585,34560
8586,34688
8587,34816
8588,34880
8589,34944
8590,35008
8591,35072
8592,35072
8593,35200
8594,35392
8595,35520
8596,35648
8597,35840
8598,36096
8599,36288
8600,36480
8601,36544
8602,36544
8603,36480
8604,36416
8605,36480
8606,36608
8607,36608
8608,36544
8609,36352
8610,36224
8611,35968
8612,35712
8613,35392
8614,35136
8615,34816
8616,34432
8617,33984
8618,33600
8619,33216
8620,32896
8621,32704
8622,32576
8623,32576
8624,32640
8625,32640
8626,32576
8627,32640
8628,32640
8629,32704
8630,32896
8631,33088
8632,33216
8633,33216
8634,33216
8635,33216
8636,33216
8637,33216
8638,33280
8639,33472
8640,33600
8641,33664
8642,33664
8643,33792
8644,33920
8645,33920
8646,33856
8647,33920
8648,33920
8649,33920
8650,33920
8651,34176
8652,34304
8653,34304
8654,34240
8655,34112
8656,34112
8657,34048
8658,34048
8659,34112
8660,34176
8661,34240
8662,34368
8663,34496
8664,34432
8665,34304
8666,34176
8667,34112
8668,34240
8669,34368
8670,34368
8671,34368
8672,34304
8673,34304
8674,34176
8675,34112
8676,34176
8677,34304
8678,34304
8679,34240
8680,34176
8681,34240
8682,34240
8683,34304
8684,34368
8685,34432
8686,34496
8687,34496
8688,34496
8689,34432
8690,34304
8691,34240
8692,34368
8693,34496
8694,34432
8695,34304
8696,34304
8697,34368
8698,34496
8699,34560
8700,34624
8701,34752
8702,34944
8703,35072
8704,35136
8705,35264
8706,35584
8707,35712
8708,35712
8709,35456
8710,35136
8711,34752
8712,34560
8713,34240
8714,33984
8715,33728
8716,33536
8717,33472
8718,33600
8719,33728
8720,33664
8721,33600
8722,33600
8723,33600
8724,33600
8725,33600
8726,33664
8727,33728
8728,33792
8729,33920
8730,34048
8731,34112
8732,33984
8733,33856
8734,33664
8735,33472
8736,33408
8737,33664
8738,34496
8739,35840
8740,37760
8741,41216
8742,43136
8743,45056
8744,44864
8745,42624
8746,39872
8747,36992
8748,34432
8749,32384
8750,31040
8751,30400
8752,30464
8753,30784
8754,31168
8755,31488
8756,31936
8757,32256
8758,32512
8759,32768
8760,32960
8761,33088
8762,33088
8763,33216
8764,33408
8765,33600
8766,33664
8767,33600
8768,33664
8769,33728
8770,33728
8771,33664
8772,33728
8773,33792
8774,33856
8775,33920
8776,34048
8777,34048
8778,33984
8779,34048
8780,34176
8781,34304
8782,34496
8783,34560
8784,34560
8785,34624
8786,34624
8787,34688
8788,34816
8789,34944
8790,35072
8791,35200
8792,35392
8793,35712
8794,35968
8795,36160
8796,36288
8797,36480
8798,36608
8799,36672
8800,36736
8801,36992
8802,37056
8803,37056
8804,36992
8805,36928
8806,36864
8807,36736
8808,36544
8809,36416
8810,36160
8811,35904
8812,35584
8813,35136
8814,34688
8815,34112
8816,33344
8817,33024
8818,32640
8819,32320
8820,32128
8821,32000
8822,31872
8823,31872
8824,31744
8825,31680
8826,31744
8827,31872
8828,32000
8829,32192
8830,32320
8831,32448
8832,32448
8833,32448
8834,32448
8835,32512
8836,32512
8837,32576
8838,32768
8839,32896
8840,32960
8841,33024
8842,33024
8843,33216
8844,33344
8845,33408
8846,33408
8847,33344
8848,33344
8849,33344
8850,33408
8851,33536
8852,33792
8853,33792
8854,33664
8855,33664
8856,33728
8857,33728
8858,33664
8859,33600
8860,33664
8861,33728
8862,33728
8863,33728
8864,33728
8865,33664
8866,33600
8867,33600
8868,33728
8869,33664
8870,33536
8871,33536
8872,33664
8873,33728
8874,33728
8875,33728
8876,33856
8877,33920
8878,33856
8879,33856
8880,33920
8881,33984
8882,33920
8883,33792
8884,33792
8885,33920
8886,33920
8887,33792
8888,33728
8889,33792
8890,33792
8891,33856
8892,33856
8893,33920
8894,34048
8895,34048
8896,33984
8897,33984
8898,33984
8899,33920
8900,33856
8901,33920
8902,33984
8903,33984
8904,34048
8905,34240
8906,34432
8907,34432
8908,34432
8909,34432
8910,34560
8911,34752
8912,34752
8913,34752
8914,34944
8915,35136
8916,35200
8917,35328
8918,35328
8919,35264
8920,35136
8921,34688
8922,34560
8923,34496
8924,34176
8925,33728
8926,33408
8927,33216
8928,33088
8929,33088
8930,33152
8931,33280
8932,33280
8933,33280
8934,33344
8935,33600
8936,33728
8937,33728
8938,33792
8939,33920
8940,33984
8941,33856
8942,33856
8943,34048
8944,33920
8945,33344
8946,33024
8947,33408
8948,34304
8949,35776
8950,37952
8951,42240
8952,44608
8953,47616
8954,48704
8955,47104
8956,43968
8957,40128
8958,36160
8959,32704
8960,30464
8961,29248
8962,28928
8963,29248
8964,29696
8965,30272
8966,30976
8967,31168
8968,31552
8969,31936
8970,32192
8971,32384
8972,32576
8973,32768
8974,32960
8975,33152
8976,33408
8977,33600
8978,33472
8979,33344
8980,33408
8981,33728
8982,33728
8983,33408
8984,33472
8985,33984
8986,33856
8987,33024
8988,32320
8989,32128
8990,32576
8991,33472
8992,34048
8993,34176
8994,34176
8995,34368
8996,34944
8997,35008
8998,35008
8999,34944
9000,35008
9001,35136
9002,35136
9003,35072
9004,35072
9005,35264
9006,35520
9007,35648
9008,35840
9009,36096
9010,36352
9011,36544
9012,36608
9013,36480
9014,36480
9015,36608
9016,36672
9017,36416
9018,36288
9019,36224
9020,36160
9021,35648
9022,35072
9023,35008
9024,34944
9025,34560
9026,33920
9027,32832
9028,32128
9029,31488
9030,31232
9031,31360
9032,31936
9033,32192
9034,32256
9035,31936
9036,31744
9037,32448
9038,33408
9039,33280
9040,32832
9041,32256
9042,31360
9043,30784
9044,30912
9045,31744
9046,33152
9047,34816
9048,35072
9049,34496
9050,33728
9051,33408
9052,33472
9053,33024
9054,33152
9055,34176
9056,34624
9057,33472
9058,32576
9059,32832
9060,33088
9061,32384
9062,31936
9063,31936
9064,32000
9065,32256
9066,32960
9067,33536
9068,33408
9069,33152
9070,32960
9071,33024
9072,33408
9073,33664
9074,33856
9075,33920
9076,33792
9077,34112
9078,33984
9079,33024
9080,32576
9081,32832
9082,33088
9083,33088
9084,33408
9085,33664
9086,33664
9087,33408
9088,33088
9089,32832
9090,32768
9091,32768
9092,32960
9093,33088
9094,33024
9095,32896
9096,32960
9097,33536
9098,34048
9099,34240
9100,34112
9101,34176
9102,33856
9103,33216
9104,32640
9105,32640
9106,32960
9107,33280
9108,33344
9109,33216
9110,33344
9111,33024
9112,32384
9113,32256
9114,32704
9115,33344
9116,33600
9117,34176
9118,34368
9119,34176
9120,33600
9121,33472
9122,34496
9123,34880
9124,33408
9125,32192
9126,32192
9127,32576
9128,33024
9129,33664
9130,34432
9131,35200
9132,35712
9133,35520
9134,34816
9135,34112
9136,33920
9137,34048
9138,33792
9139,33152
9140,32576
9141,32704
9142,33088
9143,33216
9144,32832
9145,32448
9146,32512
9147,32896
9148,33216
9149,33216
9150,33280
9151,33472
9152,33728
9153,33472
9154,33216
9155,33344
9156,33600
9157,33472
9158,33216
9159,33088
9160,33280
9161,33216
9162,33024
9163,33408
9164,34432
9165,36288
9166,39040
9167,42560
9168,45120
9169,48064
9170,48512
9171,46080
9172,41984
9173,38976
9174,35200
9175,32384
9176,30336
9177,28864
9178,28224
9179,28224
9180,28800
9181,29440
9182,30080
9183,30528
9184,30912
9185,31552
9186,32384
9187,32896
9188,32960
9189,32960
9190,32960
9191,32896
9192,32640
9193,32448
9194,32576
9195,32896
9196,33088
9197,33152
9198,33344
9199,33344
9200,33344
9201,33472
9202,33792
9203,33856
9204,33792
9205,33600
9206,33408
9207,33344
9208,33408
9209,33600
9210,33856
9211,33984
9212,34112
9213,34368
9214,34624
9215,34752
9216,34752
9217,34816
9218,34880
9219,35136
9220,35264
9221,35392
9222,35712
9223,35776
9224,35776
9225,35904
9226,36096
9227,36224
9228,36352
9229,36416
9230,36416
9231,36288
9232,36032
9233,35904
9234,35904
9235,35840
9236,35584
9237,35264
9238,35136
9239,34944
9240,34688
9241,33984
9242,33344
9243,33024
9244,32704
9245,32320
9246,32128
9247,32000
9248,31872
9249,31744
9250,31744
9251,31744
9252,31936
9253,32000
9254,32128
9255,32320
9256,32448
9257,32512
9258,32512
9259,32832
9260,33152
9261,32896
9262,32512
9263,32448
9264,32576
9265,32768
9266,32896
9267,33088
9268,33216
9269,33280
9270,33344
9271,33408
9272,33664
9273,33664
9274,33600
9275,33408
9276,33344
9277,33344
9278,33408
9279,33408
9280,33536
9281,33728
9282,33856
9283,33984
9284,33792
9285,33600
9286,33600
9287,33600
9288,33664
9289,33792
9290,33856
9291,33856
9292,33856
9293,33920
9294,33856
9295,33664
9296,33600
9297,33600
9298,33728
9299,33728
9300,33664
9301,33728
9302,33920
9303,34112
9304,34176
9305,34048
9306,33856
9307,33728
9308,33728
9309,33856
9310,33984
9311,33920
9312,33792
9313,33856
9314,33920
9315,33920
9316,33920
9317,33984
9318,34048
9319,34048
9320,33920
9321,33920
9322,34048
9323,34240
9324,34240
9325,34240
9326,34304
9327,34432
9328,34304
9329,34240
9330,34240
9331,34176
9332,34048
9333,34048
9334,34112
9335,34176
9336,34112
9337,34112
9338,34176
9339,34176
9340,34112
9341,34048
9342,34304
9343,34432
9344,34560
9345,34496
9346,34560
9347,34816
9348,35008
9349,35136
9350,35264
9351,35392
9352,35456
9353,35520
9354,35520
9355,35520
9356,35392
9357,35136
9358,34816
9359,34496
9360,34368
9361,34240
9362,33984
9363,33856
9364,33792
9365,33792
9366,33728
9367,33728
9368,33920
9369,34112
9370,34048
9371,33920
9372,33920
9373,34048
9374,34112
9375,34112
9376,34176
9377,34176
9378,34048
9379,33984
9380,34048
9381,34112
9382,33856
9383,33600
9384,33856
9385,34816
9386,36352
9387,38528
9388,41344
9389,44736
9390,47680
9391,48960
9392,47552
9393,44544
9394,40832
9395,37120
9396,33856
9397,30912
9398,30016
9399,29312
9400,29248
9401,29632
9402,30208
9403,30784
9404,31296
9405,31808
9406,32256
9407,32640
9408,32768
9409,32960
9410,33152
9411,33280
9412,33280
9413,33344
9414,33472
9415,33536
9416,33600
9417,33664
9418,33792
9419,33856
9420,33920
9421,33920
9422,33984
9423,34048
9424,33984
9425,34048
9426,34112
9427,34240
9428,34304
9429,34368
9430,34496
9431,34560
9432,34560
9433,34624
9434,34816
9435,34944
9436,35008
9437,35008
9438,35008
9439,35136
9440,35328
9441,35456
9442,35648
9443,35904
9444,36096
9445,36224
9446,36352
9447,36480
9448,36544
9449,36544
9450,36608
9451,36672
9452,36608
9453,36544
9454,36544
9455,36672
9456,36736
9457,36480
9458,35968
9459,35584
9460,35200
9461,34816
9462,34304
9463,33920
9464,33664
9465,33344
9466,33088
9467,32832
9468,32768
9469,32640
9470,32512
9471,32384
9472,32384
9473,32512
9474,32640
9475,32768
9476,32832
9477,32896
9478,32832
9479,32896
9480,33088
9481,33216
9482,33280
9483,33280
9484,33344
9485,33408
9486,33472
9487,33536
9488,33600
9489,33664
9490,33728
9491,33792
9492,33856
9493,33792
9494,33728
9495,33728
9496,33856
9497,33984
9498,33920
9499,33856
9500,33728
9501,33792
9502,34112
9503,34176
9504,34176
9505,34176
9506,34304
9507,34368
9508,34368
9509,34432
9510,34432
9511,34240
9512,34048
9513,33984
9514,34048
9515,34112
9516,34112
9517,34112
9518,34112
9519,34176
9520,34240
9521,34240
9522,34304
9523,34368
9524,34240
9525,34048
9526,33984
9527,34048
9528,34112
9529,34112
9530,34112
9531,34176
9532,34240
9533,34240
9534,34304
9535,34304
9536,34240
9537,34176
9538,34112
9539,34176
9540,34176
9541,34112
9542,34176
9543,34304
9544,34304
9545,34240
9546,34176
9547,34240
9548,34240
9549,34240
9550,34240
9551,34240
9552,34304
9553,34240
9554,34176
9555,34240
9556,34304
9557,34304
9558,34432
9559,34624
9560,34624
9561,34560
9562,34624
9563,34752
9564,34944
9565,35136
9566,35328
9567,35520
9568,35456
9569,35328
9570,34944
9571,34560
9572,34304
9573,34176
9574,33920
9575,33728
9576,33600
9577,33472
9578,33408
9579,33344
9580,33408
9581,33472
9582,33600
9583,33728
9584,33728
9585,33664
9586,33600
9587,33408
9588,33280
9589,33344
9590,33472
9591,33472
9592,33536
9593,33664
9594,33728
9595,33600
9596,33408
9597,33344
9598,33856
9599,35008
9600,36928
9601,39936
9602,42816
9603,46080
9604,48064
9605,47552
9606,44864
9607,41152
9608,37376
9609,34048
9610,31552
9611,29888
9612,29056
9613,28928
9614,29248
9615,29696
9616,30144
9617,30592
9618,31040
9619,31488
9620,31808
9621,32064
9622,32320
9623,32576
9624,32640
9625,32704
9626,32832
9627,32896
9628,32896
9629,33024
9630,33216
9631,33152
9632,33088
9633,33088
9634,33088
9635,33216
9636,33280
9637,33280
9638,33344
9639,33408
9640,33472
9641,33472
9642,33536
9643,33664
9644,33792
9645,33920
9646,33984
9647,34112
9648,34240
9649,34240
9650,34432
9651,34688
9652,34752
9653,34816
9654,34880
9655,35008
9656,35264
9657,35456
9658,35584
9659,35776
9660,35968
9661,35840
9662,35840
9663,35840
9664,35968
9665,36032
9666,36032
9667,36032
9668,36096
9669,36032
9670,35840
9671,35648
9672,35328
9673,35008
9674,34560
9675,34112
9676,33792
9677,33408
9678,32960
9679,32576
9680,32256
9681,32064
9682,31936
9683,31872
9684,31872
9685,31936
9686,32000
9687,32064
9688,32128
9689,32192
9690,32256
9691,32384
9692,32512
9693,32640
9694,32640
9695,32704
9696,32768
9697,32832
9698,32832
9699,32960
9700,32960
9701,32960
9702,32960
9703,32960
9704,33024
9705,33152
9706,33344
9707,33280
9708,33216
9709,33216
9710,33344
9711,33344
9712,33408
9713,33472
9714,33600
9715,33600
9716,33536
9717,33536
9718,33664
9719,33728
9720,33728
9721,33728
9722,33728
9723,33728
9724,33600
9725,33536
9726,33600
9727,33664
9728,33728
9729,33792
9730,33792
9731,33728
9732,33600
9733,33472
9734,33536
9735,33600
9736,33664
9737,33664
9738,33664
9739,33728
9740,33728
9741,33664
9742,33664
9743,33728
9744,33792
9745,33856
9746,33920
9747,34048
9748,33984
9749,33792
9750,33728
9751,33664
9752,33728
9753,33792
9754,33728
9755,33728
9756,33792
9757,33792
9758,33856
9759,33856
9760,33920
9761,33920
9762,33920
9763,33920
9764,33984
9765,33984
9766,33920
9767,33856
9768,33856
9769,33856
9770,33856
9771,33856
9772,33920
9773,33984
9774,33984
9775,33984
9776,33984
9777,33984
9778,34048
9779,34048
9780,33984
9781,34048
9782,34112
9783,34304
9784,34496
9785,34624
9786,34688
9787,34816
9788,34944
9789,35136
9790,35328
9791,35328
9792,35200
9793,35008
9794,34752
9795,34368
9796,34112
9797,33920
9798,33792
9799,33536
9800,33408
9801,33472
9802,33536
9803,33536
9804,33472
9805,33472
9806,33536
9807,33536
9808,33536
9809,33664
9810,33728
9811,33728
9812,33664
9813,33664
9814,33728
9815,33728
9816,33728
9817,33792
9818,33856
9819,33728
9820,33664
9821,34112
9822,35200
9823,36928
9824,39360
9825,42496
9826,45888
9827,48512
9828,48448
9829,46016
9830,42432
9831,38592
9832,35008
9833,32128
9834,30208
9835,29184
9836,28864
9837,29056
9838,29632
9839,30208
9840,30784
9841,31168
9842,31680
9843,32000
9844,32256
9845,32448
9846,32640
9847,32768
9848,32896
9849,33024
9850,33088
9851,33152
9852,33216
9853,33280
9854,33216
9855,33344
9856,33472
9857,33472
9858,33344
9859,33408
9860,33536
9861,33600
9862,33792
9863,34048
9864,34048
9865,33920
9866,33920
9867,33984
9868,34112
9869,34240
9870,34432
9871,34560
9872,34752
9873,34816
9874,34880
9875,35008
9876,35136
9877,35200
9878,35328
9879,35584
9880,35776
9881,35904
9882,36032
9883,36096
9884,36160
9885,36224
9886,36224
9887,36224
9888,36352
9889,36352
9890,36288
9891,36160
9892,36096
9893,35968
9894,35712
9895,35456
9896,35136
9897,34752
9898,34240
9899,33728
9900,33344
9901,32896
9902,32832
9903,32448
9904,32256
9905,32192
9906,32064
9907,31936
9908,31936
9909,31936
9910,32000
9911,32064
9912,32192
9913,32192
9914,32576
9915,32704
9916,32832
9917,32960
9918,32960
9919,32896
9920,32896
9921,32960
9922,33088
9923,33088
9924,33088
9925,33216
9926,33408
9927,33408
9928,33344
9929,33408
9930,33344
9931,33280
9932,33216
9933,33280
9934,33408
9935,33408
9936,33344
9937,33344
9938,33472
9939,33600
9940,33728
9941,33728
9942,33728
9943,33728
9944,33664
9945,33600
9946,33664
9947,33664
9948,33664
9949,33664
9950,33728
9951,33792
9952,33728
9953,33664
9954,33600
9955,33600
9956,33600
9957,33600
9958,33536
9959,33600
9960,33600
9961,33536
9962,33536
9963,33600
9964,33600
9965,33536
9966,33664
9967,33792
9968,33856
9969,33728
9970,33664
9971,33728
9972,33728
9973,33792
9974,33856
9975,33856
9976,33664
9977,33536
9978,33472
9979,33536
9980,33664
9981,33664
9982,33664
9983,33664
9984,33664
9985,33728
9986,33728
9987,33792
9988,33920
9989,33920
9990,33856
9991,33856
9992,33856
9993,33920
9994,33792
9995,33792
9996,33856
9997,33856
9998,33792
9999,33792
10000,33856
10001,33984
10002,33984
10003,33920
10004,33984
10005,33984
10006,33856
10007,33728
10008,33664
10009,33728
10010,33664
10011,33792
10012,34176
10013,34624
10014,34880
10015,34944
10016,35136
10017,35264
10018,35392
10019,35520
10020,35584
10021,35584
10022,35392
10023,35136
10024,34752
10025,34368
10026,33984
10027,33600
10028,33408
10029,33408
10030,33536
10031,33600
10032,33600
10033,33600
10034,33792
10035,33792
10036,33600
10037,33536
10038,33664
10039,33792
10040,33792
10041,33792
10042,33856
10043,33984
10044,33920
10045,33792
10046,33792
10047,33792
10048,33600
10049,33408
10050,33536
10051,34368
10052,35712
10053,37824
10054,40640
10055,44032
10056,47296
10057,49088
10058,48320
10059,45376
10060,41472
10061,37440
10062,33728
10063,31296
10064,29696
10065,28928
10066,28864
10067,29248
10068,29632
10069,30080
10070,30592
10071,31168
10072,31680
10073,31936
10074,32128
10075,32320
10076,32512
10077,32640
10078,32768
10079,32960
10080,33088
10081,33024
10082,32960
10083,33024
10084,33216
10085,33280
10086,33408
10087,33408
10088,33536
10089,33472
10090,33344
10091,33344
10092,33472
10093,33600
10094,33664
10095,33792
10096,33920
10097,34048
10098,34048
10099,34112
10100,34176
10101,34304
10102,34432
10103,34496
10104,34688
10105,34880
10106,34944
10107,35072
10108,35200
10109,35456
10110,35648
10111,35776
10112,35776
10113,35840
10114,35904
10115,36096
10116,36352
10117,36416
10118,36416
10119,36352
10120,36352
10121,36352
10122,36096
10123,35840
10124,35712
10125,35648
10126,35456
10127,35136
10128,34816
10129,34432
10130,33856
10131,33216
10132,32704
10133,32384
10134,32128
10135,31936
10136,31808
10137,31808
10138,31936
10139,32064
10140,32128
10141,32128
10142,32256
10143,32384
10144,32384
10145,32512
10146,32704
10147,32896
10148,32896
10149,32832
10150,32832
10151,32832
10152,32832
10153,32832
10154,32960
10155,33152
10156,33152
10157,33216
10158,33280
10159,33408
10160,33344
10161,33344
10162,33408
10163,33472
10164,33408
10165,33408
10166,33472
10167,33600
10168,33600
10169,33600
10170,33728
10171,33792
10172,33728
10173,33536
10174,33408
10175,33408
10176,33472
10177,33472
10178,33536
10179,33536
10180,33600
10181,33600
10182,33536
10183,33536
10184,33536
10185,33536
10186,33472
10187,33472
10188,33600
10189,33600
10190,33600
10191,33600
10192,33600
10193,33600
10194,33536
10195,33536
10196,33600
10197,33600
10198,33472
10199,33472
10200,33536
10201,33600
10202,33536
10203,33472
10204,33472
10205,33600
10206,33664
10207,33536
10208,33472
10209,33536
10210,33536
10211,33536
10212,33472
10213,33472
10214,33536
10215,33536
10216,33600
10217,33664
10218,33600
10219,33600
10220,33664
10221,33792
10222,33728
10223,33600
10224,33536
10225,33536
10226,33600
10227,33600
10228,33664
10229,33728
10230,33856
10231,33856
10232,33792
10233,33856
10234,33856
10235,33792
10236,33792
10237,33792
10238,33856
10239,33856
10240,33920
10241,33984
10242,34048
10243,34176
10244,34304
10245,34496
10246,34816
10247,35008
10248,35072
10249,35136
10250,35264
10251,35392
10252,35264
10253,35072
10254,34880
10255,34624
10256,34368
10257,34048
10258,33856
10259,33728
10260,33600
10261,33536
10262,33472
10263,33536
10264,33664
10265,33728
10266,33792
10267,33856
10268,33856
10269,33792
10270,33856
10271,33920
10272,33920
10273,33920
10274,33984
10275,34048
10276,34112
10277,34176
10278,34176
10279,34048
10280,33920
10281,34048
10282,34688
10283,36224
10284,38400
10285,41344
10286,44800
10287,48000
10288,49472
10289,48064
10290,44736
10291,40832
10292,36992
10293,33792
10294,31424
10295,30016
10296,29440
10297,29376
10298,29696
10299,30272
10300,30976
10301,31616
10302,32000
10303,32320
10304,32640
10305,32896
10306,33024
10307,33088
10308,33216
10309,33472
10310,33600
10311,33664
10312,33664
10313,33792
10314,33920
10315,33856
10316,33856
10317,33920
10318,33984
10319,34112
10320,34176
10321,34304
10322,34368
10323,34368
10324,34432
10325,34560
10326,34688
10327,34624
10328,34688
10329,34816
10330,34944
10331,35072
10332,35136
10333,35264
10334,35392
10335,35456
10336,35520
10337,35712
10338,35968
10339,36096
10340,36096
10341,36224
10342,36416
10343,36544
10344,36544
10345,36544
10346,36672
10347,36800
10348,36800
10349,36864
10350,36992
10351,36928
10352,36800
10353,36736
10354,36672
10355,36544
10356,36288
10357,36032
10358,35712
10359,35392
10360,34944
10361,34432
10362,33920
10363,33600
10364,33344
10365,33088
10366,32960
10367,32896
10368,32704
10369,32640
10370,32640
10371,32704
10372,32832
10373,32832
10374,32896
10375,33024
10376,33152
10377,33088
10378,33152
10379,33280
10380,33408
10381,33472
10382,33472
10383,33600
10384,33728
10385,33792
10386,33856
10387,33856
10388,33856
10389,33792
10390,33792
10391,33856
10392,33856
10393,33664
10394,33536
10395,33472
10396,33600
10397,33664
10398,33664
10399,33792
10400,33920
10401,33984
10402,33984
10403,33920
10404,33920
10405,33984
10406,33984
10407,33984
10408,33984
10409,33984
10410,33792
10411,33536
10412,33472
10413,33600
10414,33664
10415,33600
10416,33600
10417,33664
10418,33664
10419,33664
10420,33792
10421,33920
10422,33856
10423,33792
10424,33728
10425,33792
10426,33856
10427,33856
10428,33856
10429,33856
10430,33856
10431,33728
10432,33664
10433,33664
10434,33664
10435,33664
10436,33664
10437,33728
10438,33792
10439,33856
10440,33792
10441,33728
10442,33728
10443,33792
10444,33792
10445,33728
10446,33728
10447,33664
10448,33600
10449,33600
10450,33728
10451,33856
10452,33984
10453,34048
10454,34240
10455,34368
10456,34560
10457,34688
10458,34880
10459,35136
10460,35328
10461,35392
10462,35392
10463,35264
10464,34880
10465,34368
10466,33920
10467,33664
10468,33536
10469,33408
10470,33280
10471,33280
10472,33280
10473,33280
10474,33280
10475,33344
10476,33408
10477,33472
10478,33472
10479,33472
10480,33472
10481,33472
10482,33472
10483,33600
10484,33856
10485,33920
10486,33792
10487,33600
10488,33472
10489,33344
10490,33152
10491,33152
10492,33472
10493,34304
10494,35584
10495,37504
10496,40128
10497,43392
10498,45184
10499,45312
10500,43328
10501,40512
10502,37504
10503,34752
10504,32512
10505,30848
10506,29888
10507,29632
10508,29888
10509,30528
10510,31296
10511,31936
10512,32384
10513,32576
10514,32704
10515,32768
10516,32960
10517,33152
10518,33280
10519,33408
10520,33472
10521,33664
10522,33792
10523,33792
10524,33792
10525,33792
10526,33792
10527,33856
10528,33856
10529,33920
10530,33920
10531,33856
10532,33856
10533,33920
10534,34048
10535,34176
10536,34240
10537,34368
10538,34560
10539,34688
10540,34624
10541,34688
10542,34816
10543,34880
10544,35008
10545,35072
10546,35200
10547,35264
10548,35328
10549,35456
10550,35712
10551,35904
10552,36032
10553,36160
10554,36416
10555,36672
10556,36800
10557,36736
10558,36736
10559,36864
10560,36928
10561,36864
10562,36736
10563,36672
10564,36544
10565,36352
10566,36160
10567,35968
10568,35520
10569,34944
10570,34432
10571,33920
10572,33472
10573,33088
10574,32704
10575,32384
10576,32128
10577,31936
10578,31808
10579,31872
10580,31936
10581,31936
10582,32000
10583,32000
10584,32064
10585,32128
10586,32192
10587,32192
10588,32192
10589,32256
10590,32320
10591,32512
10592,32704
10593,32960
10594,33344
10595,33408
10596,33280
10597,33216
10598,33024
10599,32768
10600,32832
10601,33088
10602,33152
10603,33088
10604,33152
10605,33216
10606,33216
10607,33280
10608,33408
10609,33600
10610,33664
10611,33728
10612,33792
10613,33984
10614,33984
10615,33728
10616,33664
10617,33664
10618,33664
10619,33728
10620,33856
10621,33856
10622,33728
10623,33600
10624,33536
10625,33536
10626,33536
10627,33536
10628,33536
10629,33600
10630,33664
10631,33728
10632,33728
10633,33792
10634,33856
10635,33856
10636,33728
10637,33664
10638,33728
10639,33664
10640,33664
10641,33728
10642,33856
10643,33920
10644,34048
10645,33984
10646,33984
10647,33984
10648,33984
10649,33856
10650,33792
10651,33728
10652,33728
10653,33728
10654,33792
10655,33856
10656,33856
10657,33856
10658,33920
10659,34048
10660,34176
10661,34368
10662,34624
10663,34816
10664,34944
10665,34944
10666,35072
10667,35264
10668,35456
10669,35456
10670,35328
10671,35072
10672,34816
10673,34432
10674,34240
10675,34112
10676,33920
10677,33728
10678,33536
10679,33472
10680,33536
10681,33536
10682,33472
10683,33408
10684,33408
10685,33280
10686,33216
10687,33280
10688,33472
10689,33600
10690,33664
10691,33728
10692,33792
10693,33856
10694,33920
10695,33920
10696,33792
10697,33472
10698,33344
10699,33792
10700,34880
10701,36416
10702,38400
10703,40960
10704,43712
10705,45440
10706,44928
10707,42432
10708,39616
10709,36608
10710,33920
10711,31872
10712,30528
10713,29824
10714,29824
10715,30272
10716,30848
10717,31424
10718,31936
10719,32256
10720,32576
10721,32832
10722,33088
10723,33280
10724,33472
10725,33664
10726,33728
10727,33664
10728,33536
10729,33600
10730,33664
10731,33728
10732,33664
10733,33728
10734,33792
10735,33856
10736,33856
10737,33984
10738,34176
10739,34176
10740,34176
10741,34176
10742,34240
10743,34240
10744,34304
10745,34432
10746,34624
10747,34816
10748,34816
10749,34752
10750,34816
10751,35008
10752,35072
10753,35008
10754,35072
10755,35264
10756,35456
10757,35712
10758,35904
10759,36096
10760,36288
10761,36416
10762,36608
10763,36736
10764,36800
10765,36800
10766,36864
10767,36928
10768,36864
10769,36736
10770,36672
10771,36480
10772,36288
10773,36032
10774,35648
10775,35264
10776,34752
10777,34240
10778,33728
10779,33344
10780,33024
10781,32576
10782,32192
10783,32000
10784,31936
10785,31872
10786,31744
10787,31808
10788,32000
10789,32128
10790,32192
10791,32128
10792,32192
10793,32256
10794,32256
10795,32320
10796,32384
10797,32512
10798,32576
10799,32640
10800,32768
10801,32960
10802,33088
10803,33152
10804,33152
10805,33216
10806,33280
10807,33344
10808,33600
10809,33856
10810,33728
10811,33344
10812,33216
10813,33216
10814,33280
10815,33344
10816,33408
10817,33600
10818,33600
10819,33536
10820,33600
10821,33856
10822,33984
10823,33792
10824,33600
10825,33472
10826,33472
10827,33408
10828,33344
10829,33344
10830,33408
10831,33472
10832,33472
10833,33600
10834,33728
10835,33728
10836,33728
10837,33792
10838,33856
10839,33920
10840,33984
10841,33984
10842,33856
10843,33728
10844,33536
10845,33280
10846,33280
10847,33408
10848,33472
10849,33536
10850,33664
10851,33792
10852,33856
10853,33856
10854,33856
10855,33920
10856,33856
10857,33856
10858,33920
10859,34112
10860,34368
10861,34496
10862,34624
10863,34816
10864,34944
10865,35072
10866,35200
10867,35392
10868,35456
10869,35392
10870,35136
10871,34944
10872,34752
10873,34368
10874,33920
10875,33664
10876,33536
10877,33344
10878,33216
10879,33280
10880,33344
10881,33280
10882,33280
10883,33344
10884,33408
10885,33472
10886,33536
10887,33600
10888,33664
10889,33728
10890,33728
10891,33728
10892,33728
10893,33728
10894,33728
10895,33728
10896,33536
10897,33408
10898,33536
10899,34432
10900,36032
10901,38016
10902,40704
10903,43328
10904,45312
10905,45056
10906,42624
10907,39808
10908,36800
10909,34112
10910,32064
10911,30592
10912,29824
10913,29824
10914,30208
10915,30656
10916,31232
10917,32000
10918,32256
10919,32448
10920,32640
10921,32896
10922,33152
10923,33280
10924,33472
