,ECG
0,33536
1,33472
2,33536
3,33600
4,33600
5,33536
6,33600
7,33664
8,33664
9,33600
10,33600
11,33664
12,33664
13,33664
14,33664
15,33728
16,33728
17,33664
18,33664
19,33792
20,33856
21,33792
22,33792
23,33856
24,33920
25,33920
26,33856
27,33856
28,33856
29,33856
30,33856
31,33856
32,33856
33,33856
34,33792
35,33792
36,33920
37,33984
38,34112
39,34304
40,34496
41,34624
42,34688
43,34752
44,35008
45,35200
46,35264
47,35200
48,35008
49,34752
50,34368
51,33984
52,33728
53,33536
54,33408
55,33280
56,33216
57,33344
58,33408
59,33408
60,33408
61,33536
62,33600
63,33536
64,33600
65,33728
66,33792
67,33728
68,33728
69,33792
70,33792
71,33856
72,33792
73,33600
74,33344
75,33280
76,33728
77,35008
78,36992
79,39616
80,42752
81,45632
82,46912
83,45632
84,39040
85,35456
86,32576
87,30656
88,29760
89,29696
90,30080
91,30592
92,31104
93,31744
94,32256
95,32576
96,32896
97,33152
98,33408
99,33600
100,33536
101,33728
102,33792
103,33792
104,33728
105,33664
106,33792
107,33792
108,33728
109,33728
110,33792
111,33792
112,33792
113,33856
114,33920
115,34048
116,34048
117,33984
118,34048
119,34112
120,34176
121,34176
122,34304
123,34432
124,34496
125,34560
126,34624
127,34752
128,34816
129,34880
130,34816
131,35136
132,35200
133,35200
134,35264
135,35264
136,35520
137,35456
138,35456
139,35520
140,35520
141,35520
142,35456
143,35520
144,35520
145,35456
146,35200
147,35072
148,34880
149,34560
150,34432
151,33920
152,33664
153,33408
154,33152
155,32960
156,32896
157,32832
158,32768
159,32768
160,32704
161,32832
162,32832
163,32896
164,33088
165,33088
166,33216
167,33152
168,33280
169,33408
170,33472
171,33472
172,33536
173,33600
174,33600
175,33536
176,33536
177,33664
178,33664
179,33600
180,33600
181,33664
182,33728
183,33664
184,33664
185,33664
186,33664
187,33600
188,33600
189,33600
190,33600
191,33600
192,33536
193,33536
194,33600
195,33536
196,33536
197,33536
198,33600
199,33536
200,33472
201,33472
202,33600
203,33664
204,33600
205,33536
206,33536
207,33536
208,33536
209,33536
210,33664
211,33728
212,33728
213,33728
214,33728
215,33728
216,33664
217,33664
218,33664
219,33664
220,33664
221,33664
222,33728
223,33792
224,33728
225,33728
226,33792
227,33856
228,33856
229,33792
230,33792
231,33856
232,33856
233,33856
234,33856
235,33920
236,33920
237,33856
238,33856
239,33920
240,33984
241,33920
242,33920
243,33984
244,34112
245,34304
246,34496
247,34688
248,34880
249,35072
250,35136
251,35264
252,35520
253,35584
254,35392
255,35136
256,34816
257,34432
258,34048
259,33728
260,33600
261,33472
262,33408
263,33344
264,33408
265,33472
266,33472
267,33472
268,33536
269,33664
270,33728
271,33728
272,33728
273,33792
274,33792
275,33792
276,33792
277,33856
278,33920
279,33728
280,33472
281,33344
282,33664
283,34624
284,36288
285,38720
286,41792
287,44864
288,46720
289,46208
290,43648
291,40128
292,36416
293,33280
294,31104
295,30080
296,29760
297,30016
298,30528
299,31104
300,31552
301,32064
302,32512
303,32832
304,33024
305,33216
306,33472
307,33600
308,33600
309,33664
310,33728
311,33792
312,33728
313,33728
314,33728
315,33792
316,33792
317,33728
318,33792
319,33856
320,33856
321,33856
322,33856
323,33984
324,33984
325,34048
326,34112
327,34176
328,34240
329,34240
330,34240
331,34368
332,34496
333,34560
334,34624
335,34688
336,34816
337,34880
338,34944
339,35072
340,35200
341,35200
342,35200
343,35264
344,35392
345,35392
346,35392
347,35456
348,35520
349,35520
350,35520
351,35456
352,35392
353,35264
354,35008
355,34752
356,34560
357,34304
358,33984
359,33664
360,33472
361,33280
362,33088
363,32896
364,32832
365,32768
366,32768
367,32832
368,32896
369,32960
370,33024
371,32960
372,33024
373,33216
374,33280
375,33280
376,33344
377,33472
378,33472
379,33472
380,33472
381,33472
382,33536
383,33536
384,33536
385,33600
386,33664
387,33664
388,33600
389,33664
390,33664
391,33664
392,33600
393,33664
394,33728
395,33664
396,33600
397,33600
398,33664
399,33664
400,33600
401,33600
402,33536
403,33536
404,33472
405,33472
406,33472
407,33536
408,33472
409,33408
410,33472
411,33536
412,33472
413,33472
414,33472
415,33600
416,33664
417,33600
418,33600
419,33664
420,33600
421,33536
422,33536
423,33600
424,33664
425,33664
426,33664
427,33728
428,33728
429,33728
430,33664
431,33728
432,33664
433,33664
434,33600
435,33664
436,33728
437,33728
438,33728
439,33856
440,34112
441,34304
442,34432
443,34624
444,34880
445,35008
446,35072
447,35200
448,35392
449,35328
450,35072
451,34752
452,34368
453,33984
454,33664
455,33472
456,33408
457,33280
458,33216
459,33152
460,33280
461,33408
462,33472
463,33536
464,33600
465,33664
466,33664
467,33664
468,33664
469,33728
470,33728
471,33664
472,33664
473,33792
474,33728
475,33408
476,33088
477,33280
478,34112
479,35776
480,37952
481,40960
482,44160
483,46336
484,46208
485,43968
486,40704
487,37056
488,33792
489,31488
490,30208
491,29824
492,29888
493,30272
494,30848
495,31360
496,31872
497,32256
498,32640
499,32960
500,33216
501,33408
502,33664
503,33728
504,33728
505,33728
506,33728
507,33728
508,33728
509,33664
510,33664
511,33664
512,33664
513,33664
514,33728
515,33856
516,33856
517,33792
518,33856
519,33984
520,34048
521,34048
522,34176
523,34304
524,34368
525,34368
526,34432
527,34560
528,34624
529,34624
530,34688
531,34816
532,34944
533,35008
534,35072
535,35200
536,35328
537,35392
538,35456
539,35520
540,35584
541,35648
542,35584
543,35584
544,35648
545,35648
546,35520
547,35392
548,35328
549,35200
550,34880
551,34560
552,34304
553,33984
554,33664
555,33344
556,33152
557,32960
558,32832
559,32768
560,32768
561,32768
562,32768
563,32768
564,32832
565,32960
566,33024
567,33088
568,33152
569,33280
570,33344
571,33408
572,33472
573,33600
574,33664
575,33664
576,33664
577,33728
578,33856
579,33856
580,33856
581,33920
582,33920
583,33920
584,33856
585,33856
586,33920
587,33856
588,33792
589,33792
590,33856
591,33856
592,33792
593,33856
594,33920
595,33920
596,33920
597,33856
598,33920
599,33984
600,33920
601,33920
602,33920
603,33984
604,33920
605,33920
606,33984
607,34048
608,33984
609,33920
610,33984
611,33984
612,33984
613,33920
614,33984
615,34112
616,34112
617,34112
618,34112
619,34240
620,34240
621,34240
622,34240
623,34304
624,34368
625,34368
626,34496
627,34688
628,34880
629,35072
630,35200
631,35392
632,35584
633,35712
634,35840
635,35840
636,35712
637,35392
638,34944
639,34624
640,34368
641,34176
642,33984
643,33920
644,33856
645,33856
646,33792
647,33792
648,33920
649,33984
650,34048
651,34048
652,34176
653,34240
654,34240
655,34240
656,34304
657,34368
658,34304
659,34304
660,34304
661,34176
662,33920
663,34048
664,34752
665,36160
666,38208
667,40768
668,43584
669,45760
670,45824
671,43584
672,40384
673,37184
674,34432
675,32256
676,30912
677,30336
678,30464
679,30848
680,31424
681,32000
682,32576
683,33024
684,33344
685,33664
686,33920
687,34048
688,34112
689,34176
690,34240
691,34240
692,34176
693,34176
694,34240
695,34240
696,34176
697,34112
698,34176
699,34240
700,34176
701,34240
702,34304
703,34368
704,34368
705,34368
706,34432
707,34560
708,34560
709,34496
710,34624
711,34752
712,34752
713,34752
714,34880
715,35008
716,35072
717,35136
718,35200
719,35264
720,35328
721,35328
722,35328
723,35456
724,35520
725,35520
726,35520
727,35520
728,35456
729,35456
730,35392
731,35456
732,35456
733,35328
734,35136
735,34944
736,34816
737,34560
738,34176
739,33856
740,33600
741,33344
742,33024
743,32832
744,32768
745,32704
746,32640
747,32640
748,32704
749,32768
750,32832
751,32832
752,32960
753,33088
754,33152
755,33152
756,33280
757,33344
758,33408
759,33344
760,33408
761,33536
762,33536
763,33536
764,33536
765,33536
766,33600
767,33600
768,33664
769,33664
770,33728
771,33664
772,33664
773,33728
774,33664
775,33600
776,33536
777,33536
778,33536
779,33536
780,33472
781,33472
782,33536
783,33536
784,33536
785,33536
786,33536
787,33536
788,33472
789,33472
790,33536
791,33536
792,33536
793,33472
794,33536
795,33600
796,33536
797,33536
798,33664
799,33728
800,33728
801,33664
802,33664
803,33728
804,33856
805,34048
806,34304
807,34560
808,34688
809,34752
810,34944
811,35200
812,35328
813,35328
814,35136
815,34880
816,34496
817,34048
818,33728
819,33600
820,33408
821,33216
822,33088
823,33152
824,33216
825,33216
826,33216
827,33344
828,33536
829,33600
830,33600
831,33728
832,33792
833,33792
834,33728
835,33728
836,33792
837,33792
838,33664
839,33408
840,33280
841,33344
842,33920
843,35264
844,37312
845,40000
846,43136
847,45760
848,46400
849,44672
850,41472
851,37824
852,34432
853,31936
854,30400
855,29760
856,29888
857,30336
858,30848
859,31360
860,31872
861,32320
862,32704
863,32960
864,33152
865,33408
866,33536
867,33536
868,33600
869,33728
870,33792
871,33728
872,33664
873,33728
874,33792
875,33792
876,33856
877,33856
878,33920
879,33856
880,33856
881,33984
882,34112
883,34176
884,34176
885,34240
886,34304
887,34368
888,34432
889,34432
890,34560
891,34624
892,34688
893,34752
894,34880
895,34944
896,35008
897,35072
898,35200
899,35328
900,35328
901,35392
902,35456
903,35520
904,35520
905,35456
906,35456
907,35456
908,35456
909,35392
910,35328
911,35264
912,35136
913,34944
914,34688
915,34496
916,34240
917,33856
918,33536
919,33344
920,33216
921,33024
922,32832
923,32832
924,32832
925,32832
926,32896
927,32960
928,33088
929,33088
930,33152
931,33216
932,33344
933,33344
934,33344
935,33408
936,33472
937,33536
938,33536
939,33536
940,33600
941,33664
942,33600
943,33600
944,33664
945,33664
946,33664
947,33664
948,33664
949,33728
950,33728
951,33664
952,33664
953,33728
954,33664
955,33600
956,33600
957,33600
958,33600
959,33536
960,33536
961,33536
962,33536
963,33536
964,33472
965,33536
966,33600
967,33536
968,33536
969,33536
970,33600
971,33600
972,33600
973,33600
974,33664
975,33664
976,33664
977,33792
978,34048
979,34240
980,34368
981,34496
982,34688
983,34816
984,34944
985,35136
986,35328
987,35264
988,34944
989,34432
990,34112
991,33792
992,33472
993,33280
994,33152
995,33088
996,33024
997,33024
998,33152
999,33216
1000,33280
1001,33280
1002,33408
1003,33536
1004,33536
1005,33536
1006,33600
1007,33664
1008,33728
1009,33728
1010,33728
1011,33792
1012,33664
1013,33344
1014,33216
1015,33664
1016,34752
1017,36544
1018,38976
1019,41984
1020,44928
1021,46400
1022,45376
1023,42560
1024,39104
1025,35584
1026,32576
1027,30720
1028,29824
1029,29760
1030,30016
1031,30592
1032,31232
1033,31808
1034,32320
1035,32640
1036,32960
1037,33216
1038,33408
1039,33472
1040,33664
1041,33728
1042,33728
1043,33728
1044,33856
1045,33856
1046,33856
1047,33856
1048,33856
1049,33920
1050,33920
1051,33920
1052,33984
1053,34048
1054,34048
1055,34048
1056,34112
1057,34240
1058,34304
1059,34304
1060,34304
1061,34432
1062,34496
1063,34560
1064,34560
1065,34752
1066,34816
1067,34880
1068,34880
1069,35008
1070,35136
1071,35200
1072,35264
1073,35328
1074,35392
1075,35456
1076,35456
1077,35520
1078,35584
1079,35520
1080,35456
1081,35456
1082,35520
1083,35456
1084,35328
1085,35200
1086,35072
1087,34880
1088,34560
1089,34240
1090,33984
1091,33664
1092,33344
1093,33152
1094,32960
1095,32896
1096,32832
1097,32768
1098,32768
1099,32832
1100,32896
1101,32896
1102,33024
1103,33152
1104,33216
1105,33216
1106,33280
1107,33344
1108,33408
1109,33472
1110,33472
1111,33536
1112,33600
1113,33600
1114,33600
1115,33664
1116,33728
1117,33664
1118,33664
1119,33664
1120,33728
1121,33728
1122,33600
1123,33664
1124,33664
1125,33664
1126,33600
1127,33664
1128,33664
1129,33664
1130,33600
1131,33664
1132,33728
1133,33728
1134,33664
1135,33600
1136,33664
1137,33664
1138,33600
1139,33600
1140,33600
1141,33664
1142,33600
1143,33600
1144,33664
1145,33728
1146,33728
1147,33664
1148,33728
1149,33856
1150,34048
1151,34240
1152,34432
1153,34624
1154,34816
1155,34880
1156,35008
1157,35264
1158,35456
1159,35328
1160,35136
1161,34816
1162,34432
1163,33984
1164,33664
1165,33536
1166,33408
1167,33280
1168,33152
1169,33216
1170,33280
1171,33280
1172,33280
1173,33408
1174,33536
1175,33600
1176,33600
1177,33664
1178,33792
1179,33856
1180,33856
1181,33856
1182,33984
1183,33984
1184,33792
1185,33536
1186,33344
1187,33536
1188,34368
1189,35904
1190,38208
1191,41152
1192,44096
1193,46016
1194,45568
1195,43136
1196,39808
1197,36288
1198,33344
1199,30784
1200,30016
1201,29696
1202,29952
1203,30528
1204,31168
1205,31680
1206,32192
1207,32640
1208,33024
1209,33216
1210,33408
1211,33600
1212,33728
1213,33792
1214,33792
1215,33856
1216,33920
1217,33856
1218,33856
1219,33920
1220,33984
1221,33920
1222,33920
1223,33920
1224,33984
1225,33984
1226,33984
1227,34048
1228,34176
1229,34176
1230,34176
1231,34240
1232,34304
1233,34432
1234,34432
1235,34496
1236,34624
1237,34688
1238,34752
1239,34752
1240,34880
1241,35008
1242,35072
1243,35072
1244,35264
1245,35328
1246,35392
1247,35392
1248,35456
1249,35520
1250,35520
1251,35456
1252,35456
1253,35520
1254,35456
1255,35392
1256,35328
1257,35264
1258,35072
1259,34752
1260,34560
1261,34304
1262,34048
1263,33728
1264,33472
1265,33408
1266,33280
1267,33152
1268,33024
1269,33024
1270,33024
1271,33024
1272,33024
1273,33088
1274,33280
1275,33344
1276,33344
1277,33408
1278,33536
1279,33536
1280,33536
1281,33536
1282,33600
1283,33728
1284,33728
1285,33728
1286,33792
1287,33856
1288,33856
1289,33792
1290,33792
1291,33856
1292,33856
1293,33792
1294,33856
1295,33856
1296,33856
1297,33856
1298,33856
1299,33920
1300,33856
1301,33792
1302,33792
1303,33856
1304,33792
1305,33728
1306,33728
1307,33728
1308,33792
1309,33728
1310,33728
1311,33856
1312,33856
1313,33792
1314,33728
1315,33792
1316,33856
1317,33856
1318,33920
1319,34112
1320,34304
1321,34432
1322,34496
1323,34624
1324,34880
1325,35072
1326,35200
1327,35328
1328,35392
1329,35200
1330,34880
1331,34560
1332,34240
1333,33984
1334,33728
1335,33536
1336,33472
1337,33472
1338,33472
1339,33472
1340,33536
1341,33600
1342,33664
1343,33664
1344,33664
1345,33792
1346,33792
1347,33792
1348,33792
1349,33920
1350,33920
1351,33856
1352,33920
1353,33984
1354,33792
1355,33536
1356,33728
1357,34496
1358,35904
1359,38016
1360,40448
1361,43264
1362,45184
1363,44864
1364,41216
1365,39168
1366,36352
1367,33728
1368,31808
1369,30592
1370,30144
1371,30144
1372,30464
1373,31104
1374,31808
1375,32384
1376,32832
1377,33152
1378,33472
1379,33664
1380,33728
1381,33792
1382,33920
1383,33920
1384,33920
1385,33856
1386,33920
1387,33984
1388,33984
1389,33920
1390,33984
1391,33984
1392,33984
1393,33984
1394,34048
1395,34112
1396,34112
1397,34048
1398,34048
1399,34176
1400,34240
1401,34176
1402,34240
1403,34368
1404,34432
1405,34432
1406,34496
1407,34624
1408,34688
1409,34752
1410,34752
1411,34880
1412,35008
1413,35072
1414,35072
1415,35136
1416,35264
1417,35264
1418,35264
1419,35328
1420,35392
1421,35328
1422,35264
1423,35200
1424,35200
1425,35136
1426,34944
1427,34752
1428,34560
1429,34368
1430,34048
1431,33728
1432,33536
1433,33344
1434,33152
1435,32960
1436,32896
1437,32896
1438,32832
1439,32768
1440,32832
1441,32896
1442,32896
1443,32960
1444,33024
1445,33152
1446,33152
1447,33152
1448,33216
1449,33280
1450,33344
1451,33344
1452,33408
1453,33472
1454,33536
1455,33536
1456,33536
1457,33600
1458,33664
1459,33664
1460,33664
1461,33664
1462,33728
1463,33664
1464,33664
1465,33728
1466,33728
1467,33728
1468,33664
1469,33664
1470,33664
1471,33664
1472,33600
1473,33536
1474,33600
1475,33600
1476,33536
1477,33536
1478,33536
1479,33536
1480,33472
1481,33472
1482,33536
1483,33600
1484,33600
1485,33600
1486,33600
1487,33664
1488,33600
1489,33600
1490,33664
1491,33664
1492,33664
1493,33664
1494,33856
1495,34048
1496,34240
1497,34368
1498,34496
1499,34816
1500,34880
1501,34944
1502,35136
1503,35264
1504,35200
1505,34944
1506,34560
1507,34240
1508,33920
1509,33600
1510,33344
1511,33280
1512,33280
1513,33216
1514,33152
1515,33216
1516,33280
1517,33344
1518,33344
1519,33408
1520,33536
1521,33536
1522,33536
1523,33536
1524,33600
1525,33664
1526,33664
1527,33664
1528,33728
1529,33472
1530,33280
1531,33152
1532,33600
1533,34752
1534,36480
1535,38912
1536,41920
1537,44928
1538,46400
1539,45376
1540,42560
1541,39040
1542,35520
1543,32512
1544,30400
1545,29696
1546,29504
1547,29760
1548,30336
1549,30976
1550,31552
1551,32000
1552,32384
1553,32768
1554,33024
1555,33216
1556,33280
1557,33408
1558,33536
1559,33536
1560,33536
1561,33600
1562,33728
1563,33728
1564,33664
1565,33664
1566,33728
1567,33728
1568,33728
1569,33728
1570,33856
1571,33920
1572,33920
1573,33920
1574,34048
1575,34112
1576,34048
1577,34112
1578,34240
1579,34304
1580,34304
1581,34368
1582,34496
1583,34624
1584,34624
1585,34688
1586,34816
1587,34944
1588,35008
1589,35008
1590,35136
1591,35264
1592,35328
1593,35328
1594,35392
1595,35456
1596,35456
1597,35392
1598,35328
1599,35328
1600,35264
1601,35136
1602,34944
1603,34816
1604,34624
1605,34304
1606,33984
1607,33728
1608,33472
1609,33216
1610,32960
1611,32832
1612,32832
1613,32768
1614,32640
1615,32704
1616,32768
1617,32832
1618,32832
1619,32960
1620,33088
1621,33152
1622,33152
1623,33216
1624,33344
1625,33408
1626,33408
1627,33408
1628,33536
1629,33600
1630,33536
1631,33472
1632,33536
1633,33600
1634,33600
1635,33600
1636,33600
1637,33728
1638,33728
1639,33664
1640,33664
1641,33728
1642,33728
1643,33664
1644,33664
1645,33728
1646,33728
1647,33664
1648,33664
1649,33728
1650,33728
1651,33664
1652,33664
1653,33664
1654,33728
1655,33664
1656,33600
1657,33664
1658,33728
1659,33664
1660,33664
1661,33664
1662,33792
1663,33792
1664,33728
1665,33728
1666,33792
1667,33792
1668,33728
1669,33728
1670,33856
1671,33920
1672,34112
1673,34304
1674,34496
1675,34624
1676,34752
1677,34880
1678,35072
1679,35264
1680,35328
1681,35264
1682,35008
1683,34752
1684,34304
1685,33920
1686,33664
1687,33472
1688,33344
1689,33216
1690,33216
1691,33280
1692,33280
1693,33280
1694,33408
1695,33536
1696,33600
1697,33600
1698,33664
1699,33728
1700,33728
1701,33728
1702,33728
1703,33792
1704,33856
1705,33792
1706,33664
1707,33408
1708,33280
1709,33472
1710,34368
1711,35904
1712,38144
1713,40960
1714,43968
1715,46144
1716,46144
1717,43776
1718,40384
1719,36672
1720,33600
1721,31296
1722,29952
1723,29568
1724,29760
1725,30272
1726,30784
1727,31360
1728,31936
1729,32448
1730,32768
1731,33024
1732,33280
1733,33536
1734,33600
1735,33664
1736,33728
1737,33792
1738,33792
1739,33728
1740,33728
1741,33792
1742,33792
1743,33728
1744,33728
1745,33792
1746,33792
1747,33728
1748,33728
1749,33856
1750,33920
1751,33920
1752,33920
1753,34048
1754,34112
1755,34176
1756,34240
1757,34304
1758,34432
1759,34496
1760,34560
1761,34624
1762,34752
1763,34816
1764,34880
1765,34944
1766,35072
1767,35200
1768,35200
1769,35264
1770,35456
1771,35456
1772,35392
1773,35392
1774,35456
1775,35456
1776,35456
1777,35328
1778,35264
1779,35200
1780,34944
1781,34688
1782,34432
1783,34240
1784,33920
1785,33600
1786,33344
1787,33216
1788,33024
1789,32896
1790,32832
1791,32832
1792,32832
1793,32832
1794,32832
1795,32960
1796,33024
1797,33024
1798,33088
1799,33152
1800,33280
1801,33280
1802,33280
1803,33344
1804,33408
1805,33408
1806,33408
1807,33472
1808,33536
1809,33536
1810,33472
1811,33536
1812,33600
1813,33600
1814,33536
1815,33536
1816,33600
1817,33600
1818,33600
1819,33600
1820,33664
1821,33664
1822,33600
1823,33600
1824,33664
1825,33728
1826,33664
1827,33600
1828,33664
1829,33728
1830,33664
1831,33600
1832,33664
1833,33728
1834,33664
1835,33600
1836,33600
1837,33664
1838,33600
1839,33600
1840,33600
1841,33664
1842,33728
1843,33664
1844,33664
1845,33664
1846,33728
1847,33664
1848,33664
1849,33728
1850,33728
1851,33728
1852,33728
1853,33792
1854,33856
1855,33920
1856,33920
1857,34176
1858,34368
1859,34496
1860,34624
1861,34752
1862,34944
1863,35072
1864,35200
1865,35328
1866,35392
1867,35200
1868,34816
1869,34432
1870,34112
1871,33920
1872,33664
1873,33536
1874,33472
1875,33472
1876,33408
1877,33408
1878,33536
1879,33600
1880,33600
1881,33600
1882,33728
1883,33792
1884,33856
1885,33856
1886,33856
1887,33984
1888,33984
1889,33920
1890,33856
1891,33856
1892,33664
1893,33472
1894,33664
1895,34496
1896,35968
1897,37952
1898,40576
1899,43584
1900,45760
1901,45824
1902,43648
1903,37184
1904,34176
1905,31808
1906,30464
1907,29888
1908,29952
1909,30336
1910,30976
1911,31616
1912,32192
1913,32576
1914,32576
1915,33024
1916,33600
1917,33728
1918,33856
1919,33984
1920,33920
1921,34048
1922,33984
1923,34048
1924,34048
1925,33984
1926,33984
1927,33984
1928,34048
1929,34112
1930,34048
1931,34112
1932,34176
1933,34240
1934,34240
1935,34176
1936,34368
1937,34432
1938,34432
1939,34432
1940,34496
1941,34560
1942,34560
1943,34624
1944,34816
1945,34880
1946,34944
1947,35008
1948,35136
1949,35264
1950,35200
1951,35264
1952,35456
1953,35584
1954,35584
1955,35520
1956,35584
1957,35584
1958,35648
1959,35520
1960,35520
1961,35584
1962,35520
1963,35392
1964,35200
1965,35072
1966,34816
1967,34560
1968,34240
1969,33984
1970,33792
1971,33536
1972,33344
1973,33280
1974,33216
1975,33152
1976,33088
1977,33088
1978,33152
1979,33152
1980,33088
1981,33280
1982,33408
1983,33472
1984,33408
1985,33408
1986,33536
1987,33536
1988,33536
1989,33600
1990,33664
1991,33664
1992,33664
1993,33664
1994,33792
1995,33728
1996,33856
1997,33792
1998,33856
1999,33920
2000,33920
2001,33856
2002,33920
2003,33984
2004,33984
2005,33920
2006,33920
2007,33984
2008,33984
2009,33920
2010,33920
2011,33984
2012,33984
2013,33920
2014,33856
2015,33920
2016,33920
2017,33856
2018,33856
2019,33920
2020,33920
2021,33856
2022,33856
2023,33856
2024,33856
2025,33856
2026,33792
2027,33792
2028,33856
2029,33856
2030,33792
2031,33792
2032,33856
2033,33920
2034,33856
2035,33856
2036,33920
2037,33920
2038,33856
2039,33920
2040,34176
2041,34304
2042,34368
2043,34496
2044,34624
2045,34816
2046,34944
2047,35072
2048,35200
2049,35200
2050,35008
2051,34688
2052,34368
2053,33984
2054,33664
2055,33344
2056,33216
2057,33280
2058,33216
2059,33216
2060,33216
2061,33280
2062,33344
2063,33408
2064,33408
2065,33472
2066,33536
2067,33536
2068,33536
2069,33664
2070,33728
2071,33664
2072,33664
2073,33728
2074,33728
2075,33536
2076,33216
2077,33216
2078,33856
2079,35008
2080,36864
2081,39296
2082,42368
2083,45120
2084,46144
2085,44672
2086,41664
2087,38208
2088,34880
2089,32128
2090,30464
2091,29568
2092,29376
2093,29696
2094,30272
2095,30912
2096,31552
2097,32064
2098,32512
2099,32960
2100,33216
2101,33152
2102,33472
2103,33664
2104,33664
2105,33664
2106,33728
2107,33728
2108,33728
2109,33664
2110,33664
2111,33728
2112,33728
2113,33728
2114,33728
2115,33792
2116,33856
2117,33856
2118,33856
2119,33920
2120,34048
2121,34048
2122,34048
2123,34176
2124,34240
2125,34240
2126,34304
2127,34368
2128,34496
2129,34560
2130,34624
2131,34688
2132,34816
2133,34944
2134,34944
2135,35072
2136,35264
2137,35392
2138,35392
2139,35456
2140,35584
2141,35648
2142,35584
2143,35584
2144,35584
2145,35584
2146,35456
2147,35328
2148,35200
2149,35072
2150,34816
2151,34496
2152,34176
2153,33984
2154,33664
2155,33344
2156,33216
2157,33088
2158,33024
2159,32896
2160,32896
2161,32960
2162,33024
2163,33024
2164,33088
2165,33152
2166,33280
2167,33216
2168,33280
2169,33408
2170,33408
2171,33408
2172,33408
2173,33408
2174,33472
2175,33472
2176,33472
2177,33536
2178,33664
2179,33600
2180,33600
2181,33664
2182,33792
2183,33792
2184,33792
2185,33792
2186,33856
2187,33856
2188,33856
2189,33792
2190,33856
2191,33920
2192,33856
2193,33792
2194,33856
2195,33856
2196,33792
2197,33792
2198,33792
2199,33856
2200,33792
2201,33792
2202,33792
2203,33792
2204,33728
2205,33664
2206,33664
2207,33792
2208,33728
2209,33664
2210,33664
2211,33664
2212,33728
2213,33728
2214,33728
2215,33792
2216,33856
2217,33792
2218,33792
2219,33792
2220,33792
2221,33792
2222,33728
2223,33792
2224,33856
2225,33792
2226,33792
2227,33728
2228,33792
2229,33792
2230,33728
2231,33728
2232,33792
2233,33792
2234,33728
2235,33728
2236,33792
2237,33856
2238,33984
2239,34176
2240,34432
2241,34624
2242,34752
2243,34816
2244,34944
2245,35136
2246,35264
2247,35264
2248,35136
2249,34880
2250,34560
2251,34240
2252,33984
2253,33792
2254,33536
2255,33408
2256,33280
2257,33280
2258,33280
2259,33280
2260,33344
2261,33408
2262,33472
2263,33536
2264,33536
2265,33664
2266,33728
2267,33728
2268,33664
2269,33728
2270,33792
2271,33728
2272,33664
2273,33664
2274,33472
2275,33344
2276,33600
2277,34560
2278,36160
2279,38336
2280,41024
2281,44096
2282,46464
2283,46720
2284,44480
2285,41088
2286,37440
2287,34048
2288,31488
2289,30016
2290,29568
2291,29632
2292,30016
2293,30528
2294,31168
2295,31680
2296,32128
2297,32448
2298,32768
2299,33088
2300,33216
2301,33280
2302,33408
2303,33536
2304,33600
2305,33536
2306,33536
2307,33600
2308,33600
2309,33600
2310,33600
2311,33664
2312,33728
2313,33664
2314,33664
2315,33792
2316,33792
2317,33792
2318,33792
2319,33920
2320,33984
2321,33984
2322,33984
2323,34048
2324,34176
2325,34240
2326,34240
2327,34368
2328,34496
2329,34624
2330,34688
2331,34816
2332,34944
2333,35072
2334,35136
2335,35200
2336,35328
2337,35456
2338,35520
2339,35520
2340,35584
2341,35584
2342,35520
2343,35520
2344,35520
2345,35456
2346,35392
2347,35200
2348,35072
2349,34816
2350,34496
2351,34176
2352,33856
2353,33664
2354,33408
2355,33152
2356,32960
2357,32960
2358,32896
2359,32768
2360,32768
2361,32896
2362,32960
2363,33024
2364,33024
2365,33152
2366,33216
2367,33216
2368,33216
2369,33280
2370,33408
2371,33408
2372,33408
2373,33408
2374,33472
2375,33472
2376,33472
2377,33472
2378,33536
2379,33600
2380,33536
2381,33536
2382,33600
2383,33600
2384,33536
2385,33536
2386,33600
2387,33600
2388,33600
2389,33536
2390,33536
2391,33600
2392,33536
2393,33536
2394,33536
2395,33600
2396,33600
2397,33536
2398,33600
2399,33600
2400,33600
2401,33536
2402,33536
2403,33600
2404,33664
2405,33600
2406,33600
2407,33600
2408,33664
2409,33600
2410,33600
2411,33664
2412,33664
2413,33600
2414,33600
2415,33600
2416,33664
2417,33664
2418,33600
2419,33664
2420,33728
2421,33728
2422,33728
2423,33728
2424,33792
2425,33792
2426,33728
2427,33728
2428,33728
2429,33792
2430,33728
2431,33728
2432,33792
2433,33856
2434,33792
2435,33792
2436,33856
2437,33920
2438,33856
2439,33856
2440,33920
2441,33920
2442,33920
2443,33856
2444,33856
2445,33920
2446,33920
2447,33856
2448,33856
2449,33984
2450,34112
2451,34304
2452,34496
2453,34688
2454,34688
2455,34688
2456,34688
2457,34816
2458,34944
2459,35008
2460,35008
2461,35072
2462,34944
2463,34688
2464,34368
2465,34112
2466,33856
2467,33600
2468,33408
2469,33344
2470,33344
2471,33280
2472,33216
2473,33280
2474,33408
2475,33472
2476,33472
2477,33536
2478,33600
2479,33664
2480,33600
2481,33600
2482,33728
2483,33728
2484,33664
2485,33664
2486,33728
2487,33600
2488,33280
2489,33216
2490,33792
2491,35008
2492,36864
2493,39296
2494,42304
2495,45248
2496,46784
2497,45760
2498,42944
2499,39104
2500,35712
2501,32576
2502,30464
2503,29504
2504,29312
2505,29568
2506,30080
2507,30784
2508,31360
2509,31872
2510,32320
2511,32704
2512,33024
2513,33216
2514,33408
2515,33472
2516,33600
2517,33536
2518,33472
2519,33472
2520,33536
2521,33536
2522,33472
2523,33472
2524,33536
2525,33536
2526,33472
2527,33472
2528,33600
2529,33664
2530,33664
2531,33664
2532,33792
2533,33856
2534,33920
2535,33920
2536,34048
2537,34112
2538,34176
2539,34240
2540,34368
2541,34496
2542,34560
2543,34560
2544,34688
2545,34816
2546,34880
2547,34944
2548,35072
2549,35200
2550,35328
2551,35328
2552,35392
2553,35456
2554,35520
2555,35456
2556,35392
2557,35456
2558,35456
2559,35328
2560,35200
2561,35136
2562,35008
2563,34752
2564,34368
2565,34112
2566,33856
2567,33536
2568,33280
2569,33024
2570,32896
2571,32768
2572,32704
2573,32640
2574,32704
2575,32768
2576,32768
2577,32832
2578,32960
2579,33024
2580,33024
2581,33088
2582,33152
2583,33280
2584,33280
2585,33280
2586,33408
2587,33472
2588,33408
2589,33408
2590,33472
2591,33536
2592,33536
2593,33536
2594,33536
2595,33664
2596,33664
2597,33600
2598,33600
2599,33664
2600,33728
2601,33664
2602,33664
2603,33728
2604,33728
2605,33664
2606,33600
2607,33664
2608,33728
2609,33664
2610,33664
2611,33728
2612,33728
2613,33728
2614,33664
2615,33664
2616,33728
2617,33664
2618,33664
2619,33664
2620,33728
2621,33728
2622,33664
2623,33728
2624,33792
2625,33792
2626,33792
2627,33792
2628,33856
2629,33920
2630,33856
2631,33856
2632,33920
2633,33920
2634,33856
2635,33856
2636,33856
2637,33856
2638,33856
2639,33856
2640,33920
2641,33920
2642,33920
2643,33856
2644,33856
2645,33920
2646,33920
2647,33856
2648,33920
2649,33984
2650,33984
2651,33920
2652,33920
2653,34048
2654,34112
2655,34048
2656,33984
2657,34048
2658,34112
2659,34112
2660,34048
2661,34112
2662,34176
2663,34112
2664,34112
2665,34240
2666,34432
2667,34560
2668,34688
2669,34752
2670,34816
2671,34752
2672,34688
2673,34752
2674,34944
2675,35072
2676,35136
2677,35200
2678,35200
2679,35072
2680,34752
2681,34432
2682,34176
2683,33984
2684,33792
2685,33664
2686,33600
2687,33600
2688,33600
2689,33600
2690,33664
2691,33728
2692,33792
2693,33792
2694,33856
2695,33984
2696,34048
2697,33984
2698,33984
2699,34048
2700,34048
2701,33984
2702,33984
2703,33856
2704,33600
2705,33472
2706,33856
2707,34944
2708,36672
2709,38912
2710,41664
2711,44416
2712,45888
2713,44928
2714,41856
2715,38912
2716,35776
2717,33088
2718,31168
2719,30144
2720,29824
2721,30016
2722,30528
2723,31104
2724,31808
2725,32384
2726,32768
2727,33088
2728,33408
2729,33600
2730,33728
2731,33728
2732,33856
2733,33920
2734,33856
2735,33792
2736,33856
2737,33920
2738,33856
2739,33856
2740,33856
2741,33920
2742,33920
2743,33920
2744,33920
2745,34048
2746,34048
2747,34048
2748,34048
2749,34176
2750,34240
2751,34240
2752,34304
2753,34368
2754,34496
2755,34496
2756,34560
2757,34624
2758,34752
2759,34752
2760,34816
2761,34880
2762,35072
2763,35136
2764,35200
2765,35264
2766,35392
2767,35456
2768,35456
2769,35456
2770,35520
2771,35520
2772,35456
2773,35456
2774,35520
2775,35456
2776,35392
2777,35264
2778,35136
2779,35008
2780,34688
2781,34432
2782,34240
2783,33984
2784,33664
2785,33408
2786,33280
2787,33152
2788,33088
2789,32960
2790,32960
2791,33024
2792,33088
2793,33088
2794,33088
2795,33216
2796,33280
2797,33280
2798,33344
2799,33408
2800,33472
2801,33472
2802,33472
2803,33536
2804,33600
2805,33536
2806,33536
2807,33600
2808,33664
2809,33664
2810,33600
2811,33664
2812,33728
2813,33728
2814,33728
2815,33728
2816,33792
2817,33792
2818,33728
2819,33728
2820,33792
2821,33792
2822,33728
2823,33728
2824,33728
2825,33728
2826,33664
2827,33600
2828,33600
2829,33600
2830,33536
2831,33472
2832,33536
2833,33536
2834,33536
2835,33472
2836,33472
2837,33600
2838,33600
2839,33536
2840,33600
2841,33728
2842,33664
2843,33600
2844,33664
2845,33728
2846,33664
2847,33664
2848,33664
2849,33664
2850,33728
2851,33664
2852,33664
2853,33728
2854,33792
2855,33728
2856,33728
2857,33792
2858,33856
2859,33792
2860,33728
2861,33792
2862,33856
2863,33856
2864,33792
2865,33856
2866,33920
2867,33920
2868,33792
2869,33792
2870,33856
2871,33920
2872,33856
2873,33792
2874,33920
2875,33920
2876,33920
2877,34048
2878,34304
2879,34560
2880,34688
2881,34688
2882,34752
2883,34752
2884,34816
2885,34816
2886,34944
2887,35072
2888,35072
2889,34944
2890,34816
2891,34560
2892,34304
2893,33984
2894,33728
2895,33600
2896,33472
2897,33344
2898,33344
2899,33408
2900,33472
2901,33472
2902,33536
2903,33600
2904,33728
2905,33728
2906,33728
2907,33856
2908,33920
2909,33920
2910,33856
2911,33856
2912,33984
2913,33920
2914,33792
2915,33536
2916,33472
2917,33856
2918,34816
2919,36608
2920,38848
2921,41792
2922,44736
2923,46656
2924,45952
2925,43712
2926,40256
2927,36544
2928,33344
2929,31040
2930,29760
2931,29376
2932,29632
2933,30144
2934,30784
2935,31296
2936,31872
2937,32448
2938,32768
2939,33088
2940,33280
2941,33472
2942,33600
2943,33664
2944,33664
2945,33792
2946,33792
2947,33728
2948,33728
2949,33728
2950,33728
2951,33664
2952,33664
2953,33728
2954,33728
2955,33728
2956,33728
2957,33856
2958,33920
2959,33920
2960,33920
2961,33984
2962,34112
2963,34112
2964,34112
2965,34176
2966,34368
2967,34432
2968,34432
2969,34560
2970,34688
2971,34752
2972,34816
2973,34944
2974,35072
2975,35200
2976,35200
2977,35328
2978,35456
2979,35520
2980,35584
2981,35520
2982,35584
2983,35648
2984,35648
2985,35520
2986,35520
2987,35456
2988,35328
2989,35136
2990,34944
2991,34688
2992,34368
2993,34048
2994,33728
2995,33536
2996,33280
2997,32960
2998,32832
2999,32832
3000,32768
3001,32768
3002,32768
3003,32896
3004,32960
3005,32960
3006,32960
3007,33088
3008,33216
3009,33280
3010,33216
3011,33280
3012,33408
3013,33408
3014,33344
3015,33344
3016,33408
3017,33408
3018,33344
3019,33408
3020,33472
3021,33472
3022,33472
3023,33472
3024,33536
3025,33536
3026,33536
3027,33472
3028,33536
3029,33600
3030,33536
3031,33536
3032,33536
3033,33600
3034,33600
3035,33536
3036,33600
3037,33664
3038,33600
3039,33536
3040,33536
3041,33600
3042,33600
3043,33536
3044,33536
3045,33536
3046,33536
3047,33536
3048,33472
3049,33536
3050,33600
3051,33536
3052,33536
3053,33664
3054,33728
3055,33728
3056,33664
3057,33728
3058,33792
3059,33728
3060,33728
3061,33728
3062,33792
3063,33792
3064,33728
3065,33728
3066,33792
3067,33792
3068,33792
3069,33792
3070,33856
3071,33856
3072,33856
3073,33792
3074,33920
3075,33920
3076,33856
3077,33856
3078,33920
3079,33920
3080,33920
3081,33856
3082,33920
3083,33920
3084,33920
3085,33856
3086,33920
3087,33984
3088,34176
3089,34368
3090,34432
3091,34560
3092,34624
3093,34624
3094,34688
3095,34880
3096,35008
3097,35072
3098,35072
3099,35008
3100,34880
3101,34560
3102,34304
3103,34048
3104,33856
3105,33728
3106,33536
3107,33472
3108,33472
3109,33408
3110,33408
3111,33472
3112,33600
3113,33664
3114,33664
3115,33728
3116,33792
3117,33856
3118,33792
3119,33792
3120,33792
3121,33856
3122,33792
3123,33728
3124,33664
3125,33472
3126,33344
3127,33792
3128,35008
3129,36864
3130,39232
3131,42176
3132,45056
3133,46656
3134,45760
3135,43008
3136,39488
3137,35968
3138,32896
3139,30720
3140,29568
3141,29312
3142,29568
3143,30144
3144,30784
3145,31488
3146,32064
3147,32448
3148,32832
3149,33216
3150,33344
3151,33472
3152,33536
3153,33664
3154,33792
3155,33792
3156,33728
3157,33728
3158,33792
3159,33792
3160,33728
3161,33728
3162,33856
3163,33856
3164,33792
3165,33856
3166,33920
3167,33984
3168,33984
3169,33984
3170,34112
3171,34176
3172,34176
3173,34176
3174,34304
3175,34368
3176,34432
3177,34432
3178,34624
3179,34752
3180,34816
3181,34880
3182,34944
3183,35136
3184,35136
3185,35136
3186,35264
3187,35392
3188,35456
3189,35456
3190,35456
3191,35520
3192,35584
3193,35520
3194,35520
3195,35520
3196,35456
3197,35392
3198,35264
3199,35136
3200,34944
3201,34688
3202,34368
3203,34112
3204,33856
3205,33536
3206,33280
3207,33152
3208,33024
3209,32896
3210,32832
3211,32896
3212,32960
3213,33024
3214,32960
3215,32960
3216,33024
3217,33152
3218,33216
3219,33280
3220,33408
3221,33472
3222,33472
3223,33408
3224,33472
3225,33536
3226,33536
3227,33536
3228,33600
3229,33664
3230,33664
3231,33664
3232,33664
3233,33728
3234,33664
3235,33664
3236,33600
3237,33664
3238,33664
3239,33600
3240,33600
3241,33728
3242,33792
3243,33728
3244,33728
3245,33728
3246,33728
3247,33728
3248,33664
3249,33728
3250,33792
3251,33728
3252,33664
3253,33664
3254,33728
3255,33728
3256,33664
3257,33728
3258,33856
3259,33792
3260,33728
3261,33664
3262,33728
3263,33728
3264,33728
3265,33728
3266,33792
3267,33792
3268,33728
3269,33792
3270,33792
3271,33792
3272,33728
3273,33664
3274,33728
3275,33792
3276,33792
3277,33792
3278,33856
3279,33856
3280,33856
3281,33792
3282,33856
3283,33856
3284,33792
3285,33792
3286,33856
3287,33856
3288,33856
3289,33792
3290,33856
3291,33984
3292,34112
3293,34240
3294,34368
3295,34560
3296,34624
3297,34624
3298,34688
3299,34944
3300,35008
3301,35136
3302,35072
3303,35008
3304,34816
3305,34432
3306,34048
3307,33728
3308,33536
3309,33344
3310,33088
3311,32960
3312,32960
3313,32960
3314,32960
3315,33024
3316,33152
3317,33216
3318,33216
3319,33216
3320,33280
3321,33408
3322,33408
3323,33408
3324,33472
3325,33536
3326,33536
3327,33472
3328,33408
3329,33152
3330,33088
3331,33408
3332,34496
3333,36288
3334,38656
3335,41600
3336,44544
3337,46336
3338,45568
3339,42688
3340,39296
3341,35776
3342,32704
3343,30464
3344,29120
3345,29056
3346,29376
3347,29952
3348,30592
3349,31232
3350,31808
3351,32192
3352,32448
3353,32768
3354,33024
3355,33152
3356,33216
3357,33344
3358,33472
3359,33472
3360,33472
3361,33472
3362,33536
3363,33600
3364,33600
3365,33600
3366,33664
3367,33728
3368,33728
3369,33728
3370,33792
3371,33856
3372,33920
3373,33920
3374,33984
3375,34048
3376,34112
3377,34112
3378,34240
3379,34368
3380,34432
3381,34496
3382,34560
3383,34688
3384,34752
3385,34816
3386,34880
3387,35072
3388,35136
3389,35200
3390,35328
3391,35456
3392,35584
3393,35584
3394,35584
3395,35648
3396,35712
3397,35648
3398,35648
3399,35648
3400,35648
3401,35520
3402,35392
3403,35264
3404,35072
3405,34880
3406,34560
3407,34304
3408,34048
3409,33728
3410,33472
3411,33280
3412,33216
3413,33088
3414,32960
3415,32896
3416,32960
3417,33088
3418,33088
3419,33216
3420,33280
3421,33408
3422,33408
3423,33408
3424,33536
3425,33600
3426,33600
3427,33600
3428,33664
3429,33792
3430,33792
3431,33728
3432,33792
3433,33856
3434,33920
3435,33856
3436,33856
3437,33920
3438,33920
3439,33920
3440,33920
3441,33984
3442,34048
3443,33984
3444,33984
3445,33984
3446,33984
3447,33920
3448,33920
3449,33984
3450,33984
3451,33984
3452,33920
3453,33984
3454,33984
3455,33920
3456,33856
3457,33920
3458,33984
3459,33984
3460,33920
3461,33984
3462,34112
3463,34112
3464,34048
3465,34048
3466,34048
3467,34048
3468,34048
3469,34048
3470,34112
3471,34176
3472,34176
3473,34112
3474,34176
3475,34176
3476,34176
3477,34112
3478,34176
3479,34240
3480,34240
3481,34176
3482,34176
3483,34240
3484,34240
3485,34240
3486,34240
3487,34304
3488,34304
3489,34240
3490,34240
3491,34304
3492,34368
3493,34432
3494,34688
3495,34752
3496,34880
3497,34944
3498,35008
3499,35136
3500,35328
3501,35520
3502,35584
3503,35648
3504,35520
3505,35136
3506,34816
3507,34496
3508,34240
3509,33856
3510,33792
3511,33728
3512,33728
3513,33728
3514,33728
3515,33792
3516,33920
3517,33984
3518,33984
3519,34048
3520,34112
3521,34176
3522,34112
3523,34112
3524,34240
3525,34240
3526,34240
3527,34176
3528,34112
3529,33920
3530,33920
3531,34240
3532,35264
3533,36992
3534,39232
3535,41984
3536,44608
3537,45888
3538,44736
3539,41856
3540,38592
3541,35584
3542,33088
3543,31296
3544,30272
3545,30016
3546,30336
3547,30848
3548,31424
3549,32064
3550,32704
3551,33088
3552,33408
3553,33664
3554,33920
3555,33984
3556,33984
3557,34048
3558,34112
3559,34112
3560,34048
3561,33984
3562,34048
3563,34048
3564,33984
3565,33984
3566,33984
3567,34048
3568,33984
3569,33984
3570,34112
3571,34112
3572,34112
3573,34112
3574,34176
3575,34240
3576,34240
3577,34240
3578,34304
3579,34432
3580,34432
3581,34432
3582,34496
3583,34624
3584,34752
3585,34816
3586,34880
3587,35008
3588,35072
3589,35072
3590,35136
3591,35264
3592,35392
3593,35392
3594,35392
3595,35456
3596,35456
3597,35392
3598,35328
3599,35328
3600,35328
3601,35264
3602,35136
3603,34944
3604,34816
3605,34560
3606,34240
3607,33984
3608,33728
3609,33472
3610,33216
3611,33024
3612,32960
3613,32896
3614,32832
3615,32832
3616,32832
3617,32832
3618,32768
3619,32768
3620,32896
3621,33024
3622,33088
3623,33024
3624,33152
3625,33280
3626,33216
3627,33216
3628,33280
3629,33344
3630,33408
3631,33344
3632,33408
3633,33472
3634,33472
3635,33472
3636,33536
3637,33600
3638,33664
3639,33600
3640,33600
3641,33600
3642,33664
3643,33600
3644,33536
3645,33600
3646,33600
3647,33600
3648,33472
3649,33472
3650,33536
3651,33536
3652,33472
3653,33472
3654,33536
3655,33472
3656,33472
3657,33472
3658,33536
3659,33536
3660,33536
3661,33536
3662,33536
3663,33600
3664,33536
3665,33536
3666,33600
3667,33600
3668,33600
3669,33536
3670,33536
3671,33600
3672,33600
3673,33536
3674,33600
3675,33664
3676,33664
3677,33664
3678,33728
3679,33792
3680,33792
3681,33728
3682,33728
3683,33792
3684,33792
3685,33792
3686,33920
3687,34240
3688,34432
3689,34560
3690,34688
3691,34880
3692,35008
3693,35072
3694,35200
3695,35328
3696,35264
3697,34944
3698,34560
3699,34240
3700,33984
3701,33664
3702,33472
3703,33344
3704,33280
3705,33280
3706,33216
3707,33280
3708,33408
3709,33472
3710,33472
3711,33536
3712,33600
3713,33664
3714,33664
3715,33664
3716,33728
3717,33792
3718,33728
3719,33728
3720,33792
3721,33664
3722,33408
3723,34048
3724,35328
3725,37248
3726,39744
3727,42816
3728,45632
3729,46848
3730,46656
3731,42496
3732,38912
3733,35328
3734,32128
3735,31808
3736,29568
3737,29504
3738,29824
3739,30400
3740,31040
3741,31680
3742,32128
3743,32512
3744,32896
3745,33280
3746,33408
3747,33536
3748,33664
3749,33792
3750,33792
3751,33728
3752,33792
3753,33792
3754,33792
3755,33728
3756,33728
3757,33792
3758,33856
3759,33856
3760,33856
3761,33984
3762,34048
3763,34048
3764,34112
3765,34048
3766,34240
3767,34304
3768,34304
3769,34368
3770,34496
3771,34496
3772,34496
3773,34624
3774,34752
3775,34816
3776,34880
3777,34944
3778,35136
3779,35200
3780,35264
3781,35392
3782,35520
3783,35648
3784,35648
3785,35712
3786,35776
3787,35776
3788,35776
3789,35712
3790,35712
3791,35712
3792,35584
3793,35456
3794,35328
3795,35200
3796,34880
3797,34560
3798,34240
3799,33984
3800,33664
3801,33280
3802,33088
3803,32960
3804,32832
3805,32704
3806,32704
3807,32768
3808,32832
3809,32832
3810,32896
3811,32960
3812,33024
3813,33088
3814,33152
3815,33280
3816,33344
3817,33408
3818,33408
3819,33472
3820,33536
3821,33536
3822,33536
3823,33600
3824,33664
3825,33664
3826,33600
3827,33664
3828,33728
3829,33728
3830,33664
3831,33664
3832,33728
3833,33728
3834,33728
3835,33664
3836,33728
3837,33728
3838,33728
3839,33664
3840,33664
3841,33728
3842,33664
3843,33664
3844,33728
3845,33728
3846,33728
3847,33664
3848,33728
3849,33728
3850,33664
3851,33600
3852,33600
3853,33664
3854,33664
3855,33600
3856,33600
3857,33664
3858,33728
3859,33728
3860,33728
3861,33792
3862,33792
3863,33728
3864,33728
3865,33728
3866,33792
3867,33792
3868,33728
3869,33728
3870,33792
3871,33792
3872,33792
3873,33856
3874,33920
3875,34112
3876,34304
3877,34496
3878,34688
3879,34816
3880,34880
3881,35008
3882,35264
3883,35392
3884,35328
3885,35136
3886,34880
3887,34560
3888,34176
3889,33856
3890,33728
3891,33600
3892,33472
3893,33408
3894,33472
3895,33536
3896,33600
3897,33600
3898,33664
3899,33728
3900,33792
3901,33792
3902,33856
3903,33984
3904,33984
3905,33984
3906,33984
3907,34048
3908,34112
3909,33920
3910,33664
3911,33600
3912,33920
3913,34816
3914,36544
3915,38656
3916,41536
3917,44416
3918,46336
3919,45952
3920,43456
3921,40064
3922,36544
3923,33536
3924,31232
3925,30144
3926,29696
3927,29952
3928,30528
3929,31232
3930,31744
3931,32320
3932,32832
3933,33216
3934,33472
3935,33600
3936,33856
3937,33984
3938,34048
3939,34048
3940,34112
3941,34176
3942,34112
3943,34048
3944,34112
3945,34112
3946,34112
3947,34112
3948,34176
3949,34240
3950,34304
3951,34240
3952,34304
3953,34368
3954,34432
3955,34432
3956,34496
3957,34560
3958,34688
3959,34624
3960,34624
3961,34752
3962,34816
3963,34880
3964,34944
3965,35072
3966,35136
3967,35200
3968,35264
3969,35392
3970,35520
3971,35648
3972,35648
3973,35712
3974,35776
3975,35776
3976,35712
3977,35712
3978,35712
3979,35712
3980,35584
3981,35520
3982,35456
3983,35392
3984,35264
3985,35008
3986,34816
3987,34560
3988,34240
3989,33984
3990,33792
3991,33664
3992,33472
3993,33280
3994,33280
3995,33280
3996,33216
3997,33152
3998,33216
3999,33280
4000,33344
4001,33344
4002,33408
4003,33536
4004,33600
4005,33600
4006,33664
4007,33728
4008,33792
4009,33792
4010,33792
4011,33920
4012,33984
4013,33920
4014,33856
4015,33856
4016,33920
4017,33984
4018,33984
4019,34048
4020,34112
4021,34112
4022,34048
4023,34048
4024,34112
4025,34112
4026,34048
4027,34048
4028,34112
4029,34112
4030,34048
4031,34048
4032,34112
4033,34112
4034,34048
4035,33984
4036,33984
4037,34048
4038,33984
4039,33984
4040,33984
4041,34048
4042,34048
4043,33984
4044,33984
4045,34048
4046,34048
4047,34048
4048,34048
4049,34112
4050,34112
4051,33984
4052,33984
4053,34048
4054,34176
4055,34304
4056,34432
4057,34560
4058,34752
4059,34816
4060,34880
4061,35072
4062,35264
4063,35328
4064,35200
4065,34944
4066,34624
4067,34176
4068,33856
4069,33600
4070,33472
4071,33280
4072,33152
4073,33152
4074,33216
4075,33280
4076,33216
4077,33280
4078,33408
4079,33472
4080,33472
4081,33472
4082,33536
4083,33600
4084,33536
4085,33536
4086,33600
4087,33600
4088,33600
4089,33408
4090,33152
4091,33152
4092,33536
4093,34560
4094,36480
4095,38720
4096,41664
4097,44480
4098,45952
4099,44992
4100,42112
4101,38592
4102,35200
4103,32384
4104,30528
4105,29440
4106,29184
4107,29568
4108,30144
4109,30784
4110,31360
4111,32000
4112,32512
4113,32832
4114,33024
4115,33280
4116,33472
4117,33536
4118,33536
4119,33536
4120,33600
4121,33600
4122,33536
4123,33600
4124,33664
4125,33728
4126,33664
4127,33664
4128,33728
4129,33728
4130,33728
4131,33728
4132,33792
4133,33856
4134,33856
4135,33920
4136,34048
4137,34112
4138,34112
4139,34112
4140,34240
4141,34368
4142,34432
4143,34496
4144,34560
4145,34752
4146,34816
4147,34880
4148,34944
4149,35072
4150,35200
4151,35200
4152,35264
4153,35392
4154,35392
4155,35392
4156,35392
4157,35456
4158,35520
4159,35456
4160,35328
4161,35328
4162,35200
4163,35008
4164,34752
4165,34560
4166,34304
4167,33984
4168,33600
4169,33408
4170,33216
4171,33024
4172,32896
4173,32768
4174,32832
4175,32768
4176,32768
4177,32768
4178,32896
4179,32960
4180,32960
4181,33088
4182,33216
4183,33280
4184,33344
4185,33344
4186,33344
4187,33408
4188,33408
4189,33344
4190,33344
4191,33472
4192,33472
4193,33408
4194,33472
4195,33536
4196,33536
4197,33472
4198,33536
4199,33664
4200,33664
4201,33664
4202,33664
4203,33728
4204,33792
4205,33728
4206,33728
4207,33728
4208,33792
4209,33792
4210,33792
4211,33792
4212,33792
4213,33728
4214,33664
4215,33728
4216,33728
4217,33728
4218,33728
4219,33728
4220,33728
4221,33728
4222,33728
4223,33728
4224,33792
4225,33792
4226,33792
4227,33728
4228,33856
4229,33856
4230,33792
4231,33728
4232,33792
4233,33856
4234,33792
4235,33792
4236,33856
4237,33920
4238,33984
4239,34112
4240,34368
4241,34624
4242,34752
4243,34816
4244,34944
4245,35200
4246,35392
4247,35392
4248,35264
4249,35072
4250,34752
4251,34304
4252,33984
4253,33728
4254,33536
4255,33408
4256,33344
4257,33344
4258,33344
4259,33344
4260,33344
4261,33408
4262,33536
4263,33536
4264,33536
4265,33600
4266,33728
4267,33728
4268,33664
4269,33664
4270,33728
4271,33728
4272,33728
4273,33600
4274,33344
4275,33216
4276,33536
4277,34624
4278,36352
4279,38720
4280,41600
4281,44672
4282,46592
4283,46144
4284,43584
4285,40128
4286,36480
4287,33280
4288,30912
4289,29632
4290,29376
4291,29696
4292,30208
4293,30784
4294,31360
4295,32000
4296,32384
4297,32704
4298,32960
4299,33216
4300,33408
4301,33536
4302,33600
4303,33728
4304,33728
4305,33664
4306,33664
4307,33728
4308,33728
4309,33728
4310,33728
4311,33792
4312,33856
4313,33856
4314,33792
4315,33856
4316,33984
4317,34048
4318,34048
4319,34112
4320,34176
4321,34240
4322,34240
4323,34304
4324,34368
4325,34496
4326,34496
4327,34560
4328,34688
4329,34752
4330,34816
4331,34944
4332,35072
4333,35200
4334,35264
4335,35328
4336,35456
4337,35584
4338,35584
4339,35584
4340,35584
4341,35648
4342,35584
4343,35456
4344,35456
4345,35520
4346,35392
4347,35200
4348,35072
4349,34880
4350,34624
4351,34240
4352,33920
4353,33664
4354,33472
4355,33216
4356,33088
4357,33024
4358,32960
4359,32896
4360,32896
4361,32896
4362,33024
4363,33024
4364,33024
4365,33152
4366,33280
4367,33344
4368,33344
4369,33408
4370,33472
4371,33536
4372,33472
4373,33536
4374,33600
4375,33664
4376,33600
4377,33600
4378,33728
4379,33728
4380,33728
4381,33664
4382,33728
4383,33792
4384,33728
4385,33728
4386,33728
4387,33792
4388,33792
4389,33728
4390,33856
4391,33920
4392,33920
4393,33856
4394,33856
4395,33920
4396,33856
4397,33792
4398,33792
4399,33792
4400,33792
4401,33792
4402,33792
4403,33856
4404,33856
4405,33856
4406,33728
4407,33792
4408,33792
4409,33792
4410,33728
4411,33792
4412,33856
4413,33856
4414,33792
4415,33856
4416,33920
4417,33920
4418,33856
4419,33856
4420,33984
4421,33984
4422,34112
4423,34304
4424,34560
4425,34688
4426,34816
4427,34944
4428,35072
4429,35200
4430,35328
4431,35392
4432,35328
4433,35136
4434,34752
4435,34304
4436,34048
4437,33856
4438,33664
4439,33472
4440,33408
4441,33472
4442,33472
4443,33472
4444,33536
4445,33664
4446,33728
4447,33664
4448,33728
4449,33792
4450,33792
4451,33792
4452,33792
4453,33920
4454,33984
4455,33984
4456,33984
4457,33856
4458,33600
4459,33472
4460,33856
4461,35008
4462,36800
4463,39104
4464,42048
4465,44800
4466,46400
4467,45504
4468,42688
4469,39040
4470,35904
4471,33024
4472,31040
4473,29952
4474,29760
4475,30080
4476,30592
4477,31168
4478,31808
4479,32384
4480,32768
4481,33024
4482,33280
4483,33600
4484,33728
4485,33792
4486,33920
4487,33984
4488,33984
4489,33920
4490,33920
4491,33984
4492,33984
4493,33920
4494,33920
4495,33984
4496,33984
4497,33984
4498,33984
4499,34048
4500,34112
4501,34112
4502,34112
4503,34240
4504,34304
4505,34368
4506,34432
4507,34496
4508,34560
4509,34560
4510,34560
4511,34688
4512,34880
4513,34880
4514,34880
4515,34944
4516,35072
4517,35136
4518,35200
4519,35328
4520,35520
4521,35584
4522,35584
4523,35520
4524,35584
4525,35520
4526,35456
4527,35392
4528,35392
4529,35392
4530,35200
4531,35008
4532,34880
4533,34752
4534,34496
4535,34176
4536,33984
4537,33856
4538,33536
4539,33216
4540,33088
4541,32960
4542,32960
4543,32896
4544,32960
4545,33088
4546,33152
4547,33216
4548,33216
4549,33344
4550,33408
4551,33408
4552,33408
4553,33536
4554,33536
4555,33600
4556,33600
4557,33728
4558,33792
4559,33792
4560,33792
4561,33856
4562,33856
4563,33856
4564,33792
4565,33792
4566,33856
4567,33920
4568,33920
4569,33920
4570,33920
4571,33920
4572,33856
4573,33856
4574,33920
4575,33856
4576,33792
4577,33728
4578,33792
4579,33856
4580,33856
4581,33792
4582,33792
4583,33856
4584,33792
4585,33728
4586,33728
4587,33792
4588,33728
4589,33728
4590,33728
4591,33792
4592,33792
4593,33792
4594,33792
4595,33856
4596,33920
4597,33920
4598,33920
4599,33984
4600,33984
4601,33984
4602,34048
4603,34240
4604,34432
4605,34496
4606,34688
4607,34880
4608,35008
4609,35136
4610,35264
4611,35392
4612,35456
4613,35264
4614,34880
4615,34560
4616,34240
4617,33920
4618,33664
4619,33536
4620,33472
4621,33472
4622,33408
4623,33408
4624,33536
4625,33600
4626,33600
4627,33664
4628,33728
4629,33792
4630,33792
4631,33792
4632,33856
4633,33856
4634,33792
4635,33792
4636,33792
4637,33728
4638,33536
4639,33216
4640,33280
4641,33984
4642,35328
4643,37312
4644,40064
4645,42944
4646,45440
4647,45888
4648,43904
4649,40704
4650,37248
4651,34048
4652,31552
4653,30080
4654,29440
4655,29312
4656,29760
4657,30400
4658,31040
4659,31616
4660,32064
4661,32448
4662,32832
4663,33088
4664,33280
4665,33408
4666,33536
4667,33600
4668,33600
4669,33600
4670,33664
4671,33664
4672,33600
4673,33600
4674,33664
4675,33664
4676,33664
4677,33664
4678,33728
4679,33856
4680,33792
4681,33856
4682,33984
4683,34048
4684,34048
4685,34048
4686,34112
4687,34240
4688,34304
4689,34368
4690,34432
4691,34560
4692,34624
4693,34624
4694,34752
4695,34880
4696,35008
4697,35008
4698,35072
4699,35200
4700,35328
4701,35328
4702,35392
4703,35456
4704,35456
4705,35456
4706,35456
4707,35456
4708,35456
4709,35328
4710,35200
4711,35072
4712,34944
4713,34752
4714,34432
4715,34176
4716,33920
4717,33664
4718,33344
4719,33152
4720,33024
4721,32960
4722,32832
4723,32768
4724,32832
4725,32896
4726,32896
4727,32896
4728,33024
4729,33088
4730,33088
4731,33088
4732,33152
4733,33280
4734,33280
4735,33216
4736,33344
4737,33408
4738,33472
4739,33408
4740,33472
4741,33536
4742,33536
4743,33472
4744,33472
4745,33600
4746,33600
4747,33536
4748,33600
4749,33664
4750,33728
4751,33664
4752,33600
4753,33664
4754,33664
4755,33664
4756,33600
4757,33600
4758,33664
4759,33600
4760,33536
4761,33600
4762,33664
4763,33664
4764,33600
4765,33600
4766,33600
4767,33600
4768,33536
4769,33536
4770,33600
4771,33600
4772,33536
4773,33536
4774,33600
4775,33600
4776,33600
4777,33600
4778,33664
4779,33728
4780,33728
4781,33728
4782,33728
4783,33792
4784,33792
4785,33728
4786,33792
4787,33856
4788,33792
4789,33856
4790,33984
4791,34240
4792,34432
4793,34496
4794,34688
4795,34880
4796,35008
4797,35072
4798,35200
4799,35264
4800,35136
4801,34816
4802,34432
4803,34176
4804,33920
4805,33664
4806,33408
4807,33344
4808,33344
4809,33280
4810,33216
4811,33280
4812,33408
4813,33472
4814,33472
4815,33536
4816,33664
4817,33728
4818,33664
4819,33728
4820,33792
4821,33792
4822,33792
4823,33792
4824,33856
4825,33728
4826,33408
4827,33344
4828,33920
4829,35456
4830,36992
4831,39424
4832,42496
4833,45440
4834,46848
4835,45760
4836,42816
4837,39232
4838,35584
4839,32512
4840,30592
4841,29696
4842,29568
4843,29824
4844,30336
4845,30976
4846,31552
4847,32000
4848,32448
4849,32832
4850,33152
4851,33280
4852,33408
4853,33600
4854,33664
4855,33664
4856,33600
4857,33728
4858,33792
4859,33728
4860,33664
4861,33728
4862,33792
4863,33792
4864,33728
4865,33792
4866,33856
4867,33920
4868,33920
4869,33984
4870,34112
4871,34176
4872,34176
4873,34176
4874,34304
4875,34368
4876,34432
4877,34496
4878,34624
4879,34752
4880,34752
4881,34752
4882,34880
4883,35072
4884,35200
4885,35264
4886,35328
4887,35520
4888,35520
4889,35520
4890,35584
4891,35648
4892,35648
4893,35584
4894,35520
4895,35520
4896,35520
4897,35392
4898,35264
4899,35200
4900,35008
4901,34688
4902,34304
4903,34048
4904,33728
4905,33472
4906,33152
4907,33024
4908,32896
4909,32832
4910,32768
4911,32768
4912,32896
4913,32960
4914,32960
4915,33024
4916,33152
4917,33216
4918,33216
4919,33280
4920,33408
4921,33472
4922,33472
4923,33472
4924,33536
4925,33600
4926,33600
4927,33536
4928,33600
4929,33664
4930,33664
4931,33600
4932,33600
4933,33728
4934,33664
4935,33664
4936,33600
4937,33664
4938,33664
4939,33600
4940,33600
4941,33664
4942,33664
4943,33600
4944,33600
4945,33664
4946,33664
4947,33664
4948,33664
4949,33728
4950,33792
4951,33728
4952,33664
4953,33728
4954,33792
4955,33728
4956,33728
4957,33728
4958,33792
4959,33792
4960,33792
4961,33792
4962,33856
4963,33856
4964,33792
4965,33792
4966,33856
4967,33856
4968,33792
4969,33728
4970,33856
4971,33856
4972,33856
4973,33792
4974,33856
4975,33920
4976,33856
4977,33856
4978,33920
4979,34176
4980,34304
4981,34432
4982,34560
4983,34816
4984,34944
4985,35008
4986,35200
4987,35392
4988,35456
4989,35264
4990,35008
4991,34752
4992,34432
4993,33984
4994,33664
4995,33600
4996,33472
4997,33344
4998,33280
4999,33344
5000,33408
5001,33408
5002,33472
5003,33536
5004,33664
5005,33664
5006,33664
5007,33728
5008,33792
5009,33792
5010,33728
5011,33728
5012,33856
5013,33856
5014,33728
5015,33472
5016,33344
5017,33472
5018,34240
5019,35776
5020,37952
5021,40704
5022,43712
5023,46016
5024,46016
5025,44224
5026,41024
5027,37312
5028,34048
5029,31552
5030,30080
5031,29504
5032,29632
5033,30144
5034,30720
5035,31296
5036,31872
5037,32384
5038,32768
5039,33024
5040,33216
5041,33472
5042,33664
5043,33728
5044,33792
5045,33856
5046,33920
5047,33856
5048,33792
5049,33856
5050,33920
5051,33920
5052,33856
5053,33920
5054,33984
5055,33920
5056,33920
5057,33984
5058,34112
5059,34176
5060,34176
5061,34240
5062,34368
5063,34432
5064,34496
5065,34560
5066,34624
5067,34688
5068,34688
5069,34816
5070,34880
5071,34944
5072,35008
5073,35008
5074,35200
5075,35328
5076,35392
5077,35456
5078,35520
5079,35584
5080,35584
5081,35520
5082,35520
5083,35520
5084,35520
5085,35456
5086,35392
5087,35392
5088,35264
5089,35008
5090,34752
5091,34560
5092,34304
5093,33984
5094,33728
5095,33536
5096,33408
5097,33216
5098,33088
5099,33088
5100,33024
5101,33024
5102,33024
5103,33088
5104,33152
5105,33216
5106,33280
5107,33344
5108,33472
5109,33472
5110,33472
5111,33536
5112,33664
5113,33728
5114,33664
5115,33664
5116,33728
5117,33728
5118,33728
5119,33728
5120,33792
5121,33920
5122,33856
5123,33856
5124,33920
5125,33920
5126,33920
5127,33856
5128,33856
5129,33920
5130,33920
5131,33856
5132,33856
5133,33920
5134,33920
5135,33856
5136,33920
5137,33984
5138,34048
5139,33984
5140,33920
5141,33984
5142,33984
5143,33920
5144,33920
5145,33920
5146,33984
5147,33920
5148,33856
5149,33920
5150,33984
5151,33920
5152,33920
5153,33984
5154,33984
5155,33984
5156,33920
5157,33856
5158,33920
5159,33920
5160,33856
5161,33856
5162,33920
5163,33920
5164,33920
5165,33920
5166,33984
5167,33984
5168,33984
5169,33984
5170,34176
5171,34368
5172,34432
5173,34496
5174,34688
5175,34816
5176,34944
5177,35008
5178,35200
5179,35328
5180,35264
5181,35008
5182,34688
5183,34432
5184,34048
5185,33728
5186,33600
5187,33536
5188,33472
5189,33408
5190,33408
5191,33472
5192,33536
5193,33536
5194,33536
5195,33600
5196,33664
5197,33728
5198,33728
5199,33792
5200,33856
5201,33856
5202,33856
5203,33920
5204,33920
5205,33792
5206,33600
5207,33408
5208,33728
5209,34496
5210,35904
5211,37952
5212,40704
5213,43648
5214,45952
5215,45824
5216,43584
5217,40320
5218,36864
5219,33792
5220,31552
5221,30208
5222,29568
5223,29632
5224,30080
5225,30720
5226,31360
5227,31936
5228,32448
5229,32896
5230,33152
5231,33344
5232,33536
5233,33728
5234,33728
5235,33728
5236,33792
5237,33856
5238,33856
5239,33792
5240,33728
5241,33792
5242,33792
5243,33728
5244,33728
5245,33792
5246,33856
5247,33856
5248,33856
5249,33984
5250,34048
5251,34048
5252,34048
5253,34112
5254,34240
5255,34304
5256,34304
5257,34368
5258,34496
5259,34560
5260,34624
5261,34688
5262,34880
5263,34944
5264,35008
5265,35072
5266,35200
5267,35264
5268,35328
5269,35328
5270,35456
5271,35520
5272,35456
5273,35456
5274,35520
5275,35520
5276,35456
5277,35392
5278,35264
5279,35072
5280,34944
5281,34688
5282,34368
5283,34112
5284,33792
5285,33472
5286,33216
5287,33088
5288,32960
5289,32832
5290,32704
5291,32768
5292,32768
5293,32768
5294,32832
5295,32896
5296,33024
5297,33024
5298,33024
5299,33088
5300,33152
5301,33152
5302,33152
5303,33216
5304,33344
5305,33344
5306,33280
5307,33344
5308,33408
5309,33472
5310,33472
5311,33472
5312,33600
5313,33600
5314,33600
5315,33600
5316,33664
5317,33728
5318,33728
5319,33664
5320,33728
5321,33728
5322,33728
5323,33664
5324,33664
5325,33728
5326,33728
5327,33664
5328,33600
5329,33664
5330,33600
5331,33536
5332,33536
5333,33664
5334,33600
5335,33600
5336,33600
5337,33600
5338,33600
5339,33536
5340,33472
5341,33536
5342,33536
5343,33536
5344,33472
5345,33536
5346,33600
5347,33600
5348,33600
5349,33664
5350,33728
5351,33728
5352,33664
5353,33728
5354,33728
5355,33728
5356,33664
5357,33664
5358,33728
5359,33728
5360,33664
5361,33664
5362,33728
5363,33792
5364,33728
5365,33728
5366,33856
5367,33856
5368,33792
5369,33728
5370,33728
5371,33856
5372,33920
5373,34048
5374,34240
5375,34432
5376,34560
5377,34688
5378,34816
5379,34944
5380,35072
5381,35136
5382,35136
5383,35008
5384,34624
5385,34368
5386,34048
5387,33792
5388,33664
5389,33472
5390,33344
5391,33344
5392,33280
5393,33280
5394,33280
5395,33344
5396,33408
5397,33408
5398,33408
5399,33472
5400,33536
5401,33536
5402,33536
5403,33536
5404,33664
5405,33664
5406,33664
5407,33664
5408,33536
5409,33280
5410,33216
5411,33728
5412,35072
5413,36992
5414,40960
5415,42688
5416,45504
5417,46848
5418,45760
5419,42816
5420,39232
5421,35648
5422,32512
5423,30464
5424,29504
5425,29376
5426,29696
5427,30144
5428,30784
5429,31488
5430,31936
5431,32384
5432,32768
5433,33088
5434,33344
5435,33472
5436,33600
5437,33664
5438,33728
5439,33664
5440,33600
5441,33664
5442,33664
5443,33600
5444,33600
5445,33600
5446,33728
5447,33728
5448,33664
5449,33792
5450,33856
5451,33856
5452,33856
5453,33920
5454,34048
5455,34048
5456,34112
5457,34176
5458,34304
5459,34368
5460,34368
5461,34432
5462,34560
5463,34688
5464,34816
5465,34880
5466,35008
5467,35136
5468,35200
5469,35264
5470,35392
5471,35456
5472,35520
5473,35520
5474,35584
5475,35648
5476,35584
5477,35520
5478,35520
5479,35520
5480,35456
5481,35328
5482,35200
5483,35072
5484,34816
5485,34496
5486,34176
5487,33920
5488,33664
5489,33216
5490,33152
5491,33088
5492,33024
5493,32896
5494,32832
5495,32960
5496,33024
5497,33024
5498,33024
5499,33152
5500,33216
5501,33280
5502,33216
5503,33344
5504,33472
5505,33472
5506,33472
5507,33472
5508,33536
5509,33600
5510,33536
5511,33536
5512,33600
5513,33664
5514,33600
5515,33664
5516,33728
5517,33792
5518,33792
5519,33728
5520,33792
5521,33856
5522,33792
5523,33728
5524,33792
5525,33856
5526,33856
5527,33792
5528,33856
5529,33856
5530,33856
5531,33792
5532,33792
5533,33856
5534,33856
5535,33792
5536,33792
5537,33856
5538,33856
5539,33856
5540,33856
5541,33856
5542,33856
5543,33792
5544,33856
5545,33920
5546,33856
5547,33792
5548,33856
5549,33856
5550,33856
5551,33792
5552,33792
5553,33856
5554,33920
5555,33856
5556,33920
5557,33984
5558,33984
5559,33984
5560,33920
5561,34048
5562,34048
5563,34048
5564,33984
5565,34048
5566,34048
5567,33984
5568,33984
5569,34048
5570,34112
5571,34112
5572,34112
5573,34112
5574,34176
5575,34240
5576,34368
5577,34560
5578,34752
5579,34880
5580,34880
5581,35008
5582,35200
5583,35392
5584,35520
5585,35456
5586,35392
5587,35072
5588,34752
5589,34368
5590,34112
5591,33920
5592,33728
5593,33600
5594,33600
5595,33600
5596,33664
5597,33600
5598,33664
5599,33728
5600,33728
5601,33728
5602,33856
5603,33920
5604,33984
5605,33920
5606,33920
5607,33920
5608,33984
5609,33920
5610,33920
5611,33856
5612,33664
5613,33600
5614,34112
5615,35328
5616,37184
5617,39552
5618,42368
5619,45056
5620,46272
5621,44992
5622,41984
5623,38656
5624,35456
5625,32768
5626,30912
5627,29952
5628,29696
5629,30016
5630,30528
5631,31168
5632,31872
5633,32448
5634,32832
5635,33216
5636,33536
5637,33728
5638,33792
5639,33856
5640,33984
5641,34048
5642,33984
5643,33920
5644,33920
5645,33984
5646,33984
5647,33920
5648,33920
5649,33984
5650,33984
5651,33920
5652,33984
5653,34112
5654,34176
5655,34112
5656,34240
5657,34304
5658,34368
5659,34368
5660,34368
5661,34496
5662,34560
5663,34560
5664,34624
5665,34752
5666,34880
5667,34944
5668,34944
5669,35072
5670,35200
5671,35264
5672,35264
5673,35392
5674,35520
5675,35520
5676,35520
5677,35584
5678,35648
5679,35648
5680,35520
5681,35520
5682,35520
5683,35456
5684,35328
5685,35136
5686,35008
5687,34816
5688,34496
5689,34176
5690,33920
5691,33664
5692,33344
5693,33088
5694,32960
5695,32896
5696,32832
5697,32768
5698,32832
5699,32896
5700,32960
5701,32960
5702,33024
5703,33152
5704,33152
5705,33216
5706,33280
5707,33344
5708,33344
5709,33280
5710,33280
5711,33344
5712,33408
5713,33408
5714,33408
5715,33536
5716,33600
5717,33600
5718,33536
5719,33600
5720,33600
5721,33600
5722,33536
5723,33536
5724,33600
5725,33600
5726,33536
5727,33536
5728,33600
5729,33600
5730,33536
5731,33536
5732,33600
5733,33600
5734,33536
5735,33472
5736,33536
5737,33536
5738,33472
5739,33472
5740,33536
5741,33536
5742,33472
5743,33408
5744,33472
5745,33536
5746,33536
5747,33472
5748,33472
5749,33536
5750,33472
5751,33472
5752,33472
5753,33600
5754,33600
5755,33600
5756,33600
5757,33664
5758,33664
5759,33664
5760,33600
5761,33664
5762,33664
5763,33664
5764,33664
5765,33664
5766,33728
5767,33728
5768,33664
5769,33728
5770,33856
5771,33856
5772,33792
5773,33856
5774,33856
5775,33856
5776,33792
5777,33856
5778,33920
5779,34112
5780,34304
5781,34496
5782,34688
5783,34880
5784,34944
5785,35008
5786,35200
5787,35392
5788,35328
5789,35200
5790,34944
5791,34624
5792,34240
5793,33920
5794,33728
5795,33600
5796,33472
5797,33344
5798,33344
5799,33408
5800,33472
5801,33472
5802,33472
5803,33536
5804,33600
5805,33536
5806,33600
5807,33664
5808,33792
5809,33728
5810,33728
5811,33856
5812,33856
5813,33856
5814,33664
5815,33408
5816,33344
5817,33728
5818,34752
5819,36544
5820,38848
5821,41728
5822,44800
5823,46720
5824,46336
5825,43712
5826,40192
5827,36480
5828,33280
5829,31040
5830,29760
5831,29440
5832,29760
5833,30272
5834,30848
5835,31424
5836,32000
5837,32448
5838,32768
5839,33024
5840,33280
5841,33472
5842,33600
5843,33600
5844,33728
5845,33792
5846,33792
5847,33728
5848,33792
5849,33792
5850,33728
5851,33728
5852,33728
5853,33792
5854,33792
5855,33792
5856,33792
5857,33920
5858,33984
5859,33984
5860,33984
5861,34112
5862,34176
5863,34176
5864,34240
5865,34368
5866,34432
5867,34496
5868,34496
5869,34624
5870,34752
5871,34880
5872,34944
5873,35072
5874,35200
5875,35264
5876,35328
5877,35392
5878,35520
5879,35584
5880,35584
5881,35584
5882,35584
5883,35584
5884,35520
5885,35520
5886,35456
5887,35392
5888,35264
5889,35008
5890,34816
5891,34496
5892,34176
5893,33792
5894,33536
5895,33280
5896,33088
5897,32832
5898,32768
5899,32768
5900,32704
5901,32704
5902,32768
5903,32896
5904,32960
5905,33024
5906,33088
5907,33216
5908,33280
5909,33216
5910,33216
5911,33280
5912,33344
5913,33344
5914,33280
5915,33408
5916,33472
5917,33408
5918,33408
5919,33472
5920,33536
5921,33536
5922,33536
5923,33536
5924,33664
5925,33600
5926,33600
5927,33600
5928,33664
5929,33664
5930,33600
5931,33600
5932,33664
5933,33664
5934,33600
5935,33600
5936,33600
5937,33664
5938,33600
5939,33600
5940,33664
5941,33664
5942,33600
5943,33536
5944,33536
5945,33600
5946,33600
5947,33536
5948,33600
5949,33664
5950,33728
5951,33664
5952,33664
5953,33728
5954,33728
5955,33664
5956,33664
5957,33728
5958,33728
5959,33728
5960,33728
5961,33728
5962,33792
5963,33728
5964,33664
5965,33728
5966,33792
5967,33792
5968,33728
5969,33792
5970,33856
5971,33856
5972,33856
5973,33920
5974,33984
5975,33984
5976,33920
5977,33920
5978,33984
5979,34176
5980,34304
5981,34496
5982,34688
5983,34880
5984,34944
5985,35008
5986,35264
5987,35456
5988,35456
5989,35264
5990,35008
5991,34688
5992,34240
5993,33920
5994,33664
5995,33536
5996,33472
5997,33344
5998,33280
5999,33344
6000,33344
6001,33408
6002,33472
6003,33536
6004,33600
6005,33600
6006,33664
6007,33792
6008,33856
6009,33856
6010,33856
6011,33920
6012,33920
6013,33856
6014,33728
6015,33472
6016,33472
6017,33856
6018,34880
6019,36672
6020,39040
6021,42048
6022,44992
6023,46784
6024,46144
6025,43456
6026,39872
6027,36160
6028,33088
6029,30784
6030,29632
6031,29376
6032,29696
6033,30336
6034,30912
6035,31488
6036,32064
6037,32576
6038,32896
6039,33088
6040,33344
6041,33600
6042,33728
6043,33792
6044,33856
6045,33920
6046,33920
6047,33856
6048,33856
6049,33920
6050,33920
6051,33856
6052,33856
6053,33920
6054,33920
6055,33856
6056,33856
6057,33984
6058,34048
6059,34048
6060,34048
6061,34112
6062,34176
6063,34240
6064,34240
6065,34368
6066,34496
6067,34560
6068,34560
6069,34688
6070,34816
6071,34944
6072,34944
6073,35072
6074,35200
6075,35264
6076,35264
6077,35392
6078,35456
6079,35520
6080,35520
6081,35520
6082,35584
6083,35648
6084,35584
6085,35520
6086,35520
6087,35456
6088,35264
6089,34944
6090,34752
6091,34496
6092,34176
6093,33856
6094,33536
6095,33344
6096,33152
6097,32896
6098,32832
6099,32832
6100,32768
6101,32768
6102,32768
6103,32896
6104,32960
6105,33024
6106,33024
6107,33088
6108,33152
6109,33152
6110,33152
6111,33280
6112,33344
6113,33344
6114,33344
6115,33408
6116,33536
6117,33536
6118,33536
6119,33600
6120,33664
6121,33600
6122,33600
6123,33600
6124,33664
6125,33728
6126,33728
6127,33728
6128,33728
6129,33664
6130,33536
6131,33536
6132,33600
6133,33664
6134,33600
6135,33600
6136,33600
6137,33600
6138,33536
6139,33472
6140,33536
6141,33600
6142,33600
6143,33536
6144,33600
6145,33728
6146,33664
6147,33600
6148,33600
6149,33664
6150,33728
6151,33664
6152,33664
6153,33728
6154,33792
6155,33728
6156,33664
6157,33728
6158,33728
6159,33728
6160,33664
6161,33728
6162,33792
6163,33728
6164,33728
6165,33728
6166,33792
6167,33792
6168,33792
6169,33792
6170,33856
6171,33984
6172,34112
6173,34368
6174,34624
6175,34752
6176,34880
6177,34944
6178,35136
6179,35264
6180,35264
6181,35136
6182,34944
6183,34624
6184,34240
6185,33920
6186,33728
6187,33600
6188,33472
6189,33344
6190,33344
6191,33408
6192,33408
6193,33408
6194,33472
6195,33600
6196,33664
6197,33664
6198,33728
6199,33792
6200,33856
6201,33792
6202,33792
6203,33856
6204,33920
6205,33856
6206,33728
6207,33472
6208,33408
6209,33728
6210,34688
6211,36480
6212,38784
6213,41664
6214,44544
6215,46336
6216,45760
6217,43072
6218,39552
6219,35840
6220,32960
6221,30784
6222,29568
6223,29312
6224,29632
6225,30208
6226,30784
6227,31424
6228,32000
6229,32448
6230,32768
6231,33088
6232,33408
6233,33600
6234,33664
6235,33664
6236,33792
6237,33856
6238,33856
6239,33856
6240,33920
6241,33984
6242,33984
6243,33920
6244,33920
6245,33984
6246,33984
6247,34048
6248,34112
6249,34240
6250,34240
6251,34176
6252,34176
6253,34304
6254,34368
6255,34304
6256,34368
6257,34432
6258,34560
6259,34560
6260,34624
6261,34752
6262,34880
6263,34944
6264,35008
6265,35136
6266,35264
6267,35328
6268,35392
6269,35456
6270,35648
6271,35648
6272,35648
6273,35648
6274,35712
6275,35648
6276,35584
6277,35456
6278,35456
6279,35392
6280,35200
6281,34944
6282,34752
6283,34496
6284,34112
6285,33792
6286,33536
6287,33408
6288,33216
6289,33024
6290,33024
6291,33024
6292,33024
6293,32960
6294,33024
6295,33088
6296,33088
6297,33088
6298,33088
6299,33216
6300,33344
6301,33408
6302,33408
6303,33472
6304,33536
6305,33536
6306,33536
6307,33600
6308,33600
6309,33600
6310,33664
6311,33792
6312,33856
6313,33856
6314,33792
6315,33792
6316,33856
6317,33792
6318,33792
6319,33792
6320,33856
6321,33856
6322,33792
6323,33792
6324,33856
6325,33856
6326,33728
6327,33664
6328,33664
6329,33664
6330,33600
6331,33600
6332,33600
6333,33664
6334,33600
6335,33600
6336,33600
6337,33664
6338,33600
6339,33600
6340,33664
6341,33728
6342,33728
6343,33664
6344,33664
6345,33728
6346,33728
6347,33664
6348,33664
6349,33792
6350,33792
6351,33792
6352,33792
6353,33856
6354,33920
6355,33984
6356,34240
6357,34496
6358,34624
6359,34816
6360,34944
6361,35072
6362,35328
6363,35456
6364,35392
6365,35264
6366,34944
6367,34560
6368,34112
6369,33856
6370,33664
6371,33536
6372,33280
6373,33152
6374,33216
6375,33216
6376,33216
6377,33280
6378,33408
6379,33472
6380,33408
6381,33472
6382,33600
6383,33664
6384,33664
6385,33728
6386,33792
6387,33792
6388,33856
6389,33792
6390,33664
6391,33408
6392,33408
6393,33920
6394,35136
6395,37120
6396,39680
6397,42752
6398,45632
6399,46784
6400,45376
6401,42304
6402,38592
6403,35008
6404,32000
6405,30336
6406,29568
6407,29568
6408,30016
6409,30592
6410,31168
6411,31744
6412,32256
6413,32576
6414,32832
6415,33088
6416,33408
6417,33536
6418,33600
6419,33664
6420,33728
6421,33728
6422,33664
6423,33664
6424,33728
6425,33792
6426,33728
6427,33728
6428,33792
6429,33856
6430,33856
6431,33856
6432,33920
6433,34048
6434,34048
6435,34112
6436,34240
6437,34304
6438,34304
6439,34304
6440,34368
6441,34560
6442,34624
6443,34688
6444,34816
6445,34944
6446,35008
6447,35072
6448,35200
6449,35328
6450,35392
6451,35392
6452,35392
6453,35520
6454,35584
6455,35584
6456,35584
6457,35584
6458,35648
6459,35584
6460,35520
6461,35456
6462,35456
6463,35264
6464,35008
6465,34752
6466,34560
6467,34304
6468,33984
6469,33728
6470,33472
6471,33280
6472,33024
6473,32896
6474,32832
6475,32768
6476,32768
6477,32832
6478,32896
6479,33024
6480,33088
6481,33152
6482,33280
6483,33344
6484,33344
6485,33280
6486,33344
6487,33472
6488,33472
6489,33472
6490,33536
6491,33600
6492,33600
6493,33536
6494,33600
6495,33728
6496,33792
6497,33728
6498,33664
6499,33728
6500,33664
6501,33664
6502,33728
6503,33792
6504,33728
6505,33728
6506,33664
6507,33728
6508,33728
6509,33728
6510,33664
6511,33728
6512,33728
6513,33728
6514,33664
6515,33664
6516,33664
6517,33664
6518,33664
6519,33664
6520,33728
6521,33728
6522,33600
6523,33600
6524,33664
6525,33728
6526,33664
6527,33664
6528,33728
6529,33728
6530,33728
6531,33728
6532,33792
6533,33792
6534,33728
6535,33728
6536,33792
6537,33856
6538,33984
6539,34176
6540,34368
6541,34560
6542,34688
6543,34688
6544,34688
6545,34752
6546,34752
6547,34560
6548,34240
6549,33856
6550,33664
6551,33536
6552,33664
6553,33856
6554,33920
6555,33792
6556,33600
6557,33472
6558,33472
6559,33408
6560,33344
6561,33408
6562,33472
6563,33408
6564,33280
6565,33216
6566,33216
6567,33280
6568,33216
6569,33280
6570,33408
6571,33600
6572,33728
6573,33728
6574,33600
6575,33664
6576,34048
6577,35072
6578,36864
6579,39488
6580,42240
6581,45120
6582,46464
6583,45312
6584,42304
6585,38528
6586,34880
6587,32000
6588,30144
6589,29376
6590,29376
6591,29696
6592,30080
6593,30400
6594,30912
6595,31488
6596,32064
6597,32512
6598,32960
6599,33280
6600,33344
6601,33344
6602,33408
6603,33472
6604,33536
6605,33472
6606,33408
6607,33472
6608,33600
6609,33600
6610,33472
6611,33536
6612,33600
6613,33600
6614,33536
6615,33536
6616,33600
6617,33728
6618,33792
6619,33984
6620,34112
6621,34176
6622,34176
6623,34304
6624,34496
6625,34560
6626,34560
6627,34560
6628,34752
6629,34816
6630,34816
6631,34816
6632,34880
6633,35008
6634,35200
6635,35200
6636,35264
6637,35200
6638,35136
6639,35136
6640,35264
6641,35392
6642,35392
6643,35392
6644,35328
6645,35200
6646,35072
6647,34880
6648,34688
6649,34496
6650,34176
6651,33792
6652,33472
6653,33344
6654,33216
6655,33088
6656,33088
6657,33024
6658,32960
6659,32832
6660,32768
6661,32832
6662,32896
6663,32832
6664,32768
6665,32832
6666,33024
6667,33088
6668,33152
6669,33152
6670,33280
6671,33408
6672,33472
6673,33600
6674,33600
6675,33600
6676,33600
6677,33664
6678,33728
6679,33728
6680,33600
6681,33536
6682,33600
6683,33600
6684,33472
6685,33472
6686,33536
6687,33600
6688,33600
6689,33472
6690,33408
6691,33408
6692,33408
6693,33408
6694,33536
6695,33728
6696,33792
6697,33728
6698,33600
6699,33600
6700,33536
6701,33472
6702,33472
6703,33536
6704,33600
6705,33536
6706,33472
6707,33408
6708,33408
6709,33344
6710,33344
6711,33472
6712,33536
6713,33600
6714,33536
6715,33536
6716,33600
6717,33600
6718,33664
6719,33856
6720,33920
6721,33856
6722,33728
6723,33728
6724,33984
6725,34176
6726,34304
6727,34560
6728,34752
6729,34880
6730,34944
6731,35072
6732,35392
6733,35584
6734,35392
6735,34944
6736,34496
6737,34048
6738,33600
6739,33344
6740,33216
6741,33280
6742,33280
6743,33344
6744,33280
6745,33280
6746,33280
6747,33216
6748,33280
6749,33472
6750,33600
6751,33600
6752,33664
6753,33728
6754,33728
6755,33664
6756,33664
6757,33664
6758,33664
6759,33344
6760,33024
6761,33216
6762,34112
6763,35648
6764,38208
6765,40704
6766,43776
6767,45952
6768,45824
6769,43520
6770,40320
6771,36864
6772,33664
6773,31360
6774,30080
6775,29696
6776,29824
6777,30272
6778,30912
6779,31680
6780,32064
6781,32448
6782,32896
6783,33152
6784,33280
6785,33408
6786,33536
6787,33664
6788,33792
6789,33792
6790,33920
6791,33984
6792,33920
6793,33856
6794,33792
6795,33856
6796,33856
6797,33728
6798,33536
6799,33600
6800,33664
6801,33792
6802,33984
6803,34240
6804,34432
6805,34560
6806,34624
6807,34688
6808,34560
6809,34368
6810,34304
6811,34432
6812,34560
6813,34752
6814,34880
6815,35072
6816,35264
6817,35328
6818,35328
6819,35328
6820,35328
6821,35264
6822,35264
6823,35328
6824,35648
6825,35776
6826,35776
6827,35776
6828,35712
6829,35648
6830,35456
6831,35264
6832,35200
6833,35072
6834,34752
6835,34432
6836,34112
6837,33856
6838,33600
6839,33280
6840,33088
6841,32960
6842,32832
6843,32768
6844,32704
6845,32768
6846,32768
6847,32704
6848,32704
6849,32896
6850,33024
6851,33024
6852,33024
6853,33088
6854,33216
6855,33280
6856,33280
6857,33344
6858,33408
6859,33408
6860,33408
6861,33472
6862,33536
6863,33600
6864,33600
6865,33600
6866,33600
6867,33600
6868,33536
6869,33536
6870,33536
6871,33472
6872,33408
6873,33472
6874,33536
6875,33600
6876,33536
6877,33280
6878,33152
6879,33280
6880,33472
6881,33600
6882,33664
6883,33728
6884,33664
6885,33664
6886,33664
6887,33728
6888,33728
6889,33728
6890,33728
6891,33728
6892,33664
6893,33600
6894,33600
6895,33664
6896,33728
6897,33728
6898,33728
6899,33728
6900,33792
6901,33728
6902,33728
6903,33856
6904,33856
6905,33856
6906,33856
6907,33856
6908,33920
6909,33920
6910,34112
6911,34368
6912,34560
6913,34688
6914,34752
6915,34944
6916,35200
6917,35392
6918,35456
6919,35392
6920,35200
6921,34816
6922,34368
6923,33984
6924,33664
6925,33472
6926,33344
6927,33152
6928,33152
6929,33152
6930,33152
6931,33216
6932,33344
6933,33472
6934,33536
6935,33536
6936,33600
6937,33728
6938,33728
6939,33728
6940,33728
6941,33792
6942,33792
6943,33792
6944,33792
6945,33664
6946,33408
6947,33472
6948,34112
6949,35520
6950,37568
6951,40256
6952,43264
6953,45760
6954,46208
6955,44096
6956,41088
6957,37632
6958,34368
6959,31424
6960,30400
6961,29888
6962,29952
6963,30336
6964,30784
6965,31424
6966,32000
6967,32448
6968,32832
6969,33152
6970,33472
6971,33664
6972,33728
6973,33728
6974,33856
6975,33856
6976,33920
6977,33920
6978,33984
6979,34048
6980,34048
6981,33984
6982,34048
6983,34112
6984,34112
6985,34112
6986,34176
6987,34240
6988,34240
6989,34304
6990,34368
6991,34496
6992,34560
6993,34560
6994,34624
6995,34752
6996,34816
6997,34816
6998,34880
6999,34944
7000,35008
7001,35008
7002,35072
7003,35200
7004,35264
7005,35328
7006,35328
7007,35456
7008,35520
7009,35520
7010,35520
7011,35648
7012,35776
7013,35648
7014,35584
7015,35584
7016,35648
7017,35520
7018,35328
7019,35072
7020,34944
7021,34688
7022,34432
7023,34112
7024,33792
7025,33536
7026,33344
7027,33152
7028,33152
7029,33216
7030,33216
7031,33152
7032,33216
7033,33344
7034,33472
7035,33408
7036,33472
7037,33600
7038,33792
7039,33856
7040,33856
7041,33856
7042,33856
7043,33728
7044,33664
7045,33856
7046,33984
7047,33856
7048,33728
7049,33792
7050,33856
7051,33792
7052,33664
7053,33728
7054,33856
7055,33792
7056,33664
7057,33600
7058,33664
7059,33600
7060,33472
7061,33344
7062,33408
7063,33408
7064,33472
7065,33408
7066,33408
7067,33408
7068,33408
7069,33536
7070,33536
7071,33536
7072,33536
7073,33536
7074,33472
7075,33408
7076,33344
7077,33408
7078,33600
7079,33600
7080,33536
7081,33408
7082,33408
7083,33408
7084,33408
7085,33408
7086,33408
7087,33408
7088,33344
7089,33280
7090,33344
7091,33472
7092,33472
7093,33536
7094,33856
7095,34048
7096,34240
7097,34432
7098,34496
7099,34688
7100,34880
7101,35008
7102,35136
7103,35200
7104,35008
7105,34560
7106,34176
7107,33920
7108,33600
7109,33280
7110,33088
7111,33088
7112,33152
7113,33152
7114,33152
7115,33216
7116,33280
7117,33344
7118,33408
7119,33472
7120,33664
7121,33664
7122,33600
7123,33536
7124,33664
7125,33728
7126,33792
7127,33792
7128,33792
7129,33536
7130,33216
7131,33280
7132,34176
7133,35776
7134,38016
7135,41408
7136,43968
7137,46144
7138,46080
7139,42752
7140,40576
7141,37184
7142,33920
7143,31488
7144,30208
7145,29888
7146,30080
7147,30464
7148,30976
7149,31616
7150,32128
7151,32448
7152,32768
7153,33024
7154,33216
7155,33344
7156,33408
7157,33536
7158,33664
7159,33728
7160,33664
7161,33664
7162,33600
7163,33536
7164,33600
7165,33600
7166,33728
7167,33728
7168,33728
7169,33792
7170,33792
7171,33856
7172,33984
7173,33984
7174,33920
7175,33920
7176,33920
7177,34048
7178,34048
7179,34176
7180,34112
7181,34112
7182,34240
7183,34432
7184,34560
7185,34560
7186,34752
7187,34944
7188,35072
7189,35072
7190,35072
7191,35136
7192,35136
7193,35072
7194,35136
7195,35200
7196,35264
7197,35264
7198,35264
7199,35328
7200,35328
7201,35200
7202,35008
7203,34816
7204,34624
7205,34304
7206,33984
7207,33728
7208,33408
7209,33152
7210,32960
7211,32832
7212,32832
7213,32768
7214,32704
7215,32640
7216,32704
7217,32768
7218,32896
7219,33024
7220,33152
7221,33216
7222,33280
7223,33280
7224,33408
7225,33408
7226,33344
7227,33344
7228,33472
7229,33664
7230,33664
7231,33728
7232,33856
7233,33920
7234,33856
7235,33856
7236,33984
7237,34048
7238,34048
7239,33984
7240,33920
7241,33920
7242,33920
7243,33792
7244,33792
7245,33792
7246,33792
7247,33792
7248,33792
7249,33920
7250,33856
7251,33792
7252,33728
7253,33728
7254,33664
7255,33664
7256,33664
7257,33728
7258,33728
7259,33664
7260,33600
7261,33600
7262,33728
7263,33792
7264,33792
7265,33792
7266,33792
7267,33728
7268,33664
7269,33600
7270,33664
7271,33728
7272,33728
7273,33664
7274,33856
7275,33984
7276,34176
7277,34368
7278,34560
7279,34944
7280,35200
7281,35328
7282,35328
7283,35200
7284,35072
7285,34880
7286,34688
7287,34432
7288,34112
7289,33664
7290,33536
7291,33536
7292,33536
7293,33536
7294,33600
7295,33472
7296,33280
7297,33152
7298,33344
7299,33792
7300,34048
7301,34048
7302,33920
7303,34048
7304,33920
7305,33856
7306,33920
7307,34112
7308,34240
7309,34368
7310,34176
7311,33600
7312,32960
7313,32896
7314,33664
7315,35392
7316,37760
7317,40640
7318,43520
7319,45568
7320,45696
7321,43648
7322,40576
7323,37248
7324,34240
7325,31872
7326,30464
7327,29952
7328,30336
7329,30912
7330,31232
7331,31552
7332,31936
7333,32448
7334,33280
7335,33472
7336,33664
7337,33664
7338,33664
7339,33664
7340,33792
7341,34240
7342,34880
7343,35136
7344,34816
7345,34304
7346,34112
7347,33856
7348,33536
7349,33536
7350,33728
7351,34048
7352,34240
7353,34240
7354,34176
7355,34112
7356,34112
7357,34432
7358,34688
7359,34752
7360,34816
7361,34880
7362,34944
7363,35008
7364,34944
7365,35392
7366,35392
7367,35456
7368,35712
7369,35904
7370,35840
7371,35520
7372,35392
7373,35392
7374,35456
7375,35392
7376,35200
7377,35264
7378,35392
7379,35328
7380,35392
7381,35776
7382,35648
7383,35392
7384,35200
7385,35072
7386,34816
7387,34304
7388,33600
7389,33088
7390,32960
7391,33216
7392,33536
7393,33600
7394,33536
7395,33152
7396,32896
7397,32832
7398,32896
7399,32704
7400,32448
7401,32256
7402,32320
7403,32512
7404,32640
7405,32832
7406,33216
7407,33408
7408,33472
7409,33408
7410,33600
7411,33856
7412,33920
7413,33792
7414,33792
7415,33792
7416,33728
7417,33600
7418,33600
7419,33664
7420,33984
7421,34176
7422,34048
7423,33728
7424,33664
7425,33344
7426,33280
7427,33280
7428,33344
7429,33536
7430,33664
7431,33920
7432,33920
7433,33792
7434,33728
7435,33728
7436,33728
7437,33728
7438,33664
7439,33600
7440,32896
7441,32704
7442,32704
7443,32960
7444,33216
7445,33344
7446,33408
7447,33600
7448,33600
7449,33536
7450,33600
7451,33600
7452,33536
7453,33536
7454,33536
7455,33920
7456,34432
7457,34560
7458,34304
7459,33984
7460,34048
7461,34368
7462,34752
7463,35072
7464,35200
7465,34944
7466,34432
7467,33984
7468,33664
7469,33408
7470,33280
7471,33152
7472,33024
7473,33216
7474,33408
7475,33472
7476,33280
7477,33216
7478,33280
7479,33344
7480,33472
7481,33600
7482,33920
7483,34112
7484,34176
7485,34112
7486,33792
7487,33472
7488,33152
7489,32832
7490,32704
7491,32640
7492,32896
7493,33728
7494,35456
7495,37376
7496,39936
7497,43008
7498,45760
7499,46720
7500,45184
7501,41984
7502,38208
7503,34624
7504,32064
7505,30656
7506,29824
7507,29504
7508,29760
7509,30336
7510,30272
7511,31360
7512,31936
7513,32384
7514,32704
7515,33024
7516,33152
7517,33344
7518,33472
7519,33664
7520,33856
7521,34048
7522,34176
7523,34240
7524,34176
7525,33920
7526,33664
7527,33664
7528,33728
7529,33728
7530,33792
7531,33920
7532,34048
7533,34176
7534,34176
7535,34240
7536,34368
7537,34496
7538,34624
7539,34816
7540,34944
7541,35008
7542,35072
7543,35200
7544,35392
7545,35456
7546,35392
7547,35456
7548,35648
7549,35712
7550,35712
7551,35712
7552,35776
7553,35904
7554,35840
7555,35776
7556,35712
7557,35648
7558,35520
7559,35456
7560,35456
7561,35648
7562,35776
7563,35712
7564,35584
7565,35392
7566,34944
7567,34496
7568,34112
7569,33728
7570,33280
7571,32832
7572,32384
7573,32128
7574,32064
7575,32000
7576,32000
7577,32064
7578,32000
7579,31936
7580,32000
7581,32192
7582,32320
7583,32320
7584,32256
7585,32256
7586,32384
7587,32448
7588,32448
7589,32384
7590,32384
7591,32384
7592,32320
7593,32384
7594,32448
7595,32576
7596,32576
7597,32512
7598,32576
7599,32512
7600,32448
7601,32384
7602,32384
7603,32384
7604,32320
7605,32256
7606,32320
7607,32448
7608,32512
7609,32576
7610,32576
7611,32576
7612,32576
7613,32576
7614,32576
7615,32704
7616,32768
7617,32768
7618,32768
7619,32896
7620,32896
7621,32896
7622,32896
7623,32960
7624,33024
7625,33088
7626,33088
7627,33152
7628,33152
7629,33088
7630,33152
7631,33280
7632,33408
7633,33408
7634,33408
7635,33600
7636,33856
7637,33920
7638,33984
7639,34176
7640,34432
7641,34624
7642,34752
7643,34880
7644,34816
7645,34624
7646,34240
7647,33856
7648,33600
7649,33344
7650,33152
7651,33024
7652,33024
7653,33024
7654,33024
7655,32960
7656,33024
7657,33088
7658,33216
7659,33344
7660,33408
7661,33536
7662,33536
7663,33536
7664,33536
7665,33600
7666,33600
7667,33664
7668,33728
7669,33664
7670,33472
7671,33216
7672,33472
7673,34432
7674,36096
7675,38336
7676,41344
7677,44416
7678,46464
7679,46144
7680,43584
7681,40256
7682,36736
7683,33536
7684,31168
7685,29824
7686,29440
7687,29632
7688,30144
7689,30848
7690,31488
7691,32064
7692,32448
7693,32832
7694,33216
7695,33408
7696,33536
7697,33664
7698,33792
7699,33856
7700,33856
7701,33856
7702,33920
7703,33984
7704,33920
7705,33856
7706,33856
7707,33856
7708,33856
7709,33792
7710,33856
7711,33920
7712,33984
7713,34048
7714,34112
7715,34240
7716,34368
7717,34368
7718,34432
7719,34496
7720,34496
7721,34560
7722,34624
7723,34752
7724,34816
7725,34880
7726,35008
7727,35072
7728,35200
7729,35264
7730,35328
7731,35392
7732,35456
7733,35456
7734,35520
7735,35584
7736,35712
7737,35712
7738,35712
7739,35648
7740,35648
7741,35584
7742,35456
7743,35264
7744,35072
7745,34816
7746,34560
7747,34176
7748,33920
7749,33600
7750,33280
7751,33024
7752,32960
7753,32896
7754,32896
7755,32896
7756,32960
7757,33024
7758,33088
7759,33152
7760,33216
7761,33280
7762,33344
7763,33344
7764,33408
7765,33472
7766,33536
7767,33536
7768,33600
7769,33664
7770,33664
7771,33664
7772,33664
7773,33664
7774,33728
7775,33728
7776,33728
7777,33792
7778,33856
7779,33856
7780,33856
7781,33792
7782,33856
7783,33856
7784,33792
7785,33792
7786,33856
7787,33856
7788,33856
7789,33792
7790,33792
7791,33792
7792,33728
7793,33728
7794,33728
7795,33728
7796,33728
7797,33728
7798,33728
7799,33728
7800,33664
7801,33664
7802,33664
7803,33728
7804,33728
7805,33664
7806,33728
7807,33792
7808,33792
7809,33728
7810,33728
7811,33792
7812,33792
7813,33728
7814,33856
7815,34048
7816,34240
7817,34368
7818,34496
7819,34688
7820,34880
7821,34944
7822,35072
7823,35264
7824,35392
7825,35264
7826,34944
7827,34624
7828,34304
7829,33920
7830,33664
7831,33600
7832,33472
7833,33408
7834,33280
7835,33280
7836,33344
7837,33408
7838,33472
7839,33536
7840,33664
7841,33728
7842,33664
7843,33728
7844,33792
7845,33856
7846,33792
7847,33792
7848,33920
7849,33984
7850,33792
7851,33472
7852,33408
7853,33984
7854,35136
7855,36992
7856,39552
7857,42688
7858,45440
7859,46656
7860,45376
7861,42560
7862,39104
7863,35584
7864,32704
7865,30848
7866,29952
7867,29824
7868,30144
7869,30720
7870,31296
7871,31808
7872,32256
7873,32704
7874,33024
7875,33152
7876,33344
7877,33536
7878,33664
7879,33728
7880,33728
7881,33792
7882,33856
7883,33856
7884,33856
7885,33920
7886,33984
7887,34048
7888,34112
7889,34112
7890,34048
7891,34048
7892,34112
7893,34176
7894,34176
7895,34112
7896,34176
7897,34112
7898,34112
7899,34176
7900,34176
7901,34176
7902,34304
7903,34432
7904,34496
7905,34560
7906,34624
7907,34688
7908,34688
7909,34688
7910,34752
7911,34816
7912,34880
7913,34944
7914,34944
7915,35008
7916,35072
7917,35008
7918,35008
7919,35072
7920,35008
7921,34944
7922,34816
7923,34688
7924,34496
7925,34240
7926,33920
7927,33600
7928,33408
7929,33088
7930,32832
7931,32640
7932,32448
7933,32320
7934,32192
7935,32128
7936,32192
7937,32256
7938,32192
7939,32256
7940,32384
7941,32512
7942,32512
7943,32576
7944,32704
7945,32768
7946,32832
7947,32832
7948,32960
7949,33024
7950,33024
7951,33088
7952,33152
7953,33280
7954,33280
7955,33280
7956,33280
7957,33344
7958,33408
7959,33408
7960,33472
7961,33536
7962,33536
7963,33536
7964,33536
7965,33600
7966,33600
7967,33600
7968,33600
7969,33664
7970,33664
7971,33600
7972,33536
7973,33600
7974,33600
7975,33600
7976,33600
7977,33664
7978,33664
7979,33664
7980,33664
7981,33728
7982,33792
7983,33792
7984,33792
7985,33856
7986,33920
7987,33856
7988,33856
7989,33856
7990,33984
7991,33984
7992,33920
7993,33920
7994,33984
7995,33984
7996,33984
7997,33984
7998,34176
7999,34368
8000,34496
8001,34624
8002,34816
8003,35008
8004,35136
8005,35200
8006,35392
8007,35520
8008,35456
8009,35200
8010,34880
8011,34560
8012,34176
8013,33920
8014,33728
8015,33664
8016,33600
8017,33536
8018,33536
8019,33600
8020,33664
8021,33664
8022,33728
8023,33792
8024,33920
8025,33920
8026,33920
8027,33984
8028,34048
8029,34048
8030,33984
8031,34048
8032,34112
8033,33984
8034,33728
8035,33600
8036,33920
8037,34880
8038,36416
8039,38848
8040,41600
8041,44480
8042,46336
8043,45824
8044,43392
8045,40064
8046,36608
8047,33536
8048,31296
8049,30080
8050,29696
8051,29824
8052,30400
8053,31104
8054,31680
8055,32192
8056,32640
8057,33024
8058,33344
8059,33472
8060,33664
8061,33792
8062,33856
8063,33856
8064,33920
8065,33984
8066,33984
8067,33984
8068,33920
8069,33984
8070,33984
8071,33984
8072,33920
8073,34048
8074,34112
8075,34112
8076,34176
8077,34304
8078,34368
8079,34368
8080,34368
8081,34496
8082,34624
8083,34624
8084,34688
8085,34752
8086,34880
8087,34944
8088,34944
8089,35072
8090,35200
8091,35328
8092,35392
8093,35456
8094,35648
8095,35712
8096,35712
8097,35712
8098,35776
8099,35776
8100,35840
8101,35840
8102,35904
8103,35904
8104,35840
8105,35712
8106,35648
8107,35456
8108,35200
8109,34880
8110,34624
8111,34368
8112,34048
8113,33728
8114,33536
8115,33408
8116,33216
8117,33088
8118,33088
8119,33088
8120,33152
8121,33152
8122,33152
8123,33216
8124,33344
8125,33344
8126,33344
8127,33472
8128,33536
8129,33536
8130,33600
8131,33664
8132,33792
8133,33856
8134,33856
8135,33920
8136,33984
8137,33984
8138,33920
8139,33984
8140,34048
8141,34048
8142,33984
8143,33984
8144,33984
8145,34048
8146,33984
8147,33984
8148,34048
8149,34048
8150,33984
8151,33984
8152,33984
8153,33984
8154,33984
8155,33920
8156,33920
8157,33984
8158,33984
8159,33920
8160,33920
8161,33984
8162,33920
8163,33920
8164,33920
8165,33984
8166,34048
8167,33984
8168,33984
8169,34048
8170,34048
8171,34048
8172,34048
8173,34112
8174,34112
8175,34112
8176,34176
8177,34368
8178,34560
8179,34688
8180,34752
8181,34944
8182,35072
8183,35200
8184,35328
8185,35456
8186,35456
8187,35328
8188,34944
8189,34560
8190,34304
8191,34048
8192,33856
8193,33664
8194,33600
8195,33536
8196,33472
8197,33472
8198,33536
8199,33664
8200,33664
8201,33664
8202,33728
8203,33728
8204,33728
8205,33664
8206,33728
8207,33792
8208,33792
8209,33792
8210,33792
8211,33856
8212,33664
8213,33344
8214,33344
8215,33920
8216,35200
8217,37120
8218,39680
8219,43072
8220,45504
8221,46336
8222,44672
8223,41600
8224,38080
8225,34816
8226,32128
8227,30400
8228,29504
8229,29312
8230,29632
8231,30272
8232,31040
8233,31680
8234,32192
8235,32576
8236,32960
8237,33216
8238,33408
8239,33472
8240,33600
8241,33664
8242,33664
8243,33664
8244,33664
8245,33728
8246,33664
8247,33664
8248,33664
8249,33728
8250,33728
8251,33728
8252,33792
8253,33856
8254,33856
8255,33856
8256,33920
8257,33984
8258,34048
8259,34048
8260,34112
8261,34176
8262,34240
8263,34304
8264,34368
8265,34496
8266,34624
8267,34688
8268,34752
8269,34880
8270,35008
8271,35072
8272,35136
8273,35264
8274,35392
8275,35392
8276,35392
8277,35456
8278,35520
8279,35456
8280,35392
8281,35392
8282,35456
8283,35328
8284,35200
8285,35008
8286,34816
8287,34560
8288,34176
8289,33792
8290,33536
8291,33280
8292,33024
8293,32768
8294,32704
8295,32640
8296,32512
8297,32512
8298,32576
8299,32640
8300,32704
8301,32704
8302,32832
8303,32960
8304,32960
8305,32960
8306,33024
8307,33088
8308,33152
8309,33152
8310,33216
8311,33280
8312,33344
8313,33344
8314,33408
8315,33472
8316,33472
8317,33472
8318,33472
8319,33536
8320,33536
8321,33536
8322,33536
8323,33536
8324,33600
8325,33600
8326,33536
8327,33600
8328,33600
8329,33600
8330,33536
8331,33536
8332,33536
8333,33472
8334,33472
8335,33408
8336,33472
8337,33472
8338,33408
8339,33408
8340,33472
8341,33472
8342,33472
8343,33472
8344,33472
8345,33536
8346,33536
8347,33472
8348,33536
8349,33600
8350,33600
8351,33600
8352,33600
8353,33600
8354,33600
8355,33536
8356,33600
8357,33664
8358,33792
8359,33920
8360,34112
8361,34368
8362,34496
8363,34560
8364,34752
8365,34944
8366,35072
8367,35136
8368,35008
8369,34880
8370,34560
8371,34176
8372,33856
8373,33664
8374,33536
8375,33408
8376,33280
8377,33280
8378,33280
8379,33280
8380,33280
8381,33344
8382,33472
8383,33536
8384,33536
8385,33600
8386,33664
8387,33728
8388,33728
8389,33728
8390,33856
8391,33856
8392,33856
8393,33728
8394,33472
8395,33344
8396,33664
8397,34688
8398,36416
8399,39040
8400,41728
8401,44736
8402,46784
8403,46464
8404,43968
8405,40512
8406,36800
8407,33536
8408,31104
8409,29696
8410,29248
8411,29504
8412,30016
8413,30592
8414,31232
8415,31872
8416,32320
8417,32704
8418,32960
8419,33216
8420,33472
8421,33536
8422,33600
8423,33728
8424,33792
8425,33792
8426,33792
8427,33792
8428,33856
8429,33856
8430,33856
8431,33856
8432,33920
8433,33984
8434,33920
8435,33984
8436,34048
8437,34048
8438,34048
8439,34112
8440,34176
8441,34240
8442,34240
8443,34304
8444,34432
8445,34560
8446,34624
8447,34688
8448,34816
8449,34944
8450,35008
8451,35072
8452,35200
8453,35328
8454,35392
8455,35392
8456,35520
8457,35584
8458,35648
8459,35648
8460,35648
8461,35712
8462,35712
8463,35584
8464,35520
8465,35520
8466,35392
8467,35136
8468,34816
8469,34560
8470,34240
8471,33920
8472,33536
8473,33344
8474,33088
8475,32896
8476,32768
8477,32704
8478,32768
8479,32768
8480,32768
8481,32832
8482,32896
8483,32960
8484,32960
8485,33024
8486,33152
8487,33216
8488,33216
8489,33280
8490,33408
8491,33472
8492,33472
8493,33472
8494,33600
8495,33600
8496,33600
8497,33600
8498,33664
8499,33728
8500,33728
8501,33664
8502,33728
8503,33792
8504,33792
8505,33792
8506,33792
8507,33856
8508,33856
8509,33792
8510,33792
8511,33792
8512,33856
8513,33792
8514,33792
8515,33792
8516,33792
8517,33728
8518,33728
8519,33792
8520,33792
8521,33728
8522,33728
8523,33728
8524,33792
8525,33792
8526,33728
8527,33792
8528,33856
8529,33856
8530,33792
8531,33792
8532,33856
8533,33856
8534,33856
8535,33856
8536,33920
8537,33920
8538,33984
8539,34112
8540,34304
8541,34496
8542,34560
8543,34688
8544,34880
8545,35008
8546,35136
8547,35264
8548,35392
8549,35328
8550,35072
8551,34624
8552,34304
8553,34048
8554,33856
8555,33664
8556,33600
8557,33600
8558,33600
8559,33600
8560,33600
8561,33728
8562,33728
8563,33728
8564,33728
8565,33856
8566,33856
8567,33856
8568,33856
8569,33920
8570,33984
8571,33984
8572,33984
8573,34048
8574,33920
8575,33728
8576,33600
8577,33984
8578,35136
8579,36736
8580,38976
8581,41792
8582,44608
8583,46208
8584,45376
8585,42688
8586,39488
8587,36160
8588,33344
8589,31168
8590,30144
8591,29696
8592,29824
8593,30336
8594,31104
8595,31744
8596,32256
8597,32704
8598,33152
8599,33472
8600,33664
8601,33792
8602,33984
8603,34048
8604,34112
8605,34112
8606,34112
8607,34112
8608,34112
8609,34048
8610,34048
8611,34048
8612,34048
8613,34048
8614,34048
8615,34112
8616,34176
8617,34176
8618,34176
8619,34304
8620,34368
8621,34368
8622,34432
8623,34560
8624,34624
8625,34624
8626,34624
8627,34752
8628,34880
8629,34944
8630,35008
8631,35072
8632,35200
8633,35264
8634,35328
8635,35456
8636,35520
8637,35584
8638,35584
8639,35648
8640,35776
8641,35776
8642,35776
8643,35712
8644,35712
8645,35648
8646,35520
8647,35328
8648,35136
8649,34944
8650,34560
8651,34176
8652,33856
8653,33600
8654,33280
8655,33088
8656,32896
8657,32832
8658,32768
8659,32704
8660,32704
8661,32768
8662,32832
8663,32832
8664,32960
8665,33024
8666,33088
8667,33152
8668,33152
8669,33280
8670,33280
8671,33280
8672,33280
8673,33344
8674,33344
8675,33344
8676,33344
8677,33344
8678,33408
8679,33408
8680,33408
8681,33472
8682,33536
8683,33536
8684,33536
8685,33536
8686,33600
8687,33600
8688,33536
8689,33536
8690,33600
8691,33600
8692,33536
8693,33536
8694,33600
8695,33600
8696,33536
8697,33472
8698,33472
8699,33536
8700,33472
8701,33408
8702,33472
8703,33536
8704,33536
8705,33536
8706,33536
8707,33600
8708,33600
8709,33536
8710,33536
8711,33600
8712,33600
8713,33536
8714,33536
8715,33536
8716,33536
8717,33536
8718,33472
8719,33536
8720,33600
8721,33536
8722,33472
8723,33536
8724,33600
8725,33536
8726,33472
8727,33536
8728,33600
8729,33728
8730,33920
8731,34176
8732,34304
8733,34496
8734,34560
8735,34688
8736,34880
8737,35008
8738,35072
8739,34944
8740,34688
8741,34432
8742,34048
8743,33792
8744,33600
8745,33472
8746,33344
8747,33280
8748,33216
8749,33216
8750,33216
8751,33216
8752,33280
8753,33344
8754,33408
8755,33408
8756,33472
8757,33536
8758,33600
8759,33600
8760,33600
8761,33664
8762,33664
8763,33664
8764,33536
8765,33344
8766,33216
8767,33472
8768,34496
8769,36160
8770,38784
8771,41408
8772,44480
8773,46720
8774,46464
8775,44352
8776,40896
8777,37184
8778,33728
8779,31104
8780,29632
8781,29120
8782,29312
8783,29760
8784,30400
8785,31040
8786,31680
8787,32128
8788,32512
8789,32832
8790,33152
8791,33344
8792,33472
8793,33536
8794,33664
8795,33728
8796,33728
8797,33664
8798,33728
8799,33792
8800,33728
8801,33728
8802,33728
8803,33792
8804,33792
8805,33792
8806,33856
8807,33920
8808,33920
8809,33920
8810,33984
8811,34112
8812,34176
8813,34176
8814,34240
8815,34432
8816,34496
8817,34560
8818,34624
8819,34816
8820,34880
8821,35008
8822,35072
8823,35200
8824,35392
8825,35456
8826,35520
8827,35648
8828,35776
8829,35840
8830,35776
8831,35840
8832,35904
8833,35840
8834,35776
8835,35712
8836,35712
8837,35584
8838,35328
8839,35072
8840,34816
8841,34496
8842,34112
8843,33728
8844,33472
8845,33216
8846,33024
8847,32832
8848,32768
8849,32768
8850,32704
8851,32704
8852,32768
8853,32896
8854,32896
8855,32960
8856,33024
8857,33152
8858,33152
8859,33216
8860,33280
8861,33344
8862,33408
8863,33408
8864,33408
8865,33408
8866,33472
8867,33408
8868,33408
8869,33472
8870,33536
8871,33472
8872,33472
8873,33536
8874,33600
8875,33600
8876,33536
8877,33600
8878,33664
8879,33664
8880,33600
8881,33600
8882,33664
8883,33600
8884,33536
8885,33536
8886,33600
8887,33600
8888,33536
8889,33536
8890,33536
8891,33536
8892,33536
8893,33536
8894,33536
8895,33600
8896,33536
8897,33536
8898,33600
8899,33664
8900,33600
8901,33536
8902,33600
8903,33664
8904,33664
8905,33600
8906,33664
8907,33664
8908,33664
8909,33664
8910,33664
8911,33728
8912,33792
8913,33728
8914,33728
8915,33792
8916,33792
8917,33728
8918,33728
8919,33792
8920,33856
8921,33792
8922,33792
8923,33856
8924,33920
8925,33920
8926,33856
8927,33920
8928,33984
8929,33920
8930,33920
8931,33920
8932,34048
8933,34240
8934,34368
8935,34496
8936,34688
8937,34816
8938,34880
8939,34944
8940,35136
8941,35264
8942,35264
8943,35072
8944,34880
8945,34624
8946,34304
8947,33984
8948,33856
8949,33792
8950,33600
8951,33536
8952,33472
8953,33472
8954,33536
8955,33472
8956,33536
8957,33664
8958,33728
8959,33664
8960,33728
8961,33792
8962,33792
8963,33792
8964,33792
8965,33856
8966,33920
8967,33856
8968,33728
8969,33472
8970,33472
8971,33984
8972,35072
8973,36928
8974,39424
8975,42432
8976,45440
8977,47232
8978,46656
8979,43968
8980,40128
8981,36608
8982,33280
8983,30912
8984,29376
8985,29184
8986,29504
8987,30016
8988,30656
8989,31232
8990,31872
8991,32384
8992,32704
8993,33024
8994,33280
8995,33472
8996,33600
8997,33664
8998,33728
8999,33792
9000,33792
9001,33728
9002,33792
9003,33856
9004,33856
9005,33792
9006,33792
9007,33856
9008,33856
9009,33856
9010,33856
9011,33920
9012,33984
9013,34048
9014,34112
9015,34176
9016,34240
9017,34304
9018,34304
9019,34432
9020,34560
9021,34624
9022,34624
9023,34752
9024,34880
9025,34944
9026,35008
9027,35136
9028,35328
9029,35456
9030,35456
9031,35584
9032,35648
9033,35712
9034,35648
9035,35712
9036,35776
9037,35776
9038,35712
9039,35648
9040,35584
9041,35520
9042,35264
9043,35008
9044,34816
9045,34496
9046,34176
9047,33792
9048,33536
9049,33344
9050,33088
9051,32896
9052,32768
9053,32768
9054,32704
9055,32704
9056,32768
9057,32896
9058,32960
9059,33024
9060,33088
9061,33152
9062,33152
9063,33152
9064,33216
9065,33344
9066,33408
9067,33408
9068,33408
9069,33472
9070,33536
9071,33536
9072,33536
9073,33600
9074,33664
9075,33664
9076,33664
9077,33728
9078,33792
9079,33792
9080,33792
9081,33792
9082,33856
9083,33856
9084,33792
9085,33728
9086,33728
9087,33728
9088,33728
9089,33728
9090,33792
9091,33792
9092,33792
9093,33728
9094,33792
9095,33856
9096,33792
9097,33728
9098,33792
9099,33856
9100,33792
9101,33792
9102,33792
9103,33856
9104,33856
9105,33856
9106,33856
9107,33920
9108,33920
9109,33920
9110,33856
9111,33920
9112,33920
9113,33920
9114,33920
9115,33984
9116,33984
9117,33984
9118,33984
9119,34048
9120,34048
9121,34048
9122,34048
9123,34048
9124,34048
9125,34048
9126,33984
9127,33984
9128,34048
9129,33984
9130,33920
9131,33920
9132,33984
9133,33984
9134,34048
9135,34048
9136,34112
9137,34112
9138,34112
9139,34112
9140,34176
9141,34240
9142,34304
9143,34432
9144,34624
9145,34752
9146,34752
9147,34752
9148,34880
9149,35008
9150,35136
9151,35264
9152,35392
9153,35328
9154,35200
9155,34880
9156,34624
9157,34368
9158,34112
9159,33856
9160,33792
9161,33792
9162,33728
9163,33664
9164,33728
9165,33728
9166,33856
9167,33856
9168,33792
9169,33920
9170,33984
9171,33920
9172,33920
9173,33984
9174,34048
9175,33984
9176,33984
9177,34048
9178,34112
9179,33920
9180,33728
9181,34176
9182,35200
9183,36928
9184,39232
9185,42176
9186,44992
9187,46528
9188,45696
9189,42944
9190,42304
9191,36160
9192,33152
9193,30592
9194,30400
9195,29440
9196,29632
9197,30208
9198,30912
9199,31616
9200,32192
9201,32704
9202,33152
9203,33472
9204,33664
9205,33856
9206,33984
9207,34048
9208,34048
9209,34048
9210,34112
9211,34112
9212,34048
9213,34048
9214,34112
9215,34112
9216,34048
9217,34048
9218,34112
9219,34176
9220,34176
9221,34176
9222,34240
9223,34304
9224,34240
9225,34304
9226,34368
9227,34432
9228,34496
9229,34496
9230,34560
9231,34688
9232,34816
9233,34816
9234,34944
9235,34880
9236,35136
9237,35136
9238,35328
9239,35264
9240,35456
9241,35520
9242,35584
9243,35648
9244,35712
9245,35712
9246,35648
9247,35648
9248,35648
9249,35584
9250,35456
9251,35392
9252,35264
9253,35008
9254,34752
9255,34432
9256,34176
9257,33856
9258,33472
9259,33216
9260,33024
9261,32896
9262,32704
9263,32640
9264,32640
9265,32640
9266,32640
9267,32704
9268,32896
9269,32832
9270,32960
9271,32960
9272,33088
9273,33152
9274,33152
9275,33216
9276,33216
9277,33280
9278,33344
9279,33344
9280,33408
9281,33472
9282,33472
9283,33472
9284,33408
9285,33536
9286,33472
9287,33472
9288,33408
9289,33472
9290,33536
9291,33472
9292,33536
9293,33600
9294,33600
9295,33600
9296,33600
9297,33600
9298,33664
9299,33600
9300,33536
9301,33536
9302,33600
9303,33536
9304,33472
9305,33472
9306,33472
9307,33472
9308,33408
9309,33408
9310,33472
9311,33472
9312,33408
9313,33408
9314,33472
9315,33472
9316,33408
9317,33408
9318,33472
9319,33472
9320,33472
9321,33472
9322,33536
9323,33600
9324,33536
9325,33472
9326,33536
9327,33600
9328,33600
9329,33536
9330,33600
9331,33600
9332,33600
9333,33600
9334,33600
9335,33664
9336,33664
9337,33600
9338,33600
9339,33600
9340,33664
9341,33600
9342,33600
9343,33728
9344,33664
9345,33664
9346,33664
9347,33664
9348,33728
9349,33728
9350,33728
9351,33728
9352,33728
9353,33792
9354,33792
9355,33856
9356,34048
9357,34176
9358,34368
9359,34496
9360,34560
9361,34560
9362,34496
9363,34560
9364,34624
9365,34688
9366,34752
9367,34816
9368,34880
9369,34880
9370,34688
9371,34432
9372,34176
9373,33920
9374,33856
9375,33664
9376,33600
9377,33600
9378,33536
9379,33472
9380,33536
9381,33600
9382,33664
9383,33728
9384,33728
9385,33792
9386,33856
9387,33856
9388,33856
9389,33792
9390,33920
9391,33856
9392,33856
9393,33920
9394,33856
9395,33664
9396,33408
9397,33472
9398,34176
9399,35584
9400,37952
9401,38144
9402,43200
9403,47104
9404,47168
9405,46336
9406,43392
9407,39680
9408,35840
9409,32576
9410,30464
9411,29376
9412,29056
9413,29376
9414,29952
9415,30656
9416,31232
9417,31744
9418,32256
9419,32576
9420,32896
9421,33088
9422,33344
9423,33472
9424,33536
9425,33536
9426,33600
9427,33664
9428,33664
9429,33600
9430,33664
9431,33664
9432,33728
9433,33664
9434,33664
9435,33728
9436,33792
9437,33792
9438,33856
9439,33920
9440,33984
9441,33984
9442,34048
9443,34112
9444,34176
9445,34240
9446,34240
9447,34368
9448,34496
9449,34496
9450,34560
9451,34688
9452,34880
9453,34944
9454,35008
9455,35136
9456,35328
9457,35456
9458,35520
9459,35584
9460,35776
9461,35776
9462,35776
9463,35776
9464,35776
9465,35776
9466,35712
9467,35584
9468,35520
9469,35392
9470,35136
9471,34816
9472,34496
9473,34176
9474,33792
9475,33472
9476,33216
9477,33024
9478,32832
9479,32640
9480,32576
9481,32576
9482,32576
9483,32576
9484,32640
9485,32832
9486,32896
9487,32960
9488,33088
9489,33152
9490,33280
9491,33280
9492,33280
9493,33344
9494,33408
9495,33408
9496,33344
9497,33408
9498,33472
9499,33472
9500,33408
9501,33472
9502,33472
9503,33472
9504,33472
9505,33472
9506,33600
9507,33600
9508,33600
9509,33600
9510,33664
9511,33664
9512,33664
9513,33664
9514,33728
9515,33728
9516,33664
9517,33664
9518,33664
9519,33728
9520,33664
9521,33664
9522,33664
9523,33728
9524,33664
9525,33664
9526,33664
9527,33728
9528,33728
9529,33664
9530,33664
9531,33728
9532,33728
9533,33664
9534,33664
9535,33728
9536,33728
9537,33664
9538,33664
9539,33728
9540,33792
9541,33728
9542,33728
9543,33792
9544,33792
9545,33792
9546,33792
9547,33856
9548,33856
9549,33856
9550,33856
9551,33920
9552,33920
9553,33920
9554,33920
9555,33920
9556,33984
9557,33984
9558,33984
9559,33984
9560,33984
9561,34048
9562,33984
9563,33920
9564,33984
9565,34048
9566,34048
9567,33984
9568,34048
9569,34048
9570,33984
9571,33984
9572,33984
9573,34048
9574,34048
9575,33984
9576,33984
9577,34048
9578,34112
9579,34176
9580,34304
9581,34496
9582,34624
9583,34624
9584,34624
9585,34624
9586,34688
9587,34752
9588,34752
9589,34880
9590,35008
9591,35008
9592,34944
9593,34880
9594,34688
9595,34368
9596,34112
9597,33984
9598,33856
9599,33728
9600,33664
9601,33600
9602,33664
9603,33664
9604,33664
9605,33728
9606,33856
9607,33856
9608,33792
9609,33856
9610,33920
9611,33920
9612,33920
9613,33920
9614,33984
9615,34048
9616,33984
9617,33984
9618,33792
9619,33600
9620,33600
9621,34176
9622,35520
9623,37504
9624,40064
9625,43136
9626,46080
9627,47552
9628,46464
9629,43520
9630,39808
9631,36096
9632,32896
9633,30592
9634,29376
9635,29120
9636,29440
9637,30016
9638,30656
9639,31360
9640,32000
9641,32448
9642,32832
9643,33152
9644,33408
9645,33536
9646,33664
9647,33792
9648,33856
9649,33856
9650,33792
9651,33856
9652,33856
9653,33856
9654,33792
9655,33856
9656,33856
9657,33856
9658,33856
9659,33856
9660,33920
9661,33984
9662,33984
9663,33984
9664,34112
9665,34176
9666,34176
9667,34240
9668,34304
9669,34432
9670,34496
9671,34560
9672,34624
9673,34816
9674,34880
9675,34944
9676,35008
9677,35200
9678,35264
9679,35392
9680,35520
9681,35648
9682,35712
9683,35712
9684,35712
9685,35840
9686,35840
9687,35776
9688,35776
9689,35776
9690,35712
9691,35648
9692,35456
9693,35264
9694,35008
9695,34624
9696,34240
9697,33920
9698,33664
9699,33344
9700,33088
9701,32896
9702,32832
9703,32768
9704,32704
9705,32704
9706,32832
9707,32832
9708,32896
9709,32960
9710,33024
9711,33088
9712,33088
9713,33152
9714,33216
9715,33280
9716,33280
9717,33344
9718,33408
9719,33472
9720,33472
9721,33472
9722,33536
9723,33600
9724,33600
9725,33600
9726,33664
9727,33728
9728,33728
9729,33728
9730,33728
9731,33792
9732,33792
9733,33728
9734,33728
9735,33792
9736,33792
9737,33792
9738,33792
9739,33856
9740,33856
9741,33792
9742,33728
9743,33728
9744,33792
9745,33728
9746,33728
9747,33792
9748,33856
9749,33856
9750,33792
9751,33856
9752,33920
9753,33920
9754,33856
9755,33856
9756,33920
9757,33920
9758,33856
9759,33856
9760,33920
9761,33984
9762,33920
9763,33856
9764,33920
9765,33920
9766,33920
9767,33856
9768,33920
9769,33920
9770,33920
9771,33856
9772,33920
9773,33984
9774,33984
9775,33984
9776,33984
9777,34048
9778,34048
9779,33984
9780,33984
9781,34048
9782,34048
9783,34048
9784,34048
9785,34112
9786,34112
9787,34048
9788,34048
9789,34048
9790,34112
9791,34112
9792,34048
9793,34112
9794,34112
9795,34112
9796,34048
9797,34112
9798,34176
9799,34176
9800,34112
9801,34176
9802,34240
9803,34240
9804,34304
9805,34432
9806,34624
9807,34752
9808,34816
9809,34816
9810,34816
9811,34880
9812,34880
9813,34944
9814,35072
9815,35200
9816,35200
9817,35136
9818,35008
9819,34816
9820,34560
9821,34304
9822,34176
9823,34048
9824,33920
9825,33792
9826,33792
9827,33792
9828,33856
9829,33856
9830,33856
9831,33984
9832,33984
9833,33984
9834,34048
9835,34048
9836,34112
9837,34112
9838,34112
9839,34176
9840,34176
9841,34176
9842,34176
9843,34048
9844,33792
9845,33792
9846,34240
9847,35520
9848,37376
9849,40000
9850,42816
9851,45568
9852,46784
9853,45504
9854,42240
9855,39040
9856,35712
9857,32960
9858,30976
9859,29888
9860,29568
9861,29824
9862,30400
9863,31104
9864,31808
9865,32448
9866,32896
9867,33216
9868,33536
9869,33792
9870,33984
9871,34048
9872,34112
9873,34176
9874,34176
9875,34176
9876,34176
9877,34176
9878,34176
9879,34176
9880,34176
9881,34240
9882,34240
9883,34240
9884,34240
9885,34304
9886,34304
9887,34304
9888,34368
9889,34432
9890,34496
9891,34496
9892,34496
9893,34624
9894,34688
9895,34752
9896,34752
9897,34880
9898,34944
9899,35008
9900,35072
9901,35136
9902,35264
9903,35328
9904,35392
9905,35456
9906,35584
9907,35712
9908,35712
9909,35712
9910,35776
9911,35776
9912,35776
9913,35776
9914,35776
9915,35712
9916,35648
9917,35456
9918,35328
9919,35136
9920,34816
9921,34496
9922,34176
9923,33920
9924,33536
9925,33280
9926,33088
9927,32960
9928,32832
9929,32768
9930,32704
9931,32768
9932,32832
9933,32832
9934,32896
9935,32960
9936,33024
9937,33088
9938,33088
9939,33152
9940,33216
9941,33216
9942,33280
9943,33344
9944,33472
9945,33408
9946,33408
9947,33472
9948,33472
9949,33472
9950,33472
9951,33472
9952,33536
9953,33536
9954,33536
9955,33536
9956,33600
9957,33600
9958,33600
9959,33536
9960,33600
9961,33600
9962,33536
9963,33536
9964,33536
9965,33536
9966,33472
9967,33472
9968,33472
9969,33536
9970,33472
9971,33472
9972,33472
9973,33536
9974,33472
9975,33472
9976,33472
9977,33472
9978,33472
9979,33408
9980,33408
9981,33472
9982,33472
9983,33408
9984,33408
9985,33472
9986,33472
9987,33408
9988,33408
9989,33472
9990,33472
9991,33472
9992,33472
9993,33536
9994,33600
9995,33600
9996,33536
9997,33600
9998,33664
9999,33664
10000,33600
10001,33664
10002,33728
10003,33728
10004,33664
10005,33664
10006,33728
10007,33728
10008,33728
10009,33664
10010,33728
10011,33792
10012,33728
10013,33728
10014,33792
10015,33792
10016,33728
10017,33728
10018,33728
10019,33792
10020,33792
10021,33792
10022,33856
10023,33920
10024,34048
10025,34176
10026,34368
10027,34496
10028,34560
10029,34560
10030,34560
10031,34688
10032,34752
10033,34752
10034,34752
10035,34880
10036,34944
10037,34880
10038,34624
10039,34432
10040,34176
10041,33920
10042,33664
10043,33536
10044,33472
10045,33408
10046,33280
10047,33280
10048,33344
10049,33408
10050,33408
10051,33472
10052,33600
10053,33600
10054,33600
10055,33600
10056,33664
10057,33728
10058,33664
10059,33664
10060,33728
10061,33792
10062,33664
10063,33472
10064,33344
10065,33600
10066,34496
10067,36096
10068,38336
10069,41216
10070,44416
10071,46848
10072,47232
10073,45184
10074,41728
10075,37952
10076,34368
10077,31616
10078,29888
10079,29120
10080,29120
10081,29632
10082,30272
10083,30912
10084,31488
10085,32064
10086,32512
10087,32832
10088,33088
10089,33408
10090,33536
10091,33600
10092,33664
10093,33728
10094,33792
10095,33792
10096,33728
10097,33792
10098,33792
10099,33792
10100,33728
10101,33792
10102,33856
10103,33856
10104,33856
10105,33856
10106,33984
10107,34048
10108,34112
10109,34176
10110,34240
10111,34304
10112,34304
10113,34304
10114,34432
10115,34560
10116,34560
10117,34624
10118,34752
10119,34880
10120,35008
10121,35072
10122,35200
10123,35328
10124,35456
10125,35520
10126,35648
10127,35776
10128,35840
10129,35840
10130,35840
10131,35904
10132,35904
10133,35840
10134,35776
10135,35776
10136,35648
10137,35456
10138,35200
10139,34944
10140,34624
10141,34240
10142,33856
10143,33536
10144,33344
10145,33088
10146,32896
10147,32768
10148,32704
10149,32704
10150,32640
10151,32704
10152,32768
10153,32832
10154,32896
10155,32960
10156,33088
10157,33216
10158,33216
10159,33280
10160,33408
10161,33472
10162,33472
10163,33472
10164,33536
10165,33600
10166,33664
10167,33664
10168,33728
10169,33792
10170,33728
10171,33728
10172,33728
10173,33792
10174,33856
10175,33792
10176,33856
10177,33920
10178,33920
10179,33920
10180,33856
10181,33920
10182,33856
10183,33856
10184,33856
10185,33920
10186,33920
10187,33920
10188,33856
10189,33856
10190,33920
10191,33920
10192,33856
10193,33920
10194,33984
10195,33984
10196,33920
10197,33984
10198,33984
10199,33984
10200,33984
10201,33984
10202,33984
10203,33984
10204,33920
10205,33984
10206,34048
10207,34048
10208,34048
10209,33984
10210,34048
10211,34048
10212,33984
10213,33984
10214,34048
10215,34112
10216,34048
10217,33984
10218,34048
10219,34112
10220,34112
10221,34048
10222,34112
10223,34176
10224,34176
10225,34176
10226,34112
10227,34176
10228,34240
10229,34176
10230,34176
10231,34176
10232,34176
10233,34176
10234,34176
10235,34240
10236,34240
10237,34304
10238,34368
10239,34496
10240,34688
10241,34752
10242,34752
10243,34816
10244,34816
10245,34880
10246,34880
10247,35008
10248,35136
10249,35264
10250,35264
10251,35264
10252,35136
10253,34880
10254,34560
10255,34304
10256,34112
10257,33984
10258,33856
10259,33792
10260,33792
10261,33792
10262,33792
10263,33792
10264,33920
10265,33984
10266,33984
10267,33984
10268,33984
10269,34048
10270,34048
10271,34112
10272,34112
10273,34240
10274,34240
10275,34240
10276,34176
10277,33920
10278,33856
10279,34112
10280,35072
10281,36736
10282,38912
10283,41664
10284,44480
10285,46528
10286,46016
10287,43456
10288,40128
10289,36544
10290,33728
10291,31488
10292,30144
10293,29632
10294,29760
10295,30272
10296,30912
10297,31616
10298,32256
10299,32832
10300,33216
10301,33536
10302,33792
10303,33920
10304,34048
10305,34112
10306,34176
10307,34176
10308,34112
10309,34112
10310,34176
10311,34240
10312,34240
10313,34176
10314,34176
10315,34176
10316,34176
10317,34176
10318,34240
10319,34304
10320,34304
10321,34304
10322,34368
10323,34496
10324,34560
10325,34560
10326,34624
10327,34752
10328,34816
10329,34816
10330,34880
10331,35008
10332,35072
10333,35136
10334,35200
10335,35328
10336,35456
10337,35520
10338,35584
10339,35712
10340,35776
10341,35840
10342,35840
10343,35840
10344,35904
10345,35904
10346,35840
10347,35840
10348,35840
10349,35776
10350,35648
10351,35456
10352,35264
10353,35008
10354,34688
10355,34304
10356,34048
10357,33728
10358,33472
10359,33216
10360,33088
10361,32960
10362,32832
10363,32768
10364,32832
10365,32896
10366,32960
10367,32960
10368,33088
10369,33152
10370,33216
10371,33216
10372,33280
10373,33344
10374,33344
10375,33344
10376,33408
10377,33472
10378,33536
10379,33536
10380,33536
10381,33664
10382,33728
10383,33728
10384,33728
10385,33728
10386,33728
10387,33728
10388,33728
10389,33792
10390,33856
10391,33792
10392,33792
10393,33792
10394,33856
10395,33792
10396,33792
10397,33792
10398,33792
10399,33792
10400,33728
10401,33728
10402,33728
10403,33728
10404,33664
10405,33600
10406,33664
10407,33664
10408,33600
10409,33600
10410,33664
10411,33664
10412,33664
10413,33664
10414,33664
10415,33728
10416,33664
10417,33664
10418,33728
10419,33728
10420,33728
10421,33728
10422,33728
10423,33792
10424,33856
10425,33792
10426,33792
10427,33856
10428,33792
10429,33792
10430,33792
10431,33792
10432,33792
10433,33792
10434,33792
10435,33856
10436,33856
10437,33920
10438,33984
10439,34240
10440,34432
10441,34560
10442,34560
10443,34624
10444,34752
10445,34816
10446,34944
10447,35072
10448,35136
10449,35072
10450,34880
10451,34624
10452,34368
10453,34112
10454,33792
10455,33600
10456,33536
10457,33408
10458,33344
10459,33280
10460,33344
10461,33408
10462,33408
10463,33408
10464,33472
10465,33536
10466,33536
10467,33536
10468,33600
10469,33664
10470,33728
10471,33664
10472,33728
10473,33792
10474,33728
10475,33536
10476,33280
10477,33408
10478,34048
10479,35456
10480,37696
10481,40192
10482,43328
10483,45952
10484,46848
10485,45248
10486,42112
10487,38400
10488,34880
10489,32000
10490,30144
10491,29248
10492,29120
10493,29504
10494,30144
10495,30848
10496,31360
10497,31936
10498,32448
10499,32832
10500,33088
10501,33280
10502,33472
10503,33600
10504,33600
10505,33600
10506,33664
10507,33728
10508,33664
10509,33600
10510,33664
10511,33664
10512,33600
10513,33600
10514,33664
10515,33728
10516,33792
10517,33792
10518,33856
10519,33920
10520,33984
10521,33920
10522,34048
10523,34112
10524,34176
10525,34176
10526,34240
10527,34368
10528,34496
10529,34560
10530,34560
10531,34752
10532,34816
10533,34944
10534,35008
10535,35200
10536,35328
10537,35392
10538,35456
10539,35584
10540,35712
10541,35776
10542,35776
10543,35776
10544,35776
10545,35776
10546,35648
10547,35584
10548,35520
10549,35328
10550,35008
10551,34688
10552,34368
10553,33984
10554,33600
10555,33216
10556,33024
10557,32768
10558,32576
10559,32512
10560,32512
10561,32512
10562,32512
10563,32576
10564,32640
10565,32768
10566,32832
10567,32832
10568,32960
10569,33024
10570,33088
10571,33088
10572,33152
10573,33216
10574,33216
10575,33216
10576,33216
10577,33280
10578,33344
10579,33344
10580,33344
10581,33408
10582,33472
10583,33472
10584,33472
10585,33600
10586,33664
10587,33600
10588,33600
10589,33664
10590,33664
10591,33664
10592,33600
10593,33664
10594,33664
10595,33664
10596,33600
10597,33600
10598,33664
10599,33600
10600,33536
10601,33472
10602,33536
10603,33536
10604,33472
10605,33472
10606,33536
10607,33536
10608,33536
10609,33472
10610,33536
10611,33600
10612,33600
10613,33536
10614,33600
10615,33664
10616,33600
10617,33600
10618,33664
10619,33728
10620,33728
10621,33664
10622,33664
10623,33728
10624,33728
10625,33728
10626,33728
10627,33792
10628,33792
10629,33728
10630,33728
10631,33792
10632,33856
10633,33792
10634,33792
10635,33856
10636,33920
10637,33856
10638,33856
10639,33920
10640,34048
10641,34176
10642,34304
10643,34496
10644,34624
10645,34752
10646,34816
10647,34944
10648,35200
10649,35264
10650,35200
10651,35008
10652,34752
10653,34496
10654,34112
10655,33856
10656,33792
10657,33728
10658,33600
10659,33536
10660,33536
10661,33536
10662,33600
10663,33600
10664,33664
10665,33728
10666,33728
10667,33792
10668,33856
10669,33920
10670,33920
10671,33856
10672,33920
10673,33984
10674,34048
10675,33920
10676,33728
10677,33600
10678,33728
10679,34368
10680,35712
10681,37760
10682,40448
10683,43520
10684,46208
10685,47296
10686,45952
10687,42816
10688,39104
10689,35456
10690,32320
10691,30400
10692,29376
10693,29248
10694,29696
10695,30208
10696,30848
10697,31424
10698,32000
10699,32512
10700,32832
10701,33152
10702,33408
10703,33600
10704,33664
10705,33728
10706,33792
10707,33856
10708,33792
10709,33728
10710,33792
10711,33792
10712,33792
10713,33792
10714,33920
10715,33920
10716,33920
10717,33920
10718,33984
10719,34112
10720,34112
10721,34112
10722,34176
10723,34304
10724,34304
10725,34368
10726,34432
10727,34560
10728,34688
10729,34752
10730,34816
10731,34944
10732,35072
10733,35136
10734,35200
10735,35392
10736,35520
10737,35648
10738,35712
10739,35840
10740,35968
10741,36032
10742,36032
10743,36096
10744,36096
10745,36096
10746,36032
10747,35968
10748,35968
10749,35776
10750,35584
10751,35328
10752,35072
10753,34688
10754,34176
10755,33856
10756,33600
10757,33344
10758,33024
10759,32832
10760,32768
10761,32704
10762,32576
10763,32576
10764,32704
10765,32768
10766,32896
10767,32896
10768,33024
10769,33216
10770,33280
10771,33280
10772,33344
10773,33408
10774,33408
10775,33408
10776,33408
10777,33472
10778,33472
10779,33472
10780,33472
10781,33536
10782,33600
10783,33536
10784,33536
10785,33536
10786,33600
10787,33600
10788,33536
10789,33600
10790,33664
10791,33664
10792,33600
10793,33600
10794,33664
10795,33600
10796,33600
10797,33600
10798,33600
10799,33600
10800,33536
10801,33536
10802,33600
10803,33600
10804,33536
10805,33536
10806,33536
10807,33536
10808,33536
10809,33472
10810,33536
10811,33536
10812,33536
10813,33536
10814,33536
10815,33600
10816,33536
10817,33536
10818,33536
10819,33600
10820,33536
10821,33536
10822,33536
10823,33600
10824,33600
10825,33536
10826,33536
10827,33600
10828,33600
10829,33536
10830,33536
10831,33600
10832,33600
10833,33536
10834,33536
10835,33600
10836,33664
10837,33600
10838,33600
10839,33664
10840,33728
10841,33728
10842,33664
10843,33792
10844,33984
10845,34112
10846,34304
10847,34432
10848,34624
10849,34688
10850,34752
10851,34944
10852,35136
10853,35200
10854,35072
10855,34880
10856,34624
10857,34368
10858,34048
10859,33728
10860,33664
10861,33600
10862,33472
10863,33408
10864,33472
10865,33472
10866,33536
10867,33536
10868,33664
10869,33728
10870,33728
10871,33728
10872,33792
10873,33856
10874,33856
10875,33856
10876,33856
10877,33984
10878,33984
10879,33920
10880,33664
10881,33536
10882,33728
10883,34560
10884,36096
10885,38336
10886,41152
10887,44288
10888,46720
10889,47168
10890,45248
10891,41984
10892,38208
10893,34688
10894,31872
10895,30144
10896,29376
10897,29376
10898,29824
10899,30464
10900,31040
10901,31616
10902,32192
10903,32640
10904,33024
10905,33152
10906,33408
10907,33600
10908,33664
10909,33664
10910,33728
10911,33792
10912,33792
10913,33728
10914,33792
10915,33920
10916,33920
10917,33856
10918,33856
10919,33920
10920,33920
10921,33920
10922,33984
10923,34048
10924,34112
