,ECG
0,34176
1,34368
2,34368
3,34368
4,34304
5,34304
6,34240
7,34048
8,33792
9,33472
10,33408
11,33024
12,32960
13,32896
14,32832
15,32832
16,32832
17,32896
18,32960
19,33088
20,33088
21,33152
22,33152
23,33152
24,33024
25,32896
26,32960
27,33344
28,34240
29,34432
30,36800
31,38976
32,41152
33,42944
34,42944
35,42688
36,38848
37,36096
38,33600
39,31808
40,30656
41,30080
42,29888
43,30016
44,30400
45,30336
46,31040
47,31360
48,31808
49,31808
50,31872
51,32320
52,32512
53,32640
54,32768
55,32832
56,32896
57,32896
58,32896
59,32896
60,32896
61,32896
62,32896
63,33024
64,32960
65,33024
66,33152
67,33216
68,33344
69,33280
70,33408
71,33408
72,33536
73,33600
74,33664
75,33728
76,33792
77,33920
78,33984
79,33984
80,34048
81,34112
82,34048
83,33984
84,33920
85,33984
86,33984
87,33920
88,33856
89,33856
90,33856
91,33792
92,33728
93,33792
94,33792
95,33728
96,33728
97,33728
98,33664
99,33664
100,33472
101,33344
102,33280
103,33216
104,33088
105,33088
106,33088
107,33024
108,33088
109,33152
110,33216
111,33280
112,33280
113,33344
114,33408
115,33408
116,33472
117,33472
118,33600
119,33536
120,33664
121,33600
122,33600
123,33600
124,33600
125,33536
126,33600
127,33664
128,33728
129,33728
130,33664
131,33600
132,33600
133,33600
134,33600
135,33600
136,33600
137,33536
138,33536
139,33472
140,33536
141,33536
142,33536
143,33600
144,33536
145,33536
146,33472
147,33472
148,33536
149,33536
150,33536
151,33536
152,33600
153,33600
154,33600
155,33600
156,33664
157,33792
158,33920
159,34112
160,34240
161,34304
162,34304
163,34368
164,34432
165,34368
166,34368
167,34304
168,34304
169,34304
170,34304
171,34176
172,33984
173,33728
174,33408
175,33216
176,33088
177,33024
178,32896
179,32832
180,32832
181,32896
182,32896
183,32960
184,33024
185,33152
186,33216
187,33216
188,33152
189,33024
190,33088
191,33280
192,33856
193,34944
194,36352
195,38272
196,40704
197,43008
198,44224
199,43520
200,41280
201,38400
202,35520
203,32320
204,32192
205,30656
206,30336
207,30400
208,30656
209,31040
210,31552
211,32000
212,32320
213,32576
214,32832
215,33024
216,33216
217,33280
218,33408
219,33472
220,33472
221,33536
222,33536
223,33664
224,33600
225,33600
226,33600
227,33664
228,33664
229,33664
230,33728
231,33792
232,33792
233,33792
234,33856
235,33920
236,33920
237,33984
238,34048
239,33984
240,34112
241,34176
242,34240
243,34368
244,34368
245,34432
246,34432
247,34432
248,34432
249,34432
250,34432
251,34368
252,34304
253,34304
254,34240
255,34176
256,34112
257,34112
258,34112
259,34048
260,34048
261,34048
262,33984
263,33856
264,33728
265,33664
266,33600
267,33472
268,33408
269,33344
270,33280
271,33280
272,33216
273,33216
274,33152
275,33216
276,33280
277,33408
278,33472
279,33472
280,33536
281,33600
282,33664
283,33664
284,33664
285,33664
286,33664
287,33664
288,33728
289,33792
290,33920
291,33920
292,33792
293,33664
294,33536
295,33536
296,33600
297,33600
298,33728
299,33728
300,33664
301,33664
302,33600
303,33472
304,33216
305,33024
306,32960
307,32896
308,33024
309,33152
310,33472
311,33984
312,34432
313,34944
314,35328
315,35648
316,35776
317,35776
318,35776
319,35776
320,35712
321,35584
322,35456
323,35392
324,35264
325,35200
326,35072
327,34944
328,34688
329,34368
330,34048
331,33856
332,33664
333,33536
334,33408
335,33344
336,33408
337,33408
338,33472
339,33536
340,33664
341,33728
342,33792
343,33792
344,33728
345,33728
346,33728
347,34112
348,35392
349,35456
350,37568
351,39488
352,41600
353,43008
354,42944
355,41344
356,38848
357,36288
358,33984
359,32320
360,31424
361,31040
362,30976
363,31040
364,31296
365,31616
366,31872
367,32128
368,32448
369,32640
370,32832
371,32896
372,33024
373,33088
374,33216
375,33344
376,33408
377,33472
378,33536
379,33472
380,33472
381,33408
382,33408
383,33408
384,33408
385,33472
386,33536
387,33536
388,33472
389,33536
390,33600
391,33728
392,33792
393,33920
394,33984
395,34048
396,33984
397,33856
398,33856
399,33792
400,33920
401,34112
402,34304
403,34496
404,34496
405,34496
406,34432
407,34368
408,34304
409,34240
410,34112
411,33984
412,33792
413,33664
414,33600
415,33792
416,33920
417,33920
418,33920
419,33856
420,33728
421,33536
422,33472
423,33472
424,33408
425,33280
426,33216
427,33216
428,33280
429,33216
430,33216
431,33280
432,33344
433,33408
434,33344
435,33408
436,33472
437,33536
438,33536
439,33536
440,33536
441,33536
442,33472
443,33536
444,33600
445,33600
446,33600
447,33600
448,33600
449,33664
450,33664
451,33728
452,33728
453,33792
454,33728
455,33664
456,33600
457,33664
458,33728
459,33728
460,33600
461,33600
462,33600
463,33600
464,33664
465,33792
466,33920
467,33920
468,33984
469,33984
470,34112
471,34240
472,34368
473,34496
474,34496
475,34496
476,34432
477,34432
478,34432
479,34176
480,33856
481,33664
482,33408
483,33152
484,33024
485,32960
486,33024
487,32960
488,32832
489,32832
490,32832
491,32832
492,32832
493,32832
494,32960
495,32960
496,32832
497,32704
498,32768
499,33152
500,33856
501,34944
502,36288
503,38208
504,40320
505,42048
506,42688
507,41600
508,39424
509,36800
510,34304
511,32448
512,31168
513,30464
514,30272
515,30400
516,30656
517,30976
518,31424
519,31424
520,31872
521,32128
522,32256
523,32576
524,32576
525,32768
526,32768
527,32832
528,32896
529,32960
530,33024
531,33088
532,33152
533,33152
534,33152
535,33152
536,33280
537,33280
538,33216
539,33216
540,33280
541,33344
542,33344
543,33408
544,33472
545,33536
546,33536
547,33600
548,33664
549,33728
550,33728
551,33728
552,33792
553,33856
554,33856
555,33792
556,33792
557,33792
558,33792
559,33728
560,33664
561,33664
562,33600
563,33536
564,33472
565,33472
566,33472
567,33408
568,33408
569,33408
570,33408
571,33280
572,33216
573,33152
574,33152
575,33088
576,33024
577,32960
578,32896
579,32896
580,32832
581,32832
582,32896
583,32960
584,32960
585,32960
586,32960
587,33024
588,33088
589,33152
590,33216
591,33216
592,33152
593,33152
594,33088
595,33152
596,33088
597,33088
598,33152
599,33216
600,33152
601,33088
602,33088
603,33152
604,33152
605,33088
606,33088
607,33088
608,33088
609,33024
610,33024
611,33088
612,33088
613,33024
614,33024
615,33152
616,33216
617,33344
618,33472
619,33536
620,33600
621,33536
622,33536
623,33792
624,33728
625,33856
626,33920
627,33920
628,33920
629,33792
630,33728
631,33600
632,33408
633,33216
634,32896
635,32704
636,32512
637,32384
638,32192
639,32128
640,32192
641,32256
642,32320
643,32448
644,32448
645,32512
646,32512
647,32512
648,32512
649,32384
650,32320
651,32384
652,32832
653,33792
654,35136
655,36736
656,38976
657,41280
658,43008
659,42624
660,40896
661,38272
662,35520
663,33024
664,31424
665,30400
666,29952
667,29888
668,30016
669,30336
670,30656
671,30912
672,31232
673,31552
674,31808
675,32000
676,32128
677,32320
678,32448
679,32512
680,32576
681,32576
682,32704
683,32768
684,32832
685,32896
686,32960
687,33088
688,33024
689,32960
690,32896
691,32896
692,32960
693,33024
694,33088
695,33152
696,33216
697,33216
698,33280
699,33408
700,33536
701,33536
702,33600
703,33664
704,33728
705,33728
706,33728
707,33728
708,33728
709,33728
710,33664
711,33664
712,33728
713,33664
714,33536
715,33472
716,33472
717,33408
718,33408
719,33472
720,33536
721,33536
722,33472
723,33408
724,33408
725,33280
726,33152
727,32960
728,32896
729,32832
730,32768
731,32768
732,32832
733,32832
734,32896
735,32960
736,33088
737,33152
738,33216
739,33280
740,33344
741,33408
742,33472
743,33472
744,33472
745,33472
746,33472
747,33472
748,33472
749,33536
750,33472
751,33408
752,33408
753,33472
754,33472
755,33472
756,33472
757,33536
758,33600
759,33536
760,33472
761,33472
762,33472
763,33408
764,33344
765,33344
766,33344
767,33280
768,33280
769,33344
770,33472
771,33472
772,33472
773,33600
774,33792
775,33920
776,33984
777,34048
778,34112
779,34176
780,34176
781,34240
782,34240
783,34240
784,34176
785,34112
786,34048
787,33984
788,33728
789,33472
790,33216
791,33024
792,32768
793,32704
794,32576
795,32512
796,32448
797,32448
798,32512
799,32576
800,32640
801,32640
802,32768
803,32896
804,32896
805,32704
806,32640
807,32704
808,33088
809,33920
810,35136
811,36864
812,39104
813,41536
814,43328
815,43392
816,41728
817,38912
818,35136
819,33152
820,31488
821,30464
822,29952
823,29888
824,30080
825,30336
826,30592
827,30976
828,31296
829,31552
830,31744
831,31872
832,32064
833,32256
834,32320
835,32448
836,32512
837,32576
838,32640
839,32704
840,32768
841,32832
842,32960
843,33024
844,33152
845,33280
846,33408
847,33472
848,33536
849,33728
850,33856
851,33856
852,33920
853,33984
854,34112
855,34176
856,34368
857,34560
858,34688
859,34688
860,34624
861,34624
862,34688
863,34688
864,34688
865,34688
866,34624
867,34496
868,34368
869,34304
870,34304
871,34240
872,34176
873,34176
874,34176
875,34112
876,34048
877,33984
878,33920
879,33856
880,33792
881,33664
882,33536
883,33408
884,33216
885,33088
886,33024
887,33024
888,33024
889,32960
890,32960
891,33024
892,33024
893,33088
894,33088
895,33152
896,33152
897,33216
898,33280
899,33280
900,33280
901,33280
902,33280
903,33408
904,33472
905,33472
906,33472
907,33536
908,33536
909,33536
910,33536
911,33536
912,33664
913,33664
914,33664
915,33728
916,33792
917,33728
918,33664
919,33664
920,33664
921,33664
922,33664
923,33664
924,33728
925,33792
926,33792
927,33792
928,33856
929,33856
930,33856
931,33856
932,33856
933,33792
934,33600
935,33408
936,33344
937,33408
938,33664
939,33920
940,34304
941,34624
942,34752
943,34560
944,34176
945,33920
946,33664
947,33600
948,33792
949,34240
950,34560
951,34496
952,34240
953,33920
954,33600
955,33344
956,33088
957,32832
958,32704
959,32640
960,32640
961,32704
962,32832
963,33024
964,33216
965,33536
966,34048
967,34368
968,34432
969,34240
970,34048
971,33856
972,33664
973,33600
974,33728
975,34112
976,34752
977,35904
978,37888
979,40384
980,42752
981,44032
982,43904
983,42368
984,39808
985,36736
986,33856
987,32128
988,31040
989,30592
990,30720
991,31104
992,31488
993,31680
994,32128
995,32896
996,33408
997,33344
998,33216
999,33344
1000,33344
1001,33280
1002,33472
1003,33728
1004,33920
1005,33984
1006,33920
1007,33792
1008,33600
1009,33600
1010,33536
1011,33472
1012,33536
1013,33856
1014,34112
1015,33984
1016,33856
1017,33792
1018,33536
1019,33408
1020,33536
1021,33600
1022,33792
1023,34112
1024,34560
1025,34880
1026,34816
1027,34624
1028,34304
1029,34176
1030,34112
1031,33984
1032,33984
1033,33984
1034,33856
1035,33536
1036,33280
1037,33216
1038,33344
1039,33472
1040,33728
1041,33984
1042,34176
1043,34304
1044,34368
1045,34368
1046,34304
1047,34048
1048,33792
1049,33664
1050,33664
1051,33664
1052,33472
1053,33408
1054,33344
1055,33344
1056,33472
1057,33600
1058,33792
1059,34048
1060,34432
1061,34624
1062,34688
1063,34560
1064,34240
1065,33984
1066,33920
1067,33920
1068,33920
1069,33920
1070,33920
1071,33856
1072,33792
1073,33728
1074,33856
1075,34048
1076,34240
1077,34560
1078,34816
1079,34944
1080,34816
1081,34368
1082,34048
1083,34048
1084,34112
1085,34048
1086,33856
1087,33600
1088,33408
1089,33280
1090,33216
1091,33344
1092,33472
1093,33536
1094,33408
1095,33280
1096,33088
1097,32960
1098,32960
1099,33088
1100,33216
1101,33344
1102,33280
1103,33408
1104,33664
1105,33792
1106,33792
1107,33728
1108,33664
1109,33472
1110,33344
1111,33280
1112,33344
1113,33536
1114,33600
1115,33536
1116,33472
1117,33408
1118,33344
1119,33280
1120,33216
1121,33344
1122,33472
1123,33536
1124,33472
1125,33472
1126,33344
1127,33152
1128,33024
1129,32896
1130,32832
1131,32704
1132,32512
1133,32384
1134,32256
1135,32128
1136,32064
1137,32192
1138,32384
1139,32576
1140,32832
1141,33024
1142,32960
1143,32704
1144,32384
1145,32192
1146,32192
1147,32576
1148,33536
1149,34816
1150,36480
1151,38720
1152,40960
1153,42432
1154,42432
1155,40832
1156,38336
1157,35776
1158,33600
1159,31936
1160,30976
1161,30528
1162,30528
1163,30720
1164,31104
1165,31360
1166,31360
1167,31296
1168,31296
1169,31424
1170,31744
1171,32064
1172,32384
1173,32704
1174,32960
1175,33088
1176,33024
1177,32960
1178,33088
1179,33344
1180,33536
1181,33472
1182,33408
1183,33536
1184,33472
1185,33216
1186,33088
1187,33152
1188,33408
1189,33856
1190,34304
1191,34304
1192,33984
1193,33792
1194,33792
1195,33792
1196,33792
1197,33792
1198,33792
1199,33920
1200,34112
1201,34240
1202,34368
1203,34432
1204,34496
1205,34560
1206,34560
1207,34688
1208,34752
1209,34624
1210,34240
1211,33984
1212,33920
1213,33856
1214,33792
1215,33728
1216,33856
1217,34112
1218,34304
1219,34176
1220,33792
1221,33536
1222,33280
1223,33152
1224,33216
1225,33344
1226,33408
1227,33408
1228,33472
1229,33536
1230,33600
1231,33536
1232,33472
1233,33536
1234,33856
1235,33984
1236,33920
1237,33856
1238,33792
1239,33600
1240,33472
1241,33344
1242,33408
1243,33600
1244,33856
1245,33920
1246,33920
1247,33856
1248,33664
1249,33472
1250,33472
1251,33472
1252,33536
1253,33600
1254,33728
1255,33664
1256,33664
1257,33728
1258,33856
1259,33984
1260,33984
1261,33984
1262,34048
1263,33792
1264,33344
1265,33088
1266,33024
1267,33152
1268,33344
1269,33536
1270,33728
1271,33792
1272,33792
1273,33920
1274,33984
1275,33856
1276,33728
1277,33600
1278,33664
1279,33728
1280,33856
1281,33920
1282,33984
1283,34240
1284,34560
1285,34560
1286,34432
1287,34304
1288,34432
1289,34624
1290,34880
1291,35072
1292,35008
1293,34816
1294,34624
1295,34496
1296,34432
1297,34240
1298,34176
1299,34112
1300,33856
1301,33472
1302,33216
1303,33152
1304,33216
1305,33408
1306,33536
1307,33536
1308,33344
1309,33152
1310,33152
1311,33216
1312,33344
1313,33536
1314,33600
1315,33728
1316,33984
1317,34624
1318,35520
1319,36864
1320,38784
1321,41024
1322,42752
1323,43136
1324,42048
1325,40000
1326,37312
1327,34816
1328,32768
1329,31488
1330,30912
1331,30784
1332,30912
1333,31232
1334,31616
1335,32000
1336,32448
1337,32896
1338,33152
1339,33152
1340,33088
1341,33024
1342,33024
1343,33024
1344,33088
1345,33216
1346,33408
1347,33472
1348,33408
1349,33536
1350,33728
1351,33984
1352,33984
1353,33920
1354,33920
1355,33792
1356,33728
1357,33728
1358,33792
1359,33856
1360,33984
1361,34176
1362,34176
1363,33984
1364,33856
1365,33728
1366,33664
1367,33728
1368,33792
1369,33920
1370,34112
1371,34240
1372,34368
1373,34432
1374,34304
1375,34176
1376,34048
1377,33920
1378,33856
1379,33920
1380,33984
1381,34048
1382,34112
1383,34112
1384,34112
1385,34048
1386,33984
1387,33920
1388,33792
1389,33600
1390,33472
1391,33408
1392,33408
1393,33280
1394,33216
1395,33152
1396,33216
1397,33408
1398,33600
1399,33536
1400,33344
1401,33088
1402,32896
1403,32896
1404,33088
1405,33280
1406,33408
1407,33664
1408,33984
1409,33984
1410,33728
1411,33472
1412,33344
1413,33280
1414,33216
1415,33280
1416,33344
1417,33472
1418,33600
1419,33728
1420,33920
1421,33856
1422,33728
1423,33664
1424,33600
1425,33536
1426,33472
1427,33344
1428,33152
1429,33024
1430,33024
1431,33024
1432,33024
1433,33152
1434,33280
1435,33408
1436,33536
1437,33792
1438,33984
1439,33920
1440,33856
1441,33856
1442,33856
1443,33856
1444,33984
1445,34176
1446,34304
1447,34304
1448,34304
1449,34368
1450,34432
1451,34496
1452,34432
1453,34240
1454,33920
1455,33472
1456,32960
1457,32640
1458,32576
1459,32640
1460,32704
1461,32640
1462,32768
1463,33024
1464,33088
1465,32960
1466,32832
1467,32832
1468,32896
1469,33088
1470,33216
1471,33152
1472,32896
1473,32896
1474,33280
1475,34176
1476,35392
1477,37184
1478,40320
1479,41600
1480,42816
1481,42368
1482,40384
1483,37824
1484,35200
1485,33024
1486,31552
1487,30720
1488,30528
1489,30528
1490,30720
1491,31040
1492,31552
1493,32064
1494,32320
1495,32384
1496,32320
1497,32192
1498,32192
1499,32320
1500,32704
1501,33024
1502,33152
1503,33024
1504,32960
1505,32960
1506,32960
1507,33024
1508,33152
1509,33344
1510,33408
1511,33472
1512,33472
1513,33408
1514,33344
1515,33344
1516,33472
1517,33664
1518,33792
1519,33664
1520,33536
1521,33536
1522,33600
1523,33600
1524,33536
1525,33600
1526,33664
1527,33728
1528,33792
1529,33920
1530,33984
1531,33920
1532,33728
1533,33600
1534,33536
1535,33600
1536,33728
1537,33984
1538,34112
1539,34176
1540,34048
1541,33920
1542,33856
1543,33792
1544,33664
1545,33600
1546,33472
1547,33280
1548,33088
1549,32896
1550,32832
1551,32896
1552,33024
1553,33152
1554,33280
1555,33408
1556,33344
1557,33152
1558,33088
1559,33152
1560,33216
1561,33280
1562,33408
1563,33600
1564,33664
1565,33600
1566,33536
1567,33600
1568,33792
1569,33920
1570,34112
1571,34240
1572,34176
1573,34112
1574,34112
1575,33984
1576,33728
1577,33472
1578,33408
1579,33408
1580,33536
1581,33664
1582,33792
1583,33856
1584,33920
1585,33920
1586,33920
1587,33984
1588,34240
1589,34240
1590,34112
1591,33984
1592,33984
1593,33984
1594,33920
1595,33920
1596,33984
1597,33984
1598,33920
1599,33856
1600,33856
1601,33984
1602,34176
1603,34496
1604,34816
1605,34944
1606,34816
1607,34624
1608,34624
1609,34560
1610,34496
1611,34496
1612,34496
1613,34432
1614,34432
1615,34432
1616,34432
1617,34432
1618,34368
1619,34112
1620,33920
1621,33792
1622,33600
1623,33408
1624,33152
1625,33024
1626,33024
1627,33024
1628,33088
1629,33280
1630,33472
1631,33664
1632,33728
1633,33728
1634,33664
1635,33600
1636,33600
1637,34112
1638,35136
1639,36288
1640,38016
1641,40256
1642,42688
1643,44544
1644,44544
1645,42816
1646,40000
1647,37120
1648,34624
1649,32832
1650,31936
1651,31616
1652,31616
1653,31808
1654,32128
1655,32448
1656,32640
1657,32832
1658,33088
1659,33408
1660,33728
1661,33984
1662,34176
1663,34304
1664,34368
1665,34368
1666,34368
1667,34432
1668,34496
1669,34368
1670,34368
1671,34368
1672,34368
1673,34240
1674,34240
1675,34240
1676,34304
1677,34368
1678,34368
1679,34496
1680,34560
1681,34624
1682,34496
1683,34496
1684,34496
1685,34496
1686,34496
1687,34560
1688,34624
1689,34624
1690,34560
1691,34432
1692,34432
1693,34496
1694,34496
1695,34496
1696,34496
1697,34496
1698,34432
1699,34368
1700,34304
1701,34304
1702,34240
1703,34112
1704,34112
1705,34112
1706,34112
1707,34112
1708,33920
1709,33728
1710,33664
1711,33600
1712,33600
1713,33536
1714,33408
1715,33280
1716,33152
1717,33216
1718,33280
1719,33344
1720,33408
1721,33472
1722,33536
1723,33600
1724,33664
1725,33792
1726,33856
1727,33920
1728,34048
1729,34112
1730,33920
1731,33792
1732,33664
1733,33344
1734,33152
1735,33216
1736,33216
1737,33344
1738,33792
1739,34176
1740,34560
1741,34816
1742,34944
1743,34560
1744,34240
1745,34176
1746,34048
1747,33728
1748,33664
1749,33920
1750,34112
1751,33920
1752,33664
1753,33472
1754,33664
1755,34304
1756,34816
1757,34688
1758,34368
1759,34176
1760,34048
1761,34048
1762,34048
1763,34304
1764,34688
1765,35136
1766,35648
1767,35648
1768,35456
1769,35264
1770,35200
1771,35008
1772,34816
1773,34624
1774,34624
1775,34624
1776,34688
1777,34624
1778,34432
1779,34048
1780,33536
1781,33088
1782,33024
1783,33152
1784,33344
1785,33600
1786,33856
1787,33984
1788,33792
1789,33536
1790,33472
1791,33408
1792,33472
1793,33600
1794,33856
1795,34432
1796,35392
1797,37120
1798,39424
1799,41792
1800,43520
1801,43584
1802,41856
1803,39360
1804,36544
1805,33984
1806,32128
1807,31040
1808,30592
1809,30528
1810,30720
1811,31040
1812,31424
1813,31808
1814,31808
1815,32640
1816,32896
1817,33024
1818,32896
1819,32896
1820,33024
1821,33088
1822,33024
1823,32960
1824,32896
1825,32896
1826,33024
1827,33472
1828,33728
1829,33728
1830,33344
1831,33088
1832,33152
1833,33408
1834,33664
1835,33472
1836,33216
1837,33152
1838,33024
1839,33088
1840,33344
1841,33536
1842,33536
1843,33280
1844,33088
1845,33088
1846,33088
1847,33088
1848,33088
1849,33344
1850,33664
1851,33792
1852,33984
1853,34112
1854,34176
1855,34304
1856,34048
1857,33600
1858,33024
1859,32640
1860,32640
1861,32704
1862,32896
1863,33216
1864,33472
1865,33728
1866,34048
1867,34176
1868,34048
1869,33920
1870,33152
1871,33024
1872,32896
1873,32960
1874,32832
1875,32704
1876,32832
1877,33152
1878,33472
1879,33728
1880,33920
1881,33984
1882,33984
1883,34048
1884,33984
1885,33984
1886,34176
1887,34432
1888,34432
1889,34304
1890,34240
1891,34112
1892,33920
1893,33728
1894,33536
1895,33664
1896,33856
1897,33408
1898,32832
1899,32576
1900,32640
1901,32704
1902,32896
1903,33152
1904,33664
1905,33920
1906,33792
1907,33728
1908,33792
1909,33664
1910,33536
1911,33728
1912,34240
1913,34624
1914,34816
1915,34944
1916,34560
1917,33920
1918,33664
1919,33664
1920,33600
1921,33664
1922,33856
1923,33792
1924,33408
1925,33152
1926,33344
1927,33600
1928,33920
1929,34048
1930,33728
1931,33280
1932,32896
1933,32896
1934,33088
1935,33280
1936,33344
1937,33088
1938,32704
1939,32576
1940,32448
1941,32448
1942,32384
1943,32384
1944,32576
1945,32960
1946,33536
1947,33984
1948,34176
1949,34560
1950,35392
1951,36864
1952,38976
1953,41024
1954,42304
1955,42240
1956,40512
1957,38016
1958,35456
1959,33344
1960,31744
1961,30912
1962,30720
1963,30976
1964,31168
1965,31168
1966,31296
1967,31680
1968,32000
1969,32064
1970,32128
1971,32512
1972,32960
1973,32768
1974,32320
1975,32256
1976,32512
1977,32960
1978,33408
1979,33536
1980,33280
1981,32768
1982,32384
1983,32320
1984,32448
1985,32640
1986,32896
1987,33472
1988,33792
1989,33472
1990,33088
1991,32768
1992,32768
1993,33216
1994,33600
1995,33920
1996,34368
1997,34688
1998,34560
1999,33856
2000,33088
2001,32576
2002,32384
2003,32448
2004,32832
2005,33472
2006,33408
2007,32704
2008,32192
2009,32000
2010,32448
2011,33280
2012,33920
2013,33856
2014,33280
2015,32896
2016,32704
2017,32512
2018,32384
2019,32256
2020,32320
2021,32640
2022,33024
2023,33152
2024,33280
2025,33088
2026,32832
2027,32704
2028,32640
2029,32640
2030,33152
2031,33728
2032,33728
2033,32896
2034,32320
2035,32384
2036,32512
2037,32768
2038,33600
2039,33920
2040,33536
2041,33216
2042,33024
2043,32960
2044,33088
2045,33024
2046,33024
2047,33408
2048,33728
2049,33792
2050,33536
2051,33216
2052,33088
2053,33088
2054,33472
2055,33856
2056,33920
2057,33856
2058,33792
2059,33536
2060,33408
2061,33984
2062,34944
2063,34944
2064,33792
2065,32768
2066,32512
2067,32640
2068,32896
2069,32960
2070,33344
2071,33792
2072,33984
2073,34112
2074,34304
2075,34432
2076,34496
2077,34752
2078,35008
2079,35200
2080,34944
2081,34304
2082,33600
2083,33024
2084,32704
2085,32640
2086,32448
2087,32192
2088,32256
2089,32448
2090,32384
2091,32256
2092,32320
2093,32320
2094,32256
2095,32384
2096,32576
2097,32960
2098,33664
2099,33984
2100,33856
2101,33344
2102,33152
2103,33664
2104,34880
2105,36480
2106,38528
2107,40704
2108,42240
2109,42496
2110,41152
2111,38784
2112,36032
2113,33728
2114,32320
2115,31488
2116,31040
2117,31168
2118,31168
2119,31296
2120,31232
2121,31040
2122,31040
2123,31104
2124,31552
2125,31936
2126,32256
2127,32576
2128,32576
2129,32576
2130,32576
2131,32768
2132,32832
2133,32896
2134,33280
2135,33280
2136,32768
2137,32576
2138,32640
2139,32832
2140,32896
2141,33024
2142,33216
2143,33664
2144,34176
2145,34048
2146,33728
2147,33600
2148,33472
2149,33472
2150,33600
2151,33920
2152,34176
2153,34048
2154,33984
2155,33856
2156,33920
2157,34048
2158,34112
2159,33984
2160,33856
2161,33920
2162,34112
2163,34368
2164,34560
2165,34560
2166,34304
2167,33920
2168,33664
2169,33536
2170,33536
2171,33536
2172,33664
2173,33856
2174,33984
2175,33920
2176,33792
2177,33728
2178,33792
2179,33920
2180,33984
2181,33920
2182,34048
2183,34560
2184,34752
2185,34560
2186,34304
2187,34368
2188,34432
2189,34112
2190,33664
2191,33408
2192,33344
2193,33408
2194,33536
2195,33792
2196,33984
2197,34240
2198,34496
2199,34816
2200,34816
2201,34624
2202,34624
2203,34752
2204,34688
2205,34560
2206,34432
2207,34176
2208,34048
2209,34048
2210,34176
2211,34240
2212,33984
2213,33856
2214,33920
2215,33856
2216,33600
2217,33280
2218,33152
2219,33216
2220,33728
2221,34112
2222,34048
2223,33984
2224,34048
2225,34112
2226,34176
2227,34304
2228,34368
2229,34496
2230,34560
2231,34688
2232,34816
2233,34880
2234,34944
2235,34880
2236,34496
2237,33984
2238,33792
2239,33920
2240,33728
2241,33344
2242,33216
2243,33024
2244,32768
2245,32448
2246,32448
2247,32768
2248,33216
2249,33344
2250,33088
2251,33024
2252,32960
2253,32704
2254,32512
2255,32448
2256,32512
2257,32960
2258,33408
2259,33856
2260,34432
2261,35520
2262,37312
2263,40128
2264,42560
2265,44032
2266,43456
2267,41088
2268,38208
2269,35392
2270,33088
2271,31616
2272,30848
2273,30528
2274,30720
2275,31296
2276,31616
2277,31552
2278,31424
2279,31488
2280,31808
2281,32000
2282,32064
2283,32064
2284,32192
2285,32448
2286,32640
2287,32704
2288,32896
2289,33088
2290,33216
2291,33344
2292,33408
2293,33472
2294,33664
2295,33920
2296,34112
2297,34048
2298,33984
2299,33984
2300,33536
2301,33088
2302,33280
2303,33344
2304,33216
2305,33216
2306,33408
2307,33728
2308,33664
2309,33600
2310,33664
2311,33792
2312,33984
2313,34112
2314,34240
2315,34432
2316,34624
2317,34560
2318,34304
2319,34176
2320,33920
2321,33920
2322,33792
2323,33856
2324,34048
2325,33920
2326,33984
2327,33856
2328,33408
2329,33088
2330,33024
2331,32960
2332,32960
2333,33088
2334,33280
2335,33664
2336,33920
2337,33536
2338,33088
2339,32896
2340,32896
2341,33088
2342,33536
2343,33728
2344,33728
2345,33664
2346,33600
2347,33664
2348,33664
2349,33536
2350,33536
2351,33664
2352,33728
2353,33920
2354,34112
2355,34176
2356,33920
2357,33600
2358,33792
2359,34432
2360,34176
2361,33536
2362,33152
2363,33216
2364,33280
2365,33216
2366,33216
2367,33344
2368,33600
2369,33728
2370,33664
2371,33664
2372,33600
2373,33472
2374,33408
2375,33344
2376,33536
2377,33920
2378,34240
2379,34240
2380,34048
2381,33856
2382,33984
2383,33984
2384,33984
2385,33984
2386,33984
2387,34112
2388,34240
2389,34496
2390,34752
2391,34752
2392,34624
2393,34496
2394,34496
2395,34496
2396,34240
2397,33792
2398,33536
2399,33280
2400,33152
2401,33152
2402,33024
2403,33024
2404,33216
2405,33408
2406,33408
2407,33344
2408,33216
2409,33152
2410,33152
2411,33216
2412,33280
2413,33280
2414,33344
2415,33600
2416,34304
2417,35328
2418,36672
2419,38528
2420,40768
2421,43008
2422,43904
2423,43200
2424,41024
2425,38272
2426,35648
2427,33728
2428,32256
2429,31232
2430,30656
2431,30464
2432,30656
2433,30976
2434,31360
2435,31808
2436,32192
2437,32448
2438,32768
2439,33088
2440,33408
2441,33600
2442,33664
2443,33600
2444,33472
2445,33408
2446,33408
2447,33472
2448,33536
2449,33600
2450,33600
2451,33664
2452,33920
2453,34304
2454,34560
2455,34368
2456,33856
2457,33536
2458,33408
2459,33472
2460,33472
2461,33600
2462,33728
2463,33920
2464,34112
2465,34240
2466,34176
2467,34112
2468,34176
2469,34368
2470,34432
2471,34432
2472,34432
2473,34432
2474,34432
2475,34496
2476,34752
2477,34880
2478,34624
2479,34240
2480,33856
2481,33600
2482,33536
2483,33600
2484,33664
2485,33792
2486,33920
2487,33920
2488,33856
2489,33728
2490,33600
2491,33536
2492,33600
2493,33856
2494,34176
2495,34304
2496,34112
2497,33792
2498,33600
2499,33472
2500,33216
2501,32832
2502,32768
2503,32768
2504,32896
2505,33216
2506,33536
2507,33600
2508,33792
2509,34048
2510,34112
2511,34048
2512,33920
2513,34048
2514,34240
2515,34176
2516,33856
2517,33792
2518,33664
2519,33472
2520,33408
2521,33472
2522,33536
2523,33408
2524,33280
2525,33280
2526,33344
2527,33408
2528,33472
2529,33536
2530,33600
2531,33856
2532,33984
2533,33984
2534,34048
2535,34176
2536,34240
2537,34304
2538,34432
2539,34432
2540,34240
2541,34048
2542,34048
2543,34112
2544,34112
2545,34176
2546,34304
2547,34304
2548,34048
2549,33728
2550,33408
2551,33280
2552,33152
2553,33088
2554,33088
2555,33024
2556,32896
2557,32768
2558,32640
2559,32576
2560,32768
2561,32896
2562,32832
2563,32768
2564,32768
2565,32704
2566,32768
2567,33024
2568,33664
2569,34688
2570,36096
2571,38144
2572,40512
2573,42432
2574,43328
2575,42496
2576,40384
2577,37760
2578,34880
2579,32384
2580,30848
2581,30144
2582,29952
2583,30080
2584,30464
2585,30976
2586,31424
2587,31872
2588,32192
2589,32448
2590,32768
2591,32960
2592,33088
2593,33088
2594,33024
2595,32896
2596,32896
2597,33024
2598,33152
2599,33088
2600,32960
2601,32832
2602,32896
2603,33088
2604,33280
2605,33344
2606,33408
2607,33344
2608,33408
2609,33600
2610,33792
2611,33728
2612,33664
2613,33728
2614,33856
2615,33984
2616,34048
2617,34112
2618,34048
2619,33920
2620,33856
2621,33920
2622,33856
2623,33728
2624,33600
2625,33664
2626,33728
2627,33856
2628,33792
2629,33728
2630,33792
2631,33984
2632,33984
2633,33856
2634,33792
2635,33600
2636,33472
2637,33472
2638,33472
2639,33600
2640,33856
2641,33792
2642,33536
2643,33344
2644,33280
2645,33152
2646,33088
2647,33088
2648,33024
2649,33024
2650,33152
2651,33344
2652,33600
2653,33600
2654,33472
2655,33536
2656,33600
2657,33600
2658,33600
2659,33664
2660,33792
2661,33856
2662,33856
2663,33856
2664,33664
2665,33600
2666,33536
2667,33536
2668,33600
2669,33600
2670,33600
2671,33536
2672,33536
2673,33536
2674,33536
2675,33472
2676,33408
2677,33472
2678,33472
2679,33472
2680,33536
2681,33600
2682,33728
2683,33664
2684,33600
2685,33728
2686,33920
2687,33856
2688,33664
2689,33536
2690,33600
2691,33856
2692,34176
2693,34176
2694,34048
2695,34048
2696,34176
2697,34432
2698,34560
2699,34560
2700,34560
2701,34496
2702,34496
2703,34560
2704,34304
2705,33984
2706,33600
2707,33216
2708,32960
2709,32896
2710,32832
2711,32768
2712,32704
2713,32832
2714,32960
2715,33024
2716,33152
2717,33152
2718,33216
2719,33280
2720,33344
2721,33280
2722,33088
2723,33024
2724,33216
2725,33920
2726,35008
2727,36544
2728,38528
2729,40896
2730,43072
2731,44096
2732,43264
2733,40896
2734,37824
2735,34880
2736,32576
2737,31104
2738,30400
2739,30272
2740,30464
2741,30784
2742,30976
2743,31168
2744,31488
2745,31808
2746,32064
2747,32384
2748,32640
2749,32768
2750,32960
2751,33024
2752,32960
2753,32896
2754,32960
2755,33024
2756,33216
2757,33344
2758,33408
2759,33408
2760,33408
2761,33344
2762,33280
2763,33280
2764,33280
2765,33344
2766,33344
2767,33408
2768,33536
2769,33792
2770,33920
2771,33856
2772,33920
2773,34048
2774,34048
2775,33920
2776,33792
2777,33728
2778,33856
2779,33984
2780,33984
2781,33856
2782,33728
2783,33728
2784,33728
2785,33664
2786,33792
2787,33792
2788,33792
2789,33920
2790,34048
2791,34112
2792,34048
2793,33984
2794,33792
2795,33792
2796,33856
2797,33856
2798,33728
2799,33472
2800,33152
2801,33088
2802,33088
2803,33152
2804,33152
2805,33152
2806,33024
2807,32960
2808,33024
2809,33152
2810,33344
2811,33472
2812,33536
2813,33600
2814,33728
2815,33920
2816,33984
2817,33792
2818,33728
2819,33600
2820,33536
2821,33472
2822,33472
2823,33408
2824,33472
2825,33472
2826,33600
2827,33728
2828,33728
2829,33664
2830,33664
2831,33792
2832,33664
2833,33344
2834,33152
2835,33280
2836,33472
2837,33664
2838,33600
2839,33472
2840,33344
2841,33280
2842,33344
2843,33472
2844,33472
2845,33344
2846,33280
2847,33280
2848,33408
2849,33664
2850,33792
2851,33920
2852,34240
2853,34496
2854,34496
2855,34432
2856,34368
2857,34560
2858,34496
2859,34304
2860,34176
2861,34112
2862,33984
2863,33792
2864,33600
2865,33472
2866,33280
2867,33152
2868,33088
2869,33088
2870,33024
2871,33024
2872,33088
2873,33088
2874,33088
2875,32960
2876,32832
2877,32832
2878,32960
2879,33024
2880,33152
2881,33216
2882,33152
2883,33088
2884,33216
2885,33664
2886,34496
2887,35776
2888,37696
2889,40128
2890,42624
2891,44160
2892,43904
2893,41792
2894,38848
2895,35840
2896,33216
2897,31360
2898,30336
2899,30016
2900,30208
2901,30464
2902,30656
2903,30976
2904,31360
2905,31872
2906,32256
2907,32448
2908,32576
2909,32768
2910,32960
2911,33088
2912,33024
2913,33024
2914,33216
2915,33344
2916,33408
2917,33280
2918,33088
2919,33024
2920,33024
2921,33024
2922,33152
2923,33344
2924,33472
2925,33536
2926,33600
2927,33664
2928,33728
2929,33792
2930,33792
2931,33856
2932,33920
2933,33984
2934,34048
2935,34176
2936,34368
2937,34304
2938,34240
2939,34240
2940,34304
2941,34368
2942,34176
2943,33920
2944,33792
2945,33792
2946,33792
2947,33728
2948,33600
2949,33536
2950,33600
2951,33664
2952,33792
2953,33856
2954,33984
2955,34112
2956,34240
2957,34048
2958,33728
2959,33472
2960,33280
2961,33152
2962,33024
2963,33024
2964,33088
2965,33280
2966,33472
2967,33536
2968,33536
2969,33600
2970,33472
2971,33344
2972,33344
2973,33472
2974,33408
2975,33408
2976,33472
2977,33472
2978,33472
2979,33344
2980,33344
2981,33536
2982,33600
2983,33664
2984,33792
2985,33792
2986,33600
2987,33344
2988,33152
2989,33024
2990,33024
2991,33024
2992,33088
2993,33216
2994,33280
2995,33280
2996,33216
2997,33152
2998,33216
2999,33280
3000,33216
3001,33216
3002,33088
3003,33152
3004,33152
3005,33216
3006,33344
3007,33408
3008,33472
3009,33472
3010,33664
3011,33920
3012,34048
3013,34048
3014,34048
3015,34176
3016,34176
3017,34240
3018,34176
3019,34176
3020,34240
3021,34304
3022,34240
3023,34240
3024,34304
3025,34176
3026,34048
3027,33984
3028,33984
3029,33920
3030,33856
3031,33728
3032,33664
3033,33664
3034,33600
3035,33600
3036,33728
3037,33600
3038,33408
3039,33536
3040,33792
3041,34240
3042,34240
3043,33664
3044,33088
3045,33088
3046,34112
3047,36032
3048,38464
3049,40896
3050,42752
3051,44160
3052,43968
3053,41920
3054,38912
3055,36032
3056,33728
3057,32064
3058,31424
3059,31360
3060,31872
3061,32704
3062,32640
3063,31872
3064,31616
3065,32000
3066,32320
3067,32384
3068,32512
3069,32576
3070,32640
3071,32448
3072,32448
3073,32832
3074,33472
3075,34176
3076,34368
3077,34368
3078,34368
3079,34240
3080,34112
3081,34176
3082,34240
3083,33984
3084,33856
3085,33792
3086,33728
3087,33600
3088,33472
3089,33344
3090,33472
3091,33920
3092,34240
3093,34112
3094,34112
3095,34304
3096,34048
3097,33728
3098,33792
3099,34112
3100,34240
3101,34560
3102,34880
3103,35008
3104,34880
3105,35072
3106,35136
3107,34944
3108,34624
3109,34240
3110,33792
3111,33472
3112,33280
3113,33344
3114,33536
3115,33792
3116,33984
3117,34048
3118,34048
3119,34176
3120,33984
3121,33536
3122,33280
3123,33088
3124,33024
3125,33088
3126,33280
3127,33664
3128,34112
3129,34112
3130,33600
3131,33408
3132,33664
3133,34112
3134,34176
3135,33792
3136,33536
3137,33280
3138,33344
3139,33792
3140,34304
3141,34496
3142,34368
3143,34048
3144,33600
3145,33216
3146,32832
3147,32896
3148,33472
3149,34048
3150,34176
3151,33856
3152,33472
3153,33152
3154,33152
3155,33664
3156,34112
3157,34240
3158,34048
3159,33792
3160,33664
3161,33728
3162,33792
3163,33920
3164,34048
3165,34176
3166,34304
3167,33984
3168,33664
3169,33664
3170,33984
3171,34304
3172,34304
3173,34304
3174,34624
3175,34432
3176,34112
3177,34048
3178,34112
3179,34112
3180,34048
3181,33984
3182,33664
3183,33152
3184,32768
3185,32576
3186,32576
3187,32896
3188,33152
3189,33280
3190,33216
3191,33088
3192,33280
3193,33664
3194,33792
3195,33472
3196,33344
3197,33024
3198,32640
3199,32576
3200,32832
3201,33664
3202,34752
3203,36480
3204,38720
3205,40960
3206,42368
3207,42240
3208,40832
3209,38656
3210,36416
3211,34432
3212,32960
3213,31808
3214,31232
3215,31360
3216,31744
3217,31744
3218,31680
3219,31808
3220,32064
3221,32192
3222,32128
3223,32064
3224,32256
3225,32832
3226,33280
3227,33472
3228,33728
3229,33664
3230,33408
3231,33216
3232,33216
3233,33280
3234,33344
3235,33472
3236,33536
3237,33472
3238,33600
3239,34048
3240,34496
3241,34496
3242,34176
3243,33856
3244,33920
3245,34048
3246,33920
3247,33664
3248,33344
3249,33088
3250,33088
3251,33088
3252,33408
3253,33792
3254,34112
3255,34304
3256,34432
3257,34496
3258,34368
3259,34304
3260,34368
3261,34112
3262,33856
3263,33856
3264,33984
3265,34112
3266,34304
3267,34112
3268,33792
3269,33600
3270,33792
3271,33792
3272,33600
3273,33280
3274,33024
3275,33024
3276,33152
3277,33216
3278,33344
3279,33472
3280,33600
3281,33664
3282,33664
3283,33280
3284,32960
3285,33024
3286,33216
3287,33344
3288,33600
3289,33728
3290,33600
3291,33344
3292,33344
3293,33536
3294,33664
3295,33856
3296,33984
3297,33792
3298,33664
3299,33792
3300,33792
3301,33664
3302,33664
3303,33792
3304,33600
3305,33728
3306,33728
3307,33344
3308,33024
3309,32704
3310,32512
3311,32448
3312,32576
3313,33152
3314,33728
3315,33856
3316,33920
3317,33792
3318,33792
3319,33984
3320,34112
3321,34048
3322,33792
3323,33984
3324,34240
3325,34368
3326,33984
3327,33664
3328,33664
3329,33792
3330,33984
3331,34176
3332,33984
3333,33920
3334,33856
3335,33792
3336,33920
3337,34368
3338,34816
3339,34816
3340,34496
3341,33792
3342,33088
3343,32640
3344,32256
3345,32192
3346,32256
3347,32448
3348,32576
3349,32576
3350,32576
3351,32640
3352,32512
3353,32384
3354,32320
3355,32448
3356,32512
3357,32768
3358,33216
3359,33792
3360,34560
3361,35712
3362,37568
3363,40064
3364,42432
3365,43648
3366,42944
3367,40704
3368,37760
3369,34880
3370,32640
3371,31104
3372,30336
3373,30144
3374,30272
3375,30528
3376,30912
3377,31296
3378,31744
3379,32192
3380,32832
3381,33216
3382,33216
3383,33024
3384,32832
3385,32704
3386,32576
3387,32512
3388,32576
3389,32704
3390,32832
3391,33088
3392,33280
3393,33344
3394,33664
3395,33920
3396,33792
3397,33600
3398,33216
3399,32768
3400,32512
3401,32384
3402,32448
3403,32704
3404,32960
3405,33280
3406,33600
3407,33856
3408,33984
3409,33984
3410,34048
3411,34176
3412,34048
3413,33792
3414,33344
3415,32960
3416,32768
3417,32576
3418,32256
3419,32256
3420,32704
3421,33408
3422,34112
3423,34432
3424,33856
3425,33088
3426,33152
3427,33280
3428,32768
3429,31936
3430,31168
3431,30848
3432,30912
3433,31232
3434,31808
3435,32448
3436,33152
3437,33600
3438,33856
3439,33920
3440,33984
3441,33664
3442,32896
3443,32128
3444,31744
3445,31680
3446,31872
3447,32000
3448,31936
3449,31744
3450,31680
3451,31808
3452,32000
3453,32384
3454,32704
3455,32960
3456,33088
3457,33088
3458,33024
3459,32896
3460,32832
3461,32832
3462,32832
3463,32896
3464,32960
3465,33088
3466,33344
3467,33536
3468,33664
3469,33984
3470,34880
3471,35776
3472,35648
3473,34560
3474,33856
3475,33536
3476,33344
3477,33344
3478,33408
3479,33472
3480,33472
3481,33728
3482,34112
3483,34368
3484,34560
3485,34816
3486,35200
3487,35584
3488,35904
3489,36416
3490,36544
3491,36544
3492,37056
3493,37568
3494,37056
3495,35584
3496,34304
3497,33472
3498,33152
3499,33216
3500,33472
3501,33600
3502,33664
3503,33728
3504,33728
3505,33728
3506,33664
3507,33664
3508,33664
3509,33664
3510,33664
3511,33728
3512,33728
3513,33728
3514,33728
3515,33792
3516,33792
3517,33728
3518,33664
3519,33600
3520,33600
3521,33920
3522,34560
3523,35712
3524,37376
3525,39680
3526,42240
3527,44224
3528,44416
3529,42752
3530,39872
3531,36800
3532,34112
3533,32320
3534,31168
3535,30656
3536,30528
3537,30656
3538,30912
3539,31168
3540,31616
3541,31936
3542,32256
3543,32448
3544,32704
3545,32896
3546,33024
3547,33024
3548,33024
3549,33024
3550,33024
3551,32960
3552,33024
3553,33024
3554,33088
3555,33088
3556,33024
3557,33088
3558,33152
3559,33216
3560,33216
3561,33280
3562,33344
3563,33344
3564,33344
3565,33408
3566,33408
3567,33472
3568,33472
3569,33536
3570,33600
3571,33664
3572,33664
3573,33664
3574,33728
3575,33792
3576,33792
3577,33792
3578,33856
3579,33856
3580,33856
3581,33728
3582,33728
3583,33600
3584,33536
3585,33472
3586,33600
3587,33664
3588,33600
3589,33472
3590,33408
3591,33472
3592,33472
3593,33408
3594,33344
3595,33344
3596,33280
3597,33216
3598,33088
3599,33024
3600,33024
3601,32960
3602,32960
3603,33024
3604,33152
3605,33152
3606,33152
3607,33152
3608,33216
3609,33152
3610,33152
3611,33216
3612,33408
3613,33472
3614,33472
3615,33600
3616,33664
3617,33664
3618,33792
3619,33664
3620,33600
3621,33472
3622,33472
3623,33472
3624,33408
3625,33408
3626,33408
3627,33472
3628,33600
3629,33664
3630,33792
3631,33856
3632,33792
3633,33600
3634,33344
3635,33152
3636,33152
3637,33088
3638,33088
3639,33216
3640,33152
3641,32960
3642,32832
3643,32960
3644,33152
3645,33408
3646,33600
3647,33792
3648,33984
3649,34112
3650,34240
3651,34368
3652,34304
3653,34432
3654,34496
3655,34496
3656,34432
3657,34176
3658,33984
3659,33792
3660,33536
3661,33344
3662,33216
3663,33152
3664,33024
3665,32960
3666,32896
3667,32832
3668,32896
3669,33024
3670,33088
3671,33152
3672,33280
3673,33408
3674,33472
3675,33472
3676,33280
3677,33088
3678,32960
3679,33088
3680,33664
3681,34624
3682,36032
3683,38016
3684,40384
3685,42496
3686,43392
3687,42560
3688,40384
3689,37632
3690,35008
3691,32896
3692,31552
3693,30848
3694,30656
3695,30656
3696,30848
3697,31104
3698,31424
3699,31744
3700,32064
3701,32320
3702,32704
3703,33216
3704,33472
3705,33344
3706,33152
3707,33024
3708,32960
3709,32960
3710,33024
3711,33152
3712,33216
3713,33152
3714,33216
3715,33280
3716,33408
3717,33472
3718,33536
3719,33664
3720,33792
3721,33920
3722,33856
3723,33856
3724,33792
3725,33728
3726,33792
3727,33856
3728,33856
3729,33792
3730,33856
3731,33920
3732,34048
3733,34112
3734,34112
3735,34176
3736,34240
3737,34176
3738,34048
3739,33984
3740,33984
3741,33920
3742,33792
3743,33728
3744,33728
3745,33792
3746,33856
3747,33920
3748,34048
3749,34112
3750,34048
3751,34048
3752,33920
3753,33792
3754,33600
3755,33408
3756,33408
3757,33408
3758,33408
3759,33472
3760,33536
3761,33472
3762,33344
3763,33280
3764,33280
3765,33408
3766,33536
3767,33600
3768,33664
3769,33728
3770,33664
3771,33600
3772,33600
3773,33600
3774,33664
3775,33664
3776,33664
3777,33728
3778,33728
3779,33728
3780,33664
3781,33664
3782,33792
3783,33792
3784,33728
3785,33600
3786,33472
3787,33408
3788,33600
3789,33792
3790,33664
3791,33408
3792,33216
3793,33088
3794,33088
3795,33216
3796,33344
3797,33600
3798,33792
3799,33984
3800,34048
3801,34048
3802,34176
3803,34240
3804,34304
3805,34368
3806,34496
3807,34496
3808,34368
3809,34304
3810,34304
3811,34304
3812,34112
3813,33728
3814,33280
3815,33024
3816,32832
3817,32640
3818,32640
3819,32640
3820,32704
3821,32768
3822,32832
3823,33024
3824,33152
3825,33152
3826,33024
3827,32896
3828,32768
3829,32640
3830,32704
3831,32960
3832,33792
3833,34944
3834,36544
3835,38720
3836,40960
3837,42560
3838,42752
3839,41408
3840,39104
3841,36288
3842,33920
3843,32000
3844,30848
3845,30400
3846,30336
3847,30464
3848,30784
3849,31104
3850,31424
3851,31744
3852,32064
3853,32384
3854,32512
3855,32576
3856,32704
3857,32896
3858,33088
3859,33216
3860,33280
3861,33216
3862,33088
3863,32960
3864,32896
3865,32960
3866,33088
3867,33152
3868,33280
3869,33408
3870,33472
3871,33536
3872,33536
3873,33600
3874,33536
3875,33472
3876,33472
3877,33600
3878,33664
3879,33664
3880,33664
3881,33728
3882,33792
3883,33792
3884,33792
3885,33792
3886,33792
3887,33792
3888,33728
3889,33728
3890,33792
3891,33792
3892,33792
3893,33792
3894,33792
3895,33728
3896,33664
3897,33728
3898,33792
3899,33856
3900,33920
3901,33920
3902,33856
3903,33664
3904,33472
3905,33344
3906,33216
3907,33152
3908,33024
3909,32960
3910,32896
3911,33024
3912,33088
3913,33088
3914,33088
3915,33088
3916,33216
3917,33280
3918,33280
3919,33344
3920,33344
3921,33344
3922,33408
3923,33472
3924,33536
3925,33472
3926,33408
3927,33408
3928,33408
3929,33408
3930,33408
3931,33408
3932,33408
3933,33344
3934,33280
3935,33344
3936,33408
3937,33344
3938,33344
3939,33344
3940,33344
3941,33280
3942,33216
3943,33152
3944,33216
3945,33216
3946,33280
3947,33280
3948,33280
3949,33344
3950,33344
3951,33472
3952,33664
3953,33856
3954,33984
3955,34048
3956,34048
3957,34176
3958,34304
3959,34304
3960,34304
3961,34368
3962,34304
3963,34240
3964,34240
3965,34176
3966,34112
3967,33792
3968,33472
3969,33152
3970,32896
3971,32768
3972,32576
3973,32576
3974,32576
3975,32704
3976,32832
3977,32960
3978,33024
3979,33024
3980,32960
3981,33024
3982,33024
3983,33024
3984,32960
3985,33024
3986,33344
3987,33984
3988,34944
3989,36480
3990,38400
3991,40896
3992,42944
3993,43648
3994,42560
3995,40064
3996,37120
3997,34368
3998,32320
3999,31104
4000,30464
4001,30272
4002,30400
4003,30656
4004,30976
4005,31360
4006,31680
4007,32064
4008,32320
4009,32640
4010,32832
4011,33024
4012,33088
4013,33024
4014,33024
4015,33024
4016,33088
4017,33152
4018,33152
4019,33216
4020,33216
4021,33280
4022,33344
4023,33408
4024,33472
4025,33472
4026,33472
4027,33472
4028,33536
4029,33664
4030,33728
4031,33728
4032,33792
4033,33856
4034,33920
4035,33920
4036,33984
4037,33984
4038,33920
4039,33920
4040,34048
4041,34112
4042,34112
4043,34048
4044,34048
4045,33984
4046,33920
4047,33856
4048,33856
4049,33856
4050,33856
4051,33856
4052,33856
4053,33856
4054,33856
4055,33920
4056,33920
4057,33920
4058,33856
4059,33664
4060,33536
4061,33536
4062,33536
4063,33408
4064,33216
4065,33152
4066,33152
4067,33152
4068,33216
4069,33344
4070,33472
4071,33536
4072,33536
4073,33536
4074,33536
4075,33536
4076,33472
4077,33472
4078,33536
4079,33600
4080,33664
4081,33664
4082,33728
4083,33728
4084,33728
4085,33728
4086,33792
4087,33728
4088,33664
4089,33664
4090,33600
4091,33600
4092,33536
4093,33536
4094,33536
4095,33536
4096,33536
4097,33472
4098,33472
4099,33472
4100,33536
4101,33536
4102,33600
4103,33600
4104,33600
4105,33536
4106,33600
4107,33728
4108,33920
4109,34048
4110,34112
4111,34176
4112,34176
4113,34176
4114,34304
4115,34368
4116,34368
4117,34432
4118,34432
4119,34432
4120,34432
4121,34432
4122,34304
4123,34048
4124,33664
4125,33344
4126,33088
4127,32896
4128,32832
4129,32832
4130,32768
4131,32768
4132,32832
4133,32896
4134,32960
4135,33088
4136,33152
4137,33152
4138,33152
4139,33024
4140,32960
4141,33024
4142,33280
4143,33984
4144,35072
4145,36608
4146,38912
4147,41216
4148,43328
4149,44096
4150,42944
4151,40192
4152,37312
4153,34560
4154,32448
4155,31168
4156,30464
4157,30272
4158,30400
4159,30592
4160,30912
4161,31360
4162,31808
4163,32128
4164,32320
4165,32512
4166,32640
4167,32768
4168,32832
4169,32960
4170,33088
4171,33152
4172,33216
4173,33280
4174,33344
4175,33408
4176,33472
4177,33472
4178,33408
4179,33408
4180,33344
4181,33344
4182,33408
4183,33472
4184,33472
4185,33536
4186,33600
4187,33664
4188,33728
4189,33792
4190,33856
4191,33984
4192,34048
4193,34112
4194,34112
4195,34176
4196,34176
4197,34112
4198,34048
4199,34048
4200,34048
4201,33920
4202,33856
4203,33856
4204,33856
4205,33792
4206,33792
4207,33728
4208,33728
4209,33664
4210,33664
4211,33792
4212,33792
4213,33728
4214,33728
4215,33664
4216,33536
4217,33472
4218,33344
4219,33280
4220,33216
4221,33216
4222,33152
4223,33216
4224,33344
4225,33408
4226,33408
4227,33408
4228,33536
4229,33600
4230,33600
4231,33664
4232,33664
4233,33664
4234,33600
4235,33600
4236,33600
4237,33600
4238,33600
4239,33536
4240,33600
4241,33600
4242,33600
4243,33536
4244,33472
4245,33536
4246,33536
4247,33472
4248,33472
4249,33472
4250,33472
4251,33472
4252,33472
4253,33472
4254,33472
4255,33472
4256,33472
4257,33536
4258,33600
4259,33536
4260,33536
4261,33600
4262,33600
4263,33600
4264,33728
4265,33856
4266,34048
4267,34240
4268,34304
4269,34368
4270,34368
4271,34496
4272,34496
4273,34560
4274,34624
4275,34624
4276,34560
4277,34432
4278,34432
4279,34304
4280,34048
4281,33792
4282,33536
4283,33344
4284,33152
4285,33088
4286,33088
4287,33024
4288,33024
4289,33024
4290,33088
4291,33216
4292,33216
4293,33280
4294,33344
4295,33408
4296,33344
4297,33152
4298,33088
4299,33344
4300,33920
4301,34880
4302,36352
4303,38080
4304,40512
4305,42752
4306,43968
4307,43392
4308,41216
4309,38336
4310,35520
4311,33280
4312,31744
4313,30976
4314,30720
4315,30720
4316,30976
4317,31296
4318,31552
4319,31936
4320,32320
4321,32640
4322,32896
4323,33088
4324,33216
4325,33344
4326,33344
4327,33408
4328,33472
4329,33472
4330,33408
4331,33344
4332,33408
4333,33536
4334,33536
4335,33536
4336,33600
4337,33664
4338,33664
4339,33728
4340,33728
4341,33792
4342,33856
4343,33856
4344,33920
4345,33984
4346,33984
4347,33984
4348,34048
4349,34112
4350,34176
4351,34240
4352,34304
4353,34304
4354,34304
4355,34240
4356,34176
4357,34176
4358,34176
4359,34176
4360,34112
4361,34048
4362,34048
4363,33920
4364,33920
4365,33984
4366,34048
4367,34048
4368,34048
4369,34048
4370,33984
4371,33856
4372,33664
4373,33600
4374,33536
4375,33472
4376,33344
4377,33344
4378,33280
4379,33280
4380,33280
4381,33344
4382,33472
4383,33472
4384,33472
4385,33472
4386,33536
4387,33664
4388,33728
4389,33664
4390,33664
4391,33664
4392,33664
4393,33664
4394,33664
4395,33728
4396,33728
4397,33792
4398,33856
4399,33920
4400,33856
4401,33792
4402,33728
4403,33792
4404,33792
4405,33792
4406,33792
4407,33856
4408,33920
4409,33792
4410,33664
4411,33600
4412,33472
4413,33408
4414,33472
4415,33664
4416,33856
4417,33984
4418,34112
4419,34176
4420,34176
4421,34304
4422,34368
4423,34496
4424,34560
4425,34560
4426,34560
4427,34496
4428,34560
4429,34496
4430,34304
4431,33984
4432,33600
4433,33408
4434,33152
4435,33024
4436,32960
4437,32960
4438,32896
4439,32896
4440,32960
4441,33088
4442,33216
4443,33216
4444,33280
4445,33216
4446,33088
4447,32960
4448,32896
4449,33152
4450,33728
4451,34688
4452,35968
4453,37888
4454,40128
4455,42112
4456,43008
4457,42240
4458,40256
4459,37568
4460,35008
4461,32896
4462,31552
4463,30848
4464,30592
4465,30656
4466,30848
4467,31168
4468,31488
4469,31808
4470,32128
4471,32320
4472,32512
4473,32704
4474,32896
4475,33024
4476,33088
4477,33152
4478,33152
4479,33280
4480,33280
4481,33280
4482,33344
4483,33344
4484,33408
4485,33408
4486,33408
4487,33408
4488,33408
4489,33408
4490,33472
4491,33536
4492,33600
4493,33664
4494,33856
4495,33984
4496,33984
4497,33984
4498,33920
4499,33984
4500,33984
4501,33984
4502,33984
4503,34048
4504,34048
4505,33984
4506,33984
4507,33984
4508,33984
4509,33920
4510,33856
4511,33792
4512,33792
4513,33728
4514,33728
4515,33728
4516,33792
4517,33728
4518,33728
4519,33728
4520,33728
4521,33664
4522,33536
4523,33472
4524,33408
4525,33344
4526,33280
4527,33280
4528,33216
4529,33280
4530,33216
4531,33216
4532,33152
4533,33152
4534,33152
4535,33216
4536,33280
4537,33344
4538,33408
4539,33344
4540,33408
4541,33472
4542,33536
4543,33536
4544,33536
4545,33536
4546,33536
4547,33536
4548,33536
4549,33536
4550,33600
4551,33664
4552,33664
4553,33600
4554,33600
4555,33536
4556,33600
4557,33600
4558,33536
4559,33472
4560,33408
4561,33472
4562,33536
4563,33600
4564,33664
4565,33728
4566,33856
4567,33920
4568,33920
4569,34048
4570,34240
4571,34368
4572,34432
4573,34432
4574,34432
4575,34432
4576,34368
4577,34304
4578,34112
4579,33856
4580,33536
4581,33280
4582,33088
4583,32960
4584,32832
4585,32640
4586,32640
4587,32640
4588,32704
4589,32768
4590,32896
4591,33088
4592,33088
4593,33088
4594,33024
4595,32960
4596,32896
4597,32960
4598,33344
4599,34304
4600,35456
4601,37184
4602,39424
4603,41728
4604,43264
4605,43072
4606,41280
4607,38592
4608,35776
4609,33408
4610,31680
4611,30720
4612,30272
4613,30272
4614,30400
4615,30720
4616,31104
4617,31552
4618,31872
4619,32128
4620,32384
4621,32512
4622,32576
4623,32704
4624,32832
4625,32960
4626,33024
4627,33088
4628,33088
4629,33152
4630,33152
4631,33152
4632,33216
4633,33280
4634,33280
4635,33280
4636,33280
4637,33344
4638,33408
4639,33472
4640,33536
4641,33600
4642,33600
4643,33664
4644,33664
4645,33728
4646,33792
4647,33792
4648,33856
4649,33920
4650,33920
4651,33920
4652,33856
4653,33856
4654,33856
4655,33856
4656,33792
4657,33792
4658,33792
4659,33792
4660,33664
4661,33664
4662,33728
4663,33728
4664,33728
4665,33664
4666,33664
4667,33664
4668,33600
4669,33600
4670,33600
4671,33600
4672,33536
4673,33344
4674,33216
4675,33152
4676,33088
4677,32960
4678,33024
4679,33088
4680,33088
4681,33152
4682,33216
4683,33280
4684,33344
4685,33408
4686,33472
4687,33536
4688,33536
4689,33536
4690,33536
4691,33600
4692,33472
4693,33408
4694,33408
4695,33472
4696,33472
4697,33472
4698,33472
4699,33536
4700,33600
4701,33536
4702,33472
4703,33472
4704,33472
4705,33472
4706,33472
4707,33472
4708,33472
4709,33472
4710,33472
4711,33600
4712,33664
4713,33728
4714,33856
4715,33984
4716,34112
4717,34112
4718,34112
4719,34176
4720,34240
4721,34368
4722,34432
4723,34432
4724,34368
4725,34304
4726,34240
4727,34112
4728,33920
4729,33664
4730,33344
4731,33088
4732,32960
4733,32832
4734,32768
4735,32704
4736,32704
4737,32832
4738,32960
4739,32960
4740,33024
4741,33088
4742,33088
4743,33024
4744,32896
4745,32832
4746,32768
4747,32896
4748,33472
4749,34560
4750,35904
4751,37824
4752,40384
4753,42688
4754,43968
4755,43456
4756,41216
4757,38208
4758,35392
4759,32960
4760,31360
4761,30464
4762,30208
4763,30208
4764,30464
4765,30784
4766,31168
4767,31488
4768,31808
4769,32064
4770,32320
4771,32576
4772,32768
4773,32896
4774,32960
4775,32960
4776,32960
4777,33024
4778,33088
4779,33152
4780,33152
4781,33088
4782,33152
4783,33216
4784,33280
4785,33280
4786,33344
4787,33408
4788,33472
4789,33472
4790,33536
4791,33600
4792,33728
4793,33728
4794,33728
4795,33792
4796,33856
4797,33920
4798,33920
4799,33984
4800,34048
4801,34048
4802,34048
4803,33984
4804,34048
4805,33984
4806,33920
4807,33856
4808,33856
4809,33728
4810,33664
4811,33664
4812,33664
4813,33664
4814,33664
4815,33728
4816,33728
4817,33728
4818,33664
4819,33664
4820,33600
4821,33536
4822,33472
4823,33408
4824,33344
4825,33280
4826,33216
4827,33152
4828,33152
4829,33216
4830,33280
4831,33344
4832,33408
4833,33472
4834,33472
4835,33472
4836,33536
4837,33536
4838,33600
4839,33600
4840,33600
4841,33600
4842,33664
4843,33600
4844,33600
4845,33600
4846,33600
4847,33600
4848,33600
4849,33600
4850,33600
4851,33600
4852,33600
4853,33600
4854,33536
4855,33472
4856,33408
4857,33408
4858,33408
4859,33408
4860,33408
4861,33408
4862,33408
4863,33472
4864,33536
4865,33664
4866,33920
4867,34048
4868,34240
4869,34304
4870,34304
4871,34368
4872,34368
4873,34368
4874,34304
4875,34304
4876,34304
4877,34240
4878,34240
4879,34240
4880,34112
4881,33856
4882,33536
4883,33344
4884,33152
4885,32960
4886,32896
4887,32832
4888,32832
4889,32832
4890,32896
4891,33024
4892,33088
4893,33152
4894,33152
4895,33216
4896,33216
4897,33088
4898,32960
4899,32960
4900,33216
4901,33856
4902,34880
4903,36416
4904,38592
4905,41152
4906,43328
4907,44160
4908,43136
4909,40576
4910,37440
4911,34688
4912,32512
4913,31168
4914,30464
4915,30208
4916,30272
4917,30464
4918,30784
4919,31168
4920,31552
4921,31936
4922,32192
4923,32448
4924,32640
4925,32832
4926,32960
4927,33024
4928,33088
4929,33152
4930,33152
4931,33216
4932,33216
4933,33280
4934,33280
4935,33280
4936,33344
4937,33344
4938,33408
4939,33344
4940,33408
4941,33472
4942,33536
4943,33536
4944,33600
4945,33664
4946,33728
4947,33792
4948,33792
4949,33920
4950,33984
4951,33984
4952,33984
4953,34048
4954,34048
4955,34048
4956,34048
4957,34048
4958,34048
4959,33920
4960,33792
4961,33728
4962,33792
4963,33792
4964,33728
4965,33728
4966,33728
4967,33728
4968,33728
4969,33728
4970,33728
4971,33728
4972,33664
4973,33600
4974,33536
4975,33472
4976,33344
4977,33280
4978,33280
4979,33216
4980,33216
4981,33152
4982,33216
4983,33280
4984,33344
4985,33408
4986,33472
4987,33536
4988,33536
4989,33536
4990,33600
4991,33664
4992,33664
4993,33664
4994,33664
4995,33664
4996,33664
4997,33664
4998,33728
4999,33728
5000,33792
5001,33728
5002,33664
5003,33600
5004,33600
5005,33536
5006,33536
5007,33536
5008,33600
5009,33600
5010,33600
5011,33600
5012,33600
5013,33600
5014,33600
5015,33536
5016,33600
5017,33600
5018,33600
5019,33728
5020,33920
5021,34112
5022,34240
5023,34304
5024,34368
5025,34368
5026,34432
5027,34432
5028,34496
5029,34560
5030,34560
5031,34560
5032,34560
5033,34624
5034,34560
5035,34368
5036,34112
5037,33792
5038,33600
5039,33344
5040,33216
5041,33152
5042,33088
5043,33024
5044,33024
5045,33152
5046,33216
5047,33344
5048,33344
5049,33344
5050,33472
5051,33472
5052,33408
5053,33280
5054,33280
5055,33472
5056,34112
5057,35136
5058,36608
5059,38656
5060,41024
5061,43072
5062,43776
5063,42688
5064,40256
5065,37376
5066,34752
5067,32768
5068,31424
5069,30848
5070,30720
5071,30848
5072,31040
5073,31296
5074,31680
5075,32064
5076,32384
5077,32640
5078,32896
5079,33088
5080,33280
5081,33344
5082,33472
5083,33600
5084,33728
5085,33664
5086,33600
5087,33600
5088,33600
5089,33536
5090,33600
5091,33664
5092,33792
5093,33792
5094,33792
5095,33856
5096,33984
5097,34048
5098,34048
5099,34048
5100,33984
5101,34048
5102,34048
5103,34048
5104,34048
5105,34112
5106,34176
5107,34240
5108,34304
5109,34432
5110,34432
5111,34368
5112,34240
5113,34112
5114,34048
5115,33984
5116,33984
5117,33984
5118,33984
5119,33984
5120,33984
5121,33920
5122,33792
5123,33792
5124,33856
5125,33856
5126,33792
5127,33664
5128,33600
5129,33600
5130,33472
5131,33344
5132,33344
5133,33344
5134,33344
5135,33344
5136,33344
5137,33408
5138,33408
5139,33408
5140,33472
5141,33600
5142,33664
5143,33728
5144,33728
5145,33792
5146,33792
5147,33856
5148,33856
5149,33856
5150,33920
5151,33856
5152,33856
5153,33856
5154,33856
5155,33856
5156,33856
5157,33920
5158,33984
5159,33984
5160,33984
5161,33920
5162,33920
5163,33856
5164,33856
5165,33792
5166,33856
5167,33792
5168,33728
5169,33664
5170,33728
5171,33792
5172,33920
5173,34048
5174,34176
5175,34240
5176,34304
5177,34368
5178,34432
5179,34496
5180,34496
5181,34560
5182,34560
5183,34624
5184,34560
5185,34496
5186,34368
5187,34176
5188,33920
5189,33600
5190,33344
5191,33280
5192,33152
5193,33024
5194,32960
5195,32960
5196,33024
5197,33088
5198,33088
5199,33152
5200,33216
5201,33280
5202,33280
5203,33216
5204,33152
5205,33088
5206,33280
5207,33984
5208,35008
5209,36416
5210,38336
5211,40512
5212,42432
5213,42944
5214,41792
5215,39616
5216,37056
5217,34560
5218,32576
5219,31360
5220,30784
5221,30656
5222,30720
5223,30976
5224,31296
5225,31744
5226,32064
5227,32320
5228,32512
5229,32704
5230,32768
5231,32832
5232,32960
5233,33024
5234,33088
5235,33152
5236,33216
5237,33216
5238,33216
5239,33152
5240,33152
5241,33280
5242,33280
5243,33280
5244,33280
5245,33344
5246,33472
5247,33536
5248,33536
5249,33600
5250,33600
5251,33600
5252,33664
5253,33728
5254,33792
5255,33792
5256,33856
5257,33920
5258,33920
5259,33920
5260,33920
5261,33920
5262,33984
5263,33984
5264,33920
5265,33920
5266,33856
5267,33792
5268,33728
5269,33664
5270,33664
5271,33664
5272,33600
5273,33600
5274,33664
5275,33728
5276,33728
5277,33664
5278,33600
5279,33472
5280,33344
5281,33280
5282,33216
5283,33152
5284,33152
5285,33152
5286,33152
5287,33152
5288,33152
5289,33152
5290,33216
5291,33280
5292,33344
5293,33344
5294,33344
5295,33408
5296,33472
5297,33536
5298,33536
5299,33600
5300,33600
5301,33600
5302,33600
5303,33664
5304,33664
5305,33664
5306,33600
5307,33664
5308,33728
5309,33728
5310,33728
5311,33664
5312,33664
5313,33664
5314,33664
5315,33600
5316,33600
5317,33600
5318,33600
5319,33600
5320,33600
5321,33600
5322,33600
5323,33728
5324,33856
5325,33984
5326,34112
5327,34176
5328,34176
5329,34240
5330,34368
5331,34432
5332,34496
5333,34560
5334,34496
5335,34368
5336,34304
5337,34176
5338,34048
5339,33792
5340,33472
5341,33152
5342,32960
5343,32832
5344,32704
5345,32704
5346,32704
5347,32768
5348,32768
5349,32896
5350,32960
5351,33088
5352,33088
5353,33088
5354,33088
5355,32960
5356,32896
5357,33024
5358,33536
5359,34432
5360,35648
5361,37440
5362,39744
5363,41792
5364,42880
5365,42368
5366,40384
5367,37696
5368,35136
5369,32960
5370,31488
5371,30720
5372,30336
5373,30336
5374,30592
5375,30912
5376,31296
5377,31616
5378,32000
5379,32256
5380,32512
5381,32640
5382,32768
5383,32832
5384,32896
5385,32960
5386,32896
5387,32960
5388,33024
5389,33024
5390,33088
5391,33152
5392,33216
5393,33216
5394,33280
5395,33344
5396,33408
5397,33408
5398,33408
5399,33536
5400,33600
5401,33664
5402,33728
5403,33728
5404,33792
5405,33856
5406,33856
5407,33920
5408,33984
5409,33984
5410,34048
5411,34048
5412,34048
5413,33984
5414,33984
5415,33920
5416,33920
5417,33920
5418,33920
5419,33920
5420,33856
5421,33792
5422,33664
5423,33600
5424,33600
5425,33664
5426,33664
5427,33664
5428,33664
5429,33664
5430,33600
5431,33472
5432,33408
5433,33280
5434,33216
5435,33152
5436,33216
5437,33152
5438,33152
5439,33088
5440,33216
5441,33280
5442,33280
5443,33344
5444,33472
5445,33536
5446,33600
5447,33536
5448,33536
5449,33536
5450,33472
5451,33536
5452,33600
5453,33600
5454,33536
5455,33600
5456,33600
5457,33600
5458,33600
5459,33536
5460,33472
5461,33536
5462,33536
5463,33536
5464,33472
5465,33472
5466,33472
5467,33536
5468,33536
5469,33472
5470,33472
5471,33408
5472,33344
5473,33408
5474,33472
5475,33472
5476,33536
5477,33536
5478,33664
5479,33792
5480,33920
5481,34112
5482,34176
5483,34176
5484,34240
5485,34240
5486,34304
5487,34240
5488,34240
5489,34240
5490,34240
5491,34240
5492,34240
5493,34112
5494,33920
5495,33664
5496,33408
5497,33152
5498,33024
5499,32896
5500,32768
5501,32704
5502,32768
5503,32896
5504,32960
5505,32896
5506,32960
5507,32960
5508,33024
5509,33088
5510,33088
5511,33088
5512,33024
5513,33088
5514,33536
5515,34432
5516,35648
5517,37376
5518,39680
5519,42112
5520,43584
5521,43264
5522,41280
5523,38464
5524,35648
5525,33216
5526,31488
5527,31296
5528,30272
5529,30272
5530,30464
5531,30784
5532,31168
5533,31552
5534,31872
5535,32192
5536,32448
5537,32640
5538,32832
5539,32960
5540,33024
5541,33152
5542,33152
5543,33088
5544,33152
5545,33152
5546,33152
5547,33152
5548,33216
5549,33280
5550,33280
5551,33280
5552,33344
5553,33344
5554,33408
5555,33408
5556,33472
5557,33536
5558,33600
5559,33600
5560,33728
5561,33792
5562,33792
5563,33856
5564,33920
5565,33984
5566,33984
5567,33984
5568,34048
5569,34048
5570,34048
5571,33984
5572,33984
5573,33984
5574,33984
5575,33920
5576,33856
5577,33792
5578,33792
5579,33792
5580,33728
5581,33728
5582,33792
5583,33792
5584,33728
5585,33728
5586,33664
5587,33600
5588,33536
5589,33408
5590,33344
5591,33280
5592,33216
5593,33152
5594,33216
5595,33280
5596,33344
5597,33280
5598,33344
5599,33344
5600,33408
5601,33472
5602,33536
5603,33600
5604,33600
5605,33600
5606,33664
5607,33664
5608,33664
5609,33664
5610,33728
5611,33728
5612,33728
5613,33664
5614,33600
5615,33600
5616,33600
5617,33600
5618,33600
5619,33536
5620,33536
5621,33472
5622,33472
5623,33472
5624,33536
5625,33536
5626,33472
5627,33472
5628,33536
5629,33536
5630,33600
5631,33664
5632,33664
5633,33600
5634,33536
5635,33536
5636,33536
5637,33600
5638,33600
5639,33536
5640,33536
5641,33600
5642,33600
5643,33664
5644,33856
5645,33984
5646,34176
5647,34240
5648,34304
5649,34368
5650,34368
5651,34304
5652,34240
5653,34240
5654,34304
5655,34304
5656,34304
5657,34176
5658,33984
5659,33792
5660,33600
5661,33472
5662,33408
5663,33280
5664,33152
5665,33152
5666,33152
5667,33152
5668,33152
5669,33280
5670,33344
5671,33472
5672,33408
5673,33408
5674,33344
5675,33344
5676,33216
5677,33088
5678,33088
5679,33408
5680,34176
5681,35456
5682,37056
5683,39488
5684,41792
5685,43712
5686,44096
5687,42496
5688,39808
5689,36864
5690,34304
5691,32448
5692,31232
5693,30592
5694,30464
5695,30592
5696,30848
5697,31104
5698,31488
5699,31872
5700,32128
5701,32384
5702,32576
5703,32768
5704,32832
5705,32896
5706,32960
5707,33024
5708,33088
5709,33152
5710,33152
5711,33152
5712,33152
5713,33088
5714,33152
5715,33152
5716,33152
5717,33216
5718,33280
5719,33408
5720,33472
5721,33408
5722,33408
5723,33536
5724,33600
5725,33664
5726,33728
5727,33792
5728,33920
5729,33920
5730,33984
5731,34112
5732,34240
5733,34304
5734,34240
5735,34176
5736,34176
5737,34176
5738,34112
5739,34048
5740,34048
5741,34112
5742,34048
5743,34048
5744,34048
5745,33984
5746,33984
5747,33920
5748,33856
5749,33920
5750,33856
5751,33728
5752,33600
5753,33408
5754,33280
5755,33216
5756,33280
5757,33344
5758,33344
5759,33216
5760,33088
5761,33088
5762,33088
5763,33088
5764,33088
5765,33152
5766,33088
5767,33152
5768,33152
5769,33280
5770,33344
5771,33344
5772,33344
5773,33344
5774,33408
5775,33408
5776,33408
5777,33344
5778,33408
5779,33472
5780,33536
5781,33536
5782,33600
5783,33536
5784,33472
5785,33344
5786,33344
5787,33344
5788,33280
5789,33344
5790,33344
5791,33408
5792,33408
5793,33408
5794,33472
5795,33600
5796,33600
5797,33600
5798,33600
5799,33536
5800,33472
5801,33472
5802,33472
5803,33536
5804,33472
5805,33472
5806,33472
5807,33600
5808,33728
5809,33792
5810,33984
5811,34176
5812,34176
5813,34112
5814,34048
5815,34048
5816,34048
5817,34048
5818,34112
5819,34112
5820,34112
5821,33984
5822,33856
5823,33728
5824,33600
5825,33472
5826,33344
5827,33280
5828,33152
5829,33088
5830,33024
5831,33024
5832,33024
5833,33024
5834,33024
5835,33024
5836,33152
5837,33152
5838,33216
5839,33216
5840,33152
5841,33024
5842,32960
5843,33216
5844,33920
5845,34944
5846,36416
5847,38400
5848,40704
5849,42688
5850,43328
5851,42240
5852,40000
5853,37376
5854,34816
5855,32832
5856,31552
5857,31040
5858,30912
5859,30912
5860,31104
5861,31488
5862,31872
5863,32192
5864,32512
5865,32832
5866,33024
5867,33216
5868,33408
5869,33472
5870,33472
5871,33408
5872,33344
5873,33280
5874,33280
5875,33344
5876,33408
5877,33472
5878,33600
5879,33728
5880,33728
5881,33728
5882,33728
5883,33792
5884,33728
5885,33664
5886,33664
5887,33600
5888,33536
5889,33664
5890,33856
5891,34048
5892,34176
5893,34368
5894,34624
5895,34880
5896,35008
5897,35136
5898,35392
5899,35776
5900,35840
5901,35456
5902,34944
5903,34048
5904,33024
5905,32256
5906,31936
5907,32128
5908,32576
5909,32960
5910,33088
5911,33216
5912,33600
5913,34304
5914,34624
5915,34496
5916,34368
5917,33984
5918,33216
5919,33088
5920,33728
5921,34304
5922,34688
5923,34752
5924,33728
5925,32192
5926,31040
5927,30208
5928,30016
5929,30400
5930,30976
5931,31488
5932,31808
5933,32192
5934,32576
5935,32768
5936,32704
5937,32448
5938,32320
5939,32576
5940,32960
5941,33024
5942,32832
5943,32384
5944,32000
5945,31936
5946,31872
5947,32000
5948,32384
5949,32640
5950,32704
5951,32960
5952,33408
5953,33984
5954,34432
5955,34816
5956,35328
5957,35584
5958,35328
5959,34496
5960,33728
5961,33728
5962,33664
5963,33216
5964,32768
5965,32512
5966,32384
5967,32448
5968,32704
5969,33152
5970,33472
5971,33728
5972,33920
5973,34176
5974,35200
5975,35584
5976,34688
5977,33984
5978,33792
5979,34176
5980,33920
5981,33152
5982,32512
5983,32320
5984,32256
5985,32384
5986,32704
5987,32960
5988,32960
5989,32768
5990,32704
5991,32960
5992,33728
5993,34176
5994,33664
5995,32704
5996,31936
5997,31552
5998,31360
5999,31232
6000,31232
6001,31616
6002,32064
6003,32320
6004,32320
6005,32064
6006,31872
6007,32000
6008,32320
6009,33024
6010,33920
6011,35200
6012,37184
6013,39552
6014,41728
6015,42816
6016,42304
6017,39936
6018,37248
6019,34368
6020,32064
6021,30528
6022,29696
6023,29504
6024,29568
6025,29760
6026,30208
6027,30592
6028,30720
6029,30848
6030,31040
6031,31168
6032,31296
6033,31424
6034,31488
6035,31616
6036,31808
6037,32000
6038,32000
6039,31936
6040,32064
6041,32128
6042,32128
6043,32000
6044,31936
6045,32000
6046,32000
6047,31936
6048,31872
6049,31808
6050,31872
6051,32128
6052,32512
6053,32704
6054,32704
6055,32832
6056,33088
6057,33088
6058,32960
6059,32896
6060,32896
6061,33024
6062,33152
6063,33216
6064,33280
6065,33344
6066,33344
6067,33344
6068,33408
6069,33600
6070,33792
6071,34112
6072,34432
6073,34560
6074,34688
6075,34688
6076,34560
6077,34432
6078,34432
6079,34432
6080,34432
6081,34432
6082,34432
6083,34304
6084,34240
6085,34304
6086,34368
6087,34496
6088,34560
6089,34560
6090,34688
6091,34688
6092,34688
6093,34688
6094,34880
6095,35008
6096,35072
6097,35072
6098,35072
6099,35072
6100,35008
6101,35008
6102,35008
6103,35008
6104,35008
6105,34816
6106,34688
6107,34752
6108,34816
6109,34880
6110,35008
6111,35136
6112,35264
6113,35392
6114,35392
6115,35456
6116,35520
6117,35520
6118,35520
6119,35584
6120,35648
6121,35776
6122,35840
6123,35904
6124,35968
6125,35904
6126,35840
6127,35776
6128,35776
6129,35840
6130,35840
6131,35968
6132,36160
6133,36352
6134,36480
6135,36672
6136,36672
6137,36544
6138,36416
6139,36352
6140,36288
6141,36288
6142,36288
6143,36160
6144,36160
6145,36096
6146,35904
6147,35648
6148,35392
6149,35200
6150,35008
6151,34944
6152,34880
6153,34752
6154,34624
6155,34560
6156,34560
6157,34496
6158,34432
6159,34368
6160,34368
6161,34368
6162,34368
6163,34240
6164,34048
6165,33984
6166,33984
6167,34304
6168,35136
6169,36416
6170,38336
6171,40576
6172,42880
6173,44160
6174,43712
6175,41536
6176,38528
6177,35328
6178,32640
6179,30720
6180,29632
6181,29312
6182,29568
6183,29952
6184,30080
6185,30016
6186,29952
6187,30080
6188,30464
6189,30848
6190,31296
6191,31744
6192,32128
6193,32448
6194,32704
6195,32768
6196,32704
6197,32512
6198,32448
6199,32576
6200,32768
6201,32896
6202,32960
6203,33088
6204,33216
6205,33344
6206,33472
6207,33664
6208,33856
6209,33984
6210,34048
6211,34176
6212,34240
6213,34176
6214,34112
6215,34176
6216,34176
6217,34112
6218,34112
6219,34176
6220,34240
6221,34304
6222,34240
6223,34240
6224,34176
6225,34176
6226,34176
6227,34240
6228,34304
6229,34112
6230,33920
6231,33792
6232,33728
6233,33664
6234,33600
6235,33600
6236,33600
6237,33600
6238,33536
6239,33472
6240,33344
6241,33216
6242,33088
6243,32960
6244,32768
6245,32640
6246,32576
6247,32640
6248,32704
6249,32832
6250,32832
6251,32832
6252,32832
6253,32832
6254,32832
6255,32832
6256,32896
6257,33024
6258,33088
6259,33088
6260,33152
6261,33152
6262,33280
6263,33344
6264,33472
6265,33536
6266,33536
6267,33472
6268,33408
6269,33344
6270,33344
6271,33344
6272,33344
6273,33408
6274,33408
6275,33408
6276,33408
6277,33472
6278,33472
6279,33472
6280,33536
6281,33728
6282,33792
6283,33792
6284,33728
6285,33728
6286,33792
6287,33728
6288,33728
6289,33664
6290,33792
6291,33920
6292,34048
6293,34176
6294,34368
6295,34560
6296,34624
6297,34624
6298,34496
6299,34432
6300,34432
6301,34432
6302,34432
6303,34432
6304,34368
6305,34240
6306,34048
6307,33856
6308,33664
6309,33536
6310,33408
6311,33280
6312,33152
6313,32960
6314,32896
6315,33024
6316,33152
6317,33280
6318,33344
6319,33408
6320,33536
6321,33600
6322,33536
6323,33472
6324,33408
6325,33408
6326,33792
6327,34688
6328,35968
6329,37824
6330,40256
6331,42880
6332,44608
6333,44544
6334,42560
6335,39616
6336,36672
6337,34112
6338,32256
6339,31168
6340,30592
6341,30464
6342,30528
6343,30720
6344,31040
6345,31360
6346,31744
6347,32000
6348,32256
6349,32384
6350,32512
6351,32576
6352,32704
6353,32768
6354,32768
6355,32768
6356,32832
6357,32832
6358,32832
6359,32768
6360,32704
6361,32768
6362,32768
6363,32768
6364,32768
6365,32768
6366,32832
6367,32832
6368,32896
6369,32960
6370,33088
6371,33280
6372,33344
6373,33344
6374,33344
6375,33344
6376,33408
6377,33536
6378,33600
6379,33600
6380,33664
6381,33664
6382,33728
6383,33728
6384,33792
6385,33792
6386,33792
6387,33792
6388,33728
6389,33664
6390,33600
6391,33664
6392,33728
6393,33728
6394,33792
6395,33856
6396,33920
6397,33920
6398,33984
6399,33920
6400,33856
6401,33792
6402,33728
6403,33728
6404,33664
6405,33600
6406,33600
6407,33664
6408,33664
6409,33728
6410,33792
6411,33792
6412,33728
6413,33728
6414,33728
6415,33792
6416,33792
6417,33664
6418,33600
6419,33600
6420,33664
6421,33600
6422,33536
6423,33536
6424,33536
6425,33472
6426,33472
6427,33536
6428,33536
6429,33600
6430,33536
6431,33536
6432,33536
6433,33472
6434,33344
6435,33280
6436,33216
6437,33152
6438,33152
6439,33152
6440,33216
6441,33280
6442,33344
6443,33280
6444,33344
6445,33408
6446,33408
6447,33536
6448,33728
6449,33920
6450,34048
6451,34112
6452,34176
6453,34240
6454,34240
6455,34240
6456,34240
6457,34240
6458,34304
6459,34304
6460,34368
6461,34304
6462,34176
6463,33920
6464,33600
6465,33280
6466,33088
6467,32960
6468,32832
6469,32768
6470,32704
6471,32704
6472,32704
6473,32832
6474,32960
6475,32960
6476,33024
6477,33024
6478,33088
6479,33024
6480,32896
6481,32832
6482,32768
6483,33088
6484,33792
6485,35008
6486,36736
6487,39104
6488,41728
6489,43712
6490,44160
6491,42816
6492,40192
6493,36928
6494,34560
6495,32512
6496,31232
6497,30592
6498,30336
6499,30464
6500,30720
6501,31104
6502,31488
6503,31872
6504,32192
6505,32576
6506,32768
6507,33024
6508,33152
6509,33216
6510,33344
6511,33472
6512,33536
6513,33536
6514,33536
6515,33536
6516,33536
6517,33536
6518,33536
6519,33536
6520,33600
6521,33600
6522,33664
6523,33792
6524,33856
6525,33856
6526,33856
6527,33856
6528,33920
6529,33984
6530,33984
6531,34048
6532,34112
6533,34112
6534,34048
6535,34048
6536,34112
6537,34112
6538,34048
6539,34048
6540,34048
6541,34048
6542,33984
6543,33984
6544,33920
6545,33920
6546,33920
6547,33920
6548,33920
6549,33856
6550,33856
6551,33856
6552,33920
6553,33920
6554,33856
6555,33856
6556,33792
6557,33728
6558,33600
6559,33536
6560,33472
6561,33408
6562,33408
6563,33280
6564,33280
6565,33344
6566,33408
6567,33408
6568,33472
6569,33536
6570,33536
6571,33536
6572,33536
6573,33536
6574,33536
6575,33536
6576,33600
6577,33600
6578,33536
6579,33472
6580,33408
6581,33344
6582,33408
6583,33408
6584,33408
6585,33408
6586,33408
6587,33472
6588,33408
6589,33408
6590,33472
6591,33408
6592,33344
6593,33280
6594,33280
6595,33344
6596,33344
6597,33344
6598,33408
6599,33472
6600,33536
6601,33536
6602,33664
6603,33728
6604,33792
6605,33920
6606,34048
6607,34240
6608,34304
6609,34304
6610,34240
6611,34368
6612,34432
6613,34432
6614,34496
6615,34624
6616,34688
6617,34688
6618,34624
6619,34496
6620,34240
6621,33920
6622,33664
6623,33472
6624,33280
6625,33088
6626,32960
6627,32896
6628,32960
6629,33024
6630,33088
6631,33216
6632,33280
6633,33280
6634,33280
6635,33280
6636,33280
6637,33152
6638,32960
6639,32960
6640,33344
6641,34240
6642,35456
6643,37248
6644,39616
6645,41920
6646,43392
6647,43264
6648,41664
6649,39104
6650,36288
6651,33920
6652,32064
6653,31040
6654,30656
6655,30528
6656,30720
6657,30976
6658,31296
6659,31616
6660,32000
6661,32256
6662,32512
6663,32704
6664,32832
6665,32960
6666,33088
6667,33152
6668,33280
6669,33344
6670,33408
6671,33408
6672,33344
6673,33344
6674,33344
6675,33408
6676,33472
6677,33536
6678,33600
6679,33600
6680,33600
6681,33600
6682,33728
6683,33728
6684,33728
6685,33792
6686,33856
6687,33856
6688,33920
6689,33920
6690,34048
6691,34112
6692,34048
6693,33984
6694,33984
6695,33984
6696,33984
6697,33984
6698,34048
6699,33984
6700,33920
6701,33856
6702,33856
6703,33856
6704,33920
6705,33920
6706,33984
6707,33984
6708,34048
6709,33984
6710,33984
6711,34048
6712,34048
6713,33920
6714,33792
6715,33664
6716,33600
6717,33536
6718,33472
6719,33536
6720,33536
6721,33536
6722,33536
6723,33536
6724,33664
6725,33664
6726,33664
6727,33664
6728,33664
6729,33600
6730,33600
6731,33728
6732,33856
6733,33792
6734,33792
6735,33728
6736,33792
6737,33728
6738,33664
6739,33664
6740,33728
6741,33728
6742,33664
6743,33600
6744,33536
6745,33536
6746,33536
6747,33536
6748,33600
6749,33600
6750,33600
6751,33536
6752,33536
6753,33600
6754,33600
6755,33664
6756,33792
6757,33984
6758,34048
6759,33984
6760,33984
6761,34048
6762,34240
6763,34304
6764,34368
6765,34432
6766,34432
6767,34368
6768,34304
6769,34240
6770,34112
6771,33856
6772,33536
6773,33280
6774,33088
6775,32896
6776,32768
6777,32704
6778,32704
6779,32704
6780,32768
6781,32896
6782,33024
6783,33024
6784,33024
6785,33024
6786,33088
6787,32960
6788,32832
6789,32704
6790,32960
6791,33664
6792,34752
6793,36352
6794,38528
6795,40832
6796,42560
6797,43008
6798,41792
6799,39616
6800,36928
6801,34368
6802,32448
6803,31232
6804,30656
6805,30400
6806,30464
6807,30656
6808,30976
6809,31296
6810,31616
6811,32000
6812,32256
6813,32448
6814,32640
6815,32832
6816,32960
6817,32960
6818,33024
6819,33088
6820,33088
6821,33088
6822,33088
6823,33088
6824,33088
6825,33152
6826,33152
6827,33280
6828,33344
6829,33408
6830,33408
6831,33408
6832,33472
6833,33536
6834,33536
6835,33536
6836,33664
6837,33728
6838,33728
6839,33728
6840,33792
6841,33792
6842,33792
6843,33728
6844,33792
6845,33792
6846,33792
6847,33792
6848,33792
6849,33792
6850,33728
6851,33664
6852,33664
6853,33664
6854,33728
6855,33664
6856,33664
6857,33664
6858,33664
6859,33664
6860,33728
6861,33728
6862,33728
6863,33536
6864,33472
6865,33408
6866,33344
6867,33280
6868,33280
6869,33280
6870,33280
6871,33280
6872,33280
6873,33216
6874,33280
6875,33280
6876,33280
6877,33344
6878,33408
6879,33472
6880,33472
6881,33536
6882,33600
6883,33600
6884,33472
6885,33472
6886,33472
6887,33472
6888,33408
6889,33408
6890,33472
6891,33472
6892,33408
6893,33408
6894,33472
6895,33472
6896,33536
6897,33472
6898,33472
6899,33536
6900,33536
6901,33600
6902,33600
6903,33600
6904,33536
6905,33472
6906,33536
6907,33664
6908,33920
6909,34048
6910,34176
6911,34240
6912,34240
6913,34304
6914,34368
6915,34496
6916,34496
6917,34560
6918,34496
6919,34496
6920,34496
6921,34432
6922,34304
6923,34112
6924,33792
6925,33408
6926,33088
6927,32896
6928,32768
6929,32640
6930,32576
6931,32576
6932,32704
6933,32768
6934,32832
6935,32896
6936,32960
6937,33024
6938,33088
6939,33024
6940,32896
6941,32832
6942,33024
6943,33600
6944,34560
6945,36032
6946,38144
6947,40704
6948,42944
6949,43904
6950,43008
6951,40704
6952,37824
6953,35072
6954,32832
6955,31360
6956,30592
6957,30336
6958,30336
6959,30528
6960,30848
6961,31168
6962,31552
6963,31872
6964,32128
6965,32384
6966,32576
6967,32768
6968,32832
6969,32960
6970,33088
6971,33088
6972,33088
6973,33088
6974,33088
6975,33024
6976,33024
6977,33088
6978,33152
6979,33216
6980,33216
6981,33280
6982,33344
6983,33408
6984,33472
6985,33536
6986,33600
6987,33664
6988,33728
6989,33728
6990,33792
6991,33856
6992,33856
6993,33856
6994,33920
6995,33920
6996,33856
6997,33856
6998,33856
6999,33856
7000,33792
7001,33728
7002,33728
7003,33664
7004,33664
7005,33664
7006,33728
7007,33792
7008,33856
7009,33792
7010,33792
7011,33856
7012,33792
7013,33792
7014,33792
7015,33792
7016,33664
7017,33600
7018,33536
7019,33536
7020,33536
7021,33408
7022,33344
7023,33408
7024,33408
7025,33408
7026,33408
7027,33408
7028,33472
7029,33472
7030,33536
7031,33600
7032,33664
7033,33664
7034,33664
7035,33664
7036,33664
7037,33664
7038,33664
7039,33664
7040,33664
7041,33664
7042,33664
7043,33664
7044,33664
7045,33728
7046,33728
7047,33728
7048,33728
7049,33728
7050,33664
7051,33600
7052,33600
7053,33600
7054,33536
7055,33472
7056,33472
7057,33536
7058,33600
7059,33664
7060,33792
7061,33984
7062,34176
7063,34240
7064,34304
7065,34368
7066,34432
7067,34496
7068,34560
7069,34560
7070,34624
7071,34560
7072,34496
7073,34432
7074,34368
7075,34240
7076,33984
7077,33728
7078,33408
7079,33088
7080,32896
7081,32768
7082,32768
7083,32768
7084,32832
7085,32832
7086,32960
7087,33024
7088,33088
7089,33088
7090,33152
7091,33152
7092,33024
7093,32896
7094,32832
7095,32896
7096,33408
7097,34432
7098,35904
7099,37952
7100,40576
7101,42944
7102,44288
7103,43776
7104,41536
7105,38656
7106,35712
7107,33344
7108,31424
7109,30720
7110,30336
7111,30272
7112,30464
7113,30784
7114,31104
7115,31488
7116,31808
7117,32064
7118,32256
7119,32512
7120,32704
7121,32832
7122,32896
7123,33088
7124,33152
7125,33216
7126,33216
7127,33280
7128,33344
7129,33280
7130,33216
7131,33216
7132,33280
7133,33344
7134,33344
7135,33408
7136,33472
7137,33536
7138,33600
7139,33664
7140,33728
7141,33728
7142,33728
7143,33792
7144,33856
7145,33920
7146,33920
7147,33920
7148,33920
7149,33984
7150,33920
7151,33920
7152,33920
7153,33920
7154,33920
7155,33856
7156,33856
7157,33856
7158,33792
7159,33728
7160,33664
7161,33728
7162,33728
7163,33728
7164,33792
7165,33856
7166,33856
7167,33792
7168,33792
7169,33728
7170,33664
7171,33536
7172,33472
7173,33408
7174,33344
7175,33280
7176,33280
7177,33344
7178,33472
7179,33472
7180,33472
7181,33536
7182,33600
7183,33600
7184,33600
7185,33600
7186,33664
7187,33728
7188,33728
7189,33728
7190,33728
7191,33728
7192,33664
7193,33664
7194,33664
7195,33664
7196,33728
7197,33664
7198,33664
7199,33600
7200,33536
7201,33600
7202,33600
7203,33600
7204,33536
7205,33472
7206,33472
7207,33536
7208,33536
7209,33536
7210,33536
7211,33600
7212,33664
7213,33664
7214,33728
7215,33920
7216,34112
7217,34304
7218,34432
7219,34560
7220,34624
7221,34624
7222,34624
7223,34624
7224,34624
7225,34560
7226,34432
7227,34304
7228,34240
7229,34240
7230,34112
7231,34048
7232,33920
7233,33472
7234,33280
7235,32960
7236,32704
7237,32384
7238,31936
7239,31744
7240,31680
7241,31616
7242,31872
7243,32256
7244,32576
7245,32576
7246,32320
7247,31744
7248,31040
7249,30656
7250,30848
7251,31808
7252,33408
7253,35456
7254,37952
7255,40448
7256,42048
7257,41920
7258,39936
7259,39424
7260,34048
7261,31488
7262,29696
7263,29568
7264,29248
7265,29760
7266,30400
7267,31168
7268,31168
7269,31616
7270,31808
7271,31744
7272,31552
7273,31360
7274,31168
7275,31040
7276,30848
7277,30528
7278,30208
7279,30144
7280,30400
7281,30848
7282,31424
7283,31424
7284,31680
7285,31872
7286,31808
7287,31616
7288,31488
7289,31424
7290,31424
7291,31552
7292,31744
7293,31936
7294,31872
7295,31936
7296,31808
7297,31360
7298,31296
7299,31104
7300,31040
7301,31104
7302,30976
7303,30976
7304,31168
7305,32064
7306,32384
7307,32576
7308,32640
7309,32384
7310,32192
7311,32064
7312,31872
7313,31872
7314,31872
7315,31872
7316,31808
7317,31936
7318,31936
7319,32064
7320,32384
7321,32256
7322,32128
7323,32256
7324,32384
7325,32576
7326,32576
7327,32448
7328,32320
7329,32320
7330,32576
7331,32960
7332,33536
7333,33600
7334,34432
7335,34944
7336,35264
7337,35584
7338,35584
7339,35648
7340,35968
7341,36096
7342,36416
7343,36544
7344,36544
7345,36672
7346,36992
7347,37056
7348,36800
7349,36736
7350,36864
7351,37056
7352,37056
7353,36992
7354,36928
7355,36800
7356,36672
7357,36480
7358,36288
7359,36224
7360,36224
7361,36224
7362,36160
7363,35968
7364,35712
7365,35648
7366,35584
7367,35648
7368,35904
7369,36288
7370,36544
7371,36544
7372,36160
7373,35840
7374,35456
7375,35648
7376,35968
7377,35776
7378,35776
7379,35584
7380,35008
7381,35008
7382,35136
7383,35136
7384,35072
7385,34880
7386,34752
7387,34624
7388,34560
7389,34496
7390,34304
7391,34048
7392,33920
7393,33920
7394,34048
7395,33920
7396,33664
7397,33920
7398,34688
7399,35840
7400,37632
7401,40064
7402,43200
7403,43456
7404,45312
7405,44288
7406,41728
7407,38400
7408,35264
7409,32768
7410,31168
7411,30144
7412,29440
7413,29056
7414,29184
7415,29568
7416,30336
7417,31360
7418,32576
7419,33600
7420,34368
7421,34880
7422,34624
7423,34496
7424,33664
7425,32960
7426,32256
7427,31872
7428,31808
7429,31872
7430,31872
7431,31808
7432,31808
7433,32064
7434,32320
7435,32576
7436,32832
7437,33088
7438,33024
7439,33280
7440,33600
7441,33920
7442,34048
7443,33856
7444,33472
7445,33280
7446,33280
7447,33408
7448,33600
7449,33664
7450,33408
7451,33024
7452,32960
7453,32960
7454,33088
7455,33344
7456,33536
7457,33472
7458,33408
7459,33536
7460,33472
7461,33280
7462,33024
7463,32832
7464,32960
7465,33088
7466,32896
7467,32960
7468,33088
7469,32960
7470,33152
7471,33088
7472,32768
7473,32704
7474,32384
7475,32320
7476,32192
7477,31936
7478,31680
7479,31808
7480,32000
7481,32128
7482,32256
7483,32512
7484,32832
7485,32768
7486,32704
7487,33024
7488,33280
7489,33152
7490,33024
7491,33024
7492,33088
7493,33024
7494,32640
7495,32448
7496,32640
7497,33088
7498,33216
7499,33088
7500,33024
7501,32896
7502,32704
7503,32448
7504,32512
7505,32896
7506,33216
7507,33088
7508,33088
7509,33472
7510,34112
7511,34560
7512,34880
7513,35072
7514,35136
7515,35008
7516,34816
7517,34624
7518,34368
7519,34432
7520,34368
7521,34048
7522,33664
7523,33408
7524,33280
7525,33472
7526,33728
7527,33728
7528,33792
7529,33792
7530,33664
7531,33408
7532,33344
7533,33472
7534,33664
7535,33600
7536,33344
7537,33216
7538,33152
7539,32896
7540,32768
7541,32768
7542,33472
7543,34944
7544,36736
7545,39104
7546,41728
7547,43904
7548,43904
7549,41920
7550,39168
7551,36480
7552,34048
7553,32064
7554,30592
7555,29952
7556,29952
7557,30208
7558,30656
7559,31040
7560,31232
7561,31104
7562,30720
7563,30592
7564,30592
7565,31232
7566,32256
7567,33216
7568,33920
7569,34368
7570,34560
7571,34624
7572,34688
7573,34560
7574,34112
7575,33472
7576,32768
7577,31872
7578,31744
7579,31232
7580,31360
7581,31808
7582,32704
7583,32768
7584,34176
7585,34816
7586,35072
7587,34944
7588,34496
7589,34304
7590,34304
7591,34368
7592,34112
7593,33664
7594,33152
7595,33024
7596,33344
7597,33984
7598,33984
7599,34688
7600,35136
7601,35136
7602,34560
7603,34112
7604,34112
7605,34176
7606,34240
7607,34240
7608,34048
7609,33728
7610,33408
7611,32960
7612,32704
7613,32704
7614,33152
7615,34176
7616,34752
7617,33856
7618,33664
7619,31232
7620,29952
7621,29632
7622,30208
7623,31040
7624,31744
7625,32512
7626,33344
7627,33600
7628,33280
7629,33344
7630,33472
7631,33152
7632,32448
7633,32384
7634,30720
7635,30336
7636,30912
7637,31424
7638,32128
7639,32320
7640,32576
7641,32832
7642,32896
7643,33216
7644,33664
7645,34048
7646,34048
7647,34048
7648,33856
7649,33600
7650,33280
7651,33216
7652,33280
7653,33408
7654,33920
7655,34688
7656,35392
7657,35968
7658,36032
7659,35392
7660,34432
7661,33472
7662,32896
7663,32896
7664,33024
7665,32832
7666,32448
7667,32576
7668,32832
7669,33280
7670,33984
7671,34368
7672,34368
7673,34560
7674,34240
7675,33728
7676,33536
7677,33856
7678,34432
7679,35008
7680,35584
7681,36224
7682,37888
7683,39744
7684,42304
7685,44352
7686,44992
7687,43520
7688,41536
7689,38720
7690,35968
7691,33792
7692,32256
7693,31552
7694,31168
7695,30976
7696,30912
7697,31232
7698,31744
7699,31936
7700,31680
7701,31360
7702,31424
7703,31936
7704,32320
7705,32448
7706,32512
7707,32576
7708,32640
7709,32832
7710,33024
7711,32960
7712,32640
7713,32384
7714,32448
7715,32832
7716,33088
7717,33408
7718,33728
7719,33920
7720,33856
7721,33664
7722,33472
7723,33600
7724,34048
7725,34112
7726,33984
7727,33920
7728,33984
7729,33984
7730,33728
7731,33408
7732,33216
7733,33024
7734,33024
7735,33152
7736,33280
7737,33280
7738,33216
7739,33216
7740,33216
7741,33216
7742,33472
7743,33792
7744,33856
7745,33728
7746,33984
7747,34368
7748,34368
7749,33792
7750,33088
7751,32512
7752,31936
7753,32000
7754,32320
7755,32512
7756,32576
7757,32640
7758,32704
7759,33152
7760,33472
7761,33408
7762,33600
7763,34112
7764,34688
7765,34496
7766,33856
7767,33280
7768,33216
7769,33600
7770,33856
7771,34048
7772,34560
7773,34880
7774,35008
7775,34944
7776,34688
7777,34240
7778,33664
7779,33344
7780,33088
7781,32640
7782,31872
7783,31488
7784,31424
7785,31488
7786,31488
7787,31744
7788,32000
7789,32064
7790,31808
7791,31552
7792,31296
7793,31232
7794,31104
7795,30912
7796,30848
7797,30784
7798,30912
7799,31040
7800,31424
7801,31872
7802,32128
7803,32000
7804,32000
7805,32128
7806,32128
7807,32128
7808,32000
7809,32128
7810,32832
7811,33408
7812,33920
7813,34112
7814,34368
7815,35456
7816,37312
7817,39680
7818,41792
7819,42240
7820,40704
7821,38016
7822,35200
7823,33152
7824,32000
7825,31552
7826,31488
7827,31552
7828,31296
7829,31296
7830,31680
7831,31552
7832,31360
7833,31872
7834,32768
7835,32960
7836,32768
7837,32576
7838,32256
7839,32128
7840,32448
7841,33024
7842,33600
7843,34816
7844,36352
7845,36928
7846,36672
7847,36736
7848,37248
7849,37248
7850,36672
7851,35904
7852,35584
7853,36224
7854,36992
7855,37376
7856,37184
7857,36352
7858,35456
7859,34752
7860,34688
7861,34880
7862,34688
7863,34496
7864,34688
7865,34752
7866,35072
7867,35648
7868,36096
7869,36096
7870,35584
7871,34752
7872,34112
7873,33664
7874,33472
7875,33664
7876,34112
7877,34496
7878,34496
7879,34688
7880,34944
7881,34752
7882,34368
7883,34048
7884,33792
7885,33664
7886,33280
7887,32960
7888,32704
7889,32448
7890,32512
7891,32768
7892,33152
7893,33344
7894,33728
7895,34240
7896,34176
7897,33536
7898,33152
7899,33152
7900,33344
7901,33664
7902,34048
7903,34176
7904,33600
7905,33344
7906,33344
7907,33088
7908,33088
7909,32960
7910,32384
7911,32192
7912,32256
7913,32256
7914,32512
7915,32704
7916,32832
7917,33152
7918,33536
7919,33664
7920,33024
7921,32832
7922,33216
7923,33920
7924,35264
7925,35968
7926,35264
7927,34368
7928,33856
7929,33600
7930,33472
7931,33536
7932,33664
7933,33536
7934,33792
7935,34176
7936,34304
7937,34688
7938,35392
7939,35392
7940,34752
7941,34304
7942,34304
7943,34816
7944,35072
7945,35264
7946,35712
7947,37120
7948,39488
7949,42176
7950,43776
7951,43904
7952,42432
7953,40128
7954,37440
7955,34624
7956,32128
7957,30848
7958,30656
7959,30464
7960,30400
7961,30848
7962,31360
7963,31424
7964,31936
7965,32000
7966,31680
7967,31680
7968,31552
7969,31488
7970,31808
7971,32192
7972,32256
7973,32384
7974,32640
7975,32832
7976,33088
7977,33280
7978,32960
7979,32448
7980,32128
7981,32320
7982,32896
7983,33088
7984,33408
7985,33536
7986,33408
7987,33408
7988,33728
7989,33984
7990,33792
7991,33600
7992,33536
7993,33728
7994,34368
7995,34944
7996,34880
7997,34688
7998,34496
7999,34880
8000,35328
8001,34688
8002,33984
8003,33664
8004,33664
8005,33664
8006,33600
8007,33664
8008,34432
8009,35008
8010,34944
8011,34624
8012,34304
8013,34368
8014,34048
8015,33344
8016,32768
8017,32704
8018,33024
8019,33472
8020,33856
8021,34304
8022,34752
8023,34688
8024,34560
8025,34176
8026,33856
8027,34112
8028,34432
8029,33984
8030,33472
8031,33024
8032,32576
8033,32192
8034,32064
8035,31872
8036,32256
8037,32640
8038,32640
8039,32384
8040,32448
8041,32768
8042,32768
8043,32384
8044,32320
8045,32640
8046,33280
8047,33856
8048,33920
8049,33984
8050,33536
8051,33408
8052,33664
8053,33984
8054,34368
8055,34816
8056,35584
8057,35520
8058,34880
8059,33728
8060,32960
8061,32704
8062,32896
8063,33024
8064,33280
8065,33408
8066,33088
8067,32832
8068,32768
8069,33152
8070,33472
8071,33920
8072,34240
8073,34176
8074,34112
8075,34624
8076,36032
8077,37952
8078,40640
8079,43584
8080,44992
8081,44288
8082,41856
8083,38720
8084,35584
8085,32576
8086,30656
8087,29504
8088,28992
8089,29184
8090,29952
8091,30656
8092,31104
8093,31680
8094,32320
8095,33088
8096,33344
8097,33408
8098,33664
8099,33280
8100,32960
8101,32576
8102,32576
8103,32576
8104,32640
8105,32768
8106,32896
8107,33536
8108,33728
8109,33280
8110,32768
8111,32384
8112,32256
8113,32448
8114,32640
8115,32896
8116,33152
8117,33664
8118,34368
8119,34560
8120,34176
8121,33984
8122,34240
8123,34624
8124,35136
8125,35072
8126,34176
8127,33536
8128,33216
8129,32704
8130,32448
8131,32384
8132,32512
8133,32960
8134,33216
8135,33344
8136,33600
8137,33984
8138,34304
8139,34496
8140,34432
8141,34048
8142,33728
8143,33344
8144,32960
8145,33280
8146,33856
8147,34496
8148,33984
8149,33216
8150,32704
8151,32832
8152,33088
8153,33216
8154,33088
8155,32768
8156,32576
8157,32640
8158,32832
8159,33152
8160,33408
8161,33408
8162,33344
8163,33280
8164,33344
8165,33472
8166,33920
8167,34496
8168,34752
8169,34944
8170,35328
8171,35776
8172,36224
8173,36224
8174,36032
8175,35584
8176,35520
8177,35584
8178,35328
8179,35136
8180,35008
8181,35136
8182,35136
8183,34752
8184,34624
8185,34432
8186,34176
8187,34368
8188,34688
8189,34176
8190,33216
8191,32768
8192,32768
8193,32768
8194,32832
8195,33280
8196,33152
8197,33024
8198,33152
8199,33856
8200,33664
8201,33408
8202,34112
8203,35392
8204,37312
8205,39744
8206,42240
8207,44032
8208,44352
8209,43328
8210,40832
8211,37248
8212,34112
8213,32256
8214,31360
8215,30720
8216,30464
8217,30464
8218,30912
8219,31296
8220,31744
8221,32512
8222,32512
8223,32576
8224,32896
8225,32896
8226,32896
8227,33088
8228,33408
8229,33728
8230,33920
8231,34048
8232,34112
8233,34240
8234,34560
8235,34944
8236,35008
8237,34752
8238,34624
8239,34624
8240,34688
8241,34560
8242,34496
8243,34688
8244,34752
8245,34752
8246,34816
8247,34944
8248,35264
8249,35520
8250,35584
8251,35584
8252,35904
8253,36160
8254,36224
8255,35904
8256,35328
8257,35072
8258,34752
8259,34752
8260,35264
8261,35328
8262,34752
8263,34368
8264,34560
8265,34880
8266,34944
8267,35008
8268,35392
8269,36096
8270,36288
8271,36160
8272,35968
8273,35648
8274,35520
8275,35584
8276,35776
8277,36160
8278,36288
8279,35840
8280,35200
8281,34624
8282,34368
8283,34496
8284,34624
8285,34880
8286,35520
8287,35776
8288,35520
8289,35520
8290,35776
8291,35904
8292,35968
8293,36160
8294,36416
8295,36288
8296,35904
8297,35392
8298,35136
8299,34624
8300,34240
8301,33856
8302,33472
8303,33280
8304,33152
8305,33088
8306,33024
8307,33152
8308,33536
8309,33856
8310,33984
8311,33920
8312,33728
8313,32896
8314,32192
8315,32000
8316,32128
8317,32192
8318,32128
8319,32128
8320,32512
8321,33024
8322,33600
8323,33792
8324,33728
8325,33856
8326,34240
8327,35200
8328,36480
8329,38336
8330,40640
8331,43648
8332,46272
8333,47296
8334,46208
8335,43584
8336,40256
8337,36864
8338,34304
8339,32704
8340,31936
8341,31680
8342,31744
8343,32000
8344,32512
8345,33024
8346,33536
8347,33984
8348,34304
8349,34432
8350,34560
8351,34688
8352,34752
8353,34816
8354,35008
8355,35136
8356,35072
8357,35072
8358,35136
8359,35328
8360,35328
8361,35072
8362,34944
8363,34880
8364,35008
8365,35264
8366,35392
8367,35392
8368,35392
8369,35648
8370,35776
8371,35776
8372,35648
8373,35712
8374,35968
8375,36160
8376,36160
8377,36160
8378,36096
8379,36224
8380,36352
8381,36416
8382,36352
8383,36288
8384,36096
8385,35840
8386,35648
8387,35520
8388,35520
8389,35456
8390,35328
8391,35456
8392,35712
8393,35840
8394,35584
8395,35456
8396,35456
8397,35328
8398,35072
8399,35008
8400,35008
8401,35008
8402,35072
8403,35008
8404,35008
8405,35008
8406,35072
8407,34944
8408,34816
8409,34880
8410,34880
8411,35008
8412,35200
8413,35520
8414,35264
8415,34752
8416,34560
8417,34752
8418,34880
8419,34816
8420,34752
8421,34944
8422,34944
8423,34816
8424,34624
8425,34752
8426,34944
8427,35136
8428,35264
8429,35264
8430,35328
8431,35264
8432,35136
8433,34880
8434,34368
8435,33792
8436,33344
8437,33088
8438,33088
8439,33344
8440,33408
8441,33280
8442,33024
8443,32896
8444,32768
8445,32640
8446,32640
8447,32576
8448,32640
8449,32896
8450,33280
8451,34048
8452,35136
8453,36928
8454,39232
8455,41472
8456,42752
8457,42240
8458,40192
8459,37504
8460,34432
8461,32128
8462,30272
8463,29184
8464,28800
8465,29056
8466,29632
8467,30272
8468,30720
8469,31040
8470,31296
8471,31360
8472,31296
8473,31168
8474,30976
8475,30848
8476,31040
8477,31552
8478,32192
8479,32896
8480,33216
8481,33216
8482,33024
8483,32832
8484,32768
8485,32704
8486,32576
8487,32384
8488,32384
8489,32384
8490,32384
8491,32512
8492,33088
8493,33984
8494,34944
8495,35840
8496,36544
8497,37056
8498,37248
8499,37312
8500,37312
8501,37504
8502,37824
8503,38080
8504,38272
8505,38208
8506,38144
8507,38080
8508,37888
8509,37632
8510,37184
8511,36672
8512,36352
8513,36288
8514,36544
8515,36736
8516,36800
8517,36864
8518,36864
8519,36736
8520,36480
8521,36160
8522,35968
8523,35776
8524,35456
8525,35200
8526,35008
8527,34944
8528,34816
8529,34752
8530,34816
8531,34816
8532,34752
8533,34688
8534,34560
8535,34496
8536,34560
8537,34624
8538,34816
8539,34880
8540,34880
8541,34688
8542,34496
8543,34432
8544,34304
8545,34432
8546,34688
8547,35136
8548,35456
8549,35648
8550,35520
8551,35328
8552,35136
8553,34944
8554,34752
8555,34432
8556,34112
8557,33792
8558,33408
8559,33152
8560,32960
8561,32832
8562,32768
8563,32768
8564,32832
8565,32960
8566,33088
8567,33088
8568,33088
8569,32896
8570,32768
8571,32640
8572,32896
8573,33536
8574,34688
8575,36416
8576,38720
8577,41088
8578,42880
8579,42944
8580,40960
8581,37888
8582,34880
8583,32640
8584,31296
8585,30720
8586,30528
8587,30528
8588,30656
8589,30912
8590,31232
8591,31552
8592,31872
8593,32128
8594,32320
8595,32512
8596,32640
8597,32768
8598,32768
8599,32704
8600,32640
8601,32640
8602,32576
8603,32512
8604,32448
8605,32384
8606,32384
8607,32384
8608,32448
8609,32512
8610,32704
8611,32832
8612,32960
8613,33088
8614,33152
8615,33088
8616,33024
8617,32896
8618,32832
8619,32832
8620,32832
8621,32896
8622,33024
8623,33152
8624,33344
8625,33408
8626,33536
8627,33600
8628,33600
8629,33472
8630,33472
8631,33600
8632,33728
8633,33792
8634,33728
8635,33664
8636,33664
8637,33728
8638,33856
8639,33984
8640,34048
8641,33984
8642,33984
8643,34112
8644,34112
8645,34048
8646,34048
8647,33984
8648,33920
8649,33984
8650,34240
8651,34496
8652,34624
8653,34752
8654,34880
8655,34944
8656,34944
8657,34944
8658,34944
8659,35072
8660,35072
8661,35072
8662,35072
8663,35072
8664,35008
8665,35072
8666,35200
8667,35392
8668,35584
8669,35648
8670,35712
8671,35776
8672,35776
8673,35776
8674,35712
8675,35648
8676,35584
8677,35328
8678,35072
8679,34752
8680,34432
8681,34176
8682,33920
8683,33664
8684,33536
8685,33408
8686,33280
8687,33280
8688,33344
8689,33280
8690,33152
8691,33088
8692,32960
8693,32832
8694,32832
8695,33152
8696,33920
8697,35264
8698,37312
8699,40064
8700,42944
8701,44864
8702,44800
8703,42816
8704,39872
8705,36992
8706,34560
8707,32640
8708,31232
8709,30400
8710,30080
8711,30336
8712,30912
8713,31488
8714,32000
8715,32320
8716,32512
8717,32704
8718,33024
8719,33152
8720,33280
8721,33344
8722,33472
8723,33472
8724,33472
8725,33472
8726,33408
8727,33344
8728,33408
8729,33344
8730,33344
8731,33280
8732,33216
8733,33088
8734,33088
8735,33088
8736,33152
8737,33152
8738,33216
8739,33408
8740,33536
8741,33664
8742,33664
8743,33664
8744,33600
8745,33600
8746,33600
8747,33600
8748,33600
8749,33472
8750,33344
8751,33472
8752,33600
8753,33728
8754,33728
8755,33664
8756,33536
8757,33472
8758,33408
8759,33408
8760,33472
8761,33536
8762,33600
8763,33600
8764,33664
8765,33728
8766,33856
8767,34048
8768,34240
8769,34240
8770,34112
8771,34048
8772,34112
8773,34112
8774,34048
8775,33920
8776,33856
8777,33920
8778,34048
8779,34176
8780,34240
8781,34304
8782,34368
8783,34432
8784,34560
8785,34752
8786,34880
8787,35008
8788,35072
8789,35136
8790,35200
8791,35328
8792,35328
8793,35264
8794,35136
8795,35008
8796,35008
8797,35136
8798,35200
8799,35136
8800,35008
8801,34752
8802,34496
8803,34112
8804,33792
8805,33472
8806,33216
8807,33088
8808,33152
8809,33280
8810,33472
8811,33728
8812,33856
8813,33856
8814,33472
8815,33024
8816,32768
8817,32768
8818,33152
8819,33984
8820,35584
8821,37952
8822,40896
8823,43712
8824,45184
8825,44480
8826,42112
8827,39104
8828,36160
8829,33856
8830,32192
8831,31104
8832,30528
8833,30464
8834,30720
8835,31040
8836,31424
8837,31808
8838,32192
8839,32512
8840,32768
8841,32896
8842,33088
8843,33088
8844,32960
8845,32768
8846,32640
8847,32640
8848,32768
8849,32960
8850,33152
8851,33088
8852,32960
8853,32832
8854,32832
8855,32896
8856,33024
8857,33088
8858,33216
8859,33344
8860,33472
8861,33536
8862,33664
8863,33728
8864,33856
8865,33792
8866,33664
8867,33536
8868,33344
8869,33152
8870,33088
8871,33024
8872,32896
8873,32768
8874,32768
8875,32832
8876,32960
8877,32896
8878,32896
8879,32896
8880,33152
8881,33344
8882,33536
8883,33856
8884,34112
8885,34240
8886,34368
8887,34560
8888,34688
8889,34688
8890,34816
8891,34816
8892,34816
8893,34752
8894,34688
8895,34560
8896,34496
8897,34560
8898,34624
8899,34624
8900,34624
8901,34752
8902,34880
8903,34880
8904,34624
8905,34368
8906,34368
8907,34560
8908,34880
8909,35072
8910,35264
8911,35456
8912,35456
8913,35264
8914,35008
8915,34752
8916,34304
8917,34112
8918,33984
8919,33792
8920,33664
8921,33600
8922,33472
8923,33408
8924,33216
8925,32896
8926,32768
8927,32768
8928,32896
8929,33088
8930,33152
8931,33088
8932,33024
8933,32960
8934,33088
8935,33280
8936,33408
8937,33600
8938,33920
8939,33984
8940,33920
8941,34304
8942,35328
8943,36864
8944,39360
8945,42496
8946,45568
8947,47424
8948,47168
8949,44864
8950,41728
8951,38848
8952,36288
8953,34432
8954,33344
8955,32896
8956,32832
8957,33152
8958,33600
8959,34048
8960,34304
8961,34496
8962,34624
8963,34816
8964,35008
8965,35072
8966,34880
8967,34688
8968,34560
8969,34560
8970,34624
8971,34688
8972,34688
8973,34816
8974,35200
8975,35264
8976,34816
8977,34496
8978,34240
8979,34432
8980,34752
8981,34752
8982,34688
8983,34688
8984,34688
8985,34624
8986,34560
8987,34496
8988,34432
8989,34240
8990,34112
8991,34112
8992,34176
8993,34304
8994,34304
8995,34304
8996,34304
8997,34112
8998,33728
8999,33344
9000,33152
9001,33088
9002,33280
9003,33536
9004,33728
9005,33984
9006,34112
9007,34112
9008,34112
9009,34176
9010,34048
9011,33984
9012,33792
9013,33472
9014,33088
9015,32576
9016,32256
9017,31872
9018,31552
9019,31232
9020,31104
9021,31232
9022,31744
9023,32512
9024,33216
9025,33856
9026,34432
9027,34880
9028,35200
9029,35456
9030,35456
9031,35328
9032,35072
9033,34944
9034,35008
9035,35008
9036,34880
9037,34752
9038,34688
9039,34560
9040,34304
9041,33856
9042,33152
9043,32320
9044,31104
9045,29312
9046,27264
9047,25664
9048,25088
9049,26048
9050,28160
9051,30784
9052,33216
9053,35072
9054,36224
9055,36928
9056,37248
9057,37184
9058,36864
9059,36672
9060,36352
9061,36032
9062,35456
9063,34752
9064,34176
9065,33856
9066,33856
9067,34496
9068,36032
9069,38528
9070,44160
9071,44288
9072,44672
9073,42176
9074,39040
9075,36288
9076,34240
9077,32896
9078,32832
9079,32128
9080,32192
9081,32192
9082,32256
9083,32320
9084,32384
9085,32448
9086,32384
9087,32384
9088,32384
9089,32320
9090,32256
9091,32320
9092,32640
9093,32768
9094,33088
9095,33344
9096,33536
9097,33664
9098,33600
9099,33728
9100,33984
9101,34176
9102,34176
9103,34176
9104,34176
9105,34112
9106,33792
9107,33728
9108,33728
9109,33728
9110,33664
9111,33472
9112,33280
9113,33152
9114,33216
9115,33344
9116,33536
9117,33792
9118,33984
9119,34112
9120,33920
9121,33728
9122,33728
9123,33664
9124,33792
9125,34112
9126,34368
9127,34624
9128,34752
9129,35072
9130,35584
9131,36416
9132,37312
9133,37824
9134,37952
9135,37888
9136,37824
9137,37824
9138,37824
9139,37824
9140,37824
9141,37952
9142,38144
9143,38336
9144,38656
9145,38976
9146,39168
9147,39232
9148,39296
9149,39296
9150,39296
9151,39360
9152,39680
9153,40384
9154,41152
9155,42112
9156,42944
9157,43584
9158,44160
9159,44416
9160,43712
9161,40832
9162,35776
9163,29120
9164,21632
9165,20992
9166,15360
9167,14080
9168,13888
9169,14592
9170,15424
9171,15232
9172,13952
9173,12672
9174,12096
9175,12544
9176,13952
9177,16256
9178,19072
9179,22336
9180,24768
9181,26432
9182,27584
9183,28096
9184,28288
9185,28096
9186,27328
9187,26112
9188,24768
9189,23616
9190,23040
9191,23552
9192,25344
9193,28608
9194,32832
9195,37312
9196,40640
9197,41856
9198,41024
9199,38848
9200,36416
9201,34240
9202,32768
9203,32064
9204,32256
9205,32768
9206,33344
9207,33920
9208,34368
9209,34624
9210,34624
9211,34688
9212,34880
9213,35328
9214,35712
9215,35968
9216,36224
9217,36224
9218,36288
9219,36480
9220,36800
9221,36992
9222,37056
9223,36864
9224,36800
9225,36736
9226,37312
9227,37696
9228,38080
9229,38144
9230,38208
9231,38208
9232,38272
9233,38656
9234,39232
9235,39808
9236,40320
9237,40832
9238,41344
9239,41472
9240,41344
9241,40192
9242,39232
9243,38336
9244,37568
9245,36928
9246,36672
9247,36544
9248,36544
9249,36480
9250,36288
9251,35968
9252,35648
9253,35456
9254,35392
9255,35264
9256,35264
9257,35456
9258,35520
9259,35456
9260,35328
9261,35200
9262,35200
9263,35456
9264,35712
9265,35648
9266,35456
9267,35072
9268,34496
9269,33792
9270,33664
9271,32640
9272,32000
9273,31360
9274,30976
9275,30784
9276,31104
9277,31872
9278,33024
9279,34048
9280,34368
9281,33728
9282,32640
9283,32000
9284,31680
9285,31872
9286,32128
9287,32256
9288,32192
9289,31872
9290,31488
9291,30976
9292,30272
9293,29632
9294,29056
9295,28352
9296,27776
9297,27072
9298,26624
9299,26304
9300,26304
9301,26112
9302,26112
9303,26304
9304,26688
9305,27008
9306,27328
9307,27584
9308,27648
9309,27712
9310,27968
9311,28736
9312,30144
9313,32448
9314,35392
9315,38144
9316,40000
9317,40192
9318,38784
9319,36416
9320,33856
9321,31808
9322,30592
9323,30208
9324,30336
9325,30912
9326,31552
9327,32256
9328,32960
9329,33728
9330,34496
9331,35200
9332,35840
9333,36480
9334,36992
9335,37376
9336,37632
9337,37760
9338,37888
9339,38016
9340,38144
9341,38208
9342,38400
9343,38400
9344,38208
9345,37952
9346,37824
9347,37760
9348,37760
9349,37696
9350,37632
9351,37376
9352,37120
9353,36928
9354,36672
9355,36416
9356,35968
9357,35520
9358,34944
9359,34304
9360,34240
9361,33728
9362,33408
9363,33024
9364,32640
9365,32256
9366,31936
9367,31680
9368,31424
9369,31296
9370,31360
9371,31488
9372,31616
9373,31616
9374,31680
9375,31808
9376,31936
9377,32000
9378,31936
9379,31872
9380,31808
9381,31680
9382,31552
9383,31552
9384,31488
9385,31616
9386,31680
9387,31360
9388,31104
9389,31104
9390,31296
9391,31552
9392,31744
9393,32000
9394,32192
9395,32448
9396,32768
9397,33088
9398,33472
9399,33984
9400,34560
9401,35136
9402,35712
9403,36032
9404,36224
9405,36352
9406,36544
9407,36736
9408,36928
9409,37120
9410,37312
9411,37504
9412,37824
9413,38208
9414,38464
9415,38528
9416,38464
9417,38272
9418,38016
9419,37952
9420,37888
9421,37824
9422,37696
9423,37632
9424,37568
9425,37568
9426,37632
9427,37696
9428,37632
9429,37504
9430,37248
9431,36800
9432,36480
9433,36672
9434,37504
9435,39168
9436,41600
9437,44352
9438,46592
9439,47040
9440,45376
9441,42368
9442,38912
9443,35840
9444,33600
9445,32000
9446,30976
9447,30272
9448,29696
9449,29312
9450,29248
9451,29312
9452,29376
9453,29568
9454,29952
9455,30080
9456,29952
9457,30080
9458,30272
9459,30208
9460,29824
9461,29632
9462,29632
9463,29568
9464,29568
9465,29760
9466,30080
9467,30464
9468,30720
9469,30848
9470,31104
9471,31296
9472,31296
9473,31232
9474,31232
9475,31168
9476,31232
9477,31360
9478,31616
9479,32000
9480,32256
9481,32512
9482,32704
9483,33088
9484,33408
9485,33472
9486,33152
9487,32832
9488,32832
9489,33088
9490,33088
9491,33152
9492,33344
9493,33536
9494,33472
9495,33088
9496,32704
9497,32704
9498,32960
9499,33152
9500,33216
9501,33216
9502,33216
9503,33152
9504,33024
9505,32960
9506,32960
9507,32960
9508,33024
9509,33408
9510,33600
9511,33152
9512,32576
9513,32448
9514,32640
9515,32832
9516,32768
9517,32448
9518,32192
9519,32064
9520,31872
9521,32064
9522,32384
9523,32512
9524,32448
9525,32704
9526,33024
9527,33152
9528,33216
9529,33472
9530,33472
9531,33408
9532,33344
9533,33280
9534,32704
9535,31872
9536,31360
9537,31424
9538,31360
9539,30976
9540,31040
9541,31168
9542,30784
9543,30272
9544,29952
9545,30080
9546,30400
9547,30976
9548,31616
9549,31616
9550,31424
9551,31424
9552,31296
9553,30656
9554,30400
9555,30848
9556,31936
9557,34048
9558,37248
9559,40896
9560,43264
9561,44160
9562,43008
9563,40448
9564,37504
9565,35072
9566,33536
9567,32448
9568,31232
9569,29888
9570,28608
9571,27520
9572,27008
9573,26944
9574,27072
9575,27392
9576,27904
9577,28160
9578,28288
9579,28544
9580,29184
9581,29888
9582,30528
9583,30784
9584,30720
9585,30720
9586,30720
9587,30720
9588,30720
9589,30464
9590,30144
9591,29952
9592,30016
9593,30528
9594,31232
9595,31296
9596,30912
9597,30272
9598,29888
9599,29952
9600,30528
9601,30912
9602,30976
9603,30912
9604,30976
9605,30912
9606,30912
9607,30784
9608,30592
9609,30400
9610,30336
9611,30528
9612,30784
9613,31168
9614,31680
9615,32000
9616,32384
9617,33088
9618,33664
9619,33664
9620,33664
9621,33664
9622,32832
9623,32064
9624,31808
9625,31744
9626,31744
9627,31744
9628,31616
9629,31552
9630,31552
9631,31744
9632,32192
9633,32512
9634,32768
9635,33152
9636,33152
9637,32448
9638,31424
9639,30528
9640,30080
9641,30208
9642,30528
9643,30848
9644,31424
9645,32192
9646,32832
9647,33152
9648,33216
9649,33344
9650,33600
9651,33984
9652,34560
9653,35008
9654,35008
9655,34816
9656,34496
9657,34368
9658,34496
9659,34624
9660,34048
9661,33344
9662,32896
9663,32576
9664,32448
9665,32448
9666,32448
9667,32704
9668,33024
9669,33152
9670,33024
9671,33152
9672,33472
9673,33728
9674,33280
9675,32832
9676,32576
9677,32832
9678,33664
9679,34944
9680,36736
9681,39360
9682,42112
9683,43712
9684,43520
9685,41600
9686,38656
9687,35520
9688,32768
9689,30784
9690,29760
9691,29568
9692,29696
9693,29888
9694,30080
9695,30464
9696,31104
9697,31808
9698,32448
9699,33024
9700,33472
9701,33728
9702,33920
9703,34176
9704,34496
9705,34816
9706,35136
9707,35328
9708,35328
9709,35392
9710,35456
9711,35392
9712,35392
9713,35392
9714,35392
9715,35456
9716,35520
9717,35456
9718,35520
9719,35392
9720,35264
9721,35200
9722,35072
9723,34880
9724,34624
9725,34432
9726,34240
9727,33920
9728,33600
9729,33408
9730,33216
9731,33024
9732,32832
9733,32640
9734,32512
9735,32448
9736,32320
9737,32256
9738,32320
9739,32320
9740,32192
9741,32064
9742,32128
9743,32128
9744,32064
9745,32000
9746,32064
9747,32000
9748,31744
9749,31552
9750,31424
9751,31296
9752,31232
9753,31104
9754,31104
9755,31168
9756,31232
9757,31168
9758,31232
9759,31232
9760,31040
9761,30848
9762,30848
9763,30976
9764,31040
9765,31296
9766,31616
9767,31936
9768,32064
9769,32256
9770,32384
9771,32704
9772,33024
9773,33216
9774,33472
9775,33984
9776,34176
9777,33984
9778,33664
9779,33472
9780,33344
9781,33216
9782,33024
9783,32960
9784,33024
9785,33152
9786,33344
9787,33472
9788,33408
9789,33280
9790,33280
9791,33600
9792,33984
9793,34176
9794,34176
9795,34048
9796,33984
9797,34304
9798,35136
9799,36672
9800,38592
9801,41408
9802,44096
9803,45568
9804,45184
9805,43136
9806,40256
9807,37632
9808,35264
9809,33472
9810,32192
9811,31488
9812,31360
9813,31360
9814,31488
9815,31808
9816,32256
9817,32576
9818,32704
9819,33024
9820,33344
9821,33536
9822,33280
9823,33152
9824,33600
9825,34176
9826,34304
9827,34112
9828,33792
9829,33088
9830,31936
9831,30976
9832,30656
9833,30528
9834,30592
9835,30656
9836,30912
9837,31360
9838,31744
9839,31872
9840,31872
9841,31744
9842,32000
9843,32448
9844,32640
9845,32576
9846,32384
9847,32448
9848,32512
9849,32768
9850,33152
9851,33280
9852,33280
9853,33280
9854,33280
9855,33152
9856,33216
9857,33600
9858,34048
9859,34432
9860,34944
9861,35392
9862,35648
9863,35840
9864,35968
9865,36096
9866,36288
9867,36544
9868,36800
9869,36864
9870,36992
9871,37184
9872,37376
9873,37504
9874,37376
9875,37248
9876,36992
9877,36864
9878,37056
9879,37184
9880,36928
9881,36608
9882,36416
9883,36416
9884,36480
9885,36544
9886,36544
9887,36544
9888,36544
9889,36544
9890,36544
9891,36544
9892,36416
9893,36288
9894,36160
9895,36096
9896,36096
9897,35904
9898,35712
9899,35520
9900,35392
9901,35200
9902,34944
9903,34688
9904,34368
9905,33984
9906,33664
9907,33472
9908,33408
9909,33408
9910,33536
9911,33728
9912,33856
9913,33920
9914,33792
9915,33536
9916,33472
9917,33984
9918,35136
9919,36672
9920,38976
9921,41536
9922,43648
9923,44352
9924,43392
9925,41088
9926,38272
9927,35328
9928,33024
9929,31488
9930,30848
9931,30656
9932,30784
9933,31104
9934,31488
9935,31808
9936,32000
9937,32128
9938,32256
9939,32384
9940,32448
9941,32512
9942,32512
9943,32512
9944,32576
9945,32640
9946,32704
9947,32768
9948,32704
9949,32704
9950,32896
9951,33024
9952,32896
9953,32640
9954,32320
9955,32128
9956,32000
9957,31936
9958,31936
9959,31936
9960,31872
9961,31872
9962,31936
9963,32064
9964,32064
9965,32128
9966,32192
9967,32256
9968,32320
9969,32384
9970,32512
9971,32512
9972,32384
9973,32256
9974,32128
9975,32000
9976,32000
9977,32064
9978,32192
9979,32256
9980,32320
9981,32448
9982,32704
9983,33024
9984,33152
9985,33280
9986,33344
9987,33408
9988,33536
9989,33664
9990,33984
9991,34368
9992,34304
9993,33792
9994,33344
9995,33152
9996,33152
9997,33152
9998,33216
9999,33344
10000,33536
10001,33664
10002,33792
10003,33920
10004,34112
10005,34304
10006,34432
10007,34432
10008,34496
10009,34560
10010,34688
10011,34880
10012,34944
10013,34944
10014,34816
10015,34688
10016,34624
10017,34688
10018,34688
10019,34688
10020,34624
10021,34560
10022,34368
10023,34112
10024,33856
10025,33728
10026,33600
10027,33472
10028,33664
10029,33856
10030,33728
10031,33408
10032,33152
10033,33088
10034,33152
10035,33152
10036,32896
10037,32576
10038,32512
10039,32896
10040,33792
10041,35328
10042,37632
10043,40640
10044,43712
10045,45440
10046,45184
10047,42944
10048,39744
10049,36544
10050,33792
10051,31936
10052,30528
10053,29696
10054,29504
10055,29568
10056,29952
10057,30528
10058,30976
10059,31232
10060,31360
10061,31488
10062,31744
10063,32064
10064,32256
10065,32384
10066,32384
10067,32384
10068,32384
10069,32320
10070,32384
10071,32448
10072,32448
10073,32448
10074,32576
10075,32704
10076,32896
10077,32960
10078,32896
10079,32832
10080,32704
10081,32640
10082,32640
10083,32640
10084,32704
10085,32640
10086,32640
10087,32576
10088,32512
10089,32384
10090,32192
10091,32064
10092,32000
10093,31872
10094,31808
10095,31744
10096,31808
10097,31744
10098,31680
10099,31616
10100,31680
10101,32000
10102,32256
10103,32320
10104,32256
10105,32256
10106,32256
10107,32384
10108,32576
10109,32768
10110,32896
10111,33088
10112,33216
10113,33344
10114,33280
10115,33152
10116,33024
10117,33024
10118,32960
10119,32832
10120,32768
10121,32768
10122,32832
10123,32832
10124,32960
10125,33088
10126,33152
10127,33280
10128,33408
10129,33536
10130,33536
10131,33536
10132,33536
10133,33600
10134,33664
10135,33600
10136,33536
10137,33600
10138,33664
10139,33600
10140,33472
10141,33280
10142,32960
10143,32640
10144,32320
10145,32000
10146,31616
10147,31360
10148,31104
10149,31040
10150,31040
10151,31104
10152,31168
10153,31232
10154,31296
10155,31424
10156,31424
10157,31360
10158,31296
10159,31232
10160,31552
10161,32256
10162,33664
10163,35904
10164,38784
10165,41728
10166,43840
10167,44032
10168,42240
10169,39168
10170,35776
10171,32896
10172,30784
10173,29568
10174,28992
10175,28992
10176,29248
10177,29568
10178,30016
10179,30400
10180,30720
10181,31104
10182,31424
10183,31744
10184,32000
10185,32192
10186,32320
10187,32576
10188,32768
10189,32704
10190,32576
10191,32448
10192,32448
10193,32448
10194,32384
10195,32320
10196,32384
10197,32576
10198,32832
10199,32896
10200,32896
10201,32768
10202,32704
10203,32640
10204,32768
10205,32832
10206,32960
10207,33024
10208,33088
10209,33152
10210,33024
10211,33024
10212,33152
10213,33152
10214,33152
10215,33024
10216,33024
10217,32960
10218,32896
10219,32896
10220,32896
10221,32960
10222,33024
10223,33216
10224,33600
10225,34112
10226,34496
10227,34624
10228,34688
10229,34880
10230,35200
10231,35392
10232,35456
10233,35456
10234,35584
10235,35584
10236,35584
10237,35712
10238,35904
10239,35904
10240,35712
10241,35520
10242,35456
10243,35520
10244,35648
10245,35840
10246,35904
10247,35968
10248,35904
10249,35904
10250,35904
10251,35904
10252,35840
10253,35840
10254,35840
10255,35840
10256,35712
10257,35712
10258,35648
10259,35648
10260,35584
10261,35456
10262,35200
10263,34944
10264,34496
10265,34240
10266,33920
10267,33664
10268,33472
10269,33280
10270,33152
10271,32960
10272,32832
10273,32704
10274,32640
10275,32704
10276,32704
10277,32512
10278,32384
10279,32512
10280,33024
10281,33984
10282,35584
10283,37952
10284,40704
10285,43072
10286,43968
10287,42944
10288,40512
10289,37440
10290,34496
10291,32192
10292,30656
10293,29760
10294,29376
10295,29376
10296,29696
10297,30144
10298,30592
10299,30976
10300,31232
10301,31424
10302,31488
10303,31680
10304,31936
10305,32128
10306,32320
10307,32384
10308,32512
10309,32576
10310,32576
10311,32576
10312,32704
10313,32768
10314,32832
10315,32896
10316,32960
10317,33088
10318,33152
10319,33088
10320,33024
10321,33024
10322,33024
10323,33024
10324,33088
10325,33216
10326,33216
10327,33280
10328,33472
10329,33600
10330,33536
10331,33344
10332,33216
10333,33152
10334,33088
10335,32960
10336,32960
10337,33088
10338,33216
10339,33216
10340,33152
10341,33088
10342,33152
10343,33344
10344,33408
10345,33536
10346,33600
10347,33600
10348,33600
10349,33600
10350,33664
10351,33856
10352,33984
10353,34112
10354,34304
10355,34560
10356,34688
10357,34880
10358,35008
10359,35072
10360,35008
10361,34944
10362,34880
10363,34816
10364,34816
10365,34880
10366,35008
10367,35264
10368,35392
10369,35520
10370,35584
10371,35712
10372,35776
10373,35776
10374,35776
10375,35776
10376,35776
10377,35712
10378,35584
10379,35584
10380,35584
10381,35584
10382,35264
10383,34816
10384,34304
10385,33856
10386,33600
10387,33472
10388,33472
10389,33408
10390,33216
10391,33024
10392,32960
10393,32896
10394,32960
10395,32960
10396,32832
10397,32640
10398,32512
10399,32896
10400,33664
10401,34944
10402,37056
10403,39808
10404,42432
10405,43712
10406,43008
10407,40704
10408,37568
10409,34368
10410,31680
10411,29824
10412,28672
10413,28096
10414,27904
10415,27968
10416,28160
10417,28480
10418,28800
10419,28992
10420,29248
10421,29504
10422,29696
10423,29824
10424,29888
10425,29952
10426,30016
10427,30016
10428,30144
10429,30208
10430,30336
10431,30400
10432,30528
10433,30656
10434,30848
10435,30848
10436,30848
10437,30848
10438,30912
10439,30976
10440,31168
10441,31296
10442,31424
10443,31552
10444,31616
10445,31744
10446,31872
10447,31936
10448,31936
10449,31936
10450,31936
10451,31872
10452,31808
10453,31872
10454,31936
10455,32000
10456,32000
10457,32000
10458,32128
10459,32192
10460,32256
10461,32384
10462,32512
10463,32704
10464,32832
10465,33024
10466,33216
10467,33408
10468,33536
10469,33664
10470,33792
10471,33984
10472,34048
10473,33984
10474,33920
10475,33856
10476,33792
10477,33728
10478,33728
10479,33792
10480,33856
10481,33856
10482,33792
10483,33856
10484,33920
10485,33984
10486,34112
10487,34176
10488,34304
10489,34304
10490,34304
10491,34368
10492,34432
10493,34496
10494,34496
10495,34560
10496,34560
10497,34496
10498,34432
10499,34368
10500,34368
10501,34176
10502,33920
10503,33728
10504,33408
10505,33152
10506,32896
10507,32640
10508,32512
10509,32512
10510,32512
10511,32576
10512,32704
10513,32768
10514,32768
10515,32704
10516,32640
10517,32512
10518,32448
10519,32576
10520,33216
10521,34368
10522,36160
10523,38784
10524,41856
10525,44480
10526,45440
10527,44224
10528,41472
10529,38272
10530,35264
10531,32960
10532,31488
10533,30720
10534,30400
10535,30336
10536,30464
10537,30784
10538,31232
10539,31616
10540,31936
10541,32384
10542,32768
10543,33024
10544,33088
10545,33152
10546,33216
10547,33280
10548,33280
10549,33280
10550,33280
10551,33216
10552,33216
10553,33216
10554,33216
10555,33280
10556,33280
10557,33280
10558,33344
10559,33344
10560,33408
10561,33408
10562,33472
10563,33536
10564,33536
10565,33536
10566,33536
10567,33536
10568,33536
10569,33536
10570,33536
10571,33536
10572,33472
10573,33280
10574,33216
10575,33152
10576,33088
10577,33024
10578,33024
10579,33088
10580,33152
10581,33280
10582,33408
10583,33600
10584,33792
10585,33920
10586,34048
10587,34240
10588,34432
10589,34496
10590,34560
10591,34624
10592,34624
10593,34496
10594,34368
10595,34304
10596,34240
10597,34304
10598,34304
10599,34368
10600,34368
10601,34240
10602,34112
10603,33984
10604,33856
10605,33728
10606,33664
10607,33600
10608,33600
10609,33664
10610,33728
10611,33984
10612,34176
10613,34240
10614,34112
10615,33984
10616,34048
10617,33984
10618,33472
10619,32832
10620,32576
10621,32576
10622,32704
10623,32704
10624,32640
10625,32768
10626,32896
10627,33024
10628,32768
10629,32256
10630,31744
10631,31360
10632,31424
10633,31744
10634,31872
10635,32064
10636,32576
10637,33024
10638,33344
10639,33600
10640,33792
10641,33984
10642,34560
10643,35712
10644,38080
10645,40832
10646,43648
10647,45248
10648,45120
10649,43456
10650,40320
10651,37696
10652,34880
10653,32384
10654,30592
10655,29248
10656,28416
10657,28160
10658,28544
10659,29120
10660,29568
10661,29696
10662,30016
10663,30784
10664,31616
10665,32192
10666,32384
10667,32448
10668,32576
10669,32448
10670,32320
10671,32256
10672,31936
10673,31616
10674,31168
10675,30848
10676,30592
10677,30144
10678,29632
10679,29760
10680,30400
10681,31296
10682,32000
10683,32448
10684,32832
10685,32960
10686,32832
10687,32640
10688,32384
10689,32000
10690,31680
10691,31680
10692,31616
10693,31488
10694,31424
10695,31488
10696,31552
10697,31744
10698,31808
10699,32000
10700,32064
10701,31808
10702,31488
10703,31296
10704,30976
10705,30784
10706,31040
10707,31872
10708,32832
10709,33536
10710,33984
10711,34048
10712,34048
10713,34176
10714,34304
10715,34304
10716,34368
10717,34368
10718,34368
10719,34368
10720,34240
10721,34240
10722,34432
10723,34560
10724,34624
10725,34752
10726,34752
10727,34816
10728,35008
10729,35456
10730,35776
10731,35712
10732,35712
10733,36160
10734,36672
10735,36672
10736,36288
10737,36032
10738,35904
10739,35648
10740,35264
10741,35136
10742,35008
10743,34944
10744,35008
10745,34944
10746,34816
10747,34624
10748,34368
10749,33984
10750,33728
10751,33408
10752,33088
10753,33088
10754,33152
10755,33024
10756,33024
10757,33024
10758,32896
10759,32448
10760,32256
10761,32320
10762,32640
10763,33408
10764,34944
10765,37120
10766,39872
10767,42560
10768,44032
10769,43520
10770,41344
10771,38592
10772,35584
10773,32896
10774,30784
10775,29504
10776,29120
10777,29120
10778,29376
10779,29760
10780,30208
10781,30528
10782,30784
10783,31040
10784,31296
10785,31488
10786,31680
10787,31936
10788,32192
10789,32320
10790,32448
10791,32576
10792,32640
10793,32768
10794,32832
10795,33024
10796,33088
10797,33216
10798,33344
10799,33408
10800,33536
10801,33728
10802,33856
10803,34048
10804,34304
10805,34496
10806,34560
10807,34624
10808,34624
10809,34496
10810,34432
10811,34240
10812,34176
10813,34304
10814,34368
10815,34240
10816,34048
10817,33920
10818,34048
10819,34112
10820,34240
10821,34304
10822,34112
10823,33984
10824,33984
10825,33984
10826,34112
10827,34112
10828,34304
10829,34688
10830,35008
10831,35328
10832,35584
10833,35904
10834,35968
10835,36032
10836,36160
10837,36160
10838,36096
10839,36032
10840,35968
10841,35968
10842,35840
10843,35904
10844,35904
10845,35840
10846,35968
10847,36032
10848,36096
10849,36224
10850,36352
10851,36416
10852,36416
10853,36416
10854,36288
10855,36224
10856,36288
10857,36416
10858,36416
10859,36288
10860,36288
10861,36352
10862,36352
10863,36288
10864,36160
10865,35904
10866,35712
10867,35520
10868,35328
10869,35200
10870,34944
10871,34880
10872,34880
10873,35008
10874,35136
10875,35328
10876,35456
10877,35648
10878,35776
10879,35776
10880,35712
10881,35584
10882,35904
10883,36672
10884,37824
10885,39552
10886,42048
10887,45056
10888,47296
10889,47104
10890,44608
10891,41408
10892,38336
10893,35776
10894,35584
10895,34048
10896,33408
10897,33088
10898,33344
10899,33664
10900,33856
10901,34112
10902,34368
10903,34432
10904,34560
10905,34752
10906,34880
10907,35008
10908,35136
10909,34944
10910,34880
10911,34688
10912,34368
10913,34048
10914,33984
10915,33408
10916,33216
10917,32704
10918,32320
10919,32128
10920,31872
10921,31744
10922,31552
10923,31424
10924,31360
