,ECG
0,34176
1,34304
2,34304
3,34048
4,33920
5,34112
6,34240
7,34112
8,33984
9,34176
10,34368
11,34240
12,34048
13,34176
14,34368
15,34304
16,34112
17,34176
18,34432
19,34368
20,34176
21,34240
22,34496
23,34496
24,34304
25,34240
26,34496
27,34560
28,34432
29,34304
30,34560
31,34688
32,34560
33,34432
34,34624
35,34880
36,34688
37,34496
38,34624
39,34816
40,34688
41,34496
42,34560
43,34752
44,34688
45,34432
46,34368
47,34496
48,34432
49,34112
50,33984
51,34176
52,34240
53,33984
54,33856
55,34048
56,34240
57,34048
58,33984
59,34176
60,34368
61,34176
62,33984
63,34048
64,34240
65,34176
66,33984
67,34048
68,34304
69,34240
70,33984
71,34048
72,34240
73,34304
74,34048
75,34048
76,34304
77,34304
78,34112
79,33984
80,34176
81,34368
82,34176
83,34048
84,34432
85,34368
86,34112
87,34240
88,34432
89,34304
90,34048
91,34048
92,34304
93,34240
94,34048
95,34048
96,34304
97,34304
98,34112
99,34048
100,34304
101,34368
102,34176
103,33984
104,34176
105,34304
106,34240
107,34048
108,33920
109,34304
110,34176
111,34048
112,34112
113,34304
114,34240
115,33984
116,34048
117,34304
118,34304
119,34112
120,34112
121,34368
122,34496
123,34368
124,34304
125,34496
126,34624
127,34432
128,34304
129,34560
130,34560
131,34560
132,34368
133,34496
134,34624
135,34432
136,34112
137,34048
138,34048
139,33984
140,33664
141,33664
142,33920
143,33920
144,33728
145,33664
146,34048
147,34176
148,33984
149,33856
150,34112
151,34240
152,33984
153,33856
154,34048
155,34240
156,34176
157,34240
158,34688
159,35328
160,35328
161,36416
162,37120
163,37504
164,36928
165,35584
166,34048
167,32768
168,31808
169,31168
170,31168
171,31680
172,32256
173,32768
174,33280
175,34048
176,34560
177,34688
178,34688
179,34880
180,34944
181,34624
182,34368
183,34368
184,34432
185,34240
186,34112
187,33920
188,34176
189,34176
190,33920
191,33920
192,34240
193,34240
194,34048
195,33984
196,34240
197,34304
198,34112
199,34048
200,34240
201,34368
202,34240
203,34048
204,34240
205,34432
206,34304
207,34176
208,34304
209,34496
210,34432
211,34240
212,34304
213,34624
214,34560
215,34432
216,34432
217,34752
218,34816
219,34560
220,34496
221,34752
222,34880
223,34688
224,34560
225,34752
226,34816
227,34560
228,34368
229,34496
230,34624
231,34432
232,34176
233,34240
234,34368
235,34304
236,33984
237,33920
238,34176
239,34112
240,33920
241,33856
242,34112
243,34176
244,33984
245,33920
246,34176
247,34304
248,34112
249,33984
250,33920
251,34304
252,34112
253,33984
254,34176
255,34368
256,34176
257,33984
258,34048
259,34304
260,34176
261,33984
262,34048
263,34304
264,34176
265,34112
266,33984
267,34240
268,34240
269,34112
270,34048
271,34304
272,34368
273,34176
274,33984
275,34176
276,34368
277,34240
278,34048
279,34240
280,34368
281,34240
282,34048
283,34112
284,34368
285,34240
286,34048
287,34048
288,34368
289,34304
290,34048
291,33984
292,34240
293,34304
294,34048
295,33984
296,34240
297,34304
298,34112
299,33984
300,34112
301,34304
302,34112
303,33984
304,34112
305,34304
306,34176
307,34048
308,34112
309,34496
310,34432
311,34368
312,34496
313,34752
314,34688
315,34496
316,34432
317,34688
318,34688
319,34496
320,34368
321,34560
322,34560
323,34304
324,34112
325,34176
326,34176
327,33920
328,33728
329,33792
330,33984
331,33920
332,33728
333,33856
334,34112
335,34112
336,33984
337,34048
338,34304
339,34240
340,33984
341,33856
342,34112
343,34176
344,34048
345,34176
346,34688
347,35328
348,35776
349,36416
350,37184
351,37568
352,36928
353,35584
354,34048
355,32896
356,31872
357,31232
358,31232
359,31808
360,32256
361,32704
362,33280
363,34112
364,34560
365,34624
366,34688
367,34944
368,34944
369,34688
370,34432
371,34560
372,34496
373,34240
374,33984
375,34112
376,34240
377,34048
378,33920
379,33984
380,34240
381,34176
382,33984
383,34048
384,34240
385,34240
386,34112
387,34112
388,34368
389,34368
390,34176
391,34112
392,34368
393,34432
394,34240
395,34176
396,34368
397,34560
398,34432
399,34304
400,34496
401,34688
402,34560
403,34432
404,34496
405,34752
406,34688
407,34496
408,34560
409,34816
410,34816
411,34624
412,34624
413,34880
414,34880
415,34624
416,34496
417,34624
418,34624
419,34368
420,34176
421,34304
422,34368
423,34176
424,33984
425,34048
426,34240
427,34048
428,33920
429,33984
430,34240
431,34176
432,33984
433,33984
434,34304
435,34304
436,34048
437,34048
438,34304
439,34304
440,34112
441,33984
442,34240
443,34304
444,34048
445,33984
446,34176
447,34304
448,34112
449,33984
450,34112
451,34304
452,34176
453,33984
454,34112
455,34368
456,34240
457,34048
458,34112
459,34368
460,34368
461,34112
462,34048
463,34304
464,34368
465,34176
466,34048
467,34304
468,34368
469,34176
470,34048
471,34240
472,34432
473,34240
474,34048
475,34176
476,34432
477,34240
478,34048
479,34112
480,34368
481,34240
482,34048
483,33984
484,34240
485,34240
486,34048
487,33984
488,34240
489,34304
490,34112
491,33984
492,34176
493,34304
494,34112
495,33984
496,34112
497,34304
498,34176
499,33984
500,34112
501,34368
502,34240
503,34112
504,34176
505,34560
506,34496
507,34368
508,34368
509,34560
510,34560
511,34304
512,34304
513,34496
514,34496
515,34304
516,34112
517,34304
518,34304
519,34048
520,33856
521,33984
522,34112
523,33856
524,33664
525,33792
526,34048
527,33920
528,33792
529,33920
530,34240
531,34176
532,33984
533,33984
534,34240
535,34176
536,33984
537,33920
538,34176
539,34368
540,34368
541,34624
542,35328
543,36160
544,36800
545,37056
546,36992
547,36352
548,34880
549,33216
550,32256
551,31872
552,31616
553,31552
554,31936
555,32640
556,33088
557,33472
558,33920
559,34496
560,34752
561,34688
562,34624
563,34816
564,34816
565,34496
566,34240
567,34304
568,34368
569,34112
570,33920
571,34048
572,34240
573,34112
574,33920
575,34048
576,34304
577,34240
578,34112
579,34112
580,34368
581,34304
582,34112
583,34112
584,34368
585,34432
586,34240
587,34176
588,34432
589,34560
590,34368
591,34240
592,34432
593,34624
594,34432
595,34304
596,34432
597,34688
598,34560
599,34432
600,34560
601,34816
602,34688
603,34560
604,34560
605,34816
606,34816
607,34624
608,34560
609,34816
610,34816
611,34560
612,34432
613,34560
614,34560
615,34304
616,34112
617,34240
618,34368
619,34112
620,33920
621,33984
622,34176
623,34048
624,33856
625,33920
626,34176
627,34176
628,33984
629,33984
630,34240
631,34304
632,34048
633,34048
634,34240
635,34304
636,34112
637,33984
638,34176
639,34304
640,34112
641,33984
642,34112
643,34304
644,34112
645,33920
646,34048
647,34304
648,34176
649,34048
650,34112
651,34368
652,34304
653,34112
654,34112
655,34368
656,34368
657,34176
658,34112
659,34304
660,34368
661,34112
662,34048
663,34240
664,34368
665,34176
666,34048
667,34176
668,34368
669,34176
670,33984
671,34112
672,34368
673,34240
674,34048
675,34112
676,34368
677,34240
678,34048
679,33984
680,34240
681,34240
682,34048
683,33984
684,34176
685,34240
686,34048
687,33920
688,34176
689,34304
690,34112
691,33984
692,34240
693,34368
694,34304
695,34240
696,34432
697,34688
698,34624
699,34304
700,34304
701,34560
702,34496
703,34304
704,34240
705,34496
706,34432
707,34176
708,34048
709,34240
710,34304
711,34048
712,33856
713,34048
714,34176
715,33984
716,33856
717,33984
718,34240
719,34112
720,33920
721,34048
722,34368
723,34240
724,34048
725,34048
726,34304
727,34240
728,34112
729,34240
730,34816
731,35328
732,35776
733,36416
734,37184
735,37312
736,36480
737,34880
738,34048
739,33088
740,32192
741,31744
742,31808
743,32192
744,32448
745,32704
746,33216
747,33920
748,34240
749,34304
750,34496
751,34816
752,34816
753,34560
754,34432
755,34624
756,34560
757,34240
758,34048
759,34240
760,34304
761,34112
762,33920
763,34112
764,34304
765,34240
766,34048
767,34240
768,34368
769,34240
770,34048
771,34176
772,34432
773,34368
774,34176
775,34176
776,34432
777,34432
778,34240
779,34176
780,34432
781,34496
782,34304
783,34240
784,34496
785,34624
786,34496
787,34368
788,34560
789,34752
790,34624
791,34432
792,34560
793,34816
794,34752
795,34560
796,34560
797,34816
798,34688
799,34496
800,34432
801,34688
802,34624
803,34368
804,34240
805,34368
806,34368
807,34112
808,33984
809,34112
810,34240
811,34048
812,33920
813,34112
814,34304
815,34112
816,33984
817,34112
818,34304
819,34176
820,33984
821,34048
822,34304
823,34304
824,34048
825,33984
826,34240
827,34240
828,34048
829,33984
830,34240
831,34304
832,34112
833,33984
834,34176
835,34368
836,34176
837,34048
838,34176
839,34368
840,34240
841,34112
842,34176
843,34432
844,34304
845,34112
846,34176
847,34432
848,34368
849,34112
850,34112
851,34368
852,34368
853,34176
854,34112
855,34304
856,34432
857,34176
858,34048
859,34176
860,34304
861,34112
862,33984
863,34112
864,34304
865,34176
866,33984
867,34048
868,34304
869,34240
870,34048
871,34048
872,34368
873,34240
874,34048
875,33984
876,34304
877,34304
878,34112
879,34048
880,34304
881,34496
882,34368
883,34240
884,34496
885,34624
886,34496
887,34368
888,34496
889,34624
890,34496
891,34304
892,34304
893,34496
894,34304
895,34048
896,33984
897,34176
898,34112
899,33856
900,33792
901,34048
902,34048
903,33920
904,33856
905,34112
906,34240
907,34112
908,33984
909,34112
910,34304
911,34176
912,33984
913,34112
914,34368
915,34368
916,34368
917,34752
918,35520
919,36096
920,36672
921,37184
922,37312
923,36480
924,34944
925,33600
926,32704
927,32064
928,31616
929,31488
930,32000
931,32576
932,33024
933,33280
934,33920
935,34496
936,34624
937,34624
938,34752
939,34944
940,34752
941,34432
942,34368
943,34496
944,34304
945,34048
946,33984
947,34240
948,34176
949,33984
950,33920
951,34176
952,34304
953,34112
954,33984
955,34176
956,34304
957,34176
958,34048
959,34240
960,34432
961,34304
962,34176
963,34240
964,34560
965,34432
966,34240
967,34304
968,34496
969,34496
970,34304
971,34304
972,34560
973,34624
974,34496
975,34432
976,34688
977,34816
978,34624
979,34560
980,34752
981,34880
982,34688
983,34496
984,34688
985,34880
986,34688
987,34432
988,34496
989,34624
990,34432
991,34176
992,34240
993,34304
994,34240
995,33984
996,33920
997,34176
998,34240
999,33984
1000,33920
1001,34112
1002,34240
1003,34048
1004,33984
1005,34176
1006,34304
1007,34048
1008,33984
1009,34112
1010,34304
1011,34176
1012,33984
1013,34048
1014,34240
1015,34112
1016,33920
1017,33920
1018,34176
1019,34176
1020,33984
1021,33984
1022,34240
1023,34240
1024,34048
1025,33984
1026,34176
1027,34304
1028,34112
1029,34048
1030,34240
1031,34432
1032,34240
1033,34048
1034,34176
1035,34368
1036,34240
1037,33984
1038,34048
1039,34368
1040,34304
1041,34048
1042,34048
1043,34304
1044,34304
1045,34048
1046,33984
1047,34176
1048,34240
1049,34048
1050,33984
1051,34176
1052,34240
1053,34112
1054,33984
1055,34176
1056,34368
1057,34176
1058,33984
1059,34112
1060,34368
1061,34176
1062,33984
1063,34048
1064,34304
1065,34240
1066,34048
1067,33984
1068,34240
1069,34240
1070,34112
1071,34048
1072,34432
1073,34560
1074,34432
1075,34368
1076,34496
1077,34624
1078,34432
1079,34240
1080,34368
1081,34560
1082,34368
1083,34240
1084,34240
1085,34368
1086,34176
1087,33920
1088,33920
1089,34112
1090,33984
1091,33728
1092,33728
1093,33984
1094,34048
1095,33856
1096,33856
1097,34240
1098,34176
1099,34048
1100,33920
1101,34176
1102,34304
1103,34112
1104,33920
1105,34112
1106,34368
1107,34432
1108,34496
1109,35008
1110,35840
1111,36480
1112,37120
1113,37248
1114,37056
1115,35968
1116,34304
1117,32896
1118,32192
1119,31680
1120,31424
1121,31552
1122,32192
1123,32832
1124,33216
1125,33600
1126,34240
1127,34752
1128,34752
1129,34624
1130,34752
1131,34816
1132,34560
1133,34304
1134,34240
1135,34432
1136,34240
1137,33984
1138,33920
1139,34176
1140,34176
1141,33984
1142,34048
1143,34240
1144,34304
1145,34112
1146,33984
1147,34240
1148,34368
1149,34112
1150,33984
1151,34176
1152,34368
1153,34240
1154,34112
1155,34240
1156,34496
1157,34368
1158,34176
1159,34240
1160,34496
1161,34432
1162,34240
1163,34304
1164,34560
1165,34624
1166,34432
1167,34432
1168,34752
1169,34816
1170,34624
1171,34560
1172,34880
1173,34880
1174,34688
1175,34560
1176,34688
1177,34816
1178,34624
1179,34432
1180,34432
1181,34624
1182,34432
1183,34176
1184,34176
1185,34304
1186,34176
1187,33856
1188,33920
1189,34176
1190,34176
1191,33984
1192,33920
1193,34176
1194,34240
1195,34048
1196,33920
1197,34112
1198,34240
1199,34112
1200,33984
1201,34176
1202,34368
1203,34240
1204,34048
1205,34112
1206,34304
1207,34176
1208,33920
1209,33984
1210,34240
1211,34176
1212,33984
1213,34048
1214,34304
1215,34304
1216,34112
1217,34048
1218,34240
1219,34304
1220,34112
1221,33984
1222,34240
1223,34368
1224,34176
1225,34048
1226,34240
1227,34368
1228,34240
1229,34048
1230,34176
1231,34432
1232,34304
1233,34112
1234,34112
1235,34304
1236,34240
1237,34048
1238,33984
1239,34240
1240,34304
1241,34048
1242,33984
1243,34240
1244,34304
1245,34112
1246,33984
1247,34112
1248,34240
1249,34112
1250,33920
1251,34112
1252,34304
1253,34112
1254,33984
1255,34048
1256,34240
1257,34112
1258,33920
1259,33984
1260,34240
1261,34240
1262,34048
1263,33984
1264,34240
1265,34304
1266,34048
1267,33984
1268,34176
1269,34304
1270,34240
1271,34176
1272,34432
1273,34624
1274,34432
1275,34240
1276,34304
1277,34496
1278,34368
1279,34176
1280,34240
1281,34432
1282,34368
1283,34112
1284,34048
1285,34240
1286,34176
1287,33920
1288,33856
1289,34048
1290,34112
1291,33856
1292,33792
1293,34048
1294,34176
1295,33984
1296,33856
1297,34048
1298,34304
1299,34112
1300,33984
1301,34112
1302,34304
1303,34176
1304,34112
1305,34368
1306,34944
1307,35392
1308,35840
1309,36608
1310,37312
1311,37248
1312,36352
1313,35072
1314,33856
1315,32832
1316,32000
1317,31616
1318,31744
1319,32128
1320,32320
1321,32704
1322,33344
1323,33984
1324,34240
1325,34368
1326,34624
1327,34944
1328,34816
1329,34496
1330,34432
1331,34560
1332,34432
1333,34176
1334,34112
1335,34304
1336,34240
1337,33984
1338,33920
1339,34176
1340,34240
1341,34112
1342,33984
1343,34240
1344,34368
1345,34176
1346,34048
1347,34240
1348,34368
1349,34240
1350,34112
1351,34176
1352,34432
1353,34368
1354,34176
1355,34176
1356,34496
1357,34496
1358,34304
1359,34240
1360,34560
1361,34560
1362,34432
1363,34368
1364,34624
1365,34688
1366,34560
1367,34432
1368,34688
1369,34816
1370,34624
1371,34496
1372,34624
1373,34752
1374,34624
1375,34432
1376,34496
1377,34688
1378,34560
1379,34304
1380,34240
1381,34432
1382,34304
1383,34048
1384,33984
1385,34176
1386,34176
1387,33920
1388,33856
1389,34048
1390,34176
1391,34048
1392,33920
1393,34112
1394,34304
1395,34112
1396,33984
1397,34112
1398,34304
1399,34176
1400,33920
1401,33984
1402,34240
1403,34240
1404,33984
1405,34048
1406,34304
1407,34304
1408,34048
1409,34048
1410,34304
1411,34304
1412,34112
1413,34048
1414,34240
1415,34368
1416,34176
1417,34048
1418,34176
1419,34368
1420,34240
1421,34048
1422,34112
1423,34368
1424,34240
1425,34048
1426,34176
1427,34368
1428,34304
1429,34112
1430,34112
1431,34368
1432,34368
1433,34176
1434,34048
1435,34304
1436,34368
1437,34112
1438,33984
1439,34240
1440,34368
1441,34112
1442,33984
1443,34176
1444,34368
1445,34176
1446,33984
1447,34112
1448,34304
1449,34176
1450,34048
1451,34112
1452,34304
1453,34240
1454,34048
1455,34048
1456,34304
1457,34304
1458,34048
1459,33984
1460,34240
1461,34304
1462,34112
1463,33984
1464,34304
1465,34496
1466,34368
1467,34240
1468,34432
1469,34624
1470,34496
1471,34304
1472,34432
1473,34624
1474,34496
1475,34304
1476,34304
1477,34496
1478,34432
1479,34176
1480,34112
1481,34368
1482,34304
1483,34048
1484,33920
1485,34112
1486,34176
1487,33920
1488,33792
1489,34048
1490,34176
1491,34048
1492,33920
1493,34112
1494,34304
1495,34176
1496,33984
1497,34112
1498,34368
1499,34304
1500,34240
1501,34496
1502,35200
1503,35712
1504,36160
1505,36864
1506,37504
1507,37376
1508,36288
1509,34752
1510,33472
1511,32384
1512,31552
1513,31232
1514,31552
1515,32128
1516,32576
1517,33024
1518,33664
1519,34304
1520,34560
1521,34624
1522,34752
1523,35008
1524,34816
1525,34560
1526,34432
1527,34560
1528,34432
1529,34112
1530,33984
1531,34176
1532,34176
1533,33984
1534,33920
1535,34176
1536,34304
1537,34176
1538,34048
1539,34240
1540,34368
1541,34240
1542,34112
1543,34240
1544,34432
1545,34304
1546,34112
1547,34176
1548,34432
1549,34368
1550,34240
1551,34240
1552,34496
1553,34560
1554,34368
1555,34368
1556,34624
1557,34688
1558,34496
1559,34432
1560,34688
1561,34752
1562,34560
1563,34432
1564,34624
1565,34816
1566,34688
1567,34496
1568,34624
1569,34816
1570,34688
1571,34496
1572,34496
1573,34752
1574,34624
1575,34304
1576,34240
1577,34432
1578,34368
1579,34048
1580,33920
1581,34112
1582,34176
1583,33984
1584,33856
1585,34112
1586,34240
1587,34048
1588,33856
1589,34048
1590,34240
1591,34112
1592,33920
1593,34048
1594,34304
1595,34176
1596,33984
1597,34048
1598,34304
1599,34240
1600,33984
1601,33984
1602,34240
1603,34176
1604,33984
1605,33920
1606,34176
1607,34240
1608,34048
1609,33920
1610,34176
1611,34304
1612,34176
1613,33984
1614,34176
1615,34304
1616,34112
1617,33920
1618,33984
1619,34240
1620,34176
1621,33984
1622,34048
1623,34304
1624,34240
1625,34048
1626,34048
1627,34304
1628,34304
1629,34112
1630,33984
1631,34240
1632,34304
1633,34112
1634,33984
1635,34112
1636,34304
1637,34112
1638,33984
1639,34112
1640,34304
1641,34176
1642,33984
1643,34048
1644,34304
1645,34240
1646,33984
1647,34048
1648,34304
1649,34240
1650,34048
1651,33984
1652,34240
1653,34304
1654,34112
1655,33984
1656,34176
1657,34304
1658,34112
1659,33984
1660,34176
1661,34304
1662,34176
1663,33984
1664,34112
1665,34432
1666,34368
1667,34240
1668,34368
1669,34688
1670,34560
1671,34368
1672,34368
1673,34624
1674,34560
1675,34240
1676,34176
1677,34368
1678,34368
1679,34176
1680,34048
1681,34240
1682,34304
1683,34048
1684,33792
1685,33920
1686,34048
1687,33920
1688,33792
1689,33920
1690,34176
1691,34112
1692,33920
1693,33984
1694,34240
1695,34240
1696,34048
1697,33984
1698,34304
1699,34304
1700,34304
1701,34496
1702,35072
1703,35648
1704,36224
1705,36928
1706,37440
1707,37312
1708,36288
1709,34688
1710,33280
1711,32320
1712,31552
1713,31232
1714,31488
1715,32128
1716,32640
1717,33088
1718,33664
1719,34432
1720,34688
1721,34688
1722,34752
1723,34944
1724,34880
1725,34560
1726,34368
1727,34496
1728,34496
1729,34176
1730,33984
1731,34176
1732,34240
1733,34112
1734,33920
1735,34112
1736,34304
1737,34176
1738,33984
1739,34048
1740,34304
1741,34240
1742,34112
1743,34112
1744,34432
1745,34432
1746,34176
1747,34176
1748,34432
1749,34432
1750,34240
1751,34176
1752,34368
1753,34496
1754,34368
1755,34240
1756,34496
1757,34688
1758,34560
1759,34432
1760,34624
1761,34880
1762,34752
1763,34624
1764,34688
1765,34880
1766,34816
1767,34624
1768,34688
1769,34880
1770,34816
1771,34560
1772,34496
1773,34688
1774,34624
1775,34368
1776,34176
1777,34368
1778,34432
1779,34176
1780,34048
1781,34176
1782,34304
1783,34112
1784,33920
1785,33984
1786,34240
1787,34112
1788,33984
1789,34112
1790,34304
1791,34240
1792,34048
1793,34048
1794,34304
1795,34304
1796,34048
1797,33984
1798,34240
1799,34304
1800,34112
1801,33984
1802,34240
1803,34368
1804,34112
1805,33984
1806,34112
1807,34304
1808,34176
1809,33984
1810,34176
1811,34432
1812,34304
1813,34112
1814,34176
1815,34432
1816,34368
1817,34112
1818,34112
1819,34368
1820,34368
1821,34176
1822,34048
1823,34304
1824,34368
1825,34176
1826,34048
1827,34304
1828,34368
1829,34176
1830,34048
1831,34176
1832,34368
1833,34240
1834,34048
1835,34176
1836,34368
1837,34304
1838,34112
1839,34112
1840,34368
1841,34368
1842,34112
1843,34112
1844,34304
1845,34304
1846,34112
1847,34048
1848,34240
1849,34304
1850,34112
1851,33984
1852,34240
1853,34368
1854,34240
1855,34048
1856,34240
1857,34432
1858,34240
1859,34048
1860,34112
1861,34368
1862,34240
1863,34112
1864,34112
1865,34368
1866,34368
1867,34176
1868,34112
1869,34432
1870,34496
1871,34304
1872,34304
1873,34560
1874,34624
1875,34496
1876,34304
1877,34496
1878,34624
1879,34496
1880,34304
1881,34432
1882,34624
1883,34432
1884,34176
1885,34176
1886,34304
1887,34112
1888,33856
1889,33856
1890,34112
1891,34176
1892,34048
1893,34048
1894,34304
1895,34304
1896,34112
1897,33984
1898,34240
1899,34368
1900,34176
1901,34048
1902,34240
1903,34560
1904,34752
1905,35392
1906,36224
1907,36864
1908,36864
1909,36992
1910,36416
1911,35136
1912,33600
1913,32512
1914,32192
1915,31936
1916,31808
1917,32064
1918,32704
1919,33216
1920,33536
1921,33856
1922,34432
1923,34496
1924,34752
1925,34688
1926,34816
1927,34880
1928,34624
1929,34304
1930,34304
1931,34432
1932,34240
1933,34048
1934,34048
1935,34240
1936,34176
1937,33984
1938,33984
1939,34304
1940,34304
1941,34112
1942,34048
1943,34304
1944,34368
1945,34176
1946,34112
1947,34368
1948,34496
1949,34304
1950,34176
1951,34368
1952,34560
1953,34368
1954,34176
1955,34304
1956,34560
1957,34496
1958,34304
1959,34432
1960,34688
1961,34688
1962,34496
1963,34496
1964,34752
1965,34752
1966,34560
1967,34496
1968,34752
1969,34880
1970,34624
1971,34496
1972,34688
1973,34816
1974,34624
1975,34432
1976,34560
1977,34688
1978,34496
1979,34240
1980,34176
1981,34304
1982,34176
1983,33984
1984,34048
1985,34240
1986,34176
1987,33920
1988,33856
1989,34176
1990,34240
1991,34048
1992,33984
1993,34240
1994,34304
1995,34048
1996,33920
1997,34176
1998,34176
1999,34112
2000,33984
2001,34112
2002,34304
2003,34112
2004,33920
2005,33984
2006,34240
2007,34176
2008,33984
2009,33984
2010,34240
2011,34240
2012,34048
2013,33984
2014,34240
2015,34304
2016,34048
2017,33984
2018,34240
2019,34368
2020,34176
2021,34048
2022,34240
2023,34432
2024,34240
2025,34112
2026,34176
2027,34368
2028,34240
2029,33984
2030,34048
2031,34240
2032,34176
2033,33984
2034,34048
2035,33984
2036,34240
2037,34048
2038,33984
2039,34240
2040,34368
2041,34112
2042,34048
2043,34240
2044,34368
2045,34112
2046,33984
2047,34112
2048,34304
2049,34112
2050,34048
2051,34048
2052,34304
2053,34176
2054,33984
2055,33984
2056,34240
2057,34240
2058,33984
2059,33984
2060,34240
2061,34240
2062,34048
2063,33920
2064,34176
2065,34240
2066,34048
2067,33984
2068,34176
2069,34304
2070,34112
2071,33984
2072,34176
2073,34432
2074,34304
2075,34240
2076,34368
2077,34624
2078,34560
2079,34432
2080,34432
2081,34688
2082,34560
2083,34304
2084,34176
2085,34368
2086,34368
2087,34112
2088,33984
2089,34176
2090,34240
2091,33984
2092,33792
2093,33984
2094,34176
2095,33984
2096,33856
2097,34048
2098,34304
2099,34176
2100,34048
2101,34112
2102,34368
2103,34240
2104,33984
2105,34048
2106,34368
2107,34432
2108,34496
2109,34816
2110,35648
2111,36416
2112,36992
2113,37184
2114,37056
2115,36160
2116,34624
2117,33152
2118,32384
2119,32000
2120,31744
2121,31744
2122,32192
2123,32832
2124,33216
2125,33472
2126,33984
2127,34560
2128,34688
2129,34624
2130,34624
2131,34880
2132,34752
2133,34432
2134,34304
2135,34432
2136,34368
2137,34112
2138,33984
2139,34112
2140,34240
2141,34048
2142,33920
2143,34112
2144,34304
2145,34176
2146,33984
2147,34112
2148,34368
2149,34240
2150,34048
2151,34112
2152,34368
2153,34304
2154,34112
2155,34112
2156,34432
2157,34432
2158,34176
2159,34176
2160,34432
2161,34560
2162,34368
2163,34304
2164,34496
2165,34624
2166,34368
2167,34304
2168,34560
2169,34752
2170,34624
2171,34432
2172,34560
2173,34816
2174,34688
2175,34432
2176,34496
2177,34688
2178,34624
2179,34368
2180,34368
2181,34560
2182,34496
2183,34240
2184,34112
2185,34304
2186,34304
2187,34048
2188,33920
2189,34112
2190,34240
2191,33984
2192,33856
2193,33984
2194,34240
2195,34112
2196,33920
2197,34048
2198,34304
2199,34176
2200,33984
2201,33984
2202,34304
2203,34240
2204,33984
2205,33920
2206,34176
2207,34176
2208,33920
2209,33856
2210,34112
2211,34176
2212,33984
2213,33920
2214,34112
2215,34240
2216,34112
2217,33984
2218,34176
2219,34368
2220,34176
2221,33984
2222,34048
2223,34304
2224,34240
2225,34048
2226,34112
2227,34368
2228,34304
2229,34048
2230,34048
2231,34304
2232,34368
2233,34112
2234,33984
2235,34176
2236,34304
2237,34048
2238,33920
2239,34112
2240,34304
2241,34112
2242,33984
2243,34112
2244,34368
2245,34176
2246,33984
2247,33984
2248,34240
2249,34176
2250,33920
2251,33920
2252,34176
2253,34176
2254,33920
2255,33920
2256,34176
2257,34240
2258,34048
2259,33920
2260,34176
2261,34304
2262,34176
2263,34112
2264,34368
2265,34560
2266,34368
2267,34176
2268,34304
2269,34560
2270,34368
2271,34176
2272,34240
2273,34496
2274,34304
2275,34048
2276,33984
2277,34176
2278,34112
2279,33856
2280,33792
2281,33984
2282,33984
2283,33792
2284,33664
2285,33920
2286,34048
2287,33920
2288,33792
2289,33984
2290,34240
2291,34112
2292,33920
2293,33984
2294,34176
2295,34112
2296,34048
2297,34432
2298,34944
2299,35328
2300,35840
2301,36608
2302,37376
2303,37376
2304,36288
2305,35008
2306,33856
2307,32768
2308,31872
2309,31488
2310,31680
2311,32064
2312,32320
2313,32704
2314,33408
2315,34048
2316,34304
2317,34304
2318,34560
2319,34880
2320,34752
2321,34496
2322,34432
2323,34560
2324,34368
2325,34112
2326,33984
2327,34176
2328,34176
2329,33920
2330,33856
2331,34112
2332,34176
2333,33984
2334,33920
2335,34176
2336,34304
2337,34112
2338,33984
2339,34176
2340,34432
2341,34240
2342,34048
2343,34176
2344,34432
2345,34304
2346,34112
2347,34112
2348,34432
2349,34368
2350,34176
2351,34176
2352,34496
2353,34560
2354,34368
2355,34304
2356,34560
2357,34688
2358,34560
2359,34432
2360,34624
2361,34816
2362,34624
2363,34432
2364,34560
2365,34816
2366,34624
2367,34368
2368,34432
2369,34624
2370,34496
2371,34240
2372,34240
2373,34368
2374,34240
2375,33984
2376,33920
2377,34176
2378,34176
2379,33920
2380,33856
2381,34112
2382,34176
2383,33984
2384,33856
2385,34112
2386,34240
2387,34112
2388,33920
2389,34048
2390,34240
2391,34112
2392,33920
2393,33984
2394,34240
2395,34176
2396,33920
2397,33920
2398,34176
2399,34176
2400,33984
2401,33920
2402,34176
2403,34240
2404,34048
2405,33984
2406,34176
2407,34304
2408,34176
2409,33984
2410,34176
2411,34368
2412,34176
2413,33984
2414,34112
2415,34368
2416,34176
2417,33984
2418,34048
2419,34368
2420,34240
2421,34048
2422,34048
2423,34304
2424,34304
2425,34048
2426,33984
2427,34176
2428,34240
2429,34048
2430,33920
2431,34176
2432,34304
2433,34112
2434,33984
2435,34176
2436,34368
2437,34176
2438,34048
2439,34112
2440,34304
2441,34176
2442,33984
2443,33984
2444,34240
2445,34240
2446,33984
2447,33984
2448,34240
2449,34304
2450,34048
2451,33984
2452,34304
2453,34496
2454,34368
2455,34304
2456,34496
2457,34624
2458,34432
2459,34304
2460,34432
2461,34624
2462,34496
2463,34304
2464,34368
2465,34560
2466,34368
2467,34048
2468,34048
2469,34176
2470,34048
2471,33664
2472,33600
2473,33792
2474,33856
2475,33728
2476,33664
2477,33984
2478,34112
2479,33920
2480,33856
2481,34048
2482,34240
2483,34048
2484,33920
2485,34112
2486,34368
2487,34304
2488,34304
2489,34688
2490,35456
2491,36032
2492,36608
2493,37184
2494,37440
2495,36736
2496,35264
2497,33664
2498,32512
2499,31744
2500,31168
2501,31168
2502,31680
2503,32320
2504,32768
2505,33280
2506,33984
2507,34624
2508,34688
2509,34560
2510,34688
2511,34816
2512,34624
2513,34304
2514,34176
2515,34368
2516,34176
2517,33920
2518,33920
2519,34176
2520,34112
2521,33920
2522,33920
2523,34112
2524,34240
2525,33984
2526,33920
2527,34176
2528,34304
2529,34112
2530,34048
2531,34176
2532,34368
2533,34240
2534,34048
2535,34176
2536,34432
2537,34368
2538,34176
2539,34240
2540,34496
2541,34432
2542,34240
2543,34240
2544,34496
2545,34560
2546,34368
2547,34304
2548,34624
2549,34688
2550,34560
2551,34496
2552,34752
2553,34880
2554,34624
2555,34432
2556,34624
2557,34752
2558,34624
2559,34368
2560,34432
2561,34688
2562,34496
2563,34240
2564,34240
2565,34368
2566,34240
2567,33920
2568,33920
2569,34112
2570,34112
2571,33920
2572,33856
2573,34112
2574,34240
2575,34048
2576,33920
2577,34176
2578,34304
2579,34112
2580,33920
2581,34112
2582,34240
2583,34048
2584,33920
2585,34048
2586,34304
2587,34240
2588,33984
2589,33984
2590,34240
2591,34176
2592,33984
2593,33984
2594,34240
2595,34304
2596,34048
2597,33920
2598,34176
2599,34240
2600,34048
2601,33920
2602,34176
2603,34368
2604,34176
2605,34048
2606,34176
2607,34368
2608,34176
2609,33984
2610,34048
2611,34304
2612,34240
2613,34048
2614,34048
2615,34304
2616,34304
2617,34112
2618,34112
2619,34368
2620,34368
2621,34112
2622,33984
2623,34240
2624,34304
2625,34112
2626,33984
2627,34176
2628,34304
2629,34176
2630,33984
2631,34112
2632,34304
2633,34176
2634,33984
2635,34048
2636,34240
2637,34176
2638,33920
2639,33984
2640,34240
2641,34304
2642,34240
2643,34304
2644,34624
2645,34688
2646,34432
2647,34304
2648,34496
2649,34688
2650,34496
2651,34368
2652,34496
2653,34624
2654,34432
2655,34176
2656,34240
2657,34368
2658,34112
2659,33792
2660,33792
2661,33920
2662,33920
2663,33664
2664,33728
2665,33984
2666,33984
2667,33792
2668,33792
2669,34048
2670,34176
2671,33984
2672,33920
2673,34112
2674,34240
2675,34048
2676,33984
2677,34240
2678,34688
2679,34816
2680,35072
2681,35776
2682,36736
2683,37248
2684,37120
2685,36544
2686,35648
2687,34048
2688,32448
2689,31552
2690,31424
2691,31488
2692,31616
2693,32064
2694,32896
2695,33600
2696,33920
2697,34176
2698,34624
2699,34944
2700,34752
2701,34560
2702,34624
2703,34688
2704,34496
2705,34176
2706,34112
2707,34304
2708,34112
2709,33856
2710,33856
2711,34112
2712,34112
2713,33920
2714,33920
2715,34176
2716,34240
2717,33984
2718,33984
2719,34240
2720,34368
2721,34176
2722,34112
2723,34304
2724,34496
2725,34304
2726,34176
2727,34304
2728,34496
2729,34368
2730,34176
2731,34240
2732,34560
2733,34432
2734,34304
2735,34368
2736,34624
2737,34624
2738,34432
2739,34432
2740,34688
2741,34752
2742,34560
2743,34496
2744,34688
2745,34816
2746,34624
2747,34496
2748,34688
2749,34816
2750,34560
2751,34304
2752,34368
2753,34560
2754,34368
2755,34112
2756,34048
2757,34240
2758,34176
2759,33920
2760,33920
2761,34176
2762,34176
2763,33984
2764,33920
2765,34240
2766,34240
2767,34048
2768,33920
2769,34176
2770,34304
2771,34112
2772,33920
2773,34112
2774,34240
2775,34112
2776,33920
2777,34176
2778,34368
2779,34240
2780,34048
2781,34048
2782,34240
2783,34176
2784,33920
2785,33920
2786,34176
2787,34240
2788,33984
2789,33920
2790,34240
2791,34304
2792,34112
2793,34048
2794,34240
2795,34368
2796,34176
2797,33984
2798,34176
2799,34304
2800,34176
2801,33984
2802,34112
2803,34368
2804,34240
2805,34048
2806,34048
2807,34304
2808,34176
2809,33984
2810,33984
2811,34240
2812,34240
2813,34048
2814,33984
2815,34240
2816,34304
2817,34112
2818,33984
2819,34112
2820,34240
2821,34048
2822,33920
2823,33984
2824,34176
2825,34048
2826,33920
2827,33984
2828,34240
2829,34176
2830,33984
2831,33984
2832,34240
2833,34240
2834,33984
2835,33984
2836,34240
2837,34240
2838,34048
2839,33920
2840,34176
2841,34304
2842,34112
2843,34048
2844,34432
2845,34688
2846,34496
2847,34304
2848,34432
2849,34624
2850,34624
2851,34304
2852,34304
2853,34560
2854,34432
2855,34176
2856,34176
2857,34368
2858,34112
2859,33856
2860,33856
2861,34112
2862,34048
2863,33728
2864,33600
2865,33856
2866,33984
2867,33792
2868,33664
2869,33920
2870,34112
2871,33984
2872,33856
2873,33984
2874,34176
2875,34048
2876,33856
2877,33920
2878,34304
2879,34432
2880,34560
2881,35008
2882,36288
2883,36672
2884,37056
2885,37056
2886,36672
2887,35584
2888,33856
2889,32384
2890,31744
2891,31552
2892,31360
2893,31552
2894,32256
2895,33024
2896,33472
2897,33920
2898,34304
2899,34752
2900,34816
2901,34560
2902,34560
2903,34688
2904,34560
2905,34176
2906,34112
2907,34240
2908,34176
2909,33920
2910,33792
2911,34048
2912,34176
2913,33984
2914,33856
2915,34048
2916,34240
2917,34048
2918,33984
2919,34176
2920,34368
2921,34240
2922,34048
2923,34176
2924,34432
2925,34304
2926,34112
2927,34176
2928,34432
2929,34368
2930,34176
2931,34176
2932,34432
2933,34496
2934,34304
2935,34240
2936,34560
2937,34688
2938,34560
2939,34496
2940,34688
2941,34880
2942,34624
2943,34560
2944,34688
2945,34880
2946,34752
2947,34560
2948,34624
2949,34880
2950,34752
2951,34496
2952,34432
2953,34624
2954,34560
2955,34304
2956,34176
2957,34368
2958,34304
2959,34048
2960,33920
2961,34176
2962,34240
2963,34048
2964,33984
2965,34176
2966,34432
2967,34240
2968,34048
2969,34048
2970,34304
2971,34240
2972,34048
2973,34112
2974,34368
2975,34304
2976,34112
2977,34112
2978,34432
2979,34368
2980,34176
2981,34112
2982,34304
2983,34304
2984,34112
2985,33984
2986,34240
2987,34368
2988,34176
2989,34048
2990,34240
2991,34432
2992,34304
2993,34112
2994,34176
2995,34304
2996,34112
2997,33920
2998,33984
2999,34304
3000,34176
3001,33984
3002,34048
3003,34368
3004,34432
3005,34240
3006,34176
3007,34432
3008,34432
3009,34240
3010,34048
3011,34240
3012,34368
3013,34112
3014,33984
3015,34176
3016,34368
3017,34112
3018,34048
3019,34176
3020,34368
3021,34240
3022,34048
3023,34112
3024,34432
3025,34368
3026,34176
3027,34240
3028,34560
3029,34560
3030,34432
3031,34368
3032,34688
3033,34624
3034,34432
3035,34304
3036,34496
3037,34624
3038,34432
3039,34240
3040,34304
3041,34432
3042,34176
3043,33920
3044,33920
3045,34112
3046,33920
3047,33600
3048,33664
3049,33984
3050,34048
3051,33856
3052,33856
3053,34176
3054,34240
3055,34048
3056,33920
3057,34176
3058,34240
3059,34048
3060,33920
3061,34176
3062,34496
3063,34624
3064,34880
3065,35648
3066,36544
3067,37056
3068,37056
3069,36480
3070,35648
3071,34176
3072,32768
3073,32000
3074,31872
3075,31808
3076,31808
3077,32192
3078,32896
3079,33472
3080,33792
3081,34048
3082,34560
3083,34880
3084,34752
3085,34560
3086,34688
3087,34816
3088,34560
3089,34240
3090,34240
3091,34368
3092,34176
3093,33920
3094,33984
3095,34240
3096,34112
3097,33984
3098,33984
3099,34304
3100,34304
3101,34112
3102,34048
3103,34368
3104,34432
3105,34240
3106,34176
3107,34496
3108,34432
3109,34240
3110,34112
3111,34240
3112,34432
3113,34304
3114,34176
3115,34368
3116,34688
3117,34560
3118,34368
3119,34432
3120,34688
3121,34624
3122,34368
3123,34432
3124,34752
3125,34752
3126,34560
3127,34560
3128,34752
3129,34816
3130,34496
3131,34304
3132,34496
3133,34688
3134,34496
3135,34304
3136,34432
3137,34432
3138,34304
3139,34048
3140,34048
3141,34240
3142,34112
3143,33856
3144,33920
3145,34240
3146,34176
3147,33984
3148,33984
3149,34240
3150,34240
3151,34048
3152,34048
3153,34240
3154,34304
3155,34112
3156,33984
3157,34240
3158,34432
3159,34176
3160,33984
3161,34048
3162,34176
3163,34048
3164,33920
3165,34048
3166,34368
3167,34240
3168,34112
3169,34112
3170,34368
3171,34304
3172,34112
3173,34048
3174,34304
3175,34368
3176,34112
3177,34048
3178,34240
3179,34368
3180,34176
3181,34048
3182,34496
3183,34496
3184,34304
3185,34112
3186,34176
3187,34240
3188,34048
3189,33792
3190,33920
3191,34240
3192,34240
3193,34048
3194,34112
3195,34368
3196,34368
3197,34176
3198,34112
3199,34368
3200,34368
3201,34112
3202,33984
3203,34240
3204,34368
3205,34176
3206,34048
3207,34304
3208,34496
3209,34432
3210,34304
3211,34496
3212,34688
3213,34560
3214,34368
3215,34496
3216,34752
3217,34624
3218,34432
3219,34368
3220,34624
3221,34624
3222,34304
3223,34112
3224,34176
3225,34112
3226,33792
3227,33600
3228,33856
3229,33984
3230,33792
3231,33664
3232,33920
3233,34176
3234,34048
3235,33920
3236,34112
3237,34432
3238,34304
3239,33984
3240,33984
3241,34240
3242,34176
3243,34176
3244,34368
3245,35008
3246,35520
3247,35968
3248,36672
3249,37312
3250,37120
3251,36096
3252,34688
3253,33472
3254,32448
3255,31680
3256,31360
3257,31744
3258,32192
3259,32576
3260,32960
3261,33472
3262,34112
3263,34304
3264,34368
3265,34560
3266,34816
3267,34752
3268,34432
3269,34368
3270,34496
3271,34368
3272,34048
3273,33920
3274,34112
3275,34176
3276,33984
3277,33856
3278,34112
3279,34240
3280,34048
3281,33856
3282,34048
3283,34304
3284,34176
3285,34048
3286,34112
3287,34368
3288,34304
3289,34112
3290,34112
3291,34432
3292,34368
3293,34176
3294,34176
3295,34432
3296,34496
3297,34240
3298,34240
3299,34496
3300,34624
3301,34432
3302,34304
3303,34560
3304,34752
3305,34560
3306,34432
3307,34560
3308,34752
3309,34624
3310,34496
3311,34560
3312,34816
3313,34688
3314,34432
3315,34496
3316,34688
3317,34624
3318,34304
3319,34176
3320,34368
3321,34304
3322,34048
3323,33920
3324,34112
3325,34176
3326,33984
3327,33856
3328,34048
3329,34240
3330,34048
3331,33920
3332,34112
3333,34368
3334,34240
3335,34048
3336,34048
3337,34240
3338,34112
3339,33920
3340,33984
3341,34240
3342,34240
3343,34048
3344,33984
3345,34240
3346,34304
3347,34112
3348,34048
3349,34240
3350,34368
3351,34176
3352,34048
3353,34240
3354,34368
3355,34240
3356,34048
3357,34176
3358,34432
3359,34304
3360,34112
3361,34176
3362,34432
3363,34368
3364,34176
3365,34112
3366,34368
3367,34368
3368,34112
3369,34048
3370,34304
3371,34304
3372,34112
3373,33984
3374,34176
3375,34368
3376,34176
3377,33984
3378,34176
3379,34368
3380,34240
3381,34048
3382,34112
3383,34304
3384,34176
3385,33984
3386,33984
3387,34240
3388,34240
3389,34048
3390,34048
3391,34368
3392,34496
3393,34368
3394,34368
3395,34624
3396,34688
3397,34432
3398,34368
3399,34560
3400,34752
3401,34560
3402,34368
3403,34496
3404,34624
3405,34368
3406,34112
3407,34176
3408,34304
3409,34048
3410,33792
3411,33728
3412,33920
3413,33856
3414,33664
3415,33728
3416,34048
3417,34112
3418,33920
3419,33920
3420,34176
3421,34240
3422,34048
3423,33984
3424,34176
3425,34304
3426,34176
3427,34112
3428,34496
3429,35008
3430,35392
3431,35968
3432,36800
3433,37440
3434,37184
3435,36096
3436,34816
3437,33600
3438,32448
3439,31616
3440,31360
3441,31744
3442,32192
3443,32512
3444,33024
3445,33728
3446,34304
3447,34432
3448,34560
3449,34816
3450,35008
3451,34816
3452,34496
3453,34496
3454,34560
3455,34368
3456,34048
3457,34112
3458,34368
3459,34240
3460,33984
3461,33984
3462,34304
3463,34240
3464,34048
3465,33984
3466,34304
3467,34368
3468,34176
3469,34048
3470,34304
3471,34432
3472,34240
3473,34112
3474,34304
3475,34496
3476,34368
3477,34176
3478,34304
3479,34560
3480,34496
3481,34304
3482,34432
3483,34688
3484,34624
3485,34432
3486,34368
3487,34688
3488,34688
3489,34560
3490,34560
3491,34752
3492,34816
3493,34560
3494,34496
3495,34688
3496,34752
3497,34560
3498,34368
3499,34560
3500,34688
3501,34496
3502,34304
3503,34304
3504,34496
3505,34240
3506,33984
3507,33984
3508,34176
3509,34112
3510,33856
3511,33856
3512,34112
3513,34176
3514,33920
3515,33856
3516,34112
3517,34176
3518,34048
3519,33920
3520,34176
3521,34304
3522,34048
3523,33856
3524,34048
3525,34240
3526,34112
3527,33920
3528,33984
3529,34240
3530,34112
3531,33984
3532,33984
3533,34304
3534,34240
3535,33984
3536,33984
3537,34240
3538,34176
3539,33984
3540,33920
3541,34176
3542,34240
3543,34112
3544,34048
3545,34176
3546,34240
3547,34048
3548,33856
3549,34048
3550,34304
3551,34176
3552,33984
3553,34048
3554,34240
3555,34176
3556,33984
3557,33984
3558,34240
3559,34112
3560,33920
3561,33920
3562,34176
3563,34240
3564,34048
3565,33920
3566,34112
3567,34176
3568,33984
3569,33856
3570,34048
3571,34176
3572,34048
3573,33920
3574,34048
3575,34304
3576,34240
3577,34176
3578,34304
3579,34624
3580,34560
3581,34368
3582,34368
3583,34624
3584,34560
3585,34368
3586,34240
3587,34496
3588,34496
3589,34240
3590,34112
3591,34176
3592,34112
3593,33792
3594,33600
3595,33728
3596,33920
3597,33728
3598,33600
3599,33792
3600,34048
3601,33984
3602,33856
3603,33920
3604,34176
3605,34048
3606,33856
3607,33856
3608,34176
3609,34176
3610,33984
3611,33984
3612,34432
3613,34752
3614,35072
3615,35584
3616,36544
3617,37248
3618,37120
3619,36288
3620,35264
3621,33920
3622,32512
3623,31552
3624,31296
3625,31552
3626,31744
3627,32064
3628,32768
3629,33600
3630,34112
3631,34304
3632,34496
3633,34880
3634,34880
3635,34624
3636,34496
3637,34560
3638,34496
3639,34176
3640,33920
3641,34048
3642,34176
3643,33920
3644,33792
3645,33984
3646,34176
3647,34048
3648,33856
3649,33984
3650,34240
3651,34176
3652,33984
3653,34048
3654,34368
3655,34304
3656,34112
3657,34112
3658,34368
3659,34368
3660,34112
3661,34048
3662,34304
3663,34432
3664,34240
3665,34112
3666,34368
3667,34560
3668,34432
3669,34304
3670,34496
3671,34688
3672,34560
3673,34432
3674,34496
3675,34752
3676,34688
3677,34496
3678,34560
3679,34816
3680,34752
3681,34496
3682,34432
3683,34688
3684,34688
3685,34432
3686,34240
3687,34368
3688,34432
3689,34176
3690,33984
3691,34176
3692,34304
3693,34112
3694,33920
3695,33984
3696,34240
3697,34112
3698,33920
3699,33984
3700,34240
3701,34176
3702,33920
3703,33984
3704,34240
3705,34240
3706,34048
3707,33984
3708,34304
3709,34368
3710,34176
3711,34048
3712,34240
3713,34368
3714,34240
3715,34112
3716,34240
3717,34304
3718,34112
3719,33920
3720,34112
3721,34304
3722,34240
3723,34112
3724,34368
3725,34304
3726,34112
3727,34112
3728,34368
3729,34304
3730,34112
3731,34048
3732,34304
3733,34368
3734,34240
3735,34112
3736,34304
3737,34368
3738,34176
3739,33984
3740,34176
3741,34368
3742,34240
3743,33984
3744,34048
3745,34240
3746,34112
3747,33920
3748,34048
3749,34304
3750,34304
3751,34112
3752,34112
3753,34368
3754,34432
3755,34240
3756,34240
3757,34496
3758,34560
3759,34368
3760,34304
3761,34560
3762,34688
3763,34496
3764,34368
3765,34560
3766,34688
3767,34496
3768,34240
3769,34176
3770,34432
3771,34176
3772,33856
3773,33792
3774,34048
3775,33984
3776,33728
3777,33728
3778,34048
3779,34112
3780,33920
3781,33856
3782,34112
3783,34240
3784,34048
3785,33920
3786,34112
3787,34240
3788,34048
3789,33920
3790,34176
3791,34560
3792,34816
3793,35200
3794,36032
3795,36928
3796,37120
3797,36544
3798,35520
3799,34560
3800,33408
3801,32384
3802,31936
3803,32064
3804,32128
3805,32128
3806,32448
3807,33088
3808,33664
3809,33856
3810,33984
3811,34368
3812,34688
3813,34560
3814,34432
3815,34496
3816,34560
3817,34304
3818,34048
3819,34048
3820,34240
3821,34176
3822,33920
3823,33920
3824,34112
3825,34112
3826,33984
3827,33984
3828,34240
3829,34240
3830,34048
3831,33984
3832,34176
3833,34304
3834,34112
3835,33984
3836,34176
3837,34368
3838,34240
3839,34112
3840,34240
3841,34496
3842,34304
3843,34112
3844,34176
3845,34432
3846,34368
3847,34240
3848,34240
3849,34496
3850,34496
3851,34368
3852,34304
3853,34560
3854,34624
3855,34432
3856,34304
3857,34560
3858,34688
3859,34496
3860,34368
3861,34496
3862,34624
3863,34432
3864,34240
3865,34240
3866,34368
3867,34176
3868,33920
3869,33920
3870,34112
3871,34048
3872,33792
3873,33856
3874,34112
3875,34112
3876,33920
3877,33920
3878,34176
3879,34240
3880,34048
3881,33920
3882,34176
3883,34304
3884,34112
3885,33984
3886,34112
3887,34240
3888,34112
3889,33920
3890,34048
3891,34240
3892,34176
3893,33984
3894,34048
3895,34304
3896,34240
3897,34048
3898,34048
3899,34240
3900,34304
3901,34112
3902,34048
3903,34304
3904,34368
3905,34176
3906,34048
3907,34240
3908,34368
3909,34176
3910,34048
3911,34176
3912,34368
3913,34176
3914,33984
3915,34048
3916,34304
3917,34176
3918,33984
3919,34048
3920,34304
3921,34304
3922,34112
3923,34112
3924,34368
3925,34432
3926,34240
3927,34240
3928,34496
3929,34624
3930,34432
3931,34368
3932,34624
3933,34752
3934,34560
3935,34368
3936,34496
3937,34624
3938,34368
3939,34112
3940,34048
3941,34112
3942,33920
3943,33664
3944,33664
3945,33920
3946,33920
3947,33792
3948,33856
3949,34112
3950,34176
3951,33984
3952,33920
3953,34112
3954,34240
3955,34048
3956,33920
3957,34048
3958,34304
3959,34240
3960,34368
3961,34880
3962,35584
3963,36160
3964,36736
3965,37120
3966,37056
3967,36096
3968,34624
3969,33344
3970,32640
3971,32064
3972,31680
3973,31680
3974,32192
3975,32704
3976,32960
3977,33344
3978,33984
3979,34432
3980,34496
3981,34432
3982,34688
3983,34816
3984,34560
3985,34304
3986,34368
3987,34432
3988,34240
3989,33984
3990,33984
3991,34176
3992,34112
3993,33920
3994,33920
3995,34176
3996,34240
3997,34048
3998,34048
3999,34304
4000,34368
4001,34176
4002,34112
4003,34304
4004,34432
4005,34304
4006,34176
4007,34304
4008,34496
4009,34368
4010,34240
4011,34304
4012,34560
4013,34432
4014,34240
4015,34304
4016,34624
4017,34624
4018,34432
4019,34432
4020,34688
4021,34688
4022,34496
4023,34496
4024,34752
4025,34816
4026,34624
4027,34496
4028,34624
4029,34752
4030,34560
4031,34368
4032,34432
4033,34560
4034,34368
4035,34112
4036,34112
4037,34304
4038,34240
4039,33984
4040,33984
4041,34240
4042,34240
4043,33984
4044,33984
4045,34240
4046,34240
4047,34048
4048,33984
4049,34240
4050,34368
4051,34112
4052,33984
4053,34240
4054,34368
4055,34176
4056,33984
4057,34048
4058,34240
4059,34112
4060,33856
4061,33984
4062,34240
4063,34240
4064,34048
4065,34048
4066,34368
4067,34368
4068,34176
4069,34176
4070,34432
4071,34432
4072,34304
4073,34176
4074,34368
4075,34432
4076,34176
4077,33984
4078,34176
4079,34368
4080,34240
4081,34048
4082,34176
4083,34432
4084,34304
4085,34112
4086,34240
4087,34432
4088,34368
4089,34112
4090,34112
4091,34432
4092,34496
4093,34368
4094,34368
4095,34624
4096,34752
4097,34560
4098,34432
4099,34688
4100,34816
4101,34624
4102,34496
4103,34688
4104,34816
4105,34624
4106,34368
4107,34368
4108,34496
4109,34240
4110,33920
4111,33856
4112,33984
4113,33856
4114,33664
4115,33728
4116,34048
4117,34112
4118,33984
4119,33920
4120,34176
4121,34304
4122,34048
4123,33984
4124,34176
4125,34240
4126,34048
4127,33984
4128,34304
4129,34752
4130,34944
4131,35328
4132,36160
4133,37056
4134,37312
4135,36864
4136,35968
4137,34880
4138,33472
4139,32256
4140,31616
4141,31616
4142,31744
4143,31936
4144,32320
4145,33088
4146,33728
4147,34048
4148,34240
4149,34624
4150,34880
4151,34752
4152,34560
4153,34560
4154,34688
4155,34432
4156,34176
4157,34176
4158,34368
4159,34176
4160,33984
4161,33984
4162,34240
4163,34240
4164,33984
4165,33920
4166,34176
4167,34240
4168,34048
4169,33984
4170,34240
4171,34368
4172,34240
4173,34112
4174,34304
4175,34432
4176,34304
4177,34112
4178,34176
4179,34432
4180,34304
4181,34112
4182,34240
4183,34496
4184,34496
4185,34304
4186,34368
4187,34624
4188,34624
4189,34432
4190,34432
4191,34688
4192,34752
4193,34624
4194,34560
4195,34688
4196,34752
4197,34496
4198,34304
4199,34496
4200,34624
4201,34368
4202,34176
4203,34240
4204,34432
4205,34240
4206,33984
4207,33984
4208,34176
4209,34112
4210,33920
4211,33920
4212,34176
4213,34176
4214,33920
4215,33920
4216,34176
4217,34176
4218,33984
4219,33920
4220,34176
4221,34304
4222,34048
4223,33920
4224,34112
4225,34240
4226,34112
4227,33984
4228,34048
4229,34240
4230,34176
4231,33984
4232,34048
4233,34304
4234,34240
4235,34048
4236,33984
4237,34240
4238,34240
4239,34048
4240,34048
4241,34240
4242,34368
4243,34176
4244,34048
4245,34176
4246,34304
4247,34112
4248,33984
4249,34176
4250,34368
4251,34176
4252,33984
4253,34048
4254,34368
4255,34240
4256,34112
4257,34112
4258,34368
4259,34240
4260,34048
4261,33984
4262,34304
4263,34304
4264,34176
4265,34240
4266,34560
4267,34624
4268,34432
4269,34240
4270,34432
4271,34624
4272,34496
4273,34368
4274,34624
4275,34816
4276,34624
4277,34304
4278,34304
4279,34432
4280,34304
4281,33984
4282,33856
4283,34048
4284,33984
4285,33728
4286,33664
4287,33920
4288,33984
4289,33856
4290,33792
4291,34112
4292,34176
4293,33984
4294,33856
4295,34112
4296,34240
4297,34112
4298,33920
4299,34112
4300,34368
4301,34432
4302,34560
4303,35072
4304,35968
4305,36672
4306,37120
4307,37184
4308,36800
4309,35584
4310,33920
4311,32512
4312,31872
4313,31552
4314,31360
4315,31616
4316,32320
4317,33024
4318,33472
4319,33856
4320,34432
4321,34880
4322,34816
4323,34752
4324,34752
4325,34880
4326,34560
4327,34240
4328,34176
4329,34304
4330,34176
4331,33920
4332,33984
4333,34240
4334,34176
4335,33984
4336,33920
4337,34240
4338,34240
4339,34048
4340,33984
4341,34240
4342,34368
4343,34176
4344,34048
4345,34240
4346,34432
4347,34240
4348,34112
4349,34240
4350,34432
4351,34304
4352,34112
4353,34240
4354,34496
4355,34496
4356,34304
4357,34368
4358,34688
4359,34688
4360,34496
4361,34432
4362,34688
4363,34752
4364,34560
4365,34432
4366,34688
4367,34816
4368,34624
4369,34496
4370,34624
4371,34816
4372,34624
4373,34368
4374,34368
4375,34496
4376,34304
4377,34112
4378,34112
4379,34304
4380,34240
4381,33984
4382,33984
4383,34176
4384,34176
4385,33984
4386,33920
4387,34176
4388,34240
4389,34048
4390,33984
4391,34240
4392,34368
4393,34176
4394,33984
4395,34112
4396,34240
4397,34048
4398,33920
4399,34048
4400,34304
4401,34176
4402,33984
4403,34048
4404,34304
4405,34240
4406,34048
4407,34048
4408,34304
4409,34304
4410,34112
4411,33984
4412,34240
4413,34304
4414,34112
4415,33984
4416,34176
4417,34368
4418,34176
4419,34048
4420,34176
4421,34432
4422,34304
4423,34112
4424,34176
4425,34368
4426,34304
4427,34048
4428,34048
4429,34304
4430,34240
4431,34048
4432,33984
4433,34240
4434,34304
4435,34112
4436,34048
4437,34240
4438,34368
4439,34112
4440,33984
4441,34176
4442,34368
4443,34240
4444,34176
4445,34368
4446,34624
4447,34496
4448,34304
4449,34432
4450,34688
4451,34624
4452,34432
4453,34368
4454,34624
4455,34560
4456,34368
4457,34304
4458,34432
4459,34432
4460,34048
4461,33856
4462,33984
4463,34048
4464,33792
4465,33664
4466,33856
4467,34112
4468,33984
4469,33856
4470,34048
4471,34304
4472,34176
4473,33984
4474,34048
4475,34304
4476,34240
4477,34048
4478,34048
4479,34368
4480,34560
4481,34688
4482,35072
4483,35904
4484,36672
4485,37120
4486,37120
4487,36800
4488,35776
4489,34112
4490,32640
4491,31936
4492,31680
4493,31552
4494,31680
4495,32192
4496,32960
4497,33408
4498,33728
4499,34176
4500,34688
4501,34816
4502,34624
4503,34624
4504,34816
4505,34688
4506,34368
4507,34240
4508,34368
4509,34304
4510,34048
4511,33920
4512,34112
4513,34240
4514,34048
4515,33920
4516,34112
4517,34304
4518,34240
4519,34048
4520,34176
4521,34368
4522,34304
4523,34112
4524,34176
4525,34432
4526,34368
4527,34176
4528,34176
4529,34496
4530,34496
4531,34304
4532,34240
4533,34496
4534,34560
4535,34368
4536,34304
4537,34496
4538,34688
4539,34624
4540,34496
4541,34624
4542,34816
4543,34688
4544,34496
4545,34560
4546,34816
4547,34688
4548,34496
4549,34560
4550,34816
4551,34688
4552,34432
4553,34304
4554,34496
4555,34432
4556,34176
4557,33984
4558,34176
4559,34240
4560,34048
4561,33920
4562,34112
4563,34240
4564,34112
4565,33920
4566,34048
4567,34304
4568,34176
4569,33984
4570,34112
4571,34368
4572,34304
4573,34112
4574,34112
4575,34368
4576,34240
4577,33984
4578,33920
4579,34176
4580,34240
4581,34048
4582,33984
4583,34240
4584,34368
4585,34176
4586,34048
4587,34240
4588,34368
4589,34240
4590,34048
4591,34176
4592,34368
4593,34240
4594,34048
4595,34112
4596,34368
4597,34304
4598,34112
4599,34112
4600,34368
4601,34368
4602,34112
4603,34048
4604,34304
4605,34368
4606,34176
4607,34048
4608,34240
4609,34304
4610,34112
4611,33984
4612,34112
4613,34304
4614,34112
4615,33984
4616,34112
4617,34304
4618,34240
4619,34048
4620,34112
4621,34368
4622,34176
4623,33984
4624,33984
4625,34240
4626,34240
4627,34048
4628,34048
4629,34304
4630,34496
4631,34368
4632,34304
4633,34560
4634,34688
4635,34496
4636,34304
4637,34496
4638,34688
4639,34560
4640,34368
4641,34432
4642,34624
4643,34496
4644,34176
4645,34176
4646,34304
4647,34112
4648,33792
4649,33728
4650,33920
4651,33920
4652,33792
4653,33728
4654,33984
4655,34112
4656,33920
4657,33856
4658,34112
4659,34304
4660,34112
4661,33984
4662,34112
4663,34304
4664,34176
4665,34048
4666,34368
4667,35072
4668,35328
4669,35712
4670,36544
4671,37376
4672,37376
4673,36608
4674,35328
4675,34048
4676,32768
4677,31744
4678,31232
4679,31488
4680,31872
4681,32192
4682,32640
4683,33472
4684,34112
4685,34432
4686,34496
4687,34752
4688,35008
4689,34816
4690,34496
4691,34432
4692,34560
4693,34368
4694,34048
4695,34048
4696,34240
4697,34176
4698,33984
4699,33920
4700,34176
4701,34240
4702,34048
4703,33984
4704,34240
4705,34304
4706,34048
4707,33984
4708,34176
4709,34368
4710,34240
4711,34112
4712,34304
4713,34432
4714,34304
4715,34176
4716,34304
4717,34496
4718,34368
4719,34112
4720,34112
4721,34496
4722,34496
4723,34368
4724,34368
4725,34688
4726,34752
4727,34560
4728,34496
4729,34688
4730,34816
4731,34624
4732,34496
4733,34624
4734,34816
4735,34624
4736,34432
4737,34496
4738,34624
4739,34496
4740,34176
4741,34176
4742,34432
4743,34304
4744,34048
4745,33984
4746,34176
4747,34176
4748,33984
4749,33920
4750,34176
4751,34240
4752,34048
4753,33920
4754,34112
4755,34240
4756,34048
4757,33920
4758,34112
4759,34304
4760,34112
4761,33920
4762,34048
4763,34304
4764,34176
4765,33984
4766,34048
4767,34304
4768,34240
4769,33984
4770,33984
4771,34240
4772,34176
4773,34048
4774,33984
4775,34240
4776,34304
4777,34112
4778,34048
4779,34240
4780,34368
4781,34112
4782,33984
4783,34112
4784,34304
4785,34176
4786,34048
4787,34240
4788,34368
4789,34176
4790,33984
4791,34048
4792,34304
4793,34304
4794,34112
4795,34048
4796,34240
4797,34304
4798,34112
4799,33984
4800,34240
4801,34304
4802,34048
4803,33984
4804,34176
4805,34304
4806,34112
4807,33920
4808,34048
4809,34304
4810,34112
4811,33984
4812,34048
4813,34304
4814,34176
4815,33984
4816,34048
4817,34432
4818,34432
4819,34304
4820,34368
4821,34624
4822,34560
4823,34368
4824,34304
4825,34560
4826,34624
4827,34432
4828,34240
4829,34432
4830,34496
4831,34240
4832,33920
4833,33984
4834,34048
4835,33856
4836,33664
4837,33728
4838,33984
4839,33984
4840,33792
4841,33856
4842,34176
4843,34176
4844,33984
4845,33984
4846,34240
4847,34304
4848,34048
4849,33984
4850,34176
4851,34304
4852,34240
4853,34304
4854,34880
4855,35520
4856,36032
4857,36608
4858,37184
4859,37312
4860,36480
4861,35008
4862,33280
4863,32576
4864,31808
4865,31360
4866,31424
4867,32064
4868,32576
4869,33024
4870,33536
4871,34240
4872,34688
4873,34688
4874,34688
4875,34880
4876,34880
4877,34560
4878,34304
4879,34368
4880,34432
4881,34240
4882,33984
4883,34048
4884,34240
4885,34112
4886,33920
4887,33984
4888,34240
4889,34240
4890,34048
4891,34048
4892,34432
4893,34304
4894,34176
4895,34112
4896,34368
4897,34496
4898,34240
4899,34176
4900,34368
4901,34496
4902,34304
4903,34176
4904,34368
4905,34560
4906,34432
4907,34304
4908,34432
4909,34688
4910,34624
4911,34432
4912,34496
4913,34752
4914,34688
4915,34496
4916,34496
4917,34752
4918,34816
4919,34560
4920,34496
4921,34688
4922,34688
4923,34560
4924,34432
4925,34560
4926,34624
4927,34368
4928,34176
4929,34304
4930,34432
4931,34240
4932,33984
4933,34048
4934,34304
4935,34176
4936,33984
4937,34112
4938,34304
4939,34240
4940,34048
4941,34048
4942,34304
4943,34304
4944,34048
4945,33984
4946,34240
4947,34304
4948,34112
4949,33984
4950,34176
4951,34304
4952,34112
4953,33920
4954,34112
4955,34304
4956,34240
4957,34048
4958,34112
4959,34368
4960,34304
4961,34112
4962,34112
4963,34368
4964,34304
4965,34048
4966,33984
4967,34368
4968,34304
4969,34112
4970,34048
4971,34240
4972,34368
4973,34240
4974,34048
4975,34240
4976,34432
4977,34240
4978,34048
4979,34176
4980,34368
4981,34240
4982,34048
4983,34112
4984,34368
4985,34240
4986,33984
4987,33984
4988,34304
4989,34240
4990,34048
4991,34048
4992,34304
4993,34304
4994,34112
4995,33984
4996,34240
4997,34304
4998,34112
4999,33984
5000,34176
5001,34368
5002,34176
5003,34048
5004,34176
5005,34368
5006,34304
5007,34112
5008,34304
5009,34624
5010,34624
5011,34432
5012,34432
5013,34624
5014,34560
5015,34368
5016,34304
5017,34560
5018,34624
5019,34368
5020,34240
5021,34368
5022,34368
5023,34112
5024,33920
5025,33984
5026,34112
5027,33856
5028,33728
5029,33920
5030,34176
5031,34112
5032,33920
5033,33984
5034,34240
5035,34240
5036,34048
5037,34048
5038,34304
5039,34304
5040,34048
5041,33984
5042,34496
5043,34560
5044,34624
5045,34944
5046,35776
5047,36672
5048,37248
5049,37248
5050,36800
5051,35840
5052,34176
5053,32640
5054,31808
5055,31616
5056,31488
5057,31552
5058,32064
5059,32960
5060,33536
5061,33856
5062,34304
5063,34816
5064,34944
5065,34816
5066,34624
5067,34752
5068,34688
5069,34368
5070,34112
5071,34240
5072,34304
5073,34112
5074,33920
5075,34048
5076,34304
5077,34112
5078,33984
5079,34048
5080,34304
5081,34176
5082,33984
5083,34048
5084,34368
5085,34304
5086,34112
5087,34112
5088,34368
5089,34368
5090,34176
5091,34048
5092,34304
5093,34432
5094,34240
5095,34112
5096,34304
5097,34496
5098,34368
5099,34176
5100,34368
5101,34624
5102,34432
5103,34368
5104,34496
5105,34752
5106,34624
5107,34432
5108,34432
5109,34752
5110,34688
5111,34496
5112,34432
5113,34688
5114,34688
5115,34368
5116,34176
5117,34368
5118,34432
5119,34176
5120,33984
5121,34112
5122,34240
5123,33984
5124,33792
5125,33984
5126,34176
5127,34048
5128,33856
5129,33920
5130,34240
5131,34176
5132,33920
5133,33920
5134,34176
5135,34240
5136,34048
5137,33920
5138,34112
5139,34112
5140,33920
5141,33856
5142,34112
5143,34240
5144,34048
5145,33920
5146,34112
5147,34240
5148,34112
5149,33920
5150,34048
5151,34304
5152,34176
5153,34048
5154,34112
5155,34368
5156,34368
5157,34112
5158,34112
5159,34304
5160,34304
5161,34112
5162,33984
5163,34240
5164,34304
5165,34112
5166,33984
5167,34176
5168,34368
5169,34176
5170,33984
5171,34176
5172,34368
5173,34176
5174,33984
5175,34048
5176,34304
5177,34176
5178,33920
5179,33984
5180,34240
5181,34176
5182,33984
5183,33920
5184,34176
5185,34176
5186,33984
5187,33920
5188,34240
5189,34304
5190,34048
5191,33920
5192,34112
5193,34240
5194,34048
5195,33920
5196,34048
5197,34304
5198,34240
5199,34176
5200,34368
5201,34688
5202,34560
5203,34368
5204,34368
5205,34560
5206,34496
5207,34304
5208,34304
5209,34496
5210,34496
5211,34176
5212,34048
5213,34176
5214,34240
5215,33984
5216,33728
5217,33920
5218,34048
5219,33920
5220,33792
5221,33920
5222,34176
5223,34048
5224,33920
5225,34048
5226,34304
5227,34240
5228,34048
5229,34048
5230,34304
5231,34304
5232,34112
5233,34304
5234,34880
5235,35392
5236,35904
5237,36544
5238,37312
5239,37312
5240,36416
5241,35008
5242,33792
5243,32768
5244,31872
5245,31552
5246,31680
5247,32192
5248,32512
5249,32896
5250,33408
5251,34112
5252,34432
5253,34496
5254,34624
5255,34944
5256,34944
5257,34624
5258,34432
5259,34624
5260,34496
5261,34176
5262,33984
5263,34176
5264,34240
5265,34112
5266,33984
5267,34112
5268,34368
5269,34176
5270,34048
5271,34176
5272,34368
5273,34240
5274,34112
5275,34176
5276,34432
5277,34368
5278,34176
5279,34112
5280,34368
5281,34432
5282,34240
5283,34176
5284,34496
5285,34560
5286,34432
5287,34304
5288,34560
5289,34688
5290,34496
5291,34368
5292,34560
5293,34752
5294,34560
5295,34432
5296,34560
5297,34816
5298,34752
5299,34560
5300,34560
5301,34816
5302,34752
5303,34496
5304,34432
5305,34688
5306,34688
5307,34368
5308,34240
5309,34368
5310,34368
5311,34112
5312,33920
5313,34112
5314,34240
5315,34112
5316,33984
5317,34112
5318,34304
5319,34112
5320,33984
5321,34048
5322,34304
5323,34176
5324,33920
5325,33984
5326,34240
5327,34176
5328,33984
5329,33984
5330,34176
5331,34240
5332,34048
5333,33984
5334,34240
5335,34304
5336,34176
5337,34048
5338,34240
5339,34432
5340,34240
5341,34048
5342,34176
5343,34368
5344,34240
5345,34048
5346,34176
5347,34368
5348,34240
5349,34048
5350,34112
5351,34368
5352,34368
5353,34112
5354,34048
5355,34368
5356,34304
5357,34112
5358,33984
5359,34240
5360,34304
5361,34112
5362,33984
5363,34176
5364,34304
5365,34176
5366,34048
5367,34240
5368,34432
5369,34368
5370,34240
5371,34368
5372,34624
5373,34560
5374,34304
5375,34368
5376,34624
5377,34624
5378,34432
5379,34368
5380,34624
5381,34624
5382,34368
5383,34176
5384,34304
5385,34240
5386,33920
5387,33728
5388,33856
5389,33984
5390,33856
5391,33728
5392,33856
5393,34112
5394,34048
5395,33856
5396,33920
5397,34176
5398,34112
5399,33920
5400,33920
5401,34176
5402,34112
5403,33920
5404,34048
5405,34560
5406,34944
5407,35200
5408,35712
5409,36672
5410,37248
5411,36992
5412,36032
5413,35008
5414,33792
5415,32576
5416,31808
5417,31616
5418,31936
5419,32128
5420,32320
5421,32832
5422,33600
5423,33984
5424,34176
5425,34432
5426,34816
5427,34816
5428,34560
5429,34368
5430,34560
5431,34496
5432,34176
5433,34048
5434,34176
5435,34240
5436,34048
5437,33920
5438,34112
5439,34304
5440,34176
5441,33984
5442,34112
5443,34368
5444,34240
5445,34048
5446,34112
5447,34368
5448,34240
5449,34048
5450,34112
5451,34368
5452,34432
5453,34240
5454,34176
5455,34496
5456,34496
5457,34368
5458,34240
5459,34432
5460,34560
5461,34368
5462,34240
5463,34432
5464,34688
5465,34560
5466,34432
5467,34560
5468,34752
5469,34688
5470,34496
5471,34560
5472,34816
5473,34752
5474,34496
5475,34432
5476,34688
5477,34624
5478,34368
5479,34176
5480,34368
5481,34368
5482,34112
5483,33984
5484,34176
5485,34304
5486,34112
5487,33920
5488,34048
5489,34240
5490,34112
5491,33920
5492,34048
5493,34304
5494,34176
5495,33984
5496,34048
5497,34368
5498,34304
5499,34112
5500,34048
5501,34240
5502,34240
5503,34048
5504,33984
5505,34176
5506,34304
5507,34112
5508,33984
5509,34176
5510,34368
5511,34240
5512,34048
5513,34240
5514,34432
5515,34240
5516,34048
5517,34112
5518,34368
5519,34304
5520,34112
5521,34112
5522,34368
5523,34368
5524,34112
5525,34048
5526,34304
5527,34304
5528,34112
5529,33984
5530,34240
5531,34304
5532,34112
5533,34048
5534,34176
5535,34368
5536,34176
5537,33984
5538,34112
5539,34304
5540,34176
5541,33984
5542,34432
5543,34432
5544,34304
5545,34368
5546,34624
5547,34624
5548,34432
5549,34368
5550,34688
5551,34752
5552,34560
5553,34496
5554,34624
5555,34752
5556,34432
5557,34176
5558,34304
5559,34304
5560,34048
5561,33728
5562,33792
5563,33984
5564,33856
5565,33728
5566,33792
5567,34112
5568,34112
5569,33984
5570,33984
5571,34304
5572,34304
5573,34112
5574,33984
5575,34240
5576,34304
5577,34112
5578,34176
5579,34624
5580,35200
5581,35584
5582,36224
5583,36992
5584,37312
5585,36672
5586,35456
5587,34240
5588,33216
5589,32192
5590,32064
5591,31552
5592,32064
5593,32384
5594,32704
5595,33152
5596,33856
5597,34304
5598,34368
5599,34496
5600,34752
5601,34880
5602,34624
5603,34368
5604,34496
5605,34496
5606,34240
5607,34048
5608,34112
5609,34304
5610,34112
5611,33920
5612,33984
5613,34240
5614,34112
5615,33984
5616,33984
5617,34304
5618,34304
5619,34112
5620,34048
5621,34432
5622,34496
5623,34304
5624,34176
5625,34368
5626,34496
5627,34240
5628,34112
5629,34240
5630,34496
5631,34368
5632,34240
5633,34496
5634,34688
5635,34560
5636,34368
5637,34496
5638,34752
5639,34752
5640,34560
5641,34560
5642,34880
5643,34816
5644,34624
5645,34496
5646,34752
5647,34816
5648,34624
5649,34496
5650,34624
5651,34688
5652,34368
5653,34176
5654,34304
5655,34432
5656,34176
5657,33920
5658,34048
5659,34240
5660,34112
5661,33856
5662,33920
5663,34240
5664,34176
5665,33984
5666,34048
5667,34240
5668,34240
5669,33984
5670,33920
5671,34240
5672,34304
5673,34112
5674,33984
5675,34240
5676,34368
5677,34176
5678,34048
5679,34176
5680,34368
5681,34176
5682,33984
5683,34112
5684,34304
5685,34240
5686,34048
5687,34112
5688,34304
5689,34240
5690,34048
5691,34048
5692,34368
5693,34368
5694,34176
5695,34048
5696,34304
5697,34368
5698,34176
5699,34048
5700,34304
5701,34368
5702,34176
5703,33984
5704,34176
5705,34368
5706,34240
5707,34048
5708,34176
5709,34368
5710,34240
5711,34048
5712,34112
5713,34432
5714,34432
5715,34304
5716,34368
5717,34624
5718,34624
5719,34432
5720,34368
5721,34624
5722,34688
5723,34496
5724,34368
5725,34560
5726,34624
5727,34368
5728,34048
5729,34048
5730,34176
5731,33920
5732,33728
5733,33792
5734,34048
5735,33984
5736,33792
5737,33920
5738,34176
5739,34176
5740,33984
5741,33920
5742,34240
5743,34240
5744,34048
5745,33920
5746,34112
5747,34240
5748,34240
5749,34368
5750,35008
5751,35840
5752,36416
5753,36864
5754,36992
5755,36480
5756,35200
5757,33792
5758,32832
5759,32384
5760,32000
5761,31808
5762,32000
5763,32576
5764,32960
5765,33152
5766,33536
5767,34176
5768,34496
5769,34496
5770,34496
5771,34688
5772,34752
5773,34432
5774,34240
5775,34368
5776,34432
5777,34176
5778,33984
5779,34048
5780,34240
5781,34112
5782,33920
5783,33984
5784,34240
5785,34176
5786,33984
5787,34048
5788,34368
5789,34368
5790,34176
5791,34176
5792,34432
5793,34496
5794,34240
5795,34176
5796,34368
5797,34496
5798,34304
5799,34176
5800,34368
5801,34560
5802,34368
5803,34240
5804,34432
5805,34688
5806,34560
5807,34368
5808,34432
5809,34688
5810,34688
5811,34496
5812,34496
5813,34752
5814,34688
5815,34496
5816,34432
5817,34624
5818,34624
5819,34432
5820,34240
5821,34432
5822,34496
5823,34176
5824,33984
5825,34112
5826,34240
5827,34048
5828,33856
5829,33920
5830,34176
5831,34048
5832,33920
5833,33984
5834,34240
5835,34176
5836,33984
5837,33984
5838,34240
5839,34240
5840,33984
5841,33920
5842,34112
5843,34176
5844,33984
5845,33920
5846,34112
5847,34240
5848,34048
5849,33984
5850,34112
5851,34304
5852,34176
5853,34048
5854,34112
5855,34368
5856,34240
5857,33984
5858,34048
5859,34304
5860,34240
5861,34048
5862,34048
5863,34368
5864,34368
5865,34176
5866,34048
5867,34304
5868,34368
5869,34176
5870,34048
5871,34240
5872,34368
5873,34176
5874,34048
5875,34176
5876,34368
5877,34240
5878,34048
5879,34112
5880,34304
5881,34240
5882,34112
5883,34176
5884,34496
5885,34560
5886,34368
5887,34368
5888,34624
5889,34624
5890,34432
5891,34368
5892,34624
5893,34752
5894,34496
5895,34368
5896,34432
5897,34432
5898,34176
5899,33920
5900,33920
5901,34048
5902,33856
5903,33664
5904,33728
5905,33984
5906,33920
5907,33792
5908,33856
5909,34112
5910,34112
5911,33920
5912,33920
5913,34176
5914,34240
5915,34048
5916,33920
5917,34176
5918,34496
5919,34560
5920,34752
5921,35520
5922,36416
5923,36928
5924,37056
5925,36864
5926,36096
5927,34496
5928,33024
5929,32064
5930,31744
5931,31488
5932,31424
5933,31872
5934,32640
5935,33152
5936,33536
5937,33920
5938,34496
5939,34752
5940,34688
5941,34560
5942,34688
5943,34688
5944,34368
5945,34112
5946,34112
5947,34240
5948,33984
5949,33792
5950,33856
5951,34112
5952,34048
5953,33856
5954,33920
5955,34176
5956,34112
5957,33920
5958,33920
5959,34176
5960,34176
5961,34048
5962,33984
5963,34176
5964,34304
5965,34112
5966,33984
5967,34240
5968,34432
5969,34240
5970,34112
5971,34304
5972,34560
5973,34368
5974,34176
5975,34304
5976,34560
5977,34496
5978,34304
5979,34368
5980,34624
5981,34560
5982,34368
5983,34432
5984,34688
5985,34688
5986,34496
5987,34432
5988,34688
5989,34688
5990,34432
5991,34240
5992,34368
5993,34368
5994,34176
5995,33920
5996,34048
5997,34240
5998,34112
5999,33856
6000,33920
6001,34112
6002,34048
6003,33856
6004,33920
6005,34176
6006,34112
6007,33920
6008,33920
6009,34176
6010,34240
6011,33984
6012,33920
6013,34176
6014,34240
6015,34048
6016,33920
6017,34112
6018,34240
6019,34112
6020,33920
6021,34048
6022,34240
6023,34112
6024,33920
6025,33984
6026,34240
6027,34176
6028,33984
6029,34048
6030,34304
6031,34304
6032,34048
6033,33984
6034,34240
6035,34304
6036,34048
6037,33984
6038,34176
6039,34304
6040,34112
6041,33984
6042,34240
6043,34432
6044,34240
6045,34048
6046,34112
6047,34304
6048,34112
6049,33920
6050,33984
6051,34240
6052,34176
6053,33920
6054,33984
6055,34240
6056,34176
6057,33984
6058,33984
6059,34368
6060,34496
6061,34368
6062,34304
6063,34560
6064,34624
6065,34432
6066,34304
6067,34560
6068,34688
6069,34560
6070,34368
6071,34432
6072,34624
6073,34432
6074,34112
6075,33984
6076,34112
6077,33920
6078,33600
6079,33536
6080,33792
6081,33856
6082,33728
6083,33728
6084,34048
6085,34112
6086,33920
6087,33856
6088,34112
6089,34240
6090,34048
6091,33920
6092,34112
6093,34304
6094,34304
6095,34368
6096,34816
6097,35584
6098,36160
6099,36736
6100,37184
6101,37248
6102,36352
6103,34752
6104,33280
6105,32320
6106,31680
6107,31296
6108,31296
6109,31936
6110,32512
6111,32896
6112,33344
6113,34048
6114,34560
6115,34624
6116,34560
6117,34752
6118,34816
6119,34560
6120,34240
6121,34240
6122,34368
6123,34176
6124,33856
6125,33856
6126,34112
6127,34048
6128,33856
6129,33856
6130,34112
6131,34176
6132,33984
6133,33920
6134,34176
6135,34304
6136,34112
6137,33984
6138,34240
6139,34368
6140,34176
6141,34048
6142,34176
6143,34368
6144,34240
6145,34048
6146,34176
6147,34432
6148,34368
6149,34176
6150,34304
6151,34624
6152,34624
6153,34432
6154,34432
6155,34688
6156,34752
6157,34560
6158,34496
6159,34752
6160,34816
6161,34624
6162,34496
6163,34624
6164,34816
6165,34560
6166,34368
6167,34432
6168,34560
6169,34304
6170,34048
6171,34048
6172,34176
6173,34048
6174,33792
6175,33792
6176,34112
6177,34112
6178,33920
6179,33856
6180,34112
6181,34176
6182,33920
6183,33856
6184,34048
6185,34176
6186,34048
6187,33920
6188,34112
6189,34304
6190,34112
6191,33920
6192,34048
6193,34304
6194,34176
6195,33984
6196,33984
6197,34240
6198,34112
6199,33920
6200,33920
6201,34176
6202,34176
6203,33984
6204,33920
6205,34240
6206,34304
6207,34112
6208,33984
6209,34176
6210,34304
6211,34112
6212,33984
6213,34176
6214,34368
6215,34176
6216,34048
6217,34112
6218,34368
6219,34176
6220,33984
6221,34048
6222,34240
6223,34176
6224,33984
6225,33920
6226,34240
6227,34240
6228,33984
6229,33920
6230,34176
6231,34240
6232,34048
6233,33920
6234,34176
6235,34304
6236,34112
6237,33920
6238,34112
6239,34304
6240,34176
6241,33920
6242,34048
6243,34304
6244,34176
6245,33984
6246,34048
6247,34304
6248,34304
6249,34176
6250,34240
6251,34560
6252,34560
6253,34304
6254,34240
6255,34560
6256,34624
6257,34432
6258,34368
6259,34560
6260,34688
6261,34496
6262,34304
6263,34368
6264,34432
6265,34112
6266,33792
6267,33728
6268,33920
6269,33792
6270,33600
6271,33664
6272,33984
6273,33984
6274,33856
6275,33920
6276,34240
6277,34240
6278,34048
6279,33984
6280,34176
6281,34240
6282,34048
6283,34048
6284,34368
6285,34752
6286,35008
6287,35520
6288,36352
6289,37248
6290,37376
6291,36736
6292,35712
6293,34496
6294,33024
6295,31936
6296,31488
6297,31616
6298,31808
6299,32000
6300,32448
6301,33216
6302,33792
6303,34048
6304,34240
6305,34688
6306,34880
6307,34688
6308,34496
6309,34560
6310,34624
6311,34368
6312,34048
6313,34176
6314,34304
6315,34112
6316,33856
6317,33920
6318,34176
6319,34112
6320,33920
6321,33920
6322,34176
6323,34176
6324,34048
6325,33984
6326,34304
6327,34432
6328,34176
6329,34048
6330,34304
6331,34432
6332,34176
6333,34112
6334,34304
6335,34496
6336,34368
6337,34240
6338,34432
6339,34688
6340,34560
6341,34368
6342,34432
6343,34752
6344,34688
6345,34496
6346,34496
6347,34816
6348,34816
6349,34624
6350,34560
6351,34816
6352,34880
6353,34624
6354,34496
6355,34624
6356,34752
6357,34496
6358,34240
6359,34368
6360,34432
6361,34240
6362,33984
6363,34048
6364,34240
6365,34112
6366,33920
6367,33920
6368,34240
6369,34176
6370,33984
6371,33984
6372,34240
6373,34240
6374,34048
6375,33984
6376,34240
6377,34304
6378,34112
6379,33984
6380,34240
6381,34368
6382,34176
6383,33984
6384,34112
6385,34304
6386,34112
6387,33984
6388,34048
6389,34368
6390,34240
6391,34048
6392,34112
6393,34368
6394,34304
6395,34112
6396,34112
6397,34368
6398,34368
6399,34176
6400,34112
6401,34304
6402,34432
6403,34240
6404,34112
6405,34304
6406,34496
6407,34240
6408,34048
6409,34176
6410,34368
6411,34240
6412,34048
6413,34112
6414,34368
6415,34240
6416,34048
6417,34048
6418,34368
6419,34304
6420,34112
6421,34048
6422,34304
6423,34304
6424,34112
6425,34048
6426,34304
6427,34368
6428,34176
6429,34048
6430,34176
6431,34304
6432,34112
6433,33920
6434,34048
6435,34240
6436,34176
6437,34048
6438,34176
6439,34496
6440,34496
6441,34304
6442,34368
6443,34624
6444,34624
6445,34368
6446,34368
6447,34688
6448,34688
6449,34496
6450,34368
6451,34496
6452,34432
6453,34176
6454,33920
6455,33984
6456,34112
6457,33856
6458,33664
6459,33792
6460,34048
6461,33920
6462,33792
6463,33856
6464,34176
6465,34176
6466,33984
6467,34048
6468,34304
6469,34304
6470,34048
6471,33984
6472,34304
6473,34496
6474,34560
6475,34880
6476,35648
6477,36480
6478,37056
6479,37184
6480,36864
6481,35968
6482,34496
6483,33024
6484,32256
6485,32000
6486,31744
6487,31680
6488,32064
6489,32768
6490,33216
6491,33472
6492,33920
6493,34496
6494,34752
6495,34624
6496,34560
6497,34816
6498,34752
6499,34432
6500,34176
6501,34304
6502,34368
6503,34112
6504,33920
6505,34048
6506,34240
6507,34112
6508,33920
6509,34048
6510,34368
6511,34240
6512,34048
6513,34112
6514,34368
6515,34368
6516,34112
6517,34112
6518,34368
6519,34368
6520,34176
6521,34176
6522,34432
6523,34560
6524,34368
6525,34240
6526,34432
6527,34624
6528,34432
6529,34304
6530,34432
6531,34688
6532,34624
6533,34496
6534,34624
6535,34880
6536,34752
6537,34624
6538,34624
6539,34880
6540,34816
6541,34624
6542,34624
6543,34816
6544,34816
6545,34560
6546,34432
6547,34560
6548,34560
6549,34304
6550,34048
6551,34176
6552,34368
6553,34112
6554,33920
6555,34112
6556,34304
6557,34176
6558,33984
6559,34112
6560,34368
6561,34304
6562,34048
6563,34048
6564,34304
6565,34304
6566,34048
6567,34048
6568,34304
6569,34368
6570,34112
6571,33984
6572,34240
6573,34304
6574,34112
6575,33984
6576,34176
6577,34368
6578,34176
6579,33984
6580,34112
6581,34368
6582,34240
6583,34048
6584,34112
6585,34432
6586,34368
6587,34112
6588,34112
6589,34368
6590,34368
6591,34176
6592,34176
6593,34432
6594,34432
6595,34240
6596,34112
6597,34368
6598,34432
6599,34176
6600,33984
6601,34176
6602,34304
6603,34112
6604,33984
6605,34112
6606,34368
6607,34304
6608,34048
6609,34112
6610,34368
6611,34304
6612,34112
6613,34112
6614,34304
6615,34304
6616,34048
6617,34048
6618,34240
6619,34304
6620,34112
6621,33984
6622,34240
6623,34368
6624,34176
6625,34048
6626,34240
6627,34496
6628,34432
6629,34304
6630,34432
6631,34624
6632,34496
6633,34304
6634,34368
6635,34688
6636,34624
6637,34432
6638,34368
6639,34560
6640,34496
6641,34176
6642,33984
6643,34112
6644,34048
6645,33792
6646,33600
6647,33856
6648,33920
6649,33792
6650,33728
6651,33920
6652,34176
6653,34112
6654,33920
6655,34048
6656,34304
6657,34176
6658,33920
6659,33984
6660,34304
6661,34368
6662,34432
6663,34752
6664,35520
6665,36288
6666,36800
6667,37184
6668,37312
6669,36544
6670,35072
6671,33344
6672,32256
6673,31744
6674,31360
6675,31296
6676,31808
6677,32768
6678,33024
6679,33408
6680,33984
6681,34624
6682,34752
6683,34624
6684,34624
6685,34816
6686,34688
6687,34368
6688,34240
6689,34368
6690,34304
6691,34048
6692,33920
6693,34112
6694,34176
6695,33984
6696,33792
6697,33984
6698,34176
6699,34048
6700,33920
6701,34112
6702,34304
6703,34176
6704,33984
6705,34048
6706,34368
6707,34240
6708,34112
6709,34112
6710,34432
6711,34368
6712,34176
6713,34176
6714,34432
6715,34496
6716,34304
6717,34240
6718,34496
6719,34688
6720,34496
6721,34432
6722,34688
6723,34816
6724,34688
6725,34496
6726,34624
6727,34816
6728,34752
6729,34560
6730,34560
6731,34752
6732,34624
6733,34368
6734,34368
6735,34560
6736,34432
6737,34176
6738,34048
6739,34240
6740,34240
6741,33920
6742,33792
6743,34048
6744,34112
6745,33920
6746,33856
6747,34048
6748,34240
6749,34112
6750,33984
6751,34048
6752,34304
6753,34176
6754,33984
6755,33984
6756,34240
6757,34240
6758,33984
6759,33984
6760,34240
6761,34240
6762,33984
6763,33920
6764,34176
6765,34240
6766,34048
6767,33920
6768,34112
6769,34304
6770,34112
6771,33984
6772,34112
6773,34368
6774,34240
6775,34048
6776,34112
6777,34368
6778,34240
6779,34048
6780,34048
6781,34368
6782,34240
6783,34048
6784,34048
6785,34304
6786,34368
6787,34112
6788,34048
6789,34304
6790,34368
6791,34112
6792,33984
6793,34176
6794,34304
6795,34112
6796,33920
6797,34048
6798,34304
6799,34176
6800,33984
6801,34048
6802,34240
6803,34176
6804,33920
6805,33920
6806,34240
6807,34240
6808,34048
6809,33984
6810,34304
6811,34304
6812,34048
6813,33984
6814,34176
6815,34304
6816,34048
6817,33920
6818,34112
6819,34304
6820,34112
6821,33920
6822,34112
6823,34368
6824,34304
6825,34176
6826,34368
6827,34624
6828,34496
6829,34240
6830,34240
6831,34496
6832,34496
6833,34368
6834,34304
6835,34560
6836,34560
6837,34304
6838,34112
6839,34304
6840,34304
6841,33984
6842,33728
6843,33856
6844,33984
6845,33856
6846,33728
6847,33856
6848,34112
6849,34048
6850,33856
6851,33920
6852,34240
6853,34176
6854,33984
6855,33984
6856,34240
6857,34176
6858,34112
6859,34304
6860,34880
6861,35456
6862,35904
6863,36544
6864,37312
6865,37504
6866,36672
6867,35328
6868,33984
6869,32832
6870,31872
6871,31360
6872,31552
6873,31936
6874,32320
6875,32640
6876,33280
6877,34048
6878,34432
6879,34496
6880,34624
6881,34944
6882,34880
6883,34560
6884,34368
6885,34496
6886,34432
6887,34176
6888,33984
6889,34176
6890,34240
6891,34048
6892,33920
6893,34048
6894,34240
6895,34112
6896,33984
6897,34112
6898,34368
6899,34240
6900,34048
6901,34112
6902,34432
6903,34368
6904,34176
6905,34176
6906,34432
6907,34496
6908,34304
6909,34240
6910,34496
6911,34560
6912,34368
6913,34240
6914,34496
6915,34688
6916,34560
6917,34496
6918,34624
6919,34816
6920,34688
6921,34560
6922,34624
6923,34880
6924,34752
6925,34560
6926,34688
6927,34944
6928,34880
6929,34624
6930,34560
6931,34752
6932,34688
6933,34432
6934,34304
6935,34432
6936,34432
6937,34176
6938,34048
6939,34176
6940,34304
6941,34112
6942,33920
6943,34048
6944,34304
6945,34176
6946,33984
6947,33984
6948,34240
6949,34112
6950,33984
6951,34048
6952,34368
6953,34368
6954,34048
6955,33984
6956,34176
6957,34176
6958,33984
6959,33856
6960,34112
6961,34240
6962,34048
6963,33920
6964,34112
6965,34304
6966,34112
6967,33984
6968,34176
6969,34368
6970,34240
6971,34048
6972,34112
6973,34368
6974,34304
6975,34048
6976,34048
6977,34368
6978,34304
6979,34048
6980,33984
6981,34240
6982,34240
6983,34048
6984,33920
6985,34112
6986,34304
6987,34176
6988,34048
6989,34176
6990,34304
6991,34112
6992,34048
6993,34112
6994,34304
6995,34176
6996,33984
6997,33984
6998,34176
6999,34112
7000,33920
7001,33920
7002,34176
7003,34176
7004,33984
7005,33920
7006,34176
7007,34240
7008,34048
7009,33920
7010,34112
7011,34240
7012,34048
7013,33856
7014,33984
7015,34240
7016,34048
7017,33856
7018,33920
7019,34112
7020,33984
7021,33856
7022,33984
7023,34176
7024,34112
7025,33856
7026,33856
7027,34112
7028,34176
7029,33984
7030,33984
7031,34304
7032,34432
7033,34176
7034,34048
7035,34304
7036,34496
7037,34368
7038,34176
7039,34240
7040,34432
7041,34304
7042,34048
7043,34112
7044,34240
7045,33984
7046,33664
7047,33536
7048,33792
7049,33792
7050,33536
7051,33536
7052,33920
7053,33856
7054,33664
7055,33600
7056,33920
7057,34048
7058,33856
7059,33728
7060,33920
7061,34112
7062,33920
7063,33792
7064,34048
7065,34560
7066,34816
7067,35520
7068,35968
7069,36992
7070,37376
7071,36992
7072,36096
7073,34944
7074,33280
7075,31808
7076,31168
7077,31168
7078,31360
7079,31552
7080,32000
7081,32896
7082,33728
7083,33920
7084,34112
7085,34496
7086,34752
7087,34624
7088,34368
7089,34368
7090,34432
7091,34176
7092,33856
7093,33856
7094,33984
7095,33920
7096,33664
7097,33664
7098,33920
7099,33984
7100,33792
7101,33728
7102,33984
7103,34048
7104,33856
7105,33792
7106,34048
7107,34176
7108,33984
7109,33856
7110,34048
7111,34240
7112,34112
7113,33984
7114,34112
7115,34368
7116,34240
7117,34048
7118,34112
7119,34432
7120,34368
7121,34176
7122,34240
7123,34560
7124,34624
7125,34432
7126,34368
7127,34624
7128,34688
7129,34432
7130,34368
7131,34624
7132,34752
7133,34560
7134,34368
7135,34496
7136,34688
7137,34560
7138,34304
7139,34240
7140,34432
7141,34176
7142,33856
7143,33856
7144,34048
7145,33984
7146,33792
7147,33792
7148,34048
7149,34112
7150,33920
7151,33856
7152,34112
7153,34176
7154,33920
7155,33856
7156,34112
7157,34240
7158,34048
7159,33856
7160,33984
7161,34176
7162,34048
7163,33856
7164,33920
7165,34240
7166,34176
7167,33984
7168,33984
7169,34176
7170,34112
7171,33984
7172,33920
7173,34176
7174,34240
7175,34048
7176,33984
7177,34176
7178,34240
7179,34048
7180,33920
7181,34112
7182,34304
7183,34112
7184,33856
7185,34048
7186,34304
7187,34176
7188,33984
7189,34048
7190,34304
7191,34240
7192,34048
7193,34048
7194,34304
7195,34240
7196,34048
7197,33984
7198,34240
7199,34240
7200,34048
7201,33920
7202,34176
7203,34304
7204,34048
7205,33856
7206,33984
7207,34176
7208,33984
7209,33856
7210,33984
7211,34240
7212,34112
7213,33920
7214,33984
7215,34240
7216,34112
7217,33920
7218,33856
7219,34112
7220,34112
7221,33920
7222,33920
7223,34112
7224,34176
7225,33920
7226,33856
7227,34112
7228,34304
7229,34176
7230,34048
7231,34304
7232,34624
7233,34496
7234,34368
7235,34560
7236,34752
7237,34624
7238,34496
7239,34560
7240,34944
7241,34816
7242,34560
7243,34496
7244,34688
7245,34560
7246,34304
7247,34176
7248,34304
7249,34368
7250,34048
7251,33856
7252,34048
7253,34176
7254,33984
7255,33920
7256,34112
7257,34368
7258,34304
7259,34240
7260,34432
7261,34624
7262,34496
7263,34304
7264,34304
7265,34560
7266,34688
7267,34752
7268,35072
7269,35840
7270,36544
7271,37120
7272,37504
7273,37568
7274,36800
7275,35072
7276,33600
7277,32640
7278,32064
7279,31680
7280,31616
7281,32064
7282,32768
7283,33152
7284,33600
7285,34176
7286,34752
7287,34880
7288,34816
7289,34880
7290,35072
7291,34880
7292,34560
7293,34368
7294,34496
7295,34432
7296,34176
7297,34048
7298,34240
7299,34304
7300,34112
7301,33984
7302,34176
7303,34368
7304,34176
7305,34048
7306,34240
7307,34496
7308,34304
7309,34176
7310,34240
7311,34496
7312,34368
7313,34176
7314,34240
7315,34496
7316,34496
7317,34304
7318,34240
7319,34560
7320,34560
7321,34368
7322,34304
7323,34560
7324,34688
7325,34560
7326,34432
7327,34624
7328,34816
7329,34688
7330,34496
7331,34624
7332,34880
7333,34752
7334,34560
7335,34624
7336,34880
7337,34752
7338,34496
7339,34496
7340,34688
7341,34560
7342,34240
7343,34176
7344,34368
7345,34304
7346,34048
7347,33920
7348,34048
7349,34112
7350,33920
7351,33792
7352,33984
7353,34240
7354,34112
7355,33984
7356,34112
7357,34304
7358,34240
7359,34048
7360,34048
7361,34304
7362,33984
7363,33984
7364,34240
7365,34176
7366,33984
7367,33920
7368,34112
7369,34176
7370,33920
7371,33856
7372,34048
7373,34240
7374,34048
7375,33984
7376,34048
7377,34304
7378,34176
7379,33984
7380,34112
7381,34304
7382,34240
7383,33984
7384,34048
7385,34304
7386,34176
7387,33984
7388,33984
7389,34240
7390,34240
7391,33984
7392,33856
7393,34112
7394,34176
7395,33984
7396,33856
7397,34048
7398,34304
7399,34112
7400,33920
7401,33984
7402,34176
7403,34048
7404,33856
7405,33920
7406,34176
7407,34048
7408,33920
7409,34048
7410,34368
7411,34368
7412,34240
7413,34176
7414,34432
7415,34432
7416,34240
7417,34112
7418,34432
7419,34560
7420,34432
7421,34240
7422,34432
7423,34432
7424,34304
7425,34048
7426,34112
7427,34176
7428,34112
7429,33728
7430,33728
7431,33984
7432,33856
7433,33664
7434,33600
7435,33920
7436,33920
7437,33792
7438,33792
7439,34112
7440,34112
7441,33920
7442,33856
7443,34112
7444,34240
7445,34112
7446,34176
7447,34752
7448,35392
7449,35968
7450,36608
7451,37184
7452,37248
7453,36288
7454,34816
7455,33536
7456,32768
7457,32064
7458,31616
7459,31616
7460,32064
7461,32448
7462,32704
7463,33152
7464,33856
7465,34240
7466,34304
7467,34368
7468,34624
7469,34752
7470,34496
7471,34240
7472,34368
7473,34432
7474,34240
7475,33984
7476,34048
7477,34176
7478,34048
7479,33856
7480,33920
7481,34176
7482,34112
7483,33920
7484,33984
7485,34240
7486,34304
7487,34112
7488,34048
7489,34368
7490,34432
7491,34176
7492,34112
7493,34304
7494,34432
7495,34240
7496,34112
7497,34368
7498,34560
7499,34432
7500,34240
7501,34368
7502,34624
7503,34496
7504,34368
7505,34368
7506,34688
7507,34624
7508,34496
7509,34432
7510,34752
7511,34752
7512,34560
7513,34432
7514,34688
7515,34752
7516,34496
7517,34304
7518,34496
7519,34560
7520,34304
7521,34112
7522,34240
7523,34368
7524,34112
7525,33920
7526,33984
7527,34176
7528,34112
7529,33920
7530,33920
7531,34176
7532,34176
7533,33984
7534,33984
7535,34240
7536,34304
7537,34112
7538,34048
7539,34240
7540,34304
7541,34112
7542,33984
7543,34112
7544,34304
7545,34112
7546,33984
7547,34176
7548,34368
7549,34240
7550,34048
7551,34112
7552,34304
7553,34176
7554,33920
7555,33920
7556,34240
7557,34240
7558,34048
7559,34048
7560,34304
7561,34368
7562,34176
7563,34048
7564,34304
7565,34368
7566,34176
7567,33984
7568,34240
7569,34368
7570,34176
7571,33984
7572,34112
7573,34304
7574,34176
7575,34048
7576,34112
7577,34368
7578,34240
7579,34048
7580,34048
7581,34304
7582,34304
7583,34048
7584,33984
7585,34240
7586,34240
7587,34048
7588,33984
7589,34240
7590,34368
7591,34176
7592,34048
7593,34240
7594,34496
7595,34432
7596,34304
7597,34432
7598,34688
7599,34496
7600,34304
7601,34432
7602,34688
7603,34624
7604,34432
7605,34368
7606,34624
7607,34496
7608,34240
7609,34048
7610,34176
7611,34112
7612,33792
7613,33600
7614,33856
7615,33984
7616,33856
7617,33728
7618,33920
7619,34176
7620,34048
7621,33920
7622,34048
7623,34304
7624,34176
7625,33984
7626,34048
7627,34368
7628,34432
7629,34496
7630,34816
7631,35648
7632,36352
7633,36864
7634,37184
7635,37184
7636,36416
7637,34816
7638,33216
7639,32256
7640,31744
7641,31360
7642,31360
7643,31936
7644,32704
7645,33152
7646,33536
7647,34048
7648,34624
7649,34816
7650,34688
7651,34688
7652,34880
7653,34752
7654,34496
7655,34304
7656,34368
7657,34304
7658,34048
7659,33920
7660,34112
7661,34176
7662,33984
7663,33856
7664,34112
7665,34304
7666,34112
7667,33984
7668,34176
7669,34368
7670,34304
7671,34112
7672,34176
7673,34368
7674,34304
7675,34112
7676,34112
7677,34368
7678,34368
7679,34176
7680,34176
7681,34496
7682,34560
7683,34368
7684,34304
7685,34624
7686,34752
7687,34560
7688,34432
7689,34624
7690,34816
7691,34624
7692,34432
7693,34560
7694,34816
7695,34688
7696,34496
7697,34496
7698,34752
7699,34624
7700,34368
7701,34304
7702,34496
7703,34368
7704,34112
7705,33984
7706,34240
7707,34240
7708,33984
7709,33920
7710,34112
7711,34240
7712,33984
7713,33856
7714,33984
7715,34176
7716,34048
7717,33920
7718,34048
7719,34240
7720,34112
7721,33920
7722,33984
7723,34240
7724,34240
7725,33984
7726,33984
7727,34240
7728,34176
7729,33920
7730,33920
7731,34176
7732,34240
7733,34048
7734,33984
7735,34240
7736,34304
7737,34112
7738,33984
7739,34240
7740,34432
7741,34304
7742,34112
7743,34176
7744,34432
7745,34304
7746,34112
7747,34112
7748,34368
7749,34240
7750,33984
7751,33984
7752,34240
7753,34304
7754,34112
7755,34048
7756,34240
7757,34304
7758,34112
7759,34048
7760,34240
7761,34368
7762,34176
7763,33984
7764,34176
7765,34304
7766,34176
7767,33984
7768,34112
7769,34368
7770,34240
7771,34048
7772,34112
7773,34368
7774,34304
7775,34112
7776,34112
7777,34368
7778,34368
7779,34240
7780,34240
7781,34560
7782,34688
7783,34432
7784,34304
7785,34496
7786,34688
7787,34624
7788,34496
7789,34560
7790,34688
7791,34496
7792,34240
7793,34304
7794,34560
7795,34304
7796,33984
7797,33856
7798,34112
7799,33984
7800,33728
7801,33664
7802,33920
7803,34048
7804,33856
7805,33792
7806,34048
7807,34240
7808,34048
7809,33920
7810,34176
7811,34368
7812,34176
7813,33984
7814,34176
7815,34560
7816,34752
7817,34944
7818,35584
7819,36544
7820,37184
7821,37312
7822,36928
7823,36160
7824,34624
7825,33024
7826,31872
7827,31552
7828,31488
7829,31488
7830,31872
7831,32704
7832,33408
7833,33792
7834,34112
7835,34624
7836,35008
7837,34880
7838,34624
7839,34624
7840,34752
7841,34496
7842,34176
7843,34112
7844,34304
7845,34176
7846,33920
7847,33920
7848,34176
7849,34176
7850,33984
7851,33920
7852,34240
7853,34368
7854,34112
7855,34048
7856,34368
7857,34496
7858,34304
7859,34176
7860,34368
7861,34560
7862,34432
7863,34304
7864,34368
7865,34560
7866,34432
7867,34240
7868,34240
7869,34560
7870,34560
7871,34432
7872,34368
7873,34752
7874,34880
7875,34624
7876,34624
7877,34880
7878,34816
7879,34560
7880,34304
7881,34688
7882,34944
7883,34816
7884,34688
7885,34688
7886,34816
7887,34624
7888,34368
7889,34304
7890,34432
7891,34240
7892,34048
7893,34112
7894,34368
7895,34240
7896,33984
7897,33856
7898,34112
7899,34112
7900,33856
7901,33792
7902,34048
7903,34240
7904,34048
7905,33792
7906,33984
7907,34176
7908,34048
7909,33920
7910,34112
7911,34304
7912,34048
7913,33792
7914,33920
7915,34176
7916,34048
7917,33664
7918,33664
7919,34112
7920,34176
7921,34048
7922,33920
7923,34176
7924,34112
7925,33792
7926,33600
7927,33792
7928,33920
7929,33856
7930,33856
7931,34176
7932,34368
7933,34176
7934,33984
7935,34240
7936,34496
7937,34368
7938,34048
7939,34048
7940,34304
7941,34112
7942,33856
7943,33856
7944,34176
7945,34240
7946,33984
7947,33856
7948,34112
7949,34240
7950,34112
7951,33984
7952,34112
7953,34112
7954,33856
7955,33792
7956,33984
7957,34176
7958,34048
7959,33920
7960,34112
7961,34432
7962,34368
7963,34176
7964,34304
7965,34624
7966,34560
7967,34304
7968,34240
7969,34368
7970,34240
7971,34048
7972,33984
7973,34304
7974,34432
7975,34176
7976,33920
7977,33984
7978,33984
7979,33664
7980,33472
7981,33664
7982,33856
7983,33728
7984,33600
7985,33728
7986,34048
7987,33984
7988,33792
7989,33856
7990,34112
7991,34048
7992,33856
7993,33856
7994,34176
7995,34304
7996,34240
7997,34432
7998,35136
7999,35840
8000,36416
8001,36928
8002,37184
8003,36608
8004,35264
8005,33664
8006,32640
8007,32064
8008,31616
8009,31424
8010,31744
8011,32384
8012,32832
8013,33152
8014,33664
8015,34304
8016,34496
8017,34496
8018,34496
8019,34752
8020,34688
8021,34432
8022,34240
8023,34432
8024,34432
8025,34112
8026,33920
8027,34112
8028,34240
8029,33984
8030,33792
8031,33984
8032,34240
8033,34176
8034,34048
8035,34112
8036,34368
8037,34240
8038,34048
8039,34176
8040,34432
8041,34368
8042,34048
8043,34048
8044,34368
8045,34496
8046,34240
8047,34112
8048,34304
8049,34368
8050,34176
8051,34176
8052,34496
8053,34752
8054,34624
8055,34496
8056,34624
8057,34880
8058,34752
8059,34560
8060,34624
8061,34816
8062,34688
8063,34432
8064,34432
8065,34688
8066,34688
8067,34496
8068,34368
8069,34560
8070,34496
8071,34176
8072,34048
8073,34240
8074,34368
8075,34240
8076,34048
8077,34240
8078,34432
8079,34240
8080,34048
8081,34176
8082,34368
8083,34240
8084,34048
8085,34176
8086,34432
8087,34368
8088,34112
8089,34112
8090,34304
8091,34240
8092,33984
8093,33984
8094,34240
8095,34368
8096,34176
8097,34048
8098,34304
8099,34368
8100,34176
8101,33984
8102,34176
8103,34432
8104,34304
8105,34176
8106,34304
8107,34560
8108,34432
8109,34176
8110,34240
8111,34432
8112,34368
8113,34112
8114,34048
8115,34304
8116,34368
8117,34112
8118,34048
8119,34304
8120,34368
8121,34176
8122,34112
8123,34304
8124,34432
8125,34240
8126,34048
8127,34240
8128,34432
8129,34240
8130,34048
8131,34112
8132,34304
8133,34176
8134,33984
8135,34112
8136,34432
8137,34432
8138,34304
8139,34304
8140,34624
8141,34688
8142,34432
8143,34304
8144,34560
8145,34624
8146,34432
8147,34304
8148,34560
8149,34752
8150,34560
8151,34368
8152,34496
8153,34560
8154,34304
8155,33984
8156,33984
8157,34112
8158,33984
8159,33728
8160,33728
8161,33984
8162,33984
8163,33792
8164,33792
8165,34112
8166,34240
8167,34048
8168,33920
8169,34176
8170,34240
8171,33984
8172,33920
8173,34240
8174,34624
8175,34816
8176,35136
8177,35968
8178,36864
8179,37248
8180,36928
8181,36224
8182,35200
8183,33728
8184,32384
8185,31808
8186,31808
8187,31808
8188,31872
8189,32256
8190,33024
8191,33600
8192,33856
8193,34112
8194,34560
8195,34816
8196,34688
8197,34560
8198,34624
8199,34688
8200,34368
8201,34112
8202,34176
8203,34304
8204,34112
8205,33920
8206,33984
8207,34240
8208,34176
8209,33984
8210,33984
8211,34240
8212,34176
8213,33984
8214,33920
8215,34176
8216,34240
8217,34048
8218,33984
8219,34176
8220,34368
8221,34240
8222,34112
8223,34368
8224,34560
8225,34368
8226,34176
8227,34368
8228,34624
8229,34496
8230,34304
8231,34432
8232,34688
8233,34688
8234,34496
8235,34432
8236,34688
8237,34688
8238,34496
8239,34432
8240,34688
8241,34752
8242,34560
8243,34432
8244,34624
8245,34688
8246,34432
8247,34176
8248,34240
8249,34368
8250,34176
8251,33984
8252,34112
8253,34368
8254,34176
8255,33920
8256,33856
8257,34048
8258,34048
8259,33856
8260,33856
8261,34176
8262,34240
8263,34048
8264,33984
8265,34176
8266,34240
8267,34048
8268,33984
8269,34176
8270,34304
8271,34112
8272,33920
8273,33984
8274,34176
8275,34048
8276,33856
8277,33984
8278,34304
8279,34240
8280,34048
8281,34112
8282,34304
8283,34240
8284,34048
8285,34048
8286,34304
8287,34304
8288,34112
8289,33984
8290,34240
8291,34432
8292,34240
8293,34048
8294,34240
8295,34368
8296,34176
8297,33984
8298,34112
8299,34368
8300,34240
8301,33984
8302,34048
8303,34304
8304,34176
8305,33920
8306,33920
8307,34176
8308,34112
8309,33920
8310,33856
8311,34176
8312,34176
8313,34048
8314,33984
8315,34304
8316,34496
8317,34368
8318,34304
8319,34432
8320,34560
8321,34432
8322,34240
8323,34368
8324,34624
8325,34496
8326,34304
8327,34368
8328,34496
8329,34368
8330,34048
8331,33920
8332,34112
8333,33984
8334,33728
8335,33664
8336,33920
8337,34048
8338,33856
8339,33792
8340,34112
8341,34240
8342,34048
8343,33920
8344,34112
8345,34304
8346,34112
8347,33920
8348,34048
8349,34432
8350,34496
8351,34624
8352,35200
8353,36160
8354,36864
8355,37120
8356,36992
8357,36416
8358,35200
8359,33536
8360,32256
8361,31808
8362,31616
8363,31488
8364,31744
8365,32448
8366,33152
8367,33536
8368,33856
8369,34368
8370,34752
8371,34752
8372,34560
8373,34624
8374,34816
8375,34560
8376,34240
8377,34176
8378,34304
8379,34240
8380,33984
8381,33920
8382,34176
8383,34112
8384,33920
8385,33792
8386,34048
8387,34176
8388,33984
8389,33920
8390,34176
8391,34368
8392,34240
8393,34048
8394,34240
8395,34496
8396,34368
8397,34176
8398,34240
8399,34432
8400,34304
8401,34112
8402,34176
8403,34432
8404,34496
8405,34304
8406,34368
8407,34688
8408,34752
8409,34560
8410,34432
8411,34688
8412,34752
8413,34560
8414,34432
8415,34688
8416,34816
8417,34624
8418,34432
8419,34560
8420,34752
8421,34624
8422,34368
8423,34368
8424,34560
8425,34368
8426,34112
8427,34048
8428,34176
8429,34112
8430,33792
8431,33728
8432,34048
8433,34112
8434,33984
8435,33920
8436,34176
8437,34304
8438,34112
8439,33920
8440,34048
8441,34240
8442,34048
8443,33920
8444,34112
8445,34368
8446,34240
8447,33984
8448,34048
8449,34304
8450,34176
8451,33920
8452,33920
8453,34176
8454,34176
8455,33984
8456,33920
8457,34240
8458,34304
8459,34048
8460,33984
8461,34176
8462,34304
8463,34176
8464,33984
8465,34112
8466,34304
8467,34176
8468,33984
8469,34112
8470,34368
8471,34304
8472,34048
8473,34112
8474,34368
8475,34304
8476,34048
8477,34048
8478,34304
8479,34304
8480,34048
8481,33984
8482,34176
8483,34304
8484,34176
8485,34112
8486,34432
8487,34560
8488,34368
8489,34240
8490,34368
8491,34560
8492,34496
8493,34368
8494,34496
8495,34752
8496,34624
8497,34432
8498,34368
8499,34496
8500,34304
8501,33984
8502,33856
8503,34048
8504,33984
8505,33728
8506,33664
8507,33984
8508,34048
8509,33920
8510,33856
8511,34048
8512,34240
8513,34112
8514,33984
8515,34112
8516,34304
8517,34112
8518,33984
8519,34240
8520,34688
8521,34944
8522,35264
8523,35968
8524,36928
8525,37376
8526,36928
8527,36032
8528,35008
8529,33600
8530,32448
8531,31744
8532,31744
8533,31872
8534,32000
8535,32256
8536,32896
8537,33728
8538,33920
8539,34112
8540,34496
8541,34880
8542,34752
8543,34496
8544,34560
8545,34688
8546,34496
8547,34240
8548,34112
8549,34240
8550,34176
8551,33920
8552,33920
8553,34112
8554,34176
8555,33984
8556,33984
8557,34240
8558,34304
8559,34112
8560,33920
8561,34112
8562,34304
8563,34176
8564,34048
8565,34240
8566,34496
8567,34304
8568,34112
8569,34176
8570,34432
8571,34368
8572,34176
8573,34176
8574,34560
8575,34624
8576,34496
8577,34432
8578,34688
8579,34752
8580,34560
8581,34432
8582,34688
8583,34816
8584,34688
8585,34560
8586,34752
8587,34880
8588,34688
8589,34432
8590,34496
8591,34688
8592,34496
8593,34240
8594,34176
8595,34432
8596,34304
8597,33984
8598,33984
8599,34176
8600,34176
8601,33984
8602,33984
8603,34176
8604,34240
8605,34048
8606,33856
8607,34048
8608,34240
8609,34048
8610,33920
8611,34112
8612,34368
8613,34176
8614,33984
8615,34048
8616,34304
8617,34112
8618,33920
8619,33920
8620,34240
8621,34176
8622,33984
8623,33984
8624,34240
8625,34304
8626,34048
8627,34048
8628,34240
8629,34368
8630,34112
8631,33984
8632,34176
8633,34304
8634,34112
8635,33984
8636,34176
8637,34432
8638,34240
8639,34048
8640,34176
8641,34368
8642,34176
8643,34048
8644,34048
8645,34304
8646,34240
8647,33984
8648,33920
8649,34240
8650,34240
8651,33984
8652,33920
8653,34112
8654,34176
8655,33984
8656,33856
8657,34112
8658,34240
8659,34112
8660,33920
8661,34112
8662,34368
8663,34304
8664,34176
8665,34304
8666,34624
8667,34496
8668,34304
8669,34304
8670,34560
8671,34624
8672,34432
8673,34368
8674,34624
8675,34624
8676,34304
8677,34112
8678,34240
8679,34240
8680,33856
8681,33600
8682,33728
8683,33920
8684,33728
8685,33600
8686,33728
8687,34048
8688,33984
8689,33792
8690,33920
8691,34176
8692,34112
8693,33856
8694,33856
8695,34176
8696,34176
8697,34048
8698,34112
8699,34688
8700,35200
8701,35584
8702,36480
8703,37056
8704,37376
8705,36800
8706,35648
8707,34368
8708,33024
8709,31744
8710,31104
8711,31168
8712,31680
8713,32064
8714,32448
8715,33152
8716,33984
8717,34368
8718,34432
8719,34560
8720,34880
8721,34816
8722,34496
8723,34304
8724,34496
8725,34432
8726,34112
8727,33856
8728,34048
8729,34112
8730,33920
8731,33728
8732,33984
8733,34176
8734,34048
8735,33792
8736,33920
8737,34240
8738,34176
8739,33920
8740,33920
8741,34304
8742,34368
8743,34112
8744,34048
8745,34304
8746,34368
8747,34112
8748,33984
8749,34304
8750,34560
8751,34304
8752,34112
8753,34368
8754,34624
8755,34496
8756,34240
8757,34432
8758,34816
8759,34688
8760,34496
8761,34560
8762,34944
8763,34816
8764,34560
8765,34496
8766,34816
8767,34816
8768,34560
8769,34368
8770,34624
8771,34688
8772,34368
8773,34112
8774,34304
8775,34368
8776,34048
8777,33664
8778,33856
8779,34048
8780,33920
8781,33664
8782,33856
8783,34176
8784,34112
8785,33920
8786,33920
8787,34304
8788,34304
8789,33984
8790,33920
8791,34240
8792,34304
8793,33984
8794,33856
8795,34176
8796,34304
8797,34048
8798,33792
8799,34048
8800,34304
8801,34112
8802,33920
8803,34112
8804,34368
8805,34240
8806,33984
8807,34176
8808,34368
8809,34304
8810,33984
8811,33984
8812,34368
8813,34304
8814,33984
8815,33984
8816,34304
8817,34368
8818,34112
8819,33984
8820,34304
8821,34432
8822,34176
8823,33920
8824,34176
8825,34432
8826,34240
8827,33984
8828,34112
8829,34368
8830,34176
8831,33920
8832,34048
8833,34368
8834,34304
8835,33984
8836,33984
8837,34432
8838,34368
8839,34112
8840,34112
8841,34496
8842,34688
8843,34432
8844,34304
8845,34560
8846,34752
8847,34496
8848,34304
8849,34560
8850,34816
8851,34560
8852,34304
8853,34368
8854,34560
8855,34368
8856,33920
8857,33856
8858,34112
8859,33920
8860,33600
8861,33664
8862,34048
8863,34112
8864,33856
8865,33792
8866,34176
8867,34240
8868,33984
8869,33856
8870,34176
8871,34368
8872,34112
8873,33856
8874,34112
8875,34496
8876,34560
8877,34688
8878,35392
8879,36416
8880,37056
8881,37184
8882,36864
8883,36288
8884,34880
8885,33280
8886,32192
8887,31936
8888,31808
8889,31616
8890,31808
8891,32576
8892,33216
8893,33408
8894,33664
8895,34368
8896,34816
8897,34688
8898,34496
8899,34688
8900,34816
8901,34496
8902,34112
8903,34112
8904,34368
8905,34176
8906,33856
8907,33920
8908,34304
8909,34240
8910,33984
8911,33984
8912,34432
8913,34368
8914,34048
8915,33920
8916,34240
8917,34368
8918,34112
8919,33984
8920,34240
8921,34496
8922,34304
8923,34048
8924,34304
8925,34560
8926,34432
8927,34112
8928,34240
8929,34624
8930,34560
8931,34304
8932,34304
8933,34688
8934,34688
8935,34496
8936,34432
8937,34816
8938,34880
8939,34560
8940,34368
8941,34688
8942,34816
8943,34624
8944,34368
8945,34624
8946,34816
8947,34560
8948,34304
8949,34368
8950,34624
8951,34368
8952,34048
8953,34048
8954,34304
8955,34176
8956,33856
8957,33856
8958,34176
8959,34240
8960,33920
8961,33856
8962,34176
8963,34304
8964,34048
8965,33920
8966,34240
8967,34368
8968,34112
8969,33856
8970,34112
8971,34368
8972,34112
8973,33920
8974,34112
8975,34368
8976,34240
8977,33856
8978,33920
8979,34240
8980,34240
8981,33920
8982,33920
8983,34240
8984,34304
8985,33984
8986,33920
8987,34432
8988,34368
8989,34112
8990,33984
8991,34240
8992,34432
8993,34240
8994,33984
8995,34240
8996,34496
8997,34304
8998,34048
8999,34112
9000,34432
9001,34304
9002,33984
9003,33984
9004,34368
9005,34304
9006,33984
9007,33984
9008,34368
9009,34432
9010,34240
9011,34112
9012,34496
9013,34624
9014,34368
9015,34176
9016,34496
9017,34752
9018,34560
9019,34368
9020,34560
9021,34752
9022,34496
9023,34112
9024,34112
9025,34304
9026,34112
9027,33728
9028,33664
9029,33984
9030,33920
9031,33664
9032,33792
9033,34048
9034,34176
9035,33984
9036,33856
9037,34176
9038,34304
9039,34048
9040,33856
9041,34112
9042,34368
9043,34240
9044,34176
9045,34688
9046,35456
9047,35904
9048,36416
9049,36992
9050,37376
9051,36672
9052,35200
9053,33792
9054,32832
9055,31936
9056,31488
9057,31360
9058,31936
9059,32448
9060,32768
9061,33152
9062,34304
9063,34432
9064,34496
9065,34432
9066,34752
9067,34944
9068,34624
9069,34304
9070,34368
9071,34496
9072,34304
9073,33984
9074,33984
9075,34304
9076,34176
9077,33856
9078,33856
9079,34240
9080,34240
9081,33984
9082,33920
9083,34304
9084,34432
9085,34112
9086,33984
9087,34240
9088,34432
9089,34240
9090,34048
9091,34304
9092,34624
9093,34432
9094,34240
9095,34304
9096,34688
9097,34560
9098,34304
9099,34368
9100,34752
9101,34688
9102,34432
9103,34432
9104,34816
9105,34816
9106,34560
9107,34496
9108,34816
9109,34880
9110,34624
9111,34496
9112,34816
9113,35008
9114,34688
9115,34368
9116,34496
9117,34688
9118,34368
9119,34048
9120,34112
9121,34368
9122,34240
9123,33920
9124,33920
9125,34240
9126,34176
9127,33920
9128,33920
9129,34304
9130,34368
9131,34112
9132,33984
9133,34304
9134,34432
9135,34176
9136,33984
9137,34240
9138,34432
9139,34176
9140,33920
9141,34048
9142,34368
9143,34176
9144,33920
9145,33984
9146,34368
9147,34304
9148,34048
9149,34048
9150,34432
9151,34368
9152,34048
9153,34048
9154,34368
9155,34432
9156,34112
9157,33984
9158,34304
9159,34496
9160,34240
9161,33984
9162,34240
9163,34432
9164,34240
9165,34048
9166,34176
9167,34432
9168,34304
9169,33984
9170,34048
9171,34432
9172,34304
9173,33984
9174,33984
9175,34304
9176,34304
9177,34048
9178,33920
9179,34304
9180,34368
9181,34048
9182,34368
9183,34560
9184,34368
9185,34240
9186,34496
9187,34752
9188,34560
9189,34304
9190,34240
9191,34752
9192,34560
9193,34304
9194,34368
9195,34624
9196,34496
9197,34112
9198,34048
9199,34240
9200,34112
9201,33792
9202,33664
9203,33920
9204,33984
9205,33792
9206,33664
9207,33984
9208,34176
9209,33984
9210,33792
9211,34048
9212,34304
9213,34112
9214,33856
9215,33792
9216,34304
9217,34176
9218,34048
9219,34368
9220,35072
9221,35520
9222,35968
9223,36672
9224,37440
9225,37376
9226,36288
9227,34816
9228,34560
9229,32512
9230,31552
9231,31168
9232,31552
9233,32128
9234,32448
9235,32448
9236,33536
9237,34240
9238,34432
9239,34368
9240,34624
9241,34944
9242,34816
9243,34432
9244,34368
9245,34560
9246,34368
9247,33984
9248,33856
9249,34176
9250,34176
9251,33920
9252,33792
9253,34112
9254,34240
9255,33984
9256,33856
9257,34112
9258,34368
9259,34176
9260,33920
9261,34112
9262,34432
9263,34304
9264,34048
9265,33984
9266,34496
9267,34368
9268,34048
9269,34112
9270,34432
9271,34432
9272,34176
9273,34176
9274,34624
9275,34624
9276,34432
9277,34304
9278,34688
9279,34880
9280,34816
9281,34368
9282,34624
9283,34816
9284,34624
9285,34368
9286,34560
9287,34880
9288,34688
9289,34432
9290,34496
9291,34752
9292,34560
9293,34176
9294,34112
9295,34048
9296,34240
9297,33856
9298,33792
9299,34112
9300,34176
9301,33920
9302,33792
9303,34048
9304,34240
9305,33920
9306,33728
9307,33984
9308,34240
9309,34048
9310,33856
9311,34048
9312,34368
9313,34240
9314,33984
9315,34048
9316,34368
9317,34240
9318,33920
9319,33856
9320,34240
9321,34176
9322,33920
9323,33920
9324,34240
9325,34304
9326,34048
9327,33856
9328,34112
9329,34304
9330,34048
9331,33856
9332,34048
9333,34304
9334,34112
9335,33920
9336,34112
9337,34368
9338,34176
9339,33856
9340,33920
9341,34304
9342,34240
9343,33984
9344,33984
9345,34304
9346,34304
9347,33984
9348,33920
9349,34240
9350,34432
9351,34176
9352,34048
9353,34368
9354,34560
9355,34368
9356,34112
9357,34368
9358,34624
9359,34496
9360,34240
9361,34304
9362,34624
9363,34432
9364,34112
9365,34048
9366,34304
9367,34112
9368,33728
9369,33536
9370,33856
9371,33920
9372,33664
9373,33600
9374,33920
9375,34048
9376,33856
9377,33728
9378,34048
9379,34240
9380,34048
9381,33856
9382,34048
9383,34304
9384,34112
9385,33920
9386,34176
9387,34752
9388,35072
9389,35456
9390,36224
9391,37120
9392,37120
9393,36288
9394,35136
9395,34176
9396,33152
9397,32128
9398,31680
9399,31936
9400,32192
9401,32256
9402,32512
9403,33280
9404,33920
9405,34048
9406,34112
9407,34496
9408,34880
9409,34688
9410,34432
9411,34432
9412,34688
9413,34496
9414,34176
9415,34112
9416,34368
9417,34304
9418,33984
9419,33856
9420,34176
9421,34240
9422,34048
9423,33984
9424,34240
9425,34432
9426,34176
9427,33984
9428,34240
9429,34432
9430,34240
9431,34048
9432,34240
9433,34560
9434,34432
9435,34112
9436,34176
9437,34560
9438,34432
9439,34176
9440,34240
9441,34624
9442,34688
9443,34432
9444,34368
9445,34752
9446,34816
9447,34560
9448,34432
9449,34688
9450,34816
9451,34624
9452,34368
9453,34624
9454,34880
9455,34688
9456,34368
9457,34432
9458,34688
9459,34496
9460,34112
9461,34112
9462,34368
9463,34304
9464,33984
9465,33920
9466,34240
9467,34240
9468,33920
9469,33792
9470,34176
9471,34304
9472,34048
9473,33856
9474,34112
9475,34304
9476,34112
9477,33920
9478,34112
9479,34368
9480,34176
9481,33920
9482,34048
9483,34368
9484,34240
9485,33984
9486,34048
9487,34368
9488,34240
9489,33984
9490,33920
9491,34304
9492,34304
9493,34112
9494,33984
9495,34368
9496,34432
9497,34176
9498,33984
9499,34176
9500,34368
9501,34112
9502,33920
9503,34176
9504,34432
9505,34304
9506,34048
9507,34176
9508,34496
9509,34368
9510,34048
9511,34112
9512,34432
9513,34304
9514,34048
9515,33984
9516,34304
9517,34304
9518,34048
9519,33984
9520,34304
9521,34496
9522,34304
9523,34176
9524,34496
9525,34752
9526,34560
9527,34368
9528,34560
9529,34816
9530,34688
9531,34432
9532,34496
9533,34752
9534,34560
9535,34240
9536,34176
9537,34368
9538,34176
9539,33792
9540,33664
9541,33920
9542,33920
9543,33664
9544,33600
9545,33920
9546,34112
9547,33920
9548,33792
9549,34112
9550,34304
9551,34112
9552,33920
9553,34112
9554,34368
9555,34176
9556,33920
9557,34112
9558,34624
9559,34880
9560,35136
9561,35840
9562,36864
9563,37440
9564,37184
9565,36416
9566,35392
9567,33856
9568,32256
9569,31360
9570,31296
9571,31488
9572,31680
9573,32128
9574,32960
9575,33792
9576,34112
9577,34304
9578,34624
9579,34944
9580,34752
9581,34496
9582,34432
9583,34624
9584,34368
9585,34048
9586,33984
9587,34240
9588,34176
9589,33856
9590,33792
9591,34112
9592,34176
9593,33984
9594,33856
9595,34176
9596,34304
9597,34048
9598,33856
9599,34112
9600,34368
9601,34176
9602,33984
9603,34176
9604,34432
9605,34304
9606,34112
9607,34176
9608,34496
9609,34432
9610,34176
9611,34240
9612,34560
9613,34560
9614,34368
9615,34304
9616,34624
9617,34688
9618,34432
9619,34304
9620,34624
9621,34880
9622,34624
9623,34432
9624,34624
9625,34816
9626,34624
9627,34368
9628,34432
9629,34688
9630,34496
9631,34176
9632,34176
9633,34432
9634,34304
9635,34048
9636,33920
9637,34240
9638,34240
9639,33920
9640,33856
9641,34112
9642,34240
9643,34048
9644,33856
9645,34112
9646,34304
9647,34112
9648,33920
9649,34112
9650,34368
9651,34176
9652,33920
9653,34048
9654,34304
9655,34240
9656,33920
9657,33984
9658,34368
9659,34240
9660,33920
9661,33856
9662,34240
9663,34240
9664,34048
9665,33920
9666,34240
9667,34432
9668,34176
9669,33984
9670,34240
9671,34432
9672,34240
9673,34048
9674,34240
9675,34496
9676,34304
9677,34048
9678,34112
9679,34432
9680,34304
9681,34048
9682,34112
9683,34432
9684,34368
9685,34112
9686,33984
9687,34240
9688,34304
9689,34048
9690,33920
9691,34240
9692,34432
9693,34176
9694,33984
9695,34240
9696,34496
9697,34368
9698,34240
9699,34560
9700,34816
9701,34688
9702,34432
9703,34560
9704,34880
9705,34752
9706,34496
9707,34432
9708,34688
9709,34624
9710,34304
9711,34176
9712,34432
9713,34304
9714,33856
9715,33600
9716,33792
9717,33920
9718,33664
9719,33536
9720,33856
9721,34176
9722,34048
9723,33856
9724,34048
9725,34368
9726,34240
9727,33984
9728,34048
9729,34368
9730,34240
9731,33984
9732,34112
9733,34624
9734,34944
9735,35072
9736,35584
9737,36608
9738,37376
9739,37312
9740,36608
9741,35648
9742,34240
9743,32576
9744,31488
9745,31232
9746,31488
9747,31744
9748,32064
9749,32832
9750,33792
9751,34240
9752,34368
9753,34688
9754,35136
9755,35072
9756,34688
9757,34496
9758,34688
9759,34560
9760,34112
9761,33856
9762,34176
9763,34240
9764,33984
9765,33792
9766,34048
9767,34304
9768,34112
9769,33920
9770,34112
9771,34432
9772,34240
9773,33984
9774,34112
9775,34496
9776,34368
9777,34112
9778,34112
9779,34496
9780,34432
9781,34176
9782,34112
9783,34496
9784,34496
9785,34304
9786,34176
9787,34496
9788,34624
9789,34432
9790,34304
9791,34560
9792,34816
9793,34624
9794,34432
9795,34624
9796,34880
9797,34752
9798,34496
9799,34624
9800,34944
9801,34816
9802,34496
9803,34432
9804,34752
9805,34624
9806,34304
9807,34176
9808,34432
9809,34432
9810,34112
9811,33920
9812,34176
9813,34240
9814,33984
9815,33792
9816,34048
9817,34240
9818,34048
9819,33856
9820,34048
9821,34368
9822,34240
9823,33984
9824,34112
9825,34432
9826,34304
9827,34048
9828,33984
9829,34304
9830,34304
9831,34048
9832,33920
9833,34240
9834,34304
9835,34048
9836,33920
9837,34240
9838,34368
9839,34112
9840,33920
9841,34176
9842,34432
9843,34176
9844,33920
9845,34112
9846,34368
9847,34240
9848,33984
9849,34112
9850,34432
9851,34368
9852,34048
9853,34048
9854,34432
9855,34432
9856,34112
9857,34048
9858,34368
9859,34432
9860,34176
9861,34048
9862,34304
9863,34432
9864,34048
9865,33792
9866,33984
9867,34240
9868,34112
9869,33856
9870,34048
9871,34368
9872,34304
9873,33984
9874,34048
9875,34368
9876,34304
9877,33984
9878,33920
9879,34304
9880,34368
9881,34176
9882,34176
9883,34560
9884,34752
9885,34496
9886,34304
9887,34624
9888,34752
9889,34496
9890,34240
9891,34368
9892,34624
9893,34368
9894,34048
9895,34112
9896,34304
9897,34112
9898,33728
9899,33728
9900,34048
9901,33984
9902,33792
9903,33792
9904,34176
9905,34176
9906,33920
9907,33792
9908,34176
9909,34304
9910,34048
9911,33856
9912,34112
9913,34304
9914,34112
9915,33920
9916,34240
9917,34688
9918,34880
9919,35136
9920,35904
9921,36928
9922,37376
9923,36992
9924,36224
9925,35328
9926,33792
9927,32256
9928,31488
9929,31488
9930,31616
9931,31744
9932,32192
9933,33088
9934,33856
9935,34112
9936,34304
9937,34752
9938,35008
9939,34816
9940,34496
9941,34560
9942,34688
9943,34432
9944,34112
9945,34112
9946,34304
9947,34176
9948,33920
9949,33920
9950,34240
9951,34240
9952,33984
9953,33984
9954,34304
9955,34304
9956,34048
9957,33984
9958,34304
9959,34432
9960,34176
9961,33984
9962,34240
9963,34432
9964,34240
9965,34048
9966,34304
9967,34560
9968,34432
9969,34240
9970,34368
9971,34624
9972,34560
9973,34368
9974,34432
9975,34752
9976,34688
9977,34496
9978,34496
9979,34752
9980,34816
9981,34560
9982,34496
9983,34752
9984,34816
9985,34624
9986,34496
9987,34624
9988,34688
9989,34432
9990,34240
9991,34368
9992,34496
9993,34304
9994,33984
9995,34048
9996,34240
9997,34112
9998,33920
9999,33920
10000,34240
10001,34176
10002,33984
10003,33984
10004,34240
10005,34240
10006,34048
10007,33920
10008,34176
10009,34304
10010,34112
10011,33984
10012,34176
10013,34304
10014,34048
10015,33856
10016,33984
10017,34240
10018,34112
10019,33920
10020,34048
10021,34304
10022,34176
10023,34048
10024,34112
10025,34368
10026,34368
10027,34112
10028,34048
10029,34304
10030,34304
10031,34112
10032,33984
10033,34240
10034,34368
10035,34176
10036,34048
10037,34240
10038,34432
10039,34240
10040,34048
10041,34112
10042,34304
10043,34112
10044,33920
10045,33984
10046,34240
10047,34240
10048,33984
10049,33984
10050,34176
10051,34112
10052,33984
10053,33984
10054,34240
10055,34240
10056,33984
10057,33856
10058,34112
10059,34240
10060,34048
10061,33984
10062,34176
10063,34432
10064,34304
10065,34240
10066,34432
10067,34688
10068,34496
10069,34304
10070,34368
10071,34560
10072,34432
10073,34240
10074,34176
10075,34432
10076,34368
10077,34112
10078,33984
10079,34176
10080,34176
10081,33920
10082,33792
10083,33984
10084,34048
10085,33856
10086,33728
10087,33984
10088,34240
10089,34112
10090,33920
10091,34048
10092,34240
10093,34112
10094,33920
10095,33984
10096,34240
10097,34176
10098,34176
10099,34432
10100,35008
10101,35520
10102,35968
10103,36672
10104,37376
10105,37248
10106,36160
10107,34688
10108,33472
10109,32512
10110,31808
10111,31488
10112,31744
10113,32256
10114,32576
10115,32960
10116,33600
10117,34240
10118,34496
10119,34496
10120,34624
10121,34880
10122,34688
10123,34432
10124,34304
10125,34496
10126,34432
10127,34112
10128,33984
10129,34176
10130,34240
10131,33984
10132,33920
10133,34112
10134,34304
10135,34112
10136,33984
10137,34112
10138,34368
10139,34176
10140,34048
10141,34112
10142,34368
10143,34304
10144,34112
10145,34176
10146,34432
10147,34432
10148,34240
10149,34176
10150,34368
10151,34432
10152,34240
10153,34176
10154,34432
10155,34560
10156,34368
10157,34240
10158,34496
10159,34688
10160,34560
10161,34368
10162,34496
10163,34688
10164,34560
10165,34368
10166,34432
10167,34688
10168,34560
10169,34368
10170,34432
10171,34688
10172,34496
10173,34240
10174,34112
10175,34240
10176,34240
10177,34048
10178,33856
10179,34048
10180,34112
10181,33856
10182,33728
10183,33984
10184,34176
10185,33984
10186,33792
10187,33984
10188,34240
10189,34112
10190,33920
10191,33984
10192,34240
10193,34176
10194,33984
10195,33984
10196,34176
10197,34176
10198,33920
10199,33920
10200,34176
10201,34240
10202,34048
10203,33920
10204,34112
10205,34176
10206,34048
10207,33984
10208,34176
10209,34304
10210,34176
10211,33984
10212,34112
10213,34304
10214,34176
10215,33984
10216,34048
10217,34304
10218,34240
10219,34048
10220,34048
10221,34304
10222,34240
10223,34048
10224,34048
10225,34240
10226,34240
10227,34048
10228,33984
10229,34176
10230,34304
10231,34048
10232,33920
10233,34176
10234,34432
10235,34368
10236,34304
10237,34432
10238,34624
10239,34432
10240,34112
10241,34176
10242,34432
10243,34368
10244,34176
10245,34240
10246,34496
10247,34368
10248,34112
10249,33984
10250,34176
10251,34112
10252,33856
10253,33728
10254,33920
10255,34048
10256,33920
10257,33856
10258,34112
10259,34304
10260,34176
10261,33984
10262,34112
10263,34368
10264,34240
10265,34048
10266,34048
10267,34240
10268,34240
10269,34176
10270,34368
10271,35008
10272,35584
10273,36096
10274,36736
10275,37184
10276,36800
10277,35520
10278,34304
10279,33408
10280,32768
10281,32192
10282,31936
10283,32128
10284,32576
10285,32768
10286,33088
10287,33600
10288,34240
10289,34432
10290,34432
10291,34560
10292,34816
10293,34752
10294,34496
10295,34432
10296,34624
10297,34496
10298,34240
10299,34112
10300,34304
10301,34368
10302,34112
10303,33984
10304,34176
10305,34304
10306,34176
10307,34048
10308,34176
10309,34432
10310,34240
10311,34048
10312,34176
10313,34432
10314,34304
10315,34176
10316,34240
10317,34496
10318,34496
10319,34304
10320,34304
10321,34496
10322,34496
10323,34304
10324,34240
10325,34496
10326,34624
10327,34432
10328,34304
10329,34496
10330,34752
10331,34560
10332,34432
10333,34560
10334,34816
10335,34688
10336,34496
10337,34624
10338,34752
10339,34688
10340,34432
10341,34432
10342,34560
10343,34496
10344,34176
10345,34112
10346,34304
10347,34304
10348,34112
10349,33984
10350,34176
10351,34240
10352,33984
10353,33856
10354,34048
10355,34240
10356,34112
10357,33984
10358,34112
10359,34368
10360,34240
10361,34048
10362,34112
10363,34368
10364,34304
10365,34048
10366,34048
10367,34368
10368,34368
10369,34112
10370,34048
10371,34304
10372,34304
10373,34176
10374,34112
10375,34368
10376,34496
10377,34304
10378,34112
10379,34240
10380,34368
10381,34240
10382,34112
10383,34176
10384,34368
10385,34240
10386,34112
10387,34176
10388,34432
10389,34368
10390,34176
10391,34176
10392,34432
10393,34368
10394,34112
10395,34048
10396,34304
10397,34368
10398,34112
10399,33984
10400,34176
10401,34304
10402,34112
10403,33984
10404,34176
10405,34368
10406,34240
10407,34048
10408,34112
10409,34432
10410,34432
10411,34368
10412,34496
10413,34688
10414,34624
10415,34432
10416,34432
10417,34688
10418,34752
10419,34496
10420,34432
10421,34624
10422,34560
10423,34304
10424,34048
10425,34048
10426,34112
10427,33856
10428,33664
10429,33792
10430,33984
10431,33856
10432,33664
10433,33792
10434,34048
10435,33984
10436,33856
10437,33920
10438,34240
10439,34240
10440,33984
10441,33984
10442,34240
10443,34304
10444,34304
10445,34496
10446,35136
10447,35840
10448,36416
10449,36928
10450,37184
10451,36800
10452,35584
10453,34048
10454,32896
10455,32192
10456,31680
10457,31488
10458,31744
10459,32384
10460,32832
10461,33216
10462,33664
10463,34304
10464,34560
10465,34560
10466,34560
10467,34816
10468,34752
10469,34432
10470,34240
10471,34368
10472,34368
10473,34112
10474,33920
10475,34048
10476,34176
10477,33984
10478,33792
10479,33920
10480,34176
10481,34048
10482,33920
10483,34048
10484,34304
10485,34304
10486,34112
10487,34176
10488,34368
10489,34304
10490,34112
10491,34112
10492,34368
10493,34432
10494,34240
10495,34112
10496,34368
10497,34432
10498,34240
10499,34112
10500,34368
10501,34560
10502,34432
10503,34240
10504,34432
10505,34624
10506,34560
10507,34368
10508,34432
10509,34752
10510,34752
10511,34496
10512,34432
10513,34624
10514,34560
10515,34304
10516,34240
10517,34432
10518,34432
10519,34176
10520,34048
10521,34176
10522,34240
10523,34048
10524,33920
10525,34048
10526,34176
10527,34048
10528,33920
10529,34048
10530,34304
10531,34176
10532,33984
10533,34048
10534,34240
10535,34176
10536,33984
10537,33920
10538,34176
10539,34176
10540,33920
10541,33920
10542,34112
10543,34240
10544,34048
10545,33984
10546,34176
10547,34304
10548,34112
10549,33920
10550,34048
10551,34240
10552,34112
10553,33984
10554,34176
10555,34368
10556,34240
10557,34048
10558,34048
10559,34368
10560,34304
10561,34112
10562,34176
10563,34368
10564,34368
10565,34176
10566,34048
10567,34240
10568,34304
10569,34112
10570,34048
10571,34240
10572,34432
10573,34304
10574,34176
10575,34368
10576,34560
10577,34432
10578,34240
10579,34368
10580,34624
10581,34560
10582,34432
10583,34496
10584,34752
10585,34688
10586,34432
10587,34304
10588,34432
10589,34304
10590,33984
10591,33792
10592,33920
10593,33984
10594,33792
10595,33664
10596,33920
10597,34112
10598,33920
10599,33856
10600,33984
10601,34240
10602,34112
10603,33984
10604,34112
10605,34304
10606,34176
10607,33984
10608,34048
10609,34496
10610,34816
10611,35136
10612,35712
10613,36672
10614,37248
10615,36992
10616,36224
10617,35200
10618,33856
10619,32512
10620,31680
10621,31552
10622,31744
10623,31936
10624,32256
10625,32896
10626,33600
10627,33984
10628,34240
10629,34496
10630,34880
10631,34816
10632,34560
10633,34432
10634,34560
10635,34432
10636,34112
10637,33984
10638,34112
10639,34112
10640,33920
10641,33792
10642,34048
10643,34176
10644,34048
10645,33984
10646,34176
10647,34304
10648,34112
10649,33920
10650,34048
10651,34304
10652,34240
10653,34112
10654,34176
10655,34432
10656,34432
10657,34304
10658,34304
10659,34560
10660,34496
10661,34240
10662,34176
10663,34432
10664,34496
10665,34368
10666,34240
10667,34496
10668,34624
10669,34496
10670,34368
10671,34560
10672,34816
10673,34688
10674,34496
10675,34624
10676,34816
10677,34688
10678,34496
10679,34432
10680,34688
10681,34560
10682,34240
10683,34176
10684,34304
10685,34304
10686,33984
10687,33856
10688,34048
10689,34112
10690,33920
10691,33792
10692,33984
10693,34240
10694,34112
10695,33984
10696,34112
10697,34304
10698,34112
10699,33920
10700,34048
10701,34304
10702,34176
10703,33984
10704,33984
10705,34240
10706,34176
10707,33984
10708,33984
10709,34240
10710,34240
10711,34048
10712,34048
10713,34240
10714,34368
10715,34176
10716,34048
10717,34176
10718,34368
10719,34176
10720,33984
10721,34112
10722,34368
10723,34176
10724,33984
10725,34112
10726,34368
10727,34304
10728,34112
10729,34112
10730,34432
10731,34432
10732,34176
10733,34112
10734,34304
10735,34368
10736,34176
10737,34048
10738,34240
10739,34304
10740,34112
10741,33984
10742,34240
10743,34432
10744,34304
10745,34240
10746,34496
10747,34752
10748,34624
10749,34432
10750,34496
10751,34688
10752,34624
10753,34432
10754,34432
10755,34688
10756,34624
10757,34304
10758,34240
10759,34432
10760,34368
10761,34048
10762,33856
10763,33920
10764,33984
10765,33728
10766,33600
10767,33856
10768,34176
10769,34048
10770,33920
10771,33984
10772,34176
10773,34048
10774,33856
10775,33984
10776,34240
10777,34176
10778,33984
10779,34048
10780,34432
10781,34688
10782,34880
10783,35392
10784,36352
10785,37120
10786,37312
10787,36992
10788,36224
10789,34944
10790,33280
10791,32000
10792,31552
10793,31552
10794,31552
10795,31808
10796,32512
10797,33344
10798,33792
10799,34048
10800,34432
10801,34880
10802,34816
10803,34688
10804,34560
10805,34688
10806,34560
10807,34240
10808,34112
10809,34304
10810,34304
10811,34048
10812,33920
10813,34112
10814,34240
10815,34048
10816,33920
10817,34176
10818,34304
10819,34176
10820,33984
10821,34112
10822,34368
10823,34304
10824,34112
10825,34176
10826,34432
10827,34368
10828,34176
10829,34176
10830,34432
10831,34496
10832,34304
10833,34240
10834,34496
10835,34624
10836,34432
10837,34368
10838,34560
10839,34752
10840,34560
10841,34432
10842,34624
10843,34816
10844,34688
10845,34560
10846,34624
10847,34880
10848,34752
10849,34496
10850,34496
10851,34752
10852,34688
10853,34304
10854,34176
10855,34368
10856,34304
10857,34112
10858,33984
10859,34176
10860,34240
10861,33984
10862,33920
10863,34112
10864,34304
10865,34176
10866,33984
10867,34048
10868,34304
10869,34176
10870,33984
10871,34112
10872,34432
10873,34304
10874,34112
10875,34112
10876,34304
10877,34240
10878,34048
10879,34048
10880,34304
10881,34368
10882,34176
10883,34048
10884,34304
10885,34368
10886,34176
10887,34048
10888,34240
10889,34432
10890,34176
10891,33984
10892,34112
10893,34368
10894,34304
10895,34112
10896,34304
10897,34560
10898,34496
10899,34240
10900,34240
10901,34432
10902,34368
10903,34112
10904,34048
10905,34368
10906,34368
10907,34048
10908,33984
10909,34176
10910,34368
10911,34176
10912,34048
10913,34176
10914,34368
10915,34176
10916,33984
10917,34176
10918,34560
10919,34496
10920,34368
10921,34496
10922,34752
10923,34624
10924,34432
