,ECG
0,92
1,95
2,97
3,97
4,95
5,91
6,87
7,87
8,89
9,92
10,96
11,101
12,105
13,108
14,111
15,114
16,118
17,123
18,128
19,132
20,134
21,132
22,129
23,127
24,126
25,129
26,132
27,137
28,143
29,146
30,148
31,150
32,152
33,155
34,160
35,161
36,163
37,165
38,168
39,171
40,174
41,174
42,177
43,180
44,181
45,183
46,184
47,181
48,178
49,175
50,172
51,171
52,170
53,171
54,175
55,179
56,182
57,181
58,177
59,168
60,163
61,157
62,150
63,143
64,136
65,126
66,118
67,112
68,106
69,98
70,92
71,87
72,81
73,73
74,64
75,58
76,49
77,42
78,39
79,38
80,38
81,41
82,42
83,41
84,38
85,31
86,21
87,12
88,2
89,-3
90,-5
91,-2
92,4
93,19
94,21
95,21
96,19
97,13
98,9
99,7
100,8
101,10
102,10
103,14
104,18
105,20
106,21
107,23
108,26
109,30
110,33
111,31
112,27
113,21
114,18
115,22
116,30
117,30
118,39
119,49
120,60
121,71
122,75
123,76
124,71
125,65
126,64
127,67
128,71
129,88
130,94
131,100
132,102
133,100
134,97
135,94
136,93
137,95
138,97
139,100
140,105
141,106
142,104
143,101
144,97
145,94
146,92
147,92
148,93
149,93
150,91
151,89
152,87
153,85
154,83
155,82
156,81
157,80
158,78
159,76
160,78
161,80
162,83
163,89
164,98
165,114
166,119
167,119
168,116
169,111
170,103
171,95
172,88
173,82
174,81
175,82
176,86
177,93
178,100
179,105
180,112
181,116
182,118
183,118
184,119
185,120
186,123
187,124
188,126
189,129
190,127
191,125
192,126
193,127
194,128
195,132
196,139
197,145
198,146
199,142
200,139
201,134
202,130
203,129
204,127
205,125
206,124
207,125
208,120
209,112
210,103
211,91
212,79
213,65
214,52
215,43
216,36
217,30
218,27
219,27
220,28
221,31
222,34
223,37
224,41
225,41
226,41
227,41
228,39
229,40
230,42
231,41
232,42
233,41
234,37
235,36
236,35
237,35
238,35
239,33
240,31
241,28
242,24
243,23
244,23
245,20
246,14
247,10
248,13
249,28
250,58
251,100
252,154
253,217
254,285
255,356
256,418
257,462
258,488
259,488
260,493
261,479
262,449
263,398
264,324
265,237
266,133
267,16
268,-102
269,-217
270,-381
271,-410
272,-401
273,-362
274,-306
275,-246
276,-188
277,-138
278,-97
279,-64
280,-39
281,-24
282,-13
283,-8
284,-7
285,-11
286,-14
287,-14
288,-10
289,-3
290,6
291,18
292,28
293,33
294,34
295,35
296,31
297,27
298,25
299,29
300,30
301,30
302,29
303,28
304,25
305,21
306,21
307,22
308,26
309,34
310,40
311,41
312,41
313,40
314,37
315,35
316,35
317,36
318,37
319,37
320,39
321,40
322,37
323,33
324,29
325,30
326,33
327,39
328,46
329,53
330,55
331,53
332,50
333,47
334,46
335,46
336,48
337,53
338,58
339,58
340,60
341,62
342,68
343,78
344,88
345,96
346,99
347,98
348,95
349,91
350,90
351,92
352,96
353,102
354,108
355,112
356,117
357,121
358,126
359,135
360,144
361,154
362,163
363,168
364,168
365,167
366,166
367,166
368,171
369,180
370,190
371,200
372,206
373,210
374,208
375,204
376,195
377,195
378,196
379,201
380,208
381,215
382,218
383,218
384,217
385,211
386,203
387,195
388,189
389,186
390,184
391,180
392,175
393,168
394,160
395,152
396,152
397,141
398,136
399,130
400,124
401,124
402,118
403,111
404,104
405,97
406,89
407,79
408,68
409,58
410,49
411,32
412,29
413,26
414,21
415,19
416,14
417,8
418,3
419,1
420,-1
421,-5
422,-6
423,-5
424,-6
425,-7
426,-8
427,-8
428,-10
429,-11
430,-12
431,-12
432,-14
433,-14
434,-11
435,-11
436,-15
437,-19
438,-24
439,-26
440,-29
441,-30
442,-27
443,-23
444,-18
445,-12
446,-9
447,-14
448,-18
449,-24
450,-30
451,-35
452,-37
453,-37
454,-37
455,-35
456,-35
457,-36
458,-35
459,-34
460,-31
461,-29
462,-25
463,-19
464,-16
465,-16
466,-18
467,-22
468,-24
469,-24
470,-17
471,-10
472,-5
473,-1
474,1
475,0
476,-3
477,-7
478,-9
479,-13
480,-12
481,-11
482,-15
483,-21
484,-25
485,-26
486,-27
487,-27
488,-28
489,-29
490,-31
491,-32
492,-32
493,-32
494,-30
495,-23
496,-15
497,-8
498,-2
499,-2
500,-4
501,-7
502,-11
503,-15
504,-14
505,-11
506,-7
507,-3
508,-2
509,-3
510,-3
511,-2
512,-1
513,0
514,0
515,0
516,0
517,2
518,7
519,13
520,21
521,31
522,36
523,38
524,42
525,43
526,44
527,48
528,55
529,63
530,67
531,66
532,67
533,64
534,57
535,54
536,54
537,52
538,51
539,52
540,51
541,46
542,37
543,25
544,25
545,14
546,1
547,-10
548,-19
549,-29
550,-38
551,-50
552,-52
553,-47
554,-39
555,-26
556,-12
557,0
558,9
559,13
560,13
561,12
562,6
563,2
564,4
565,5
566,5
567,6
568,7
569,6
570,4
571,4
572,6
573,8
574,9
575,12
576,16
577,15
578,10
579,4
580,2
581,7
582,22
583,51
584,93
585,206
586,272
587,341
588,406
589,453
590,482
591,492
592,482
593,452
594,402
595,329
596,238
597,128
598,7
599,-114
600,-225
601,-317
602,-375
603,-396
604,-381
605,-340
606,-286
607,-231
608,-173
609,-120
610,-74
611,-35
612,-1
613,24
614,42
615,52
616,55
617,53
618,46
619,40
620,37
621,35
622,38
623,42
624,50
625,57
626,65
627,71
628,76
629,81
630,90
631,96
632,98
633,97
634,95
635,93
636,91
637,89
638,88
639,87
640,88
641,89
642,89
643,89
644,89
645,88
646,90
647,92
648,92
649,94
650,93
651,91
652,91
653,93
654,96
655,103
656,101
657,97
658,92
659,86
660,87
661,89
662,92
663,97
664,100
665,99
666,98
667,99
668,101
669,106
670,115
671,123
672,129
673,132
674,128
675,123
676,120
677,119
678,122
679,130
680,136
681,141
682,143
683,142
684,141
685,139
686,139
687,139
688,139
689,141
690,144
691,144
692,141
693,141
694,144
695,148
696,155
697,162
698,166
699,168
700,165
701,158
702,151
703,147
704,143
705,145
706,155
707,164
708,168
709,174
710,177
711,176
712,176
713,176
714,174
715,177
716,177
717,174
718,170
719,167
720,160
721,157
722,154
723,153
724,151
725,143
726,137
727,132
728,124
729,115
730,106
731,98
732,88
733,76
734,69
735,62
736,57
737,58
738,60
739,58
740,55
741,45
742,28
743,14
744,1
745,-9
746,-15
747,-17
748,-17
749,-13
750,-12
751,-15
752,-16
753,-19
754,-23
755,-25
756,-27
757,-30
758,-34
759,-38
760,-43
761,-46
762,-45
763,-44
764,-40
765,-37
766,-38
767,-36
768,-34
769,-33
770,-31
771,-28
772,-26
773,-23
774,-22
775,-26
776,-32
777,-34
778,-34
779,-28
780,-20
781,-14
782,-10
783,-8
784,-13
785,-20
786,-28
787,-31
788,-30
789,-25
790,-18
791,-11
792,-7
793,-7
794,-11
795,-18
796,-18
797,-13
798,-8
799,-6
800,-7
801,-6
802,-2
803,5
804,11
805,16
806,22
807,28
808,26
809,20
810,11
811,4
812,2
813,5
814,11
815,15
816,17
817,19
818,20
819,22
820,22
821,22
822,27
823,34
824,40
825,45
826,48
827,50
828,50
829,52
830,53
831,47
832,47
833,49
834,53
835,58
836,65
837,72
838,77
839,82
840,83
841,84
842,84
843,84
844,86
845,88
846,90
847,91
848,90
849,87
850,83
851,80
852,74
853,70
854,69
855,69
856,66
857,64
858,60
859,49
860,35
861,22
862,12
863,4
864,-3
865,-6
866,-7
867,-5
868,-1
869,3
870,8
871,13
872,16
873,13
874,4
875,-7
876,-18
877,-24
878,-24
879,-18
880,-9
881,1
882,11
883,14
884,13
885,8
886,3
887,1
888,5
889,14
890,23
891,28
892,29
893,27
894,24
895,28
896,47
897,81
898,129
899,186
900,248
901,315
902,427
903,458
904,467
905,455
906,426
907,378
908,312
909,229
910,131
911,24
912,-81
913,-183
914,-275
915,-344
916,-383
917,-388
918,-363
919,-322
920,-270
921,-213
922,-157
923,-107
924,-64
925,-29
926,-5
927,6
928,8
929,6
930,2
931,-1
932,-3
933,0
934,3
935,3
936,5
937,9
938,13
939,17
940,25
941,34
942,39
943,39
944,34
945,26
946,17
947,10
948,7
949,8
950,11
951,14
952,20
953,25
954,29
955,31
956,33
957,37
958,40
959,38
960,37
961,37
962,35
963,35
964,35
965,34
966,37
967,38
968,41
969,43
970,43
971,42
972,43
973,44
974,44
975,46
976,48
977,51
978,55
979,59
980,62
981,67
982,68
983,67
984,68
985,67
986,66
987,70
988,74
989,80
990,86
991,91
992,95
993,97
994,95
995,90
996,89
997,88
998,89
999,92
1000,96
1001,101
1002,104
1003,108
1004,111
1005,115
1006,117
1007,120
1008,122
1009,123
1010,123
1011,127
1012,132
1013,137
1014,144
1015,151
1016,157
1017,162
1018,164
1019,166
1020,164
1021,160
1022,155
1023,150
1024,144
1025,143
1026,143
1027,142
1028,145
1029,150
1030,151
1031,150
1032,148
1033,143
1034,138
1035,134
1036,130
1037,128
1038,123
1039,119
1040,116
1041,105
1042,100
1043,96
1044,92
1045,85
1046,79
1047,69
1048,56
1049,42
1050,29
1051,18
1052,6
1053,-2
1054,-7
1055,-10
1056,-12
1057,-12
1058,-10
1059,-10
1060,-12
1061,-14
1062,-19
1063,-27
1064,-31
1065,-34
1066,-35
1067,-36
1068,-36
1069,-35
1070,-35
1071,-38
1072,-39
1073,-40
1074,-42
1075,-44
1076,-49
1077,-56
1078,-61
1079,-61
1080,-54
1081,-44
1082,-34
1083,-24
1084,-19
1085,-19
1086,-24
1087,-30
1088,-37
1089,-39
1090,-35
1091,-29
1092,-23
1093,-19
1094,-19
1095,-21
1096,-25
1097,-29
1098,-31
1099,-33
1100,-31
1101,-27
1102,-22
1103,-15
1104,-9
1105,-5
1106,-2
1107,-2
1108,-4
1109,-5
1110,-5
1111,-4
1112,-4
1113,-4
1114,-5
1115,-6
1116,-7
1117,-7
1118,-4
1119,-1
1120,4
1121,12
1122,19
1123,19
1124,18
1125,13
1126,8
1127,6
1128,7
1129,10
1130,16
1131,24
1132,34
1133,40
1134,41
1135,38
1136,32
1137,31
1138,33
1139,41
1140,49
1141,60
1142,72
1143,82
1144,90
1145,88
1146,85
1147,85
1148,84
1149,84
1150,84
1151,81
1152,83
1153,88
1154,93
1155,97
1156,100
1157,101
1158,100
1159,94
1160,82
1161,68
1162,56
1163,45
1164,36
1165,30
1166,23
1167,18
1168,18
1169,20
1170,24
1171,28
1172,32
1173,37
1174,41
1175,43
1176,40
1177,36
1178,35
1179,37
1180,39
1181,41
1182,40
1183,40
1184,41
1185,42
1186,44
1187,46
1188,50
1189,53
1190,51
1191,42
1192,32
1193,25
1194,23
1195,28
1196,40
1197,52
1198,56
1199,57
1200,51
1201,47
1202,49
1203,67
1204,106
1205,163
1206,232
1207,308
1208,389
1209,459
1210,511
1211,543
1212,549
1213,500
1214,445
1215,370
1216,280
1217,175
1218,64
1219,-46
1220,-151
1221,-241
1222,-303
1223,-335
1224,-332
1225,-300
1226,-254
1227,-203
1228,-148
1229,-95
1230,-46
1231,-6
1232,22
1233,37
1234,45
1235,47
1236,50
1237,57
1238,67
1239,78
1240,89
1241,98
1242,103
1243,103
1244,103
1245,102
1246,110
1247,114
1248,118
1249,121
1250,122
1251,122
1252,126
1253,129
1254,134
1255,134
1256,139
1257,140
1258,141
1259,140
1260,136
1261,132
1262,130
1263,129
1264,127
1265,125
1266,121
1267,119
1268,113
1269,107
1270,104
1271,99
1272,93
1273,88
1274,85
1275,84
1276,82
1277,83
1278,89
1279,100
1280,112
1281,126
1282,139
1283,135
1284,125
1285,113
1286,102
1287,90
1288,84
1289,85
1290,91
1291,100
1292,114
1293,126
1294,137
1295,147
1296,157
1297,164
1298,167
1299,167
1300,166
1301,164
1302,162
1303,160
1304,162
1305,168
1306,174
1307,179
1308,185
1309,191
1310,196
1311,202
1312,208
1313,215
1314,222
1315,229
1316,236
1317,235
1318,232
1319,228
1320,228
1321,228
1322,228
1323,228
1324,229
1325,229
1326,227
1327,225
1328,224
1329,225
1330,224
1331,222
1332,218
1333,215
1334,209
1335,200
1336,195
1337,192
1338,190
1339,189
1340,191
1341,191
1342,191
1343,189
1344,186
1345,186
1346,183
1347,178
1348,172
1349,165
1350,157
1351,138
1352,126
1353,115
1354,106
1355,98
1356,92
1357,87
1358,82
1359,73
1360,63
1361,54
1362,45
1363,34
1364,25
1365,18
1366,17
1367,15
1368,11
1369,10
1370,10
1371,10
1372,10
1373,11
1374,9
1375,4
1376,-3
1377,-10
1378,-16
1379,-22
1380,-25
1381,-24
1382,-25
1383,-26
1384,-27
1385,-24
1386,-22
1387,-18
1388,-15
1389,-15
1390,-17
1391,-18
1392,-21
1393,-22
1394,-21
1395,-18
1396,-14
1397,-14
1398,-8
1399,-5
1400,-6
1401,-7
1402,-11
1403,-18
1404,-22
1405,-24
1406,-22
1407,-16
1408,-9
1409,-4
1410,0
1411,1
1412,0
1413,0
1414,0
1415,0
1416,5
1417,13
1418,20
1419,24
1420,23
1421,20
1422,14
1423,8
1424,2
1425,0
1426,-2
1427,1
1428,8
1429,15
1430,21
1431,27
1432,33
1433,34
1434,34
1435,35
1436,34
1437,33
1438,31
1439,32
1440,33
1441,34
1442,33
1443,34
1444,39
1445,42
1446,48
1447,53
1448,55
1449,58
1450,61
1451,63
1452,65
1453,67
1454,65
1455,64
1456,63
1457,61
1458,59
1459,58
1460,57
1461,56
1462,53
1463,47
1464,38
1465,32
1466,25
1467,16
1468,7
1469,-2
1470,-11
1471,-16
1472,-22
1473,-27
1474,-29
1475,-31
1476,-30
1477,-28
1478,-27
1479,-26
1480,-25
1481,-26
1482,-28
1483,-33
1484,-39
1485,-44
1486,-44
1487,-36
1488,-30
1489,-26
1490,-24
1491,-27
1492,-29
1493,-37
1494,-44
1495,-48
1496,-50
1497,-50
1498,-49
1499,-49
1500,-48
1501,-48
1502,-46
1503,-39
1504,-23
1505,4
1506,46
1507,103
1508,172
1509,247
1510,324
1511,388
1512,436
1513,458
1514,454
1515,429
1516,387
1517,330
1518,257
1519,171
1520,69
1521,-43
1522,-264
1523,-354
1524,-413
1525,-434
1526,-417
1527,-375
1528,-319
1529,-255
1530,-194
1531,-139
1532,-92
1533,-53
1534,-26
1535,-9
1536,-9
1537,-2
1538,-9
1539,-9
1540,-19
1541,-25
1542,-28
1543,-29
1544,-24
1545,-17
1546,-14
1547,-13
1548,-10
1549,-5
1550,-3
1551,0
1552,4
1553,10
1554,15
1555,17
1556,23
1557,24
1558,27
1559,35
1560,39
1561,38
1562,38
1563,39
1564,39
1565,38
1566,38
1567,39
1568,39
1569,40
1570,41
1571,40
1572,36
1573,36
1574,38
1575,44
1576,53
1577,60
1578,67
1579,73
1580,75
1581,75
1582,70
1583,60
1584,50
1585,42
1586,34
1587,30
1588,29
1589,30
1590,33
1591,47
1592,53
1593,58
1594,62
1595,67
1596,73
1597,79
1598,84
1599,88
1600,92
1601,97
1602,102
1603,106
1604,110
1605,112
1606,113
1607,115
1608,121
1609,128
1610,132
1611,137
1612,144
1613,148
1614,149
1615,154
1616,158
1617,164
1618,172
1619,180
1620,185
1621,186
1622,180
1623,175
1624,172
1625,170
1626,173
1627,175
1628,177
1629,179
1630,180
1631,182
1632,183
1633,185
1634,191
1635,197
1636,201
1637,202
1638,199
1639,194
1640,187
1641,180
1642,176
1643,171
1644,167
1645,167
1646,169
1647,168
1648,167
1649,162
1650,157
1651,152
1652,146
1653,139
1654,133
1655,122
1656,111
1657,102
1658,93
1659,86
1660,83
1661,77
1662,77
1663,74
1664,70
1665,65
1666,59
1667,56
1668,54
1669,53
1670,54
1671,52
1672,48
1673,42
1674,36
1675,32
1676,29
1677,27
1678,26
1679,26
1680,28
1681,30
1682,30
1683,32
1684,33
1685,30
1686,25
1687,19
1688,13
1689,7
1690,4
1691,4
1692,8
1693,16
1694,25
1695,38
1696,40
1697,41
1698,44
1699,45
1700,45
1701,44
1702,41
1703,40
1704,43
1705,46
1706,50
1707,55
1708,59
1709,62
1710,63
1711,61
1712,59
1713,57
1714,56
1715,53
1716,50
1717,48
1718,48
1719,49
1720,54
1721,61
1722,68
1723,76
1724,83
1725,86
1726,86
1727,82
1728,79
1729,80
1730,80
1731,86
1732,94
1733,103
1734,109
1735,113
1736,114
1737,110
1738,107
1739,105
1740,104
1741,102
1742,103
1743,101
1744,100
1745,97
1746,92
1747,89
1748,88
1749,85
1750,84
1751,85
1752,84
1753,82
1754,82
1755,81
1756,77
1757,73
1758,67
1759,57
1760,45
1761,36
1762,31
1763,30
1764,35
1765,36
1766,35
1767,33
1768,28
1769,24
1770,22
1771,23
1772,25
1773,29
1774,30
1775,29
1776,28
1777,27
1778,23
1779,22
1780,20
1781,19
1782,20
1783,22
1784,25
1785,30
1786,33
1787,36
1788,38
1789,37
1790,35
1791,32
1792,28
1793,24
1794,26
1795,35
1796,55
1797,85
1798,127
1799,238
1800,303
1801,371
1802,429
1803,472
1804,494
1805,496
1806,482
1807,451
1808,397
1809,322
1810,230
1811,122
1812,5
1813,-115
1814,-228
1815,-318
1816,-374
1817,-389
1818,-365
1819,-315
1820,-252
1821,-186
1822,-122
1823,-67
1824,-67
1825,-25
1826,1
1827,17
1828,26
1829,27
1830,25
1831,22
1832,23
1833,33
1834,38
1835,44
1836,46
1837,43
1838,39
1839,38
1840,36
1841,37
1842,44
1843,54
1844,63
1845,72
1846,79
1847,83
1848,82
1849,78
1850,75
1851,71
1852,66
1853,64
1854,62
1855,61
1856,61
1857,60
1858,59
1859,59
1860,60
1861,60
1862,64
1863,68
1864,72
1865,76
1866,77
1867,79
1868,80
1869,81
1870,81
1871,79
1872,81
1873,85
1874,87
1875,88
1876,90
1877,90
1878,88
1879,85
1880,81
1881,77
1882,74
1883,75
1884,83
1885,92
1886,99
1887,103
1888,105
1889,101
1890,96
1891,91
1892,83
1893,79
1894,79
1895,83
1896,93
1897,101
1898,108
1899,117
1900,119
1901,117
1902,112
1903,109
1904,109
1905,111
1906,114
1907,120
1908,125
1909,126
1910,126
1911,127
1912,130
1913,131
1914,133
1915,135
1916,136
1917,135
1918,136
1919,137
1920,137
1921,137
1922,137
1923,140
1924,145
1925,150
1926,153
1927,155
1928,155
1929,155
1930,154
1931,152
1932,151
1933,152
1934,152
1935,148
1936,143
1937,137
1938,130
1939,124
1940,117
1941,109
1942,100
1943,91
1944,80
1945,71
1946,62
1947,55
1948,50
1949,45
1950,41
1951,36
1952,29
1953,22
1954,16
1955,11
1956,4
1957,-1
1958,-5
1959,-7
1960,-11
1961,-12
1962,-14
1963,-14
1964,-15
1965,-17
1966,-17
1967,-19
1968,-21
1969,-25
1970,-24
1971,-21
1972,-18
1973,-14
1974,-12
1975,-12
1976,-14
1977,-16
1978,-17
1979,-15
1980,-15
1981,-13
1982,-13
1983,-14
1984,-13
1985,-11
1986,-9
1987,-6
1988,0
1989,4
1990,14
1991,22
1992,29
1993,37
1994,44
1995,46
1996,50
1997,52
1998,53
1999,56
2000,56
2001,55
2002,56
2003,56
2004,43
2005,37
2006,32
2007,32
2008,34
2009,36
2010,43
2011,51
2012,59
2013,68
2014,74
2015,75
2016,72
2017,68
2018,64
2019,61
2020,58
2021,58
2022,63
2023,71
2024,77
2025,82
2026,84
2027,82
2028,78
2029,74
2030,73
2031,73
2032,77
2033,81
2034,84
2035,86
2036,85
2037,81
2038,66
2039,60
2040,55
2041,50
2042,48
2043,47
2044,46
2045,47
2046,49
2047,52
2048,53
2049,52
2050,49
2051,47
2052,44
2053,40
2054,38
2055,37
2056,34
2057,33
2058,33
2059,31
2060,29
2061,27
2062,25
2063,27
2064,29
2065,30
2066,32
2067,33
2068,25
2069,20
2070,18
2071,14
2072,8
2073,5
2074,2
2075,4
2076,12
2077,29
2078,61
2079,103
2080,158
2081,223
2082,293
2083,360
2084,414
2085,452
2086,468
2087,458
2088,429
2089,381
2090,311
2091,225
2092,127
2093,16
2094,-98
2095,-211
2096,-312
2097,-383
2098,-421
2099,-424
2100,-393
2101,-341
2102,-285
2103,-227
2104,-173
2105,-130
2106,-96
2107,-50
2108,-50
2109,-36
2110,-30
2111,-28
2112,-25
2113,-22
2114,-20
2115,-17
2116,-13
2117,-10
2118,-9
2119,-6
2120,-2
2121,3
2122,8
2123,14
2124,21
2125,25
2126,27
2127,28
2128,26
2129,26
2130,28
2131,29
2132,32
2133,36
2134,37
2135,39
2136,44
2137,46
2138,45
2139,43
2140,42
2141,44
2142,51
2143,56
2144,60
2145,61
2146,61
2147,63
2148,59
2149,54
2150,52
2151,57
2152,60
2153,61
2154,60
2155,64
2156,72
2157,76
2158,78
2159,83
2160,82
2161,77
2162,74
2163,72
2164,73
2165,75
2166,80
2167,90
2168,101
2169,104
2170,109
2171,113
2172,112
2173,112
2174,112
2175,110
2176,117
2177,123
2178,132
2179,139
2180,143
2181,145
2182,141
2183,135
2184,134
2185,133
2186,130
2187,130
2188,131
2189,133
2190,136
2191,139
2192,143
2193,149
2194,152
2195,155
2196,157
2197,157
2198,156
2199,154
2200,153
2201,149
2202,145
2203,141
2204,139
2205,137
2206,137
2207,138
2208,139
2209,140
2210,137
2211,129
2212,126
2213,123
2214,123
2215,120
2216,116
2217,108
2218,99
2219,89
2220,81
2221,74
2222,67
2223,65
2224,62
2225,55
2226,47
2227,37
2228,26
2229,17
2230,9
2231,2
2232,-2
2233,-5
2234,-8
2235,-9
2236,-8
2237,-4
2238,0
2239,0
2240,0
2241,-5
2242,-10
2243,-19
2244,-28
2245,-40
2246,-44
2247,-43
2248,-40
2249,-36
2250,-36
2251,-34
2252,-30
2253,-27
2254,-23
2255,-22
2256,-20
2257,-19
2258,-19
2259,-18
2260,-17
2261,-15
2262,-12
2263,-9
2264,-7
2265,-5
2266,-6
2267,-7
2268,-8
2269,-8
2270,-5
2271,-1
2272,3
2273,6
2274,11
2275,15
2276,15
2277,16
2278,19
2279,23
2280,27
2281,31
2282,35
2283,37
2284,38
2285,44
2286,50
2287,54
2288,59
2289,64
2290,67
2291,69
2292,71
2293,73
2294,74
2295,71
2296,65
2297,63
2298,60
2299,56
2300,55
2301,56
2302,61
2303,65
2304,68
2305,72
2306,81
2307,85
2308,88
2309,91
2310,90
2311,82
2312,73
2313,63
2314,54
2315,41
2316,38
2317,40
2318,42
2319,43
2320,43
2321,39
2322,31
2323,21
2324,11
2325,1
2326,-4
2327,-4
2328,-3
2329,0
2330,6
2331,11
2332,11
2333,11
2334,12
2335,11
2336,10
2337,11
2338,14
2339,15
2340,12
2341,12
2342,13
2343,11
2344,6
2345,4
2346,1
2347,0
2348,-1
2349,-1
2350,5
2351,8
2352,12
2353,11
2354,4
2355,-1
2356,0
2357,8
2358,31
2359,68
2360,116
2361,174
2362,241
2363,310
2364,373
2365,423
2366,453
2367,461
2368,446
2369,413
2370,361
2371,292
2372,204
2373,104
2374,-1
2375,-111
2376,-219
2377,-312
2378,-376
2379,-405
2380,-396
2381,-357
2382,-300
2383,-236
2384,-176
2385,-78
2386,-45
2387,-23
2388,-10
2389,-4
2390,1
2391,4
2392,7
2393,7
2394,8
2395,8
2396,9
2397,10
2398,11
2399,15
2400,18
2401,22
2402,24
2403,26
2404,27
2405,23
2406,17
2407,12
2408,8
2409,3
2410,0
2411,-4
2412,-6
2413,-5
2414,-2
2415,3
2416,12
2417,19
2418,21
2419,23
2420,24
2421,18
2422,16
2423,17
2424,18
2425,19
2426,21
2427,25
2428,25
2429,26
2430,28
2431,30
2432,32
2433,31
2434,30
2435,30
2436,29
2437,30
2438,34
2439,39
2440,41
2441,44
2442,47
2443,51
2444,55
2445,60
2446,66
2447,72
2448,76
2449,76
2450,72
2451,67
2452,62
2453,60
2454,60
2455,69
2456,76
2457,80
2458,86
2459,89
2460,92
2461,97
2462,106
2463,117
2464,125
2465,130
2466,129
2467,127
2468,121
2469,115
2470,114
2471,114
2472,115
2473,118
2474,121
2475,123
2476,124
2477,127
2478,131
2479,134
2480,140
2481,146
2482,152
2483,155
2484,158
2485,163
2486,168
2487,171
2488,172
2489,170
2490,154
2491,147
2492,138
2493,132
2494,129
2495,129
2496,132
2497,134
2498,135
2499,133
2500,129
2501,123
2502,116
2503,111
2504,106
2505,106
2506,108
2507,107
2508,104
2509,100
2510,94
2511,82
2512,72
2513,64
2514,56
2515,49
2516,44
2517,40
2518,38
2519,34
2520,33
2521,36
2522,37
2523,34
2524,28
2525,23
2526,16
2527,13
2528,14
2529,19
2530,20
2531,20
2532,20
2533,16
2534,12
2535,12
2536,10
2537,12
2538,19
2539,25
2540,34
2541,41
2542,43
2543,40
2544,35
2545,30
2546,26
2547,24
2548,23
2549,25
2550,28
2551,28
2552,29
2553,33
2554,34
2555,34
2556,36
2557,38
2558,40
2559,41
2560,53
2561,61
2562,67
2563,75
2564,81
2565,82
2566,79
2567,74
2568,68
2569,62
2570,56
2571,53
2572,52
2573,56
2574,60
2575,66
2576,75
2577,84
2578,91
2579,95
2580,96
2581,94
2582,92
2583,90
2584,91
2585,94
2586,97
2587,99
2588,105
2589,110
2590,114
2591,118
2592,120
2593,121
2594,118
2595,115
2596,111
2597,111
2598,112
2599,111
2600,113
2601,113
2602,108
2603,104
2604,100
2605,92
2606,82
2607,76
2608,71
2609,70
2610,68
2611,68
2612,70
2613,70
2614,66
2615,60
2616,53
2617,48
2618,42
2619,39
2620,38
2621,36
2622,36
2623,37
2624,37
2625,37
2626,38
2627,36
2628,37
2629,36
2630,35
2631,38
2632,42
2633,45
2634,47
2635,49
2636,49
2637,49
2638,46
2639,40
2640,35
2641,32
2642,31
2643,36
2644,50
2645,74
2646,111
2647,162
2648,220
2649,284
2650,353
2651,418
2652,472
2653,506
2654,515
2655,502
2656,472
2657,424
2658,358
2659,276
2660,181
2661,-35
2662,-143
2663,-237
2664,-306
2665,-342
2666,-343
2667,-316
2668,-268
2669,-212
2670,-155
2671,-102
2672,-54
2673,-17
2674,8
2675,24
2676,31
2677,31
2678,32
2679,30
2680,26
2681,25
2682,29
2683,31
2684,35
2685,41
2686,44
2687,45
2688,44
2689,43
2690,43
2691,45
2692,48
2693,53
2694,61
2695,68
2696,76
2697,80
2698,80
2699,80
2700,78
2701,76
2702,70
2703,65
2704,61
2705,60
2706,59
2707,60
2708,62
2709,66
2710,67
2711,70
2712,76
2713,81
2714,87
2715,94
2716,101
2717,103
2718,104
2719,99
2720,92
2721,88
2722,84
2723,84
2724,93
2725,100
2726,107
2727,113
2728,114
2729,109
2730,101
2731,80
2732,73
2733,70
2734,71
2735,76
2736,84
2737,92
2738,103
2739,113
2740,119
2741,124
2742,126
2743,125
2744,123
2745,121
2746,119
2747,120
2748,123
2749,127
2750,133
2751,138
2752,144
2753,151
2754,155
2755,158
2756,160
2757,160
2758,162
2759,164
2760,165
2761,166
2762,168
2763,169
2764,171
2765,180
2766,184
2767,185
2768,184
2769,185
2770,183
2771,181
2772,184
2773,189
2774,190
2775,189
2776,185
2777,180
2778,172
2779,164
2780,158
2781,154
2782,153
2783,151
2784,154
2785,156
2786,155
2787,154
2788,153
2789,148
2790,138
2791,126
2792,112
2793,100
2794,95
2795,93
2796,91
2797,88
2798,83
2799,65
2800,54
2801,42
2802,36
2803,34
2804,33
2805,35
2806,36
2807,34
2808,31
2809,29
2810,26
2811,26
2812,27
2813,28
2814,31
2815,33
2816,34
2817,32
2818,29
2819,29
2820,24
2821,21
2822,19
2823,17
2824,19
2825,25
2826,29
2827,32
2828,33
2829,30
2830,23
2831,16
2832,5
2833,-4
2834,-13
2835,-10
2836,-2
2837,5
2838,12
2839,19
2840,22
2841,21
2842,16
2843,8
2844,3
2845,0
2846,0
2847,3
2848,9
2849,14
2850,19
2851,24
2852,26
2853,26
2854,26
2855,26
2856,28
2857,30
2858,33
2859,37
2860,41
2861,43
2862,42
2863,39
2864,38
2865,40
2866,41
2867,45
2868,51
2869,58
2870,62
2871,65
2872,68
2873,68
2874,68
2875,71
2876,70
2877,67
2878,66
2879,69
2880,76
2881,83
2882,88
2883,92
2884,92
2885,90
2886,87
2887,85
2888,84
2889,86
2890,89
2891,91
2892,94
2893,96
2894,96
2895,95
2896,93
2897,88
2898,80
2899,71
2900,62
2901,53
2902,42
2903,38
2904,33
2905,26
2906,20
2907,12
2908,5
2909,2
2910,0
2911,0
2912,5
2913,7
2914,5
2915,2
2916,-2
2917,-6
2918,-8
2919,-10
2920,-8
2921,-3
2922,1
2923,8
2924,14
2925,14
2926,12
2927,10
2928,9
2929,7
2930,9
2931,14
2932,18
2933,21
2934,22
2935,22
2936,10
2937,0
2938,-10
2939,-17
2940,-12
2941,1
2942,29
2943,71
2944,124
2945,184
2946,252
2947,325
2948,393
2949,448
2950,484
2951,497
2952,489
2953,457
2954,403
2955,330
2956,239
2957,133
2958,17
2959,-100
2960,-213
2961,-309
2962,-309
2963,-376
2964,-408
2965,-399
2966,-361
2967,-306
2968,-245
2969,-185
2970,-129
2971,-86
2972,-53
2973,-30
2974,-9
2975,-5
2976,-4
2977,-2
2978,-1
2979,-1
2980,0
2981,0
2982,2
2983,4
2984,4
2985,5
2986,7
2987,9
2988,11
2989,17
2990,22
2991,27
2992,31
2993,34
2994,36
2995,36
2996,33
2997,34
2998,39
2999,44
3000,46
3001,46
3002,44
3003,38
3004,32
3005,27
3006,24
3007,24
3008,29
3009,31
3010,31
3011,27
3012,26
3013,30
3014,34
3015,38
3016,44
3017,48
3018,52
3019,53
3020,48
3021,43
3022,39
3023,33
3024,30
3025,33
3026,35
3027,36
3028,40
3029,44
3030,47
3031,50
3032,52
3033,57
3034,64
3035,69
3036,75
3037,81
3038,83
3039,84
3040,86
3041,89
3042,90
3043,94
3044,96
3045,100
3046,104
3047,110
3048,113
3049,115
3050,116
3051,118
3052,117
3053,119
3054,122
3055,126
3056,131
3057,136
3058,142
3059,144
3060,143
3061,141
3062,142
3063,142
3064,142
3065,145
3066,146
3067,145
3068,143
3069,140
3070,136
3071,133
3072,132
3073,136
3074,144
3075,149
3076,154
3077,155
3078,151
3079,147
3080,141
3081,136
3082,132
3083,129
3084,124
3085,118
3086,109
3087,100
3088,91
3089,83
3090,76
3091,69
3092,63
3093,60
3094,59
3095,57
3096,53
3097,49
3098,43
3099,36
3100,30
3101,27
3102,23
3103,21
3104,21
3105,19
3106,17
3107,17
3108,14
3109,11
3110,8
3111,4
3112,-1
3113,-8
3114,-11
3115,-10
3116,-5
3117,0
3118,3
3119,6
3120,6
3121,3
3122,0
3123,-2
3124,-5
3125,-5
3126,-2
3127,0
3128,4
3129,8
3130,9
3131,10
3132,9
3133,5
3134,1
3135,-1
3136,-4
3137,-1
3138,5
3139,9
3140,16
3141,21
3142,19
3143,18
3144,13
3145,7
3146,4
3147,-1
3148,1
3149,1
3150,-2
3151,-2
3152,-4
3153,-10
3154,-10
3155,-8
3156,-6
3157,-1
3158,4
3159,9
3160,13
3161,15
3162,13
3163,11
3164,10
3165,10
3166,12
3167,17
3168,23
3169,30
3170,37
3171,44
3172,47
3173,45
3174,43
3175,40
3176,37
3177,37
3178,37
3179,40
3180,47
3181,52
3182,61
3183,64
3184,68
3185,75
3186,80
3187,80
3188,78
3189,73
3190,67
3191,60
3192,54
3193,50
3194,52
3195,56
3196,61
3197,67
3198,67
3199,63
3200,59
3201,52
3202,42
3203,30
3204,19
3205,11
3206,5
3207,0
3208,-1
3209,0
3210,0
3211,-2
3212,-4
3213,-7
3214,-14
3215,-21
3216,-25
3217,-26
3218,-25
3219,-21
3220,-15
3221,-11
3222,-7
3223,-4
3224,-3
3225,-4
3226,-10
3227,-17
3228,-23
3229,-29
3230,-30
3231,-28
3232,-22
3233,-15
3234,-11
3235,-6
3236,-3
3237,-5
3238,-12
3239,-17
3240,-21
3241,-17
3242,-4
3243,16
3244,49
3245,95
3246,95
3247,149
3248,212
3249,283
3250,351
3251,408
3252,448
3253,463
3254,436
3255,391
3256,325
3257,243
3258,146
3259,34
3260,-82
3261,-191
3262,-285
3263,-353
3264,-385
3265,-385
3266,-357
3267,-313
3268,-265
3269,-213
3270,-164
3271,-125
3272,-93
3273,-62
3274,-39
3275,-25
3276,-18
3277,-14
3278,-11
3279,-10
3280,-8
3281,-5
3282,-3
3283,-3
3284,-3
3285,-1
3286,0
3287,0
3288,4
3289,10
3290,16
3291,24
3292,31
3293,33
3294,33
3295,30
3296,24
3297,18
3298,15
3299,16
3300,17
3301,23
3302,31
3303,37
3304,41
3305,41
3306,38
3307,34
3308,25
3309,17
3310,16
3311,15
3312,16
3313,20
3314,25
3315,32
3316,38
3317,40
3318,41
3319,39
3320,35
3321,30
3322,28
3323,27
3324,27
3325,31
3326,39
3327,46
3328,51
3329,57
3330,62
3331,63
3332,63
3333,63
3334,63
3335,63
3336,65
3337,69
3338,77
3339,83
3340,89
3341,94
3342,97
3343,97
3344,99
3345,101
3346,99
3347,99
3348,99
3349,95
3350,93
3351,93
3352,94
3353,96
3354,100
3355,115
3356,123
3357,130
3358,136
3359,139
3360,141
3361,143
3362,143
3363,144
3364,144
3365,144
3366,145
3367,147
3368,146
3369,143
3370,141
3371,137
3372,135
3373,136
3374,136
3375,138
3376,141
3377,143
3378,142
3379,140
3380,137
3381,133
3382,131
3383,126
3384,121
3385,122
3386,122
3387,116
3388,116
3389,108
3390,99
3391,77
3392,67
3393,61
3394,56
3395,52
3396,50
3397,49
3398,45
3399,39
3400,32
3401,26
3402,21
3403,15
3404,10
3405,6
3406,1
3407,-2
3408,-4
3409,-4
3410,-5
3411,-5
3412,-5
3413,-7
3414,-10
3415,-12
3416,-13
3417,-14
3418,-13
3419,-10
3420,-3
3421,1
3422,5
3423,6
3424,6
3425,5
3426,0
3427,-5
3428,-8
3429,-10
3430,-8
3431,-5
3432,-1
3433,5
3434,8
3435,7
3436,8
3437,7
3438,7
3439,10
3440,13
3441,19
3442,24
3443,22
3444,17
3445,11
3446,4
3447,0
3448,1
3449,6
3450,11
3451,14
3452,12
3453,7
3454,2
3455,-2
3456,-6
3457,-6
3458,-2
3459,2
3460,8
3461,20
3462,25
3463,30
3464,32
3465,35
3466,36
3467,34
3468,33
3469,34
3470,37
3471,41
3472,48
3473,57
3474,65
3475,69
3476,70
3477,69
3478,67
3479,67
3480,68
3481,72
3482,75
3483,76
3484,73
3485,71
3486,65
3487,59
3488,55
3489,54
3490,57
3491,61
3492,62
3493,62
3494,63
3495,62
3496,58
3497,53
3498,48
3499,45
3500,46
3501,48
3502,51
3503,55
3504,53
3505,48
3506,39
3507,27
3508,12
3509,0
3510,-9
3511,-14
3512,-15
3513,-11
3514,-3
3515,3
3516,8
3517,14
3518,21
3519,23
3520,22
3521,20
3522,18
3523,16
3524,14
3525,12
3526,7
3527,3
3528,0
3529,0
3530,2
3531,5
3532,7
3533,9
3534,10
3535,10
3536,8
3537,3
3538,0
3539,0
3540,2
3541,13
3542,34
3543,64
3544,105
3545,157
3546,215
3547,282
3548,350
3549,406
3550,447
3551,465
3552,459
3553,431
3554,386
3555,320
3556,242
3557,151
3558,48
3559,-58
3560,-161
3561,-255
3562,-327
3563,-367
3564,-373
3565,-349
3566,-304
3567,-197
3568,-146
3569,-105
3570,-72
3571,-43
3572,-20
3573,-3
3574,6
3575,11
3576,12
3577,11
3578,11
3579,13
3580,16
3581,20
3582,20
3583,19
3584,18
3585,15
3586,12
3587,13
3588,20
3589,29
3590,38
3591,45
3592,46
3593,42
3594,37
3595,30
3596,27
3597,25
3598,27
3599,31
3600,38
3601,44
3602,46
3603,47
3604,48
3605,53
3606,55
3607,55
3608,57
3609,58
3610,57
3611,58
3612,58
3613,58
3614,62
3615,65
3616,66
3617,65
3618,60
3619,56
3620,57
3621,59
3622,63
3623,69
3624,76
3625,83
3626,92
3627,96
3628,95
3629,95
3630,95
3631,97
3632,97
3633,96
3634,98
3635,101
3636,106
3637,112
3638,116
3639,119
3640,125
3641,130
3642,134
3643,136
3644,137
3645,141
3646,146
3647,151
3648,154
3649,157
3650,159
3651,160
3652,162
3653,162
3654,162
3655,160
3656,159
3657,161
3658,164
3659,168
3660,170
3661,173
3662,177
3663,182
3664,183
3665,184
3666,185
3667,188
3668,196
3669,197
3670,196
3671,194
3672,189
3673,189
3674,183
3675,180
3676,176
3677,172
3678,171
3679,172
3680,172
3681,168
3682,166
3683,166
3684,165
3685,162
3686,159
3687,155
3688,148
3689,137
3690,126
3691,114
3692,103
3693,90
3694,82
3695,76
3696,72
3697,70
3698,71
3699,72
3700,71
3701,69
3702,65
3703,57
3704,40
3705,35
3706,32
3707,30
3708,31
3709,35
3710,37
3711,36
3712,35
3713,35
3714,39
3715,41
3716,42
3717,42
3718,41
3719,37
3720,35
3721,34
3722,31
3723,31
3724,35
3725,38
3726,40
3727,39
3728,36
3729,31
3730,32
3731,38
3732,43
3733,46
3734,46
3735,45
3736,43
3737,40
3738,36
3739,35
3740,35
3741,38
3742,41
3743,40
3744,41
3745,44
3746,48
3747,55
3748,59
3749,59
3750,57
3751,54
3752,52
3753,50
3754,50
3755,50
3756,50
3757,50
3758,51
3759,49
3760,46
3761,43
3762,42
3763,43
3764,47
3765,50
3766,53
3767,57
3768,59
3769,60
3770,61
3771,60
3772,56
3773,51
3774,52
3775,55
3776,58
3777,63
3778,71
3779,78
3780,82
3781,83
3782,82
3783,81
3784,80
3785,80
3786,83
3787,86
3788,89
3789,94
3790,99
3791,104
3792,109
3793,111
3794,111
3795,108
3796,103
3797,97
3798,93
3799,92
3800,91
3801,91
3802,92
3803,91
3804,88
3805,84
3806,78
3807,71
3808,70
3809,71
3810,72
3811,70
3812,65
3813,57
3814,46
3815,46
3816,32
3817,22
3818,15
3819,12
3820,13
3821,20
3822,29
3823,32
3824,31
3825,26
3826,18
3827,10
3828,4
3829,0
3830,0
3831,0
3832,2
3833,6
3834,9
3835,10
3836,11
3837,14
3838,16
3839,20
3840,25
3841,28
3842,29
3843,29
3844,28
3845,25
3846,20
3847,16
3848,13
3849,18
3850,33
3851,61
3852,101
3853,151
3854,211
3855,279
3856,348
3857,409
3858,456
3859,481
3860,483
3861,467
3862,432
3863,379
3864,306
3865,215
3866,109
3867,-8
3868,-125
3869,-232
3870,-315
3871,-366
3872,-377
3873,-353
3874,-304
3875,-248
3876,-191
3877,-135
3878,-49
3879,-18
3880,4
3881,20
3882,26
3883,27
3884,26
3885,24
3886,22
3887,23
3888,24
3889,24
3890,22
3891,18
3892,15
3893,11
3894,10
3895,13
3896,16
3897,22
3898,27
3899,31
3900,34
3901,37
3902,37
3903,37
3904,41
3905,45
3906,46
3907,49
3908,53
3909,55
3910,60
3911,63
3912,67
3913,69
3914,69
3915,72
3916,70
3917,67
3918,66
3919,68
3920,66
3921,67
3922,69
3923,68
3924,67
3925,65
3926,61
3927,58
3928,55
3929,56
3930,63
3931,71
3932,78
3933,85
3934,90
3935,89
3936,89
3937,87
3938,85
3939,85
3940,86
3941,88
3942,92
3943,94
3944,94
3945,95
3946,100
3947,103
3948,108
3949,116
3950,122
3951,125
3952,127
3953,129
3954,130
3955,131
3956,133
3957,133
3958,137
3959,141
3960,145
3961,148
3962,153
3963,155
3964,156
3965,160
3966,165
3967,172
3968,176
3969,178
3970,179
3971,179
3972,176
3973,173
3974,174
3975,179
3976,185
3977,188
3978,191
3979,191
3980,187
3981,182
3982,172
3983,168
3984,163
3985,160
3986,159
3987,158
3988,158
3989,162
3990,164
3991,165
3992,165
3993,162
3994,154
3995,144
3996,135
3997,127
3998,122
3999,118
4000,113
4001,111
4002,105
4003,98
4004,94
4005,92
4006,86
4007,82
4008,79
4009,72
4010,63
4011,52
4012,42
4013,35
4014,32
4015,32
4016,38
4017,40
4018,39
4019,35
4020,27
4021,22
4022,20
4023,19
4024,19
4025,21
4026,23
4027,22
4028,23
4029,24
4030,26
4031,27
4032,30
4033,30
4034,31
4035,27
4036,22
4037,20
4038,17
4039,15
4040,19
4041,24
4042,31
4043,38
4044,42
4045,41
4046,36
4047,27
4048,22
4049,20
4050,21
4051,24
4052,26
4053,26
4054,23
4055,18
4056,14
4057,15
4058,16
4059,21
4060,25
4061,27
4062,26
4063,25
4064,25
4065,27
4066,29
4067,32
4068,38
4069,41
4070,42
4071,45
4072,44
4073,40
4074,37
4075,34
4076,31
4077,29
4078,30
4079,32
4080,38
4081,40
4082,41
4083,43
4084,36
4085,33
4086,29
4087,25
4088,27
4089,30
4090,34
4091,38
4092,41
4093,47
4094,52
4095,53
4096,57
4097,63
4098,68
4099,75
4100,75
4101,82
4102,88
4103,91
4104,90
4105,91
4106,95
4107,100
4108,104
4109,113
4110,122
4111,126
4112,130
4113,131
4114,127
4115,123
4116,114
4117,107
4118,105
4119,105
4120,108
4121,112
4122,116
4123,118
4124,115
4125,108
4126,97
4127,82
4128,68
4129,55
4130,43
4131,32
4132,22
4133,16
4134,12
4135,10
4136,9
4137,10
4138,12
4139,14
4140,18
4141,22
4142,25
4143,28
4144,28
4145,27
4146,26
4147,24
4148,21
4149,20
4150,17
4151,15
4152,15
4153,15
4154,21
4155,25
4156,28
4157,33
4158,33
4159,31
4160,30
4161,27
4162,20
4163,14
4164,7
4165,6
4166,11
4167,26
4168,54
4169,94
4170,145
4171,205
4172,274
4173,346
4174,413
4175,466
4176,503
4177,518
4178,511
4179,483
4180,431
4181,359
4182,271
4183,166
4184,49
4185,-69
4186,-180
4187,-272
4188,-353
4189,-341
4190,-302
4191,-251
4192,-196
4193,-145
4194,-103
4195,-70
4196,-44
4197,-21
4198,-4
4199,6
4200,14
4201,17
4202,17
4203,16
4204,15
4205,14
4206,14
4207,14
4208,15
4209,18
4210,23
4211,25
4212,29
4213,34
4214,38
4215,41
4216,40
4217,40
4218,40
4219,39
4220,37
4221,39
4222,40
4223,44
4224,47
4225,48
4226,48
4227,48
4228,52
4229,57
4230,59
4231,61
4232,62
4233,61
4234,58
4235,54
4236,50
4237,47
4238,47
4239,50
4240,56
4241,58
4242,58
4243,58
4244,59
4245,60
4246,63
4247,65
4248,67
4249,69
4250,71
4251,75
4252,77
4253,77
4254,78
4255,80
4256,82
4257,85
4258,89
4259,89
4260,89
4261,88
4262,89
4263,91
4264,93
4265,100
4266,106
4267,113
4268,119
4269,122
4270,120
4271,118
4272,116
4273,115
4274,116
4275,119
4276,123
4277,128
4278,130
4279,132
4280,137
4281,141
4282,145
4283,153
4284,161
4285,166
4286,169
4287,169
4288,166
4289,164
4290,161
4291,159
4292,159
4293,159
4294,158
4295,156
4296,155
4297,151
4298,149
4299,149
4300,147
4301,149
4302,153
4303,154
4304,158
4305,161
4306,161
4307,162
4308,161
4309,157
4310,152
4311,144
4312,135
4313,129
4314,120
4315,110
4316,104
4317,98
4318,91
4319,82
4320,71
4321,63
4322,57
4323,51
4324,51
4325,48
4326,45
4327,43
4328,36
4329,31
4330,26
4331,24
4332,23
4333,18
4334,11
4335,6
4336,2
4337,1
4338,2
4339,3
4340,5
4341,7
4342,6
4343,2
4344,-2
4345,-10
4346,-13
4347,-12
4348,-9
4349,-4
4350,2
4351,6
4352,9
4353,10
4354,8
4355,6
4356,7
4357,12
4358,19
4359,25
4360,30
4361,31
4362,23
4363,16
4364,8
4365,2
4366,0
4367,0
4368,0
4369,0
4370,0
4371,3
4372,5
4373,6
4374,6
4375,6
4376,6
4377,7
4378,9
4379,13
4380,18
4381,25
4382,28
4383,29
4384,29
4385,28
4386,24
4387,21
4388,18
4389,17
4390,17
4391,17
4392,18
4393,19
4394,20
4395,19
4396,20
4397,20
4398,28
4399,27
4400,27
4401,28
4402,26
4403,24
4404,25
4405,29
4406,32
4407,36
4408,43
4409,49
4410,51
4411,49
4412,48
4413,47
4414,47
4415,49
4416,56
4417,65
4418,71
4419,76
4420,83
4421,85
4422,87
4423,89
4424,90
4425,88
4426,82
4427,77
4428,71
4429,63
4430,58
4431,58
4432,64
4433,65
4434,62
4435,54
4436,43
4437,32
4438,23
4439,16
4440,10
4441,9
4442,9
4443,8
4444,7
4445,4
4446,0
4447,-2
4448,-3
4449,-1
4450,-1
4451,-1
4452,-2
4453,-1
4454,-2
4455,-3
4456,-4
4457,-5
4458,-4
4459,-3
4460,-2
4461,0
4462,0
4463,-1
4464,0
4465,3
4466,3
4467,1
4468,1
4469,0
4470,0
4471,-1
4472,-2
4473,-5
4474,-6
4475,4
4476,26
4477,55
4478,98
4479,148
4480,204
4481,266
4482,332
4483,391
4484,439
4485,470
4486,477
4487,462
4488,426
4489,369
4490,292
4491,197
4492,94
4493,-15
4494,-127
4495,-230
4496,-311
4497,-362
4498,-378
4499,-361
4500,-318
4501,-265
4502,-160
4503,-116
4504,-80
4505,-50
4506,-26
4507,-7
4508,7
4509,16
4510,20
4511,23
4512,28
4513,32
4514,35
4515,37
4516,36
4517,34
4518,31
4519,27
4520,26
4521,26
4522,26
4523,29
4524,34
4525,40
4526,40
4527,47
4528,55
4529,61
4530,66
4531,67
4532,66
4533,62
4534,55
4535,48
4536,43
4537,39
4538,38
4539,40
4540,42
4541,44
4542,47
4543,50
4544,53
4545,56
4546,60
4547,62
4548,64
4549,65
4550,65
4551,64
4552,64
4553,64
4554,62
4555,61
4556,62
4557,63
4558,61
4559,58
4560,58
4561,62
4562,67
4563,74
4564,81
4565,89
4566,93
4567,95
4568,95
4569,95
4570,96
4571,98
4572,103
4573,105
4574,106
4575,107
4576,109
4577,112
4578,117
4579,124
4580,131
4581,138
4582,143
4583,145
4584,146
4585,145
4586,143
4587,142
4588,142
4589,146
4590,152
4591,156
4592,161
4593,166
4594,167
4595,166
4596,165
4597,162
4598,159
4599,156
4600,156
4601,158
4602,161
4603,164
4604,166
4605,168
4606,168
4607,167
4608,165
4609,157
4610,152
4611,148
4612,146
4613,143
4614,142
4615,143
4616,143
4617,142
4618,139
4619,135
4620,129
4621,121
4622,115
4623,109
4624,101
4625,92
4626,83
4627,80
4628,76
4629,70
4630,66
4631,64
4632,61
4633,57
4634,53
4635,48
4636,45
4637,43
4638,42
4639,43
4640,36
4641,31
4642,26
4643,19
4644,12
4645,5
4646,0
4647,-5
4648,-7
4649,-8
4650,-6
4651,-6
4652,-6
4653,-4
4654,-3
4655,-2
4656,0
4657,0
4658,0
4659,0
4660,-1
4661,-2
4662,-4
4663,-7
4664,-6
4665,-5
4666,-4
4667,-3
4668,-2
4669,-2
4670,-4
4671,-4
4672,-7
4673,-9
4674,-7
4675,-6
4676,-1
4677,4
4678,6
4679,8
4680,10
4681,10
4682,9
4683,10
4684,11
4685,17
4686,21
4687,19
4688,18
4689,15
4690,8
4691,6
4692,8
4693,11
4694,18
4695,23
4696,21
4697,17
4698,12
4699,5
4700,1
4701,0
4702,4
4703,14
4704,23
4705,32
4706,42
4707,47
4708,52
4709,53
4710,53
4711,47
4712,45
4713,46
4714,47
4715,45
4716,42
4717,36
4718,27
4719,18
4720,10
4721,5
4722,6
4723,13
4724,21
4725,27
4726,32
4727,35
4728,35
4729,38
4730,38
4731,37
4732,35
4733,34
4734,32
4735,32
4736,30
4737,32
4738,36
4739,39
4740,42
4741,43
4742,40
4743,37
4744,38
4745,42
4746,53
4747,55
4748,59
4749,62
4750,59
4751,52
4752,42
4753,36
4754,35
4755,38
4756,39
4757,37
4758,32
4759,24
4760,16
4761,8
4762,-2
4763,-10
4764,-14
4765,-19
4766,-25
4767,-34
4768,-48
4769,-63
4770,-70
4771,-73
4772,-72
4773,-69
4774,-64
4775,-61
4776,-55
4777,-51
4778,-48
4779,-44
4780,-42
4781,-40
4782,-41
4783,-46
4784,-51
4785,-57
4786,-61
4787,-62
4788,-63
4789,-63
4790,-59
4791,-52
4792,-47
4793,-46
4794,-47
4795,-47
4796,-44
4797,-32
4798,-9
4799,23
4800,64
4801,109
4802,162
4803,219
4804,278
4805,334
4806,383
4807,421
4808,439
4809,436
4810,412
4811,412
4812,412
4813,284
4814,187
4815,74
4816,-44
4817,-264
4818,-344
4819,-392
4820,-403
4821,-378
4822,-330
4823,-275
4824,-219
4825,-165
4826,-121
4827,-84
4828,-59
4829,-42
4830,-30
4831,-24
4832,-21
4833,-18
4834,-16
4835,-14
4836,-8
4837,-4
4838,-2
4839,0
4840,0
4841,0
4842,4
4843,6
4844,3
4845,4
4846,7
4847,6
4848,8
4849,11
4850,17
4851,36
4852,42
4853,45
4854,47
4855,50
4856,54
4857,60
4858,64
4859,69
4860,76
4861,79
4862,79
4863,80
4864,76
4865,69
4866,66
4867,60
4868,54
4869,49
4870,48
4871,48
4872,54
4873,61
4874,67
4875,71
4876,73
4877,75
4878,79
4879,84
4880,92
4881,101
4882,107
4883,111
4884,111
4885,108
4886,103
4887,98
4888,102
4889,111
4890,122
4891,134
4892,146
4893,154
4894,161
4895,167
4896,171
4897,175
4898,178
4899,182
4900,191
4901,201
4902,209
4903,217
4904,226
4905,233
4906,241
4907,248
4908,256
4909,266
4910,274
4911,282
4912,291
4913,301
4914,310
4915,318
4916,326
4917,331
4918,332
4919,328
4920,328
4921,331
4922,338
4923,347
4924,358
4925,364
4926,362
4927,350
4928,336
4929,323
4930,315
4931,312
4932,313
4933,315
4934,315
4935,312
4936,310
4937,309
4938,304
4939,299
4940,299
4941,303
4942,302
4943,294
4944,285
4945,275
4946,264
4947,252
4948,237
4949,219
4950,198
4951,181
4952,170
4953,165
4954,160
4955,160
4956,163
4957,163
4958,163
4959,162
4960,154
4961,146
4962,137
4963,127
4964,116
4965,106
4966,100
4967,99
4968,97
4969,96
4970,94
4971,88
4972,76
4973,67
4974,62
4975,60
4976,63
4977,69
4978,74
4979,76
4980,72
4981,68
4982,62
4983,56
4984,52
4985,55
4986,59
4987,63
4988,68
4989,78
4990,85
4991,91
4992,97
4993,99
4994,96
4995,92
4996,85
4997,77
4998,72
4999,69
5000,69
5001,71
5002,72
5003,71
5004,69
5005,67
5006,64
5007,63
5008,65
5009,71
5010,80
5011,86
5012,90
5013,93
5014,93
5015,91
5016,90
5017,89
5018,84
5019,83
5020,79
5021,78
5022,84
5023,99
5024,113
5025,117
5026,110
5027,100
5028,86
5029,70
5030,61
5031,58
5032,61
5033,71
5034,76
5035,79
5036,80
5037,71
5038,61
5039,59
5040,55
5041,50
5042,47
5043,44
5044,40
5045,36
5046,33
5047,31
5048,30
5049,24
5050,23
5051,29
5052,36
5053,43
5054,48
5055,53
5056,54
5057,56
5058,62
5059,67
5060,73
5061,74
5062,70
5063,60
5064,42
5065,23
5066,18
5067,21
5068,28
5069,43
5070,54
5071,60
5072,61
5073,59
5074,56
5075,56
5076,63
5077,71
5078,83
5079,99
5080,113
5081,122
5082,131
5083,137
5084,138
5085,138
5086,134
5087,125
5088,118
5089,106
5090,90
5091,78
5092,45
5093,29
5094,19
5095,19
5096,12
5097,8
5098,9
5099,8
5100,8
5101,9
5102,6
5103,7
5104,7
5105,6
5106,9
5107,15
5108,19
5109,20
5110,21
5111,18
5112,17
5113,20
5114,21
5115,20
5116,20
5117,17
5118,14
5119,12
5120,5
5121,-1
5122,-2
5123,0
5124,6
5125,13
5126,11
5127,11
5128,17
5129,29
5130,51
5131,89
5132,139
5133,197
5134,266
5135,338
5136,403
5137,452
5138,486
5139,502
5140,502
5141,484
5142,442
5143,377
5144,287
5145,171
5146,37
5147,-100
5148,-231
5149,-342
5150,-415
5151,-440
5152,-424
5153,-378
5154,-317
5155,-251
5156,-189
5157,-136
5158,-95
5159,-66
5160,-49
5161,-41
5162,-37
5163,-39
5164,-42
5165,-43
5166,-44
5167,-45
5168,-41
5169,-32
5170,-20
5171,-6
5172,6
5173,17
5174,23
5175,24
5176,21
5177,15
5178,10
5179,5
5180,5
5181,9
5182,12
5183,13
5184,16
5185,15
5186,11
5187,9
5188,7
5189,6
5190,10
5191,16
5192,24
5193,33
5194,37
5195,39
5196,39
5197,37
5198,37
5199,40
5200,43
5201,47
5202,52
5203,56
5204,57
5205,59
5206,59
5207,60
5208,59
5209,59
5210,60
5211,64
5212,69
5213,78
5214,88
5215,98
5216,106
5217,110
5218,110
5219,107
5220,106
5221,105
5222,105
5223,107
5224,111
5225,115
5226,120
5227,124
5228,129
5229,130
5230,128
5231,124
5232,118
5233,111
5234,108
5235,105
5236,106
5237,107
5238,107
5239,110
5240,116
5241,121
5242,128
5243,140
5244,150
5245,155
5246,156
5247,155
5248,151
5249,147
5250,143
5251,142
5252,143
5253,146
5254,152
5255,157
5256,156
5257,155
5258,152
5259,148
5260,144
5261,141
5262,139
5263,135
5264,133
5265,131
5266,122
5267,119
5268,119
5269,122
5270,125
5271,128
5272,128
5273,125
5274,116
5275,105
5276,91
5277,76
5278,63
5279,58
5280,55
5281,55
5282,54
5283,51
5284,41
5285,32
5286,22
5287,11
5288,1
5289,-4
5290,-5
5291,1
5292,8
5293,11
5294,11
5295,6
5296,0
5297,-8
5298,-16
5299,-22
5300,-27
5301,-30
5302,-31
5303,-33
5304,-37
5305,-40
5306,-40
5307,-38
5308,-35
5309,-33
5310,-34
5311,-32
5312,-32
5313,-32
5314,-31
5315,-29
5316,-30
5317,-32
5318,-35
5319,-37
5320,-36
5321,-33
5322,-28
5323,-22
5324,-16
5325,-11
5326,-6
5327,-1
5328,2
5329,2
5330,2
5331,0
5332,-4
5333,-10
5334,-19
5335,-22
5336,-22
5337,-20
5338,-18
5339,-17
5340,-13
5341,-8
5342,-4
5343,0
5344,1
5345,3
5346,4
5347,5
5348,7
5349,11
5350,14
5351,16
5352,17
5353,20
5354,19
5355,15
5356,13
5357,11
5358,10
5359,11
5360,10
5361,10
5362,12
5363,13
5364,15
5365,19
5366,21
5367,24
5368,33
5369,36
5370,35
5371,31
5372,28
5373,29
5374,32
5375,34
5376,37
5377,41
5378,45
5379,49
5380,49
5381,50
5382,50
5383,52
5384,55
5385,60
5386,67
5387,72
5388,72
5389,72
5390,72
5391,73
5392,73
5393,75
5394,78
5395,84
5396,89
5397,93
5398,94
5399,92
5400,92
5401,93
5402,96
5403,100
5404,108
5405,111
5406,108
5407,103
5408,98
5409,88
5410,76
5411,67
5412,58
5413,50
5414,45
5415,41
5416,40
5417,38
5418,35
5419,31
5420,29
5421,23
5422,19
5423,13
5424,5
5425,-2
5426,-8
5427,-9
5428,-6
5429,-3
5430,1
5431,8
5432,10
5433,11
5434,7
5435,3
5436,2
5437,2
5438,10
5439,12
5440,14
5441,15
5442,15
5443,13
5444,8
5445,1
5446,0
5447,0
5448,0
5449,0
5450,-5
5451,-8
5452,-4
5453,6
5454,29
5455,68
5456,117
5457,179
5458,249
5459,322
5460,389
5461,440
5462,469
5463,480
5464,473
5465,447
5466,401
5467,334
5468,249
5469,146
5470,29
5471,-90
5472,-204
5473,-360
5474,-386
5475,-372
5476,-332
5477,-279
5478,-219
5479,-163
5480,-115
5481,-74
5482,-45
5483,-23
5484,-8
5485,-2
5486,-1
5487,0
5488,0
5489,1
5490,6
5491,11
5492,15
5493,17
5494,16
5495,13
5496,8
5497,4
5498,2
5499,2
5500,5
5501,10
5502,16
5503,22
5504,25
5505,23
5506,27
5507,33
5508,38
5509,40
5510,38
5511,34
5512,29
5513,27
5514,28
5515,29
5516,32
5517,38
5518,43
5519,41
5520,39
5521,38
5522,38
5523,34
5524,32
5525,31
5526,31
5527,34
5528,37
5529,40
5530,44
5531,46
5532,46
5533,47
5534,46
5535,44
5536,46
5537,48
5538,50
5539,56
5540,57
5541,56
5542,55
5543,55
5544,60
5545,65
5546,71
5547,76
5548,78
5549,79
5550,77
5551,73
5552,69
5553,69
5554,73
5555,77
5556,82
5557,88
5558,91
5559,93
5560,94
5561,95
5562,96
5563,98
5564,103
5565,108
5566,111
5567,115
5568,120
5569,124
5570,127
5571,132
5572,135
5573,136
5574,140
5575,144
5576,148
5577,150
5578,149
5579,146
5580,141
5581,138
5582,135
5583,131
5584,128
5585,125
5586,124
5587,122
5588,119
5589,116
5590,119
5591,121
5592,122
5593,121
5594,116
5595,109
5596,102
5597,96
5598,92
5599,92
5600,91
5601,91
5602,90
5603,85
5604,75
5605,64
5606,53
5607,44
5608,38
5609,36
5610,35
5611,35
5612,31
5613,22
5614,16
5615,10
5616,4
5617,1
5618,0
5619,2
5620,2
5621,4
5622,6
5623,6
5624,8
5625,8
5626,2
5627,-3
5628,-10
5629,-17
5630,-20
5631,-18
5632,-17
5633,-10
5634,-6
5635,-5
5636,-5
5637,-8
5638,-14
5639,-14
5640,-12
5641,-11
5642,-8
5643,-3
5644,-4
5645,-5
5646,-4
5647,-2
5648,4
5649,5
5650,3
5651,-1
5652,-7
5653,-12
5654,-12
5655,-13
5656,-10
5657,-4
5658,0
5659,0
5660,0
5661,-2
5662,-5
5663,-6
5664,-6
5665,-7
5666,-5
5667,-2
5668,0
5669,2
5670,7
5671,10
5672,14
5673,19
5674,21
5675,22
5676,21
5677,16
5678,11
5679,5
5680,0
5681,-3
5682,-4
5683,-3
5684,3
5685,4
5686,4
5687,4
5688,4
5689,4
5690,4
5691,6
5692,11
5693,16
5694,20
5695,27
5696,32
5697,37
5698,39
5699,42
5700,42
5701,39
5702,35
5703,34
5704,35
5705,37
5706,39
5707,43
5708,49
5709,54
5710,55
5711,54
5712,52
5713,51
5714,53
5715,61
5716,71
5717,80
5718,93
5719,95
5720,92
5721,86
5722,82
5723,84
5724,91
5725,98
5726,108
5727,116
5728,118
5729,118
5730,114
5731,107
5732,99
5733,92
5734,85
5735,79
5736,75
5737,70
5738,68
5739,66
5740,62
5741,59
5742,55
5743,48
5744,41
5745,37
5746,31
5747,29
5748,30
5749,32
5750,33
5751,39
5752,39
5753,40
5754,41
5755,42
5756,41
5757,40
5758,39
5759,39
5760,37
5761,40
5762,43
5763,47
5764,49
5765,47
5766,46
5767,45
5768,40
5769,36
5770,37
5771,37
5772,36
5773,34
5774,31
5775,32
5776,39
5777,57
5778,92
5779,142
5780,201
5781,267
5782,338
5783,405
5784,458
5785,490
5786,499
5787,489
5788,416
5789,352
5790,276
5791,184
5792,76
5793,-36
5794,-145
5795,-239
5796,-307
5797,-340
5798,-334
5799,-298
5800,-246
5801,-190
5802,-135
5803,-86
5804,-49
5805,-22
5806,0
5807,0
5808,16
5809,26
5810,32
5811,36
5812,39
5813,43
5814,46
5815,51
5816,55
5817,58
5818,62
5819,64
5820,65
5821,66
5822,73
5823,77
5824,81
5825,84
5826,84
5827,82
5828,79
5829,77
5830,76
5831,77
5832,77
5833,78
5834,81
5835,82
5836,85
5837,87
5838,87
5839,90
5840,93
5841,93
5842,91
5843,89
5844,86
5845,85
5846,88
5847,92
5848,99
5849,106
5850,109
5851,109
5852,110
5853,107
5854,100
5855,93
5856,86
5857,85
5858,89
5859,93
5860,98
5861,101
5862,104
5863,108
5864,112
5865,113
5866,116
5867,117
5868,118
5869,118
5870,120
5871,120
5872,121
5873,125
5874,131
5875,135
5876,139
5877,140
5878,141
5879,138
5880,135
5881,135
5882,138
5883,144
5884,151
5885,158
5886,165
5887,170
5888,172
5889,173
5890,174
5891,182
5892,190
5893,192
5894,193
5895,192
5896,187
5897,184
5898,183
5899,181
5900,182
5901,184
5902,184
5903,184
5904,183
5905,183
5906,186
5907,189
5908,195
5909,198
5910,197
5911,195
5912,193
5913,191
5914,191
5915,190
5916,187
5917,187
5918,184
5919,179
5920,175
5921,173
5922,169
5923,166
5924,164
5925,150
5926,140
5927,128
5928,119
5929,110
5930,100
5931,94
5932,91
5933,88
5934,86
5935,85
5936,82
5937,78
5938,76
5939,75
5940,74
5941,69
5942,64
5943,59
5944,52
5945,46
5946,42
5947,39
5948,39
5949,39
5950,38
5951,37
5952,36
5953,36
5954,36
5955,38
5956,40
5957,43
5958,46
5959,45
5960,45
5961,43
5962,41
5963,42
5964,41
5965,42
5966,42
5967,39
5968,38
5969,38
5970,38
5971,41
5972,44
5973,44
5974,45
5975,48
5976,49
5977,50
5978,49
5979,49
5980,51
5981,54
5982,56
5983,60
5984,63
5985,64
5986,65
5987,64
5988,64
5989,66
5990,68
5991,73
5992,79
5993,79
5994,78
5995,73
5996,69
5997,65
5998,61
5999,59
6000,59
6001,57
6002,53
6003,52
6004,55
6005,58
6006,61
6007,67
6008,71
6009,71
6010,71
6011,69
6012,70
6013,69
6014,68
6015,69
6016,71
6017,69
6018,67
6019,64
6020,63
6021,63
6022,64
6023,66
6024,68
6025,68
6026,69
6027,70
6028,68
6029,71
6030,72
6031,76
6032,81
6033,84
6034,84
6035,84
6036,83
6037,85
6038,86
6039,87
6040,89
6041,90
6042,91
6043,92
6044,92
6045,95
6046,97
6047,100
6048,104
6049,106
6050,108
6051,110
6052,112
6053,114
6054,115
6055,119
6056,124
6057,126
6058,128
6059,129
6060,129
6061,127
6062,124
6063,118
6064,114
6065,113
6066,114
6067,115
6068,113
6069,110
6070,104
6071,95
6072,87
6073,79
6074,71
6075,63
6076,57
6077,53
6078,48
6079,44
6080,41
6081,38
6082,35
6083,34
6084,34
6085,35
6086,36
6087,37
6088,37
6089,36
6090,31
6091,31
6092,26
6093,20
6094,17
6095,15
6096,16
6097,19
6098,21
6099,25
6100,23
6101,18
6102,15
6103,15
6104,18
6105,21
6106,23
6107,21
6108,18
6109,15
6110,19
6111,34
6112,61
6113,98
6114,148
6115,204
6116,263
6117,326
6118,393
6119,451
6120,495
6121,520
6122,524
6123,505
6124,459
6125,388
6126,298
6127,194
6128,78
6129,-40
6130,-151
6131,-251
6132,-325
6133,-361
6134,-329
6135,-279
6136,-221
6137,-161
6138,-106
6139,-61
6140,-28
6141,-4
6142,14
6143,23
6144,29
6145,33
6146,35
6147,36
6148,36
6149,37
6150,38
6151,41
6152,44
6153,47
6154,52
6155,56
6156,60
6157,63
6158,68
6159,72
6160,76
6161,80
6162,79
6163,77
6164,72
6165,57
6166,54
6167,53
6168,55
6169,61
6170,68
6171,74
6172,78
6173,80
6174,80
6175,79
6176,78
6177,78
6178,81
6179,83
6180,85
6181,87
6182,87
6183,88
6184,89
6185,90
6186,91
6187,90
6188,87
6189,84
6190,82
6191,79
6192,76
6193,77
6194,82
6195,86
6196,89
6197,94
6198,98
6199,101
6200,103
6201,104
6202,102
6203,102
6204,107
6205,113
6206,118
6207,123
6208,127
6209,129
6210,129
6211,129
6212,131
6213,133
6214,137
6215,140
6216,143
6217,144
6218,144
6219,145
6220,145
6221,146
6222,147
6223,151
6224,154
6225,157
6226,161
6227,164
6228,167
6229,169
6230,170
6231,169
6232,167
6233,167
6234,167
6235,169
6236,170
6237,171
6238,172
6239,173
6240,174
6241,172
6242,170
6243,166
6244,163
6245,160
6246,156
6247,153
6248,152
6249,150
6250,150
6251,148
6252,146
6253,144
6254,142
6255,140
6256,137
6257,132
6258,124
6259,116
6260,110
6261,104
6262,99
6263,95
6264,92
6265,87
6266,79
6267,70
6268,50
6269,42
6270,36
6271,33
6272,32
6273,31
6274,30
6275,29
6276,23
6277,18
6278,14
6279,11
6280,6
6281,4
6282,1
6283,0
6284,1
6285,2
6286,2
6287,3
6288,2
6289,0
6290,0
6291,0
6292,-1
6293,-1
6294,-3
6295,-7
6296,-10
6297,-13
6298,-12
6299,-7
6300,-2
6301,1
6302,8
6303,6
6304,2
6305,1
6306,0
6307,2
6308,5
6309,7
6310,7
6311,6
6312,4
6313,3
6314,3
6315,5
6316,7
6317,9
6318,8
6319,6
6320,7
6321,7
6322,8
6323,11
6324,12
6325,10
6326,10
6327,9
6328,7
6329,7
6330,5
6331,5
6332,6
6333,8
6334,9
6335,10
6336,11
6337,14
6338,15
6339,17
6340,18
6341,16
6342,12
6343,9
6344,5
6345,2
6346,1
6347,2
6348,6
6349,9
6350,11
6351,12
6352,14
6353,12
6354,12
6355,14
6356,17
6357,20
6358,26
6359,33
6360,37
6361,40
6362,41
6363,40
6364,39
6365,38
6366,37
6367,38
6368,40
6369,40
6370,43
6371,45
6372,49
6373,57
6374,71
6375,71
6376,84
6377,95
6378,102
6379,101
6380,96
6381,88
6382,80
6383,73
6384,68
6385,65
6386,69
6387,72
6388,74
6389,75
6390,77
6391,76
6392,73
6393,70
6394,62
6395,51
6396,41
6397,31
6398,20
6399,9
6400,-1
6401,-8
6402,-10
6403,-10
6404,-6
6405,7
6406,8
6407,6
6408,0
6409,-7
6410,-15
6411,-24
6412,-26
6413,-24
6414,-22
6415,-17
6416,-10
6417,-8
6418,-8
6419,-11
6420,-16
6421,-23
6422,-30
6423,-32
6424,-30
6425,-25
6426,-18
6427,-9
6428,-4
6429,-4
6430,-8
6431,-14
6432,-20
6433,-22
6434,-11
6435,11
6436,46
6437,150
6438,216
6439,286
6440,353
6441,411
6442,452
6443,469
6444,464
6445,440
6446,390
6447,315
6448,222
6449,117
6450,1
6451,-117
6452,-224
6453,-311
6454,-371
6455,-396
6456,-386
6457,-350
6458,-303
6459,-253
6460,-202
6461,-156
6462,-119
6463,-89
6464,-65
6465,-44
6466,-33
6467,-26
6468,-21
6469,-18
6470,-15
6471,-12
6472,-3
6473,1
6474,4
6475,6
6476,5
6477,2
6478,-1
6479,-2
6480,0
6481,0
6482,2
6483,6
6484,7
6485,8
6486,10
6487,11
6488,11
6489,12
6490,16
6491,23
6492,29
6493,32
6494,32
6495,27
6496,20
6497,15
6498,17
6499,18
6500,22
6501,27
6502,30
6503,32
6504,31
6505,27
6506,24
6507,23
6508,25
6509,27
6510,25
6511,25
6512,26
6513,30
6514,35
6515,44
6516,53
6517,59
6518,59
6519,61
6520,62
6521,61
6522,60
6523,60
6524,63
6525,67
6526,72
6527,76
6528,78
6529,78
6530,77
6531,77
6532,78
6533,83
6534,88
6535,94
6536,98
6537,100
6538,101
6539,102
6540,103
6541,114
6542,117
6543,119
6544,123
6545,123
6546,121
6547,119
6548,116
6549,117
6550,120
6551,123
6552,129
6553,135
6554,138
6555,141
6556,147
6557,151
6558,154
6559,157
6560,156
6561,154
6562,152
6563,150
6564,149
6565,151
6566,152
6567,151
6568,149
6569,147
6570,140
6571,133
6572,128
6573,124
6574,124
6575,127
6576,125
6577,121
6578,113
6579,108
6580,103
6581,97
6582,92
6583,89
6584,86
6585,85
6586,84
6587,78
6588,72
6589,65
6590,54
6591,41
6592,31
6593,25
6594,24
6595,23
6596,22
6597,22
6598,21
6599,16
6600,11
6601,7
6602,2
6603,0
6604,0
6605,-1
6606,-4
6607,-8
6608,-11
6609,-11
6610,-6
6611,0
6612,-1
6613,-1
6614,-2
6615,-4
6616,-7
6617,-8
6618,-9
6619,-8
6620,-4
6621,-3
6622,-4
6623,-6
6624,-7
6625,-4
6626,0
6627,5
6628,10
6629,16
6630,23
6631,30
6632,33
6633,30
6634,27
6635,21
6636,11
6637,2
6638,-3
6639,-5
6640,-4
6641,3
6642,13
6643,23
6644,28
6645,31
6646,28
6647,25
6648,22
6649,19
6650,22
6651,28
6652,31
6653,37
6654,40
6655,41
6656,44
6657,44
6658,40
6659,38
6660,38
6661,33
6662,26
6663,23
6664,19
6665,14
6666,14
6667,19
6668,26
6669,33
6670,36
6671,37
6672,34
6673,26
6674,22
6675,21
6676,21
6677,25
6678,32
6679,43
6680,51
6681,54
6682,57
6683,59
6684,59
6685,58
6686,56
6687,55
6688,54
6689,56
6690,59
6691,60
6692,62
6693,65
6694,68
6695,74
6696,79
6697,84
6698,88
6699,91
6700,93
6701,91
6702,89
6703,86
6704,80
6705,75
6706,73
6707,70
6708,66
6709,62
6710,59
6711,54
6712,47
6713,39
6714,33
6715,27
6716,19
6717,13
6718,11
6719,8
6720,8
6721,8
6722,5
6723,2
6724,0
6725,0
6726,-2
6727,-3
6728,-1
6729,1
6730,5
6731,6
6732,7
6733,7
6734,4
6735,3
6736,1
6737,0
6738,1
6739,8
6740,14
6741,18
6742,19
6743,21
6744,21
6745,19
6746,15
6747,10
6748,4
6749,4
6750,9
6751,26
6752,53
6753,142
6754,200
6755,263
6756,330
6757,389
6758,437
6759,467
6760,473
6761,456
6762,418
6763,359
6764,282
6765,187
6766,82
6767,-26
6768,-131
6769,-228
6770,-306
6771,-356
6772,-372
6773,-355
6774,-316
6775,-264
6776,-209
6777,-158
6778,-113
6779,-76
6780,-46
6781,-25
6782,-13
6783,-5
6784,-3
6785,-3
6786,-3
6787,-3
6788,3
6789,8
6790,17
6791,26
6792,30
6793,32
6794,33
6795,30
6796,26
6797,22
6798,17
6799,15
6800,15
6801,16
6802,16
6803,21
6804,29
6805,31
6806,34
6807,38
6808,39
6809,39
6810,41
6811,41
6812,42
6813,43
6814,43
6815,43
6816,45
6817,47
6818,50
6819,52
6820,52
6821,51
6822,47
6823,38
6824,35
6825,33
6826,35
6827,37
6828,40
6829,45
6830,48
6831,53
6832,59
6833,63
6834,65
6835,67
6836,66
6837,63
6838,65
6839,67
6840,69
6841,73
6842,78
6843,83
6844,88
6845,92
6846,97
6847,103
6848,106
6849,107
6850,108
6851,110
6852,110
6853,114
6854,118
6855,121
6856,123
6857,121
6858,119
6859,117
6860,118
6861,120
6862,124
6863,131
6864,136
6865,139
6866,143
6867,149
6868,157
6869,161
6870,162
6871,163
6872,164
6873,164
6874,164
6875,164
6876,165
6877,164
6878,165
6879,167
6880,166
6881,166
6882,165
6883,165
6884,166
6885,164
6886,158
6887,151
6888,146
6889,141
6890,139
6891,143
6892,146
6893,147
6894,144
6895,139
6896,133
6897,126
6898,121
6899,117
6900,110
6901,103
6902,93
6903,80
6904,68
6905,58
6906,50
6907,45
6908,43
6909,42
6910,42
6911,40
6912,35
6913,32
6914,29
6915,29
6916,32
6917,32
6918,29
6919,26
6920,24
6921,18
6922,12
6923,7
6924,2
6925,1
6926,3
6927,5
6928,2
6929,2
6930,4
6931,9
6932,11
6933,13
6934,13
6935,13
6936,11
6937,10
6938,8
6939,7
6940,9
6941,15
6942,19
6943,19
6944,19
6945,16
6946,13
6947,8
6948,6
6949,7
6950,10
6951,16
6952,22
6953,27
6954,31
6955,32
6956,30
6957,28
6958,27
6959,25
6960,28
6961,30
6962,32
6963,34
6964,35
6965,36
6966,35
6967,32
6968,30
6969,27
6970,28
6971,30
6972,31
6973,35
6974,42
6975,46
6976,49
6977,49
6978,46
6979,43
6980,43
6981,42
6982,40
6983,39
6984,38
6985,37
6986,36
6987,37
6988,40
6989,41
6990,42
6991,44
6992,45
6993,45
6994,46
6995,50
6996,53
6997,56
6998,58
6999,57
7000,53
7001,51
7002,50
7003,50
7004,52
7005,57
7006,62
7007,66
7008,69
7009,72
7010,74
7011,76
7012,80
7013,83
7014,88
7015,93
7016,102
7017,113
7018,122
7019,125
7020,124
7021,122
7022,117
7023,112
7024,108
7025,106
7026,105
7027,104
7028,105
7029,108
7030,109
7031,111
7032,115
7033,124
7034,119
7035,108
7036,93
7037,74
7038,54
7039,36
7040,24
7041,19
7042,18
7043,21
7044,27
7045,30
7046,31
7047,35
7048,38
7049,39
7050,37
7051,33
7052,28
7053,25
7054,20
7055,17
7056,19
7057,20
7058,24
7059,31
7060,34
7061,34
7062,34
7063,33
7064,34
7065,34
7066,31
7067,29
7068,33
7069,32
7070,28
7071,24
7072,23
7073,28
7074,41
7075,65
7076,101
7077,145
7078,203
7079,268
7080,338
7081,406
7082,460
7083,498
7084,518
7085,516
7086,493
7087,493
7088,448
7089,383
7090,298
7091,195
7092,81
7093,-37
7094,-153
7095,-255
7096,-329
7097,-365
7098,-361
7099,-328
7100,-279
7101,-219
7102,-157
7103,-104
7104,-24
7105,-2
7106,13
7107,21
7108,23
7109,24
7110,23
7111,23
7112,27
7113,30
7114,33
7115,34
7116,33
7117,32
7118,34
7119,37
7120,40
7121,45
7122,49
7123,49
7124,48
7125,48
7126,46
7127,43
7128,42
7129,44
7130,47
7131,51
7132,51
7133,50
7134,49
7135,49
7136,51
7137,56
7138,61
7139,61
7140,61
7141,57
7142,51
7143,46
7144,43
7145,42
7146,45
7147,48
7148,51
7149,54
7150,56
7151,55
7152,54
7153,55
7154,57
7155,62
7156,66
7157,69
7158,75
7159,80
7160,82
7161,86
7162,92
7163,93
7164,93
7165,93
7166,92
7167,89
7168,85
7169,84
7170,86
7171,91
7172,96
7173,110
7174,116
7175,122
7176,129
7177,132
7178,135
7179,134
7180,131
7181,129
7182,129
7183,129
7184,130
7185,135
7186,142
7187,151
7188,157
7189,161
7190,163
7191,163
7192,161
7193,159
7194,157
7195,155
7196,152
7197,155
7198,159
7199,165
7200,172
7201,178
7202,182
7203,186
7204,188
7205,187
7206,183
7207,179
7208,166
7209,160
7210,156
7211,155
7212,154
7213,153
7214,154
7215,153
7216,150
7217,147
7218,144
7219,138
7220,133
7221,127
7222,119
7223,110
7224,101
7225,94
7226,88
7227,82
7228,77
7229,77
7230,74
7231,69
7232,65
7233,60
7234,54
7235,51
7236,47
7237,42
7238,36
7239,28
7240,18
7241,11
7242,7
7243,7
7244,10
7245,10
7246,9
7247,4
7248,-2
7249,-7
7250,-9
7251,-9
7252,-6
7253,-1
7254,4
7255,5
7256,5
7257,4
7258,5
7259,5
7260,6
7261,7
7262,7
7263,6
7264,6
7265,5
7266,6
7267,6
7268,11
7269,18
7270,23
7271,26
7272,26
7273,22
7274,19
7275,17
7276,16
7277,19
7278,22
7279,26
7280,30
7281,29
7282,29
7283,29
7284,28
7285,27
7286,26
7287,24
7288,23
7289,22
7290,21
7291,21
7292,22
7293,21
7294,24
7295,27
7296,29
7297,32
7298,36
7299,42
7300,45
7301,45
7302,44
7303,40
7304,36
7305,32
7306,29
7307,28
7308,28
7309,30
7310,32
7311,33
7312,30
7313,22
7314,20
7315,22
7316,28
7317,35
7318,42
7319,44
7320,44
7321,41
7322,34
7323,29
7324,26
7325,25
7326,27
7327,32
7328,38
7329,44
7330,46
7331,48
7332,49
7333,48
7334,46
7335,44
7336,42
7337,41
7338,41
7339,44
7340,47
7341,51
7342,54
7343,57
7344,60
7345,64
7346,69
7347,78
7348,84
7349,95
7350,100
7351,105
7352,108
7353,109
7354,110
7355,113
7356,115
7357,112
7358,106
7359,99
7360,92
7361,85
7362,80
7363,75
7364,73
7365,69
7366,63
7367,59
7368,53
7369,43
7370,33
7371,33
7372,25
7373,17
7374,9
7375,2
7376,-4
7377,-5
7378,-7
7379,-9
7380,-7
7381,-3
7382,-3
7383,0
7384,4
7385,10
7386,11
7387,8
7388,6
7389,3
7390,2
7391,6
7392,8
7393,10
7394,13
7395,16
7396,16
7397,14
7398,13
7399,11
7400,11
7401,13
7402,17
7403,16
7404,11
7405,5
7406,0
7407,0
7408,9
7409,32
7410,71
7411,123
7412,184
7413,254
7414,328
7415,396
7416,452
7417,489
7418,504
7419,499
7420,426
7421,356
7422,268
7423,163
7424,46
7425,-71
7426,-184
7427,-280
7428,-348
7429,-382
7430,-380
7431,-349
7432,-305
7433,-254
7434,-200
7435,-151
7436,-108
7437,-72
7438,-43
7439,-21
7440,-4
7441,3
7442,9
7443,14
7444,13
7445,11
7446,10
7447,7
7448,3
7449,1
7450,2
7451,5
7452,7
7453,8
7454,12
7455,17
7456,19
7457,23
7458,24
7459,26
7460,32
7461,36
7462,37
7463,40
7464,41
7465,43
7466,43
7467,41
7468,39
7469,36
7470,34
7471,35
7472,38
7473,39
7474,40
7475,42
7476,43
7477,42
7478,42
7479,42
7480,42
7481,44
7482,48
7483,52
7484,56
7485,59
7486,62
7487,64
7488,62
7489,60
7490,57
7491,57
7492,58
7493,64
7494,69
7495,74
7496,80
7497,85
7498,88
7499,88
7500,89
7501,91
7502,92
7503,94
7504,96
7505,100
7506,99
7507,99
7508,101
7509,103
7510,105
7511,110
7512,114
7513,114
7514,118
7515,123
7516,126
7517,128
7518,131
7519,133
7520,137
7521,142
7522,147
7523,150
7524,156
7525,163
7526,168
7527,168
7528,162
7529,155
7530,150
7531,145
7532,144
7533,147
7534,150
7535,156
7536,160
7537,158
7538,157
7539,162
7540,167
7541,175
7542,182
7543,186
7544,183
7545,172
7546,155
7547,139
7548,125
7549,121
7550,124
7551,131
7552,135
7553,135
7554,127
7555,116
7556,100
7557,86
7558,77
7559,73
7560,71
7561,50
7562,38
7563,27
7564,21
7565,23
7566,28
7567,32
7568,37
7569,41
7570,43
7571,39
7572,32
7573,22
7574,15
7575,5
7576,-6
7577,-13
7578,-17
7579,-19
7580,-16
7581,-7
7582,3
7583,10
7584,15
7585,15
7586,15
7587,12
7588,12
7589,10
7590,6
7591,3
7592,2
7593,10
7594,26
7595,44
7596,38
7597,24
7598,7
7599,-6
7600,-17
7601,-20
7602,-11
7603,5
7604,31
7605,58
7606,80
7607,88
7608,87
7609,85
7610,77
7611,67
7612,56
7613,45
7614,42
7615,44
7616,47
7617,51
7618,56
7619,60
7620,65
7621,75
7622,93
7623,113
7624,126
7625,135
7626,141
7627,135
7628,118
7629,101
7630,91
7631,79
7632,82
7633,84
7634,84
7635,81
7636,75
7637,67
7638,52
7639,40
7640,35
7641,42
7642,54
7643,67
7644,85
7645,100
7646,106
7647,107
7648,107
7649,106
7650,104
7651,111
7652,128
7653,147
7654,153
7655,143
7656,143
7657,131
7658,119
7659,109
7660,111
7661,129
7662,153
7663,180
7664,203
7665,214
7666,221
7667,206
7668,200
7669,196
7670,191
7671,193
7672,200
7673,205
7674,209
7675,208
7676,198
7677,193
7678,196
7679,195
7680,185
7681,171
7682,155
7683,134
7684,106
7685,79
7686,61
7687,59
7688,69
7689,89
7690,117
7691,134
7692,129
7693,119
7694,112
7695,96
7696,78
7697,67
7698,62
7699,59
7700,54
7701,58
7702,73
7703,73
7704,72
7705,67
7706,53
7707,35
7708,18
7709,11
7710,12
7711,25
7712,58
7713,96
7714,119
7715,121
7716,106
7717,93
7718,86
7719,86
7720,95
7721,113
7722,140
7723,167
7724,197
7725,237
7726,283
7727,343
7728,422
7729,509
7730,584
7731,634
7732,647
7733,629
7734,584
7735,406
7736,292
7737,166
7738,38
7739,-76
7740,-180
7741,-263
7742,-316
7743,-341
7744,-344
7745,-330
7746,-306
7747,-271
7748,-219
7749,-150
7750,-86
7751,-39
7752,-3
7753,18
7754,28
7755,40
7756,46
7757,50
7758,61
7759,68
7760,65
7761,57
7762,35
7763,1
7764,-14
7765,-3
7766,26
7767,70
7768,115
7769,153
7770,180
7771,184
7772,171
7773,155
7774,135
7775,123
7776,127
7777,129
7778,120
7779,99
7780,71
7781,41
7782,19
7783,12
7784,7
7785,4
7786,11
7787,14
7788,0
7789,-26
7790,-51
7791,-77
7792,-89
7793,-81
7794,-67
7795,-56
7796,-55
7797,-54
7798,-54
7799,-39
7800,-24
7801,-10
7802,7
7803,28
7804,46
7805,57
7806,60
7807,57
7808,21
7809,6
7810,-3
7811,-10
7812,-9
7813,-4
7814,-7
7815,-4
7816,7
7817,20
7818,38
7819,53
7820,62
7821,71
7822,77
7823,75
7824,77
7825,83
7826,91
7827,104
7828,123
7829,145
7830,164
7831,178
7832,188
7833,200
7834,204
7835,192
7836,161
7837,128
7838,111
7839,96
7840,91
7841,119
7842,160
7843,186
7844,165
7845,120
7846,68
7847,33
7848,23
7849,37
7850,62
7851,89
7852,118
7853,143
7854,160
7855,174
7856,178
7857,162
7858,148
7859,133
7860,108
7861,82
7862,65
7863,57
7864,57
7865,62
7866,68
7867,67
7868,54
7869,38
7870,38
7871,45
7872,52
7873,61
7874,56
7875,41
7876,14
7877,-12
7878,-24
7879,-44
7880,-43
7881,-38
7882,-33
7883,-33
7884,-40
7885,-46
7886,-53
7887,-60
7888,-57
7889,-50
7890,-57
7891,-69
7892,-72
7893,-68
7894,-69
7895,-64
7896,-49
7897,-34
7898,-23
7899,-7
7900,3
7901,2
7902,-3
7903,-8
7904,0
7905,11
7906,19
7907,42
7908,62
7909,60
7910,44
7911,19
7912,-13
7913,-47
7914,-72
7915,-75
7916,-61
7917,-41
7918,-23
7919,-10
7920,-7
7921,-25
7922,-56
7923,-86
7924,-116
7925,-149
7926,-173
7927,-172
7928,-146
7929,-109
7930,-74
7931,-46
7932,-32
7933,-35
7934,-30
7935,-19
7936,-14
7937,-15
7938,-14
7939,-10
7940,-10
7941,-6
7942,0
7943,16
7944,26
7945,38
7946,64
7947,86
7948,96
7949,97
7950,96
7951,110
7952,116
7953,130
7954,126
7955,92
7956,61
7957,28
7958,-23
7959,-81
7960,-140
7961,-188
7962,-206
7963,-203
7964,-182
7965,-145
7966,-107
7967,-72
7968,-24
7969,14
7970,37
7971,58
7972,70
7973,80
7974,84
7975,80
7976,67
7977,55
7978,51
7979,52
7980,56
7981,61
7982,66
7983,73
7984,80
7985,84
7986,93
7987,119
7988,113
7989,91
7990,66
7991,44
7992,13
7993,-17
7994,-31
7995,-33
7996,-34
7997,-24
7998,-3
7999,21
8000,44
8001,63
8002,79
8003,90
8004,76
8005,49
8006,33
8007,27
8008,26
8009,36
8010,46
8011,45
8012,34
8013,19
8014,0
8015,-9
8016,-6
8017,-2
8018,0
8019,-1
8020,-13
8021,-33
8022,-75
8023,-85
8024,-87
8025,-90
8026,-100
8027,-109
8028,-121
8029,-125
8030,-113
8031,-96
8032,-73
8033,-53
8034,-48
8035,-65
8036,-87
8037,-102
8038,-113
8039,-105
8040,-69
8041,-5
8042,70
8043,145
8044,225
8045,307
8046,375
8047,423
8048,459
8049,477
8050,465
8051,433
8052,385
8053,322
8054,240
8055,138
8056,38
8057,-67
8058,-308
8059,-393
8060,-458
8061,-486
8062,-469
8063,-418
8064,-352
8065,-277
8066,-189
8067,-89
8068,-2
8069,53
8070,98
8071,128
8072,128
8073,119
8074,110
8075,99
8076,79
8077,54
8078,41
8079,41
8080,44
8081,58
8082,58
8083,84
8084,111
8085,128
8086,128
8087,105
8088,62
8089,16
8090,-20
8091,-38
8092,-40
8093,-32
8094,-34
8095,-33
8096,-27
8097,-19
8098,-9
8099,4
8100,24
8101,44
8102,62
8103,72
8104,77
8105,72
8106,58
8107,42
8108,26
8109,11
8110,5
8111,8
8112,21
8113,38
8114,50
8115,58
8116,62
8117,58
8118,52
8119,49
8120,47
8121,45
8122,42
8123,38
8124,33
8125,34
8126,42
8127,53
8128,61
8129,72
8130,74
8131,68
8132,62
8133,58
8134,54
8135,56
8136,66
8137,80
8138,94
8139,105
8140,111
8141,115
8142,111
8143,101
8144,90
8145,76
8146,65
8147,60
8148,60
8149,63
8150,76
8151,94
8152,111
8153,128
8154,141
8155,143
8156,132
8157,115
8158,97
8159,82
8160,73
8161,77
8162,91
8163,122
8164,140
8165,153
8166,154
8167,151
8168,153
8169,157
8170,162
8171,171
8172,179
8173,183
8174,183
8175,179
8176,167
8177,153
8178,137
8179,129
8180,128
8181,127
8182,124
8183,122
8184,110
8185,87
8186,67
8187,54
8188,45
8189,44
8190,49
8191,60
8192,72
8193,79
8194,80
8195,78
8196,67
8197,51
8198,38
8199,28
8200,27
8201,26
8202,29
8203,33
8204,29
8205,22
8206,18
8207,15
8208,10
8209,6
8210,3
8211,5
8212,7
8213,6
8214,7
8215,10
8216,11
8217,12
8218,15
8219,14
8220,11
8221,6
8222,0
8223,-2
8224,-1
8225,-1
8226,-8
8227,-11
8228,-11
8229,-10
8230,-7
8231,-1
8232,8
8233,13
8234,16
8235,24
8236,26
8237,14
8238,5
8239,6
8240,7
8241,12
8242,17
8243,24
8244,29
8245,32
8246,42
8247,52
8248,55
8249,53
8250,54
8251,58
8252,58
8253,53
8254,49
8255,48
8256,51
8257,54
8258,56
8259,59
8260,55
8261,42
8262,28
8263,13
8264,5
8265,19
8266,48
8267,82
8268,104
8269,102
8270,72
8271,32
8272,2
8273,-13
8274,-12
8275,4
8276,33
8277,57
8278,66
8279,65
8280,68
8281,76
8282,81
8283,84
8284,87
8285,83
8286,73
8287,60
8288,47
8289,41
8290,38
8291,41
8292,48
8293,57
8294,61
8295,66
8296,68
8297,64
8298,58
8299,53
8300,46
8301,42
8302,43
8303,37
8304,36
8305,41
8306,51
8307,58
8308,61
8309,66
8310,76
8311,91
8312,110
8313,129
8314,151
8315,174
8316,192
8317,202
8318,197
8319,172
8320,140
8321,114
8322,100
8323,91
8324,78
8325,62
8326,51
8327,48
8328,45
8329,46
8330,53
8331,59
8332,63
8333,75
8334,92
8335,96
8336,90
8337,85
8338,23
8339,-4
8340,-25
8341,-55
8342,-71
8343,-76
8344,-80
8345,-75
8346,-63
8347,-39
8348,11
8349,65
8350,119
8351,180
8352,200
8353,170
8354,132
8355,83
8356,24
8357,-14
8358,-35
8359,-41
8360,-32
8361,-14
8362,23
8363,82
8364,140
8365,206
8366,271
8367,271
8368,318
8369,343
8370,359
8371,375
8372,400
8373,432
8374,477
8375,481
8376,465
8377,427
8378,369
8379,290
8380,197
8381,101
8382,5
8383,-80
8384,-166
8385,-259
8386,-329
8387,-361
8388,-365
8389,-340
8390,-284
8391,-219
8392,-140
8393,-57
8394,15
8395,81
8396,130
8397,158
8398,180
8399,186
8400,160
8401,127
8402,99
8403,66
8404,40
8405,33
8406,34
8407,38
8408,46
8409,44
8410,41
8411,53
8412,75
8413,99
8414,118
8415,127
8416,121
8417,106
8418,87
8419,66
8420,52
8421,43
8422,42
8423,59
8424,74
8425,78
8426,77
8427,71
8428,51
8429,39
8430,45
8431,55
8432,68
8433,90
8434,104
8435,121
8436,137
8437,139
8438,139
8439,145
8440,143
8441,131
8442,122
8443,101
8444,56
8445,50
8446,47
8447,59
8448,78
8449,93
8450,105
8451,117
8452,124
8453,131
8454,142
8455,153
8456,168
8457,185
8458,193
8459,189
8460,176
8461,147
8462,115
8463,94
8464,77
8465,66
8466,68
8467,75
8468,85
8469,100
8470,108
8471,112
8472,116
8473,120
8474,127
8475,131
8476,131
8477,131
8478,138
8479,147
8480,177
8481,180
8482,175
8483,160
8484,134
8485,112
8486,103
8487,105
8488,123
8489,148
8490,172
8491,193
8492,204
8493,205
8494,205
8495,200
8496,191
8497,186
8498,179
8499,170
8500,159
8501,159
8502,132
8503,124
8504,114
8505,110
8506,108
8507,106
8508,105
8509,105
8510,102
8511,99
8512,96
8513,89
8514,75
8515,61
8516,36
8517,33
8518,35
8519,39
8520,42
8521,43
8522,41
8523,35
8524,26
8525,15
8526,8
8527,4
8528,4
8529,4
8530,2
8531,-4
8532,-13
8533,-18
8534,-21
8535,-23
8536,-25
8537,-24
8538,-23
8539,-21
8540,-20
8541,-20
8542,-23
8543,-23
8544,-24
8545,-26
8546,-28
8547,-30
8548,-33
8549,-32
8550,-26
8551,-8
8552,-6
8553,-7
8554,-13
8555,-25
8556,-35
8557,-43
8558,-47
8559,-41
8560,-29
8561,-18
8562,-9
8563,-1
8564,1
8565,0
8566,-4
8567,-12
8568,-14
8569,-16
8570,-22
8571,-20
8572,-16
8573,-15
8574,-8
8575,-1
8576,1
8577,1
8578,-2
8579,-9
8580,-12
8581,-20
8582,-30
8583,-34
8584,-35
8585,-29
8586,-21
8587,-15
8588,-12
8589,-14
8590,-18
8591,-24
8592,-30
8593,-32
8594,-33
8595,-32
8596,-27
8597,-22
8598,-20
8599,-22
8600,-28
8601,-30
8602,-32
8603,-39
8604,-43
8605,-44
8606,-44
8607,-42
8608,-42
8609,-44
8610,-47
8611,-50
8612,-51
8613,-49
8614,-50
8615,-52
8616,-50
8617,-47
8618,-48
8619,-50
8620,-59
8621,-72
8622,-70
8623,-62
8624,-48
8625,-32
8626,-19
8627,-7
8628,0
8629,0
8630,-1
8631,-7
8632,-9
8633,-5
8634,1
8635,4
8636,7
8637,9
8638,11
8639,15
8640,19
8641,21
8642,20
8643,18
8644,15
8645,12
8646,7
8647,0
8648,-5
8649,-9
8650,-12
8651,-12
8652,-18
8653,-25
8654,-29
8655,-34
8656,-41
8657,-55
8658,-61
8659,-68
8660,-73
8661,-79
8662,-87
8663,-96
8664,-99
8665,-99
8666,-95
8667,-89
8668,-79
8669,-66
8670,-55
8671,-50
8672,-46
8673,-44
8674,-44
8675,-38
8676,-28
8677,-18
8678,-8
8679,-2
8680,-3
8681,-9
8682,-20
8683,-32
8684,-41
8685,-45
8686,-45
8687,-36
8688,-21
8689,-9
8690,-6
8691,-11
8692,-17
8693,-16
8694,-4
8695,19
8696,58
8697,105
8698,161
8699,225
8700,287
8701,340
8702,385
8703,413
8704,414
8705,402
8706,374
8707,321
8708,256
8709,180
8710,96
8711,6
8712,-89
8713,-184
8714,-263
8715,-324
8716,-358
8717,-353
8718,-320
8719,-274
8720,-215
8721,-150
8722,-95
8723,-58
8724,-38
8725,-26
8726,-5
8727,3
8728,17
8729,36
8730,49
8731,59
8732,64
8733,63
8734,55
8735,48
8736,44
8737,42
8738,37
8739,29
8740,23
8741,24
8742,23
8743,25
8744,30
8745,37
8746,40
8747,43
8748,43
8749,39
8750,35
8751,33
8752,35
8753,39
8754,41
8755,44
8756,48
8757,49
8758,52
8759,55
8760,57
8761,61
8762,66
8763,68
8764,68
8765,69
8766,76
8767,84
8768,92
8769,100
8770,105
8771,107
8772,108
8773,107
8774,106
8775,106
8776,108
8777,112
8778,116
8779,119
8780,122
8781,121
8782,121
8783,122
8784,122
8785,121
8786,122
8787,122
8788,123
8789,126
8790,130
8791,136
8792,143
8793,153
8794,153
8795,153
8796,184
8797,187
8798,185
8799,177
8800,171
8801,166
8802,165
8803,173
8804,185
8805,202
8806,220
8807,229
8808,234
8809,237
8810,235
8811,232
8812,231
8813,230
8814,234
8815,242
8816,251
8817,258
8818,263
8819,260
8820,258
8821,255
8822,249
8823,244
8824,242
8825,239
8826,241
8827,240
8828,238
8829,237
8830,237
8831,236
8832,233
8833,228
8834,220
8835,210
8836,199
8837,192
8838,181
8839,168
8840,159
8841,154
8842,148
8843,146
8844,148
8845,152
8846,157
8847,169
8848,182
8849,192
8850,191
8851,177
8852,158
8853,134
8854,103
8855,75
8856,57
8857,51
8858,57
8859,79
8860,106
8861,125
8862,139
8863,149
8864,153
8865,139
8866,127
8867,115
8868,93
8869,68
8870,53
8871,42
8872,31
8873,34
8874,47
8875,58
8876,67
8877,77
8878,86
8879,92
8880,94
8881,99
8882,112
8883,116
8884,112
8885,104
8886,95
8887,84
8888,81
8889,88
8890,97
8891,107
8892,120
8893,126
8894,125
8895,121
8896,117
8897,113
8898,113
8899,123
8900,135
8901,144
8902,149
8903,160
8904,164
8905,162
8906,160
8907,156
8908,150
8909,140
8910,126
8911,112
8912,97
8913,83
8914,79
8915,91
8916,111
8917,133
8918,158
8919,180
8920,196
8921,202
8922,186
8923,157
8924,131
8925,121
8926,139
8927,185
8928,238
8929,284
8930,314
8931,321
8932,304
8933,265
8934,160
8935,135
8936,135
8937,127
8938,126
8939,128
8940,121
8941,116
8942,122
8943,136
8944,154
8945,166
8946,159
8947,146
8948,141
8949,144
8950,152
8951,166
8952,181
8953,179
8954,155
8955,131
8956,119
8957,98
8958,88
8959,118
8960,176
8961,236
8962,283
8963,303
8964,302
8965,279
8966,240
8967,206
8968,180
8969,124
8970,133
8971,144
8972,152
8973,165
8974,177
8975,190
8976,208
8977,219
8978,218
8979,205
8980,182
8981,155
8982,141
8983,137
8984,140
8985,161
8986,182
8987,188
8988,191
8989,179
8990,152
8991,134
8992,127
8993,125
8994,127
8995,124
8996,110
8997,92
8998,69
8999,46
9000,41
9001,43
9002,45
9003,58
9004,60
9005,60
9006,69
9007,92
9008,121
9009,147
9010,165
9011,169
9012,158
9013,139
9014,118
9015,97
9016,69
9017,42
9018,20
9019,0
9020,-16
9021,-22
9022,-4
9023,35
9024,82
9025,121
9026,144
9027,144
9028,122
9029,95
9030,78
9031,79
9032,93
9033,131
9034,199
9035,281
9036,356
9037,428
9038,550
9039,582
9040,585
9041,560
9042,508
9043,425
9044,322
9045,212
9046,96
9047,-28
9048,-140
9049,-231
9050,-297
9051,-326
9052,-324
9053,-302
9054,-261
9055,-203
9056,-134
9057,-66
9058,-13
9059,20
9060,38
9061,43
9062,40
9063,33
9064,19
9065,9
9066,12
9067,31
9068,53
9069,70
9070,72
9071,54
9072,24
9073,-39
9074,-58
9075,-68
9076,-67
9077,-49
9078,-49
9079,-17
9080,21
9081,59
9082,91
9083,105
9084,99
9085,90
9086,75
9087,54
9088,30
9089,12
9090,13
9091,32
9092,62
9093,90
9094,114
9095,122
9096,117
9097,110
9098,98
9099,80
9100,66
9101,61
9102,69
9103,80
9104,89
9105,92
9106,91
9107,85
9108,54
9109,36
9110,21
9111,10
9112,16
9113,25
9114,33
9115,48
9116,62
9117,75
9118,96
9119,126
9120,156
9121,182
9122,203
9123,214
9124,216
9125,196
9126,161
9127,129
9128,101
9129,77
9130,66
9131,66
9132,71
9133,79
9134,92
9135,109
9136,126
9137,133
9138,135
9139,139
9140,144
9141,150
9142,135
9143,125
9144,114
9145,104
9146,93
9147,86
9148,90
9149,101
9150,111
9151,125
9152,131
9153,127
9154,124
9155,125
9156,124
9157,126
9158,124
9159,113
9160,96
9161,68
9162,34
9163,18
9164,29
9165,73
9166,135
9167,192
9168,219
9169,210
9170,164
9171,92
9172,22
9173,-15
9174,-20
9175,9
9176,116
9177,147
9178,149
9179,132
9180,111
9181,96
9182,83
9183,71
9184,56
9185,35
9186,7
9187,-19
9188,-44
9189,-60
9190,-66
9191,-62
9192,-50
9193,-35
9194,-30
9195,-41
9196,-57
9197,-71
9198,-89
9199,-99
9200,-109
9201,-125
9202,-123
9203,-97
9204,-60
9205,-25
9206,0
9207,9
9208,2
9209,-27
9210,-78
9211,-79
9212,-78
9213,-64
9214,-40
9215,-32
9216,-46
9217,-62
9218,-71
9219,-74
9220,-74
9221,-75
9222,-66
9223,-51
9224,-43
9225,-46
9226,-45
9227,-48
9228,-68
9229,-85
9230,-91
9231,-97
9232,-86
9233,-58
9234,-22
9235,0
9236,-2
9237,-17
9238,-31
9239,-48
9240,-64
9241,-57
9242,-35
9243,-9
9244,12
9245,17
9246,-4
9247,-24
9248,-31
9249,-30
9250,-40
9251,-56
9252,-62
9253,-45
9254,-9
9255,25
9256,50
9257,66
9258,62
9259,35
9260,0
9261,-38
9262,-72
9263,-94
9264,-89
9265,-71
9266,-61
9267,-61
9268,-72
9269,-81
9270,-76
9271,-59
9272,-35
9273,-5
9274,22
9275,36
9276,38
9277,28
9278,7
9279,-15
9280,-58
9281,-68
9282,-70
9283,-70
9284,-65
9285,-50
9286,-33
9287,-21
9288,-10
9289,2
9290,13
9291,31
9292,37
9293,22
9294,16
9295,9
9296,-18
9297,-46
9298,-61
9299,-66
9300,-52
9301,-29
9302,0
9303,40
9304,60
9305,55
9306,65
9307,86
9308,91
9309,89
9310,87
9311,76
9312,52
9313,14
9314,-50
9315,-71
9316,-81
9317,-82
9318,-86
9319,-97
9320,-110
9321,-118
9322,-111
9323,-86
9324,-41
9325,19
9326,66
9327,73
9328,47
9329,-8
9330,-79
9331,-136
9332,-162
9333,-157
9334,-124
9335,-73
9336,-15
9337,34
9338,55
9339,51
9340,45
9341,42
9342,36
9343,26
9344,14
9345,-2
9346,-18
9347,-32
9348,-47
9349,-57
9350,-70
9351,-74
9352,-62
9353,-42
9354,-9
9355,44
9356,109
9357,175
9358,240
9359,282
9360,305
9361,323
9362,334
9363,334
9364,343
9365,347
9366,340
9367,322
9368,288
9369,232
9370,160
9371,71
9372,-32
9373,-129
9374,-195
9375,-234
9376,-254
9377,-255
9378,-235
9379,-209
9380,-192
9381,-179
9382,-165
9383,-155
9384,-109
9385,-78
9386,-47
9387,-26
9388,-15
9389,-7
9390,-8
9391,-27
9392,-63
9393,-97
9394,-115
9395,-119
9396,-108
9397,-77
9398,-24
9399,26
9400,59
9401,77
9402,83
9403,77
9404,60
9405,50
9406,47
9407,31
9408,17
9409,22
9410,42
9411,61
9412,80
9413,97
9414,115
9415,116
9416,92
9417,35
9418,16
9419,15
9420,30
9421,49
9422,64
9423,73
9424,74
9425,64
9426,47
9427,28
9428,12
9429,4
9430,3
9431,5
9432,10
9433,16
9434,18
9435,15
9436,15
9437,17
9438,19
9439,17
9440,16
9441,21
9442,31
9443,43
9444,59
9445,72
9446,74
9447,65
9448,53
9449,40
9450,28
9451,22
9452,27
9453,40
9454,57
9455,72
9456,83
9457,90
9458,101
9459,103
9460,103
9461,98
9462,83
9463,65
9464,51
9465,47
9466,50
9467,60
9468,71
9469,81
9470,93
9471,97
9472,97
9473,95
9474,86
9475,81
9476,82
9477,78
9478,71
9479,62
9480,48
9481,38
9482,40
9483,49
9484,65
9485,112
9486,127
9487,134
9488,123
9489,99
9490,76
9491,55
9492,44
9493,44
9494,50
9495,64
9496,83
9497,95
9498,103
9499,104
9500,92
9501,77
9502,66
9503,53
9504,40
9505,40
9506,32
9507,25
9508,19
9509,15
9510,9
9511,0
9512,-9
9513,-19
9514,-26
9515,-28
9516,-31
9517,-33
9518,-34
9519,-44
9520,-50
9521,-55
9522,-57
9523,-56
9524,-53
9525,-48
9526,-46
9527,-48
9528,-52
9529,-54
9530,-54
9531,-52
9532,-47
9533,-38
9534,-30
9535,-30
9536,-35
9537,-42
9538,-52
9539,-64
9540,-66
9541,-63
9542,-61
9543,-60
9544,-58
9545,-62
9546,-71
9547,-78
9548,-80
9549,-77
9550,-72
9551,-65
9552,-54
9553,-47
9554,-57
9555,-58
9556,-60
9557,-65
9558,-67
9559,-69
9560,-76
9561,-84
9562,-85
9563,-83
9564,-75
9565,-60
9566,-45
9567,-27
9568,-17
9569,-18
9570,-28
9571,-41
9572,-53
9573,-65
9574,-70
9575,-66
9576,-55
9577,-41
9578,-31
9579,-22
9580,-15
9581,-14
9582,-14
9583,-14
9584,-13
9585,-17
9586,-27
9587,-30
9588,-40
9589,-45
9590,-42
9591,-36
9592,-28
9593,-19
9594,-11
9595,-1
9596,4
9597,6
9598,10
9599,6
9600,-9
9601,-23
9602,-37
9603,-46
9604,-51
9605,-53
9606,-52
9607,-51
9608,-49
9609,-46
9610,-42
9611,-40
9612,-33
9613,-21
9614,-8
9615,1
9616,6
9617,1
9618,-3
9619,-8
9620,-11
9621,-8
9622,19
9623,47
9624,74
9625,80
9626,63
9627,45
9628,26
9629,11
9630,10
9631,19
9632,40
9633,70
9634,97
9635,112
9636,113
9637,95
9638,72
9639,62
9640,54
9641,37
9642,26
9643,20
9644,13
9645,10
9646,8
9647,8
9648,2
9649,-2
9650,-1
9651,-5
9652,-14
9653,-22
9654,-26
9655,-22
9656,-9
9657,24
9658,38
9659,43
9660,39
9661,26
9662,5
9663,-12
9664,-20
9665,-21
9666,-16
9667,-5
9668,5
9669,17
9670,23
9671,25
9672,28
9673,26
9674,23
9675,22
9676,10
9677,-2
9678,-5
9679,-5
9680,1
9681,17
9682,40
9683,70
9684,107
9685,148
9686,194
9687,241
9688,285
9689,340
9690,402
9691,458
9692,537
9693,554
9694,548
9695,521
9696,472
9697,398
9698,304
9699,194
9700,77
9701,-35
9702,-134
9703,-210
9704,-256
9705,-267
9706,-247
9707,-210
9708,-165
9709,-114
9710,-67
9711,-27
9712,2
9713,26
9714,47
9715,58
9716,58
9717,63
9718,74
9719,79
9720,87
9721,106
9722,123
9723,141
9724,156
9725,164
9726,159
9727,148
9728,143
9729,144
9730,139
9731,135
9732,138
9733,136
9734,130
9735,122
9736,117
9737,124
9738,141
9739,164
9740,185
9741,202
9742,206
9743,199
9744,183
9745,161
9746,141
9747,127
9748,121
9749,118
9750,109
9751,97
9752,87
9753,84
9754,89
9755,102
9756,120
9757,137
9758,145
9759,142
9760,133
9761,115
9762,124
9763,148
9764,177
9765,209
9766,238
9767,263
9768,273
9769,266
9770,254
9771,239
9772,217
9773,192
9774,173
9775,157
9776,146
9777,145
9778,154
9779,174
9780,195
9781,213
9782,234
9783,250
9784,257
9785,257
9786,249
9787,235
9788,224
9789,224
9790,214
9791,209
9792,214
9793,225
9794,234
9795,246
9796,264
9797,262
9798,253
9799,236
9800,223
9801,219
9802,215
9803,220
9804,234
9805,250
9806,266
9807,279
9808,288
9809,290
9810,291
9811,289
9812,287
9813,282
9814,275
9815,269
9816,266
9817,264
9818,261
9819,260
9820,260
9821,259
9822,259
9823,258
9824,256
9825,256
9826,258
9827,258
9828,251
9829,242
9830,221
9831,211
9832,203
9833,198
9834,194
9835,190
9836,187
9837,184
9838,181
9839,179
9840,173
9841,165
9842,157
9843,148
9844,137
9845,126
9846,120
9847,115
9848,112
9849,116
9850,123
9851,130
9852,138
9853,147
9854,150
9855,140
9856,126
9857,111
9858,103
9859,102
9860,111
9861,125
9862,135
9863,131
9864,122
9865,94
9866,84
9867,88
9868,102
9869,107
9870,97
9871,83
9872,64
9873,40
9874,21
9875,20
9876,31
9877,43
9878,55
9879,70
9880,83
9881,81
9882,72
9883,71
9884,77
9885,77
9886,83
9887,96
9888,108
9889,116
9890,122
9891,127
9892,128
9893,121
9894,114
9895,111
9896,109
9897,106
9898,97
9899,66
9900,58
9901,57
9902,65
9903,75
9904,82
9905,93
9906,91
9907,66
9908,37
9909,22
9910,25
9911,49
9912,98
9913,160
9914,223
9915,272
9916,299
9917,301
9918,265
9919,202
9920,138
9921,89
9922,50
9923,25
9924,18
9925,29
9926,45
9927,64
9928,80
9929,86
9930,84
9931,87
9932,87
9933,87
9934,102
9935,108
9936,105
9937,91
9938,62
9939,32
9940,19
9941,21
9942,23
9943,14
9944,16
9945,32
9946,46
9947,65
9948,97
9949,140
9950,180
9951,214
9952,238
9953,237
9954,204
9955,155
9956,124
9957,107
9958,93
9959,87
9960,87
9961,85
9962,77
9963,69
9964,69
9965,75
9966,83
9967,95
9968,121
9969,132
9970,138
9971,126
9972,116
9973,121
9974,137
9975,175
9976,219
9977,246
9978,267
9979,292
9980,304
9981,301
9982,283
9983,244
9984,203
9985,166
9986,119
9987,76
9988,49
9989,28
9990,27
9991,52
9992,80
9993,94
9994,99
9995,97
9996,93
9997,86
9998,77
9999,74
10000,83
10001,93
10002,103
10003,113
10004,110
10005,107
10006,99
10007,98
10008,101
10009,106
10010,111
10011,109
10012,99
10013,85
10014,66
10015,57
10016,59
10017,68
10018,77
10019,91
10020,106
10021,109
10022,101
10023,89
10024,82
10025,84
10026,103
10027,139
10028,190
10029,249
10030,319
10031,400
10032,473
10033,525
10034,557
10035,565
10036,554
10037,461
10038,373
10039,262
10040,122
10041,-24
10042,-144
10043,-239
10044,-292
10045,-288
10046,-246
10047,-184
10048,-122
10049,-77
10050,-46
10051,-25
10052,-15
10053,0
10054,25
10055,44
10056,52
10057,55
10058,45
10059,29
10060,13
10061,7
10062,11
10063,19
10064,25
10065,35
10066,44
10067,43
10068,42
10069,40
10070,27
10071,8
10072,-17
10073,-8
10074,-8
10075,11
10076,27
10077,50
10078,72
10079,83
10080,92
10081,96
10082,91
10083,83
10084,72
10085,64
10086,65
10087,72
10088,86
10089,120
10090,161
10091,200
10092,224
10093,223
10094,197
10095,155
10096,102
10097,57
10098,28
10099,9
10100,0
10101,0
10102,-1
10103,-2
10104,1
10105,5
10106,15
10107,30
10108,52
10109,58
10110,43
10111,21
10112,8
10113,-9
10114,-22
10115,-16
10116,-11
10117,-5
10118,15
10119,42
10120,73
10121,106
10122,133
10123,159
10124,183
10125,182
10126,166
10127,146
10128,111
10129,77
10130,65
10131,66
10132,69
10133,84
10134,104
10135,120
10136,132
10137,137
10138,130
10139,115
10140,104
10141,100
10142,102
10143,117
10144,125
10145,127
10146,124
10147,120
10148,112
10149,95
10150,76
10151,65
10152,60
10153,52
10154,45
10155,43
10156,50
10157,59
10158,69
10159,79
10160,86
10161,85
10162,79
10163,78
10164,77
10165,73
10166,66
10167,61
10168,62
10169,61
10170,58
10171,58
10172,59
10173,55
10174,50
10175,42
10176,31
10177,5
10178,-7
10179,-13
10180,-18
10181,-18
10182,-14
10183,-10
10184,-7
10185,-7
10186,-22
10187,-49
10188,-75
10189,-101
10190,-123
10191,-134
10192,-132
10193,-123
10194,-112
10195,-101
10196,-90
10197,-81
10198,-80
10199,-81
10200,-75
10201,-71
10202,-79
10203,-89
10204,-97
10205,-109
10206,-119
10207,-123
10208,-131
10209,-144
10210,-155
10211,-160
10212,-147
10213,-132
10214,-115
10215,-96
10216,-96
10217,-81
10218,-78
10219,-83
10220,-94
10221,-114
10222,-140
10223,-162
10224,-171
10225,-165
10226,-148
10227,-126
10228,-101
10229,-82
10230,-75
10231,-77
10232,-83
10233,-95
10234,-109
10235,-111
10236,-102
10237,-93
10238,-88
10239,-84
10240,-81
10241,-80
10242,-78
10243,-78
10244,-84
10245,-89
10246,-94
10247,-99
10248,-99
10249,-99
10250,-97
10251,-93
10252,-94
10253,-98
10254,-105
10255,-116
10256,-125
10257,-129
10258,-128
10259,-116
10260,-98
10261,-80
10262,-64
10263,-52
10264,-51
10265,-60
10266,-70
10267,-83
10268,-92
10269,-94
10270,-100
10271,-102
10272,-100
10273,-96
10274,-87
10275,-78
10276,-72
10277,-70
10278,-70
10279,-74
10280,-74
10281,-74
10282,-86
10283,-111
10284,-120
10285,-123
10286,-119
10287,-112
10288,-98
10289,-80
10290,-62
10291,-48
10292,-44
10293,-56
10294,-71
10295,-86
10296,-103
10297,-116
10298,-119
10299,-109
10300,-91
10301,-68
10302,-47
10303,-35
10304,-32
10305,-36
10306,-42
10307,-42
10308,-39
10309,-30
10310,-17
10311,-6
10312,-1
10313,-1
10314,0
10315,0
10316,-1
10317,0
10318,7
10319,12
10320,18
10321,24
10322,28
10323,33
10324,36
10325,40
10326,44
10327,44
10328,42
10329,42
10330,42
10331,37
10332,32
10333,26
10334,22
10335,18
10336,17
10337,16
10338,11
10339,-1
10340,-17
10341,-28
10342,-39
10343,-48
10344,-51
10345,-41
10346,-26
10347,-6
10348,18
10349,38
10350,45
10351,28
10352,26
10353,18
10354,13
10355,15
10356,25
10357,35
10358,35
10359,41
10360,42
10361,44
10362,37
10363,32
10364,37
10365,48
10366,54
10367,59
10368,62
10369,64
10370,67
10371,75
10372,91
10373,119
10374,157
10375,205
10376,263
10377,325
10378,384
10379,438
10380,482
10381,507
10382,509
10383,492
10384,450
10385,385
10386,186
10387,75
10388,-31
10389,-129
10390,-208
10391,-258
10392,-276
10393,-261
10394,-224
10395,-175
10396,-122
10397,-74
10398,-32
10399,4
10400,32
10401,51
10402,66
10403,75
10404,79
10405,81
10406,76
10407,68
10408,64
10409,66
10410,70
10411,81
10412,95
10413,103
10414,105
10415,105
10416,106
10417,106
10418,108
10419,109
10420,101
10421,94
10422,93
10423,91
10424,87
10425,91
10426,107
10427,125
10428,142
10429,154
10430,156
10431,151
10432,145
10433,146
10434,151
10435,153
10436,153
10437,160
10438,163
10439,160
10440,161
10441,160
10442,153
10443,149
10444,151
10445,154
10446,151
10447,143
10448,138
10449,136
10450,133
10451,130
10452,131
10453,129
10454,128
10455,136
10456,143
10457,151
10458,163
10459,177
10460,187
10461,187
10462,185
10463,180
10464,173
10465,173
10466,177
10467,178
10468,180
10469,176
10470,168
10471,161
10472,153
10473,151
10474,158
10475,166
10476,178
10477,188
10478,190
10479,189
10480,192
10481,195
10482,201
10483,210
10484,220
10485,226
10486,226
10487,220
10488,216
10489,214
10490,216
10491,221
10492,225
10493,226
10494,224
10495,217
10496,210
10497,205
10498,202
10499,203
10500,203
10501,208
10502,215
10503,222
10504,229
10505,233
10506,233
10507,232
10508,228
10509,220
10510,210
10511,191
10512,167
10513,155
10514,153
10515,157
10516,169
10517,183
10518,192
10519,197
10520,189
10521,173
10522,158
10523,138
10524,120
10525,114
10526,106
10527,106
10528,102
10529,94
10530,85
10531,71
10532,57
10533,47
10534,38
10535,33
10536,33
10537,37
10538,42
10539,40
10540,24
10541,9
10542,0
10543,-6
10544,-10
10545,-3
10546,8
10547,17
10548,25
10549,27
10550,16
10551,4
10552,-4
10553,-8
10554,0
10555,11
10556,23
10557,36
10558,40
10559,40
10560,24
10561,-3
10562,-26
10563,-36
10564,-44
10565,-38
10566,-14
10567,14
10568,42
10569,51
10570,42
10571,22
10572,-12
10573,-53
10574,-71
10575,-58
10576,-34
10577,-4
10578,31
10579,48
10580,32
10581,-5
10582,-53
10583,-110
10584,-142
10585,-132
10586,-102
10587,-52
10588,11
10589,69
10590,100
10591,84
10592,35
10593,-15
10594,-59
10595,-101
10596,-67
10597,-40
10598,-4
10599,40
10600,69
10601,77
10602,62
10603,47
10604,42
10605,32
10606,23
10607,24
10608,28
10609,38
10610,55
10611,71
10612,77
10613,81
10614,79
10615,75
10616,72
10617,61
10618,52
10619,48
10620,43
10621,44
10622,49
10623,51
10624,53
10625,55
10626,55
10627,58
10628,66
10629,77
10630,93
10631,95
10632,97
10633,95
10634,81
10635,62
10636,48
10637,35
10638,30
10639,35
10640,46
10641,57
10642,70
10643,70
10644,91
10645,111
10646,99
10647,58
10648,26
10649,3
10650,-21
10651,-23
10652,-2
10653,29
10654,65
10655,99
10656,129
10657,145
10658,127
10659,92
10660,76
10661,50
10662,0
10663,-26
10664,-30
10665,-28
10666,-15
10667,6
10668,32
10669,52
10670,74
10671,103
10672,126
10673,137
10674,146
10675,149
10676,131
10677,104
10678,79
10679,60
10680,47
10681,36
10682,24
10683,18
10684,17
10685,16
10686,13
10687,12
10688,14
10689,15
10690,7
10691,-5
10692,-22
10693,-43
10694,-65
10695,-79
10696,-81
10697,-67
10698,-37
10699,34
10700,56
10701,66
10702,63
10703,44
10704,23
10705,9
10706,1
10707,3
10708,16
10709,28
10710,34
10711,29
10712,15
10713,5
10714,0
10715,0
10716,24
10717,67
10718,120
10719,180
10720,240
10721,305
10722,369
10723,415
10724,442
10725,453
10726,445
10727,419
10728,370
10729,294
10730,194
10731,75
10732,-54
10733,-177
10734,-284
10735,-422
10736,-434
10737,-409
10738,-360
10739,-303
10740,-246
10741,-190
10742,-145
10743,-113
10744,-92
10745,-84
10746,-82
10747,-75
10748,-60
10749,-35
10750,-5
10751,20
10752,33
10753,27
10754,6
10755,-19
10756,-47
10757,-68
10758,-76
10759,-75
10760,-67
10761,-55
10762,-40
10763,-23
10764,-11
10765,-6
10766,2
10767,10
10768,10
10769,7
10770,0
10771,-5
10772,-12
10773,-23
10774,-41
10775,-62
10776,-74
10777,-72
10778,-61
10779,-43
10780,-17
10781,8
10782,23
10783,29
10784,27
10785,27
10786,18
10787,2
10788,-11
10789,-16
10790,-15
10791,-14
10792,-11
10793,-4
10794,4
10795,7
10796,8
10797,9
10798,7
10799,2
10800,-4
10801,-5
10802,-1
10803,1
10804,4
10805,8
10806,11
10807,7
10808,6
10809,6
10810,6
10811,11
10812,16
10813,19
10814,22
10815,31
10816,48
10817,65
10818,80
10819,88
10820,89
10821,78
10822,52
10823,25
10824,6
10825,0
10826,13
10827,46
10828,82
10829,112
10830,135
10831,147
10832,144
10833,134
10834,119
10835,109
10836,108
10837,109
10838,113
10839,116
10840,118
10841,121
10842,124
10843,124
10844,123
10845,124
10846,125
10847,126
10848,127
10849,125
10850,121
10851,116
10852,110
10853,105
10854,104
10855,103
10856,107
10857,112
10858,114
10859,116
10860,114
10861,107
10862,99
10863,90
10864,78
10865,66
10866,54
10867,42
10868,32
10869,26
10870,20
10871,18
10872,18
10873,23
10874,30
10875,28
10876,28
10877,24
10878,18
10879,13
10880,12
10881,13
10882,15
10883,21
10884,30
10885,32
10886,24
10887,17
10888,12
10889,8
10890,5
10891,5
10892,8
10893,13
10894,15
10895,16
10896,15
10897,10
10898,9
10899,13
10900,19
10901,28
10902,36
10903,44
10904,48
10905,53
10906,51
10907,47
10908,45
10909,43
10910,45
10911,49
10912,54
10913,59
10914,61
10915,64
10916,65
10917,60
10918,47
10919,30
10920,17
10921,15
10922,22
10923,40
10924,63
10925,86
10926,104
10927,104
10928,114
10929,112
10930,99
10931,81
10932,67
10933,61
10934,62
10935,64
10936,64
10937,63
10938,61
10939,61
10940,59
10941,54
10942,47
10943,42
10944,40
10945,37
10946,41
10947,50
10948,60
10949,72
10950,82
10951,86
10952,81
10953,74
10954,67
10955,56
10956,47
10957,43
10958,42
10959,44
10960,46
10961,49
10962,52
10963,50
10964,40
10965,31
10966,23
10967,12
10968,5
10969,7
10970,12
10971,20
10972,28
10973,35
10974,39
10975,32
10976,18
10977,9
10978,2
10979,-8
10980,-17
10981,-22
10982,-13
10983,-1
10984,15
10985,31
10986,42
10987,53
10988,61
10989,63
10990,64
10991,66
10992,63
10993,58
10994,49
10995,34
10996,24
10997,20
10998,22
10999,33
11000,51
11001,73
11002,96
11003,111
11004,115
11005,113
11006,106
11007,92
11008,72
11009,53
11010,33
11011,21
11012,15
11013,15
11014,15
11015,12
11016,9
11017,7
11018,5
11019,4
11020,8
11021,11
11022,11
11023,8
11024,6
11025,3
11026,0
11027,1
11028,-2
11029,-15
11030,-36
11031,-55
11032,-72
11033,-83
11034,-82
11035,-64
11036,-30
11037,10
11038,48
11039,78
11040,90
11041,80
11042,54
11043,27
11044,4
11045,-9
11046,-2
11047,19
11048,49
11049,72
11050,77
11051,72
11052,29
11053,0
11054,-31
11055,-56
11056,-70
11057,-72
11058,-63
11059,-40
11060,-4
11061,46
11062,112
11063,189
11064,271
11065,346
11066,404
11067,441
11068,456
11069,456
11070,446
11071,405
11072,334
11073,244
11074,144
11075,38
11076,-63
11077,-156
11078,-240
11079,-307
11080,-352
11081,-369
11082,-359
11083,-332
11084,-294
11085,-246
11086,-193
11087,-144
11088,-65
11089,-40
11090,-21
11091,-9
11092,-3
11093,1
11094,1
11095,1
11096,0
11097,-8
11098,-18
11099,-20
11100,-15
11101,-11
11102,-15
11103,-19
11104,-13
11105,4
11106,30
11107,61
11108,85
11109,91
11110,85
11111,71
11112,50
11113,22
11114,-5
11115,-15
11116,-3
11117,14
11118,27
11119,32
11120,30
11121,27
11122,26
11123,25
11124,-10
11125,-31
11126,-44
11127,-45
11128,-37
11129,-20
11130,0
11131,26
11132,47
11133,57
11134,55
11135,42
11136,24
11137,9
11138,-5
11139,-22
11140,-32
11141,-26
11142,-5
11143,28
11144,61
11145,86
11146,106
11147,112
11148,111
11149,108
11150,99
11151,87
11152,82
11153,72
11154,62
11155,55
11156,48
11157,52
11158,65
11159,94
11160,112
11161,118
11162,113
11163,87
11164,47
11165,15
11166,-5
11167,-13
11168,2
11169,34
11170,76
11171,121
11172,157
11173,180
11174,187
11175,175
11176,166
11177,171
11178,177
11179,183
11180,189
11181,195
11182,200
11183,202
11184,202
11185,209
11186,215
11187,216
11188,221
11189,232
11190,244
11191,256
11192,267
11193,272
11194,265
11195,223
11196,201
11197,182
11198,186
11199,210
11200,238
11201,260
11202,264
11203,235
11204,169
11205,87
11206,8
11207,-46
11208,-70
11209,-70
11210,-4
11211,56
11212,56
11213,105
11214,142
11215,161
11216,165
11217,165
11218,168
11219,174
11220,176
11221,181
11222,189
11223,198
11224,193
11225,171
11226,139
11227,95
11228,44
11229,-5
11230,-54
11231,-103
11232,-96
11233,-83
11234,-67
11235,-64
11236,-73
11237,-85
11238,-105
11239,-127
11240,-129
11241,-107
11242,-58
11243,13
11244,86
11245,144
11246,182
11247,191
11248,170
11249,133
11250,84
11251,42
11252,24
11253,23
11254,28
11255,37
11256,48
11257,69
11258,97
11259,123
11260,145
11261,158
11262,156
11263,139
11264,106
11265,67
11266,30
11267,-1
11268,-19
11269,-14
11270,-8
11271,-9
11272,-25
11273,-41
11274,-44
11275,-35
11276,-10
11277,28
11278,70
11279,104
11280,121
11281,115
11282,97
11283,69
11284,42
11285,39
11286,63
11287,84
11288,91
11289,89
11290,82
11291,68
11292,54
11293,48
11294,54
11295,71
11296,78
11297,66
11298,39
11299,-13
11300,-70
11301,-85
11302,-69
11303,-39
11304,62
11305,87
11306,88
11307,67
11308,31
11309,6
11310,-1
11311,9
11312,44
11313,65
11314,63
11315,63
11316,64
11317,71
11318,106
11319,178
11320,272
11321,346
11322,379
11323,366
11324,303
11325,206
11326,102
11327,19
11328,-19
11329,-10
11330,17
11331,41
11332,50
11333,25
11334,-11
11335,-20
11336,-12
11337,16
11338,65
11339,161
11340,193
11341,191
11342,181
11343,165
11344,135
11345,111
11346,109
11347,114
11348,136
11349,173
11350,199
11351,212
11352,194
11353,143
11354,143
11355,86
11356,15
11357,-69
11358,-123
11359,-144
11360,-155
11361,-140
11362,-90
11363,-29
11364,36
11365,93
11366,132
11367,153
11368,140
11369,98
11370,65
11371,42
11372,21
11373,19
11374,37
11375,45
11376,39
11377,37
11378,52
11379,79
11380,120
11381,181
11382,257
11383,325
11384,367
11385,376
11386,340
11387,278
11388,221
11389,167
11390,122
11391,101
11392,83
11393,51
11394,9
11395,-60
11396,-155
11397,-234
11398,-290
11399,-306
11400,-278
11401,-225
11402,-158
11403,-86
11404,-32
11405,-5
11406,0
11407,-18
11408,-52
11409,-81
11410,-102
11411,-114
11412,-107
11413,-86
11414,-68
11415,-51
11416,-29
11417,-12
11418,-3
11419,8
11420,0
11421,-27
11422,-49
11423,-66
11424,-79
11425,-70
11426,-41
11427,-9
11428,26
11429,48
11430,57
11431,69
11432,67
11433,51
11434,49
11435,48
11436,38
11437,38
11438,46
11439,52
11440,57
11441,61
11442,57
11443,49
11444,33
11445,10
11446,-9
11447,-19
11448,-22
11449,1
11450,6
11451,9
11452,26
11453,51
11454,80
11455,103
11456,111
11457,103
11458,84
11459,54
11460,17
11461,-6
11462,-14
11463,3
11464,46
11465,91
11466,123
11467,132
11468,121
11469,116
11470,117
11471,118
11472,128
11473,155
11474,194
11475,222
11476,231
11477,224
11478,205
11479,177
11480,143
11481,115
11482,83
11483,48
11484,21
11485,37
11486,67
11487,108
11488,154
11489,186
11490,200
11491,194
11492,174
11493,156
11494,145
11495,147
11496,147
11497,160
11498,175
11499,188
11500,198
11501,197
11502,189
11503,189
11504,182
11505,157
11506,132
11507,128
11508,144
11509,173
11510,211
11511,254
11512,283
11513,285
11514,268
11515,249
11516,226
11517,204
11518,214
11519,245
11520,256
11521,175
11522,82
11523,-10
11524,-76
11525,-106
11526,-93
11527,-47
11528,10
11529,60
11530,76
11531,55
11532,16
11533,-35
11534,-90
11535,-118
11536,-125
11537,-131
11538,-134
11539,-131
11540,-128
11541,-120
11542,-98
11543,-70
11544,-51
11545,-45
11546,-53
11547,-73
11548,-100
11549,-123
11550,-139
11551,-146
11552,-144
11553,-114
11554,-66
11555,-32
11556,-2
11557,4
11558,1
11559,-9
11560,-25
11561,-44
11562,-63
11563,-81
11564,-88
11565,-99
11566,-114
11567,-111
11568,-86
11569,-49
11570,-8
11571,18
11572,26
11573,16
11574,-5
11575,-31
11576,-59
11577,-73
11578,-67
11579,-48
11580,-26
11581,-8
11582,8
11583,24
11584,41
11585,63
11586,82
11587,97
11588,111
11589,120
11590,123
11591,118
11592,103
11593,64
11594,49
11595,39
11596,47
11597,63
11598,78
11599,97
11600,113
11601,119
11602,119
11603,119
11604,115
11605,109
11606,110
11607,131
11608,163
11609,182
11610,182
11611,181
11612,174
11613,161
11614,154
11615,152
11616,148
11617,133
11618,114
11619,96
11620,67
11621,37
11622,27
11623,36
11624,53
11625,71
11626,84
11627,82
11628,74
11629,63
11630,64
11631,66
11632,69
11633,70
11634,59
11635,48
11636,47
11637,54
11638,54
11639,60
11640,68
11641,72
11642,76
11643,88
11644,98
11645,118
11646,157
11647,202
11648,246
11649,281
11650,281
11651,236
11652,150
11653,43
11654,-47
11655,-105
11656,-133
11657,-115
11658,-56
11659,18
11660,85
11661,124
11662,132
11663,124
11664,104
11665,90
11666,89
11667,90
11668,91
11669,93
11670,97
11671,99
11672,97
11673,97
11674,101
11675,107
11676,114
11677,125
11678,135
11679,147
11680,159
11681,169
11682,175
11683,177
11684,176
11685,176
11686,180
11687,192
11688,214
11689,251
11690,299
11691,360
11692,425
11693,481
11694,520
11695,537
11696,537
11697,524
11698,489
11699,436
11700,371
11701,287
11702,186
11703,-20
11704,-110
11705,-179
11706,-221
11707,-229
11708,-206
11709,-170
11710,-126
11711,-76
11712,-34
11713,-1
11714,20
11715,38
11716,61
11717,85
11718,101
11719,114
11720,127
11721,132
11722,127
11723,109
11724,87
11725,71
11726,55
11727,51
11728,68
11729,82
11730,94
11731,117
11732,140
11733,161
11734,177
11735,179
11736,178
11737,175
11738,166
11739,160
11740,157
11741,158
11742,165
11743,171
11744,176
11745,179
11746,179
11747,178
11748,179
11749,182
11750,182
11751,183
11752,186
11753,185
11754,187
11755,189
11756,186
11757,179
11758,177
11759,175
11760,172
11761,171
11762,161
11763,149
11764,143
11765,143
11766,145
11767,150
11768,161
11769,169
11770,173
11771,173
11772,167
11773,161
11774,153
11775,148
11776,151
11777,153
11778,154
11779,166
11780,188
11781,188
11782,208
11783,230
11784,249
11785,247
11786,236
11787,226
11788,214
11789,197
11790,181
11791,168
11792,163
11793,164
11794,167
11795,182
11796,205
11797,220
11798,235
11799,243
11800,228
11801,194
11802,156
11803,127
11804,113
11805,107
11806,115
11807,136
11808,157
11809,172
11810,184
11811,188
11812,183
11813,176
11814,178
11815,202
11816,203
11817,196
11818,179
11819,148
11820,113
11821,81
11822,62
11823,55
11824,58
11825,66
11826,74
11827,75
11828,71
11829,66
11830,66
11831,69
11832,77
11833,87
11834,91
11835,90
11836,79
11837,63
11838,42
11839,19
11840,0
11841,-23
11842,-44
11843,-58
11844,-71
11845,-75
11846,-68
11847,-57
11848,-44
11849,-34
11850,-34
11851,-42
11852,-73
11853,-93
11854,-109
11855,-120
11856,-121
11857,-112
11858,-104
11859,-94
11860,-82
11861,-70
11862,-61
11863,-55
11864,-56
11865,-61
11866,-68
11867,-74
11868,-79
11869,-79
11870,-75
11871,-72
11872,-71
11873,-71
11874,-70
11875,-69
11876,-67
11877,-66
11878,-69
11879,-69
11880,-64
11881,-55
11882,-46
11883,-37
11884,-32
11885,-29
11886,-34
11887,-44
11888,-62
11889,-65
11890,-60
11891,-54
11892,-49
11893,-37
11894,-25
11895,-18
11896,-12
11897,-12
11898,-18
11899,-25
11900,-33
11901,-40
11902,-43
11903,-46
11904,-41
11905,-28
11906,-22
11907,-27
11908,-30
11909,-31
11910,-33
11911,-29
11912,-19
11913,-14
11914,-12
11915,-9
11916,-6
11917,-6
11918,-7
11919,-4
11920,4
11921,13
11922,16
11923,16
11924,14
11925,10
11926,-7
11927,-8
11928,-7
11929,-6
11930,0
11931,7
11932,12
11933,19
11934,27
11935,31
11936,31
11937,31
11938,32
11939,39
11940,52
11941,64
11942,77
11943,88
11944,92
11945,93
11946,89
11947,82
11948,79
11949,79
11950,83
11951,89
11952,92
11953,87
11954,84
11955,84
11956,84
11957,85
11958,86
11959,87
11960,88
11961,85
11962,84
11963,89
11964,93
11965,93
11966,88
11967,72
11968,49
11969,24
11970,3
11971,-8
11972,-4
11973,18
11974,54
11975,93
11976,128
11977,150
11978,159
11979,165
11980,167
11981,157
11982,140
11983,125
11984,113
11985,106
11986,104
11987,108
11988,116
11989,126
11990,139
11991,154
11992,160
11993,152
11994,139
11995,129
11996,123
11997,121
11998,119
11999,125
12000,134
12001,153
12002,180
12003,214
12004,258
12005,311
12006,363
12007,416
12008,469
12009,513
12010,550
12011,574
12012,579
12013,578
12014,566
12015,530
12016,474
12017,401
12018,308
12019,210
12020,115
12021,30
12022,-34
12023,-80
12024,-106
12025,-104
12026,-84
12027,-56
12028,-17
12029,32
12030,84
12031,130
12032,162
12033,177
12034,179
12035,162
12036,150
12037,143
12038,139
12039,136
12040,131
12041,121
12042,111
12043,104
12044,100
12045,101
12046,100
12047,98
12048,96
12049,93
12050,92
12051,94
12052,94
12053,92
12054,92
12055,95
12056,102
12057,102
12058,79
12059,41
12060,14
12061,5
12062,13
12063,43
12064,88
12065,88
12066,138
12067,181
12068,206
12069,205
12070,184
12071,154
12072,128
12073,123
12074,132
12075,135
12076,121
12077,113
12078,109
12079,109
12080,104
12081,101
12082,108
12083,113
12084,111
12085,112
12086,119
12087,121
12088,120
12089,116
12090,112
12091,113
12092,110
12093,107
12094,109
12095,108
12096,101
12097,97
12098,97
12099,91
12100,87
12101,85
12102,81
12103,83
12104,79
12105,76
12106,80
12107,90
12108,103
12109,117
12110,130
12111,133
12112,124
12113,111
12114,92
12115,72
12116,59
12117,62
12118,78
12119,97
12120,121
12121,148
12122,173
12123,188
12124,196
12125,201
12126,200
12127,191
12128,181
12129,180
12130,185
12131,197
12132,216
12133,240
12134,261
12135,266
12136,257
12137,243
12138,221
12139,192
12140,167
12141,154
12142,150
12143,152
12144,153
12145,153
12146,152
12147,139
12148,134
12149,126
12150,116
12151,103
12152,89
12153,74
12154,56
12155,34
12156,15
12157,2
12158,-7
12159,-15
12160,-16
12161,-9
12162,2
12163,9
12164,18
12165,25
12166,17
12167,6
12168,-5
12169,-22
12170,-46
12171,-64
12172,-74
12173,-73
12174,-63
12175,-50
12176,-32
12177,-11
12178,1
12179,7
12180,3
12181,-13
12182,-46
12183,-46
12184,-42
12185,-30
12186,-15
12187,-3
12188,0
12189,-6
12190,-16
12191,-24
12192,-28
12193,-29
12194,-24
12195,-19
12196,-18
12197,-18
12198,-17
12199,-18
12200,-21
12201,-22
12202,-17
12203,-9
12204,-3
12205,-4
12206,-9
12207,-9
12208,-19
12209,-31
12210,-40
12211,-45
12212,-43
12213,-36
12214,-25
12215,-12
12216,-4
12217,-4
12218,-9
12219,-15
12220,-18
12221,-13
12222,-5
12223,1
12224,8
12225,16
12226,17
12227,10
12228,3
12229,-2
12230,-8
12231,-12
12232,-12
12233,-10
12234,-5
12235,2
12236,14
12237,27
12238,36
12239,41
12240,43
12241,38
12242,28
12243,18
12244,13
12245,10
12246,15
12247,24
12248,35
12249,43
12250,43
12251,44
12252,33
12253,30
12254,34
12255,39
12256,50
12257,70
12258,86
12259,94
12260,92
12261,78
12262,60
12263,43
12264,29
12265,29
12266,35
12267,35
12268,40
12269,48
12270,48
12271,39
12272,31
12273,17
12274,0
12275,-9
12276,-14
12277,-19
12278,-25
12279,-30
12280,-24
12281,-8
12282,6
12283,19
12284,33
12285,46
12286,60
12287,59
12288,48
12289,34
12290,22
12291,13
12292,8
12293,1
12294,-5
12295,-10
12296,-16
12297,-19
12298,-21
12299,-16
12300,-7
12301,0
12302,0
12303,2
12304,6
12305,8
12306,8
12307,8
12308,6
12309,4
12310,-1
12311,-8
12312,-15
12313,-25
12314,-31
12315,-31
12316,-28
12317,-19
12318,-6
12319,10
12320,38
12321,115
12322,161
12323,218
12324,280
12325,339
12326,385
12327,409
12328,419
12329,412
12330,378
12331,328
12332,265
12333,181
12334,83
12335,-17
12336,-116
12337,-207
12338,-278
12339,-321
12340,-329
12341,-307
12342,-277
12343,-244
12344,-216
12345,-194
12346,-174
12347,-152
12348,-128
12349,-100
12350,-100
12351,-76
12352,-60
12353,-52
12354,-54
12355,-64
12356,-92
12357,-103
12358,-108
12359,-114
12360,-120
12361,-128
12362,-136
12363,-137
12364,-130
12365,-117
12366,-99
12367,-71
12368,-43
12369,-21
12370,-8
12371,-6
12372,-9
12373,-14
12374,-14
12375,0
12376,21
12377,40
12378,56
12379,61
12380,53
12381,31
12382,2
12383,-22
12384,-37
12385,-48
12386,-47
12387,-30
12388,-11
12389,2
12390,15
12391,32
12392,36
12393,29
12394,20
12395,6
12396,-11
12397,-26
12398,-37
12399,-47
12400,-51
12401,-43
12402,-30
12403,-17
12404,-1
12405,13
12406,25
12407,31
12408,29
12409,31
12410,36
12411,42
12412,48
12413,62
12414,73
12415,81
12416,87
12417,91
12418,87
12419,86
12420,91
12421,107
12422,130
12423,148
12424,158
12425,163
12426,149
12427,134
12428,120
12429,109
12430,106
12431,105
12432,102
12433,100
12434,97
12435,99
12436,107
12437,118
12438,134
12439,147
12440,155
12441,158
12442,156
12443,147
12444,138
12445,128
12446,119
12447,113
12448,113
12449,117
12450,122
12451,126
12452,131
12453,136
12454,137
12455,129
12456,115
12457,108
12458,102
12459,95
12460,97
12461,109
12462,109
12463,110
12464,108
12465,102
12466,94
12467,86
12468,83
12469,76
12470,63
12471,54
12472,48
12473,43
12474,38
12475,33
12476,31
12477,31
12478,26
12479,12
12480,-1
12481,-11
12482,-16
12483,-15
12484,-7
12485,4
12486,13
12487,17
12488,21
12489,22
12490,19
12491,21
12492,21
12493,32
12494,48
12495,63
12496,71
12497,66
12498,27
12499,-3
12500,-38
12501,-67
12502,-79
12503,-74
12504,-59
12505,-37
12506,-12
12507,11
12508,26
12509,34
12510,37
12511,33
12512,27
12513,25
12514,23
12515,13
12516,2
12517,-5
12518,-6
12519,8
12520,29
12521,49
12522,62
12523,70
12524,68
12525,57
12526,43
12527,38
12528,47
12529,63
12530,86
12531,112
12532,132
12533,125
12534,111
12535,88
12536,65
12537,50
12538,38
12539,30
12540,32
12541,53
12542,85
12543,116
12544,144
12545,172
12546,194
12547,200
12548,190
12549,173
12550,148
12551,123
12552,106
12553,94
12554,86
12555,85
12556,99
12557,131
12558,167
12559,192
12560,207
12561,205
12562,186
12563,156
12564,123
12565,97
12566,90
12567,102
12568,127
12569,174
12570,177
12571,167
12572,154
12573,143
12574,138
12575,135
12576,133
12577,137
12578,142
12579,140
12580,132
12581,117
12582,98
12583,84
12584,84
12585,92
12586,100
12587,103
12588,100
12589,90
12590,75
12591,54
12592,30
12593,12
12594,2
12595,-2
12596,-8
12597,-15
12598,-23
12599,-28
12600,-31
12601,-28
12602,-22
12603,-13
12604,-18
12605,-28
12606,-37
12607,-45
12608,-46
12609,-41
12610,-31
12611,-20
12612,-8
12613,0
12614,0
12615,-4
12616,-10
12617,-11
12618,-5
12619,-2
12620,-1
12621,2
12622,12
12623,22
12624,24
12625,13
12626,-13
12627,-48
12628,-75
12629,-86
12630,-80
12631,-51
12632,3
12633,78
12634,78
12635,162
12636,241
12637,309
12638,364
12639,428
12640,445
12641,446
12642,430
12643,398
12644,347
12645,279
12646,191
12647,87
12648,-14
12649,-110
12650,-195
12651,-260
12652,-296
12653,-304
12654,-290
12655,-264
12656,-230
12657,-188
12658,-154
12659,-130
12660,-105
12661,-83
12662,-68
12663,-65
12664,-74
12665,-77
12666,-75
12667,-64
12668,-38
12669,-5
12670,20
12671,36
12672,46
12673,52
12674,37
12675,27
12676,30
12677,42
12678,53
12679,60
12680,54
12681,38
12682,21
12683,7
12684,-1
12685,-6
12686,-7
12687,-4
12688,1
12689,9
12690,19
12691,25
12692,29
12693,28
12694,25
12695,22
12696,18
12697,12
12698,13
12699,19
12700,25
12701,36
12702,49
12703,57
12704,56
12705,53
12706,53
12707,56
12708,62
12709,85
12710,95
12711,92
12712,83
12713,73
12714,62
12715,53
12716,52
12717,61
12718,69
12719,79
12720,88
12721,92
12722,91
12723,89
12724,92
12725,97
12726,102
12727,104
12728,104
12729,102
12730,100
12731,101
12732,99
12733,99
12734,102
12735,110
12736,127
12737,149
12738,173
12739,200
12740,219
12741,225
12742,226
12743,218
12744,188
12745,179
12746,178
12747,187
12748,196
12749,204
12750,209
12751,206
12752,201
12753,201
12754,200
12755,198
12756,200
12757,205
12758,214
12759,222
12760,227
12761,228
12762,226
12763,220
12764,217
12765,215
12766,217
12767,224
12768,233
12769,237
12770,240
12771,242
12772,236
12773,225
12774,217
12775,209
12776,209
12777,209
12778,182
12779,169
12780,146
12781,134
12782,128
12783,128
12784,127
12785,126
12786,128
12787,128
12788,119
12789,109
12790,104
12791,98
12792,92
12793,87
12794,78
12795,72
12796,63
12797,54
12798,50
12799,46
12800,40
12801,41
12802,47
12803,49
12804,51
12805,56
12806,61
12807,67
12808,73
12809,74
12810,70
12811,60
12812,47
12813,32
12814,8
12815,2
12816,1
12817,2
12818,1
12819,7
12820,12
12821,11
12822,13
12823,14
12824,12
12825,8
12826,0
12827,-5
12828,-12
12829,-19
12830,-21
12831,-19
12832,-16
12833,-15
12834,-13
12835,-5
12836,5
12837,16
12838,25
12839,35
12840,42
12841,44
12842,44
12843,42
12844,40
12845,41
12846,44
12847,44
12848,41
12849,33
12850,8
12851,0
12852,-5
12853,-5
12854,-1
12855,1
12856,3
12857,3
12858,0
12859,0
12860,5
12861,10
12862,16
12863,21
12864,21
12865,19
12866,16
12867,9
12868,5
12869,2
12870,-4
12871,-13
12872,-30
12873,-56
12874,-79
12875,-87
12876,-77
12877,-44
12878,-3
12879,19
12880,31
12881,34
12882,16
12883,-2
12884,-10
12885,-7
12886,45
12887,73
12888,92
12889,92
12890,71
12891,49
12892,35
12893,17
12894,8
12895,10
12896,10
12897,14
12898,19
12899,20
12900,18
12901,13
12902,8
12903,1
12904,0
12905,1
12906,4
12907,8
12908,11
12909,14
12910,15
12911,15
12912,13
12913,11
12914,6
12915,-3
12916,-10
12917,-13
12918,-17
12919,-17
12920,-18
12921,-17
12922,-27
12923,-39
12924,-51
12925,-58
12926,-62
12927,-63
12928,-57
12929,-52
12930,-47
12931,-44
12932,-47
12933,-54
12934,-58
12935,-61
12936,-57
12937,-49
12938,-41
12939,-36
12940,-30
12941,-21
12942,-14
12943,-9
12944,-7
12945,-8
12946,-8
12947,-7
12948,-7
12949,-8
12950,-12
12951,-16
12952,-17
12953,-16
12954,-18
12955,-21
12956,-22
12957,-20
12958,-3
12959,20
12960,56
12961,102
12962,155
12963,213
12964,273
12965,327
12966,368
12967,398
12968,408
12969,398
12970,380
12971,351
12972,306
12973,246
12974,166
12975,73
12976,-21
12977,-117
12978,-203
12979,-260
12980,-292
12981,-297
12982,-281
12983,-251
12984,-217
12985,-181
12986,-148
12987,-112
12988,-73
12989,-41
12990,-15
12991,8
12992,24
12993,23
12994,19
12995,13
12996,3
12997,-6
12998,-11
12999,-15
13000,-13
13001,-5
13002,7
13003,20
13004,31
13005,37
13006,37
13007,32
13008,26
13009,19
13010,13
13011,6
13012,2
13013,6
13014,11
13015,17
13016,26
13017,38
13018,48
13019,57
13020,61
13021,61
13022,58
13023,53
13024,44
13025,36
13026,30
13027,28
13028,31
13029,33
13030,35
13031,40
13032,48
13033,53
13034,53
13035,51
13036,49
13037,44
13038,42
13039,43
13040,46
13041,50
13042,55
13043,61
13044,65
13045,63
13046,59
13047,55
13048,54
13049,53
13050,56
13051,62
13052,69
13053,76
13054,85
13055,88
13056,87
13057,84
13058,81
13059,77
13060,77
13061,81
13062,81
13063,98
13064,107
13065,118
13066,129
13067,136
13068,139
13069,142
13070,142
13071,141
13072,137
13073,134
13074,133
13075,131
13076,131
13077,133
13078,136
13079,140
13080,144
13081,146
13082,150
13083,156
13084,163
13085,167
13086,169
13087,169
13088,168
13089,168
13090,167
13091,167
13092,168
13093,170
13094,171
13095,171
13096,167
13097,164
13098,160
13099,159
13100,158
13101,155
13102,149
13103,140
13104,132
13105,121
13106,112
13107,105
13108,100
13109,96
13110,92
13111,88
13112,83
13113,79
13114,78
13115,76
13116,73
13117,68
13118,64
13119,54
13120,44
13121,39
13122,37
13123,37
13124,43
13125,53
13126,62
13127,69
13128,68
13129,58
13130,45
13131,29
13132,17
13133,14
13134,16
13135,20
13136,24
13137,27
13138,26
13139,23
13140,23
13141,27
13142,31
13143,37
13144,42
13145,43
13146,42
13147,38
13148,31
13149,22
13150,7
13151,-3
13152,-8
13153,-9
13154,-6
13155,6
13156,20
13157,32
13158,39
13159,41
13160,38
13161,33
13162,22
13163,18
13164,18
13165,20
13166,25
13167,34
13168,44
13169,54
13170,73
13171,73
13172,69
13173,61
13174,51
13175,40
13176,31
13177,22
13178,16
13179,15
13180,23
13181,32
13182,40
13183,46
13184,51
13185,51
13186,46
13187,38
13188,31
13189,26
13190,26
13191,30
13192,39
13193,47
13194,51
13195,53
13196,52
13197,47
13198,39
13199,30
13200,23
13201,20
13202,20
13203,20
13204,23
13205,30
13206,38
13207,51
13208,53
13209,51
13210,48
13211,43
13212,41
13213,38
13214,37
13215,36
13216,34
13217,31
13218,31
13219,29
13220,27
13221,30
13222,32
13223,33
13224,37
13225,41
13226,45
13227,49
13228,47
13229,50
13230,54
13231,54
13232,55
13233,59
13234,62
13235,68
13236,75
13237,79
13238,82
13239,81
13240,79
13241,83
13242,83
13243,81
13244,80
13245,74
13246,70
13247,66
13248,63
13249,66
13250,70
13251,73
13252,75
13253,72
13254,61
13255,49
13256,39
13257,27
13258,17
13259,14
13260,10
13261,3
13262,-4
13263,-12
13264,-15
13265,-15
13266,-12
13267,-6
13268,0
13269,6
13270,11
13271,14
13272,15
13273,11
13274,8
13275,5
13276,-2
13277,-12
13278,-31
13279,-34
13280,-32
13281,-25
13282,-18
13283,-12
13284,-8
13285,-7
13286,-11
13287,-18
13288,-23
13289,-24
13290,-25
13291,-27
13292,-27
13293,-28
13294,-27
13295,-23
13296,-10
13297,14
13298,51
13299,92
13300,141
13301,191
13302,243
13303,291
13304,328
13305,352
13306,359
13307,345
13308,320
13309,282
13310,228
13311,157
13312,74
13313,-96
13314,-177
13315,-249
13316,-300
13317,-329
13318,-336
13319,-320
13320,-293
13321,-262
13322,-227
13323,-191
13324,-154
13325,-122
13326,-95
13327,-73
13328,-59
13329,-48
13330,-43
13331,-42
13332,-39
13333,-36
13334,-30
13335,-24
13336,-15
13337,-8
13338,1
13339,13
13340,22
13341,28
13342,36
13343,43
13344,47
13345,47
13346,50
13347,49
13348,45
13349,41
13350,40
13351,45
13352,54
13353,60
13354,68
13355,78
13356,81
13357,79
13358,78
13359,76
13360,72
13361,68
13362,65
13363,63
13364,64
13365,66
13366,69
13367,76
13368,76
13369,71
13370,70
13371,67
13372,58
13373,51
13374,49
13375,50
13376,53
13377,59
13378,66
13379,72
13380,77
13381,87
13382,96
13383,101
13384,103
13385,104
13386,101
13387,97
13388,94
13389,93
13390,95
13391,98
13392,106
13393,113
13394,116
13395,119
13396,119
13397,119
13398,122
13399,128
13400,135
13401,143
13402,149
13403,151
13404,151
13405,148
13406,144
13407,140
13408,140
13409,149
13410,164
13411,182
13412,200
13413,211
13414,210
13415,207
13416,203
13417,200
13418,200
13419,204
13420,220
13421,227
13422,227
13423,226
13424,225
13425,224
13426,229
13427,238
13428,241
13429,242
13430,239
13431,232
13432,223
13433,216
13434,211
13435,207
13436,203
13437,201
13438,199
13439,195
13440,193
13441,189
13442,184
13443,179
13444,171
13445,163
13446,155
13447,146
13448,138
13449,133
13450,129
13451,124
13452,119
13453,108
13454,100
13455,97
13456,77
13457,72
13458,64
13459,59
13460,53
13461,44
13462,38
13463,35
13464,35
13465,42
13466,46
13467,42
13468,37
13469,30
13470,22
13471,15
13472,8
13473,6
13474,8
13475,10
13476,11
13477,14
13478,10
13479,9
13480,11
13481,14
13482,17
13483,19
13484,19
13485,18
13486,14
13487,7
13488,7
13489,0
13490,-5
13491,-10
13492,-17
13493,-17
13494,-14
13495,-11
13496,-7
13497,-6
13498,-9
13499,-11
13500,-11
13501,-13
13502,-12
13503,-11
13504,-9
13505,-8
13506,-7
13507,-7
13508,-8
13509,-9
13510,-9
13511,-5
13512,-2
13513,-2
13514,-1
13515,0
13516,1
13517,0
13518,1
13519,5
13520,6
13521,8
13522,11
13523,14
13524,16
13525,17
13526,19
13527,13
13528,9
13529,5
13530,2
13531,4
13532,8
13533,18
13534,30
13535,42
13536,52
13537,54
13538,48
13539,43
13540,37
13541,29
13542,26
13543,24
13544,22
13545,22
13546,20
13547,15
13548,7
13549,0
13550,-1
13551,0
13552,3
13553,5
13554,8
13555,8
13556,10
13557,13
13558,15
13559,18
13560,23
13561,28
13562,34
13563,30
13564,27
13565,25
13566,24
13567,28
13568,34
13569,38
13570,44
13571,46
13572,47
13573,46
13574,41
13575,32
13576,25
13577,20
13578,16
13579,15
13580,18
13581,20
13582,20
13583,21
13584,19
13585,15
13586,5
13587,-4
13588,-12
13589,-20
13590,-27
13591,-25
13592,-15
13593,-1
13594,12
13595,27
13596,36
13597,29
13598,17
13599,4
13600,-5
13601,-12
13602,-11
13603,-6
13604,-2
13605,1
13606,8
13607,13
13608,17
13609,23
13610,31
13611,35
13612,41
13613,48
13614,53
13615,57
13616,62
13617,66
13618,70
13619,74
13620,80
13621,86
13622,91
13623,94
13624,96
13625,99
13626,100
13627,99
13628,98
13629,97
13630,97
13631,95
13632,95
13633,96
13634,101
13635,106
13636,109
13637,116
13638,125
13639,130
13640,133
13641,141
13642,149
13643,152
13644,153
13645,148
13646,141
13647,132
13648,121
13649,114
13650,112
13651,110
13652,112
13653,118
13654,120
13655,117
13656,110
13657,95
13658,82
13659,74
13660,63
13661,58
13662,60
13663,65
13664,67
13665,60
13666,54
13667,49
13668,45
13669,44
13670,49
13671,52
13672,52
13673,53
13674,54
13675,49
13676,44
13677,44
13678,44
13679,44
13680,43
13681,39
13682,38
13683,38
13684,38
13685,39
13686,40
13687,38
13688,37
13689,39
13690,46
13691,65
13692,91
13693,124
13694,166
13695,216
13696,272
13697,330
13698,378
13699,415
13700,439
13701,447
13702,442
13703,424
13704,390
13705,257
13706,166
13707,64
13708,-43
13709,-145
13710,-229
13711,-283
13712,-305
13713,-297
13714,-268
13715,-224
13716,-176
13717,-127
13718,-80
13719,-42
13720,-16
13721,0
13722,6
13723,4
13724,0
13725,-1
13726,-3
13727,-1
13728,4
13729,11
13730,14
13731,17
13732,20
13733,21
13734,21
13735,20
13736,20
13737,22
13738,25
13739,27
13740,32
13741,37
13742,37
13743,39
13744,38
13745,37
13746,39
13747,42
13748,46
13749,49
13750,50
13751,55
13752,57
13753,56
13754,56
13755,58
13756,57
13757,58
13758,60
13759,61
13760,62
13761,61
13762,64
13763,67
13764,65
13765,61
13766,58
13767,56
13768,51
13769,48
13770,46
13771,43
13772,43
13773,43
13774,50
13775,61
13776,72
13777,85
13778,89
13779,87
13780,83
13781,78
13782,77
13783,77
13784,84
13785,94
13786,104
13787,110
13788,110
13789,108
13790,108
13791,105
13792,103
13793,106
13794,110
13795,113
13796,118
13797,123
13798,127
13799,132
13800,137
13801,140
13802,143
13803,144
13804,144
13805,142
13806,139
13807,139
13808,142
13809,148
13810,156
13811,164
13812,176
13813,176
13814,173
13815,169
13816,164
13817,163
13818,165
13819,169
13820,175
13821,180
13822,180
13823,179
13824,172
13825,162
13826,152
13827,143
13828,137
13829,136
13830,135
13831,137
13832,135
13833,132
13834,128
13835,123
13836,113
13837,106
13838,101
13839,94
13840,87
13841,81
13842,77
13843,72
13844,61
13845,50
13846,39
13847,31
13848,23
13849,24
13850,26
13851,24
13852,21
13853,16
13854,6
13855,-4
13856,-9
13857,-8
13858,-5
13859,0
13860,3
13861,2
13862,0
13863,-2
13864,-6
13865,-10
13866,-12
13867,-13
13868,-11
13869,-6
13870,-3
13871,2
13872,5
13873,5
13874,2
13875,0
13876,-4
13877,-10
13878,-12
13879,-13
13880,-15
13881,-15
13882,-16
13883,-12
13884,-10
13885,-9
13886,-4
13887,0
13888,-1
13889,-1
13890,-1
13891,-2
13892,-1
13893,-1
13894,0
13895,0
13896,-4
13897,-8
13898,-9
13899,-9
13900,-8
13901,-3
13902,1
13903,2
13904,3
13905,4
13906,4
13907,4
13908,5
13909,6
13910,8
13911,7
13912,4
13913,0
13914,0
13915,-4
13916,-7
13917,-6
13918,-2
13919,10
13920,13
13921,15
13922,17
13923,15
13924,14
13925,14
13926,13
13927,13
13928,12
13929,5
13930,0
13931,-3
