,ECG
0,35520
1,35200
2,34752
3,34304
4,33792
5,33344
6,32960
7,32576
8,32256
9,32000
10,31872
11,31744
12,31680
13,31680
14,31744
15,31808
16,31936
17,32000
18,32128
19,32320
20,32384
21,32512
22,32704
23,32832
24,32960
25,33088
26,33152
27,33216
28,33280
29,33344
30,33408
31,33408
32,33472
33,33536
34,33600
35,33664
36,33664
37,33664
38,33728
39,33728
40,33792
41,33792
42,33792
43,33792
44,33728
45,33728
46,33728
47,33728
48,33792
49,33792
50,33792
51,33856
52,33856
53,33856
54,33856
55,33792
56,33856
57,33792
58,33792
59,33792
60,33856
61,33856
62,33856
63,33856
64,33856
65,33856
66,33920
67,33984
68,34176
69,34368
70,34560
71,34688
72,34688
73,34688
74,34624
75,34688
76,34752
77,34688
78,34496
79,34304
80,34176
81,34048
82,33920
83,33792
84,33664
85,33536
86,33472
87,33472
88,33408
89,33472
90,33536
91,33536
92,33600
93,33600
94,33664
95,33664
96,33728
97,33728
98,33664
99,33536
100,33664
101,34112
102,35072
103,36544
104,38784
105,41600
106,44224
107,45440
108,44544
109,42112
110,39168
111,36224
112,33600
113,31872
114,31040
115,30848
116,31040
117,31360
118,31616
119,31872
120,32064
121,32192
122,32320
123,32448
124,32576
125,32768
126,32896
127,33024
128,33152
129,33280
130,33408
131,33472
132,33600
133,33664
134,33792
135,33856
136,33920
137,33984
138,34048
139,34176
140,34240
141,34304
142,34432
143,34496
144,34624
145,34688
146,34752
147,34880
148,35008
149,35072
150,35200
151,35328
152,35456
153,35584
154,35648
155,35776
156,35904
157,36032
158,36096
159,36160
160,36224
161,36224
162,36224
163,36224
164,36160
165,36160
166,36032
167,35904
168,35712
169,35456
170,35136
171,34752
172,34304
173,33856
174,33408
175,33024
176,32704
177,32448
178,32192
179,32064
180,31936
181,31872
182,31808
183,31808
184,31808
185,31936
186,32000
187,32128
188,32256
189,32448
190,32576
191,32704
192,32768
193,32832
194,32896
195,32960
196,33088
197,33216
198,33344
199,33408
200,33472
201,33536
202,33600
203,33600
204,33600
205,33664
206,33664
207,33664
208,33664
209,33664
210,33728
211,33728
212,33792
213,33792
214,33792
215,33792
216,33792
217,33792
218,33792
219,33792
220,33792
221,33792
222,33856
223,33920
224,33856
225,33792
226,33728
227,33728
228,33728
229,33728
230,33728
231,33792
232,33856
233,33920
234,34048
235,34304
236,34432
237,34560
238,34624
239,34624
240,34624
241,34624
242,34624
243,34624
244,34496
245,34304
246,34112
247,33920
248,33792
249,33664
250,33472
251,33344
252,33280
253,33216
254,33216
255,33280
256,33280
257,33344
258,33408
259,33472
260,33536
261,33536
262,33600
263,33664
264,33600
265,33536
266,33600
267,34112
268,35136
269,36672
270,38848
271,41600
272,44224
273,45504
274,44672
275,42304
276,39296
277,36288
278,33728
279,31872
280,31040
281,30912
282,31104
283,31360
284,31616
285,31808
286,31936
287,32064
288,32256
289,32448
290,32576
291,32704
292,32832
293,32960
294,33088
295,33216
296,33280
297,33408
298,33472
299,33536
300,33600
301,33728
302,33856
303,33984
304,34048
305,34176
306,34304
307,34368
308,34432
309,34560
310,34624
311,34752
312,34816
313,34880
314,35008
315,35136
316,35200
317,35328
318,35392
319,35520
320,35648
321,35712
322,35840
323,35968
324,36032
325,36160
326,36160
327,36224
328,36224
329,36224
330,36224
331,36160
332,36032
333,35904
334,35648
335,35328
336,35008
337,34560
338,34112
339,33664
340,33280
341,32896
342,32512
343,32256
344,32064
345,31936
346,31808
347,31744
348,31744
349,31744
350,31808
351,31936
352,32128
353,32192
354,32320
355,32384
356,32512
357,32576
358,32704
359,32832
360,32896
361,33024
362,33088
363,33152
364,33280
365,33344
366,33408
367,33472
368,33536
369,33600
370,33664
371,33664
372,33728
373,33728
374,33728
375,33792
376,33792
377,33792
378,33856
379,33920
380,33984
381,33920
382,33856
383,33792
384,33728
385,33728
386,33728
387,33728
388,33728
389,33792
390,33856
391,33856
392,33856
393,33856
394,33920
395,33856
396,33856
397,33920
398,33920
399,33984
400,33920
401,33920
402,33920
403,33920
404,33920
405,33984
406,34112
407,34240
408,34432
409,34624
410,34688
411,34752
412,34688
413,34688
414,34688
415,34752
416,34688
417,34496
418,34368
419,34176
420,34048
421,33856
422,33792
423,33600
424,33472
425,33344
426,33280
427,33280
428,33216
429,33280
430,33344
431,33472
432,33536
433,33600
434,33664
435,33728
436,33728
437,33664
438,33536
439,33600
440,33984
441,34880
442,36544
443,38592
444,41472
445,44352
446,46080
447,45632
448,43392
449,40192
450,36928
451,34048
452,32064
453,31104
454,30912
455,31040
456,31232
457,31424
458,31616
459,31744
460,31936
461,32128
462,32256
463,32384
464,32576
465,32768
466,32896
467,32960
468,33152
469,33216
470,33344
471,33472
472,33600
473,33728
474,33792
475,33856
476,33920
477,33984
478,34112
479,34240
480,34368
481,34368
482,34496
483,34560
484,34688
485,34752
486,34880
487,34944
488,35072
489,35200
490,35264
491,35392
492,35520
493,35712
494,35776
495,35904
496,35968
497,36096
498,36160
499,36224
500,36288
501,36288
502,36288
503,36224
504,36160
505,36032
506,35904
507,35712
508,35520
509,35200
510,34816
511,34368
512,33920
513,33472
514,33024
515,32704
516,32384
517,32192
518,32000
519,31872
520,31808
521,31808
522,31872
523,31936
524,32000
525,32064
526,32128
527,32256
528,32320
529,32448
530,32576
531,32704
532,32832
533,32896
534,33024
535,33152
536,33216
537,33280
538,33344
539,33408
540,33472
541,33472
542,33536
543,33600
544,33664
545,33728
546,33728
547,33792
548,33792
549,33856
550,33856
551,33856
552,33856
553,33856
554,33856
555,33856
556,33856
557,33856
558,33792
559,33728
560,33728
561,33792
562,33792
563,33792
564,33856
565,33856
566,33856
567,33856
568,33792
569,33792
570,33792
571,33792
572,33792
573,33856
574,33856
575,33856
576,33856
577,33920
578,33920
579,33856
580,33920
581,33984
582,34112
583,34176
584,34304
585,34432
586,34624
587,34688
588,34688
589,34688
590,34688
591,34688
592,34688
593,34624
594,34432
595,34240
596,34048
597,33920
598,33856
599,33728
600,33600
601,33472
602,33408
603,33344
604,33280
605,33344
606,33344
607,33472
608,33536
609,33600
610,33664
611,33728
612,33728
613,33664
614,33536
615,33408
616,33536
617,34112
618,35200
619,36928
620,39424
621,42368
622,45056
623,46080
624,44992
625,42304
626,39040
627,35904
628,33216
629,31616
630,30976
631,30976
632,31168
633,31360
634,31552
635,31680
636,31872
637,32000
638,32192
639,32384
640,32512
641,32704
642,32832
643,32960
644,33088
645,33216
646,33344
647,33472
648,33600
649,33664
650,33792
651,33856
652,33984
653,34048
654,34112
655,34240
656,34304
657,34368
658,34496
659,34560
660,34688
661,34816
662,34880
663,35008
664,35072
665,35200
666,35264
667,35392
668,35456
669,35584
670,35712
671,35840
672,35968
673,36096
674,36224
675,36288
676,36352
677,36352
678,36352
679,36352
680,36288
681,36224
682,36160
683,36032
684,35776
685,35456
686,35072
687,34624
688,34176
689,33728
690,33280
691,32896
692,32576
693,32256
694,32064
695,31936
696,31808
697,31808
698,31808
699,31808
700,31872
701,32000
702,32064
703,32192
704,32320
705,32384
706,32512
707,32640
708,32832
709,32960
710,33088
711,33152
712,33216
713,33280
714,33344
715,33408
716,33536
717,33600
718,33664
719,33664
720,33664
721,33664
722,33728
723,33728
724,33792
725,33792
726,33792
727,33792
728,33856
729,33856
730,33856
731,33856
732,33856
733,33792
734,33856
735,33856
736,33792
737,33792
738,33792
739,33792
740,33792
741,33792
742,33792
743,33856
744,33856
745,33856
746,33792
747,33856
748,33920
749,33856
750,33920
751,33920
752,33920
753,33920
754,33856
755,33856
756,33856
757,33856
758,33920
759,33920
760,33920
761,33984
762,33984
763,34048
764,34048
765,34176
766,34304
767,34496
768,34688
769,34688
770,34752
771,34688
772,34752
773,34816
774,34816
775,34816
776,34688
777,34432
778,34240
779,34048
780,33920
781,33792
782,33664
783,33536
784,33408
785,33344
786,33344
787,33408
788,33408
789,33408
790,33472
791,33536
792,33600
793,33664
794,33792
795,33792
796,33664
797,33600
798,33920
799,34368
800,35520
801,37312
802,39872
803,42944
804,45312
805,46080
806,44672
807,41920
808,38720
809,35584
810,33088
811,31552
812,30976
813,31104
814,31296
815,31488
816,31680
817,31808
818,32064
819,32192
820,32512
821,32640
822,32768
823,32832
824,32960
825,33152
826,33280
827,33408
828,33536
829,33600
830,33728
831,33792
832,33984
833,33920
834,33984
835,34176
836,34240
837,34368
838,34304
839,34496
840,34560
841,34688
842,34752
843,34880
844,34944
845,35072
846,35200
847,35328
848,35264
849,35328
850,35584
851,35648
852,35776
853,35712
854,35968
855,36032
856,36096
857,36160
858,36288
859,36352
860,36288
861,36224
862,36096
863,36032
864,35904
865,35648
866,35392
867,35008
868,34624
869,34240
870,33792
871,33344
872,33024
873,32704
874,32448
875,32192
876,32064
877,31936
878,31808
879,31808
880,31872
881,32000
882,32128
883,32064
884,32128
885,32384
886,32448
887,32640
888,32576
889,32704
890,32960
891,33024
892,33088
893,33152
894,33280
895,33344
896,33344
897,33408
898,33472
899,33536
900,33600
901,33664
902,33728
903,33792
904,33856
905,33920
906,33920
907,33920
908,33856
909,33920
910,33920
911,33920
912,33920
913,33920
914,33920
915,33920
916,33920
917,33920
918,33984
919,33984
920,33984
921,33984
922,33984
923,33984
924,33984
925,33984
926,33984
927,33984
928,33920
929,33920
930,33920
931,33984
932,33984
933,33920
934,33920
935,33920
936,33920
937,33920
938,33920
939,33984
940,34112
941,34112
942,34176
943,34304
944,34432
945,34560
946,34624
947,34688
948,34752
949,34816
950,34880
951,34816
952,34688
953,34496
954,34304
955,34176
956,34048
957,33856
958,33728
959,33600
960,33536
961,33472
962,33472
963,33472
964,33536
965,33664
966,33664
967,33728
968,33728
969,33728
970,33792
971,33792
972,33728
973,33664
974,33664
975,33984
976,34816
977,36352
978,36544
979,40832
980,43456
981,45056
982,44544
983,42432
984,39680
985,36864
986,34496
987,32064
988,31936
989,31104
990,31168
991,31424
992,31744
993,31808
994,32128
995,32256
996,32448
997,32576
998,32576
999,32768
1000,32896
1001,33024
1002,33152
1003,33216
1004,33344
1005,33408
1006,33536
1007,33664
1008,33856
1009,33920
1010,34048
1011,34112
1012,34176
1013,34240
1014,34304
1015,34368
1016,34432
1017,34496
1018,34560
1019,34688
1020,34752
1021,34816
1022,34944
1023,35008
1024,35136
1025,35264
1026,35392
1027,35648
1028,35584
1029,35776
1030,35904
1031,36032
1032,36160
1033,36224
1034,36224
1035,36288
1036,36288
1037,36224
1038,36160
1039,36160
1040,36032
1041,35904
1042,35584
1043,35520
1044,35200
1045,34816
1046,34368
1047,33920
1048,33472
1049,33088
1050,32768
1051,32512
1052,32256
1053,32064
1054,32000
1055,31872
1056,31872
1057,31872
1058,31936
1059,32000
1060,32064
1061,32128
1062,32384
1063,32320
1064,32512
1065,32640
1066,32768
1067,32896
1068,32960
1069,33024
1070,33024
1071,33088
1072,33216
1073,33280
1074,33408
1075,33408
1076,33472
1077,33536
1078,33536
1079,33664
1080,33664
1081,33728
1082,33792
1083,33792
1084,33792
1085,33792
1086,33792
1087,33792
1088,33792
1089,33792
1090,33856
1091,33856
1092,33856
1093,33856
1094,33920
1095,33856
1096,33856
1097,33856
1098,33792
1099,33856
1100,33856
1101,33920
1102,33920
1103,33920
1104,33984
1105,33920
1106,33920
1107,33920
1108,33856
1109,33856
1110,33856
1111,33856
1112,33856
1113,33856
1114,33920
1115,33920
1116,33920
1117,33920
1118,33920
1119,33856
1120,33856
1121,33920
1122,33920
1123,33984
1124,33984
1125,33984
1126,34048
1127,34240
1128,34176
1129,34560
1130,34688
1131,34816
1132,34816
1133,34752
1134,34816
1135,34880
1136,34880
1137,34816
1138,34560
1139,34368
1140,34240
1141,34048
1142,33984
1143,33856
1144,33728
1145,33536
1146,33472
1147,33408
1148,33408
1149,33472
1150,33472
1151,33536
1152,33664
1153,33664
1154,33728
1155,33728
1156,33728
1157,33664
1158,33536
1159,33536
1160,33792
1161,34624
1162,36608
1163,36736
1164,40576
1165,43520
1166,45632
1167,45440
1168,45120
1169,41024
1170,37824
1171,34816
1172,32576
1173,31360
1174,30976
1175,31040
1176,31232
1177,31360
1178,31488
1179,31616
1180,31808
1181,32000
1182,32256
1183,32256
1184,32512
1185,32640
1186,32768
1187,32896
1188,33024
1189,33152
1190,33280
1191,33408
1192,33472
1193,33600
1194,33664
1195,33792
1196,33856
1197,34048
1198,33984
1199,34112
1200,34240
1201,34304
1202,34496
1203,34432
1204,34624
1205,34688
1206,34752
1207,34880
1208,34944
1209,35072
1210,35200
1211,35328
1212,35456
1213,35584
1214,35712
1215,35840
1216,35968
1217,36032
1218,36096
1219,36224
1220,36224
1221,36288
1222,36288
1223,36288
1224,36224
1225,36160
1226,36032
1227,35904
1228,35648
1229,35392
1230,35008
1231,34560
1232,33984
1233,33856
1234,33152
1235,32768
1236,32384
1237,32000
1238,31936
1239,31744
1240,31616
1241,31616
1242,31616
1243,31680
1244,31744
1245,31808
1246,31936
1247,32064
1248,32192
1249,32320
1250,32448
1251,32576
1252,32768
1253,32704
1254,32896
1255,32960
1256,33088
1257,33152
1258,33216
1259,33280
1260,33344
1261,33408
1262,33472
1263,33536
1264,33600
1265,33664
1266,33664
1267,33728
1268,33664
1269,33728
1270,33728
1271,33792
1272,33792
1273,33792
1274,33856
1275,33856
1276,33856
1277,33856
1278,33856
1279,33792
1280,33792
1281,33792
1282,33792
1283,33792
1284,33792
1285,33856
1286,33792
1287,33792
1288,33792
1289,33792
1290,33792
1291,33792
1292,33792
1293,33792
1294,33792
1295,33792
1296,33792
1297,33792
1298,33792
1299,33792
1300,33856
1301,33856
1302,33920
1303,33920
1304,33920
1305,33856
1306,33856
1307,33856
1308,33792
1309,33856
1310,33856
1311,33856
1312,33856
1313,33920
1314,33984
1315,34048
1316,34112
1317,34240
1318,34368
1319,34496
1320,34624
1321,34688
1322,34752
1323,34752
1324,34752
1325,34816
1326,34816
1327,34752
1328,34624
1329,34432
1330,34240
1331,34048
1332,33920
1333,33792
1334,33600
1335,33536
1336,33472
1337,33408
1338,33408
1339,33472
1340,33536
1341,33600
1342,33664
1343,33728
1344,33728
1345,33792
1346,33792
1347,33792
1348,33664
1349,33536
1350,33728
1351,34368
1352,35520
1353,37312
1354,39808
1355,42752
1356,45248
1357,46016
1358,44608
1359,41856
1360,38656
1361,35584
1362,33152
1363,31616
1364,31040
1365,31040
1366,31232
1367,31424
1368,31616
1369,31744
1370,31872
1371,32000
1372,32192
1373,32320
1374,32512
1375,32640
1376,32768
1377,32960
1378,33088
1379,33216
1380,33344
1381,33472
1382,33600
1383,33664
1384,33792
1385,33856
1386,33920
1387,34048
1388,34112
1389,34240
1390,34304
1391,34368
1392,34432
1393,34432
1394,34496
1395,34560
1396,34688
1397,34880
1398,35008
1399,35072
1400,35200
1401,35392
1402,35520
1403,35648
1404,35776
1405,35904
1406,36032
1407,36160
1408,36224
1409,36352
1410,36416
1411,36416
1412,36416
1413,36352
1414,36352
1415,36288
1416,36160
1417,35968
1418,35712
1419,35456
1420,35072
1421,34624
1422,34240
1423,33792
1424,33344
1425,32896
1426,32512
1427,32192
1428,31936
1429,31808
1430,31680
1431,31680
1432,31680
1433,31680
1434,31744
1435,31808
1436,31936
1437,32000
1438,32128
1439,32320
1440,32448
1441,32576
1442,32704
1443,32832
1444,32960
1445,33024
1446,33088
1447,33216
1448,33280
1449,33344
1450,33408
1451,33472
1452,33536
1453,33536
1454,33600
1455,33600
1456,33664
1457,33728
1458,33728
1459,33792
1460,33792
1461,33792
1462,33792
1463,33792
1464,33792
1465,33792
1466,33792
1467,33856
1468,33856
1469,33856
1470,33856
1471,33856
1472,33856
1473,33856
1474,33856
1475,33856
1476,33856
1477,33856
1478,33856
1479,33856
1480,33856
1481,33856
1482,33920
1483,33856
1484,33856
1485,33856
1486,33792
1487,33792
1488,33792
1489,33856
1490,33856
1491,33856
1492,33856
1493,33856
1494,33920
1495,33920
1496,33920
1497,33984
1498,33920
1499,33984
1500,33920
1501,33920
1502,33920
1503,33920
1504,33920
1505,33920
1506,33984
1507,33984
1508,33984
1509,34048
1510,34112
1511,34176
1512,34240
1513,34432
1514,34624
1515,34816
1516,34880
1517,34880
1518,34816
1519,34816
1520,34816
1521,34816
1522,34688
1523,34496
1524,34304
1525,34176
1526,34048
1527,33920
1528,33792
1529,33600
1530,33472
1531,33408
1532,33408
1533,33408
1534,33408
1535,33472
1536,33536
1537,33600
1538,33600
1539,33664
1540,33664
1541,33664
1542,33664
1543,33600
1544,33600
1545,33984
1546,34816
1547,36800
1548,38272
1549,40960
1550,43840
1551,45760
1552,45056
1553,43456
1554,40576
1555,37376
1556,34496
1557,32320
1558,31232
1559,30912
1560,31040
1561,31296
1562,31488
1563,31680
1564,31808
1565,32000
1566,32128
1567,32320
1568,32384
1569,32576
1570,32768
1571,32896
1572,33024
1573,33088
1574,33216
1575,33280
1576,33408
1577,33600
1578,33664
1579,33728
1580,33792
1581,33856
1582,34048
1583,34048
1584,34112
1585,34240
1586,34368
1587,34560
1588,34560
1589,34624
1590,34752
1591,34816
1592,34944
1593,35072
1594,35200
1595,35264
1596,35392
1597,35520
1598,35648
1599,35776
1600,35904
1601,36032
1602,36224
1603,36288
1604,36288
1605,36352
1606,36416
1607,36416
1608,36416
1609,36352
1610,36288
1611,36160
1612,36032
1613,35776
1614,35456
1615,35072
1616,34624
1617,33984
1618,33600
1619,33216
1620,32768
1621,32448
1622,32128
1623,32000
1624,31872
1625,31744
1626,31680
1627,31680
1628,31744
1629,31808
1630,31872
1631,31936
1632,32000
1633,32128
1634,32256
1635,32384
1636,32512
1637,32640
1638,32704
1639,32832
1640,32896
1641,33024
1642,33152
1643,33216
1644,33280
1645,33408
1646,33472
1647,33536
1648,33536
1649,33600
1650,33600
1651,33664
1652,33664
1653,33664
1654,33664
1655,33728
1656,33792
1657,33792
1658,33792
1659,33728
1660,33792
1661,33856
1662,33856
1663,33856
1664,33856
1665,33856
1666,33792
1667,33792
1668,33792
1669,33856
1670,33856
1671,33856
1672,33856
1673,33856
1674,33920
1675,33920
1676,33856
1677,33920
1678,33920
1679,33856
1680,33856
1681,33920
1682,33920
1683,33920
1684,33920
1685,33920
1686,33920
1687,33920
1688,33920
1689,33920
1690,33984
1691,33984
1692,33920
1693,33920
1694,33920
1695,33920
1696,33984
1697,33984
1698,33984
1699,34048
1700,34048
1701,34048
1702,34048
1703,34048
1704,34048
1705,34112
1706,34112
1707,34240
1708,34304
1709,34432
1710,34560
1711,34688
1712,34688
1713,34752
1714,34752
1715,34816
1716,34880
1717,34816
1718,34688
1719,34496
1720,34368
1721,34240
1722,34048
1723,33920
1724,33792
1725,33664
1726,33536
1727,33472
1728,33472
1729,33536
1730,33536
1731,33600
1732,33600
1733,33728
1734,33792
1735,33856
1736,33856
1737,33856
1738,33792
1739,33728
1740,33728
1741,34176
1742,35136
1743,36544
1744,38720
1745,41472
1746,44032
1747,45248
1748,44288
1749,41856
1750,38976
1751,36160
1752,33728
1753,32000
1754,31168
1755,30976
1756,31168
1757,31552
1758,31744
1759,32000
1760,32128
1761,32320
1762,32512
1763,32576
1764,32704
1765,32832
1766,32960
1767,33152
1768,33280
1769,33408
1770,33472
1771,33600
1772,33664
1773,33728
1774,33792
1775,33920
1776,33984
1777,34112
1778,34240
1779,34304
1780,34368
1781,34432
1782,34496
1783,34560
1784,34624
1785,34688
1786,34816
1787,34944
1788,35008
1789,35136
1790,35264
1791,35328
1792,35456
1793,35584
1794,35712
1795,35840
1796,35904
1797,36032
1798,36160
1799,36224
1800,36288
1801,36352
1802,36416
1803,36416
1804,36352
1805,36288
1806,36224
1807,36032
1808,35776
1809,35520
1810,35264
1811,34880
1812,34496
1813,34048
1814,33536
1815,33152
1816,32768
1817,32384
1818,32128
1819,32000
1820,31872
1821,31744
1822,31680
1823,31680
1824,31744
1825,31808
1826,31872
1827,32000
1828,32064
1829,32192
1830,32320
1831,32512
1832,32640
1833,32768
1834,32832
1835,32960
1836,33088
1837,33152
1838,33152
1839,33216
1840,33344
1841,33408
1842,33472
1843,33472
1844,33536
1845,33600
1846,33664
1847,33728
1848,33792
1849,33728
1850,33728
1851,33792
1852,33856
1853,33856
1854,33856
1855,33856
1856,33856
1857,33856
1858,33856
1859,33792
1860,33792
1861,33792
1862,33792
1863,33792
1864,33856
1865,33856
1866,33792
1867,33792
1868,33792
1869,33856
1870,33856
1871,33856
1872,33856
1873,33792
1874,33792
1875,33856
1876,33856
1877,33856
1878,33856
1879,33856
1880,33856
1881,33856
1882,33856
1883,33856
1884,33856
1885,33856
1886,33856
1887,33920
1888,33920
1889,33984
1890,34048
1891,34176
1892,34304
1893,34496
1894,34624
1895,34752
1896,34752
1897,34752
1898,34752
1899,34816
1900,34816
1901,34688
1902,34560
1903,34368
1904,34176
1905,33984
1906,33856
1907,33664
1908,33600
1909,33472
1910,33344
1911,33344
1912,33280
1913,33344
1914,33408
1915,33472
1916,33536
1917,33536
1918,33600
1919,33664
1920,33664
1921,33600
1922,33472
1923,33472
1924,33728
1925,34496
1926,35648
1927,37568
1928,40128
1929,43008
1930,45184
1931,45568
1932,43904
1933,41024
1934,37888
1935,34880
1936,32576
1937,30912
1938,30848
1939,30976
1940,31232
1941,31424
1942,31680
1943,31808
1944,31936
1945,32128
1946,32256
1947,32384
1948,32576
1949,32704
1950,32832
1951,33024
1952,33152
1953,33280
1954,33344
1955,33408
1956,33536
1957,33728
1958,33728
1959,33856
1960,33920
1961,34048
1962,34112
1963,34176
1964,34240
1965,34304
1966,34432
1967,34496
1968,34688
1969,34752
1970,34880
1971,34944
1972,35136
1973,35072
1974,35264
1975,35392
1976,35584
1977,35776
1978,35840
1979,35968
1980,36096
1981,36224
1982,36352
1983,36416
1984,36480
1985,36544
1986,36544
1987,36480
1988,36416
1989,36288
1990,36160
1991,35968
1992,35712
1993,35392
1994,35008
1995,34560
1996,34112
1997,33600
1998,33152
1999,32704
2000,32384
2001,32064
2002,31808
2003,31680
2004,31552
2005,31552
2006,31552
2007,31680
2008,31744
2009,31808
2010,31936
2011,32064
2012,32256
2013,32256
2014,32384
2015,32576
2016,32704
2017,32832
2018,32896
2019,33024
2020,33088
2021,33152
2022,33216
2023,33280
2024,33344
2025,33344
2026,33408
2027,33472
2028,33536
2029,33600
2030,33600
2031,33664
2032,33728
2033,33792
2034,33792
2035,33792
2036,33792
2037,33792
2038,33792
2039,33856
2040,33856
2041,33856
2042,33792
2043,33728
2044,33728
2045,33664
2046,33664
2047,33664
2048,33664
2049,33728
2050,33728
2051,33728
2052,33792
2053,33792
2054,33792
2055,33728
2056,33792
2057,33792
2058,33792
2059,33856
2060,33856
2061,33856
2062,33856
2063,33856
2064,33792
2065,33856
2066,33856
2067,33920
2068,33920
2069,33920
2070,33920
2071,33920
2072,33920
2073,33984
2074,34048
2075,34112
2076,34240
2077,34368
2078,34496
2079,34624
2080,34688
2081,34688
2082,34688
2083,34688
2084,34688
2085,34688
2086,34624
2087,34432
2088,34240
2089,34048
2090,33920
2091,33792
2092,33728
2093,33600
2094,33472
2095,33408
2096,33344
2097,33344
2098,33344
2099,33408
2100,33472
2101,33472
2102,33536
2103,33600
2104,33600
2105,33664
2106,33600
2107,33536
2108,33536
2109,33920
2110,34752
2111,36160
2112,38272
2113,41088
2114,44032
2115,45952
2116,45824
2117,43712
2118,40640
2119,37376
2120,34432
2121,32256
2122,31104
2123,30848
2124,30976
2125,31168
2126,31360
2127,31552
2128,31680
2129,31872
2130,32000
2131,32192
2132,32384
2133,32512
2134,32704
2135,32832
2136,32960
2137,33088
2138,33216
2139,33344
2140,33472
2141,33600
2142,33664
2143,33792
2144,33856
2145,33920
2146,33984
2147,34048
2148,34176
2149,34304
2150,34368
2151,34496
2152,34624
2153,34688
2154,34816
2155,34944
2156,35008
2157,35136
2158,35264
2159,35456
2160,35584
2161,35712
2162,35840
2163,35968
2164,36096
2165,36224
2166,36288
2167,36416
2168,36480
2169,36544
2170,36544
2171,36544
2172,36544
2173,36480
2174,36352
2175,36224
2176,35968
2177,35712
2178,35328
2179,34944
2180,34496
2181,34048
2182,33536
2183,33088
2184,32640
2185,32320
2186,32064
2187,31808
2188,31680
2189,31552
2190,31488
2191,31488
2192,31488
2193,31616
2194,31680
2195,31808
2196,31936
2197,32128
2198,32256
2199,32384
2200,32576
2201,32704
2202,32768
2203,32896
2204,33024
2205,33088
2206,33152
2207,33280
2208,33280
2209,33280
2210,33280
2211,33344
2212,33344
2213,33408
2214,33472
2215,33536
2216,33600
2217,33664
2218,33664
2219,33728
2220,33792
2221,33856
2222,33856
2223,33920
2224,33920
2225,33920
2226,33920
2227,33920
2228,33920
2229,33920
2230,33920
2231,33920
2232,33856
2233,33856
2234,33856
2235,33856
2236,33856
2237,33792
2238,33856
2239,33856
2240,33920
2241,33920
2242,33856
2243,33856
2244,33856
2245,33856
2246,33920
2247,33920
2248,33920
2249,33920
2250,33920
2251,33984
2252,33984
2253,33984
2254,33984
2255,34048
2256,34112
2257,34240
2258,34304
2259,34496
2260,34624
2261,34688
2262,34688
2263,34624
2264,34688
2265,34816
2266,34880
2267,34816
2268,34624
2269,34432
2270,34176
2271,33984
2272,33856
2273,33792
2274,33664
2275,33536
2276,33408
2277,33344
2278,33280
2279,33344
2280,33408
2281,33408
2282,33472
2283,33536
2284,33536
2285,33536
2286,33600
2287,33600
2288,33536
2289,33536
2290,33728
2291,34368
2292,35520
2293,37312
2294,39872
2295,42816
2296,45120
2297,45632
2298,44032
2299,41280
2300,38144
2301,35264
2302,32896
2303,31424
2304,30848
2305,30848
2306,31104
2307,31296
2308,31552
2309,31744
2310,31936
2311,32128
2312,32320
2313,32448
2314,32576
2315,32704
2316,32896
2317,33024
2318,33152
2319,33280
2320,33408
2321,33536
2322,33600
2323,33728
2324,33856
2325,33920
2326,33984
2327,34048
2328,34176
2329,34240
2330,34304
2331,34432
2332,34496
2333,34560
2334,34624
2335,34688
2336,34816
2337,34944
2338,35008
2339,35136
2340,35264
2341,35456
2342,35584
2343,35712
2344,35840
2345,36032
2346,36160
2347,36288
2348,36352
2349,36352
2350,36416
2351,36416
2352,36416
2353,36352
2354,36288
2355,36160
2356,36032
2357,35840
2358,35584
2359,35264
2360,34880
2361,34496
2362,34048
2363,33600
2364,33216
2365,32832
2366,32512
2367,32192
2368,32000
2369,31872
2370,31808
2371,31744
2372,31680
2373,31744
2374,31808
2375,31936
2376,32000
2377,32128
2378,32256
2379,32320
2380,32448
2381,32576
2382,32704
2383,32832
2384,32896
2385,32896
2386,32960
2387,33088
2388,33344
2389,33408
2390,33536
2391,33664
2392,33728
2393,33792
2394,33792
2395,33792
2396,33728
2397,33664
2398,33664
2399,33728
2400,33728
2401,33792
2402,33856
2403,33856
2404,33920
2405,33920
2406,33856
2407,33920
2408,33920
2409,33920
2410,33920
2411,33984
2412,33920
2413,33920
2414,33856
2415,33856
2416,33984
2417,33984
2418,33920
2419,33920
2420,33920
2421,33984
2422,34048
2423,33984
2424,33920
2425,33920
2426,33984
2427,33984
2428,33984
2429,33984
2430,34048
2431,34176
2432,34368
2433,34624
2434,34624
2435,34688
2436,34752
2437,34816
2438,34816
2439,34752
2440,34624
2441,34496
2442,34432
2443,34368
2444,34240
2445,34240
2446,34048
2447,33984
2448,33792
2449,33536
2450,33408
2451,33344
2452,33408
2453,33472
2454,33728
2455,34048
2456,34112
2457,34048
2458,33856
2459,33664
2460,33472
2461,33344
2462,33408
2463,33984
2464,34880
2465,36352
2466,38464
2467,41088
2468,43712
2469,44864
2470,44096
2471,41856
2472,39104
2473,36480
2474,34240
2475,32576
2476,31552
2477,31168
2478,31296
2479,31488
2480,31744
2481,31936
2482,32192
2483,32320
2484,32384
2485,32448
2486,32512
2487,32640
2488,32768
2489,32896
2490,33088
2491,33280
2492,33408
2493,33600
2494,33664
2495,33856
2496,33984
2497,34048
2498,34176
2499,34304
2500,34304
2501,34240
2502,34304
2503,34432
2504,34432
2505,34496
2506,34624
2507,34752
2508,34880
2509,35008
2510,35072
2511,35136
2512,35264
2513,35392
2514,35520
2515,35584
2516,35712
2517,35840
2518,36032
2519,36160
2520,36224
2521,36288
2522,36352
2523,36480
2524,36544
2525,36608
2526,36736
2527,36864
2528,36864
2529,36608
2530,36096
2531,35392
2532,34752
2533,33920
2534,33216
2535,32640
2536,32320
2537,32064
2538,31744
2539,31680
2540,31552
2541,31552
2542,31616
2543,31680
2544,31744
2545,31936
2546,32128
2547,32192
2548,32320
2549,32512
2550,32640
2551,32512
2552,32384
2553,32448
2554,32640
2555,32768
2556,32768
2557,32704
2558,32704
2559,32704
2560,32832
2561,32960
2562,33152
2563,33280
2564,33472
2565,33664
2566,33792
2567,33856
2568,33984
2569,33984
2570,33984
2571,33856
2572,33792
2573,33728
2574,33728
2575,33792
2576,33856
2577,33984
2578,34176
2579,34176
2580,34176
2581,34112
2582,34048
2583,33792
2584,33728
2585,33856
2586,34240
2587,34432
2588,34240
2589,33856
2590,33600
2591,33536
2592,33472
2593,33600
2594,33856
2595,34048
2596,34304
2597,34688
2598,35200
2599,35264
2600,35136
2601,35072
2602,35008
2603,34752
2604,34240
2605,33792
2606,33664
2607,33664
2608,33664
2609,33664
2610,33792
2611,33728
2612,33472
2613,33216
2614,33152
2615,33024
2616,32960
2617,33216
2618,33600
2619,33984
2620,34368
2621,34560
2622,34368
2623,34112
2624,34048
2625,33984
2626,33792
2627,33728
2628,33856
2629,34176
2630,34944
2631,36224
2632,38272
2633,41152
2634,43520
2635,44928
2636,44352
2637,41984
2638,38912
2639,34048
2640,32576
2641,31680
2642,31488
2643,31488
2644,31552
2645,32128
2646,32448
2647,32512
2648,32640
2649,32832
2650,32768
2651,32704
2652,32576
2653,32512
2654,32576
2655,32576
2656,32576
2657,32768
2658,33280
2659,33856
2660,34368
2661,35008
2662,35328
2663,35264
2664,34112
2665,33536
2666,33344
2667,33536
2668,33792
2669,34176
2670,34624
2671,35200
2672,36224
2673,36288
2674,36544
2675,36480
2676,35200
2677,34368
2678,34304
2679,34432
2680,34560
2681,34816
2682,35264
2683,36096
2684,36864
2685,37056
2686,36992
2687,36928
2688,36864
2689,36800
2690,36160
2691,35904
2692,36032
2693,36032
2694,36608
2695,36544
2696,35840
2697,34752
2698,33984
2699,33856
2700,33856
2701,33728
2702,33152
2703,33024
2704,32768
2705,32192
2706,31360
2707,30784
2708,30848
2709,31040
2710,31232
2711,31296
2712,31488
2713,31616
2714,31872
2715,32448
2716,32704
2717,32832
2718,33216
2719,33664
2720,33664
2721,33536
2722,33280
2723,33088
2724,33344
2725,34048
2726,35008
2727,35392
2728,34752
2729,34176
2730,33792
2731,33216
2732,32256
2733,32192
2734,32064
2735,34368
2736,34752
2737,34048
2738,33216
2739,32640
2740,32640
2741,33280
2742,33792
2743,33792
2744,33792
2745,34112
2746,34624
2747,35392
2748,35392
2749,35456
2750,35136
2751,35008
2752,34752
2753,33792
2754,32704
2755,32128
2756,32000
2757,32128
2758,32576
2759,33472
2760,34560
2761,35904
2762,36736
2763,36352
2764,35264
2765,34368
2766,33984
2767,33920
2768,33984
2769,33984
2770,33728
2771,33408
2772,33856
2773,34816
2774,35520
2775,36096
2776,35648
2777,33664
2778,33472
2779,32960
2780,32128
2781,32640
2782,33536
2783,34240
2784,34112
2785,33344
2786,32640
2787,32640
2788,33152
2789,34112
2790,34560
2791,34304
2792,33600
2793,33472
2794,32256
2795,32960
2796,34880
2797,37248
2798,39104
2799,39744
2800,40384
2801,41984
2802,43328
2803,43712
2804,42816
2805,40768
2806,38144
2807,34688
2808,31744
2809,30592
2810,30848
2811,30976
2812,30912
2813,30784
2814,30592
2815,31040
2816,31744
2817,32320
2818,32960
2819,33792
2820,34176
2821,35136
2822,37568
2823,38336
2824,36928
2825,34368
2826,32128
2827,30208
2828,28800
2829,28672
2830,29632
2831,31104
2832,32896
2833,35584
2834,37888
2835,37504
2836,35008
2837,34496
2838,35584
2839,34752
2840,33152
2841,34240
2842,36160
2843,36160
2844,34944
2845,34112
2846,33792
2847,34432
2848,35776
2849,38016
2850,39360
2851,37376
2852,33472
2853,33280
2854,35136
2855,37760
2856,37568
2857,35392
2858,33728
2859,33280
2860,33728
2861,34944
2862,36864
2863,38912
2864,39424
2865,37376
2866,34752
2867,32896
2868,31872
2869,31936
2870,31808
2871,30848
2872,31104
2873,31744
2874,31040
2875,30400
2876,31232
2877,31872
2878,32000
2879,32064
2880,31744
2881,30784
2882,31680
2883,31744
2884,32896
2885,33536
2886,33472
2887,32896
2888,32448
2889,32448
2890,32448
2891,32320
2892,32384
2893,33344
2894,34752
2895,34240
2896,33344
2897,33728
2898,34176
2899,35392
2900,36672
2901,35136
2902,33152
2903,32000
2904,30592
2905,30144
2906,30912
2907,31872
2908,32960
2909,34048
2910,34496
2911,35008
2912,35648
2913,35904
2914,36416
2915,37056
2916,35584
2917,33792
2918,32704
2919,32320
2920,32000
2921,32000
2922,32320
2923,33280
2924,34752
2925,35456
2926,35520
2927,34944
2928,33792
2929,33344
2930,33664
2931,34176
2932,34624
2933,34048
2934,33344
2935,34432
2936,35520
2937,34496
2938,33664
2939,33536
2940,33664
2941,33856
2942,34304
2943,34880
2944,35200
2945,35200
2946,34880
2947,34496
2948,34240
2949,34304
2950,34496
2951,35136
2952,35136
2953,34240
2954,33536
2955,33088
2956,33600
2957,34368
2958,34432
2959,33600
2960,32640
2961,32128
2962,32128
2963,32384
2964,32896
2965,33536
2966,34304
2967,35200
2968,35456
2969,35072
2970,35008
2971,35648
2972,37504
2973,41024
2974,45632
2975,47552
2976,45504
2977,41920
2978,38400
2979,35072
2980,32448
2981,30848
2982,30208
2983,30272
2984,30848
2985,31424
2986,32128
2987,33600
2988,34560
2989,32960
2990,30848
2991,30016
2992,30720
2993,31680
2994,32128
2995,32320
2996,32320
2997,32832
2998,33280
2999,33088
3000,32832
3001,32832
3002,33152
3003,33472
3004,33408
3005,33536
3006,33856
3007,34304
3008,35008
3009,34816
3010,34304
3011,34368
3012,34688
3013,35328
3014,35584
3015,34304
3016,32896
3017,32384
3018,32640
3019,33408
3020,34624
3021,35648
3022,36224
3023,36672
3024,36800
3025,37056
3026,37568
3027,37952
3028,38336
3029,37824
3030,36544
3031,35520
3032,34944
3033,35456
3034,36288
3035,37120
3036,37120
3037,35264
3038,33536
3039,32512
3040,32128
3041,32640
3042,34368
3043,34176
3044,32704
3045,31744
3046,31104
3047,32064
3048,33664
3049,33472
3050,31168
3051,28800
3052,28160
3053,28800
3054,29632
3055,30592
3056,31616
3057,32576
3058,33344
3059,33344
3060,33600
3061,34048
3062,34496
3063,34176
3064,33024
3065,32192
3066,31488
3067,31424
3068,31744
3069,32832
3070,33664
3071,33984
3072,34112
3073,34112
3074,34240
3075,34368
3076,33984
3077,33728
3078,34688
3079,35456
3080,34240
3081,32704
3082,32384
3083,33408
3084,34176
3085,33664
3086,33792
3087,34688
3088,35008
3089,34240
3090,32576
3091,31552
3092,31360
3093,31744
3094,32448
3095,33344
3096,34176
3097,34880
3098,34944
3099,35200
3100,35776
3101,35712
3102,34624
3103,33536
3104,33664
3105,34752
3106,35072
3107,34048
3108,32960
3109,32512
3110,32512
3111,32768
3112,33216
3113,33728
3114,34112
3115,34368
3116,34496
3117,34688
3118,34880
3119,35264
3120,35328
3121,35136
3122,34816
3123,34688
3124,35264
3125,35392
3126,34432
3127,33664
3128,33344
3129,33280
3130,33600
3131,33728
3132,33536
3133,33280
3134,33152
3135,33088
3136,33152
3137,33344
3138,33536
3139,34432
3140,36416
3141,36416
3142,33728
3143,31808
3144,31232
3145,31296
3146,31808
3147,32704
3148,34048
3149,35392
3150,37120
3151,39680
3152,42688
3153,45568
3154,46400
3155,45184
3156,42432
3157,39296
3158,36096
3159,33344
3160,31552
3161,30784
3162,30720
3163,30976
3164,31040
3165,30976
3166,31040
3167,31232
3168,31680
3169,32384
3170,33472
3171,33920
3172,33344
3173,32640
3174,32448
3175,32768
3176,33280
3177,33536
3178,33600
3179,33600
3180,33536
3181,33600
3182,33600
3183,33728
3184,33920
3185,34176
3186,34368
3187,34560
3188,34624
3189,34624
3190,34688
3191,34816
3192,34944
3193,35136
3194,35264
3195,35392
3196,35520
3197,35648
3198,35776
3199,35776
3200,35840
3201,35968
3202,36160
3203,36352
3204,36480
3205,36608
3206,36736
3207,36800
3208,36864
3209,36800
3210,36800
3211,36800
3212,36800
3213,36800
3214,36608
3215,36160
3216,35584
3217,35072
3218,34688
3219,34496
3220,34176
3221,33472
3222,32768
3223,32128
3224,31680
3225,31424
3226,31232
3227,31104
3228,31168
3229,31296
3230,31424
3231,31616
3232,31872
3233,32000
3234,32128
3235,32256
3236,32384
3237,32384
3238,32448
3239,32576
3240,32768
3241,32896
3242,33024
3243,33280
3244,33472
3245,33536
3246,33536
3247,33472
3248,33344
3249,33280
3250,33344
3251,33344
3252,33472
3253,33536
3254,33664
3255,34048
3256,34368
3257,34048
3258,33600
3259,33408
3260,33344
3261,33472
3262,33600
3263,33664
3264,33728
3265,33856
3266,33984
3267,34240
3268,34240
3269,34112
3270,34048
3271,34112
3272,34240
3273,34304
3274,34112
3275,33856
3276,33664
3277,33600
3278,33600
3279,33664
3280,33792
3281,33856
3282,33984
3283,34048
3284,34048
3285,34048
3286,34048
3287,34048
3288,34112
3289,34304
3290,34496
3291,34496
3292,34304
3293,34048
3294,33856
3295,33728
3296,33728
3297,33728
3298,33792
3299,33792
3300,33856
3301,33984
3302,34048
3303,34048
3304,34176
3305,34432
3306,34688
3307,34816
3308,34880
3309,34880
3310,34944
3311,35008
3312,35008
3313,34880
3314,34688
3315,34368
3316,34112
3317,33920
3318,33856
3319,33792
3320,33728
3321,33600
3322,33536
3323,33536
3324,33536
3325,33472
3326,33472
3327,33472
3328,33536
3329,33664
3330,33728
3331,33792
3332,33856
3333,33856
3334,33728
3335,33536
3336,33536
3337,33856
3338,34624
3339,35904
3340,37824
3341,40448
3342,43264
3343,45248
3344,45120
3345,43200
3346,40384
3347,37440
3348,34752
3349,32640
3350,31488
3351,31168
3352,31296
3353,31424
3354,31552
3355,31616
3356,31744
3357,31872
3358,32000
3359,32192
3360,32320
3361,32320
3362,32384
3363,32512
3364,32768
3365,32960
3366,33152
3367,33344
3368,33472
3369,33600
3370,33792
3371,33984
3372,34176
3373,34240
3374,34304
3375,34368
3376,34368
3377,34304
3378,34304
3379,34304
3380,34368
3381,34496
3382,34624
3383,34816
3384,34944
3385,35136
3386,35328
3387,35456
3388,35648
3389,35840
3390,36032
3391,36096
3392,36096
3393,36160
3394,36288
3395,36288
3396,36416
3397,36544
3398,36672
3399,36672
3400,36672
3401,36544
3402,36480
3403,36352
3404,36160
3405,35840
3406,35520
3407,35072
3408,34560
3409,33984
3410,33536
3411,33088
3412,32640
3413,32384
3414,32064
3415,31808
3416,31552
3417,31424
3418,31360
3419,31424
3420,31552
3421,31616
3422,31680
3423,31808
3424,31872
3425,32000
3426,32128
3427,32320
3428,32384
3429,32512
3430,32640
3431,32832
3432,33024
3433,33152
3434,33216
3435,33280
3436,33472
3437,33600
3438,33664
3439,33600
3440,33600
3441,33600
3442,33600
3443,33664
3444,33664
3445,33728
3446,33792
3447,33728
3448,33728
3449,33792
3450,33856
3451,33856
3452,33856
3453,33856
3454,33856
3455,33984
3456,34048
3457,34048
3458,34048
3459,34112
3460,34048
3461,33984
3462,33856
3463,33792
3464,33792
3465,33792
3466,33792
3467,33728
3468,33728
3469,33728
3470,33728
3471,33792
3472,33920
3473,33984
3474,34112
3475,34176
3476,34176
3477,34048
3478,33984
3479,34112
3480,34112
3481,34240
3482,34112
3483,33984
3484,33856
3485,33856
3486,33792
3487,33792
3488,33856
3489,33856
3490,33856
3491,33856
3492,33920
3493,33920
3494,33984
3495,33984
3496,34112
3497,34112
3498,34112
3499,34112
3500,34112
3501,34176
3502,34304
3503,34496
3504,34624
3505,34624
3506,34624
3507,34560
3508,34560
3509,34496
3510,34496
3511,34560
3512,34624
3513,34624
3514,34560
3515,34368
3516,34240
3517,34112
3518,34048
3519,34048
3520,34048
3521,33920
3522,33728
3523,33664
3524,33664
3525,33792
3526,33920
3527,33920
3528,33856
3529,33728
3530,33664
3531,33664
3532,33664
3533,33600
3534,33536
3535,33472
3536,33408
3537,33600
3538,34176
3539,35264
3540,36864
3541,39232
3542,42112
3543,44800
3544,45824
3545,44736
3546,42240
3547,39232
3548,36288
3549,33792
3550,32128
3551,31360
3552,31360
3553,31424
3554,31360
3555,31360
3556,31424
3557,31552
3558,31680
3559,31872
3560,32064
3561,32256
3562,32448
3563,32640
3564,32768
3565,32960
3566,33216
3567,33408
3568,33536
3569,33664
3570,33664
3571,33664
3572,33664
3573,33792
3574,33920
3575,34048
3576,34176
3577,34304
3578,34304
3579,34304
3580,34368
3581,34432
3582,34560
3583,34688
3584,34880
3585,35008
3586,35200
3587,35264
3588,35456
3589,35584
3590,35776
3591,35904
3592,36096
3593,36288
3594,36480
3595,36544
3596,36608
3597,36608
3598,36608
3599,36608
3600,36608
3601,36544
3602,36544
3603,36416
3604,36288
3605,36096
3606,35776
3607,35392
3608,34944
3609,34432
3610,33984
3611,33536
3612,33152
3613,32768
3614,32512
3615,32128
3616,31808
3617,31552
3618,31424
3619,31360
3620,31360
3621,31424
3622,31552
3623,31616
3624,31616
3625,31744
3626,31936
3627,32128
3628,32320
3629,32448
3630,32576
3631,32640
3632,32832
3633,33024
3634,33216
3635,33408
3636,33472
3637,33472
3638,33472
3639,33408
3640,33408
3641,33472
3642,33472
3643,33536
3644,33536
3645,33472
3646,33536
3647,33600
3648,33664
3649,33728
3650,33792
3651,33856
3652,33920
3653,33920
3654,33920
3655,33984
3656,34048
3657,34112
3658,34112
3659,34176
3660,34304
3661,34368
3662,34304
3663,33984
3664,33664
3665,33472
3666,33344
3667,33408
3668,33536
3669,33600
3670,33664
3671,33728
3672,33792
3673,33856
3674,33920
3675,33920
3676,33920
3677,33984
3678,33984
3679,34112
3680,34240
3681,34304
3682,34304
3683,34176
3684,33920
3685,33792
3686,33792
3687,33792
3688,33856
3689,33984
3690,34048
3691,33984
3692,33856
3693,33792
3694,33792
3695,33856
3696,33984
3697,34112
3698,34240
3699,34368
3700,34368
3701,34304
3702,34176
3703,34048
3704,33984
3705,33984
3706,34112
3707,34112
3708,34112
3709,34176
3710,34240
3711,34368
3712,34496
3713,34496
3714,34560
3715,34624
3716,34752
3717,34752
3718,34688
3719,34496
3720,34304
3721,34176
3722,34112
3723,34112
3724,34048
3725,33920
3726,33728
3727,33536
3728,33536
3729,33600
3730,33472
3731,33344
3732,33344
3733,33344
3734,33472
3735,33664
3736,33728
3737,33728
3738,33728
3739,33664
3740,33664
3741,33856
3742,34624
3743,35776
3744,37504
3745,40064
3746,43072
3747,45568
3748,46144
3749,44544
3750,41664
3751,38528
3752,35520
3753,32960
3754,31488
3755,30784
3756,30720
3757,30912
3758,31104
3759,31360
3760,31616
3761,31872
3762,32064
3763,32320
3764,32512
3765,32704
3766,32960
3767,33088
3768,33344
3769,33536
3770,33536
3771,33472
3772,33472
3773,33472
3774,33472
3775,33536
3776,33664
3777,33728
3778,33856
3779,33984
3780,34112
3781,34176
3782,34368
3783,34496
3784,34624
3785,34752
3786,34816
3787,35008
3788,35200
3789,35392
3790,35520
3791,35648
3792,35648
3793,35648
3794,35840
3795,35904
3796,35904
3797,35904
3798,36032
3799,36160
3800,36352
3801,36480
3802,36608
3803,36672
3804,36736
3805,36736
3806,36736
3807,36608
3808,36480
3809,36224
3810,35904
3811,35520
3812,35008
3813,34496
3814,33920
3815,33408
3816,32896
3817,32512
3818,32256
3819,31936
3820,31616
3821,31424
3822,31296
3823,31296
3824,31296
3825,31360
3826,31488
3827,31616
3828,31744
3829,31872
3830,32000
3831,32192
3832,32384
3833,32576
3834,32704
3835,32832
3836,32896
3837,32896
3838,32896
3839,32960
3840,32960
3841,32960
3842,32896
3843,32960
3844,33088
3845,33216
3846,33344
3847,33472
3848,33600
3849,33664
3850,33728
3851,33792
3852,33856
3853,33856
3854,33856
3855,33920
3856,33984
3857,33984
3858,33984
3859,34048
3860,34112
3861,34176
3862,34112
3863,33984
3864,33920
3865,33920
3866,33920
3867,33856
3868,33856
3869,33856
3870,33856
3871,33792
3872,33728
3873,33664
3874,33664
3875,33728
3876,33792
3877,33856
3878,33920
3879,34048
3880,34112
3881,34048
3882,33984
3883,33984
3884,33920
3885,33920
3886,33984
3887,34048
3888,34048
3889,34048
3890,33984
3891,33984
3892,33984
3893,34048
3894,33984
3895,33984
3896,33984
3897,33920
3898,33920
3899,33984
3900,34112
3901,34176
3902,34176
3903,34176
3904,34176
3905,34176
3906,34176
3907,34176
3908,34176
3909,34048
3910,33984
3911,33920
3912,33984
3913,33984
3914,34048
3915,34112
3916,34112
3917,34112
3918,34112
3919,34176
3920,34368
3921,34560
3922,34688
3923,34816
3924,34944
3925,35072
3926,35136
3927,35136
3928,35008
3929,34752
3930,34496
3931,34176
3932,33984
3933,33920
3934,33856
3935,33728
3936,33664
3937,33600
3938,33536
3939,33536
3940,33600
3941,33728
3942,33728
3943,33728
3944,33664
3945,33664
3946,33792
3947,33984
3948,34112
3949,33984
3950,33856
3951,33792
3952,33984
3953,34560
3954,35648
3955,37376
3956,39808
3957,42624
3958,44928
3959,45376
3960,43776
3961,41216
3962,38336
3963,35584
3964,33152
3965,31616
3966,30912
3967,30848
3968,31040
3969,31360
3970,31488
3971,31744
3972,32000
3973,32192
3974,32384
3975,32512
3976,32576
3977,32704
3978,32896
3979,33024
3980,33152
3981,33216
3982,33408
3983,33536
3984,33728
3985,33792
3986,33792
3987,33792
3988,33792
3989,33728
3990,33792
3991,33984
3992,34112
3993,34176
3994,34304
3995,34432
3996,34496
3997,34624
3998,34752
3999,34880
4000,35008
4001,35072
4002,35136
4003,35264
4004,35392
4005,35520
4006,35712
4007,35968
4008,36224
4009,36288
4010,36352
4011,36352
4012,36416
4013,36480
4014,36480
4015,36480
4016,36480
4017,36480
4018,36480
4019,36352
4020,36160
4021,35776
4022,35456
4023,35008
4024,34560
4025,34048
4026,33408
4027,32896
4028,32512
4029,32192
4030,31872
4031,31680
4032,31552
4033,31552
4034,31424
4035,31360
4036,31424
4037,31552
4038,31680
4039,31872
4040,32000
4041,32064
4042,32192
4043,32384
4044,32576
4045,32768
4046,32896
4047,33088
4048,33216
4049,33280
4050,33280
4051,33216
4052,33152
4053,33216
4054,33280
4055,33408
4056,33536
4057,33664
4058,33728
4059,33728
4060,33600
4061,33536
4062,33536
4063,33536
4064,33664
4065,33728
4066,33856
4067,33984
4068,34112
4069,34176
4070,34304
4071,34368
4072,34368
4073,34432
4074,34432
4075,34048
4076,33728
4077,33600
4078,33600
4079,33600
4080,33600
4081,33600
4082,33600
4083,33600
4084,33664
4085,33728
4086,33856
4087,33920
4088,34048
4089,34048
4090,34112
4091,34176
4092,34240
4093,34240
4094,34112
4095,33984
4096,33792
4097,33792
4098,33792
4099,33856
4100,33792
4101,33728
4102,33728
4103,33792
4104,33920
4105,34048
4106,34048
4107,34112
4108,34176
4109,34176
4110,34112
4111,34112
4112,34176
4113,34176
4114,34176
4115,34176
4116,34112
4117,33984
4118,33920
4119,33984
4120,33984
4121,33984
4122,34048
4123,33920
4124,33856
4125,33856
4126,33984
4127,34176
4128,34432
4129,34624
4130,34752
4131,34880
4132,34944
4133,35008
4134,35008
4135,34944
4136,34944
4137,34816
4138,34560
4139,34368
4140,34240
4141,34048
4142,33856
4143,33728
4144,33536
4145,33408
4146,33280
4147,33216
4148,33216
4149,33280
4150,33408
4151,33536
4152,33600
4153,33664
4154,33664
4155,33792
4156,33856
4157,33792
4158,33728
4159,33856
4160,34368
4161,35136
4162,36416
4163,38464
4164,40960
4165,43712
4166,45568
4167,45312
4168,43264
4169,40384
4170,37376
4171,34560
4172,32448
4173,31232
4174,31040
4175,31232
4176,31488
4177,31552
4178,31680
4179,31744
4180,31808
4181,31872
4182,32000
4183,32192
4184,32320
4185,32576
4186,32832
4187,33024
4188,33088
4189,33152
4190,33280
4191,33408
4192,33600
4193,33728
4194,33792
4195,33920
4196,34048
4197,34176
4198,34304
4199,34432
4200,34496
4201,34560
4202,34688
4203,34816
4204,34816
4205,34816
4206,34880
4207,35072
4208,35200
4209,35200
4210,35328
4211,35456
4212,35520
4213,35584
4214,35712
4215,35968
4216,36224
4217,36352
4218,36608
4219,36800
4220,36992
4221,36992
4222,37120
4223,37568
4224,37888
4225,37504
4226,36736
4227,36288
4228,35968
4229,35392
4230,34752
4231,34240
4232,33792
4233,33280
4234,32832
4235,32448
4236,32128
4237,31872
4238,31616
4239,31360
4240,31296
4241,31296
4242,31296
4243,31424
4244,31616
4245,31744
4246,31872
4247,31872
4248,32000
4249,32128
4250,32256
4251,32448
4252,32704
4253,32896
4254,32896
4255,32832
4256,32832
4257,32832
4258,32896
4259,32960
4260,33024
4261,33024
4262,33088
4263,33216
4264,33280
4265,33344
4266,33408
4267,33600
4268,33664
4269,33728
4270,33792
4271,33792
4272,33792
4273,33728
4274,33728
4275,33792
4276,33856
4277,33984
4278,34112
4279,34176
4280,34304
4281,34304
4282,34368
4283,34176
4284,33984
4285,33920
4286,33856
4287,33792
4288,33792
4289,33728
4290,33728
4291,33728
4292,33728
4293,33856
4294,33920
4295,33920
4296,33856
4297,33856
4298,33920
4299,33984
4300,33984
4301,34048
4302,34112
4303,34176
4304,34240
4305,34176
4306,33984
4307,33920
4308,33920
4309,33856
4310,33856
4311,33920
4312,33984
4313,34048
4314,34048
4315,34048
4316,34048
4317,34048
4318,34112
4319,34112
4320,34112
4321,34048
4322,34048
4323,34048
4324,33984
4325,33920
4326,33984
4327,34048
4328,34048
4329,34048
4330,34048
4331,34112
4332,34176
4333,34304
4334,34304
4335,34176
4336,34176
4337,34240
4338,34304
4339,34304
4340,34432
4341,34624
4342,34816
4343,34944
4344,34944
4345,34880
4346,34880
4347,34944
4348,34880
4349,34624
4350,34304
4351,33984
4352,33920
4353,33984
4354,33984
4355,33920
4356,33856
4357,33792
4358,33792
4359,33792
4360,33664
4361,33600
4362,33664
4363,33664
4364,33728
4365,33792
4366,33856
4367,33792
4368,33792
4369,33728
4370,33600
4371,33536
4372,33728
4373,34496
4374,35776
4375,37696
4376,40384
4377,43392
4378,45696
4379,46080
4380,44352
4381,41600
4382,38400
4383,34624
4384,32896
4385,31488
4386,30976
4387,31040
4388,31232
4389,31424
4390,31488
4391,31616
4392,31744
4393,31936
4394,32128
4395,32320
4396,32448
4397,32512
4398,32704
4399,32832
4400,33024
4401,33216
4402,33344
4403,33536
4404,33600
4405,33664
4406,33728
4407,33856
4408,33920
4409,33984
4410,34176
4411,34304
4412,34304
4413,34304
4414,34368
4415,34496
4416,34624
4417,34688
4418,34816
4419,35008
4420,35136
4421,35200
4422,35264
4423,35328
4424,35456
4425,35584
4426,35712
4427,35840
4428,36032
4429,36224
4430,36352
4431,36480
4432,36544
4433,36544
4434,36544
4435,36544
4436,36608
4437,36672
4438,36480
4439,36288
4440,36160
4441,35968
4442,35584
4443,35136
4444,34624
4445,34048
4446,33536
4447,33088
4448,32704
4449,32256
4450,31808
4451,31488
4452,31296
4453,31168
4454,31104
4455,31168
4456,31232
4457,31360
4458,31552
4459,31680
4460,32064
4461,32256
4462,32384
4463,32512
4464,32640
4465,32704
4466,32704
4467,32704
4468,32768
4469,32832
4470,32832
4471,32960
4472,33152
4473,33088
4474,33152
4475,33344
4476,33408
4477,33536
4478,33664
4479,33792
4480,33920
4481,33856
4482,33920
4483,34048
4484,33984
4485,33856
4486,33856
4487,33856
4488,33792
4489,33792
4490,33792
4491,33728
4492,33728
4493,33792
4494,33920
4495,33920
4496,33920
4497,33920
4498,33920
4499,33984
4500,34048
4501,34112
4502,34112
4503,33984
4504,33856
4505,33728
4506,33728
4507,33728
4508,33728
4509,33792
4510,33856
4511,33920
4512,33920
4513,33856
4514,33792
4515,33728
4516,33728
4517,33856
4518,33792
4519,33792
4520,33856
4521,33920
4522,33920
4523,33920
4524,33920
4525,33920
4526,33984
4527,34048
4528,34112
4529,34112
4530,34048
4531,33984
4532,33984
4533,33920
4534,33920
4535,33920
4536,33920
4537,33984
4538,33984
4539,33984
4540,34048
4541,34048
4542,34112
4543,34112
4544,34112
4545,34176
4546,34176
4547,34176
4548,34240
4549,34240
4550,34240
4551,34240
4552,34432
4553,34624
4554,34688
4555,34816
4556,34816
4557,34816
4558,34816
4559,34752
4560,34816
4561,34752
4562,34496
4563,34368
4564,34240
4565,34048
4566,33984
4567,33920
4568,33792
4569,33728
4570,33664
4571,33664
4572,33792
4573,33856
4574,33920
4575,33920
4576,33728
4577,33536
4578,33472
4579,33408
4580,33472
4581,33472
4582,33408
4583,33472
4584,33792
4585,34624
4586,35904
4587,37760
4588,40384
4589,43328
4590,45632
4591,45952
4592,43200
4593,42752
4594,38336
4595,35328
4596,32960
4597,31488
4598,30976
4599,30912
4600,31040
4601,31168
4602,31360
4603,31552
4604,31744
4605,31936
4606,32192
4607,32384
4608,32576
4609,32768
4610,32896
4611,33152
4612,33344
4613,33344
4614,33408
4615,33600
4616,33792
4617,33856
4618,33856
4619,33856
4620,33856
4621,33856
4622,33984
4623,33984
4624,34240
4625,34432
4626,34496
4627,34560
4628,34624
4629,34688
4630,34816
4631,34944
4632,35008
4633,35200
4634,35328
4635,35520
4636,35712
4637,35904
4638,35904
4639,36096
4640,36096
4641,36160
4642,36224
4643,36352
4644,36480
4645,36608
4646,36672
4647,36672
4648,36672
4649,36672
4650,36544
4651,36416
4652,36160
4653,35968
4654,35584
4655,35136
4656,34688
4657,34304
4658,33984
4659,33600
4660,33088
4661,32512
4662,32064
4663,31680
4664,31424
4665,31232
4666,31168
4667,31232
4668,31232
4669,31424
4670,31552
4671,31680
4672,31808
4673,31936
4674,32064
4675,32128
4676,32256
4677,32448
4678,32640
4679,32768
4680,32960
4681,33088
4682,33344
4683,33344
4684,33600
4685,33600
4686,33472
4687,33344
4688,33280
4689,33280
4690,33344
4691,33472
4692,33536
4693,33600
4694,33664
4695,33664
4696,33728
4697,33728
4698,33728
4699,33792
4700,33920
4701,33984
4702,34176
4703,34240
4704,34176
4705,33984
4706,33856
4707,33664
4708,33600
4709,33536
4710,33600
4711,33600
4712,33600
4713,33664
4714,33664
4715,33728
4716,33792
4717,33856
4718,33856
4719,33856
4720,33856
4721,33920
4722,33984
4723,34048
4724,34048
4725,34048
4726,34048
4727,34176
4728,34176
4729,34304
4730,34112
4731,33920
4732,33920
4733,33920
4734,33920
4735,33856
4736,33856
4737,33856
4738,33920
4739,33984
4740,34048
4741,34048
4742,34176
4743,34112
4744,34112
4745,34048
4746,34112
4747,34112
4748,34112
4749,34048
4750,34048
4751,34048
4752,33984
4753,33984
4754,33920
4755,33920
4756,33984
4757,33984
4758,34048
4759,34112
4760,34176
4761,34304
4762,34560
4763,34880
4764,35008
4765,34944
4766,34816
4767,34816
4768,34880
4769,34944
4770,34880
4771,34688
4772,34240
4773,34112
4774,33792
4775,33664
4776,33600
4777,33600
4778,33536
4779,33472
4780,33472
4781,33472
4782,33536
4783,33600
4784,33728
4785,33728
4786,33792
4787,33920
4788,33856
4789,33920
4790,33984
4791,33920
4792,33856
4793,33920
4794,34304
4795,35200
4796,36544
4797,38592
4798,41408
4799,44288
4800,46016
4801,45568
4802,41920
4803,41472
4804,37248
4805,34496
4806,32384
4807,31232
4808,30912
4809,31104
4810,31424
4811,31744
4812,31936
4813,32000
4814,32000
4815,31872
4816,31936
4817,32064
4818,32256
4819,32512
4820,32640
4821,32896
4822,33088
4823,33216
4824,33344
4825,33472
4826,33536
4827,33664
4828,33728
4829,33920
4830,34112
4831,34368
4832,34432
4833,34368
4834,34304
4835,34368
4836,34432
4837,34560
4838,34560
4839,34624
4840,34752
4841,34880
4842,35008
4843,35136
4844,35264
4845,35392
4846,35584
4847,35840
4848,35776
4849,36160
4850,36288
4851,36288
4852,36480
4853,36736
4854,36992
4855,37056
4856,36992
4857,36800
4858,36608
4859,36416
4860,36352
4861,36224
4862,35968
4863,35584
4864,35264
4865,34880
4866,34496
4867,34048
4868,33600
4869,33088
4870,32704
4871,32320
4872,32064
4873,31872
4874,31744
4875,31680
4876,31680
4877,31744
4878,31744
4879,31744
4880,31744
4881,31744
4882,31744
4883,31872
4884,31936
4885,32000
4886,32128
4887,32256
4888,32448
4889,32640
4890,32832
4891,32960
4892,33088
4893,33152
4894,33280
4895,33472
4896,33600
4897,33664
4898,33664
4899,33664
4900,33664
4901,33664
4902,33664
4903,33728
4904,33728
4905,33728
4906,33664
4907,33600
4908,33600
4909,33600
4910,33728
4911,33856
4912,33984
4913,34048
4914,33984
4915,33984
4916,33920
4917,33920
4918,33856
4919,33856
4920,33920
4921,33920
4922,33856
4923,33728
4924,33664
4925,33664
4926,33664
4927,33728
4928,33728
4929,33792
4930,33856
4931,33920
4932,33920
4933,33984
4934,33984
4935,33984
4936,34048
4937,34048
4938,33984
4939,33920
4940,33856
4941,33856
4942,33856
4943,33792
4944,33856
4945,33856
4946,33856
4947,33856
4948,33920
4949,33984
4950,33984
4951,33984
4952,34048
4953,34112
4954,34176
4955,34240
4956,34240
4957,34240
4958,34240
4959,34304
4960,34432
4961,34560
4962,34688
4963,34752
4964,34752
4965,34752
4966,34752
4967,34688
4968,34688
4969,34624
4970,34432
4971,34240
4972,34048
4973,33856
4974,33728
4975,33600
4976,33472
4977,33472
4978,33536
4979,33664
4980,33664
4981,33664
4982,33600
4983,33600
4984,33600
4985,33600
4986,33536
4987,33600
4988,33600
4989,33536
4990,33472
4991,33664
4992,34304
4993,35392
4994,37056
4995,39360
4996,42240
4997,44800
4998,45760
4999,44544
5000,41984
5001,38912
5002,35904
5003,33536
5004,31808
5005,30976
5006,30848
5007,31040
5008,31296
5009,31552
5010,31744
5011,31936
5012,32128
5013,32320
5014,32576
5015,32832
5016,32896
5017,32960
5018,32960
5019,33088
5020,33216
5021,33280
5022,33280
5023,33344
5024,33472
5025,33600
5026,33728
5027,33856
5028,33984
5029,34112
5030,34304
5031,34432
5032,34496
5033,34624
5034,34560
5035,34560
5036,34624
5037,34880
5038,35008
5039,35072
5040,35136
5041,35264
5042,35392
5043,35456
5044,35520
5045,35648
5046,35840
5047,35968
5048,36160
5049,36288
5050,36480
5051,36544
5052,36672
5053,36800
5054,36864
5055,36928
5056,36928
5057,36864
5058,36672
5059,36416
5060,36096
5061,35776
5062,35264
5063,34752
5064,34176
5065,33664
5066,33152
5067,32704
5068,32320
5069,32064
5070,31808
5071,31616
5072,31424
5073,31360
5074,31424
5075,31488
5076,31616
5077,31616
5078,31744
5079,31872
5080,31936
5081,32064
5082,32128
5083,32256
5084,32448
5085,32512
5086,32576
5087,32768
5088,32896
5089,33088
5090,33152
5091,33152
5092,33216
5093,33344
5094,33408
5095,33408
5096,33408
5097,33472
5098,33536
5099,33600
5100,33600
5101,33664
5102,33728
5103,33792
5104,33792
5105,33728
5106,33728
5107,33728
5108,33792
5109,33792
5110,33792
5111,33792
5112,33856
5113,33856
5114,33856
5115,33792
5116,33728
5117,33664
5118,33600
5119,33664
5120,33664
5121,33664
5122,33664
5123,33664
5124,33728
5125,33728
5126,33728
5127,33792
5128,33856
5129,33920
5130,33984
5131,33920
5132,33856
5133,33856
5134,33856
5135,33792
5136,33856
5137,33920
5138,33920
5139,33920
5140,33920
5141,33920
5142,33856
5143,33792
5144,33792
5145,33728
5146,33728
5147,33792
5148,33856
5149,33984
5150,34048
5151,34112
5152,34112
5153,34176
5154,34176
5155,34240
5156,34368
5157,34624
5158,34816
5159,34944
5160,34944
5161,34816
5162,34688
5163,34688
5164,34752
5165,34752
5166,34688
5167,34560
5168,34368
5169,34240
5170,34112
5171,33984
5172,33920
5173,33792
5174,33664
5175,33600
5176,33536
5177,33472
5178,33536
5179,33600
5180,33600
5181,33664
5182,33728
5183,33856
5184,33920
5185,33920
5186,33856
5187,33728
5188,33664
5189,33792
5190,34304
5191,35328
5192,36992
5193,39552
5194,42368
5195,44992
5196,45952
5197,44544
5198,42112
5199,38976
5200,35968
5201,33472
5202,31744
5203,31040
5204,30976
5205,31104
5206,31232
5207,31360
5208,31488
5209,31680
5210,31872
5211,32064
5212,32256
5213,32448
5214,32576
5215,32768
5216,32832
5217,32960
5218,33088
5219,33216
5220,33408
5221,33472
5222,33600
5223,33664
5224,33728
5225,33792
5226,33856
5227,33920
5228,33984
5229,34112
5230,34176
5231,34304
5232,34432
5233,34560
5234,34688
5235,34752
5236,34944
5237,35008
5238,35136
5239,35264
5240,35328
5241,35456
5242,35648
5243,35712
5244,35840
5245,35968
5246,36096
5247,36224
5248,36416
5249,36480
5250,36544
5251,36544
5252,36544
5253,36608
5254,36608
5255,36544
5256,36416
5257,36288
5258,36032
5259,35712
5260,35328
5261,34816
5262,34304
5263,33792
5264,33280
5265,32832
5266,32448
5267,32128
5268,31808
5269,31552
5270,31424
5271,31360
5272,31360
5273,31360
5274,31424
5275,31488
5276,31616
5277,31744
5278,31872
5279,32000
5280,32128
5281,32320
5282,32448
5283,32576
5284,32704
5285,32896
5286,32960
5287,33088
5288,33088
5289,33216
5290,33280
5291,33344
5292,33408
5293,33472
5294,33536
5295,33600
5296,33600
5297,33600
5298,33664
5299,33728
5300,33792
5301,33792
5302,33856
5303,33856
5304,33792
5305,33792
5306,33856
5307,33856
5308,33920
5309,33984
5310,33920
5311,33856
5312,33856
5313,33856
5314,33856
5315,33856
5316,33856
5317,33792
5318,33664
5319,33664
5320,33664
5321,33728
5322,33792
5323,33856
5324,33920
5325,33920
5326,33920
5327,33920
5328,33984
5329,34048
5330,34048
5331,34048
5332,33984
5333,33984
5334,33984
5335,33984
5336,33920
5337,33920
5338,33856
5339,33856
5340,33792
5341,33792
5342,33856
5343,33856
5344,33920
5345,33984
5346,34048
5347,34176
5348,34240
5349,34304
5350,34304
5351,34368
5352,34560
5353,34688
5354,34752
5355,34752
5356,34752
5357,34816
5358,34880
5359,34816
5360,34816
5361,34624
5362,34304
5363,34112
5364,33984
5365,33856
5366,33856
5367,33728
5368,33664
5369,33600
5370,33536
5371,33472
5372,33536
5373,33664
5374,33664
5375,33664
5376,33600
5377,33600
5378,33664
5379,33664
5380,33664
5381,33664
5382,33664
5383,33856
5384,34496
5385,35584
5386,37312
5387,39744
5388,42624
5389,45184
5390,46080
5391,44864
5392,42176
5393,39040
5394,35904
5395,33344
5396,31616
5397,30848
5398,30720
5399,30976
5400,31232
5401,31424
5402,31616
5403,31744
5404,31936
5405,32128
5406,32320
5407,32512
5408,32640
5409,32832
5410,33024
5411,33216
5412,33280
5413,33280
5414,33344
5415,33408
5416,33472
5417,33536
5418,33600
5419,33664
5420,33792
5421,33984
5422,34112
5423,34240
5424,34304
5425,34432
5426,34560
5427,34688
5428,34752
5429,34880
5430,35072
5431,35200
5432,35328
5433,35392
5434,35456
5435,35456
5436,35584
5437,35712
5438,35776
5439,35904
5440,35968
5441,36160
5442,36288
5443,36416
5444,36480
5445,36544
5446,36608
5447,36544
5448,36480
5449,36480
5450,36352
5451,36160
5452,35904
5453,35584
5454,35200
5455,34752
5456,34176
5457,33600
5458,33088
5459,32640
5460,32256
5461,32000
5462,31744
5463,31552
5464,31488
5465,31424
5466,31424
5467,31424
5468,31488
5469,31616
5470,31744
5471,31936
5472,32128
5473,32256
5474,32384
5475,32448
5476,32640
5477,32704
5478,32704
5479,32768
5480,32832
5481,32896
5482,33024
5483,33152
5484,33216
5485,33344
5486,33408
5487,33472
5488,33472
5489,33472
5490,33536
5491,33600
5492,33728
5493,33728
5494,33728
5495,33728
5496,33728
5497,33728
5498,33792
5499,33792
5500,33792
5501,33792
5502,33856
5503,33856
5504,33856
5505,33856
5506,33792
5507,33792
5508,33856
5509,33856
5510,33792
5511,33856
5512,33856
5513,33856
5514,33792
5515,33792
5516,33856
5517,33920
5518,33856
5519,33856
5520,33920
5521,33920
5522,33920
5523,33920
5524,33984
5525,33984
5526,33984
5527,33920
5528,33920
5529,33920
5530,33920
5531,33984
5532,34048
5533,34048
5534,34048
5535,34048
5536,34048
5537,34112
5538,34176
5539,34368
5540,34560
5541,34752
5542,34816
5543,34880
5544,34944
5545,35008
5546,35072
5547,35008
5548,34816
5549,34496
5550,34240
5551,34112
5552,33984
5553,33920
5554,33792
5555,33728
5556,33600
5557,33472
5558,33408
5559,33472
5560,33472
5561,33472
5562,33536
5563,33600
5564,33664
5565,33728
5566,33856
5567,33920
5568,33856
5569,33728
5570,33792
5571,34048
5572,34752
5573,35968
5574,37824
5575,40192
5576,42944
5577,45056
5578,44992
5579,43072
5580,40448
5581,37632
5582,34752
5583,32832
5584,31552
5585,30976
5586,30976
5587,31232
5588,31488
5589,31680
5590,31872
5591,32064
5592,32256
5593,32384
5594,32576
5595,32704
5596,32768
5597,32960
5598,33024
5599,33152
5600,33280
5601,33280
5602,33344
5603,33408
5604,33536
5605,33664
5606,33792
5607,33856
5608,33920
5609,33920
5610,34048
5611,34176
5612,34368
5613,34432
5614,34560
5615,34688
5616,34816
5617,34944
5618,34944
5619,34944
5620,35072
5621,35200
5622,35392
5623,35520
5624,35648
5625,35776
5626,35904
5627,36032
5628,36224
5629,36288
5630,36352
5631,36416
5632,36480
5633,36480
5634,36416
5635,36416
5636,36352
5637,36352
5638,36224
5639,35968
5640,35712
5641,35392
5642,34944
5643,34432
5644,33984
5645,33472
5646,33024
5647,32576
5648,32192
5649,31936
5650,31808
5651,31744
5652,31680
5653,31744
5654,31744
5655,31680
5656,31680
5657,31744
5658,31808
5659,31936
5660,32000
5661,32192
5662,32320
5663,32448
5664,32576
5665,32768
5666,32896
5667,33024
5668,33152
5669,33280
5670,33408
5671,33472
5672,33408
5673,33408
5674,33472
5675,33536
5676,33664
5677,33664
5678,33728
5679,33792
5680,33792
5681,33792
5682,33792
5683,33792
5684,33856
5685,33856
5686,33856
5687,33920
5688,33856
5689,33856
5690,33792
5691,33792
5692,33792
5693,33792
5694,33856
5695,33920
5696,33920
5697,33856
5698,33856
5699,33856
5700,33856
5701,33856
5702,33920
5703,33856
5704,33856
5705,33856
5706,33856
5707,33856
5708,33856
5709,33792
5710,33728
5711,33728
5712,33728
5713,33792
5714,33792
5715,33856
5716,33920
5717,33920
5718,33984
5719,34048
5720,34112
5721,34048
5722,34048
5723,33984
5724,34112
5725,34240
5726,34432
5727,34624
5728,34752
5729,34816
5730,34752
5731,34688
5732,34752
5733,34816
5734,34816
5735,34688
5736,34496
5737,34176
5738,33984
5739,33792
5740,33728
5741,33728
5742,33664
5743,33536
5744,33472
5745,33408
5746,33408
5747,33408
5748,33472
5749,33472
5750,33472
5751,33536
5752,33664
5753,33728
5754,33728
5755,33728
5756,33600
5757,33600
5758,33792
5759,34560
5760,35776
5761,37632
5762,40256
5763,43200
5764,45504
5765,45952
5766,44224
5767,41408
5768,38272
5769,35200
5770,33088
5771,31680
5772,31168
5773,31104
5774,31296
5775,31488
5776,31616
5777,31744
5778,31872
5779,32000
5780,32128
5781,32320
5782,32448
5783,32640
5784,32704
5785,32832
5786,32960
5787,33088
5788,33216
5789,33344
5790,33472
5791,33600
5792,33664
5793,33728
5794,33856
5795,33984
5796,34112
5797,34176
5798,34240
5799,34368
5800,34432
5801,34560
5802,34752
5803,34816
5804,34880
5805,34944
5806,35008
5807,35136
5808,35264
5809,35392
5810,35520
5811,35648
5812,35840
5813,35968
5814,36032
5815,36160
5816,36288
5817,36416
5818,36480
5819,36544
5820,36544
5821,36544
5822,36544
5823,36544
5824,36480
5825,36288
5826,36032
5827,35712
5828,35264
5829,34816
5830,34368
5831,33856
5832,33344
5833,32832
5834,32448
5835,32128
5836,31808
5837,31616
5838,31488
5839,31360
5840,31296
5841,31360
5842,31424
5843,31552
5844,31680
5845,31744
5846,31872
5847,32064
5848,32256
5849,32384
5850,32448
5851,32576
5852,32704
5853,32768
5854,32896
5855,32960
5856,33088
5857,33152
5858,33216
5859,33280
5860,33280
5861,33344
5862,33408
5863,33472
5864,33536
5865,33600
5866,33600
5867,33664
5868,33728
5869,33728
5870,33792
5871,33920
5872,33920
5873,33984
5874,33920
5875,33920
5876,33856
5877,33792
5878,33728
5879,33728
5880,33728
5881,33728
5882,33728
5883,33728
5884,33728
5885,33728
5886,33792
5887,33856
5888,33856
5889,33856
5890,33856
5891,33856
5892,33920
5893,33920
5894,33920
5895,33920
5896,33856
5897,33856
5898,33792
5899,33856
5900,33856
5901,33856
5902,33920
5903,33920
5904,33920
5905,33920
5906,33920
5907,33856
5908,33856
5909,33856
5910,33856
5911,33920
5912,33984
5913,33984
5914,34112
5915,34240
5916,34432
5917,34624
5918,34688
5919,34752
5920,34816
5921,35008
5922,35072
5923,35072
5924,34944
5925,34688
5926,34432
5927,34176
5928,33984
5929,33792
5930,33728
5931,33600
5932,33472
5933,33472
5934,33344
5935,33344
5936,33344
5937,33344
5938,33408
5939,33472
5940,33536
5941,33600
5942,33664
5943,33664
5944,33728
5945,33664
5946,33536
5947,33536
5948,33856
5949,34688
5950,36032
5951,38080
5952,40896
5953,43776
5954,45696
5955,45504
5956,43392
5957,40384
5958,37248
5959,34432
5960,32384
5961,31296
5962,30976
5963,31104
5964,31296
5965,31488
5966,31616
5967,31680
5968,31808
5969,32000
5970,32192
5971,32384
5972,32640
5973,32768
5974,32896
5975,32960
5976,33024
5977,33152
5978,33280
5979,33472
5980,33664
5981,33728
5982,33792
5983,33792
5984,33856
5985,33984
5986,34112
5987,34304
5988,34368
5989,34432
5990,34496
5991,34624
5992,34688
5993,34752
5994,34816
5995,34944
5996,35072
5997,35136
5998,35264
5999,35392
6000,35520
6001,35648
6002,35776
6003,35904
6004,36096
6005,36288
6006,36416
6007,36544
6008,36608
6009,36608
6010,36608
6011,36608
6012,36672
6013,36544
6014,36416
6015,36224
6016,35968
6017,35648
6018,35264
6019,34752
6020,34176
6021,33664
6022,33152
6023,32640
6024,32256
6025,32000
6026,31744
6027,31552
6028,31424
6029,31360
6030,31360
6031,31360
6032,31488
6033,31616
6034,31744
6035,31872
6036,31936
6037,32064
6038,32192
6039,32256
6040,32320
6041,32512
6042,32704
6043,32832
6044,32896
6045,33024
6046,33088
6047,33216
6048,33280
6049,33280
6050,33344
6051,33472
6052,33472
6053,33536
6054,33536
6055,33536
6056,33600
6057,33600
6058,33664
6059,33664
6060,33728
6061,33728
6062,33728
6063,33728
6064,33792
6065,33856
6066,33856
6067,33792
6068,33728
6069,33728
6070,33728
6071,33728
6072,33728
6073,33792
6074,33792
6075,33728
6076,33728
6077,33728
6078,33792
6079,33792
6080,33856
6081,33856
6082,33920
6083,33856
6084,33792
6085,33792
6086,33792
6087,33856
6088,33856
6089,33856
6090,33856
6091,33856
6092,33856
6093,33856
6094,33856
6095,33920
6096,33920
6097,33920
6098,33920
6099,33920
6100,33920
6101,33984
6102,33984
6103,34048
6104,34112
6105,34240
6106,34432
6107,34496
6108,34624
6109,34688
6110,34688
6111,34752
6112,34752
6113,34752
6114,34688
6115,34496
6116,34304
6117,34176
6118,33984
6119,33856
6120,33728
6121,33600
6122,33472
6123,33408
6124,33408
6125,33472
6126,33472
6127,33472
6128,33536
6129,33728
6130,33728
6131,33792
6132,33792
6133,33856
6134,33792
6135,33664
6136,33600
6137,33792
6138,34432
6139,35520
6140,37184
6141,39616
6142,42560
6143,44992
6144,45440
6145,44352
6146,41600
6147,38592
6148,35648
6149,33280
6150,31680
6151,30976
6152,30976
6153,31168
6154,31424
6155,31616
6156,31744
6157,31872
6158,31936
6159,32064
6160,32192
6161,32384
6162,32448
6163,32704
6164,32832
6165,32896
6166,33024
6167,33152
6168,33280
6169,33408
6170,33536
6171,33664
6172,33728
6173,33792
6174,33920
6175,33984
6176,34048
6177,34176
6178,34304
6179,34432
6180,34624
6181,34752
6182,34816
6183,34944
6184,35008
6185,35072
6186,35136
6187,35200
6188,35328
6189,35520
6190,35584
6191,35712
6192,35904
6193,36096
6194,36160
6195,36288
6196,36352
6197,36416
6198,36416
6199,36416
6200,36480
6201,36480
6202,36416
6203,36352
6204,36160
6205,35968
6206,35712
6207,35328
6208,34944
6209,34496
6210,33984
6211,33536
6212,33088
6213,32640
6214,32256
6215,32000
6216,31744
6217,31616
6218,31552
6219,31552
6220,31552
6221,31616
6222,31680
6223,31808
6224,31936
6225,32064
6226,32128
6227,32192
6228,32320
6229,32448
6230,32640
6231,32768
6232,32832
6233,33024
6234,33152
6235,33216
6236,33280
6237,33344
6238,33408
6239,33408
6240,33472
6241,33472
6242,33472
6243,33536
6244,33600
6245,33664
6246,33728
6247,33792
6248,33856
6249,33920
6250,33856
6251,33792
6252,33792
6253,33856
6254,33856
6255,33920
6256,33920
6257,33856
6258,33920
6259,33920
6260,33856
6261,33856
6262,33792
6263,33792
6264,33792
6265,33856
6266,33920
6267,33920
6268,33920
6269,33920
6270,33856
6271,33792
6272,33792
6273,33792
6274,33792
6275,33792
6276,33792
6277,33856
6278,33920
6279,33856
6280,33856
6281,33984
6282,33920
6283,33856
6284,33856
6285,33856
6286,33856
6287,33984
6288,34112
6289,34304
6290,34432
6291,34560
6292,34560
6293,34688
6294,34688
6295,34688
6296,34880
6297,34752
6298,34688
6299,34368
6300,34112
6301,33984
6302,33920
6303,33792
6304,33728
6305,33536
6306,33472
6307,33344
6308,33344
6309,33344
6310,33344
6311,33472
6312,33536
6313,33664
6314,33728
6315,33728
6316,33792
6317,33792
6318,33664
6319,33536
6320,33536
6321,33920
6322,34816
6323,36352
6324,36352
6325,40640
6326,43392
6327,45184
6328,45184
6329,42752
6330,40000
6331,37184
6332,34688
6333,32704
6334,31424
6335,30976
6336,31040
6337,31296
6338,31488
6339,31616
6340,31616
6341,31936
6342,32128
6343,32256
6344,32384
6345,32512
6346,32640
6347,32768
6348,32960
6349,33088
6350,33216
6351,33344
6352,33472
6353,33536
6354,33600
6355,33664
6356,33792
6357,33920
6358,34048
6359,34176
6360,34240
6361,34368
6362,34368
6363,34496
6364,34560
6365,34624
6366,34752
6367,34880
6368,34944
6369,35072
6370,35136
6371,35264
6372,35392
6373,35520
6374,35584
6375,35776
6376,35904
6377,36032
6378,36160
6379,36224
6380,36352
6381,36416
6382,36544
6383,36544
6384,36544
6385,36416
6386,36288
6387,36160
6388,35968
6389,35712
6390,35392
6391,35008
6392,34624
6393,34112
6394,33600
6395,33152
6396,32768
6397,32384
6398,32128
6399,31936
6400,31808
6401,31744
6402,31616
6403,31552
6404,31552
6405,31552
6406,31680
6407,31808
6408,31936
6409,32064
6410,32192
6411,32320
6412,32448
6413,32576
6414,32704
6415,32896
6416,33024
6417,33152
6418,33280
6419,33344
6420,33344
6421,33408
6422,33408
6423,33472
6424,33536
6425,33600
6426,33664
6427,33664
6428,33664
6429,33664
6430,33728
6431,33728
6432,33792
6433,33792
6434,33792
6435,33792
6436,33792
6437,33856
6438,33856
6439,33856
6440,33856
6441,33856
6442,33856
6443,33792
6444,33856
6445,33920
6446,33920
6447,33920
6448,33856
6449,33792
6450,33792
6451,33728
6452,33728
6453,33728
6454,33792
6455,33792
6456,33728
6457,33728
6458,33728
6459,33792
6460,33792
6461,33856
6462,33856
6463,33792
6464,33792
6465,33792
6466,33856
6467,33856
6468,33920
6469,33920
6470,33984
6471,33984
6472,33920
6473,33856
6474,33856
6475,33856
6476,33920
6477,33920
6478,33920
6479,33984
6480,34048
6481,34240
6482,34432
6483,34624
6484,34752
6485,34752
6486,34816
6487,34944
6488,35008
6489,34944
6490,34752
6491,34496
6492,34368
6493,34176
6494,33984
6495,33792
6496,33664
6497,33536
6498,33408
6499,33344
6500,33344
6501,33344
6502,33344
6503,33344
6504,33408
6505,33472
6506,33600
6507,33728
6508,33792
6509,33856
6510,33856
6511,33728
6512,33600
6513,33728
6514,34304
6515,35456
6516,37184
6517,39680
6518,42624
6519,45120
6520,45888
6521,44480
6522,41856
6523,38720
6524,35712
6525,33280
6526,31744
6527,31040
6528,31040
6529,31296
6530,31552
6531,31744
6532,31872
6533,31936
6534,31936
6535,32000
6536,32128
6537,32256
6538,32448
6539,32640
6540,32768
6541,32960
6542,33088
6543,33216
6544,33344
6545,33472
6546,33536
6547,33664
6548,33728
6549,33856
6550,33984
6551,34112
6552,34304
6553,34432
6554,34496
6555,34560
6556,34624
6557,34688
6558,34752
6559,34880
6560,34944
6561,35008
6562,35072
6563,35200
6564,35264
6565,35392
6566,35584
6567,35712
6568,35840
6569,36032
6570,36160
6571,36352
6572,36544
6573,36672
6574,36736
6575,36736
6576,36672
6577,36480
6578,36352
6579,36160
6580,36032
6581,35776
6582,35520
6583,35200
6584,34816
6585,34368
6586,33920
6587,33408
6588,32960
6589,32512
6590,32192
6591,31872
6592,31680
6593,31552
6594,31488
6595,31488
6596,31552
6597,31680
6598,31680
6599,31744
6600,31744
6601,31808
6602,31808
6603,31936
6604,32064
6605,32256
6606,32384
6607,32576
6608,32704
6609,32832
6610,32960
6611,33024
6612,33152
6613,33216
6614,33344
6615,33472
6616,33600
6617,33728
6618,33728
6619,33600
6620,33536
6621,33536
6622,33472
6623,33472
6624,33536
6625,33600
6626,33664
6627,33728
6628,33792
6629,33792
6630,33792
6631,33792
6632,33856
6633,33856
6634,33856
6635,33856
6636,33856
6637,33856
6638,33984
6639,34048
6640,34112
6641,33984
6642,33920
6643,33856
6644,33856
6645,33792
6646,33664
6647,33600
6648,33536
6649,33536
6650,33600
6651,33664
6652,33792
6653,33920
6654,33984
6655,33984
6656,33984
6657,34048
6658,34048
6659,34048
6660,34048
6661,34048
6662,34112
6663,34112
6664,34112
6665,34240
6666,34304
6667,34240
6668,34176
6669,34048
6670,34048
6671,34112
6672,34240
6673,34432
6674,34560
6675,34688
6676,34752
6677,34880
6678,34944
6679,34944
6680,34880
6681,34688
6682,34432
6683,34304
6684,34304
6685,34304
6686,34112
6687,33856
6688,33600
6689,33408
6690,33216
6691,33088
6692,33088
6693,33152
6694,33216
6695,33344
6696,33472
6697,33536
6698,33600
6699,33664
6700,33664
6701,33600
6702,33536
6703,33664
6704,34176
6705,35136
6706,36672
6707,38912
6708,41792
6709,44608
6710,46080
6711,45248
6712,42880
6713,39808
6714,36736
6715,33984
6716,32064
6717,31040
6718,30720
6719,30784
6720,30976
6721,31104
6722,31232
6723,31424
6724,31680
6725,31936
6726,32128
6727,32320
6728,32512
6729,32704
6730,32896
6731,33024
6732,33216
6733,33344
6734,33408
6735,33408
6736,33472
6737,33472
6738,33536
6739,33600
6740,33664
6741,33728
6742,33856
6743,33920
6744,34048
6745,34176
6746,34304
6747,34432
6748,34560
6749,34688
6750,34816
6751,34880
6752,35008
6753,35200
6754,35456
6755,35584
6756,35584
6757,35584
6758,35712
6759,35904
6760,35968
6761,36032
6762,36096
6763,36160
6764,36160
6765,36224
6766,36288
6767,36352
6768,36352
6769,36224
6770,36096
6771,35904
6772,35648
6773,35392
6774,35072
6775,34624
6776,34112
6777,33600
6778,33088
6779,32576
6780,32128
6781,31872
6782,31616
6783,31488
6784,31360
6785,31296
6786,31360
6787,31424
6788,31552
6789,31680
6790,31808
6791,32000
6792,32064
6793,32128
6794,32192
6795,32320
6796,32448
6797,32576
6798,32704
6799,32768
6800,32832
6801,32896
6802,32960
6803,33088
6804,33280
6805,33408
6806,33536
6807,33600
6808,33600
6809,33600
6810,33600
6811,33664
6812,33728
6813,33728
6814,33792
6815,33920
6816,33984
6817,33984
6818,33856
6819,33728
6820,33664
6821,33600
6822,33600
6823,33600
6824,33664
6825,33664
6826,33664
6827,33664
6828,33728
6829,33792
6830,33856
6831,33856
6832,33984
6833,33984
6834,33984
6835,33920
6836,33792
6837,33728
6838,33664
6839,33600
6840,33664
6841,33664
6842,33728
6843,33792
6844,33856
6845,33920
6846,33984
6847,34048
6848,34048
6849,34048
6850,34048
6851,34048
6852,34112
6853,34240
6854,34432
6855,34560
6856,34688
6857,34816
6858,35008
6859,35136
6860,35072
6861,34816
6862,34560
6863,34304
6864,34048
6865,33856
6866,33728
6867,33664
6868,33600
6869,33536
6870,33472
6871,33408
6872,33408
6873,33408
6874,33408
6875,33472
6876,33472
6877,33536
6878,33600
6879,33664
6880,33728
6881,33664
6882,33600
6883,33600
6884,33600
6885,33792
6886,34368
6887,35456
6888,37120
6889,39552
6890,42304
6891,44544
6892,44992
6893,43392
6894,40832
6895,38208
6896,35712
6897,33408
6898,31936
6899,31296
6900,31168
6901,31296
6902,31488
6903,31616
6904,31680
6905,31616
6906,31680
6907,31808
6908,31936
6909,32192
6910,32448
6911,32640
6912,32896
6913,32960
6914,33024
6915,33088
6916,33152
6917,33344
6918,33536
6919,33600
6920,33792
6921,34048
6922,34176
6923,34304
6924,34496
6925,34624
6926,34624
6927,34496
6928,34432
6929,34432
6930,34432
6931,34496
6932,34624
6933,34752
6934,34880
6935,35008
6936,35136
6937,35328
6938,35520
6939,35648
6940,35712
6941,35840
6942,36032
6943,36224
6944,36352
6945,36352
6946,36480
6947,36480
6948,36480
6949,36480
6950,36352
6951,36160
6952,35840
6953,35520
6954,35136
6955,34688
6956,34304
6957,33920
6958,33536
6959,33152
6960,32768
6961,32512
6962,32384
6963,32320
6964,32192
6965,31936
6966,31680
6967,31552
6968,31424
6969,31424
6970,31552
6971,31680
6972,31808
6973,31936
6974,32064
6975,32320
6976,32512
6977,32576
6978,32640
6979,32768
6980,32896
6981,33024
6982,33152
6983,33344
6984,33536
6985,33664
6986,33728
6987,33856
6988,33984
6989,33984
6990,33856
6991,33664
6992,33536
6993,33408
6994,33408
6995,33472
6996,33600
6997,33728
6998,33728
6999,33728
7000,33728
7001,33728
7002,33664
7003,33728
7004,33856
7005,34048
7006,34240
7007,34240
7008,34112
7009,33984
7010,33792
7011,33792
7012,33728
7013,33792
7014,33792
7015,33728
7016,33728
7017,33728
7018,33728
7019,33728
7020,33728
7021,33728
7022,33792
7023,34048
7024,34304
7025,34560
7026,34624
7027,34560
7028,34560
7029,34496
7030,34624
7031,34688
7032,34688
7033,34560
7034,34368
7035,34176
7036,33984
7037,33856
7038,33792
7039,33664
7040,33600
7041,33536
7042,33536
7043,33600
7044,33600
7045,33600
7046,33664
7047,33792
7048,33856
7049,33856
7050,33728
7051,33728
7052,33728
7053,33792
7054,33792
7055,33792
7056,33792
7057,34176
7058,35008
7059,36352
7060,38336
7061,40896
7062,43456
7063,44544
7064,43648
7065,41472
7066,38976
7067,36672
7068,34752
7069,33216
7070,32256
7071,31744
7072,31488
7073,31360
7074,31360
7075,31552
7076,31872
7077,32000
7078,32000
7079,32064
7080,32192
7081,32256
7082,32448
7083,32640
7084,32768
7085,32896
7086,33152
7087,33344
7088,33600
7089,33856
7090,34112
7091,34112
7092,34048
7093,33920
7094,33856
7095,33856
7096,33984
7097,34048
7098,34112
7099,34112
7100,34112
7101,34240
7102,34496
7103,34752
7104,34880
7105,35008
7106,35072
7107,35264
7108,35520
7109,35648
7110,35648
7111,35648
7112,35648
7113,35776
7114,35968
7115,36160
7116,36288
7117,36352
7118,36288
7119,36224
7120,36096
7121,35968
7122,35840
7123,35520
7124,35200
7125,35008
7126,34688
7127,34304
7128,33728
7129,33216
7130,32832
7131,32576
7132,32256
7133,32000
7134,31808
7135,31808
7136,31872
7137,31936
7138,31936
7139,31808
7140,31808
7141,31872
7142,31936
7143,31936
7144,32064
7145,32192
7146,32256
7147,32192
7148,32192
7149,32384
7150,32576
7151,32640
7152,32768
7153,32832
7154,33024
7155,33152
7156,33216
7157,33344
7158,33472
7159,33600
7160,33664
7161,33728
7162,33856
7163,33984
7164,33984
7165,33856
7166,33920
7167,33920
7168,33792
7169,33664
7170,33536
7171,33472
7172,33408
7173,33344
7174,33408
7175,33536
7176,33536
7177,33600
7178,33728
7179,33984
7180,34112
7181,34112
7182,34112
7183,34112
7184,34048
7185,33984
7186,33984
7187,34112
7188,34176
7189,34240
7190,34240
7191,34048
7192,34048
7193,34112
7194,34304
7195,34496
7196,34688
7197,34624
7198,34432
7199,34176
7200,33984
7201,33856
7202,33856
7203,33920
7204,33856
7205,33792
7206,33792
7207,33728
7208,33664
7209,33536
7210,33472
7211,33408
7212,33408
7213,33408
7214,33536
7215,33664
7216,33664
7217,33728
7218,33728
7219,33664
7220,33856
7221,34368
7222,35200
7223,36416
7224,38144
7225,40448
7226,43008
7227,44672
7228,44352
7229,42496
7230,40064
7231,37760
7232,35776
7233,33920
7234,32512
7235,31744
7236,31552
7237,31552
7238,31552
7239,31680
7240,31808
7241,31872
7242,32000
7243,32128
7244,32192
7245,32384
7246,32576
7247,32896
7248,33088
7249,33216
7250,33344
7251,33536
7252,33600
7253,33728
7254,33920
7255,34048
7256,34240
7257,34304
7258,34240
7259,34176
7260,34176
7261,34240
7262,34240
7263,34240
7264,34368
7265,34496
7266,34688
7267,34816
7268,34944
7269,35072
7270,35200
7271,35328
7272,35520
7273,35648
7274,35840
7275,36160
7276,36352
7277,36480
7278,36416
7279,36288
7280,36224
7281,36096
7282,36096
7283,36032
7284,35968
7285,35968
7286,35904
7287,35648
7288,35392
7289,35136
7290,34816
7291,34432
7292,34112
7293,33664
7294,33344
7295,33024
7296,32704
7297,32512
7298,32256
7299,32128
7300,32064
7301,32000
7302,31872
7303,31808
7304,31808
7305,31872
7306,31936
7307,32064
7308,32192
7309,32384
7310,32640
7311,32768
7312,32896
7313,32960
7314,33088
7315,33216
7316,33344
7317,33472
7318,33600
7319,33728
7320,33728
7321,33728
7322,33728
7323,33728
7324,33728
7325,33728
7326,33728
7327,33792
7328,33856
7329,33792
7330,33792
7331,33792
7332,33728
7333,33792
7334,33856
7335,33920
7336,33920
7337,33984
7338,33984
7339,33984
7340,33984
7341,33984
7342,34048
7343,33984
7344,33984
7345,33920
7346,33984
7347,33984
7348,34048
7349,34048
7350,34112
7351,34112
7352,33984
7353,33856
7354,33856
7355,33856
7356,33920
7357,33984
7358,34112
7359,34368
7360,34496
7361,34688
7362,34880
7363,34944
7364,34944
7365,34880
7366,34816
7367,34624
7368,34432
7369,34176
7370,34048
7371,33984
7372,33920
7373,33856
7374,33792
7375,33664
7376,33472
7377,33408
7378,33472
7379,33472
7380,33536
7381,33600
7382,33600
7383,33664
7384,33728
7385,33792
7386,33792
7387,33792
7388,33792
7389,33728
7390,33792
7391,34176
7392,35072
7393,36608
7394,38464
7395,41216
7396,44096
7397,45888
7398,45696
7399,43776
7400,40960
7401,37952
7402,35136
7403,32960
7404,31680
7405,31296
7406,31168
7407,31168
7408,31232
7409,31360
7410,31488
7411,31744
7412,32000
7413,32256
7414,32512
7415,32640
7416,32768
7417,32832
7418,32896
7419,33024
7420,33088
7421,33280
7422,33344
7423,33472
7424,33536
7425,33600
7426,33664
7427,33728
7428,33856
7429,33984
7430,34240
7431,34432
7432,34496
7433,34496
7434,34560
7435,34624
7436,34688
7437,34752
7438,34880
7439,35008
7440,35200
7441,35328
7442,35520
7443,35648
7444,35840
7445,35904
7446,36032
7447,36224
7448,36352
7449,36416
7450,36416
7451,36416
7452,36416
7453,36416
7454,36416
7455,36416
7456,36288
7457,36160
7458,35968
7459,35712
7460,35328
7461,34880
7462,34368
7463,33920
7464,33472
7465,33152
7466,32704
7467,32320
7468,31936
7469,31744
7470,31744
7471,31680
7472,31552
7473,31552
7474,31616
7475,31744
7476,31872
7477,31936
7478,32064
7479,32256
7480,32448
7481,32576
7482,32640
7483,32704
7484,32832
7485,32960
7486,33088
7487,33152
7488,33280
7489,33344
7490,33408
7491,33472
7492,33472
7493,33472
7494,33600
7495,33664
7496,33856
7497,33920
7498,33920
7499,33856
7500,33856
7501,33792
7502,33792
7503,33792
7504,33856
7505,33856
7506,33856
7507,33792
7508,33792
7509,33792
7510,33792
7511,33856
7512,33856
7513,33856
7514,33792
7515,33728
7516,33664
7517,33728
7518,33728
7519,33728
7520,33728
7521,33856
7522,33920
7523,33920
7524,33984
7525,34048
7526,34176
7527,34368
7528,34560
7529,34624
7530,34688
7531,34624
7532,34688
7533,34752
7534,34752
7535,34752
7536,34560
7537,34240
7538,33984
7539,33728
7540,33600
7541,33472
7542,33408
7543,33344
7544,33280
7545,33280
7546,33280
7547,33216
7548,33280
7549,33408
7550,33600
7551,33664
7552,33664
7553,33728
7554,33792
7555,33856
7556,33920
7557,33792
7558,33664
7559,33984
7560,34816
7561,36288
7562,38336
7563,41152
7564,44096
7565,46016
7566,46016
7567,44032
7568,41088
7569,37824
7570,34816
7571,32576
7572,31360
7573,30912
7574,30912
7575,31040
7576,31104
7577,31296
7578,31488
7579,31680
7580,31872
7581,32064
7582,32192
7583,32384
7584,32448
7585,32576
7586,32704
7587,32896
7588,33024
7589,33088
7590,33088
7591,33152
7592,33280
7593,33408
7594,33536
7595,33728
7596,33856
7597,33984
7598,34176
7599,34368
7600,34496
7601,34624
7602,34752
7603,34880
7604,34752
7605,34752
7606,34752
7607,34816
7608,34880
7609,35008
7610,35136
7611,35328
7612,35456
7613,35648
7614,35840
7615,36032
7616,36224
7617,36352
7618,36352
7619,36416
7620,36480
7621,36480
7622,36480
7623,36352
7624,36288
7625,36096
7626,35840
7627,35520
7628,35200
7629,34752
7630,34176
7631,33600
7632,33088
7633,32640
7634,32320
7635,32064
7636,31936
7637,31808
7638,31616
7639,31552
7640,31488
7641,31552
7642,31744
7643,31936
7644,32000
7645,31936
7646,31936
7647,31936
7648,32064
7649,32256
7650,32448
7651,32576
7652,32704
7653,32768
7654,32896
7655,32960
7656,33088
7657,33280
7658,33472
7659,33536
7660,33536
7661,33664
7662,33728
7663,33856
7664,33920
7665,33856
7666,33856
7667,33856
7668,33856
7669,33920
7670,33984
7671,33920
7672,33856
7673,33920
7674,34048
7675,34112
7676,34112
7677,34112
7678,34048
7679,33920
7680,33856
7681,33728
7682,33728
7683,33728
7684,33792
7685,33920
7686,33984
7687,34048
7688,34048
7689,34048
7690,33984
7691,33920
7692,33984
7693,34048
7694,34176
7695,34368
7696,34432
7697,34496
7698,34560
7699,34560
7700,34560
7701,34560
7702,34496
7703,34304
7704,34112
7705,33984
7706,33920
7707,33856
7708,33856
7709,33856
7710,33728
7711,33600
7712,33472
7713,33408
7714,33472
7715,33472
7716,33536
7717,33600
7718,33664
7719,33728
7720,33792
7721,33856
7722,33792
7723,33600
7724,33408
7725,33408
7726,33856
7727,34816
7728,36288
7729,38464
7730,41280
7731,44032
7732,45568
7733,45056
7734,42880
7735,40064
7736,37248
7737,34816
7738,32704
7739,31552
7740,31104
7741,31040
7742,31168
7743,31360
7744,31488
7745,31552
7746,31680
7747,31808
7748,32000
7749,32256
7750,32384
7751,32512
7752,32768
7753,32896
7754,33024
7755,33088
7756,33152
7757,33280
7758,33408
7759,33600
7760,33728
7761,33856
7762,33984
7763,34112
7764,34176
7765,34176
7766,34240
7767,34368
7768,34432
7769,34496
7770,34560
7771,34752
7772,34944
7773,35072
7774,35136
7775,35264
7776,35328
7777,35456
7778,35584
7779,35840
7780,35904
7781,36032
7782,36160
7783,36288
7784,36416
7785,36480
7786,36416
7787,36288
7788,36224
7789,36224
7790,36096
7791,35968
7792,35776
7793,35520
7794,35200
7795,34816
7796,34432
7797,34048
7798,33664
7799,33216
7800,32832
7801,32512
7802,32192
7803,32000
7804,31872
7805,31808
7806,31808
7807,31744
7808,31744
7809,31744
7810,31744
7811,31744
7812,31872
7813,32064
7814,32320
7815,32384
7816,32448
7817,32576
7818,32704
7819,32768
7820,32896
7821,33088
7822,33152
7823,33280
7824,33408
7825,33408
7826,33408
7827,33536
7828,33600
7829,33728
7830,33856
7831,33856
7832,33856
7833,33856
7834,33856
7835,33792
7836,33728
7837,33728
7838,33728
7839,33728
7840,33728
7841,33792
7842,33792
7843,33856
7844,33792
7845,33728
7846,33792
7847,33920
7848,33920
7849,33856
7850,33856
7851,33920
7852,33984
7853,34048
7854,33984
7855,33984
7856,33920
7857,33920
7858,33728
7859,33728
7860,33984
7861,34176
7862,34304
7863,34368
7864,34432
7865,34496
7866,34560
7867,34560
7868,34496
7869,34432
7870,34304
7871,34048
7872,33920
7873,33856
7874,33728
7875,33600
7876,33600
7877,33536
7878,33408
7879,33280
7880,33216
7881,33280
7882,33344
7883,33408
7884,33472
7885,33408
7886,33408
7887,33536
7888,33600
7889,33600
7890,33536
7891,33664
7892,34048
7893,35008
7894,36352
7895,38272
7896,40832
7897,43520
7898,45376
7899,45184
7900,43328
7901,40640
7902,37760
7903,35136
7904,32896
7905,31552
7906,30976
7907,30848
7908,31040
7909,31232
7910,31360
7911,31488
7912,31744
7913,31936
7914,32192
7915,32256
7916,32384
7917,32512
7918,32704
7919,32896
7920,33024
7921,33152
7922,33280
7923,33408
7924,33600
7925,33728
7926,33728
7927,33792
7928,33856
7929,33984
7930,34176
7931,34240
7932,34304
7933,34304
7934,34432
7935,34496
7936,34560
7937,34560
7938,34560
7939,34624
7940,34816
7941,35008
7942,35264
7943,35456
7944,35648
7945,35776
7946,35968
7947,36160
7948,36352
7949,36352
7950,36416
7951,36480
7952,36544
7953,36544
7954,36352
7955,36224
7956,36096
7957,35776
7958,35584
7959,35456
7960,35328
7961,34880
7962,34304
7963,33792
7964,33408
7965,32960
7966,32448
7967,32192
7968,32064
7969,32064
7970,32000
7971,31936
7972,31808
7973,31680
7974,31744
7975,31808
7976,31936
7977,32000
7978,32064
7979,32064
7980,32064
7981,32128
7982,32192
7983,32320
7984,32384
7985,32576
7986,32768
7987,33024
7988,33152
7989,33280
7990,33344
7991,33472
7992,33536
7993,33664
7994,33728
7995,33856
7996,33920
7997,33792
7998,33728
7999,33728
8000,33792
8001,33856
8002,33792
8003,33728
8004,33600
8005,33536
8006,33600
8007,33664
8008,33728
8009,33792
8010,33856
8011,33920
8012,33984
8013,33984
8014,33920
8015,33920
8016,33920
8017,33984
8018,33920
8019,33792
8020,33792
8021,33856
8022,34112
8023,34368
8024,34496
8025,34560
8026,34560
8027,34560
8028,34560
8029,34496
8030,34432
8031,34304
8032,34112
8033,33920
8034,33856
8035,33856
8036,33792
8037,33664
8038,33536
8039,33536
8040,33472
8041,33408
8042,33344
8043,33280
8044,33280
8045,33344
8046,33408
8047,33472
8048,33536
8049,33536
8050,33536
8051,33472
8052,33408
8053,33408
8054,33728
8055,34624
8056,36032
8057,38080
8058,40704
8059,43520
8060,45504
8061,45568
8062,43776
8063,40960
8064,36928
8065,35072
8066,33024
8067,31616
8068,31104
8069,31040
8070,31104
8071,31232
8072,31424
8073,31616
8074,31744
8075,31936
8076,32128
8077,32256
8078,32448
8079,32576
8080,32768
8081,32896
8082,32960
8083,33152
8084,33280
8085,33408
8086,33600
8087,33728
8088,33792
8089,33728
8090,33728
8091,33728
8092,33792
8093,33920
8094,34240
8095,34304
8096,34432
8097,34624
8098,34880
8099,35072
8100,35264
8101,35392
8102,35456
8103,35520
8104,35648
8105,35648
8106,35712
8107,35776
8108,35968
8109,35904
8110,36224
8111,36352
8112,36416
8113,36352
8114,36480
8115,36416
8116,36416
8117,36352
8118,36224
8119,36032
8120,35776
8121,35520
8122,35200
8123,34496
8124,34368
8125,34112
8126,33152
8127,32768
8128,32640
8129,32192
8130,31936
8131,31808
8132,31680
8133,31680
8134,31680
8135,31680
8136,31680
8137,31680
8138,31808
8139,31744
8140,31808
8141,32128
8142,32256
8143,32384
8144,32512
8145,32640
8146,32768
8147,32960
8148,33152
8149,33216
8150,33344
8151,33536
8152,33600
8153,33600
8154,33536
8155,33472
8156,33472
8157,33536
8158,33472
8159,33536
8160,33600
8161,33664
8162,33728
8163,33728
8164,33792
8165,33792
8166,33856
8167,33856
8168,33920
8169,33856
8170,33920
8171,34176
8172,34112
8173,34048
8174,33984
8175,33920
8176,33856
8177,33728
8178,33664
8179,33664
8180,33728
8181,33728
8182,33792
8183,33856
8184,33856
8185,34112
8186,34368
8187,34624
8188,34880
8189,34944
8190,34944
8191,34944
8192,34944
8193,34880
8194,34752
8195,34432
8196,34112
8197,33856
8198,33664
8199,33600
8200,33472
8201,33408
8202,33344
8203,33280
8204,33216
8205,33216
8206,33216
8207,33344
8208,33536
8209,33664
8210,33664
8211,33664
8212,33664
8213,33728
8214,33664
8215,33536
8216,33344
8217,33344
8218,33792
8219,34816
8220,36480
8221,38912
8222,41984
8223,44864
8224,46528
8225,45824
8226,43392
8227,40128
8228,35648
8229,35456
8230,32192
8231,31232
8232,30976
8233,31040
8234,31168
8235,31232
8236,31360
8237,31488
8238,31616
8239,31680
8240,31872
8241,32064
8242,32256
8243,32640
8244,32576
8245,32896
8246,33088
8247,33216
8248,33408
8249,33536
8250,33664
8251,33792
8252,33792
8253,33920
8254,33920
8255,33920
8256,33920
8257,33984
8258,34048
8259,33984
8260,34304
8261,34496
8262,34624
8263,34752
8264,34880
8265,35008
8266,35072
8267,35264
8268,35456
8269,35648
8270,35840
8271,35968
8272,36032
8273,36160
8274,36160
8275,36288
8276,36352
8277,36352
8278,36352
8279,36352
8280,36352
8281,36352
8282,36288
8283,36224
8284,36032
8285,35776
8286,35392
8287,35008
8288,34496
8289,34368
8290,33728
8291,33280
8292,32832
8293,32384
8294,32000
8295,31680
8296,31424
8297,31296
8298,31232
8299,31296
8300,31360
8301,31552
8302,31680
8303,31808
8304,32000
8305,32064
8306,32256
8307,32512
8308,32768
8309,32896
8310,32960
8311,33024
8312,33216
8313,33280
8314,33280
8315,33280
8316,33344
8317,33408
8318,33408
8319,33472
8320,33472
8321,33536
8322,33600
8323,33664
8324,33728
8325,33792
8326,33792
8327,33792
8328,33792
8329,33856
8330,33920
8331,33984
8332,33984
8333,33920
8334,33856
8335,33792
8336,33728
8337,33728
8338,33664
8339,33600
8340,33472
8341,33472
8342,33408
8343,33472
8344,33536
8345,33600
8346,33664
8347,33728
8348,33856
8349,33984
8350,34048
8351,34048
8352,34048
8353,33920
8354,33920
8355,33856
8356,33920
8357,34048
8358,34240
8359,34432
8360,34496
8361,34560
8362,34624
8363,34688
8364,34688
8365,34560
8366,34432
8367,34240
8368,34048
8369,33920
8370,33792
8371,33728
8372,33664
8373,33472
8374,33344
8375,33280
8376,33280
8377,33344
8378,33344
8379,33280
8380,33280
8381,33280
8382,33344
8383,33408
8384,33472
8385,33536
8386,33536
8387,33472
8388,33472
8389,33792
8390,34688
8391,36032
8392,38080
8393,40896
8394,43968
8395,45952
8396,45888
8397,43840
8398,40960
8399,37696
8400,34688
8401,32320
8402,31040
8403,30656
8404,30720
8405,30976
8406,31168
8407,31296
8408,31488
8409,31616
8410,31808
8411,32000
8412,32192
8413,32384
8414,32576
8415,32704
8416,32832
8417,33024
8418,33152
8419,33216
8420,33344
8421,33536
8422,33728
8423,33856
8424,33920
8425,33920
8426,33920
8427,33920
8428,34048
8429,34112
8430,34240
8431,34368
8432,34432
8433,34560
8434,34688
8435,34880
8436,34944
8437,35072
8438,35200
8439,35392
8440,35648
8441,35840
8442,36032
8443,36096
8444,36096
8445,36096
8446,36096
8447,36096
8448,36160
8449,36224
8450,36288
8451,36352
8452,36352
8453,36352
8454,36288
8455,36096
8456,35840
8457,35584
8458,35136
8459,34688
8460,34304
8461,33856
8462,33408
8463,32960
8464,32576
8465,32320
8466,32000
8467,31744
8468,31552
8469,31424
8470,31360
8471,31360
8472,31424
8473,31488
8474,31616
8475,31808
8476,32000
8477,32128
8478,32256
8479,32384
8480,32576
8481,32768
8482,32896
8483,33024
8484,33216
8485,33280
8486,33408
8487,33536
8488,33600
8489,33600
8490,33600
8491,33600
8492,33664
8493,33600
8494,33472
8495,33408
8496,33408
8497,33408
8498,33536
8499,33600
8500,33664
8501,33728
8502,33728
8503,33792
8504,33792
8505,33856
8506,33792
8507,33856
8508,33856
8509,33856
8510,33856
8511,33920
8512,33856
8513,33856
8514,33792
8515,33856
8516,33920
8517,33856
8518,33792
8519,33664
8520,33664
8521,33664
8522,33664
8523,33728
8524,33728
8525,33728
8526,33728
8527,33728
8528,33792
8529,33856
8530,33984
8531,34112
8532,34304
8533,34432
8534,34560
8535,34624
8536,34624
8537,34688
8538,34688
8539,34688
8540,34688
8541,34560
8542,34304
8543,34112
8544,34048
8545,33856
8546,33664
8547,33536
8548,33408
8549,33344
8550,33280
8551,33280
8552,33344
8553,33408
8554,33408
8555,33472
8556,33472
8557,33536
8558,33600
8559,33664
8560,33664
8561,33664
8562,33536
8563,33408
8564,33536
8565,33984
8566,34944
8567,36416
8568,38784
8569,41792
8570,44608
8571,45952
8572,45248
8573,42880
8574,39808
8575,36672
8576,33920
8577,31936
8578,31040
8579,30784
8580,30912
8581,31168
8582,31360
8583,31488
8584,31616
8585,31744
8586,31936
8587,32128
8588,32320
8589,32512
8590,32768
8591,33024
8592,33216
8593,33280
8594,33408
8595,33472
8596,33600
8597,33728
8598,33728
8599,33664
8600,33792
8601,33920
8602,34048
8603,34112
8604,34176
8605,34304
8606,34432
8607,34560
8608,34688
8609,34880
8610,35072
8611,35136
8612,35264
8613,35456
8614,35584
8615,35648
8616,35776
8617,35968
8618,36032
8619,36032
8620,36032
8621,36160
8622,36288
8623,36288
8624,36352
8625,36352
8626,36352
8627,36480
8628,36480
8629,36480
8630,36352
8631,36224
8632,36032
8633,35712
8634,35328
8635,34816
8636,34240
8637,33728
8638,33344
8639,32896
8640,32384
8641,31808
8642,31360
8643,30784
8644,30464
8645,30464
8646,30528
8647,30400
8648,30208
8649,29952
8650,29888
8651,30144
8652,30720
8653,31104
8654,31616
8655,32000
8656,32064
8657,32128
8658,32512
8659,32960
8660,33472
8661,33856
8662,34048
8663,34176
8664,34240
8665,34304
8666,34240
8667,34176
8668,34112
8669,34112
8670,34048
8671,33984
8672,33856
8673,33664
8674,33536
8675,33536
8676,33600
8677,33664
8678,33728
8679,33856
8680,34048
8681,34112
8682,34176
8683,34112
8684,34112
8685,34048
8686,33920
8687,33856
8688,33792
8689,33728
8690,33792
8691,33792
8692,33728
8693,33728
8694,33792
8695,33792
8696,33792
8697,33856
8698,33856
8699,33920
8700,33984
8701,33984
8702,33984
8703,34048
8704,34048
8705,33984
8706,33920
8707,33856
8708,33792
8709,33728
8710,33664
8711,33664
8712,33792
8713,33920
8714,34112
8715,34304
8716,34432
8717,34432
8718,34496
8719,34624
8720,34752
8721,34816
8722,34816
8723,34688
8724,34432
8725,34240
8726,33984
8727,33728
8728,33536
8729,33408
8730,33280
8731,33216
8732,33152
8733,33088
8734,33152
8735,33216
8736,33280
8737,33344
8738,33408
8739,33536
8740,33600
8741,33664
8742,33728
8743,33664
8744,33536
8745,33664
8746,34176
8747,35200
8748,36800
8749,39040
8750,41792
8751,44480
8752,45760
8753,44864
8754,42304
8755,39360
8756,36416
8757,33728
8758,31872
8759,30784
8760,30528
8761,30720
8762,31040
8763,31296
8764,31552
8765,31744
8766,31936
8767,32192
8768,32384
8769,32576
8770,32768
8771,32960
8772,33088
8773,33216
8774,33280
8775,33280
8776,33408
8777,33536
8778,33664
8779,33728
8780,33792
8781,33856
8782,33984
8783,34048
8784,34112
8785,34176
8786,34240
8787,34368
8788,34560
8789,34688
8790,34816
8791,34944
8792,35072
8793,35136
8794,35328
8795,35456
8796,35584
8797,35776
8798,35904
8799,36096
8800,36160
8801,36288
8802,36352
8803,36352
8804,36352
8805,36352
8806,36352
8807,36352
8808,36288
8809,36288
8810,36224
8811,36160
8812,36032
8813,35904
8814,35584
8815,35200
8816,34752
8817,34240
8818,33728
8819,33344
8820,32960
8821,32576
8822,32192
8823,31872
8824,31680
8825,31488
8826,31424
8827,31360
8828,31360
8829,31360
8830,31360
8831,31424
8832,31616
8833,31744
8834,32000
8835,32192
8836,32384
8837,32512
8838,32640
8839,32768
8840,32960
8841,33088
8842,33216
8843,33344
8844,33344
8845,33408
8846,33472
8847,33472
8848,33408
8849,33472
8850,33536
8851,33472
8852,33472
8853,33536
8854,33600
8855,33664
8856,33664
8857,33728
8858,33728
8859,33728
8860,33792
8861,33856
8862,33920
8863,33920
8864,33920
8865,33856
8866,33856
8867,33856
8868,33792
8869,33600
8870,33536
8871,33472
8872,33536
8873,33536
8874,33536
8875,33600
8876,33664
8877,33792
8878,33792
8879,33792
8880,33792
8881,33792
8882,33856
8883,33856
8884,33856
8885,33920
8886,33984
8887,34048
8888,34240
8889,34496
8890,34752
8891,34816
8892,34880
8893,34816
8894,34752
8895,34816
8896,34752
8897,34688
8898,34432
8899,34240
8900,34048
8901,33856
8902,33728
8903,33664
8904,33536
8905,33408
8906,33408
8907,33408
8908,33408
8909,33408
8910,33472
8911,33472
8912,33536
8913,33600
8914,33728
8915,33728
8916,33728
8917,33664
8918,33536
8919,33536
8920,33856
8921,34752
8922,36288
8923,38272
8924,41024
8925,44032
8926,46080
8927,45952
8928,43776
8929,40704
8930,37440
8931,34496
8932,32320
8933,31296
8934,31104
8935,31168
8936,31360
8937,31424
8938,31552
8939,31616
8940,31808
8941,31936
8942,32128
8943,32320
8944,32512
8945,32640
8946,32896
8947,33152
8948,33344
8949,33472
8950,33472
8951,33472
8952,33472
8953,33600
8954,33792
8955,33920
8956,33920
8957,33984
8958,34048
8959,34176
8960,34304
8961,34432
8962,34560
8963,34624
8964,34752
8965,34880
8966,35008
8967,35200
8968,35264
8969,35328
8970,35392
8971,35456
8972,35584
8973,35776
8974,35968
8975,36160
8976,36352
8977,36416
8978,36480
8979,36480
8980,36352
8981,36288
8982,36288
8983,36288
8984,36160
8985,36096
8986,35904
8987,35776
8988,35520
8989,35200
8990,34752
8991,34304
8992,33856
8993,33344
8994,32960
8995,32640
8996,32384
8997,32128
8998,31808
8999,31552
9000,31424
9001,31296
9002,31296
9003,31360
9004,31488
9005,31680
9006,31808
9007,31936
9008,32064
9009,32192
9010,32384
9011,32576
9012,32704
9013,32832
9014,32960
9015,33152
9016,33280
9017,33408
9018,33408
9019,33408
9020,33408
9021,33408
9022,33472
9023,33536
9024,33536
9025,33472
9026,33536
9027,33600
9028,33664
9029,33664
9030,33728
9031,33728
9032,33728
9033,33728
9034,33728
9035,33792
9036,33792
9037,33856
9038,33920
9039,33920
9040,33920
9041,33920
9042,33920
9043,33920
9044,33856
9045,33856
9046,33856
9047,33856
9048,33792
9049,33728
9050,33664
9051,33664
9052,33664
9053,33664
9054,33664
9055,33728
9056,33792
9057,33984
9058,34176
9059,34368
9060,34560
9061,34688
9062,34752
9063,34752
9064,34816
9065,34880
9066,34816
9067,34688
9068,34496
9069,34240
9070,34048
9071,33792
9072,33664
9073,33536
9074,33472
9075,33408
9076,33344
9077,33344
9078,33280
9079,33280
9080,33344
9081,33344
9082,33344
9083,33408
9084,33472
9085,33600
9086,33728
9087,33792
9088,33600
9089,33536
9090,33792
9091,34496
9092,35776
9093,37632
9094,40192
9095,43200
9096,45504
9097,46016
9098,44288
9099,41408
9100,38208
9101,35200
9102,32832
9103,31296
9104,30912
9105,31040
9106,31232
9107,31424
9108,31552
9109,31680
9110,31808
9111,31872
9112,32064
9113,32192
9114,32320
9115,32448
9116,32640
9117,32832
9118,33024
9119,33152
9120,33344
9121,33600
9122,33728
9123,33728
9124,33792
9125,33856
9126,33920
9127,33984
9128,33984
9129,34048
9130,34112
9131,34240
9132,34304
9133,34432
9134,34560
9135,34688
9136,34816
9137,35008
9138,35072
9139,35264
9140,35392
9141,35584
9142,35712
9143,35840
9144,35968
9145,36032
9146,36096
9147,36288
9148,36416
9149,36480
9150,36480
9151,36352
9152,36288
9153,36224
9154,36160
9155,36096
9156,35968
9157,35776
9158,35520
9159,35200
9160,34816
9161,34368
9162,33856
9163,33344
9164,33024
9165,32576
9166,32192
9167,31872
9168,31680
9169,31616
9170,31552
9171,31616
9172,31680
9173,31744
9174,31872
9175,31936
9176,31936
9177,31936
9178,32064
9179,32128
9180,32256
9181,32384
9182,32512
9183,32640
9184,32768
9185,32896
9186,33024
9187,33088
9188,33216
9189,33344
9190,33408
9191,33536
9192,33728
9193,33856
9194,33856
9195,33728
9196,33600
9197,33536
9198,33472
9199,33472
9200,33536
9201,33536
9202,33536
9203,33536
9204,33536
9205,33600
9206,33664
9207,33728
9208,33728
9209,33792
9210,33792
9211,33856
9212,33856
9213,33792
9214,33792
9215,33792
9216,33856
9217,33792
9218,33792
9219,33792
9220,33856
9221,33920
9222,33984
9223,34048
9224,34176
9225,34304
9226,34432
9227,34560
9228,34752
9229,34816
9230,34752
9231,34688
9232,34688
9233,34624
9234,34432
9235,34240
9236,34112
9237,34048
9238,33856
9239,33728
9240,33536
9241,33344
9242,33152
9243,33024
9244,33024
9245,32960
9246,33024
9247,33088
9248,33216
9249,33344
9250,33408
9251,33536
9252,33600
9253,33664
9254,33600
9255,33536
9256,33536
9257,33984
9258,35072
9259,36672
9260,39104
9261,42048
9262,44800
9263,46080
9264,45120
9265,42560
9266,39360
9267,36288
9268,33536
9269,31808
9270,30976
9271,30848
9272,31040
9273,31232
9274,31424
9275,31680
9276,31872
9277,32064
9278,32256
9279,32448
9280,32640
9281,32832
9282,32896
9283,32960
9284,32960
9285,33088
9286,33216
9287,33280
9288,33280
9289,33344
9290,33472
9291,33600
9292,33728
9293,33856
9294,33984
9295,34112
9296,34240
9297,34304
9298,34368
9299,34496
9300,34624
9301,34752
9302,34944
9303,35136
9304,35200
9305,35264
9306,35328
9307,35392
9308,35456
9309,35520
9310,35712
9311,35712
9312,35776
9313,35840
9314,35968
9315,36096
9316,36160
9317,36160
9318,36160
9319,36160
9320,36160
9321,36096
9322,35968
9323,35776
9324,35584
9325,35328
9326,34944
9327,34560
9328,34112
9329,33600
9330,33152
9331,32768
9332,32448
9333,32192
9334,31936
9335,31744
9336,31616
9337,31552
9338,31552
9339,31552
9340,31680
9341,31808
9342,31936
9343,32128
9344,32256
9345,32448
9346,32640
9347,32832
9348,32960
9349,33088
9350,33216
9351,33216
9352,33216
9353,33152
9354,33152
9355,33216
9356,33280
9357,33408
9358,33408
9359,33472
9360,33472
9361,33472
9362,33536
9363,33600
9364,33664
9365,33728
9366,33792
9367,33792
9368,33792
9369,33728
9370,33664
9371,33728
9372,33792
9373,33856
9374,33792
9375,33664
9376,33600
9377,33664
9378,33664
9379,33664
9380,33664
9381,33728
9382,33792
9383,33920
9384,34048
9385,34240
9386,34368
9387,34496
9388,34560
9389,34688
9390,34688
9391,34624
9392,34624
9393,34560
9394,34432
9395,34176
9396,33984
9397,33792
9398,33728
9399,33664
9400,33472
9401,33344
9402,33280
9403,33280
9404,33344
9405,33344
9406,33344
9407,33344
9408,33344
9409,33408
9410,33408
9411,33408
9412,33472
9413,33472
9414,33472
9415,33472
9416,33728
9417,34496
9418,35840
9419,37696
9420,40320
9421,43264
9422,45504
9423,45696
9424,43840
9425,40960
9426,37888
9427,35072
9428,32768
9429,31360
9430,30848
9431,30848
9432,31040
9433,31168
9434,31360
9435,31552
9436,31808
9437,32000
9438,32128
9439,32256
9440,32448
9441,32704
9442,32896
9443,33152
9444,33344
9445,33408
9446,33408
9447,33472
9448,33536
9449,33600
9450,33664
9451,33664
9452,33728
9453,33792
9454,33856
9455,34048
9456,34176
9457,34304
9458,34368
9459,34560
9460,34688
9461,34816
9462,34944
9463,35072
9464,35264
9465,35456
9466,35520
9467,35520
9468,35648
9469,35712
9470,35776
9471,35840
9472,35840
9473,35904
9474,35968
9475,36032
9476,36096
9477,36160
9478,36160
9479,36160
9480,36160
9481,36096
9482,35968
9483,35712
9484,35456
9485,35200
9486,34880
9487,34304
9488,33664
9489,33088
9490,32768
9491,32320
9492,32000
9493,31744
9494,31616
9495,31552
9496,31552
9497,31552
9498,31680
9499,31808
9500,31936
9501,32064
9502,32256
9503,32448
9504,32640
9505,32768
9506,32896
9507,33024
9508,33024
9509,33088
9510,33088
9511,33088
9512,33088
9513,33088
9514,33152
9515,33280
9516,33408
9517,33472
9518,33536
9519,33600
9520,33664
9521,33728
9522,33792
9523,33792
9524,33856
9525,33984
9526,33984
9527,33984
9528,33984
9529,33920
9530,33856
9531,33792
9532,33728
9533,33600
9534,33536
9535,33472
9536,33472
9537,33536
9538,33600
9539,33664
9540,33728
9541,33792
9542,33984
9543,34176
9544,34432
9545,34560
9546,34688
9547,34816
9548,34880
9549,34944
9550,34880
9551,34816
9552,34560
9553,34240
9554,33984
9555,33792
9556,33664
9557,33536
9558,33344
9559,33152
9560,33088
9561,33024
9562,33024
9563,33088
9564,33216
9565,33408
9566,33536
9567,33664
9568,33664
9569,33664
9570,33664
9571,33600
9572,33536
9573,33408
9574,33472
9575,33984
9576,35136
9577,36800
9578,39296
9579,42304
9580,44992
9581,46080
9582,44928
9583,42304
9584,39168
9585,36096
9586,33408
9587,31680
9588,30976
9589,30912
9590,31104
9591,31296
9592,31488
9593,31680
9594,31872
9595,31936
9596,32064
9597,32192
9598,32320
9599,32448
9600,32704
9601,32896
9602,33024
9603,33088
9604,33216
9605,33408
9606,33600
9607,33728
9608,33792
9609,33856
9610,33920
9611,33984
9612,33984
9613,34048
9614,34112
9615,34240
9616,34304
9617,34368
9618,34496
9619,34688
9620,34816
9621,34944
9622,35008
9623,35136
9624,35264
9625,35392
9626,35520
9627,35648
9628,35776
9629,35904
9630,35968
9631,36032
9632,36096
9633,36160
9634,36160
9635,36224
9636,36288
9637,36288
9638,36224
9639,36096
9640,35904
9641,35648
9642,35328
9643,34944
9644,34496
9645,34048
9646,33600
9647,33216
9648,32768
9649,32448
9650,32192
9651,32000
9652,31872
9653,31808
9654,31744
9655,31744
9656,31808
9657,31872
9658,32000
9659,32064
9660,32128
9661,32256
9662,32320
9663,32448
9664,32576
9665,32704
9666,32832
9667,32960
9668,33088
9669,33152
9670,33280
9671,33408
9672,33472
9673,33536
9674,33600
9675,33664
9676,33664
9677,33664
9678,33664
9679,33728
9680,33728
9681,33728
9682,33792
9683,33728
9684,33664
9685,33664
9686,33600
9687,33600
9688,33600
9689,33664
9690,33728
9691,33728
9692,33728
9693,33728
9694,33792
9695,33792
9696,33792
9697,33792
9698,33920
9699,34112
9700,34240
9701,34368
9702,34496
9703,34560
9704,34560
9705,34624
9706,34752
9707,34752
9708,34688
9709,34496
9710,34240
9711,34048
9712,33792
9713,33536
9714,33280
9715,33216
9716,33152
9717,33152
9718,33088
9719,33088
9720,33216
9721,33280
9722,33408
9723,33536
9724,33600
9725,33600
9726,33600
9727,33664
9728,33600
9729,33408
9730,33280
9731,33600
9732,34432
9733,35840
9734,37760
9735,40448
9736,43456
9737,45696
9738,45888
9739,43968
9740,41024
9741,37824
9742,34944
9743,32768
9744,31232
9745,30912
9746,30912
9747,31104
9748,31232
9749,31360
9750,31488
9751,31680
9752,31872
9753,32000
9754,32192
9755,32448
9756,32640
9757,32768
9758,32896
9759,33088
9760,33216
9761,33344
9762,33472
9763,33600
9764,33728
9765,33856
9766,33984
9767,34048
9768,34176
9769,34240
9770,34240
9771,34304
9772,34368
9773,34560
9774,34688
9775,34752
9776,34816
9777,34880
9778,34944
9779,35008
9780,35136
9781,35264
9782,35456
9783,35584
9784,35712
9785,35776
9786,35840
9787,35904
9788,35968
9789,36096
9790,36160
9791,36224
9792,36160
9793,36096
9794,35904
9795,35840
9796,35712
9797,35584
9798,35392
9799,35008
9800,34624
9801,34176
9802,33792
9803,33472
9804,33024
9805,32768
9806,32448
9807,32256
9808,32064
9809,31936
9810,31808
9811,31744
9812,31680
9813,31680
9814,31808
9815,31936
9816,32064
9817,32256
9818,32384
9819,32512
9820,32640
9821,32704
9822,32896
9823,32960
9824,33152
9825,33280
9826,33344
9827,33408
9828,33472
9829,33536
9830,33536
9831,33536
9832,33600
9833,33664
9834,33728
9835,33728
9836,33728
9837,33792
9838,33856
9839,33856
9840,33856
9841,33920
9842,33920
9843,33920
9844,33920
9845,33856
9846,33920
9847,33984
9848,33920
9849,33856
9850,33856
9851,33856
9852,33920
9853,33984
9854,34112
9855,34304
9856,34432
9857,34496
9858,34560
9859,34624
9860,34688
9861,34816
9862,34752
9863,34624
9864,34368
9865,34112
9866,33920
9867,33728
9868,33600
9869,33408
9870,33280
9871,33216
9872,33152
9873,33152
9874,33216
9875,33280
9876,33344
9877,33408
9878,33472
9879,33536
9880,33600
9881,33600
9882,33664
9883,33600
9884,33536
9885,33600
9886,34048
9887,35072
9888,36608
9889,38784
9890,41600
9891,44352
9892,45824
9893,45056
9894,42624
9895,39552
9896,36480
9897,33856
9898,31936
9899,30976
9900,30784
9901,30976
9902,31168
9903,31360
9904,31552
9905,31744
9906,31936
9907,32064
9908,32192
9909,32384
9910,32512
9911,32704
9912,32768
9913,32896
9914,33024
9915,33088
9916,33152
9917,33408
9918,33536
9919,33664
9920,33792
9921,33920
9922,34048
9923,34112
9924,34112
9925,34368
9926,34496
9927,34560
9928,34688
9929,34816
9930,34944
9931,35072
9932,35136
9933,35200
9934,35264
9935,35392
9936,35520
9937,35648
9938,35712
9939,35776
9940,35840
9941,35904
9942,35904
9943,35968
9944,36032
9945,36096
9946,36096
9947,36032
9948,36032
9949,35904
9950,35776
9951,35584
9952,35392
9953,34944
9954,34880
9955,34624
9956,33664
9957,33216
9958,32768
9959,32384
9960,32128
9961,31872
9962,31744
9963,31616
9964,31552
9965,31616
9966,31744
9967,31872
9968,32000
9969,32000
9970,32064
9971,32448
9972,32576
9973,32704
9974,32768
9975,32896
9976,32960
9977,33024
9978,33152
9979,33216
9980,33280
9981,33344
9982,33344
9983,33408
9984,33408
9985,33472
9986,33664
9987,33728
9988,33728
9989,33728
9990,33792
9991,33792
9992,33792
9993,33856
9994,33856
9995,33792
9996,33792
9997,33792
9998,33856
9999,33856
10000,33920
10001,33856
10002,33792
10003,33728
10004,33664
10005,33664
10006,33664
10007,33664
10008,33664
10009,33664
10010,33728
10011,33856
10012,34048
10013,34368
10014,34368
10015,34624
10016,34624
10017,34688
10018,34816
10019,34880
10020,34880
10021,34624
10022,34368
10023,34112
10024,33920
10025,33728
10026,33536
10027,33408
10028,33280
10029,33216
10030,33088
10031,33024
10032,33088
10033,33152
10034,33280
10035,33408
10036,33472
10037,33472
10038,33536
10039,33600
10040,33600
10041,33536
10042,33472
10043,33664
10044,34304
10045,35392
10046,37120
10047,39872
10048,42624
10049,45184
10050,45952
10051,44480
10052,41664
10053,38528
10054,35520
10055,33024
10056,31488
10057,30912
10058,30976
10059,30912
10060,31296
10061,31424
10062,31616
10063,31744
10064,32000
10065,32128
10066,32320
10067,32448
10068,32576
10069,32640
10070,32768
10071,32960
10072,33088
10073,33280
10074,33280
10075,33472
10076,33536
10077,33664
10078,33728
10079,33920
10080,34048
10081,34112
10082,34176
10083,34304
10084,34368
10085,34432
10086,34560
10087,34688
10088,34880
10089,34880
10090,35008
10091,35072
10092,35200
10093,35264
10094,35392
10095,35456
10096,35584
10097,35712
10098,35840
10099,35904
10100,35968
10101,35968
10102,36032
10103,36160
10104,36224
10105,36224
10106,36160
10107,36032
10108,35840
10109,35648
10110,35456
10111,35200
10112,34816
10113,34432
10114,33984
10115,33536
10116,33088
10117,32704
10118,32256
10119,32192
10120,31936
10121,31808
10122,31808
10123,31744
10124,31744
10125,31744
10126,31808
10127,31936
10128,32000
10129,32128
10130,32320
10131,32448
10132,32576
10133,32768
10134,32704
10135,32896
10136,33024
10137,33152
10138,33280
10139,33408
10140,33472
10141,33472
10142,33472
10143,33472
10144,33536
10145,33600
10146,33600
10147,33600
10148,33600
10149,33600
10150,33600
10151,33664
10152,33664
10153,33664
10154,33664
10155,33664
10156,33728
10157,33792
10158,33792
10159,33792
10160,33728
10161,33664
10162,33664
10163,33664
10164,33600
10165,33728
10166,33728
10167,33792
10168,33728
10169,33792
10170,33792
10171,33856
10172,33984
10173,34112
10174,34304
10175,34432
10176,34496
10177,34560
10178,34688
10179,34624
10180,34752
10181,34688
10182,34496
10183,34240
10184,34048
10185,33856
10186,33728
10187,33664
10188,33536
10189,33408
10190,33280
10191,33216
10192,33152
10193,33280
10194,33216
10195,33408
10196,33472
10197,33536
10198,33600
10199,33536
10200,33536
10201,33536
10202,33408
10203,33408
10204,33664
10205,34432
10206,35712
10207,37568
10208,40448
10209,43200
10210,45504
10211,45888
10212,44096
10213,41216
10214,38016
10215,35008
10216,32576
10217,31360
10218,30848
10219,30976
10220,31232
10221,31424
10222,31616
10223,31872
10224,31872
10225,32064
10226,32192
10227,32320
10228,32448
10229,32640
10230,32832
10231,32960
10232,33152
10233,33216
10234,33344
10235,33472
10236,33600
10237,33664
10238,33792
10239,33728
10240,33920
10241,34048
10242,34240
10243,34368
10244,34432
10245,34496
10246,34624
10247,34752
10248,34880
10249,34880
10250,34944
10251,35008
10252,35136
10253,35264
10254,35392
10255,35520
10256,35648
10257,35776
10258,35840
10259,36032
10260,36096
10261,36096
10262,36096
10263,36096
10264,36160
10265,36160
10266,36224
10267,36160
10268,36032
10269,35840
10270,35648
10271,35456
10272,35136
10273,34752
10274,34304
10275,33856
10276,33408
10277,32960
10278,32640
10279,32320
10280,32064
10281,31936
10282,31808
10283,31744
10284,31680
10285,31680
10286,31744
10287,31872
10288,32000
10289,32064
10290,32192
10291,32320
10292,32512
10293,32640
10294,32704
10295,32832
10296,32896
10297,33024
10298,33152
10299,33280
10300,33344
10301,33408
10302,33472
10303,33536
10304,33600
10305,33664
10306,33728
10307,33728
10308,33728
10309,33728
10310,33728
10311,33728
10312,33792
10313,33792
10314,33792
10315,33792
10316,33792
10317,33792
10318,33792
10319,33728
10320,33728
10321,33728
10322,33792
10323,33792
10324,33792
10325,33792
10326,33728
10327,33728
10328,33728
10329,33792
10330,33792
10331,33856
10332,33856
10333,33856
10334,33856
10335,33856
10336,33984
10337,34112
10338,34240
10339,34368
10340,34496
10341,34560
10342,34624
10343,34688
10344,34752
10345,34752
10346,34752
10347,34560
10348,34432
10349,34176
10350,34048
10351,33856
10352,33792
10353,33664
10354,33536
10355,33408
10356,33344
10357,33280
10358,33280
10359,33344
10360,33408
10361,33472
10362,33472
10363,33536
10364,33600
10365,33664
10366,33664
10367,33536
10368,33472
10369,33664
10370,34368
10371,35584
10372,37440
10373,40000
10374,43008
10375,45376
10376,45888
10377,44224
10378,41408
10379,38272
10380,35264
10381,32896
10382,31424
10383,30912
10384,30976
10385,31168
10386,31360
10387,31552
10388,31680
10389,31872
10390,32000
10391,32128
10392,32256
10393,32384
10394,32512
10395,32704
10396,32832
10397,32960
10398,33152
10399,33280
10400,33408
10401,33472
10402,33600
10403,33664
10404,33792
10405,33920
10406,33984
10407,34048
10408,34176
10409,34304
10410,34432
10411,34496
10412,34496
10413,34624
10414,34752
10415,34880
10416,34944
10417,35136
10418,35264
10419,35328
10420,35456
10421,35520
10422,35712
10423,35776
10424,35904
10425,35968
10426,36096
10427,36160
10428,36160
10429,36224
10430,36224
10431,36160
10432,36096
10433,36096
10434,35968
10435,35776
10436,35520
10437,35200
10438,34816
10439,34368
10440,33920
10441,33472
10442,33024
10443,32640
10444,32320
10445,32000
10446,31808
10447,31680
10448,31616
10449,31616
10450,31680
10451,31744
10452,31872
10453,31936
10454,32064
10455,32128
10456,32256
10457,32448
10458,32576
10459,32704
10460,32768
10461,32896
10462,33024
10463,33088
10464,33152
10465,33152
10466,33216
10467,33280
10468,33344
10469,33408
10470,33408
10471,33472
10472,33536
10473,33600
10474,33664
10475,33728
10476,33792
10477,33792
10478,33792
10479,33792
10480,33856
10481,33856
10482,33792
10483,33792
10484,33792
10485,33792
10486,33792
10487,33792
10488,33792
10489,33792
10490,33728
10491,33728
10492,33728
10493,33728
10494,33728
10495,33792
10496,33856
10497,33856
10498,33856
10499,33792
10500,33792
10501,33792
10502,33856
10503,33920
10504,33920
10505,33920
10506,33920
10507,33984
10508,33984
10509,34112
10510,34304
10511,34496
10512,34560
10513,34624
10514,34688
10515,34752
10516,34816
10517,34816
10518,34688
10519,34496
10520,34240
10521,33984
10522,33792
10523,33664
10524,33536
10525,33472
10526,33408
10527,33344
10528,33280
10529,33344
10530,33344
10531,33344
10532,33344
10533,33408
10534,33472
10535,33536
10536,33600
10537,33600
10538,33536
10539,33408
10540,33472
10541,33920
10542,34880
10543,36352
10544,38592
10545,41408
10546,44288
10547,45824
10548,45120
10549,42752
10550,39616
10551,36608
10552,33920
10553,32128
10554,31232
10555,31104
10556,31232
10557,31424
10558,31552
10559,31680
10560,31744
10561,31872
10562,32064
10563,32256
10564,32448
10565,32576
10566,32640
10567,32832
10568,32960
10569,33088
10570,33216
10571,33344
10572,33472
10573,33600
10574,33728
10575,33856
10576,33920
10577,33984
10578,34048
10579,34112
10580,34240
10581,34304
10582,34432
10583,34496
10584,34624
10585,34688
10586,34816
10587,34880
10588,35008
10589,35200
10590,35328
10591,35456
10592,35584
10593,35712
10594,35776
10595,35840
10596,35968
10597,35968
10598,36032
10599,36096
10600,36160
10601,36160
10602,36160
10603,36096
10604,36032
10605,35968
10606,35840
10607,35648
10608,35392
10609,35008
10610,34624
10611,34176
10612,33728
10613,33216
10614,32832
10615,32512
10616,32192
10617,31936
10618,31808
10619,31680
10620,31616
10621,31616
10622,31616
10623,31680
10624,31744
10625,31872
10626,32000
10627,32128
10628,32256
10629,32384
10630,32512
10631,32704
10632,32832
10633,32896
10634,32960
10635,32960
10636,33024
10637,33088
10638,33216
10639,33280
10640,33408
10641,33472
10642,33536
10643,33600
10644,33600
10645,33600
10646,33664
10647,33728
10648,33792
10649,33792
10650,33792
10651,33792
10652,33792
10653,33792
10654,33856
10655,33856
10656,33792
10657,33856
10658,33856
10659,33792
10660,33792
10661,33792
10662,33792
10663,33792
10664,33856
10665,33856
10666,33792
10667,33792
10668,33792
10669,33856
10670,33856
10671,33856
10672,33856
10673,33856
10674,33792
10675,33792
10676,33792
10677,33792
10678,33792
10679,33856
10680,33856
10681,33856
10682,33856
10683,33856
10684,33920
10685,33984
10686,34048
10687,34112
10688,34176
10689,34368
10690,34496
10691,34560
10692,34624
10693,34624
10694,34752
10695,34880
10696,34880
10697,34688
10698,34432
10699,34240
10700,34048
10701,33920
10702,33856
10703,33728
10704,33600
10705,33536
10706,33472
10707,33408
10708,33344
10709,33344
10710,33344
10711,33408
10712,33472
10713,33536
10714,33600
10715,33664
10716,33664
10717,33600
10718,33472
10719,33600
10720,34048
10721,35008
10722,36672
10723,38720
10724,41536
10725,44288
10726,45824
10727,44992
10728,42496
10729,39424
10730,36416
10731,33792
10732,32000
10733,31104
10734,30912
10735,31040
10736,31296
10737,31488
10738,31616
10739,31744
10740,31936
10741,32064
10742,32256
10743,32448
10744,32576
10745,32640
10746,32768
10747,32896
10748,33024
10749,33152
10750,33280
10751,33344
10752,33472
10753,33600
10754,33728
10755,33856
10756,33984
10757,34048
10758,34176
10759,34240
10760,34368
10761,34432
10762,34496
10763,34560
10764,34688
10765,34752
10766,34880
10767,35008
10768,35136
10769,35264
10770,35392
10771,35520
10772,35648
10773,35776
10774,35840
10775,35968
10776,36096
10777,36160
10778,36224
10779,36224
10780,36288
10781,36288
10782,36288
10783,36160
10784,36096
10785,35904
10786,35712
10787,35392
10788,35136
10789,34816
10790,34368
10791,33856
10792,33344
10793,32896
10794,32512
10795,32256
10796,32000
10797,31808
10798,31616
10799,31552
10800,31552
10801,31616
10802,31616
10803,31680
10804,31808
10805,31936
10806,32000
10807,32128
10808,32256
10809,32384
10810,32512
10811,32704
10812,32832
10813,32960
10814,33088
10815,33152
10816,33280
10817,33344
10818,33472
10819,33536
10820,33600
10821,33600
10822,33664
10823,33728
10824,33792
10825,33792
10826,33728
10827,33664
10828,33728
10829,33792
10830,33792
10831,33792
10832,33728
10833,33728
10834,33728
10835,33728
10836,33728
10837,33792
10838,33792
10839,33792
10840,33792
10841,33728
10842,33728
10843,33728
10844,33728
10845,33728
10846,33664
10847,33728
10848,33792
10849,33856
10850,33856
10851,33856
10852,33856
10853,33856
10854,33920
10855,33856
10856,33856
10857,33856
10858,33792
10859,33792
10860,33792
10861,33792
10862,33792
10863,33792
10864,33792
10865,33856
10866,33856
10867,33920
10868,33920
10869,33984
10870,34048
10871,34176
10872,34368
10873,34560
10874,34688
10875,34752
10876,34688
10877,34752
10878,34752
10879,34752
10880,34688
10881,34496
10882,34240
10883,34048
10884,33920
10885,33792
10886,33664
10887,33600
10888,33472
10889,33344
10890,33280
10891,33280
10892,33344
10893,33408
10894,33472
10895,33536
10896,33536
10897,33536
10898,33600
10899,33600
10900,33536
10901,33472
10902,33472
10903,33728
10904,34432
10905,35712
10906,37632
10907,40320
10908,43264
10909,45440
10910,45568
10911,43648
10912,40768
10913,37696
10914,34752
10915,32640
10916,31360
10917,30912
10918,30976
10919,31168
10920,31360
10921,31488
10922,31680
10923,31808
10924,31936
