,ECG
0,31040
1,31040
2,31360
3,31744
4,32256
5,32640
6,32960
7,33408
8,33792
9,33920
10,33856
11,33856
12,33920
13,33920
14,33856
15,33856
16,33984
17,34176
18,34240
19,34240
20,34176
21,34176
22,34112
23,34112
24,34112
25,34112
26,33984
27,33856
28,33920
29,34240
30,34624
31,34880
32,34816
33,34560
34,34176
35,33920
36,33856
37,33920
38,33984
39,34048
40,34176
41,34304
42,34368
43,34432
44,34560
45,34752
46,34880
47,34880
48,34880
49,34944
50,34944
51,34880
52,34816
53,34816
54,34816
55,34816
56,34752
57,34816
58,34880
59,34880
60,34880
61,35008
62,35136
63,35136
64,35008
65,34816
66,34624
67,34432
68,34368
69,34176
70,34112
71,33984
72,33792
73,33600
74,33664
75,33728
76,33664
77,33728
78,33856
79,33920
80,33920
81,33856
82,33920
83,34048
84,34048
85,34048
86,34048
87,34112
88,34048
89,33984
90,33984
91,34048
92,34048
93,34112
94,34048
95,34368
96,34432
97,34304
98,34176
99,34112
100,34048
101,34048
102,34048
103,34176
104,34240
105,34176
106,34048
107,33984
108,34048
109,34112
110,34112
111,34176
112,34240
113,34240
114,34112
115,34112
116,34176
117,34304
118,34176
119,34048
120,33984
121,33984
122,33920
123,33920
124,33984
125,34048
126,34048
127,34112
128,34176
129,34304
130,34304
131,34176
132,34176
133,34176
134,34112
135,34048
136,34048
137,34048
138,34048
139,34048
140,34112
141,34368
142,34496
143,34560
144,34496
145,34368
146,34240
147,34112
148,34176
149,34368
150,34624
151,34688
152,34752
153,34944
154,35136
155,35328
156,35392
157,35456
158,35456
159,35264
160,34944
161,34624
162,34304
163,33984
164,33600
165,33472
166,33472
167,33472
168,33536
169,33600
170,33728
171,33728
172,33664
173,33600
174,33728
175,33856
176,33984
177,34112
178,34176
179,34176
180,34048
181,33856
182,33664
183,33600
184,33472
185,33792
186,34816
187,36480
188,38528
189,40512
190,41856
191,42240
192,41088
193,38336
194,35136
195,32768
196,31424
197,30976
198,31104
199,31488
200,31872
201,32192
202,32512
203,32896
204,33280
205,33472
206,33664
207,33920
208,34112
209,34176
210,34176
211,34240
212,34176
213,34048
214,33984
215,33920
216,33984
217,34048
218,34048
219,34048
220,34176
221,34240
222,34176
223,34112
224,34176
225,34240
226,34112
227,34048
228,34048
229,34112
230,34048
231,34048
232,34048
233,34176
234,34240
235,34304
236,34496
237,34624
238,34560
239,34496
240,34432
241,34368
242,34368
243,34432
244,34560
245,34752
246,34816
247,34880
248,34880
249,34880
250,34944
251,34880
252,34880
253,34816
254,34816
255,34752
256,34752
257,34880
258,34944
259,34944
260,34944
261,34944
262,34944
263,34944
264,34688
265,34496
266,34240
267,34048
268,33856
269,33728
270,33728
271,33664
272,33600
273,33536
274,33600
275,33600
276,33600
277,33664
278,33728
279,33856
280,33856
281,33792
282,33856
283,33920
284,33984
285,33984
286,34048
287,34176
288,34240
289,34240
290,34240
291,34176
292,34112
293,34048
294,33984
295,34048
296,34048
297,34112
298,34176
299,34304
300,34304
301,34240
302,34176
303,34176
304,34176
305,34176
306,34176
307,34176
308,34240
309,34112
310,33984
311,33984
312,33984
313,33920
314,33920
315,33856
316,33984
317,34112
318,34112
319,34112
320,34112
321,34112
322,34176
323,34240
324,34368
325,34368
326,34240
327,34112
328,34112
329,34112
330,34112
331,34112
332,34112
333,34240
334,34240
335,34304
336,34304
337,34240
338,34176
339,34048
340,33984
341,33984
342,34048
343,34048
344,34112
345,34112
346,34112
347,33984
348,33984
349,34112
350,34240
351,34368
352,34432
353,34432
354,34496
355,34368
356,34304
357,34432
358,34624
359,34688
360,34688
361,34816
362,35072
363,35328
364,35456
365,35584
366,35520
367,35264
368,35008
369,34688
370,34496
371,34240
372,33984
373,33728
374,33664
375,33664
376,33600
377,33536
378,33600
379,33728
380,33856
381,33920
382,33984
383,34048
384,34112
385,34112
386,34048
387,33984
388,33984
389,33920
390,33920
391,33984
392,33856
393,33792
394,34048
395,35008
396,36608
397,38592
398,40576
399,41920
400,42176
401,40896
402,38080
403,35008
404,32704
405,31424
406,30976
407,31104
408,31552
409,31936
410,32320
411,32704
412,33024
413,33280
414,33472
415,33728
416,33856
417,33984
418,33920
419,33984
420,34112
421,34112
422,34048
423,33984
424,34048
425,34112
426,34112
427,34176
428,34304
429,34304
430,34240
431,34176
432,34240
433,34240
434,34176
435,34112
436,34112
437,34112
438,34112
439,34048
440,34112
441,34240
442,34304
443,34240
444,34240
445,34304
446,34304
447,34240
448,34304
449,34432
450,34560
451,34560
452,34560
453,34688
454,34816
455,34816
456,34944
457,35072
458,35136
459,35072
460,34944
461,34880
462,34880
463,34816
464,34752
465,34880
466,34880
467,34880
468,34880
469,34880
470,34880
471,34880
472,34752
473,34624
474,34560
475,34432
476,34240
477,34048
478,33984
479,33856
480,33664
481,33536
482,33600
483,33728
484,33792
485,33728
486,33728
487,33792
488,33920
489,33984
490,34048
491,34048
492,33984
493,33920
494,33856
495,33984
496,34112
497,34112
498,34048
499,34112
500,34176
501,34048
502,33856
503,33856
504,33984
505,34112
506,34240
507,34304
508,34432
509,34368
510,34240
511,34176
512,34112
513,34112
514,34112
515,34176
516,34176
517,34176
518,34176
519,34176
520,34176
521,34112
522,33984
523,33920
524,34048
525,34112
526,34112
527,34112
528,34240
529,34304
530,34112
531,34048
532,34048
533,34112
534,34176
535,34048
536,34048
537,34176
538,34368
539,34368
540,34240
541,34176
542,34176
543,34240
544,34240
545,34176
546,34112
547,33920
548,33856
549,33856
550,33984
551,33984
552,34112
553,34240
554,34368
555,34368
556,34368
557,34304
558,34304
559,34240
560,34240
561,34304
562,34304
563,34304
564,34176
565,34176
566,34304
567,34304
568,34240
569,34240
570,34368
571,34496
572,34496
573,34560
574,34624
575,34624
576,34560
577,34624
578,34752
579,35008
580,35200
581,35264
582,35392
583,35520
584,35456
585,35264
586,35072
587,34880
588,34560
589,34240
590,34048
591,33920
592,33728
593,33600
594,33408
595,33408
596,33536
597,33664
598,33728
599,33728
600,33856
601,33984
602,34048
603,34048
604,33984
605,33920
606,33984
607,34048
608,34048
609,33856
610,33728
611,34048
612,35072
613,36544
614,38528
615,40704
616,42368
617,42944
618,41728
619,38848
620,35392
621,32512
622,30848
623,30400
624,30656
625,31232
626,31808
627,32320
628,32832
629,33600
630,34112
631,34176
632,33856
633,33600
634,33536
635,33600
636,33600
637,33664
638,33728
639,33984
640,34304
641,34496
642,34304
643,33856
644,33664
645,33792
646,34304
647,34560
648,34432
649,34304
650,34176
651,34048
652,33920
653,33984
654,34560
655,34880
656,34432
657,33728
658,33344
659,33280
660,33408
661,33728
662,34240
663,34432
664,34432
665,34368
666,34432
667,34560
668,34432
669,34368
670,34560
671,34816
672,35072
673,35136
674,34944
675,34624
676,34432
677,34368
678,34240
679,34304
680,34432
681,34560
682,34496
683,34496
684,34624
685,34880
686,35008
687,35072
688,35072
689,35072
690,35008
691,34688
692,34560
693,34368
694,34176
695,33920
696,33600
697,33536
698,33728
699,33984
700,33920
701,33472
702,33216
703,33152
704,33280
705,33600
706,33984
707,34176
708,34048
709,33856
710,33728
711,33856
712,34176
713,34560
714,34624
715,34432
716,34048
717,33920
718,33920
719,34048
720,34112
721,33984
722,33792
723,33792
724,33984
725,34048
726,34112
727,34240
728,34304
729,34304
730,34560
731,34496
732,34240
733,34048
734,34112
735,34048
736,34112
737,34304
738,34176
739,33856
740,33792
741,33856
742,33856
743,33856
744,33984
745,34240
746,34496
747,34432
748,34176
749,33984
750,33920
751,33728
752,33728
753,33920
754,34240
755,34304
756,33984
757,33664
758,33600
759,33792
760,34112
761,34176
762,34176
763,34240
764,34240
765,34112
766,34112
767,34240
768,34496
769,34688
770,34560
771,34240
772,34048
773,33984
774,34176
775,34304
776,34304
777,34368
778,34432
779,34368
780,34240
781,34176
782,34240
783,34176
784,34112
785,34048
786,33984
787,34112
788,34432
789,34816
790,35008
791,35136
792,35136
793,35136
794,35328
795,35520
796,35520
797,35200
798,35008
799,34944
800,34944
801,35008
802,34816
803,34560
804,34240
805,33792
806,33280
807,33024
808,33280
809,33536
810,33728
811,33792
812,33664
813,33536
814,33536
815,33728
816,34048
817,34432
818,34560
819,34432
820,34368
821,34304
822,34048
823,33536
824,33408
825,33920
826,35072
827,36736
828,38976
829,40640
830,41728
831,41664
832,39104
833,37184
834,34560
835,32704
836,31872
837,31808
838,31872
839,31936
840,31872
841,31936
842,32320
843,32704
844,32960
845,33344
846,33664
847,34112
848,34240
849,34368
850,34496
851,34560
852,34752
853,34880
854,34560
855,34304
856,34432
857,34944
858,35328
859,35072
860,34304
861,33728
862,33344
863,33088
864,32832
865,32768
866,33024
867,33408
868,33792
869,34048
870,34304
871,34496
872,34880
873,35136
874,35264
875,35264
876,35072
877,34816
878,34496
879,34112
880,33856
881,33728
882,33792
883,34112
884,34368
885,34432
886,34560
887,34624
888,34496
889,34368
890,34432
891,34688
892,35200
893,35328
894,35456
895,35328
896,35072
897,34944
898,34880
899,34752
900,34560
901,34624
902,35392
903,36096
904,35648
905,34624
906,34112
907,34048
908,33920
909,33728
910,33728
911,33728
912,33664
913,33536
914,33536
915,33600
916,33664
917,33792
918,34112
919,34240
920,33984
921,33728
922,33792
923,34240
924,34560
925,34496
926,34240
927,33984
928,33600
929,33664
930,33920
931,34432
932,35264
933,35776
934,35456
935,34688
936,33920
937,33152
938,32896
939,32960
940,33152
941,33408
942,33856
943,34496
944,34880
945,34624
946,34432
947,34624
948,34880
949,34816
950,34496
951,34304
952,34432
953,34368
954,34304
955,34176
956,34240
957,34496
958,34496
959,34240
960,33920
961,33728
962,33728
963,33664
964,33600
965,33664
966,34048
967,34880
968,35136
969,35520
970,35456
971,35200
972,35008
973,34688
974,34240
975,33856
976,33728
977,33792
978,33728
979,33600
980,33664
981,34112
982,34560
983,34752
984,34816
985,34560
986,34112
987,33728
988,33792
989,34176
990,34688
991,34944
992,35264
993,35328
994,34944
995,34432
996,33856
997,33664
998,33856
999,33792
1000,33792
1001,34368
1002,35136
1003,35648
1004,35648
1005,35200
1006,34560
1007,34368
1008,34496
1009,34752
1010,35008
1011,35200
1012,35456
1013,35904
1014,36032
1015,35456
1016,34624
1017,34176
1018,34112
1019,34176
1020,34240
1021,34240
1022,34688
1023,35008
1024,34432
1025,33728
1026,33280
1027,32960
1028,33024
1029,33152
1030,33216
1031,33408
1032,33664
1033,33920
1034,34048
1035,34048
1036,34048
1037,34368
1038,34752
1039,34496
1040,33984
1041,34304
1042,35840
1043,36992
1044,39168
1045,41152
1046,42240
1047,42112
1048,40192
1049,36928
1050,33856
1051,31808
1052,30720
1053,30592
1054,30848
1055,31168
1056,31424
1057,32576
1058,33088
1059,33600
1060,33600
1061,33472
1062,33472
1063,33600
1064,33792
1065,33664
1066,33664
1067,33856
1068,34112
1069,34304
1070,34240
1071,34112
1072,33984
1073,33856
1074,33664
1075,33728
1076,33984
1077,34112
1078,33984
1079,33664
1080,33408
1081,33536
1082,33792
1083,33920
1084,33920
1085,34112
1086,34304
1087,34304
1088,34304
1089,34304
1090,34304
1091,33984
1092,33664
1093,33664
1094,33920
1095,34048
1096,34048
1097,33856
1098,33920
1099,34112
1100,34624
1101,34880
1102,34816
1103,34816
1104,35072
1105,35136
1106,35008
1107,34816
1108,34496
1109,34304
1110,34304
1111,34432
1112,34880
1113,35264
1114,35392
1115,35200
1116,34752
1117,34496
1118,34560
1119,34816
1120,35008
1121,34816
1122,34624
1123,34368
1124,34176
1125,34176
1126,34240
1127,34304
1128,34176
1129,34048
1130,34240
1131,34496
1132,34432
1133,34240
1134,34048
1135,33920
1136,33920
1137,33792
1138,33664
1139,33728
1140,33920
1141,34240
1142,34496
1143,34496
1144,34304
1145,34240
1146,34560
1147,34880
1148,34880
1149,34816
1150,34624
1151,34112
1152,33728
1153,33536
1154,33664
1155,33920
1156,34368
1157,34816
1158,34944
1159,34624
1160,34112
1161,33856
1162,34176
1163,34112
1164,34048
1165,34048
1166,34240
1167,34560
1168,35072
1169,35328
1170,35200
1171,35008
1172,34496
1173,34112
1174,34112
1175,34112
1176,33984
1177,33856
1178,33728
1179,33536
1180,33280
1181,33216
1182,33408
1183,33664
1184,33984
1185,34432
1186,34688
1187,34624
1188,34624
1189,34816
1190,34752
1191,34560
1192,35136
1193,35200
1194,34752
1195,34112
1196,33856
1197,33728
1198,33664
1199,33664
1200,33728
1201,33664
1202,33856
1203,34176
1204,34432
1205,34304
1206,34048
1207,34048
1208,34176
1209,34688
1210,35200
1211,35456
1212,35264
1213,34688
1214,34048
1215,33728
1216,33792
1217,34048
1218,34240
1219,34432
1220,34688
1221,35008
1222,35072
1223,34880
1224,34880
1225,35072
1226,35328
1227,35328
1228,34944
1229,34624
1230,34496
1231,34432
1232,34432
1233,34560
1234,34880
1235,34944
1236,34432
1237,33728
1238,33472
1239,33792
1240,34240
1241,34304
1242,34112
1243,33984
1244,33792
1245,33536
1246,33536
1247,33856
1248,34432
1249,34624
1250,34304
1251,33856
1252,33728
1253,33856
1254,33920
1255,34112
1256,34560
1257,35392
1258,36800
1259,38720
1260,40576
1261,41984
1262,42176
1263,40512
1264,37632
1265,34560
1266,32448
1267,31744
1268,31744
1269,31552
1270,31168
1271,31104
1272,31360
1273,31808
1274,32384
1275,33216
1276,33856
1277,34048
1278,33920
1279,33728
1280,33728
1281,33856
1282,33920
1283,34112
1284,34560
1285,34816
1286,34560
1287,34176
1288,33984
1289,33920
1290,34048
1291,34304
1292,34304
1293,34048
1294,33856
1295,33984
1296,34112
1297,33984
1298,34176
1299,34688
1300,34816
1301,34368
1302,34048
1303,34176
1304,34304
1305,34240
1306,34304
1307,34368
1308,34368
1309,34624
1310,35008
1311,35072
1312,34880
1313,34688
1314,34624
1315,34240
1316,34112
1317,34688
1318,35712
1319,36288
1320,35776
1321,34688
1322,34176
1323,34304
1324,34176
1325,34048
1326,34368
1327,34752
1328,34752
1329,34752
1330,34944
1331,35200
1332,35200
1333,34688
1334,34112
1335,34368
1336,35392
1337,35776
1338,34816
1339,33600
1340,33216
1341,33536
1342,33920
1343,33856
1344,33472
1345,33088
1346,33216
1347,33856
1348,34048
1349,33664
1350,33728
1351,33920
1352,33792
1353,33792
1354,34112
1355,33792
1356,32832
1357,32576
1358,32960
1359,33600
1360,34112
1361,34368
1362,34880
1363,35264
1364,35456
1365,35136
1366,34240
1367,33216
1368,32448
1369,32448
1370,33152
1371,34240
1372,34624
1373,34112
1374,33856
1375,34944
1376,36096
1377,35712
1378,34560
1379,33856
1380,33408
1381,33024
1382,32896
1383,32896
1384,33152
1385,34176
1386,35200
1387,35072
1388,34496
1389,34624
1390,34944
1391,34688
1392,33920
1393,33216
1394,33088
1395,33344
1396,33536
1397,33792
1398,34112
1399,34048
1400,33856
1401,34048
1402,34368
1403,34304
1404,34304
1405,34176
1406,33920
1407,33792
1408,33472
1409,33280
1410,33472
1411,34048
1412,34624
1413,34432
1414,33792
1415,33472
1416,33536
1417,33664
1418,33664
1419,33728
1420,34112
1421,34496
1422,34304
1423,33792
1424,33600
1425,33792
1426,34304
1427,34880
1428,34944
1429,34688
1430,34304
1431,33984
1432,33856
1433,33920
1434,33920
1435,33792
1436,33920
1437,34176
1438,34496
1439,34816
1440,35136
1441,35776
1442,36352
1443,35968
1444,35136
1445,34560
1446,34304
1447,34240
1448,34112
1449,34048
1450,34560
1451,34816
1452,34304
1453,33792
1454,33792
1455,33728
1456,33280
1457,32960
1458,33024
1459,33600
1460,34112
1461,34240
1462,34304
1463,34304
1464,33792
1465,33472
1466,33536
1467,33600
1468,33536
1469,33408
1470,33408
1471,33600
1472,34176
1473,35008
1474,36288
1475,38336
1476,40576
1477,42048
1478,42624
1479,41856
1480,39424
1481,36224
1482,33600
1483,31808
1484,30784
1485,30656
1486,31360
1487,32128
1488,32512
1489,32576
1490,32704
1491,32896
1492,33152
1493,33408
1494,33664
1495,34112
1496,34688
1497,35136
1498,35456
1499,35200
1500,34816
1501,34432
1502,33856
1503,33472
1504,33472
1505,33600
1506,33792
1507,34048
1508,34112
1509,34304
1510,34496
1511,34496
1512,34368
1513,34240
1514,34304
1515,34688
1516,35264
1517,35520
1518,35264
1519,34560
1520,34240
1521,34432
1522,34560
1523,34368
1524,34112
1525,33728
1526,33664
1527,33920
1528,34368
1529,34688
1530,34880
1531,34944
1532,35072
1533,35136
1534,35200
1535,35200
1536,35328
1537,35456
1538,35648
1539,35840
1540,35776
1541,35520
1542,35520
1543,35648
1544,35648
1545,35392
1546,35072
1547,34880
1548,35200
1549,35328
1550,35008
1551,34560
1552,34304
1553,34304
1554,34432
1555,34496
1556,34368
1557,34176
1558,33920
1559,33792
1560,33792
1561,34112
1562,34368
1563,34560
1564,34496
1565,34176
1566,34048
1567,33984
1568,33984
1569,34048
1570,34048
1571,33856
1572,33728
1573,33792
1574,33920
1575,34112
1576,34304
1577,34560
1578,34880
1579,34880
1580,34688
1581,34560
1582,34496
1583,34304
1584,34112
1585,34048
1586,34048
1587,33920
1588,34112
1589,34496
1590,34496
1591,34112
1592,33856
1593,33920
1594,34176
1595,34304
1596,34496
1597,34560
1598,34624
1599,34560
1600,34432
1601,34368
1602,34496
1603,34560
1604,34368
1605,34368
1606,34624
1607,34624
1608,34432
1609,34368
1610,33984
1611,33600
1612,33536
1613,33536
1614,33472
1615,33536
1616,33664
1617,33920
1618,34048
1619,34304
1620,34624
1621,34816
1622,34816
1623,34560
1624,34240
1625,34112
1626,34112
1627,34176
1628,34304
1629,34304
1630,34176
1631,34176
1632,34112
1633,33920
1634,33920
1635,34048
1636,34176
1637,34432
1638,34624
1639,34816
1640,34816
1641,34688
1642,34560
1643,34432
1644,34304
1645,34432
1646,34496
1647,34432
1648,34304
1649,34304
1650,34368
1651,34432
1652,34368
1653,34176
1654,34112
1655,34240
1656,34304
1657,34304
1658,34368
1659,34496
1660,34880
1661,35328
1662,35456
1663,35264
1664,34880
1665,34688
1666,34880
1667,35008
1668,34944
1669,34880
1670,34944
1671,35008
1672,35008
1673,34816
1674,34560
1675,34304
1676,34112
1677,33984
1678,33920
1679,33920
1680,33856
1681,33920
1682,34112
1683,34112
1684,34048
1685,34240
1686,34496
1687,34304
1688,33856
1689,33728
1690,33920
1691,34240
1692,34240
1693,33984
1694,33856
1695,33728
1696,33408
1697,33408
1698,34432
1699,36160
1700,38464
1701,40768
1702,42496
1703,43328
1704,42560
1705,40000
1706,36480
1707,33536
1708,31808
1709,31168
1710,30784
1711,30592
1712,30528
1713,30784
1714,31360
1715,32384
1716,33280
1717,33408
1718,33600
1719,34240
1720,34368
1721,34240
1722,34624
1723,34816
1724,34560
1725,34176
1726,34048
1727,34176
1728,34240
1729,34432
1730,34688
1731,34176
1732,33536
1733,33344
1734,33344
1735,33216
1736,33088
1737,33216
1738,33472
1739,33536
1740,33472
1741,33472
1742,33536
1743,33536
1744,33472
1745,33472
1746,33600
1747,33856
1748,34048
1749,34176
1750,34368
1751,34496
1752,34496
1753,34432
1754,34432
1755,34496
1756,34560
1757,34560
1758,34624
1759,34624
1760,34688
1761,34880
1762,35008
1763,34752
1764,34624
1765,34624
1766,34496
1767,34368
1768,34368
1769,34368
1770,34432
1771,34496
1772,34624
1773,34880
1774,35200
1775,35392
1776,35264
1777,34944
1778,34496
1779,34048
1780,33920
1781,33920
1782,33792
1783,33600
1784,33600
1785,33984
1786,34240
1787,34176
1788,33984
1789,33856
1790,33664
1791,33408
1792,33536
1793,33536
1794,33856
1795,33792
1796,33664
1797,33856
1798,34176
1799,34368
1800,34176
1801,33856
1802,33664
1803,33664
1804,33920
1805,33984
1806,33920
1807,34048
1808,34048
1809,34560
1810,34624
1811,34560
1812,34432
1813,34432
1814,34560
1815,34496
1816,34304
1817,34112
1818,33984
1819,34048
1820,34112
1821,34240
1822,34560
1823,34688
1824,34624
1825,34176
1826,33856
1827,33856
1828,33920
1829,33984
1830,34048
1831,33984
1832,33856
1833,33856
1834,34048
1835,34560
1836,34368
1837,34176
1838,34368
1839,34560
1840,34496
1841,34240
1842,34048
1843,34176
1844,34304
1845,34176
1846,33856
1847,33792
1848,33728
1849,34112
1850,34176
1851,34240
1852,34240
1853,34112
1854,34112
1855,34304
1856,34432
1857,34432
1858,34304
1859,34176
1860,34176
1861,34304
1862,34432
1863,34304
1864,34112
1865,34112
1866,34240
1867,34304
1868,34304
1869,34304
1870,34240
1871,34240
1872,34176
1873,34176
1874,34240
1875,34432
1876,34560
1877,34944
1878,34944
1879,34944
1880,34432
1881,34048
1882,33792
1883,33856
1884,34048
1885,34176
1886,34304
1887,34368
1888,34368
1889,34560
1890,34752
1891,35008
1892,35328
1893,35328
1894,35520
1895,35200
1896,34816
1897,34560
1898,34240
1899,33920
1900,33792
1901,33984
1902,34048
1903,33984
1904,34112
1905,34432
1906,34496
1907,34112
1908,34048
1909,33728
1910,33472
1911,33600
1912,33920
1913,34176
1914,34176
1915,34176
1916,34304
1917,34304
1918,34048
1919,33792
1920,34112
1921,35200
1922,37056
1923,37056
1924,41408
1925,42816
1926,43008
1927,41600
1928,38592
1929,35200
1930,32640
1931,31360
1932,30976
1933,31040
1934,31296
1935,31744
1936,32320
1937,32768
1938,33088
1939,33536
1940,33856
1941,33856
1942,33856
1943,33920
1944,34176
1945,34560
1946,34944
1947,35712
1948,36160
1949,35584
1950,34496
1951,33536
1952,33152
1953,33088
1954,33280
1955,33472
1956,33664
1957,33920
1958,34112
1959,34304
1960,34432
1961,34560
1962,34560
1963,34624
1964,34688
1965,34688
1966,34752
1967,34944
1968,34880
1969,34688
1970,34112
1971,33792
1972,33984
1973,34496
1974,34880
1975,35072
1976,35264
1977,35328
1978,35008
1979,34688
1980,34624
1981,34368
1982,33984
1983,33984
1984,34368
1985,34752
1986,34880
1987,35072
1988,35776
1989,36032
1990,35584
1991,34880
1992,34304
1993,34048
1994,33984
1995,34112
1996,34240
1997,34432
1998,34560
1999,34624
2000,34560
2001,34560
2002,34560
2003,34624
2004,34624
2005,34368
2006,34112
2007,33984
2008,33984
2009,34048
2010,34240
2011,34432
2012,34496
2013,33984
2014,33408
2015,33280
2016,33408
2017,33600
2018,33664
2019,33856
2020,34112
2021,34048
2022,33920
2023,33856
2024,33856
2025,33920
2026,34048
2027,34112
2028,34176
2029,34176
2030,34112
2031,33728
2032,33664
2033,33920
2034,34048
2035,33856
2036,33600
2037,33472
2038,33408
2039,33536
2040,33856
2041,34432
2042,34880
2043,35008
2044,34816
2045,34432
2046,34112
2047,33856
2048,33536
2049,33344
2050,33344
2051,33472
2052,33600
2053,33920
2054,34048
2055,34048
2056,34048
2057,34176
2058,34176
2059,33920
2060,33792
2061,34112
2062,34496
2063,34624
2064,34368
2065,34176
2066,34304
2067,34368
2068,34112
2069,33920
2070,33984
2071,34176
2072,34304
2073,34304
2074,34176
2075,34048
2076,33920
2077,33920
2078,33920
2079,33856
2080,33920
2081,33984
2082,33984
2083,33984
2084,34048
2085,34240
2086,34432
2087,34624
2088,35008
2089,35264
2090,35008
2091,34432
2092,34176
2093,34112
2094,33984
2095,33920
2096,34048
2097,34368
2098,34560
2099,34688
2100,35008
2101,35328
2102,35648
2103,35840
2104,35776
2105,35520
2106,35136
2107,34880
2108,34624
2109,34304
2110,34048
2111,34048
2112,34048
2113,34048
2114,34112
2115,33920
2116,33536
2117,33408
2118,33472
2119,33472
2120,33280
2121,33152
2122,33216
2123,33472
2124,33920
2125,34176
2126,34176
2127,34240
2128,34432
2129,34432
2130,33984
2131,33664
2132,33600
2133,34176
2134,35328
2135,37056
2136,39168
2137,41088
2138,42112
2139,41920
2140,39936
2141,36864
2142,33920
2143,32000
2144,31040
2145,30976
2146,31232
2147,31488
2148,31744
2149,32000
2150,32256
2151,32320
2152,32064
2153,32000
2154,32064
2155,31936
2156,31744
2157,31488
2158,31360
2159,31360
2160,31744
2161,32320
2162,32704
2163,32448
2164,32128
2165,32000
2166,32448
2167,33024
2168,33344
2169,33472
2170,33728
2171,34176
2172,34240
2173,33984
2174,33856
2175,33984
2176,34304
2177,34688
2178,35008
2179,34944
2180,34752
2181,34752
2182,34752
2183,34688
2184,34432
2185,34432
2186,34624
2187,34880
2188,34752
2189,34496
2190,34368
2191,34304
2192,34304
2193,34432
2194,34624
2195,34560
2196,34496
2197,34368
2198,34176
2199,34048
2200,33920
2201,33984
2202,34176
2203,34432
2204,34688
2205,34816
2206,34688
2207,34432
2208,34368
2209,34688
2210,34752
2211,34432
2212,33920
2213,33472
2214,33024
2215,32768
2216,32640
2217,32512
2218,32320
2219,32000
2220,31488
2221,31104
2222,30784
2223,30656
2224,30528
2225,30464
2226,30400
2227,30464
2228,30784
2229,30976
2230,31296
2231,31680
2232,31936
2233,32192
2234,32320
2235,32192
2236,32000
2237,31936
2238,32128
2239,32448
2240,32576
2241,32576
2242,32704
2243,32896
2244,33024
2245,33024
2246,32896
2247,32896
2248,33088
2249,33088
2250,32960
2251,32960
2252,33344
2253,33920
2254,34496
2255,34624
2256,34496
2257,34432
2258,34432
2259,34560
2260,34624
2261,34688
2262,34752
2263,34816
2264,34880
2265,34816
2266,34688
2267,34752
2268,34944
2269,34880
2270,34560
2271,34112
2272,33728
2273,33664
2274,33792
2275,34176
2276,34880
2277,35328
2278,35200
2279,34816
2280,34688
2281,34816
2282,35136
2283,35648
2284,36096
2285,36224
2286,36224
2287,36032
2288,35968
2289,35968
2290,35904
2291,35968
2292,36160
2293,36608
2294,36864
2295,36544
2296,36096
2297,35968
2298,36288
2299,36736
2300,36928
2301,37184
2302,37376
2303,37440
2304,37440
2305,37440
2306,37376
2307,37248
2308,37120
2309,37056
2310,36864
2311,36480
2312,35968
2313,35456
2314,35200
2315,34752
2316,34240
2317,34240
2318,34496
2319,34560
2320,34496
2321,34432
2322,34624
2323,34688
2324,34560
2325,34368
2326,34560
2327,34880
2328,35200
2329,35392
2330,35200
2331,34688
2332,34176
2333,33920
2334,33984
2335,34752
2336,36032
2337,37568
2338,39488
2339,41536
2340,43008
2341,43328
2342,41600
2343,38336
2344,34944
2345,32448
2346,31296
2347,30976
2348,31040
2349,31488
2350,32320
2351,33152
2352,33664
2353,33728
2354,33600
2355,33664
2356,33792
2357,33664
2358,33664
2359,33984
2360,34176
2361,34176
2362,34112
2363,34368
2364,34688
2365,34944
2366,34944
2367,34688
2368,34112
2369,33536
2370,33408
2371,33664
2372,34048
2373,34240
2374,34240
2375,34240
2376,34496
2377,34752
2378,34752
2379,34752
2380,34752
2381,34624
2382,34240
2383,33728
2384,33472
2385,33472
2386,33600
2387,33920
2388,34240
2389,34432
2390,34496
2391,34624
2392,34688
2393,34688
2394,34752
2395,34880
2396,34880
2397,34944
2398,35072
2399,35072
2400,34688
2401,34368
2402,34240
2403,34432
2404,34688
2405,35008
2406,35456
2407,35648
2408,35648
2409,35584
2410,35136
2411,34688
2412,34432
2413,34432
2414,34816
2415,34816
2416,34432
2417,34048
2418,33728
2419,33600
2420,33728
2421,33792
2422,33792
2423,33792
2424,33984
2425,34176
2426,34176
2427,33728
2428,33344
2429,33216
2430,33536
2431,34176
2432,34688
2433,34880
2434,34816
2435,34752
2436,34688
2437,34624
2438,34560
2439,34688
2440,34816
2441,34688
2442,34624
2443,35008
2444,35712
2445,35776
2446,35136
2447,34496
2448,34112
2449,33920
2450,34048
2451,34560
2452,34816
2453,34752
2454,34432
2455,34176
2456,34368
2457,34624
2458,34560
2459,34240
2460,34112
2461,34048
2462,34240
2463,34560
2464,34688
2465,34560
2466,34432
2467,34560
2468,34624
2469,34432
2470,34176
2471,33984
2472,33984
2473,34112
2474,34368
2475,34560
2476,34624
2477,34560
2478,34496
2479,34624
2480,34816
2481,35008
2482,35008
2483,34560
2484,34240
2485,34240
2486,34496
2487,34816
2488,34880
2489,34624
2490,34432
2491,34688
2492,35072
2493,35200
2494,34752
2495,34048
2496,33728
2497,33856
2498,34112
2499,34432
2500,34880
2501,35200
2502,35072
2503,34816
2504,34816
2505,35008
2506,35200
2507,35648
2508,36032
2509,35968
2510,35712
2511,35264
2512,34816
2513,34496
2514,34368
2515,34176
2516,33856
2517,33536
2518,33472
2519,33664
2520,33984
2521,34176
2522,34368
2523,34624
2524,34752
2525,34752
2526,34624
2527,34240
2528,33920
2529,33792
2530,33984
2531,34112
2532,34112
2533,34176
2534,34176
2535,34112
2536,34240
2537,35136
2538,36864
2539,38976
2540,41152
2541,42752
2542,43264
2543,41728
2544,38336
2545,34688
2546,32128
2547,30976
2548,30976
2549,31296
2550,31424
2551,31552
2552,32000
2553,32512
2554,32960
2555,33344
2556,33792
2557,33856
2558,33728
2559,33600
2560,33792
2561,34176
2562,34496
2563,34560
2564,34304
2565,34240
2566,34496
2567,34560
2568,34112
2569,33792
2570,33920
2571,34432
2572,34624
2573,34304
2574,33792
2575,33664
2576,33728
2577,33792
2578,33792
2579,33728
2580,33792
2581,33984
2582,34112
2583,34176
2584,34368
2585,34624
2586,34688
2587,34624
2588,34496
2589,34496
2590,34816
2591,34944
2592,34624
2593,34432
2594,34432
2595,34624
2596,34944
2597,34944
2598,34752
2599,34624
2600,34880
2601,35264
2602,35392
2603,35264
2604,35200
2605,35264
2606,35328
2607,35392
2608,35456
2609,35264
2610,34944
2611,34816
2612,34944
2613,35136
2614,35136
2615,34816
2616,34304
2617,34048
2618,34048
2619,34048
2620,34048
2621,33984
2622,34048
2623,34112
2624,33920
2625,33664
2626,33600
2627,33536
2628,33472
2629,33664
2630,34048
2631,34560
2632,34624
2633,34368
2634,33984
2635,33664
2636,33664
2637,33728
2638,33920
2639,34368
2640,34496
2641,34240
2642,34048
2643,33984
2644,34112
2645,34112
2646,34240
2647,34432
2648,34496
2649,34624
2650,34688
2651,34496
2652,34240
2653,34176
2654,34048
2655,33984
2656,33920
2657,33984
2658,34048
2659,34112
2660,34240
2661,34240
2662,34176
2663,34176
2664,34240
2665,34176
2666,33984
2667,33920
2668,33856
2669,34048
2670,34304
2671,34304
2672,34240
2673,34240
2674,34176
2675,34176
2676,34368
2677,34368
2678,34048
2679,33664
2680,33472
2681,33472
2682,33728
2683,34048
2684,34432
2685,34944
2686,35008
2687,34496
2688,33920
2689,33600
2690,33472
2691,33472
2692,33920
2693,34112
2694,34304
2695,34240
2696,34368
2697,34496
2698,34624
2699,34560
2700,34688
2701,35008
2702,35328
2703,35392
2704,35264
2705,35392
2706,35456
2707,35200
2708,34816
2709,34560
2710,34304
2711,34048
2712,33920
2713,33856
2714,33792
2715,33472
2716,33088
2717,32896
2718,33024
2719,33344
2720,33600
2721,33600
2722,33792
2723,34048
2724,34304
2725,34304
2726,34112
2727,34112
2728,34112
2729,33920
2730,33728
2731,33536
2732,33472
2733,34304
2734,35776
2735,37568
2736,39296
2737,41088
2738,41728
2739,41728
2740,40000
2741,36928
2742,33984
2743,32128
2744,31168
2745,30720
2746,30784
2747,31424
2748,32192
2749,32384
2750,32320
2751,32448
2752,33024
2753,33472
2754,33920
2755,34176
2756,34240
2757,34112
2758,34112
2759,34176
2760,34176
2761,34048
2762,34048
2763,34112
2764,34368
2765,34368
2766,34048
2767,33728
2768,33472
2769,33344
2770,33408
2771,33728
2772,33984
2773,34048
2774,34240
2775,34560
2776,34624
2777,34432
2778,34368
2779,34112
2780,33984
2781,33984
2782,34240
2783,34304
2784,34496
2785,34624
2786,34688
2787,34560
2788,34432
2789,34496
2790,34560
2791,34624
2792,34688
2793,34688
2794,34688
2795,34752
2796,34944
2797,35136
2798,35200
2799,35008
2800,34752
2801,34816
2802,35136
2803,35264
2804,35200
2805,35072
2806,35072
2807,35136
2808,35072
2809,35008
2810,34880
2811,34688
2812,34432
2813,34176
2814,34304
2815,34560
2816,34496
2817,34176
2818,33920
2819,33728
2820,33600
2821,33472
2822,33728
2823,34048
2824,34176
2825,34048
2826,33792
2827,33664
2828,33856
2829,34112
2830,34240
2831,34112
2832,34112
2833,34112
2834,34048
2835,34048
2836,34112
2837,34112
2838,34304
2839,34496
2840,34368
2841,34112
2842,34048
2843,34176
2844,34304
2845,34304
2846,34368
2847,34496
2848,34560
2849,34432
2850,34112
2851,34048
2852,34240
2853,34240
2854,34176
2855,34240
2856,34496
2857,34368
2858,34240
2859,34240
2860,34432
2861,34496
2862,34240
2863,33984
2864,33920
2865,33920
2866,34112
2867,34112
2868,34048
2869,34048
2870,33984
2871,34048
2872,34176
2873,34304
2874,34304
2875,34304
2876,34176
2877,34112
2878,34112
2879,33984
2880,33984
2881,34112
2882,34112
2883,34048
2884,34176
2885,34624
2886,34752
2887,34624
2888,34560
2889,34752
2890,35136
2891,35264
2892,35200
2893,35072
2894,35008
2895,34880
2896,34752
2897,34624
2898,34496
2899,34304
2900,34048
2901,33856
2902,33728
2903,33664
2904,33600
2905,33664
2906,33792
2907,33728
2908,33728
2909,33792
2910,33792
2911,33856
2912,34048
2913,34176
2914,34368
2915,34368
2916,34176
2917,34240
2918,34048
2919,33536
2920,33152
2921,33088
2922,33472
2923,34432
2924,35840
2925,37696
2926,39872
2927,41472
2928,42112
2929,41472
2930,39168
2931,36224
2932,33088
2933,32128
2934,31296
2935,30976
2936,31168
2937,31616
2938,32064
2939,32448
2940,32768
2941,33088
2942,33472
2943,33920
2944,34176
2945,34048
2946,33984
2947,34112
2948,34048
2949,33984
2950,34048
2951,34240
2952,34304
2953,34240
2954,34112
2955,34176
2956,34304
2957,34304
2958,34112
2959,33856
2960,33728
2961,33792
2962,34112
2963,34304
2964,34560
2965,34496
2966,34176
2967,34048
2968,34048
2969,34048
2970,34048
2971,34112
2972,34304
2973,34368
2974,34432
2975,34496
2976,34496
2977,34624
2978,34688
2979,34688
2980,34688
2981,34816
2982,34816
2983,34752
2984,34752
2985,34816
2986,34944
2987,35136
2988,35136
2989,35072
2990,35072
2991,35072
2992,35008
2993,34880
2994,34816
2995,34944
2996,35200
2997,35456
2998,35264
2999,34816
3000,34560
3001,34560
3002,34560
3003,34432
3004,34368
3005,34304
3006,34112
3007,33856
3008,33728
3009,33600
3010,33600
3011,33344
3012,33152
3013,33152
3014,33344
3015,33536
3016,33728
3017,33984
3018,34048
3019,34176
3020,34304
3021,34240
3022,34112
3023,34112
3024,34048
3025,34048
3026,34176
3027,34240
3028,34304
3029,34240
3030,34368
3031,34688
3032,34688
3033,34240
3034,33984
3035,33920
3036,33920
3037,33792
3038,33792
3039,33920
3040,34112
3041,34304
3042,34368
3043,34240
3044,34048
3045,33920
3046,33920
3047,33920
3048,33856
3049,33920
3050,34048
3051,34304
3052,34688
3053,34688
3054,34560
3055,34304
3056,34112
3057,33920
3058,33920
3059,34112
3060,34240
3061,34112
3062,33920
3063,33984
3064,34048
3065,34176
3066,34176
3067,33920
3068,33856
3069,33920
3070,34048
3071,34176
3072,34368
3073,34496
3074,34688
3075,34944
3076,35136
3077,35200
3078,35264
3079,35328
3080,35520
3081,35584
3082,35520
3083,35392
3084,35200
3085,34880
3086,34560
3087,34240
3088,33984
3089,33792
3090,33536
3091,33216
3092,33152
3093,33216
3094,33408
3095,33536
3096,33600
3097,33792
3098,33856
3099,33984
3100,33984
3101,33984
3102,33984
3103,33920
3104,33984
3105,34240
3106,34432
3107,34176
3108,33728
3109,33472
3110,33536
3111,34176
3112,36352
3113,37440
3114,39296
3115,40896
3116,41792
3117,41792
3118,40384
3119,37312
3120,34048
3121,31808
3122,30784
3123,30528
3124,30848
3125,31488
3126,32192
3127,32896
3128,33216
3129,33344
3130,33408
3131,33408
3132,33216
3133,33088
3134,33216
3135,33600
3136,34176
3137,34496
3138,34304
3139,33984
3140,33856
3141,33664
3142,33728
3143,33856
3144,33920
3145,33920
3146,34048
3147,34240
3148,34240
3149,33984
3150,33728
3151,33728
3152,33664
3153,33664
3154,33856
3155,34112
3156,34240
3157,34240
3158,34304
3159,34432
3160,34304
3161,33984
3162,33792
3163,33984
3164,34368
3165,34560
3166,34496
3167,34368
3168,34304
3169,34304
3170,34304
3171,34496
3172,34944
3173,35008
3174,35136
3175,35200
3176,35136
3177,35008
3178,34880
3179,34944
3180,35008
3181,35008
3182,34944
3183,34944
3184,34880
3185,34560
3186,34176
3187,33984
3188,34112
3189,34496
3190,34752
3191,34752
3192,34496
3193,34176
3194,33920
3195,33728
3196,33728
3197,33792
3198,33664
3199,33664
3200,33792
3201,33920
3202,33920
3203,33856
3204,33856
3205,33792
3206,33664
3207,33472
3208,33344
3209,33472
3210,33728
3211,34048
3212,34176
3213,34176
3214,33984
3215,33920
3216,33920
3217,34176
3218,34432
3219,34560
3220,34432
3221,34240
3222,34048
3223,33984
3224,33920
3225,34048
3226,34112
3227,34176
3228,34304
3229,34432
3230,34496
3231,34496
3232,34304
3233,33920
3234,33728
3235,33728
3236,33600
3237,33664
3238,33792
3239,33984
3240,34240
3241,34624
3242,34624
3243,34368
3244,33920
3245,33472
3246,33152
3247,33152
3248,33472
3249,33664
3250,33920
3251,34240
3252,34432
3253,34432
3254,34304
3255,34176
3256,34176
3257,34112
3258,33920
3259,33856
3260,34048
3261,34112
3262,33984
3263,33984
3264,34240
3265,34432
3266,34560
3267,34752
3268,34624
3269,34432
3270,34496
3271,34816
3272,35200
3273,35392
3274,35328
3275,35264
3276,34944
3277,34560
3278,34112
3279,33856
3280,33600
3281,33344
3282,33216
3283,33216
3284,33536
3285,33728
3286,33664
3287,33664
3288,33728
3289,33728
3290,33472
3291,33472
3292,33856
3293,34176
3294,34176
3295,33856
3296,33600
3297,33664
3298,33728
3299,33664
3300,33472
3301,33536
3302,34176
3303,35520
3304,37312
3305,39488
3306,41408
3307,42368
3308,41728
3309,39616
3310,36416
3311,33472
3312,31552
3313,30848
3314,30976
3315,31552
3316,32064
3317,32320
3318,32640
3319,33152
3320,33600
3321,33792
3322,33920
3323,33984
3324,33856
3325,33792
3326,33728
3327,33856
3328,34048
3329,34240
3330,34176
3331,33920
3332,33664
3333,33728
3334,33984
3335,34304
3336,34304
3337,34176
3338,34176
3339,34240
3340,34304
3341,34240
3342,34112
3343,33920
3344,33664
3345,33728
3346,34048
3347,34368
3348,34624
3349,34624
3350,34560
3351,34496
3352,34496
3353,34432
3354,34304
3355,34368
3356,34560
3357,34816
3358,34816
3359,34752
3360,34752
3361,34752
3362,34880
3363,35008
3364,35200
3365,35712
3366,35904
3367,35776
3368,35392
3369,35072
3370,34752
3371,34432
3372,34368
3373,34432
3374,34624
3375,34944
3376,35264
3377,35328
3378,35008
3379,34496
3380,34176
3381,34368
3382,34496
3383,34432
3384,34176
3385,33984
3386,33600
3387,33344
3388,33216
3389,33408
3390,33856
3391,34304
3392,34304
3393,33920
3394,33408
3395,33280
3396,33344
3397,33536
3398,33536
3399,33472
3400,33472
3401,33792
3402,34112
3403,34240
3404,34112
3405,34048
3406,34176
3407,34304
3408,34368
3409,34496
3410,34496
3411,34240
3412,33920
3413,33664
3414,33792
3415,34112
3416,34240
3417,33984
3418,33536
3419,33216
3420,33024
3421,33280
3422,33856
3423,34240
3424,34176
3425,34048
3426,34176
3427,34432
3428,34496
3429,34240
3430,33984
3431,33856
3432,33664
3433,33600
3434,33920
3435,34304
3436,34368
3437,34048
3438,33792
3439,33728
3440,33664
3441,33664
3442,33792
3443,33984
3444,34112
3445,34240
3446,34432
3447,34560
3448,34432
3449,33984
3450,33728
3451,33728
3452,33856
3453,33920
3454,34048
3455,34112
3456,34176
3457,34112
3458,34112
3459,34368
3460,34624
3461,34752
3462,34944
3463,35136
3464,35136
3465,35136
3466,35392
3467,35584
3468,35456
3469,35072
3470,34688
3471,34432
3472,34432
3473,34368
3474,34304
3475,34240
3476,34240
3477,34176
3478,34048
3479,33856
3480,33728
3481,33664
3482,33536
3483,33536
3484,33536
3485,33600
3486,33728
3487,33856
3488,33920
3489,33984
3490,34048
3491,34048
3492,34048
3493,34112
3494,34112
3495,33920
3496,33856
3497,33920
3498,34240
3499,35008
3500,36288
3501,37952
3502,39872
3503,41408
3504,41920
3505,41280
3506,39040
3507,35968
3508,33280
3509,31616
3510,30912
3511,30784
3512,31104
3513,31552
3514,32128
3515,32512
3516,32832
3517,33152
3518,33536
3519,33792
3520,34048
3521,34240
3522,34368
3523,34432
3524,34432
3525,34432
3526,34432
3527,34432
3528,34304
3529,34304
3530,34304
3531,34304
3532,34176
3533,34112
3534,34112
3535,34176
3536,34240
3537,34304
3538,34368
3539,34496
3540,34560
3541,34688
3542,34688
3543,34560
3544,34368
3545,34240
3546,34176
3547,34176
3548,34112
3549,34176
3550,34368
3551,34624
3552,34688
3553,34624
3554,34560
3555,34688
3556,34816
3557,34816
3558,34816
3559,34816
3560,34880
3561,34944
3562,35008
3563,35136
3564,35136
3565,35200
3566,35264
3567,35392
3568,35392
3569,35328
3570,35328
3571,35328
3572,35392
3573,35392
3574,35328
3575,35264
3576,35264
3577,35200
3578,35072
3579,34944
3580,34880
3581,34688
3582,34496
3583,34304
3584,34240
3585,34240
3586,34176
3587,34176
3588,34240
3589,34176
3590,34112
3591,33984
3592,33920
3593,33984
3594,33984
3595,34048
3596,34112
3597,34176
3598,34240
3599,34304
3600,34304
3601,34368
3602,34432
3603,34496
3604,34496
3605,34432
3606,34432
3607,34368
3608,34368
3609,34432
3610,34496
3611,34496
3612,34496
3613,34496
3614,34432
3615,34368
3616,34368
3617,34368
3618,34304
3619,34368
3620,34432
3621,34368
3622,34368
3623,34304
3624,34304
3625,34368
3626,34432
3627,34368
3628,34304
3629,34240
3630,34240
3631,34176
3632,34240
3633,34176
3634,34368
3635,34368
3636,34304
3637,34368
3638,34304
3639,34304
3640,34240
3641,34304
3642,34368
3643,34304
3644,34304
3645,34304
3646,34368
3647,34432
3648,34368
3649,34560
3650,34624
3651,34688
3652,34944
3653,34944
3654,35520
3655,35584
3656,35520
3657,35392
3658,35200
3659,34944
3660,34688
3661,34496
3662,34240
3663,33920
3664,33600
3665,33408
3666,33344
3667,33408
3668,33408
3669,33536
3670,33792
3671,33984
3672,34048
3673,34304
3674,34624
3675,34816
3676,34880
3677,34688
3678,34432
3679,34304
3680,33728
3681,33344
3682,33088
3683,32896
3684,33024
3685,33728
3686,35136
3687,37056
3688,39168
3689,40896
3690,41792
3691,41600
3692,39872
3693,36992
3694,36736
3695,32704
3696,32320
3697,32512
3698,32512
3699,32320
3700,32000
3701,31872
3702,32000
3703,32192
3704,32576
3705,32960
3706,33216
3707,33664
3708,33664
3709,34240
3710,34112
3711,34112
3712,34176
3713,34240
3714,34112
3715,34048
3716,34176
3717,34496
3718,34880
3719,34816
3720,34432
3721,34176
3722,34048
3723,33920
3724,33984
3725,34048
3726,33856
3727,33536
3728,33600
3729,34240
3730,35008
3731,35136
3732,34496
3733,33856
3734,33472
3735,33408
3736,33472
3737,33728
3738,34112
3739,34496
3740,34880
3741,35200
3742,35392
3743,35328
3744,35008
3745,34816
3746,34880
3747,34816
3748,34560
3749,34368
3750,34432
3751,34752
3752,35264
3753,35584
3754,35584
3755,35264
3756,34880
3757,34560
3758,34304
3759,34176
3760,33984
3761,34048
3762,34624
3763,35200
3764,35072
3765,34496
3766,33856
3767,33600
3768,33728
3769,33664
3770,33920
3771,33664
3772,33280
3773,33088
3774,33280
3775,33600
3776,33984
3777,34112
3778,34048
3779,33920
3780,33728
3781,33728
3782,33856
3783,33984
3784,33920
3785,33984
3786,34048
3787,34176
3788,34304
3789,34432
3790,34432
3791,34496
3792,34688
3793,34624
3794,34048
3795,33472
3796,33344
3797,33536
3798,33792
3799,33984
3800,34176
3801,34304
3802,34240
3803,34176
3804,34240
3805,34176
3806,34048
3807,34048
3808,34176
3809,34432
3810,34688
3811,34688
3812,34560
3813,34496
3814,34432
3815,34112
3816,33600
3817,33216
3818,33216
3819,33344
3820,33536
3821,33728
3822,33856
3823,33920
3824,33984
3825,34176
3826,34368
3827,34432
3828,34624
3829,34816
3830,34880
3831,34880
3832,34816
3833,34816
3834,34688
3835,34496
3836,34496
3837,34816
3838,35008
3839,35072
3840,35008
3841,35008
3842,34944
3843,35072
3844,35008
3845,34944
3846,34560
3847,34112
3848,33536
3849,33280
3850,33216
3851,33216
3852,33280
3853,33344
3854,33536
3855,33728
3856,33856
3857,33856
3858,33664
3859,33600
3860,33600
3861,33792
3862,34048
3863,34304
3864,34368
3865,34496
3866,34368
3867,33984
3868,33792
3869,34112
3870,35008
3871,36416
3872,38208
3873,40192
3874,40192
3875,41344
3876,39936
3877,37184
3878,34496
3879,32768
3880,31872
3881,31616
3882,31744
3883,32064
3884,32320
3885,32384
3886,32576
3887,32896
3888,33152
3889,33216
3890,33344
3891,33536
3892,33792
3893,33984
3894,34048
3895,34176
3896,34368
3897,34688
3898,34944
3899,34816
3900,34496
3901,34304
3902,34240
3903,34112
3904,34048
3905,33664
3906,33536
3907,33664
3908,33856
3909,34112
3910,34304
3911,34496
3912,34560
3913,34752
3914,34752
3915,34624
3916,34368
3917,34304
3918,34304
3919,34240
3920,34112
3921,34112
3922,34176
3923,34304
3924,34368
3925,34560
3926,34624
3927,34624
3928,34752
3929,35008
3930,35456
3931,35712
3932,35584
3933,35200
3934,34880
3935,34752
3936,34752
3937,34880
3938,35008
3939,35072
3940,35072
3941,35008
3942,34944
3943,34816
3944,34624
3945,34624
3946,34496
3947,34304
3948,34240
3949,34368
3950,34432
3951,34368
3952,34304
3953,34304
3954,34240
3955,34176
3956,34112
3957,33920
3958,33728
3959,33728
3960,33728
3961,33600
3962,33536
3963,33728
3964,33920
3965,34048
3966,34176
3967,34112
3968,34112
3969,34176
3970,34240
3971,34240
3972,34240
3973,34176
3974,33984
3975,33920
3976,34176
3977,34304
3978,34432
3979,34624
3980,34624
3981,34368
3982,34112
3983,33984
3984,33920
3985,33920
3986,34112
3987,34368
3988,34432
3989,34304
3990,34176
3991,34176
3992,34368
3993,34496
3994,34816
3995,34816
3996,34304
3997,33856
3998,33728
3999,33856
4000,33920
4001,33728
4002,33664
4003,33792
4004,33984
4005,34048
4006,34112
4007,34368
4008,34624
4009,34624
4010,34368
4011,34112
4012,34112
4013,34304
4014,34560
4015,34880
4016,35200
4017,35520
4018,35712
4019,35904
4020,35904
4021,35648
4022,35392
4023,35072
4024,34624
4025,34112
4026,33856
4027,33728
4028,33728
4029,33664
4030,33728
4031,33856
4032,33728
4033,33472
4034,33216
4035,33088
4036,33152
4037,33344
4038,33536
4039,33792
4040,33920
4041,34112
4042,34368
4043,34624
4044,34944
4045,35008
4046,34624
4047,33920
4048,33344
4049,33216
4050,33792
4051,34944
4052,36480
4053,38464
4054,40448
4055,41728
4056,41728
4057,39872
4058,36928
4059,34304
4060,32640
4061,31808
4062,31616
4063,31552
4064,31552
4065,31808
4066,32064
4067,32448
4068,32768
4069,33024
4070,33344
4071,33664
4072,34176
4073,34688
4074,35072
4075,34816
4076,34112
4077,33600
4078,33472
4079,33600
4080,33792
4081,33984
4082,33984
4083,34112
4084,34304
4085,34368
4086,34240
4087,33984
4088,33984
4089,34048
4090,34176
4091,34368
4092,34432
4093,34304
4094,34112
4095,34240
4096,34560
4097,34560
4098,34432
4099,34368
4100,34304
4101,34240
4102,34048
4103,34048
4104,34112
4105,34304
4106,34496
4107,34752
4108,35008
4109,35264
4110,35264
4111,35264
4112,35200
4113,35072
4114,35008
4115,34880
4116,34688
4117,34624
4118,34624
4119,34624
4120,34560
4121,34496
4122,34560
4123,34624
4124,34880
4125,35136
4126,35264
4127,35200
4128,34944
4129,34816
4130,34816
4131,34624
4132,34432
4133,34368
4134,34048
4135,33536
4136,33216
4137,33152
4138,33408
4139,33664
4140,33728
4141,33856
4142,33920
4143,33920
4144,33984
4145,34176
4146,34240
4147,34368
4148,34304
4149,34112
4150,34240
4151,34368
4152,34240
4153,33984
4154,34112
4155,34496
4156,34624
4157,34240
4158,33856
4159,33728
4160,33664
4161,33664
4162,33728
4163,33920
4164,34112
4165,34368
4166,34624
4167,34816
4168,34752
4169,34560
4170,34304
4171,33920
4172,33664
4173,33536
4174,33600
4175,33920
4176,34240
4177,34432
4178,34304
4179,34240
4180,34560
4181,34688
4182,34496
4183,34112
4184,33792
4185,33664
4186,33792
4187,34176
4188,34624
4189,35072
4190,35520
4191,35712
4192,35776
4193,35584
4194,35392
4195,35264
4196,35264
4197,35200
4198,35008
4199,34816
4200,34368
4201,33792
4202,33408
4203,33216
4204,33344
4205,33408
4206,33536
4207,33664
4208,33728
4209,33792
4210,33856
4211,33856
4212,33792
4213,33728
4214,33792
4215,33984
4216,34048
4217,33984
4218,33728
4219,33600
4220,33536
4221,33472
4222,33536
4223,33792
4224,34432
4225,35648
4226,37440
4227,39552
4228,41280
4229,42048
4230,41472
4231,38976
4232,35584
4233,32896
4234,31360
4235,30976
4236,30976
4237,31296
4238,31680
4239,32064
4240,32512
4241,32960
4242,33408
4243,33792
4244,34048
4245,34176
4246,34048
4247,33792
4248,33728
4249,33856
4250,34048
4251,34176
4252,34176
4253,34112
4254,34112
4255,34176
4256,34176
4257,34176
4258,34112
4259,34112
4260,34112
4261,34176
4262,34304
4263,34368
4264,34368
4265,34240
4266,34176
4267,34112
4268,34176
4269,34304
4270,34432
4271,34560
4272,34560
4273,34304
4274,34112
4275,34176
4276,34304
4277,34432
4278,34624
4279,34752
4280,34816
4281,34752
4282,34752
4283,34752
4284,34944
4285,35008
4286,34880
4287,34752
4288,34816
4289,35136
4290,35264
4291,35072
4292,34880
4293,34752
4294,34880
4295,35008
4296,34944
4297,34880
4298,34816
4299,34816
4300,34880
4301,34944
4302,34816
4303,34688
4304,34624
4305,34496
4306,34176
4307,33856
4308,33792
4309,33920
4310,33920
4311,33728
4312,33600
4313,33600
4314,33600
4315,33664
4316,33920
4317,34112
4318,34176
4319,34304
4320,34304
4321,34304
4322,34368
4323,34496
4324,34368
4325,34240
4326,34112
4327,33984
4328,33920
4329,33984
4330,34240
4331,34368
4332,34432
4333,34496
4334,34496
4335,34496
4336,34368
4337,34176
4338,34112
4339,34176
4340,34112
4341,33920
4342,33856
4343,33984
4344,34112
4345,34176
4346,34304
4347,34432
4348,34304
4349,34112
4350,34048
4351,34240
4352,34368
4353,34304
4354,34048
4355,33984
4356,34048
4357,34240
4358,34176
4359,34176
4360,34368
4361,34560
4362,34688
4363,34816
4364,35008
4365,35328
4366,35392
4367,35264
4368,35392
4369,35584
4370,35584
4371,35136
4372,34560
4373,34240
4374,33984
4375,33792
4376,33536
4377,33216
4378,33088
4379,33088
4380,33216
4381,33472
4382,33600
4383,33728
4384,33856
4385,33792
4386,33856
4387,33856
4388,33856
4389,33728
4390,33664
4391,33728
4392,33856
4393,33984
4394,34112
4395,33920
4396,33408
4397,33344
4398,34304
4399,35904
4400,37952
4401,40000
4402,41536
4403,41792
4404,40768
4405,37888
4406,34624
4407,32384
4408,31232
4409,30848
4410,30976
4411,31488
4412,32128
4413,32768
4414,33088
4415,33280
4416,33408
4417,33600
4418,33792
4419,34112
4420,34304
4421,34304
4422,34176
4423,33920
4424,33856
4425,34048
4426,34240
4427,34240
4428,34176
4429,34240
4430,34304
4431,34240
4432,34048
4433,33984
4434,34176
4435,34432
4436,34240
4437,34048
4438,33920
4439,34112
4440,34240
4441,34304
4442,34368
4443,34432
4444,34560
4445,34624
4446,34560
4447,34496
4448,34368
4449,34304
4450,34304
4451,34368
4452,34432
4453,34624
4454,34880
4455,34944
4456,34752
4457,34624
4458,34752
4459,34944
4460,35008
4461,34944
4462,34816
4463,34752
4464,34752
4465,34688
4466,34624
4467,34816
4468,35072
4469,35200
4470,35072
4471,34880
4472,34816
4473,34816
4474,34880
4475,34816
4476,34624
4477,34304
4478,34176
4479,34048
4480,34112
4481,34176
4482,34048
4483,33920
4484,33728
4485,33728
4486,33792
4487,33792
4488,33792
4489,33920
4490,33984
4491,33984
4492,33856
4493,33792
4494,33856
4495,33984
4496,34112
4497,34176
4498,34368
4499,34496
4500,34560
4501,34432
4502,34304
4503,34176
4504,34176
4505,34112
4506,33920
4507,33856
4508,33856
4509,34048
4510,34240
4511,34240
4512,34240
4513,34176
4514,33984
4515,33920
4516,34112
4517,34368
4518,34432
4519,34368
4520,34176
4521,34048
4522,34112
4523,34112
4524,34176
4525,34240
4526,34176
4527,33920
4528,33792
4529,33984
4530,34304
4531,34624
4532,34816
4533,35008
4534,35200
4535,35392
4536,35648
4537,35712
4538,35520
4539,35264
4540,35072
4541,34880
4542,34496
4543,34176
4544,33920
4545,33792
4546,33728
4547,33536
4548,33280
4549,33088
4550,33088
4551,33216
4552,33344
4553,33408
4554,33664
4555,34048
4556,34240
4557,34048
4558,33728
4559,33664
4560,33728
4561,33856
4562,33984
4563,33792
4564,33600
4565,33472
4566,33664
4567,34368
4568,35200
4569,36672
4570,38656
4571,40512
4572,41664
4573,41472
4574,39552
4575,36416
4576,33472
4577,31552
4578,30784
4579,30912
4580,31360
4581,31936
4582,32512
4583,32896
4584,33152
4585,33408
4586,33536
4587,33600
4588,33728
4589,33792
4590,33984
4591,34176
4592,34176
4593,34048
4594,33920
4595,33856
4596,33920
4597,33984
4598,33984
4599,33920
4600,33984
4601,34048
4602,34176
4603,34240
4604,34304
4605,34432
4606,34432
4607,34368
4608,34304
4609,34176
4610,33984
4611,33920
4612,34176
4613,34368
4614,34432
4615,34368
4616,34368
4617,34432
4618,34368
4619,34240
4620,34368
4621,34688
4622,34944
4623,35008
4624,34944
4625,34880
4626,34752
4627,34816
4628,34880
4629,34688
4630,34496
4631,34368
4632,34368
4633,34496
4634,34624
4635,34816
4636,35072
4637,35136
4638,34944
4639,34688
4640,34688
4641,34944
4642,35328
4643,35328
4644,35008
4645,34624
4646,34368
4647,34176
4648,33856
4649,33664
4650,33664
4651,33728
4652,33856
4653,33856
4654,33792
4655,33792
4656,33856
4657,33984
4658,34112
4659,34240
4660,34112
4661,33920
4662,33920
4663,34240
4664,34560
4665,34624
4666,34496
4667,34176
4668,34048
4669,33920
4670,33984
4671,34112
4672,34240
4673,34240
4674,34304
4675,34368
4676,34368
4677,34240
4678,33984
4679,33920
4680,33856
4681,33920
4682,34048
4683,34176
4684,34240
4685,34368
4686,34368
4687,34304
4688,34112
4689,34048
4690,34112
4691,34432
4692,34624
4693,34560
4694,34240
4695,34048
4696,34112
4697,34432
4698,34624
4699,34816
4700,35008
4701,35264
4702,35392
4703,35456
4704,35456
4705,35456
4706,35456
4707,35392
4708,35200
4709,34944
4710,34560
4711,34240
4712,34176
4713,34048
4714,33728
4715,33216
4716,32896
4717,32960
4718,33024
4719,33024
4720,33152
4721,33408
4722,33728
4723,33984
4724,34112
4725,34176
4726,34176
4727,34176
4728,34304
4729,34368
4730,34112
4731,33600
4732,33280
4733,33408
4734,34112
4735,35456
4736,37312
4737,39296
4738,40896
4739,41664
4740,41152
4741,38912
4742,35584
4743,33152
4744,31744
4745,31232
4746,31296
4747,31616
4748,31872
4749,32256
4750,32704
4751,33024
4752,33344
4753,33664
4754,33856
4755,33856
4756,33856
4757,33920
4758,33920
4759,33920
4760,33920
4761,33920
4762,34048
4763,34112
4764,34176
4765,34240
4766,34304
4767,34432
4768,34496
4769,34368
4770,34176
4771,34176
4772,34240
4773,34112
4774,33984
4775,33984
4776,34176
4777,34368
4778,34304
4779,34112
4780,33984
4781,34048
4782,34240
4783,34432
4784,34560
4785,34432
4786,34432
4787,34496
4788,34496
4789,34432
4790,34432
4791,34560
4792,34944
4793,35136
4794,35136
4795,35136
4796,35136
4797,35008
4798,34752
4799,34560
4800,34496
4801,34432
4802,34368
4803,34496
4804,34560
4805,34752
4806,34816
4807,34944
4808,34816
4809,34688
4810,34624
4811,34752
4812,34752
4813,34496
4814,34304
4815,34048
4816,33856
4817,33728
4818,33728
4819,33664
4820,33600
4821,33600
4822,33856
4823,33920
4824,33984
4825,33984
4826,34048
4827,34240
4828,34304
4829,34112
4830,34048
4831,34304
4832,34560
4833,34432
4834,34304
4835,34176
4836,33984
4837,33856
4838,33856
4839,33920
4840,33984
4841,34240
4842,34432
4843,34240
4844,33984
4845,33984
4846,34240
4847,34368
4848,34240
4849,34048
4850,33920
4851,34048
4852,34304
4853,34304
4854,34112
4855,34048
4856,34112
4857,34304
4858,34240
4859,34112
4860,34112
4861,34304
4862,34752
4863,35008
4864,34944
4865,34944
4866,35136
4867,35584
4868,35776
4869,35648
4870,35328
4871,35072
4872,34816
4873,34560
4874,34240
4875,34048
4876,34048
4877,33728
4878,33344
4879,33216
4880,33088
4881,33024
4882,33088
4883,33408
4884,33792
4885,34048
4886,34112
4887,34048
4888,33792
4889,33600
4890,33472
4891,33536
4892,33664
4893,33792
4894,33856
4895,33728
4896,33472
4897,33856
4898,34432
4899,36160
4900,38144
4901,40128
4902,41408
4903,41792
4904,40640
4905,37888
4906,34752
4907,32384
4908,31104
4909,30656
4910,30848
4911,31360
4912,32000
4913,32448
4914,32896
4915,33408
4916,33728
4917,33920
4918,34048
4919,34240
4920,34304
4921,34368
4922,34240
4923,34048
4924,33920
4925,33856
4926,33856
4927,33984
4928,33984
4929,33856
4930,33856
4931,33856
4932,33920
4933,34112
4934,34304
4935,34368
4936,34368
4937,34496
4938,34560
4939,34496
4940,34368
4941,34432
4942,34496
4943,34432
4944,34496
4945,34816
4946,34944
4947,34624
4948,34240
4949,34048
4950,34048
4951,34240
4952,34432
4953,34496
4954,34496
4955,34560
4956,34688
4957,34880
4958,35008
4959,35008
4960,35008
4961,34944
4962,34880
4963,34880
4964,34880
4965,34944
4966,34880
4967,34944
4968,34944
4969,34944
4970,34880
4971,35072
4972,35264
4973,35200
4974,35072
4975,34816
4976,34368
4977,33984
4978,33792
4979,33728
4980,33600
4981,33664
4982,33792
4983,34048
4984,34304
4985,34368
4986,34304
4987,33984
4988,33792
4989,33728
4990,33792
4991,34048
4992,34112
4993,34176
4994,34240
4995,34240
4996,34176
4997,34176
4998,34240
4999,34368
5000,34240
5001,34048
5002,33856
5003,33856
5004,33984
5005,34112
5006,34240
5007,34432
5008,34560
5009,34496
5010,34240
5011,34112
5012,34176
5013,34304
5014,34368
5015,34112
5016,33920
5017,33856
5018,33856
5019,33856
5020,33920
5021,34240
5022,34496
5023,34624
5024,34368
5025,34048
5026,33920
5027,33856
5028,33856
5029,33984
5030,34176
5031,34496
5032,34752
5033,34944
5034,35072
5035,35200
5036,35264
5037,35392
5038,35520
5039,35392
5040,35200
5041,35072
5042,35008
5043,34752
5044,34432
5045,34112
5046,33792
5047,33472
5048,33408
5049,33472
5050,33600
5051,33536
5052,33472
5053,33408
5054,33472
5055,33728
5056,34112
5057,34304
5058,34048
5059,33600
5060,33344
5061,33408
5062,33664
5063,33664
5064,33728
5065,33728
5066,33792
5067,33984
5068,34560
5069,35520
5070,36992
5071,38912
5072,40576
5073,41472
5074,41216
5075,39104
5076,36032
5077,33088
5078,31552
5079,30912
5080,31040
5081,31616
5082,32320
5083,32832
5084,33152
5085,33408
5086,33408
5087,33536
5088,33728
5089,33728
5090,33664
5091,33856
5092,34048
5093,33984
5094,33792
5095,33728
5096,33920
5097,34368
5098,34560
5099,34560
5100,34496
5101,34368
5102,34112
5103,34048
5104,34176
5105,34112
5106,33856
5107,33728
5108,33856
5109,34112
5110,34240
5111,34304
5112,34432
5113,34496
5114,34496
5115,34432
5116,34560
5117,34688
5118,34496
5119,34176
5120,34176
5121,34432
5122,34560
5123,34432
5124,34304
5125,34368
5126,34560
5127,34688
5128,34624
5129,34624
5130,34688
5131,34752
5132,34816
5133,35008
5134,35008
5135,34880
5136,34624
5137,34432
5138,34496
5139,34560
5140,34688
5141,34688
5142,34752
5143,34816
5144,34816
5145,34816
5146,34752
5147,34688
5148,34432
5149,34176
5150,33984
5151,33856
5152,33984
5153,34176
5154,34112
5155,33856
5156,33664
5157,33664
5158,33792
5159,33792
5160,33728
5161,33728
5162,33792
5163,34112
5164,34304
5165,34304
5166,34240
5167,34176
5168,34112
5169,34112
5170,34176
5171,34240
5172,34432
5173,34432
5174,34240
5175,34112
5176,34048
5177,34048
5178,34048
5179,34176
5180,34304
5181,34240
5182,34112
5183,34048
5184,34176
5185,34240
5186,34176
5187,34048
5188,34048
5189,34112
5190,34112
5191,33984
5192,33984
5193,34048
5194,34240
5195,34560
5196,34816
5197,34880
5198,34816
5199,34816
5200,34944
5201,35328
5202,35648
5203,35712
5204,35584
5205,35456
5206,35264
5207,35072
5208,34816
5209,34240
5210,33792
5211,33536
5212,33344
5213,33216
5214,33088
5215,33088
5216,33216
5217,33344
5218,33280
5219,33152
5220,33216
5221,33536
5222,33920
5223,34176
5224,34304
5225,34432
5226,34496
5227,34304
5228,33856
5229,33344
5230,33088
5231,33216
5232,33920
5233,35072
5234,36928
5235,39040
5236,40832
5237,41792
5238,41536
5239,39488
5240,36416
5241,33728
5242,31936
5243,31168
5244,31104
5245,31296
5246,31616
5247,32128
5248,32576
5249,33024
5250,33472
5251,33792
5252,33792
5253,33792
5254,33920
5255,34176
5256,34048
5257,33920
5258,33920
5259,33984
5260,34112
5261,34112
5262,34112
5263,34176
5264,34112
5265,34176
5266,34368
5267,34304
5268,34240
5269,34240
5270,34304
5271,34304
5272,34112
5273,33920
5274,34048
5275,34368
5276,34560
5277,34432
5278,34240
5279,34048
5280,34176
5281,34432
5282,34560
5283,34624
5284,34688
5285,34624
5286,34752
5287,34816
5288,34752
5289,34560
5290,34432
5291,34560
5292,34752
5293,34752
5294,34624
5295,34560
5296,34688
5297,34816
5298,34944
5299,34880
5300,34752
5301,34752
5302,34752
5303,34752
5304,34880
5305,35072
5306,35200
5307,35008
5308,34880
5309,34880
5310,34688
5311,34368
5312,34112
5313,33984
5314,34048
5315,34112
5316,34112
5317,33984
5318,33856
5319,33856
5320,33984
5321,34112
5322,34240
5323,34368
5324,34240
5325,34112
5326,34112
5327,34304
5328,34432
5329,34496
5330,34432
5331,34240
5332,34176
5333,34176
5334,34240
5335,34240
5336,34432
5337,34432
5338,34240
5339,34176
5340,34240
5341,34304
5342,34240
5343,34048
5344,33984
5345,34176
5346,34432
5347,34496
5348,34240
5349,33984
5350,34048
5351,34240
5352,34240
5353,34176
5354,34240
5355,34368
5356,34560
5357,34816
5358,35008
5359,35136
5360,35392
5361,35520
5362,35456
5363,35264
5364,35136
5365,34944
5366,34816
5367,34752
5368,34432
5369,34048
5370,33728
5371,33472
5372,33344
5373,33472
5374,33536
5375,33344
5376,33152
5377,33088
5378,33216
5379,33408
5380,33664
5381,33856
5382,33920
5383,33856
5384,33728
5385,33664
5386,33728
5387,33664
5388,33536
5389,33280
5390,33216
5391,33600
5392,34688
5393,36480
5394,38592
5395,40448
5396,41472
5397,41280
5398,39232
5399,36352
5400,33792
5401,31936
5402,30976
5403,30784
5404,30976
5405,31488
5406,32000
5407,32448
5408,32960
5409,33344
5410,33536
5411,33728
5412,33984
5413,34048
5414,33984
5415,33856
5416,33664
5417,33664
5418,33792
5419,33920
5420,33920
5421,33920
5422,33984
5423,34048
5424,34112
5425,34112
5426,34176
5427,34048
5428,34048
5429,34112
5430,34240
5431,34176
5432,34112
5433,34112
5434,34240
5435,34112
5436,34240
5437,34624
5438,34560
5439,34688
5440,34752
5441,34752
5442,34624
5443,34432
5444,34176
5445,33984
5446,33984
5447,34048
5448,33984
5449,34432
5450,34560
5451,34560
5452,34624
5453,34944
5454,35008
5455,34880
5456,34752
5457,34688
5458,34560
5459,34624
5460,34688
5461,34688
5462,34816
5463,35072
5464,35008
5465,34880
5466,34560
5467,34432
5468,34368
5469,34112
5470,33856
5471,33664
5472,33664
5473,33792
5474,33664
5475,33472
5476,33344
5477,33408
5478,33728
5479,33664
5480,33920
5481,33920
5482,34176
5483,34304
5484,34112
5485,33728
5486,33600
5487,33664
5488,33920
5489,34240
5490,34432
5491,34432
5492,34304
5493,34048
5494,34112
5495,34304
5496,34176
5497,34048
5498,33920
5499,33856
5500,33664
5501,33728
5502,33920
5503,34304
5504,34560
5505,34624
5506,34560
5507,34560
5508,34624
5509,34688
5510,34624
5511,34560
5512,34496
5513,34496
5514,34624
5515,34816
5516,34880
5517,34944
5518,35008
5519,35200
5520,35584
5521,35712
5522,35456
5523,35200
5524,35264
5525,35392
5526,35392
5527,35264
5528,35200
5529,35136
5530,35008
5531,34752
5532,34496
5533,34240
5534,33920
5535,33792
5536,33856
5537,34112
5538,34176
5539,33984
5540,33728
5541,33728
5542,33792
5543,33984
5544,34368
5545,34624
5546,34624
5547,34368
5548,34048
5549,33920
5550,33792
5551,33664
5552,33408
5553,33344
5554,33344
5555,35264
5556,37120
5557,39232
5558,41152
5559,42112
5560,41856
5561,40000
5562,37184
5563,34624
5564,32832
5565,31808
5566,31424
5567,31360
5568,31424
5569,31616
5570,32512
5571,33088
5572,33536
5573,33856
5574,34304
5575,34624
5576,34624
5577,34368
5578,34368
5579,34496
5580,34368
5581,34112
5582,34048
5583,34176
5584,34368
5585,34496
5586,34432
5587,34176
5588,34176
5589,34176
5590,34240
5591,34304
5592,34304
5593,34560
5594,34624
5595,34560
5596,34688
5597,34752
5598,34624
5599,34432
5600,34368
5601,34368
5602,34560
5603,34688
5604,34752
5605,34624
5606,34368
5607,34240
5608,34176
5609,34112
5610,33984
5611,34048
5612,34304
5613,34752
5614,34688
5615,34944
5616,35008
5617,35072
5618,34944
5619,34752
5620,34688
5621,34688
5622,34688
5623,34880
5624,35008
5625,34944
5626,34816
5627,34752
5628,34752
5629,34688
5630,34432
5631,34368
5632,34496
5633,34752
5634,34752
5635,34304
5636,34176
5637,34304
5638,34368
5639,34496
5640,34624
5641,34496
5642,34304
5643,34240
5644,34240
5645,34176
5646,34112
5647,34304
5648,34496
5649,34368
5650,34112
5651,33856
5652,33792
5653,33856
5654,34048
5655,34432
5656,34752
5657,34816
5658,34496
5659,34304
5660,34240
5661,34304
5662,34496
5663,34560
5664,34432
5665,34368
5666,34496
5667,34688
5668,34624
5669,34368
5670,34176
5671,34176
5672,34048
5673,34048
5674,34176
5675,34304
5676,34112
5677,33920
5678,33984
5679,34048
5680,33984
5681,33984
5682,34176
5683,34432
5684,34560
5685,34688
5686,34880
5687,35072
5688,35072
5689,35072
5690,35136
5691,35200
5692,35136
5693,35264
5694,35456
5695,35456
5696,35136
5697,34624
5698,34048
5699,33792
5700,33920
5701,33984
5702,33856
5703,33408
5704,33152
5705,33024
5706,33088
5707,33344
5708,33536
5709,33728
5710,33792
5711,33984
5712,34112
5713,34048
5714,33792
5715,33856
5716,33920
5717,33920
5718,33792
5719,33600
5720,33728
5721,34432
5722,35648
5723,37248
5724,39360
5725,41280
5726,42304
5727,42176
5728,40128
5729,36992
5730,33984
5731,31616
5732,30272
5733,30144
5734,30528
5735,31104
5736,31744
5737,32448
5738,33088
5739,33408
5740,33536
5741,33664
5742,33792
5743,33984
5744,34112
5745,34176
5746,34304
5747,34240
5748,34176
5749,34176
5750,34240
5751,34304
5752,34304
5753,34368
5754,34368
5755,34368
5756,34176
5757,34176
5758,34176
5759,34176
5760,34368
5761,34304
5762,34048
5763,33856
5764,33856
5765,34112
5766,34368
5767,34432
5768,34368
5769,34304
5770,34432
5771,34560
5772,34688
5773,34688
5774,34560
5775,34432
5776,34368
5777,34496
5778,34688
5779,34816
5780,34816
5781,34816
5782,34752
5783,34816
5784,34880
5785,34944
5786,35008
5787,34944
5788,34816
5789,34624
5790,34560
5791,34624
5792,34752
5793,34880
5794,34880
5795,34880
5796,34944
5797,34880
5798,34816
5799,34752
5800,34560
5801,34240
5802,33984
5803,34048
5804,34368
5805,34560
5806,34432
5807,34112
5808,33728
5809,33536
5810,33408
5811,33536
5812,33728
5813,33984
5814,34176
5815,34304
5816,34176
5817,34176
5818,34176
5819,34176
5820,34048
5821,34048
5822,34112
5823,34240
5824,34432
5825,34496
5826,34368
5827,34304
5828,34240
5829,34176
5830,34112
5831,34304
5832,34496
5833,34560
5834,34432
5835,34176
5836,34048
5837,34048
5838,33984
5839,33920
5840,34112
5841,34368
5842,34496
5843,34432
5844,34304
5845,34176
5846,34048
5847,33920
5848,33920
5849,34048
5850,34112
5851,33984
5852,33856
5853,33920
5854,34048
5855,34240
5856,34368
5857,34432
5858,34432
5859,34368
5860,34368
5861,34496
5862,34624
5863,34624
5864,34432
5865,34560
5866,35008
5867,35392
5868,35520
5869,35520
5870,35456
5871,35392
5872,35072
5873,34624
5874,34048
5875,33344
5876,32832
5877,32512
5878,32384
5879,32512
5880,32832
5881,33088
5882,33280
5883,33536
5884,33600
5885,33600
5886,33664
5887,33728
5888,33792
5889,33920
5890,34368
5891,34816
5892,34816
5893,34304
5894,33664
5895,33152
5896,33216
5897,33856
5898,34944
5899,36480
5900,38400
5901,40192
5902,41216
5903,41024
5904,38912
5905,35968
5906,33536
5907,32192
5908,31552
5909,31552
5910,31744
5911,32064
5912,32640
5913,33280
5914,33728
5915,33792
5916,33728
5917,33728
5918,33856
5919,33920
5920,34048
5921,34048
5922,33856
5923,33536
5924,33600
5925,34048
5926,34496
5927,34688
5928,34560
5929,34368
5930,34240
5931,34176
5932,34176
5933,34176
5934,34176
5935,34304
5936,34496
5937,34432
5938,34304
5939,34304
5940,34368
5941,34496
5942,34752
5943,35008
5944,35008
5945,34688
5946,34240
5947,33920
5948,33856
5949,34112
5950,34368
5951,34560
5952,34688
5953,34752
5954,34752
5955,34880
5956,35008
5957,35072
5958,35008
5959,34944
5960,34944
5961,35008
5962,35008
5963,34880
5964,34624
5965,34432
5966,34496
5967,34688
5968,34880
5969,35072
5970,35200
5971,35200
5972,35072
5973,35008
5974,35008
5975,35136
5976,35072
5977,34816
5978,34624
5979,34368
5980,34112
5981,33920
5982,33792
5983,33792
5984,33920
5985,34048
5986,34176
5987,34368
5988,34560
5989,34560
5990,34432
5991,34496
5992,34432
5993,34304
5994,34240
5995,34240
5996,34240
5997,34240
5998,34240
5999,34368
6000,34496
6001,34496
6002,34432
6003,34560
6004,34624
6005,34560
6006,34496
6007,34432
6008,34368
6009,34240
6010,34240
6011,34240
6012,34368
6013,34304
6014,34176
6015,34368
6016,34432
6017,34368
6018,34240
6019,34240
6020,34368
6021,34368
6022,34240
6023,34112
6024,34112
6025,34176
6026,34176
6027,34304
6028,34560
6029,34624
6030,34368
6031,34112
6032,34112
6033,34432
6034,34624
6035,34432
6036,34368
6037,34432
6038,34368
6039,34304
6040,34304
6041,34432
6042,34560
6043,34688
6044,34752
6045,34816
6046,35008
6047,35200
6048,35456
6049,35584
6050,35584
6051,35328
6052,35008
6053,34944
6054,34880
6055,34752
6056,34496
6057,34048
6058,33856
6059,33792
6060,33792
6061,33600
6062,33344
6063,33344
6064,33344
6065,33472
6066,33664
6067,33792
6068,33792
6069,33856
6070,33984
6071,34112
6072,33984
6073,33856
6074,33792
6075,33600
6076,33408
6077,33280
6078,33664
6079,35072
6080,36928
6081,38912
6082,40704
6083,41536
6084,41344
6085,39296
6086,36160
6087,33344
6088,31744
6089,31104
6090,31040
6091,31424
6092,31936
6093,32384
6094,32704
6095,33024
6096,33344
6097,33728
6098,34048
6099,34112
6100,34176
6101,34304
6102,34304
6103,34368
6104,34368
6105,34240
6106,34048
6107,34048
6108,34176
6109,34240
6110,34048
6111,33920
6112,33920
6113,33920
6114,33984
6115,34112
6116,34176
6117,34176
6118,34240
6119,34240
6120,34240
6121,34240
6122,34240
6123,34304
6124,34368
6125,34368
6126,34304
6127,34304
6128,34368
6129,34432
6130,34432
6131,34432
6132,34432
6133,34496
6134,34624
6135,34688
6136,34688
6137,34688
6138,34624
6139,34688
6140,34688
6141,34880
6142,35136
6143,35136
6144,35008
6145,34880
6146,34752
6147,34560
6148,34432
6149,34432
6150,34560
6151,34624
6152,34624
6153,34624
6154,34560
6155,34496
6156,34432
6157,34368
6158,34432
6159,34496
6160,34304
6161,34240
6162,34176
6163,34112
6164,33984
6165,33920
6166,33920
6167,33984
6168,34112
6169,34176
6170,34176
6171,34176
6172,34240
6173,34368
6174,34496
6175,34560
6176,34560
6177,34624
6178,34688
6179,34752
6180,34752
6181,34432
6182,34240
6183,34304
6184,34304
6185,34304
6186,34368
6187,34432
6188,34240
6189,33920
6190,33792
6191,33856
6192,33920
6193,33856
6194,33920
6195,33984
6196,34176
6197,34240
6198,34240
6199,34176
6200,34112
6201,34048
6202,34240
6203,34560
6204,34880
6205,34944
6206,34944
6207,34880
6208,34816
6209,34816
6210,34688
6211,34432
6212,34112
6213,33920
6214,33920
6215,33920
6216,33984
6217,34176
6218,34432
6219,34624
6220,34880
6221,34880
6222,34496
6223,34240
6224,34176
6225,34368
6226,34624
6227,34880
6228,35072
6229,35328
6230,35648
6231,35904
6232,35968
6233,36032
6234,36032
6235,36096
6236,35968
6237,35520
6238,34944
6239,34368
6240,33728
6241,33088
6242,32768
6243,32896
6244,33216
6245,33536
6246,33728
6247,33856
6248,33856
6249,34112
6250,34624
6251,35008
6252,35008
6253,34624
6254,34240
6255,33920
6256,33728
6257,33664
6258,33728
6259,33536
6260,33280
6261,33792
6262,35264
6263,36864
6264,38912
6265,40640
6266,41664
6267,41664
6268,39680
6269,36480
6270,33728
6271,32000
6272,31168
6273,31104
6274,31360
6275,31552
6276,31680
6277,31936
6278,32512
6279,33024
6280,33088
6281,32960
6282,33216
6283,33600
6284,33792
6285,33664
6286,33728
6287,33856
6288,33920
6289,33664
6290,33280
6291,33088
6292,33152
6293,33088
6294,33088
6295,33280
6296,33472
6297,33536
6298,33408
6299,33344
6300,33344
6301,33344
6302,33408
6303,33728
6304,34112
6305,34432
6306,34368
6307,34112
6308,33984
6309,33856
6310,33856
6311,33984
6312,34176
6313,34560
6314,34880
6315,35008
6316,34880
6317,34880
6318,35136
6319,35520
6320,35712
6321,35456
6322,35136
6323,35072
6324,35072
6325,35008
6326,34944
6327,34944
6328,35136
6329,35136
6330,35072
6331,35264
6332,35712
6333,36224
6334,36160
6335,35712
6336,35328
6337,35072
6338,34624
6339,34368
6340,34496
6341,34752
6342,34752
6343,34624
6344,34304
6345,33920
6346,33984
6347,34176
6348,34176
6349,34048
6350,34176
6351,34368
6352,34432
6353,34432
6354,34560
6355,34560
6356,34688
6357,35008
6358,35328
6359,35264
6360,34752
6361,34304
6362,33984
6363,33984
6364,34176
6365,34496
6366,34624
6367,34560
6368,34560
6369,34688
6370,34688
6371,34752
6372,35136
6373,35200
6374,34624
6375,34048
6376,33856
6377,33792
6378,33600
6379,33408
6380,33472
6381,33728
6382,33920
6383,34368
6384,34752
6385,34752
6386,34368
6387,34176
6388,34112
6389,34176
6390,34368
6391,34688
6392,35008
6393,35136
6394,35008
6395,34816
6396,34496
6397,33984
6398,33856
6399,33984
6400,34368
6401,34560
6402,34368
6403,34368
6404,34624
6405,34560
6406,34176
6407,33856
6408,34112
6409,34496
6410,34816
6411,34944
6412,35328
6413,35648
6414,35904
6415,36096
6416,36096
6417,35648
6418,35200
6419,34816
6420,34432
6421,34048
6422,33856
6423,33728
6424,33472
6425,33408
6426,33600
6427,33408
6428,33088
6429,32832
6430,32960
6431,33152
6432,33472
6433,33664
6434,33792
6435,33984
6436,34304
6437,34432
6438,34304
6439,34304
6440,34496
6441,34432
6442,33856
6443,33472
6444,33664
6445,34304
6446,35648
6447,37568
6448,39424
6449,40576
6450,40832
6451,39488
6452,36864
6453,34240
6454,32832
6455,32064
6456,31680
6457,31616
6458,31808
6459,32320
6460,32832
6461,33088
6462,33216
6463,33280
6464,33344
6465,33600
6466,34240
6467,34432
6468,34112
6469,33984
6470,34304
6471,34688
6472,34496
6473,34304
6474,34304
6475,34176
6476,33728
6477,33408
6478,33408
6479,33728
6480,34176
6481,34240
6482,34240
6483,34368
6484,34432
6485,34304
6486,34368
6487,34368
6488,34176
6489,34112
6490,33984
6491,33984
6492,34304
6493,34624
6494,34752
6495,34816
6496,34880
6497,34816
6498,34496
6499,34240
6500,34304
6501,34496
6502,34624
6503,34560
6504,34432
6505,34368
6506,34432
6507,34432
6508,34496
6509,34624
6510,34752
6511,34880
6512,34944
6513,34944
6514,35008
6515,35072
6516,35264
6517,35328
6518,35456
6519,35456
6520,34560
6521,33984
6522,33792
6523,33664
6524,33856
6525,34304
6526,34240
6527,33984
6528,33664
6529,33536
6530,33664
6531,33792
6532,33920
6533,33984
6534,34112
6535,34304
6536,34560
6537,34560
6538,34368
6539,34176
6540,34240
6541,34368
6542,34304
6543,34304
6544,34304
6545,34240
6546,34368
6547,34176
6548,33856
6549,33728
6550,33856
6551,33856
6552,33984
6553,34048
6554,34176
6555,34624
6556,34688
6557,34560
6558,34304
6559,34112
6560,33920
6561,33984
6562,34496
6563,34624
6564,34304
6565,33856
6566,33600
6567,33536
6568,33536
6569,33728
6570,33984
6571,34112
6572,34240
6573,34304
6574,34304
6575,34368
6576,34560
6577,34560
6578,34304
6579,34240
6580,34432
6581,34560
6582,34496
6583,34432
6584,34304
6585,33920
6586,33664
6587,33600
6588,33664
6589,33600
6590,33536
6591,33536
6592,33600
6593,33600
6594,33728
6595,33984
6596,34240
6597,34368
6598,34496
6599,34624
6600,34752
6601,34880
6602,34880
6603,34752
6604,34688
6605,34688
6606,34944
6607,35584
6608,36416
6609,36352
6610,35584
6611,34816
6612,34304
6613,33920
6614,33408
6615,33152
6616,33024
6617,32960
6618,32896
6619,32832
6620,32960
6621,33344
6622,33728
6623,33792
6624,33728
6625,33664
6626,33600
6627,33664
6628,33984
6629,34240
6630,34368
6631,34240
6632,33856
6633,33472
6634,33344
6635,33344
6636,33664
6637,35200
6638,36544
6639,38784
6640,40896
6641,42048
6642,41792
6643,39552
6644,36352
6645,33472
6646,31616
6647,30912
6648,31040
6649,31360
6650,31680
6651,31872
6652,32192
6653,32640
6654,33024
6655,33408
6656,33792
6657,34176
6658,34432
6659,34432
6660,34304
6661,34112
6662,34304
6663,34688
6664,34560
6665,34112
6666,33792
6667,33664
6668,33792
6669,34048
6670,34240
6671,34432
6672,34432
6673,34240
6674,34240
6675,34368
6676,34560
6677,34432
6678,34304
6679,34304
6680,34240
6681,34048
6682,34112
6683,34112
6684,34112
6685,34176
6686,34304
6687,34496
6688,34560
6689,34560
6690,34432
6691,34432
6692,34560
6693,34880
6694,35264
6695,35456
6696,35136
6697,34688
6698,34496
6699,34432
6700,34560
6701,34880
6702,35136
6703,35200
6704,35136
6705,34816
6706,34624
6707,34624
6708,34688
6709,34816
6710,35008
6711,35008
6712,35008
6713,34944
6714,34624
6715,34496
6716,34560
6717,34560
6718,34432
6719,34176
6720,33856
6721,33792
6722,33920
6723,34048
6724,34048
6725,33920
6726,33664
6727,33856
6728,34048
6729,34176
6730,34048
6731,34048
6732,34368
6733,34496
6734,34304
6735,34048
6736,33984
6737,34048
6738,34048
6739,34112
6740,34304
6741,34432
6742,34176
6743,33984
6744,33984
6745,34048
6746,34112
6747,34176
6748,34240
6749,34176
6750,34240
6751,34432
6752,34688
6753,34688
6754,34624
6755,34624
6756,34432
6757,34112
6758,33920
6759,33920
6760,34048
6761,33984
6762,33856
6763,33920
6764,34112
6765,34176
6766,34048
6767,34048
6768,34176
6769,34048
6770,33856
6771,33856
6772,34112
6773,34368
6774,34560
6775,34624
6776,34560
6777,34432
6778,34176
6779,33920
6780,33792
6781,33728
6782,33920
6783,34496
6784,34880
6785,34752
6786,34688
6787,34944
6788,35136
6789,35392
6790,35584
6791,35712
6792,35712
6793,35648
6794,35584
6795,35328
6796,34816
6797,34048
6798,33408
6799,33216
6800,33344
6801,33344
6802,33216
6803,33088
6804,33152
6805,33344
6806,33600
6807,33536
6808,33472
6809,33728
6810,33856
6811,33728
6812,33728
6813,33920
6814,34176
6815,34176
6816,33920
6817,33600
6818,33408
6819,33472
6820,33984
6821,35136
6822,37056
6823,39232
6824,40896
6825,41536
6826,40704
6827,38272
6828,35264
6829,32896
6830,31488
6831,31104
6832,31744
6833,32064
6834,32192
6835,32192
6836,32320
6837,32640
6838,32960
6839,33472
6840,33856
6841,34048
6842,33984
6843,33856
6844,33856
6845,33984
6846,34048
6847,34240
6848,34176
6849,34176
6850,34112
6851,33920
6852,33792
6853,33728
6854,33856
6855,34048
6856,34368
6857,34496
6858,34432
6859,34304
6860,34112
6861,34112
6862,34176
6863,34176
6864,34112
6865,34112
6866,34240
6867,34240
6868,34240
6869,34240
6870,34304
6871,34432
6872,34624
6873,34688
6874,34688
6875,34688
6876,34752
6877,34752
6878,34752
6879,34752
6880,34688
6881,34624
6882,34688
6883,34752
6884,34816
6885,34880
6886,34880
6887,34816
6888,34752
6889,34816
6890,34944
6891,35008
6892,35008
6893,34816
6894,34752
6895,34880
6896,34944
6897,34880
6898,34816
6899,34752
6900,34496
6901,34176
6902,33920
6903,33792
6904,33728
6905,33600
6906,33472
6907,33536
6908,33856
6909,34240
6910,34304
6911,34368
6912,34496
6913,34432
6914,34112
6915,33920
6916,33984
6917,34112
6918,33984
6919,33920
6920,33984
6921,34112
6922,34304
6923,34368
6924,34176
6925,34112
6926,34112
6927,34112
6928,34048
6929,34048
6930,34176
6931,34368
6932,34432
6933,34304
6934,34176
6935,33984
6936,33856
6937,34048
6938,34176
6939,34176
6940,34240
6941,34496
6942,34624
6943,34496
6944,34432
6945,34368
6946,34368
6947,34304
6948,34240
6949,34240
6950,34304
6951,34304
6952,34176
6953,34112
6954,34112
6955,34176
6956,34432
6957,34624
6958,34560
6959,34368
6960,34112
6961,34048
6962,34112
6963,34048
6964,33920
6965,33920
6966,34112
6967,34240
6968,34304
6969,34368
6970,34560
6971,34752
6972,34816
6973,34880
6974,35008
6975,35136
6976,35264
6977,35136
6978,35136
6979,35392
6980,35328
6981,35008
6982,34624
6983,34432
6984,34304
6985,34240
6986,34112
6987,34048
6988,33984
6989,33920
6990,33856
6991,33792
6992,33664
6993,33536
6994,33472
6995,33536
6996,33600
6997,33408
6998,33280
6999,33280
7000,33472
7001,33600
7002,33536
7003,33344
7004,33216
7005,33280
7006,33856
7007,35008
7008,36864
7009,38912
7010,40576
7011,41472
7012,41280
7013,39296
7014,36288
7015,33600
7016,32000
7017,31296
7018,31168
7019,31488
7020,32128
7021,32832
7022,33408
7023,33984
7024,34432
7025,34752
7026,34560
7027,34240
7028,34112
7029,34112
7030,34112
7031,34048
7032,34112
7033,34240
7034,34176
7035,33984
7036,34112
7037,34304
7038,34368
7039,34240
7040,34432
7041,34880
7042,35072
7043,34816
7044,34432
7045,34240
7046,34240
7047,34240
7048,34368
7049,34688
7050,34880
7051,34816
7052,34624
7053,34688
7054,34688
7055,34304
7056,33856
7057,33792
7058,33920
7059,34240
7060,34368
7061,34432
7062,34688
7063,35008
7064,35136
7065,35264
7066,35392
7067,35264
7068,35136
7069,35136
7070,35072
7071,35072
7072,35136
7073,35072
7074,34944
7075,35072
7076,35136
7077,34944
7078,34816
7079,34816
7080,35072
7081,35200
7082,35136
7083,35200
7084,35264
7085,35200
7086,35136
7087,35200
7088,35136
7089,34944
7090,34752
7091,34880
7092,34944
7093,34752
7094,34496
7095,34432
7096,34432
7097,34496
7098,34560
7099,34688
7100,34752
7101,34752
7102,34752
7103,34880
7104,35136
7105,35264
7106,35136
7107,34752
7108,34624
7109,34688
7110,34752
7111,34688
7112,34688
7113,34688
7114,34624
7115,34624
7116,34816
7117,34944
7118,34880
7119,34688
7120,34560
7121,34560
7122,34432
7123,34240
7124,34240
7125,34304
7126,34240
7127,34176
7128,34176
7129,34368
7130,34432
7131,34368
7132,34368
7133,34496
7134,34496
7135,34368
7136,34112
7137,34048
7138,34112
7139,34304
7140,34560
7141,34880
7142,35200
7143,35072
7144,34688
7145,34432
7146,34240
7147,34112
7148,34048
7149,34176
7150,34688
7151,35200
7152,35456
7153,35328
7154,35136
7155,34880
7156,34752
7157,34880
7158,35264
7159,35584
7160,35840
7161,35968
7162,35968
7163,35968
7164,35776
7165,35328
7166,34560
7167,33728
7168,33152
7169,32960
7170,33088
7171,33280
7172,33664
7173,33984
7174,34240
7175,34560
7176,34816
7177,35072
7178,35136
7179,34752
7180,34240
7181,33856
7182,33408
7183,33024
7184,32576
7185,32384
7186,32768
7187,33920
7188,35712
7189,37568
7190,39488
7191,41152
7192,42048
7193,41792
7194,39872
7195,36864
7196,34240
7197,32256
7198,31296
7199,31296
7200,31808
7201,32192
7202,32384
7203,32960
7204,33536
7205,33920
7206,33792
7207,33536
7208,33536
7209,33728
7210,33920
7211,33920
7212,33920
7213,33920
7214,33984
7215,34048
7216,34304
7217,34368
7218,34240
7219,34112
7220,33984
7221,33984
7222,33984
7223,33856
7224,33792
7225,33664
7226,33536
7227,33536
7228,33600
7229,33728
7230,33856
7231,33984
7232,34048
7233,34048
7234,34048
7235,34112
7236,34432
7237,34880
7238,34944
7239,34688
7240,34496
7241,34496
7242,34496
7243,34496
7244,34560
7245,34368
7246,33792
7247,33472
7248,33728
7249,34112
7250,33920
7251,33728
7252,33792
7253,33984
7254,34112
7255,34240
7256,34624
7257,35008
7258,35200
7259,35200
7260,35264
7261,35200
7262,34560
7263,33792
7264,33728
7265,33600
7266,33536
7267,33408
7268,33344
7269,33152
7270,33088
7271,33216
7272,33408
7273,33472
7274,33280
7275,33152
7276,33280
7277,33536
7278,33472
7279,33536
7280,33472
7281,33728
7282,34048
7283,33984
7284,34176
7285,34176
7286,34176
7287,34304
7288,34368
7289,33984
7290,33408
7291,33024
7292,32896
7293,32896
7294,32832
7295,33152
7296,33344
7297,33600
7298,33728
7299,33664
7300,33536
7301,33472
7302,33536
7303,33536
7304,33664
7305,33792
7306,33920
7307,34048
7308,34176
7309,34112
7310,34112
7311,34176
7312,33984
7313,33600
7314,33280
7315,33216
7316,33472
7317,33664
7318,33728
7319,33856
7320,33792
7321,33600
7322,33408
7323,33344
7324,33472
7325,33600
7326,33664
7327,33792
7328,33856
7329,33920
7330,34112
7331,34368
7332,34560
7333,34560
7334,34496
7335,34496
7336,34624
7337,34752
7338,34880
7339,34944
7340,35008
7341,34880
7342,34560
7343,33984
7344,33408
7345,33024
7346,32832
7347,32768
7348,32960
7349,33344
7350,33280
7351,33280
7352,32448
7353,32320
7354,32448
7355,32704
7356,33088
7357,33536
7358,33728
7359,33856
7360,33984
7361,34112
7362,34112
7363,33920
7364,33536
7365,33280
7366,33856
7367,35136
7368,36992
7369,39040
7370,40832
7371,41856
7372,41600
7373,39680
7374,36800
7375,34240
7376,32448
7377,31552
7378,31424
7379,31616
7380,32192
7381,33024
7382,33600
7383,33792
7384,33856
7385,33856
7386,33920
7387,34048
7388,34304
7389,34496
7390,34560
7391,34688
7392,34752
7393,34688
7394,34624
7395,34432
7396,34176
7397,34048
7398,34048
7399,34112
7400,34240
7401,34368
7402,34368
7403,34496
7404,34688
7405,34816
7406,34688
7407,34624
7408,34560
7409,34496
7410,34624
7411,34752
7412,34752
7413,34560
7414,34240
7415,34112
7416,34176
7417,34368
7418,34496
7419,34560
7420,34688
7421,34944
7422,34816
7423,34816
7424,35008
7425,35264
7426,35264
7427,35136
7428,34944
7429,34816
7430,34752
7431,34752
7432,34688
7433,34624
7434,34560
7435,34688
7436,34880
7437,35200
7438,35328
7439,35200
7440,35008
7441,34944
7442,34752
7443,34432
7444,34304
7445,34304
7446,34176
7447,34176
7448,34304
7449,34368
7450,34240
7451,33984
7452,33856
7453,33920
7454,33792
7455,33344
7456,32960
7457,32832
7458,32896
7459,33280
7460,33856
7461,34240
7462,34176
7463,33920
7464,33792
7465,33920
7466,34240
7467,34304
7468,33984
7469,33728
7470,33792
7471,33984
7472,33984
7473,33984
7474,33920
7475,33856
7476,33600
7477,33472
7478,33536
7479,33664
7480,33664
7481,33664
7482,33792
7483,34176
7484,34432
7485,34496
7486,34240
7487,33984
7488,33664
7489,33664
7490,33856
7491,33984
7492,34048
7493,34048
7494,33984
7495,33792
7496,33600
7497,33536
7498,33472
7499,33344
7500,33344
7501,33472
7502,33728
7503,33920
7504,34048
7505,34176
7506,34368
7507,34560
7508,34688
7509,34816
7510,34944
7511,35008
7512,35008
7513,34944
7514,34816
7515,34816
7516,34816
7517,34752
7518,34432
7519,33920
7520,33472
7521,33088
7522,33024
7523,33024
7524,33024
7525,33152
7526,33344
7527,33408
7528,33408
7529,33280
7530,33280
7531,33664
7532,33856
7533,33664
7534,33408
7535,33344
7536,33344
7537,33344
7538,33280
7539,33152
7540,33216
7541,33408
7542,33984
7543,35008
7544,36544
7545,38528
7546,40192
7547,41024
7548,40704
7549,38976
7550,36224
7551,33664
7552,32064
7553,31168
7554,30976
7555,31296
7556,31616
7557,31808
7558,31936
7559,32256
7560,32832
7561,33344
7562,33536
7563,33600
7564,33600
7565,33728
7566,33920
7567,34048
7568,33920
7569,33792
7570,33728
7571,33728
7572,33792
7573,33856
7574,33984
7575,33984
7576,33984
7577,33984
7578,33856
7579,33792
7580,33792
7581,33920
7582,33984
7583,33984
7584,34048
7585,34112
7586,34304
7587,34304
7588,34176
7589,34112
7590,34176
7591,34240
7592,34368
7593,34368
7594,34368
7595,34368
7596,34368
7597,34432
7598,34560
7599,34624
7600,34624
7601,34560
7602,34496
7603,34560
7604,34816
7605,34944
7606,34944
7607,35072
7608,35072
7609,34944
7610,34880
7611,35072
7612,35264
7613,35200
7614,34880
7615,34752
7616,34688
7617,34560
7618,34432
7619,34560
7620,34560
7621,34240
7622,33792
7623,33472
7624,33600
7625,33984
7626,34112
7627,33728
7628,33472
7629,33408
7630,33344
7631,33536
7632,33728
7633,33792
7634,33984
7635,33984
7636,33792
7637,33600
7638,33664
7639,33920
7640,34176
7641,34368
7642,34432
7643,34240
7644,34048
7645,33856
7646,33856
7647,34048
7648,34368
7649,34368
7650,34176
7651,34176
7652,34176
7653,34432
7654,34816
7655,34752
7656,34368
7657,33856
7658,33664
7659,33792
7660,33792
7661,33792
7662,33920
7663,33920
7664,33920
7665,33856
7666,33856
7667,33792
7668,33856
7669,34304
7670,34688
7671,34496
7672,34112
7673,34048
7674,34176
7675,34432
7676,34560
7677,34624
7678,34624
7679,34752
7680,34944
7681,35200
7682,35520
7683,35712
7684,35648
7685,35264
7686,34944
7687,34560
7688,34368
7689,34176
7690,33984
7691,33792
7692,33600
7693,33344
7694,33088
7695,32832
7696,32832
7697,33152
7698,33408
7699,33536
7700,33472
7701,33344
7702,33216
7703,33280
7704,33600
7705,33728
7706,33600
7707,33472
7708,33408
7709,33344
7710,33216
7711,33152
7712,33600
7713,34688
7714,36288
7715,38336
7716,40192
7717,41408
7718,41536
7719,40064
7720,37312
7721,34560
7722,32512
7723,31424
7724,31232
7725,31360
7726,31488
7727,31488
7728,31616
7729,31872
7730,32320
7731,32832
7732,33344
7733,33600
7734,33792
7735,33792
7736,33728
7737,33856
7738,34112
7739,34304
7740,34176
7741,33984
7742,34304
7743,34944
7744,35136
7745,34496
7746,33792
7747,33600
7748,33728
7749,33664
7750,33536
7751,33536
7752,33536
7753,33472
7754,33536
7755,33728
7756,34112
7757,34752
7758,35136
7759,35008
7760,34560
7761,34176
7762,34176
7763,34112
7764,34112
7765,34240
7766,34496
7767,34816
7768,35136
7769,35264
7770,35392
7771,36032
7772,36352
7773,35584
7774,34496
7775,33984
7776,33984
7777,33984
7778,34112
7779,34368
7780,34688
7781,35136
7782,35776
7783,35776
7784,35200
7785,34624
7786,34432
7787,34432
7788,34304
7789,34176
7790,34048
7791,33792
7792,33664
7793,33600
7794,33472
7795,33664
7796,33728
7797,33792
7798,34240
7799,34816
7800,34624
7801,34048
7802,33984
7803,34112
7804,33792
7805,33216
7806,32896
7807,33024
7808,33344
7809,33664
7810,34112
7811,34304
7812,34112
7813,33920
7814,33792
7815,33792
7816,33984
7817,33920
7818,33792
7819,33984
7820,34560
7821,34944
7822,34624
7823,34112
7824,33984
7825,34112
7826,34048
7827,33920
7828,33792
7829,33664
7830,33728
7831,33792
7832,33984
7833,34368
7834,34560
7835,34752
7836,34688
7837,34496
7838,34368
7839,34368
7840,34432
7841,34176
7842,33984
7843,33920
7844,33920
7845,34048
7846,33920
7847,33472
7848,33408
7849,33664
7850,33856
7851,34112
7852,34304
7853,34304
7854,34176
7855,34176
7856,34240
7857,34496
7858,34944
7859,35392
7860,35584
7861,35520
7862,35264
7863,34752
7864,34176
7865,33728
7866,33536
7867,33152
7868,32768
7869,32384
7870,32064
7871,31872
7872,31872
7873,32064
7874,32000
7875,31424
7876,30848
7877,30464
7878,30656
7879,30784
7880,30784
7881,30656
7882,30656
7883,30784
7884,31360
7885,31744
7886,32128
7887,32320
7888,32192
7889,32064
7890,32320
7891,33344
7892,35328
7893,37568
7894,38976
7895,39616
7896,39104
7897,37120
7898,34368
7899,31808
7900,30144
7901,29504
7902,29824
7903,30528
7904,31104
7905,31424
7906,31936
7907,32448
7908,32704
7909,32704
7910,32832
7911,33024
7912,33152
7913,33408
7914,33600
7915,33792
7916,33664
7917,33472
7918,33216
7919,33024
7920,33152
7921,33280
7922,33536
7923,34048
7924,33920
7925,33344
7926,32704
7927,32384
7928,32512
7929,32960
7930,33152
7931,33280
7932,33600
7933,34048
7934,34240
7935,34112
7936,33792
7937,33408
7938,33088
7939,33088
7940,33216
7941,33472
7942,33728
7943,33856
7944,33920
7945,33984
7946,34112
7947,34240
7948,34112
7949,33728
7950,33344
7951,32768
7952,31808
7953,30528
7954,29376
7955,28992
7956,29440
7957,30400
7958,31104
7959,31296
7960,31488
7961,32000
7962,32704
7963,33280
7964,33408
7965,32960
7966,32576
7967,32384
7968,32128
7969,31936
7970,32064
7971,32640
7972,33536
7973,34304
7974,34624
7975,34496
7976,34432
7977,34880
7978,35648
7979,35648
7980,34688
7981,33920
7982,33792
7983,33856
7984,33920
7985,34048
7986,34624
7987,34944
7988,34624
7989,34560
7990,34752
7991,34816
7992,34752
7993,35136
7994,35456
7995,35456
7996,35392
7997,35328
7998,35200
7999,35264
8000,35712
8001,36160
8002,36096
8003,35584
8004,35328
8005,35648
8006,35968
8007,36032
8008,36032
8009,36288
8010,36672
8011,37312
8012,38080
8013,38592
8014,38528
8015,37952
8016,37632
8017,37568
8018,36928
8019,35712
8020,34880
8021,34944
8022,35328
8023,35328
8024,35328
8025,35264
8026,35072
8027,34944
8028,34880
8029,34816
8030,34944
8031,35136
8032,35200
8033,35136
8034,35200
8035,35072
8036,34496
8037,33728
8038,33344
8039,33024
8040,32640
8041,32384
8042,32384
8043,32576
8044,32768
8045,33024
8046,33536
8047,34176
8048,34624
8049,34944
8050,35136
8051,35008
8052,35200
8053,35968
8054,36608
8055,36544
8056,36032
8057,35648
8058,35520
8059,35392
8060,35264
8061,35264
8062,35072
8063,34688
8064,34176
8065,33984
8066,34624
8067,35456
8068,35968
8069,35968
8070,35520
8071,35136
8072,35136
8073,35392
8074,35712
8075,36096
8076,36224
8077,35968
8078,35456
8079,34688
8080,34496
8081,34880
8082,35392
8083,36224
8084,37760
8085,39744
8086,41984
8087,43840
8088,44928
8089,44416
8090,41856
8091,38336
8092,35328
8093,33728
8094,32768
8095,32320
8096,32448
8097,33344
8098,34688
8099,36288
8100,37888
8101,39232
8102,40128
8103,40320
8104,39616
8105,38080
8106,36416
8107,34880
8108,33728
8109,33088
8110,33088
8111,33792
8112,34752
8113,35520
8114,35776
8115,35776
8116,35520
8117,35392
8118,35392
8119,35456
8120,35392
8121,35072
8122,34496
8123,33792
8124,33088
8125,32896
8126,33344
8127,34048
8128,34496
8129,34496
8130,34432
8131,34560
8132,35008
8133,35200
8134,34816
8135,34560
8136,34432
8137,33920
8138,33536
8139,33344
8140,33536
8141,33856
8142,34048
8143,34112
8144,34176
8145,34368
8146,34560
8147,34624
8148,34944
8149,35328
8150,35392
8151,35200
8152,35520
8153,35648
8154,35136
8155,34304
8156,33792
8157,33728
8158,33728
8159,33856
8160,33984
8161,33856
8162,33344
8163,32704
8164,32256
8165,32256
8166,32448
8167,32576
8168,32960
8169,32896
8170,32384
8171,32128
8172,32384
8173,32896
8174,33536
8175,33856
8176,33792
8177,33472
8178,33024
8179,32704
8180,32448
8181,32384
8182,32576
8183,32832
8184,33152
8185,33344
8186,33408
8187,33664
8188,33920
8189,33856
8190,33600
8191,33344
8192,33152
8193,32960
8194,33088
8195,33280
8196,33216
8197,33472
8198,33920
8199,34112
8200,33984
8201,34112
8202,34304
8203,34176
8204,33792
8205,33408
8206,33344
8207,33536
8208,33728
8209,33792
8210,33536
8211,33216
8212,33088
8213,33216
8214,33408
8215,33408
8216,33408
8217,33600
8218,34112
8219,34496
8220,34880
8221,34880
8222,34560
8223,34368
8224,34368
8225,34368
8226,34240
8227,34624
8228,35584
8229,35968
8230,35520
8231,35008
8232,35200
8233,35648
8234,35456
8235,34752
8236,34176
8237,34048
8238,34240
8239,34432
8240,34368
8241,34112
8242,33728
8243,33536
8244,33600
8245,33536
8246,33280
8247,32896
8248,32704
8249,33024
8250,33280
8251,33408
8252,33344
8253,33408
8254,33664
8255,33984
8256,34112
8257,34048
8258,33984
8259,34048
8260,33920
8261,33664
8262,33408
8263,33152
8264,33664
8265,34688
8266,35968
8267,37632
8268,39424
8269,40832
8270,41216
8271,40192
8272,37696
8273,34688
8274,32384
8275,31424
8276,31040
8277,30848
8278,31104
8279,31552
8280,31872
8281,32064
8282,32320
8283,32640
8284,33344
8285,34240
8286,34624
8287,34176
8288,33984
8289,34048
8290,34176
8291,34368
8292,34368
8293,34368
8294,34304
8295,34048
8296,33856
8297,33920
8298,33984
8299,33856
8300,33600
8301,33536
8302,33728
8303,34048
8304,34368
8305,34496
8306,34304
8307,33920
8308,33856
8309,34048
8310,34240
8311,34496
8312,34752
8313,34816
8314,34752
8315,34752
8316,35008
8317,35136
8318,34752
8319,34304
8320,34176
8321,34240
8322,34176
8323,34304
8324,34752
8325,35264
8326,35456
8327,35392
8328,35264
8329,35072
8330,34752
8331,34560
8332,34624
8333,35008
8334,35520
8335,35968
8336,35968
8337,35584
8338,35264
8339,34944
8340,34496
8341,34368
8342,34560
8343,34624
8344,34368
8345,33856
8346,33408
8347,33152
8348,33216
8349,33536
8350,34112
8351,34304
8352,33920
8353,33664
8354,33984
8355,34240
8356,34176
8357,33984
8358,33792
8359,33600
8360,33664
8361,33984
8362,34240
8363,34304
8364,34176
8365,33920
8366,33600
8367,33536
8368,33792
8369,33984
8370,33920
8371,33920
8372,34240
8373,34880
8374,35072
8375,34880
8376,34304
8377,33920
8378,33856
8379,33664
8380,33472
8381,33472
8382,33792
8383,34304
8384,34560
8385,34496
8386,34368
8387,34176
8388,33856
8389,33664
8390,33792
8391,34048
8392,34176
8393,34240
8394,34304
8395,34240
8396,34112
8397,34112
8398,34176
8399,34176
8400,33984
8401,34048
8402,34240
8403,34432
8404,34176
8405,33920
8406,34112
8407,34560
8408,34688
8409,34560
8410,34304
8411,34112
8412,33984
8413,33728
8414,33536
8415,33664
8416,34048
8417,34496
8418,34304
8419,33920
8420,33728
8421,33728
8422,33920
8423,34176
8424,34496
8425,34560
8426,34304
8427,34048
8428,34048
8429,34304
8430,34304
8431,34048
8432,33664
8433,33664
8434,33792
8435,33920
8436,34240
8437,34432
8438,34304
8439,34240
8440,34240
8441,34048
8442,33984
8443,33920
8444,34176
8445,34752
8446,35072
8447,34880
8448,34624
8449,34624
8450,34496
8451,34112
8452,33856
8453,33984
8454,34176
8455,34304
8456,34496
8457,34816
8458,35008
8459,34944
8460,34880
8461,35008
8462,35264
8463,35520
8464,35712
8465,35776
8466,35840
8467,35648
8468,35456
8469,35392
8470,35456
8471,35264
8472,34688
8473,34048
8474,33664
8475,33408
8476,33216
8477,33216
8478,33472
8479,33600
8480,33600
8481,33728
8482,34112
8483,34560
8484,34880
8485,34880
8486,34688
8487,34688
8488,34624
8489,34240
8490,33728
8491,33728
8492,33792
8493,33664
8494,34048
8495,35328
8496,36992
8497,39360
8498,40832
8499,41984
8500,42304
8501,41024
8502,38144
8503,34944
8504,32512
8505,31168
8506,30912
8507,31168
8508,31616
8509,31936
8510,32256
8511,32576
8512,33024
8513,33344
8514,33728
8515,34048
8516,34240
8517,34368
8518,34560
8519,34688
8520,34624
8521,34560
8522,34368
8523,33856
8524,33664
8525,33728
8526,34048
8527,34240
8528,34304
8529,34368
8530,34368
8531,34304
8532,34176
8533,33984
8534,33920
8535,33984
8536,34112
8537,34304
8538,34496
8539,34624
8540,34880
8541,34880
8542,34496
8543,34048
8544,33856
8545,33856
8546,34048
8547,34432
8548,34752
8549,34816
8550,34816
8551,35008
8552,35072
8553,34944
8554,34752
8555,34560
8556,34496
8557,34688
8558,34880
8559,35264
8560,35456
8561,35392
8562,35264
8563,35072
8564,34944
8565,35136
8566,35520
8567,35648
8568,35392
8569,35072
8570,34688
8571,34368
8572,34240
8573,34240
8574,34304
8575,34176
8576,34112
8577,34176
8578,34368
8579,34432
8580,34304
8581,34112
8582,33984
8583,33792
8584,33728
8585,33920
8586,34432
8587,34624
8588,34304
8589,34048
8590,34048
8591,34176
8592,34432
8593,34432
8594,34112
8595,33472
8596,33024
8597,32704
8598,32832
8599,33280
8600,33792
8601,34112
8602,34240
8603,34304
8604,34432
8605,34496
8606,34560
8607,34752
8608,34688
8609,34432
8610,34176
8611,33920
8612,33792
8613,33856
8614,34048
8615,34176
8616,34240
8617,34240
8618,34240
8619,34304
8620,34240
8621,33984
8622,33792
8623,33920
8624,34176
8625,34496
8626,34752
8627,34752
8628,34560
8629,34176
8630,33792
8631,33856
8632,34496
8633,34752
8634,34624
8635,34240
8636,34048
8637,33856
8638,33600
8639,33408
8640,33472
8641,33792
8642,33920
8643,33984
8644,33984
8645,34304
8646,34624
8647,34624
8648,34368
8649,33984
8650,33856
8651,33920
8652,34048
8653,34496
8654,34688
8655,34560
8656,34240
8657,33856
8658,33664
8659,33856
8660,34048
8661,34240
8662,34304
8663,34240
8664,34176
8665,34240
8666,34304
8667,34304
8668,34368
8669,34368
8670,34368
8671,34304
8672,34240
8673,34112
8674,33984
8675,34112
8676,34432
8677,34624
8678,34752
8679,35136
8680,35520
8681,35712
8682,35520
8683,35136
8684,34944
8685,34816
8686,34496
8687,34304
8688,34112
8689,33984
8690,33856
8691,33728
8692,33728
8693,33664
8694,33536
8695,33408
8696,33088
8697,33088
8698,33408
8699,33792
8700,33920
8701,33792
8702,33728
8703,33792
8704,33728
8705,33664
8706,33728
8707,33728
8708,33536
8709,33216
8710,33024
8711,33408
8712,34560
8713,36416
8714,38720
8715,40768
8716,42112
8717,42240
8718,40640
8719,37312
8720,34624
8721,32448
8722,31616
8723,31680
8724,31616
8725,31488
8726,31488
8727,31744
8728,32512
8729,33344
8730,33600
8731,33536
8732,33728
8733,33920
8734,33856
8735,33728
8736,33920
8737,34368
8738,34560
8739,34752
8740,34816
8741,34496
8742,33856
8743,33536
8744,33600
8745,33856
8746,34432
8747,34816
8748,34304
8749,33856
8750,33664
8751,33664
8752,33536
8753,33472
8754,33600
8755,33792
8756,34048
8757,34368
8758,34624
8759,34624
8760,34752
8761,35008
8762,35072
8763,34944
8764,34752
8765,34624
8766,34688
8767,34624
8768,34496
8769,34688
8770,34944
8771,35008
8772,35200
8773,35328
8774,35456
8775,35456
8776,35136
8777,34752
8778,34560
8779,34496
8780,34752
8781,35200
8782,35584
8783,35520
8784,35136
8785,34752
8786,34624
8787,34432
8788,34304
8789,34176
8790,34240
8791,34432
8792,34496
8793,34368
8794,34304
8795,34176
8796,34112
8797,34112
8798,34112
8799,34112
8800,34368
8801,34624
8802,34304
8803,33472
8804,33024
8805,32832
8806,32768
8807,33024
8808,33536
8809,34112
8810,34368
8811,34304
8812,34112
8813,34048
8814,34048
8815,33984
8816,34176
8817,34688
8818,34624
8819,33984
8820,33600
8821,33792
8822,34240
8823,34496
8824,34304
8825,34112
8826,34176
8827,34240
8828,34304
8829,34432
8830,34368
8831,33920
8832,33664
8833,33984
8834,34560
8835,34688
8836,34560
8837,34368
8838,34240
8839,34112
8840,33984
8841,34176
8842,34496
8843,34496
8844,34304
8845,34240
8846,34240
8847,34240
8848,33984
8849,33856
8850,33856
8851,34176
8852,34496
8853,34624
8854,34432
8855,34176
8856,34048
8857,33728
8858,33664
8859,33856
8860,34112
8861,34496
8862,34880
8863,34944
8864,34816
8865,34688
8866,34496
8867,34304
8868,34048
8869,33728
8870,33728
8871,34048
8872,34048
8873,33984
8874,34112
8875,34368
8876,34304
8877,34112
8878,34240
8879,34432
8880,34560
8881,34624
8882,34752
8883,35072
8884,34816
8885,34304
8886,33920
8887,33856
8888,34176
8889,34688
8890,34880
8891,34560
8892,34176
8893,33984
8894,33856
8895,33728
8896,33664
8897,33984
8898,34368
8899,34496
8900,34688
8901,34880
8902,34752
8903,34624
8904,34560
8905,34688
8906,35008
8907,35328
8908,35520
8909,35520
8910,35520
8911,35520
8912,35520
8913,35136
8914,34496
8915,34240
8916,34112
8917,33472
8918,33216
8919,32896
8920,32640
8921,32768
8922,33152
8923,33664
8924,34176
8925,34432
8926,34176
8927,33792
8928,33600
8929,33728
8930,33856
8931,34048
8932,34496
8933,34496
8934,34496
8935,34304
8936,34112
8937,34496
8938,35136
8939,36480
8940,38592
8941,40448
8942,41536
8943,41280
8944,39232
8945,36608
8946,33984
8947,31488
8948,31104
8949,31168
8950,31552
8951,31936
8952,32256
8953,32704
8954,33280
8955,33728
8956,33920
8957,33920
8958,33792
8959,33728
8960,33664
8961,33536
8962,33472
8963,33664
8964,33856
8965,34048
8966,34176
8967,34432
8968,34944
8969,35392
8970,35584
8971,35008
8972,34048
8973,33344
8974,33216
8975,33472
8976,33600
8977,33280
8978,33280
8979,33600
8980,34048
8981,34304
8982,34304
8983,34560
8984,35008
8985,35072
8986,34816
8987,34432
8988,34112
8989,34048
8990,34368
8991,35008
8992,35456
8993,35200
8994,34752
8995,34304
8996,33920
8997,33792
8998,34048
8999,34560
9000,34816
9001,35200
9002,35520
9003,35328
9004,35136
9005,35136
9006,34880
9007,34816
9008,34944
9009,34816
9010,34624
9011,34752
9012,35136
9013,35456
9014,35328
9015,34944
9016,34624
9017,34688
9018,34880
9019,34752
9020,34304
9021,33600
9022,33024
9023,33088
9024,33472
9025,34048
9026,34752
9027,34752
9028,34240
9029,33920
9030,33856
9031,33728
9032,33728
9033,33728
9034,33792
9035,33984
9036,34048
9037,33984
9038,33920
9039,34048
9040,34496
9041,34880
9042,34944
9043,34688
9044,34624
9045,35136
9046,35712
9047,35392
9048,34496
9049,34048
9050,34112
9051,34176
9052,33728
9053,33600
9054,33856
9055,34112
9056,34304
9057,34752
9058,35328
9059,35712
9060,35520
9061,35136
9062,35072
9063,34752
9064,34176
9065,33920
9066,34112
9067,33920
9068,33792
9069,34176
9070,35008
9071,35008
9072,34624
9073,34304
9074,34560
9075,35008
9076,34560
9077,33536
9078,32960
9079,32896
9080,33216
9081,33536
9082,34432
9083,34496
9084,35136
9085,34688
9086,34496
9087,34752
9088,34944
9089,34752
9090,34368
9091,33984
9092,33792
9093,33920
9094,34304
9095,34816
9096,34944
9097,34688
9098,34624
9099,34560
9100,34112
9101,33792
9102,33792
9103,33984
9104,34240
9105,34496
9106,34944
9107,35136
9108,34688
9109,34112
9110,33984
9111,34304
9112,34432
9113,34432
9114,34432
9115,34304
9116,34176
9117,34112
9118,34240
9119,34624
9120,34752
9121,34496
9122,34240
9123,34304
9124,34496
9125,34432
9126,34304
9127,34304
9128,34432
9129,34624
9130,34816
9131,34880
9132,34816
9133,34752
9134,34176
9135,34112
9136,34368
9137,34688
9138,35136
9139,35200
9140,34880
9141,34752
9142,35008
9143,35328
9144,35712
9145,35840
9146,35520
9147,35136
9148,34944
9149,34752
9150,34240
9151,33856
9152,33920
9153,34112
9154,34176
9155,34112
9156,34048
9157,33984
9158,33856
9159,33600
9160,33600
9161,33984
9162,34432
9163,34304
9164,34112
9165,34368
9166,34816
9167,34816
9168,34432
9169,34176
9170,34048
9171,33728
9172,33344
9173,33152
9174,33792
9175,35136
9176,36864
9177,39104
9178,41280
9179,42432
9180,42432
9181,40960
9182,38016
9183,35008
9184,32960
9185,31808
9186,31424
9187,31552
9188,32000
9189,32704
9190,32896
9191,32512
9192,32320
9193,32448
9194,32896
9195,33344
9196,33536
9197,34176
9198,34688
9199,34304
9200,33664
9201,33280
9202,33408
9203,33664
9204,33856
9205,33984
9206,33920
9207,34624
9208,34240
9209,33472
9210,33344
9211,33600
9212,34048
9213,34304
9214,34496
9215,34560
9216,34240
9217,33792
9218,33536
9219,33536
9220,33920
9221,34432
9222,34496
9223,34368
9224,34432
9225,34368
9226,34240
9227,34304
9228,34432
9229,34432
9230,34304
9231,34304
9232,34624
9233,34816
9234,34816
9235,34944
9236,34944
9237,34816
9238,34752
9239,35008
9240,35200
9241,34816
9242,34368
9243,34240
9244,34560
9245,34944
9246,35264
9247,35520
9248,35904
9249,35712
9250,35136
9251,34560
9252,34304
9253,34432
9254,34816
9255,35072
9256,34944
9257,34432
9258,33728
9259,33152
9260,33024
9261,33344
9262,33600
9263,33600
9264,33600
9265,33728
9266,34048
9267,33792
9268,33216
9269,33024
9270,33280
9271,33536
9272,33600
9273,33600
9274,33600
9275,33728
9276,33856
9277,34112
9278,34368
9279,34240
9280,33728
9281,33280
9282,33216
9283,33408
9284,33664
9285,33920
9286,34112
9287,34048
9288,33856
9289,33984
9290,34560
9291,34880
9292,34496
9293,33792
9294,33344
9295,33472
9296,33792
9297,33920
9298,33792
9299,33728
9300,33984
9301,34112
9302,34240
9303,34496
9304,34560
9305,34240
9306,33856
9307,33856
9308,33856
9309,33728
9310,33600
9311,33728
9312,33728
9313,33728
9314,33920
9315,34048
9316,33984
9317,33920
9318,33984
9319,34240
9320,34496
9321,34752
9322,34816
9323,34624
9324,34304
9325,33984
9326,33792
9327,33728
9328,33856
9329,34048
9330,34240
9331,34176
9332,34112
9333,33984
9334,33856
9335,33728
9336,33920
9337,34368
9338,34560
9339,34432
9340,34432
9341,34496
9342,34368
9343,34048
9344,33792
9345,33792
9346,34048
9347,34176
9348,34176
9349,34112
9350,33920
9351,33920
9352,34368
9353,34944
9354,35264
9355,34816
9356,34240
9357,34112
9358,34176
9359,33984
9360,33920
9361,33920
9362,33920
9363,33920
9364,34048
9365,34560
9366,35008
9367,35136
9368,35328
9369,35456
9370,35328
9371,34752
9372,34176
9373,34176
9374,34560
9375,34944
9376,34880
9377,34624
9378,33984
9379,33408
9380,33152
9381,33280
9382,33600
9383,33984
9384,34240
9385,34048
9386,33728
9387,33984
9388,34432
9389,34240
9390,33728
9391,33408
9392,33216
9393,33152
9394,33280
9395,33472
9396,33792
9397,34432
9398,34688
9399,34304
9400,34688
9401,35968
9402,37696
9403,39744
9404,41344
9405,41984
9406,41088
9407,38976
9408,36160
9409,33536
9410,31936
9411,31488
9412,31488
9413,31296
9414,31232
9415,31552
9416,32000
9417,32576
9418,33152
9419,33408
9420,33536
9421,33600
9422,33728
9423,34048
9424,34304
9425,34304
9426,34240
9427,34496
9428,34624
9429,34368
9430,33920
9431,33600
9432,33344
9433,33152
9434,33344
9435,33792
9436,33920
9437,33856
9438,33856
9439,34176
9440,34688
9441,34688
9442,34240
9443,34112
9444,33984
9445,33728
9446,33344
9447,33024
9448,33152
9449,34048
9450,34816
9451,34816
9452,34432
9453,34176
9454,34304
9455,34496
9456,34624
9457,34624
9458,34368
9459,34112
9460,34048
9461,34432
9462,34752
9463,34688
9464,34752
9465,34880
9466,35008
9467,35200
9468,35520
9469,35520
9470,35072
9471,34496
9472,34176
9473,34432
9474,34880
9475,35072
9476,35136
9477,34880
9478,34496
9479,34368
9480,34240
9481,34176
9482,34112
9483,33920
9484,33728
9485,33664
9486,33728
9487,33792
9488,33728
9489,33728
9490,34176
9491,34688
9492,34752
9493,34304
9494,33920
9495,33600
9496,33472
9497,33472
9498,33856
9499,34176
9500,33984
9501,33600
9502,33536
9503,33664
9504,33920
9505,34176
9506,34496
9507,34752
9508,34944
9509,34880
9510,34432
9511,34368
9512,34432
9513,34304
9514,33984
9515,33664
9516,33344
9517,33152
9518,33216
9519,33600
9520,34112
9521,34496
9522,34752
9523,34816
9524,34560
9525,34368
9526,34304
9527,34496
9528,34496
9529,34304
9530,34112
9531,33984
9532,34112
9533,34304
9534,34176
9535,33984
9536,33920
9537,33984
9538,34176
9539,34432
9540,34496
9541,34624
9542,34496
9543,34496
9544,34368
9545,34112
9546,33792
9547,33856
9548,34240
9549,34496
9550,34688
9551,34688
9552,34048
9553,33728
9554,34240
9555,34688
9556,34176
9557,33664
9558,33792
9559,34304
9560,34560
9561,34048
9562,33536
9563,33536
9564,33984
9565,34368
9566,34240
9567,33920
9568,33920
9569,34368
9570,34944
9571,35008
9572,34560
9573,34304
9574,34688
9575,34624
9576,33856
9577,33216
9578,33280
9579,33600
9580,33984
9581,34496
9582,34944
9583,35264
9584,35392
9585,35264
9586,34752
9587,34240
9588,34112
9589,34752
9590,35392
9591,35200
9592,34816
9593,34560
9594,34304
9595,34368
9596,34560
9597,34304
9598,34112
9599,34048
9600,33664
9601,33344
9602,33536
9603,33984
9604,34048
9605,33920
9606,33792
9607,33664
9608,33472
9609,33344
9610,33472
9611,34048
9612,34496
9613,34496
9614,33984
9615,33472
9616,33600
9617,34304
9618,35456
9619,36928
9620,39040
9621,40896
9622,41920
9623,41728
9624,40000
9625,37248
9626,34624
9627,32512
9628,31296
9629,30912
9630,31040
9631,31680
9632,32448
9633,32704
9634,32384
9635,32192
9636,32512
9637,32896
9638,33152
9639,33600
9640,33984
9641,34176
9642,34240
9643,34112
9644,34112
9645,33920
9646,33536
9647,33408
9648,33472
9649,33472
9650,33408
9651,33600
9652,33984
9653,34176
9654,34112
9655,34112
9656,34176
9657,33856
9658,33472
9659,33472
9660,33792
9661,34112
9662,34432
9663,34432
9664,34240
9665,33984
9666,33856
9667,34048
9668,34368
9669,34880
9670,35264
9671,34944
9672,34368
9673,34112
9674,34112
9675,34240
9676,34560
9677,35264
9678,36096
9679,36224
9680,35776
9681,35200
9682,34944
9683,34688
9684,34560
9685,34560
9686,34816
9687,34880
9688,34880
9689,34752
9690,34752
9691,34944
9692,35136
9693,35264
9694,35328
9695,35200
9696,35008
9697,34688
9698,34304
9699,33920
9700,33792
9701,33984
9702,34240
9703,34368
9704,33920
9705,33344
9706,33152
9707,33280
9708,33472
9709,33600
9710,33536
9711,33536
9712,33408
9713,33280
9714,33408
9715,33984
9716,34368
9717,34048
9718,33280
9719,32832
9720,32832
9721,33088
9722,33472
9723,33600
9724,33920
9725,34496
9726,34880
9727,35008
9728,35136
9729,35008
9730,34368
9731,33792
9732,33536
9733,33664
9734,33728
9735,33600
9736,33536
9737,33664
9738,34048
9739,34304
9740,34112
9741,33792
9742,33792
9743,34240
9744,34560
9745,34816
9746,34752
9747,34304
9748,33856
9749,33728
9750,33728
9751,33856
9752,33920
9753,34048
9754,34112
9755,34112
9756,33984
9757,33920
9758,33920
9759,34176
9760,34560
9761,34752
9762,34880
9763,35072
9764,35008
9765,34816
9766,34432
9767,34176
9768,34048
9769,34048
9770,34240
9771,34368
9772,34496
9773,34560
9774,34560
9775,34432
9776,34304
9777,34112
9778,34176
9779,34240
9780,34176
9781,34240
9782,34624
9783,35072
9784,35200
9785,35072
9786,34880
9787,35136
9788,35456
9789,35328
9790,34880
9791,34560
9792,34176
9793,34048
9794,34496
9795,34624
9796,34240
9797,33920
9798,33792
9799,34112
9800,34496
9801,34816
9802,35136
9803,35392
9804,35328
9805,35008
9806,35072
9807,35584
9808,35776
9809,35456
9810,34816
9811,34368
9812,34176
9813,33728
9814,33344
9815,33344
9816,33536
9817,33728
9818,33920
9819,33920
9820,33984
9821,34112
9822,34240
9823,34560
9824,34880
9825,35328
9826,35776
9827,35392
9828,34304
9829,33408
9830,32832
9831,32640
9832,32768
9833,32960
9834,33984
9835,35712
9836,37568
9837,39360
9838,40768
9839,41536
9840,41600
9841,40192
9842,37440
9843,34560
9844,32384
9845,31488
9846,31296
9847,31360
9848,31552
9849,32000
9850,32448
9851,33024
9852,33792
9853,34112
9854,33792
9855,33344
9856,33152
9857,33344
9858,33600
9859,33728
9860,33920
9861,34112
9862,34304
9863,34560
9864,34560
9865,34496
9866,34496
9867,34432
9868,34304
9869,34112
9870,34112
9871,34624
9872,34944
9873,34880
9874,34496
9875,34304
9876,34304
9877,33920
9878,33344
9879,33024
9880,33088
9881,33280
9882,33536
9883,33856
9884,34368
9885,34560
9886,34432
9887,34304
9888,34368
9889,34624
9890,35008
9891,35328
9892,35200
9893,34944
9894,34688
9895,35520
9896,36160
9897,35456
9898,34176
9899,33536
9900,33536
9901,33984
9902,34368
9903,34560
9904,34816
9905,35072
9906,34944
9907,34752
9908,34880
9909,35008
9910,34944
9911,35008
9912,35200
9913,35328
9914,35136
9915,34752
9916,34176
9917,33472
9918,32832
9919,32832
9920,33344
9921,33984
9922,34496
9923,34496
9924,34176
9925,33728
9926,33472
9927,33472
9928,33280
9929,33152
9930,33216
9931,33536
9932,33984
9933,34176
9934,33984
9935,33664
9936,33472
9937,33664
9938,33856
9939,34304
9940,34688
9941,34816
9942,34688
9943,34240
9944,33792
9945,33792
9946,33984
9947,33984
9948,34048
9949,34048
9950,33984
9951,33792
9952,33664
9953,33792
9954,34176
9955,34432
9956,34432
9957,34752
9958,35200
9959,34944
9960,34304
9961,33920
9962,33792
9963,33856
9964,34176
9965,34816
9966,35008
9967,34560
9968,34368
9969,34368
9970,34176
9971,34048
9972,33984
9973,33856
9974,33856
9975,33728
9976,33664
9977,33792
9978,33792
9979,33728
9980,33728
9981,34176
9982,34560
9983,34432
9984,34176
9985,34112
9986,34432
9987,34688
9988,34880
9989,34752
9990,34048
9991,33600
9992,33600
9993,33792
9994,33920
9995,33920
9996,33920
9997,34176
9998,34496
9999,34496
10000,34432
10001,34432
10002,34624
10003,34752
10004,34816
10005,35008
10006,35328
10007,35200
10008,34496
10009,33920
10010,33984
10011,34368
10012,35200
10013,35648
10014,35072
10015,34432
10016,34496
10017,34496
10018,34176
10019,33984
10020,33920
10021,33792
10022,33792
10023,34048
10024,34368
10025,34240
10026,33792
10027,33664
10028,34624
10029,35584
10030,35392
10031,34176
10032,33472
10033,33792
10034,34432
10035,33984
10036,33152
10037,32768
10038,32832
10039,33088
10040,33408
10041,33792
10042,33856
10043,34048
10044,34624
10045,35456
10046,36800
10047,38464
10048,40384
10049,42304
10050,43264
10051,42048
10052,38912
10053,35840
10054,33600
10055,32128
10056,31232
10057,30784
10058,30720
10059,31168
10060,31552
10061,31808
10062,32064
10063,32768
10064,33536
10065,34048
10066,34368
10067,34432
10068,34624
10069,34560
10070,34176
10071,33664
10072,33280
10073,33280
10074,33408
10075,33536
10076,33536
10077,33664
10078,33792
10079,33792
10080,33856
10081,33856
10082,34048
10083,34112
10084,34112
10085,34112
10086,34176
10087,34240
10088,33984
10089,33792
10090,33856
10091,33920
10092,33920
10093,33856
10094,33984
10095,33856
10096,33472
10097,33280
10098,33024
10099,32896
10100,32704
10101,32512
10102,32448
10103,32448
10104,32448
10105,32512
10106,32704
10107,32640
10108,32064
10109,31744
10110,31808
10111,32128
10112,32256
10113,32448
10114,32896
10115,33600
10116,33984
10117,33728
10118,33344
10119,33408
10120,33920
10121,34624
10122,34880
10123,34752
10124,34816
10125,34880
10126,34496
10127,33856
10128,33536
10129,33216
10130,32256
10131,31360
10132,30976
10133,30976
10134,31232
10135,31808
10136,32448
10137,32960
10138,33344
10139,33600
10140,33664
10141,33856
10142,34112
10143,34752
10144,35264
10145,35264
10146,35136
10147,34624
10148,33664
10149,33088
10150,32832
10151,32640
10152,32448
10153,32384
10154,32576
10155,32704
10156,33088
10157,33856
10158,34368
10159,34368
10160,34496
10161,35008
10162,35584
10163,35840
10164,36032
10165,36096
10166,35648
10167,34688
10168,33984
10169,33792
10170,34048
10171,34304
10172,34752
10173,35264
10174,35328
10175,35008
10176,34560
10177,34176
10178,33856
10179,33920
10180,34176
10181,34560
10182,35264
10183,35712
10184,35584
10185,35136
10186,35136
10187,35136
10188,34880
10189,34624
10190,34432
10191,34624
10192,34944
10193,35008
10194,34816
10195,34752
10196,34752
10197,34752
10198,34944
10199,34944
10200,34816
10201,34560
10202,34560
10203,34944
10204,35136
10205,34944
10206,35072
10207,35456
10208,35456
10209,35328
10210,35200
10211,35072
10212,35008
10213,34880
10214,34752
10215,34816
10216,34816
10217,34688
10218,34560
10219,34752
10220,35136
10221,35392
10222,35904
10223,36544
10224,36416
10225,35520
10226,34624
10227,34496
10228,34880
10229,35136
10230,35328
10231,35648
10232,35776
10233,35392
10234,34944
10235,34944
10236,35072
10237,34944
10238,34688
10239,34624
10240,34816
10241,34496
10242,33664
10243,33280
10244,33280
10245,33280
10246,33280
10247,33472
10248,33920
10249,34432
10250,34432
10251,34112
10252,34240
10253,34624
10254,34688
10255,34304
10256,33856
10257,34112
10258,34560
10259,34944
10260,35648
10261,37056
10262,38656
10263,39872
10264,40832
10265,41216
10266,39936
10267,36992
10268,34176
10269,32448
10270,31808
10271,31488
10272,31424
10273,31936
10274,32576
10275,32704
10276,32448
10277,32640
10278,33408
10279,33920
10280,33792
10281,33344
10282,33472
10283,34048
10284,34560
10285,34816
10286,34880
10287,34688
10288,34240
10289,33856
10290,33856
10291,33984
10292,33920
10293,33728
10294,33920
10295,34304
10296,34240
10297,33856
10298,33664
10299,33856
10300,34112
10301,34048
10302,33792
10303,33664
10304,33664
10305,33664
10306,33664
10307,33920
10308,33984
10309,33728
10310,33728
10311,34368
10312,34880
10313,34816
10314,34688
10315,34688
10316,34880
10317,35264
10318,35584
10319,35200
10320,34496
10321,34176
10322,34496
10323,35072
10324,35392
10325,35072
10326,34624
10327,34432
10328,34624
10329,35008
10330,35008
10331,34816
10332,34816
10333,35008
10334,34816
10335,34752
10336,35008
10337,35072
10338,34432
10339,33792
10340,33536
10341,33536
10342,33216
10343,33088
10344,33472
10345,34112
10346,34240
10347,33792
10348,33408
10349,33280
10350,33024
10351,32576
10352,32640
10353,33344
10354,33728
10355,33600
10356,33344
10357,33600
10358,33792
10359,33856
10360,33856
10361,33792
10362,33536
10363,33344
10364,33280
10365,33472
10366,33664
10367,33408
10368,33152
10369,33408
10370,33984
10371,34304
10372,34176
10373,33984
10374,33920
10375,33536
10376,33088
10377,33024
10378,33408
10379,33664
10380,33472
10381,33664
10382,34176
10383,34368
10384,33920
10385,33408
10386,33280
10387,33216
10388,33088
10389,33152
10390,33472
10391,33664
10392,33472
10393,33280
10394,33216
10395,33664
10396,34112
10397,34304
10398,34752
10399,35072
10400,35200
10401,34624
10402,33600
10403,33024
10404,32768
10405,32384
10406,32064
10407,32448
10408,32896
10409,32896
10410,32704
10411,32896
10412,33216
10413,33216
10414,33216
10415,33408
10416,33664
10417,33472
10418,33152
10419,33152
10420,33664
10421,34048
10422,34112
10423,33536
10424,33216
10425,32960
10426,33088
10427,33344
10428,33600
10429,33600
10430,33536
10431,33728
10432,34368
10433,34560
10434,34176
10435,33856
10436,33984
10437,34240
10438,34240
10439,34240
10440,34624
10441,34880
10442,34496
10443,33856
10444,33600
10445,33792
10446,33664
10447,33088
10448,32960
10449,33152
10450,33152
10451,32896
10452,32704
10453,32512
10454,32192
10455,32064
10456,32448
10457,33152
10458,33280
10459,32960
10460,32768
10461,33024
10462,33408
10463,33280
10464,33152
10465,33216
10466,33152
10467,32704
10468,32704
10469,33792
10470,35712
10471,37760
10472,39616
10473,41088
10474,41344
10475,39680
10476,36352
10477,33152
10478,31168
10479,30080
10480,29504
10481,29888
10482,31040
10483,32000
10484,32256
10485,32384
10486,32960
10487,33408
10488,33088
10489,32576
10490,32704
10491,33024
10492,33216
10493,33344
10494,33600
10495,33920
10496,33792
10497,33152
10498,32896
10499,33024
10500,33088
10501,33024
10502,32960
10503,33152
10504,33152
10505,32896
10506,32960
10507,33600
10508,33792
10509,33600
10510,33088
10511,32960
10512,33280
10513,33344
10514,33408
10515,33920
10516,34688
10517,34816
10518,34432
10519,34304
10520,34304
10521,33984
10522,33600
10523,33664
10524,33920
10525,33920
10526,33792
10527,34432
10528,35328
10529,35584
10530,34752
10531,33856
10532,33600
10533,33664
10534,33792
10535,33920
10536,33920
10537,34112
10538,34432
10539,34688
10540,34496
10541,34048
10542,33728
10543,34496
10544,37440
10545,40000
10546,40320
10547,37248
10548,33024
10549,30272
10550,29376
10551,29184
10552,29184
10553,30016
10554,31296
10555,32512
10556,34112
10557,35904
10558,36608
10559,36480
10560,35904
10561,35584
10562,35264
10563,33920
10564,31680
10565,30656
10566,30208
10567,29056
10568,28608
10569,29824
10570,32576
10571,34368
10572,33792
10573,32960
10574,33920
10575,34048
10576,32384
10577,30464
10578,29888
10579,30144
10580,30272
10581,30400
10582,30528
10583,30592
10584,30656
10585,30976
10586,32128
10587,34176
10588,35776
10589,35072
10590,32576
10591,30144
10592,28864
10593,29504
10594,31040
10595,32384
10596,32384
10597,31488
10598,30976
10599,31744
10600,32960
10601,34048
10602,34816
10603,34048
10604,31872
10605,29824
10606,29184
10607,29888
10608,31040
10609,32000
10610,32768
10611,33664
10612,34048
10613,33280
10614,32128
10615,31808
10616,32128
10617,32448
10618,32640
10619,32768
10620,32640
10621,32064
10622,31424
10623,31616
10624,32256
10625,32512
10626,32448
10627,32576
10628,32832
10629,32832
10630,32448
10631,32256
10632,32768
10633,33536
10634,33920
10635,33984
10636,33856
10637,33664
10638,33088
10639,32640
10640,32704
10641,33152
10642,33536
10643,33856
10644,34176
10645,34240
10646,33856
10647,33088
10648,32768
10649,33344
10650,33920
10651,33536
10652,33024
10653,32768
10654,32960
10655,33344
10656,33472
10657,33792
10658,34368
10659,34560
10660,34496
10661,34688
10662,34752
10663,34560
10664,34432
10665,34304
10666,33728
10667,33344
10668,34176
10669,35968
10670,37696
10671,39424
10672,41344
10673,41792
10674,40896
10675,37888
10676,34304
10677,31744
10678,30592
10679,30208
10680,30208
10681,30656
10682,31232
10683,31616
10684,32192
10685,32960
10686,33472
10687,33920
10688,34432
10689,34560
10690,34112
10691,33664
10692,33664
10693,33920
10694,34496
10695,35008
10696,34880
10697,34432
10698,34496
10699,34880
10700,34944
10701,34688
10702,34624
10703,34688
10704,34816
10705,35008
10706,35008
10707,34944
10708,34880
10709,35008
10710,35200
10711,35328
10712,35584
10713,36416
10714,37056
10715,36480
10716,35200
10717,34112
10718,34048
10719,34368
10720,34944
10721,35648
10722,35968
10723,36032
10724,36160
10725,35840
10726,35520
10727,35392
10728,35584
10729,35968
10730,36032
10731,36160
10732,36416
10733,36672
10734,37184
10735,37568
10736,37440
10737,36992
10738,36736
10739,36480
10740,36096
10741,35776
10742,36160
10743,37120
10744,37312
10745,36032
10746,34368
10747,33792
10748,34432
10749,35776
10750,36224
10751,35392
10752,34688
10753,34432
10754,34176
10755,33792
10756,33664
10757,33856
10758,34240
10759,34944
10760,35136
10761,35136
10762,35008
10763,34944
10764,34880
10765,35072
10766,35520
10767,35840
10768,35776
10769,35392
10770,35136
10771,34816
10772,34496
10773,34304
10774,34368
10775,34496
10776,34624
10777,35328
10778,35712
10779,36224
10780,36096
10781,35776
10782,35520
10783,35136
10784,34560
10785,34048
10786,33856
10787,34176
10788,34560
10789,34880
10790,34816
10791,34688
10792,34560
10793,34560
10794,34752
10795,35072
10796,34944
10797,34560
10798,34752
10799,35264
10800,35264
10801,34816
10802,34560
10803,34752
10804,34880
10805,34560
10806,34112
10807,34112
10808,34496
10809,34944
10810,35072
10811,35008
10812,34752
10813,34560
10814,34368
10815,34112
10816,33792
10817,33280
10818,32704
10819,32384
10820,32512
10821,32768
10822,33088
10823,33152
10824,33280
10825,33280
10826,33344
10827,33472
10828,33472
10829,33536
10830,33664
10831,33856
10832,34432
10833,35008
10834,35008
10835,34688
10836,34816
10837,35392
10838,35264
10839,34816
10840,34752
10841,35264
10842,35520
10843,35136
10844,34880
10845,35008
10846,35264
10847,35200
10848,34624
10849,34048
10850,33536
10851,33152
10852,32960
10853,33024
10854,33024
10855,33024
10856,33728
10857,34560
10858,34304
10859,33600
10860,33280
10861,33984
10862,34624
10863,34560
10864,33984
10865,33792
10866,33856
10867,33664
10868,33600
10869,33728
10870,34240
10871,34816
10872,35136
10873,35840
10874,37376
10875,39296
10876,40768
10877,41728
10878,41984
10879,40832
10880,38016
10881,35200
10882,32960
10883,32448
10884,31616
10885,31232
10886,31552
10887,32064
10888,32448
10889,32896
10890,33344
10891,33792
10892,34048
10893,34368
10894,34880
10895,35200
10896,35072
10897,35008
10898,34944
10899,34944
10900,34624
10901,34240
10902,34304
10903,34496
10904,34688
10905,35008
10906,35264
10907,35072
10908,34368
10909,34176
10910,34048
10911,34496
10912,34496
10913,34560
10914,34560
10915,34688
10916,34752
10917,34624
10918,34560
10919,34624
10920,34688
10921,34560
10922,34496
10923,34816
10924,34880
