,ECG
0,34240
1,34240
2,34240
3,34176
4,34112
5,34112
6,34048
7,34112
8,34176
9,34176
10,34176
11,34176
12,34240
13,34240
14,34240
15,34176
16,34112
17,34048
18,33984
19,33920
20,33856
21,33984
22,34048
23,34048
24,34048
25,34112
26,34112
27,34112
28,34048
29,34112
30,34176
31,34176
32,34176
33,34176
34,34240
35,34240
36,34304
37,34560
38,34752
39,34944
40,35008
41,35008
42,35136
43,35264
44,35328
45,35264
46,35200
47,35072
48,34880
49,34624
50,34496
51,34240
52,33984
53,33856
54,33664
55,33472
56,33472
57,33408
58,33536
59,33664
60,33792
61,33856
62,33920
63,34048
64,34176
65,34176
66,34176
67,34240
68,34176
69,34112
70,34048
71,34048
72,34048
73,33984
74,34112
75,34816
76,35904
77,37504
78,39424
79,41152
80,42048
81,41856
82,40128
83,37184
84,34368
85,32384
86,31424
87,31168
88,31296
89,31552
90,32000
91,32448
92,32896
93,33280
94,33536
95,33792
96,34048
97,34176
98,34240
99,34304
100,34368
101,34368
102,34368
103,34304
104,34304
105,34304
106,34240
107,34176
108,34240
109,34304
110,34304
111,34304
112,34368
113,34368
114,34368
115,34304
116,34304
117,34368
118,34304
119,34240
120,34176
121,34240
122,34304
123,34304
124,34368
125,34432
126,34432
127,34432
128,34432
129,34496
130,34624
131,34688
132,34688
133,34688
134,34752
135,34688
136,34624
137,34624
138,34688
139,34688
140,34688
141,34752
142,34816
143,34880
144,35008
145,35008
146,34944
147,34816
148,34752
149,34688
150,34752
151,34752
152,34816
153,34816
154,34752
155,34688
156,34496
157,34368
158,34240
159,34112
160,33984
161,33856
162,33792
163,33792
164,33728
165,33664
166,33664
167,33728
168,33728
169,33792
170,33792
171,33920
172,33984
173,34048
174,34112
175,34176
176,34112
177,33984
178,33984
179,34048
180,34048
181,34112
182,34112
183,34112
184,34112
185,34176
186,34176
187,34176
188,34240
189,34176
190,34176
191,34112
192,34112
193,34112
194,34112
195,34048
196,33984
197,33984
198,33984
199,34048
200,34176
201,34240
202,34240
203,34112
204,34048
205,33984
206,33920
207,33920
208,33984
209,34048
210,34048
211,34112
212,34176
213,34176
214,34176
215,34176
216,34176
217,34176
218,34176
219,34304
220,34496
221,34688
222,34752
223,34752
224,34880
225,35072
226,35264
227,35392
228,35328
229,35264
230,35200
231,35072
232,34880
233,34688
234,34432
235,34048
236,33728
237,33472
238,33344
239,33280
240,33280
241,33408
242,33600
243,33664
244,33664
245,33728
246,33856
247,33920
248,33920
249,33920
250,33984
251,34048
252,34048
253,34048
254,33984
255,33856
256,33664
257,33664
258,34176
259,35200
260,36736
261,38656
262,40512
263,41728
264,41920
265,40640
266,38016
267,35072
268,32704
269,31296
270,30912
271,30976
272,31424
273,32000
274,32512
275,32896
276,33280
277,33600
278,33920
279,34048
280,34176
281,34240
282,34304
283,34368
284,34368
285,34304
286,34304
287,34304
288,34368
289,34368
290,34432
291,34432
292,34432
293,34432
294,34368
295,34368
296,34304
297,34304
298,34304
299,34368
300,34432
301,34432
302,34432
303,34496
304,34560
305,34624
306,34560
307,34624
308,34624
309,34624
310,34560
311,34560
312,34560
313,34560
314,34560
315,34560
316,34688
317,34752
318,34752
319,34752
320,34752
321,34752
322,34752
323,34816
324,34816
325,34816
326,34816
327,34880
328,34944
329,34944
330,34816
331,34752
332,34688
333,34752
334,34688
335,34624
336,34560
337,34560
338,34496
339,34368
340,34240
341,34176
342,34112
343,33984
344,33856
345,33728
346,33792
347,33792
348,33664
349,33728
350,33728
351,33792
352,33728
353,33792
354,33856
355,33920
356,33920
357,33920
358,33984
359,33984
360,34048
361,34048
362,34112
363,34112
364,34112
365,34048
366,34048
367,34112
368,34112
369,34048
370,34112
371,34112
372,34048
373,33984
374,33984
375,34048
376,34112
377,34112
378,34112
379,34112
380,34048
381,33984
382,33984
383,34112
384,34176
385,34304
386,34368
387,34496
388,34688
389,34880
390,35136
391,35328
392,35456
393,35392
394,35328
395,35136
396,34880
397,34560
398,34240
399,34048
400,33792
401,33536
402,33344
403,33152
404,33152
405,33152
406,33216
407,33280
408,33408
409,33408
410,33472
411,33600
412,33728
413,33792
414,33728
415,33728
416,33728
417,33792
418,33856
419,33792
420,33600
421,33472
422,33280
423,33472
424,34304
425,35712
426,37568
427,39488
428,41088
429,41792
430,41024
431,38656
432,35584
433,33024
434,31424
435,30656
436,30592
437,30976
438,31424
439,31808
440,32192
441,32640
442,33024
443,33344
444,33536
445,33664
446,33728
447,33792
448,33792
449,33856
450,33920
451,33920
452,33856
453,33856
454,33856
455,33856
456,33792
457,33728
458,33728
459,33792
460,33792
461,33792
462,33792
463,33792
464,33728
465,33728
466,33792
467,33856
468,33856
469,33856
470,33920
471,33984
472,33984
473,33984
474,33920
475,33920
476,33984
477,34048
478,34048
479,34112
480,34176
481,34176
482,34240
483,34304
484,34368
485,34432
486,34432
487,34432
488,34432
489,34368
490,34368
491,34432
492,34432
493,34432
494,34432
495,34496
496,34496
497,34432
498,34432
499,34432
500,34432
501,34432
502,34368
503,34304
504,34240
505,34112
506,33984
507,33920
508,33856
509,33856
510,33856
511,33856
512,33856
513,33664
514,33536
515,33472
516,33536
517,33664
518,33856
519,33984
520,34048
521,34112
522,34112
523,34112
524,34112
525,34048
526,33920
527,33792
528,33728
529,33792
530,33856
531,33856
532,33920
533,33984
534,34048
535,34048
536,34048
537,34112
538,34112
539,34048
540,33984
541,34048
542,34048
543,33984
544,33920
545,33984
546,34048
547,33984
548,33920
549,33920
550,34048
551,34112
552,34176
553,34240
554,34368
555,34432
556,34496
557,34688
558,34944
559,35136
560,35264
561,35200
562,35072
563,34880
564,34560
565,34304
566,34048
567,33792
568,33472
569,33152
570,32960
571,32896
572,32896
573,32960
574,33024
575,33216
576,33344
577,33408
578,33472
579,33536
580,33600
581,33664
582,33728
583,33792
584,33792
585,33728
586,33664
587,33664
588,33536
589,33600
590,34112
591,35264
592,36864
593,38848
594,40704
595,41856
596,41856
597,40320
598,37312
599,34176
600,32256
601,31296
602,30976
603,31168
604,31552
605,32000
606,32384
607,32704
608,33088
609,33408
610,33600
611,33728
612,33920
613,34048
614,34112
615,34176
616,34240
617,34240
618,34176
619,34112
620,34112
621,34176
622,34176
623,34240
624,34240
625,34304
626,34304
627,34304
628,34304
629,34304
630,34304
631,34240
632,34240
633,34304
634,34368
635,34304
636,34368
637,34496
638,34496
639,34496
640,34496
641,34496
642,34560
643,34624
644,34688
645,34688
646,34624
647,34624
648,34624
649,34752
650,34816
651,34880
652,34944
653,35008
654,35136
655,35200
656,35200
657,35264
658,35328
659,35328
660,35264
661,35264
662,35264
663,35264
664,35264
665,35200
666,35200
667,35136
668,35136
669,35072
670,35072
671,35072
672,34944
673,34752
674,34688
675,34624
676,34560
677,34496
678,34432
679,34496
680,34432
681,34432
682,34368
683,34368
684,34368
685,34368
686,34432
687,34496
688,34496
689,34432
690,34304
691,34304
692,34304
693,34176
694,34112
695,34112
696,34176
697,34176
698,34112
699,34048
700,34048
701,34048
702,34048
703,34048
704,34112
705,34112
706,34112
707,34176
708,34176
709,34176
710,34048
711,34048
712,33984
713,33984
714,33920
715,33920
716,33920
717,33920
718,33856
719,33856
720,33856
721,33856
722,33920
723,34048
724,34176
725,34496
726,34688
727,34816
728,34944
729,35072
730,35328
731,35456
732,35584
733,35584
734,35520
735,35328
736,35072
737,34880
738,34624
739,34304
740,33984
741,33728
742,33664
743,33600
744,33600
745,33664
746,33792
747,33920
748,33984
749,34048
750,34112
751,34176
752,34176
753,34240
754,34368
755,34432
756,34432
757,34432
758,34368
759,34240
760,34048
761,33984
762,34432
763,35520
764,37248
765,39232
766,41024
767,42176
768,42240
769,40704
770,37888
771,35008
772,32896
773,31680
774,31360
775,31488
776,31872
777,32320
778,32768
779,33152
780,33536
781,33792
782,34048
783,34240
784,34432
785,34560
786,34560
787,34624
788,34624
789,34560
790,34560
791,34624
792,34688
793,34688
794,34688
795,34624
796,34560
797,34496
798,34432
799,34432
800,34432
801,34432
802,34432
803,34432
804,34432
805,34368
806,34368
807,34368
808,34432
809,34496
810,34496
811,34560
812,34624
813,34688
814,34752
815,34752
816,34816
817,34816
818,34816
819,34816
820,34880
821,34944
822,34880
823,34816
824,34816
825,34816
826,34752
827,34752
828,34816
829,34816
830,34688
831,34688
832,34624
833,34688
834,34688
835,34624
836,34624
837,34624
838,34624
839,34624
840,34624
841,34624
842,34624
843,34560
844,34368
845,34240
846,34176
847,34112
848,33984
849,33984
850,33984
851,33920
852,33920
853,33856
854,33920
855,33984
856,33984
857,34048
858,34048
859,34112
860,34176
861,34176
862,34176
863,34176
864,34176
865,34112
866,34176
867,34240
868,34240
869,34240
870,34176
871,34176
872,34176
873,34112
874,34112
875,34176
876,34176
877,34176
878,34112
879,34112
880,34112
881,34112
882,34048
883,34048
884,34112
885,34112
886,34048
887,34112
888,34112
889,34176
890,34112
891,34112
892,34112
893,34112
894,34176
895,34240
896,34240
897,34240
898,34112
899,34048
900,33984
901,33856
902,33664
903,33472
904,33344
905,33280
906,33216
907,33152
908,33152
909,33216
910,33280
911,33472
912,33664
913,33920
914,34048
915,34176
916,34496
917,34752
918,34944
919,34944
920,34816
921,34624
922,34432
923,34240
924,34048
925,33856
926,33664
927,33408
928,33216
929,33088
930,33088
931,33088
932,33152
933,33280
934,33408
935,33472
936,33536
937,33600
938,33664
939,33664
940,33600
941,33664
942,33728
943,33728
944,33600
945,33472
946,33280
947,33152
948,33344
949,34048
950,35392
951,37248
952,39296
953,40832
954,41536
955,40832
956,38464
957,35392
958,32832
959,31360
960,30784
961,30848
962,31232
963,31808
964,32320
965,32704
966,33024
967,33344
968,33600
969,33792
970,33920
971,34048
972,34112
973,34176
974,34240
975,34240
976,34304
977,34304
978,34240
979,34240
980,34304
981,34432
982,34368
983,34368
984,34368
985,34368
986,34304
987,34304
988,34368
989,34368
990,34368
991,34368
992,34432
993,34496
994,34496
995,34560
996,34624
997,34688
998,34624
999,34560
1000,34624
1001,34624
1002,34688
1003,34688
1004,34752
1005,34816
1006,34816
1007,34752
1008,34752
1009,34816
1010,34880
1011,34880
1012,34880
1013,34880
1014,34880
1015,34816
1016,34880
1017,34944
1018,35008
1019,34944
1020,34880
1021,34880
1022,34880
1023,34944
1024,34944
1025,35008
1026,35008
1027,35008
1028,34944
1029,34944
1030,34880
1031,34752
1032,34624
1033,34496
1034,34432
1035,34368
1036,34240
1037,34176
1038,34112
1039,34112
1040,34112
1041,34112
1042,34176
1043,34176
1044,34112
1045,34112
1046,34112
1047,34112
1048,34176
1049,34176
1050,34240
1051,34304
1052,34368
1053,34304
1054,34304
1055,34304
1056,34240
1057,34176
1058,34048
1059,34112
1060,34112
1061,34048
1062,34048
1063,34048
1064,34048
1065,33984
1066,33920
1067,33920
1068,33984
1069,33984
1070,34048
1071,34048
1072,34048
1073,33984
1074,33984
1075,33984
1076,33984
1077,33984
1078,33920
1079,33920
1080,33920
1081,33856
1082,33856
1083,33920
1084,34112
1085,34368
1086,34496
1087,34560
1088,34752
1089,34944
1090,35136
1091,35264
1092,35328
1093,35264
1094,35072
1095,34816
1096,34560
1097,34240
1098,33920
1099,33600
1100,33344
1101,33152
1102,32960
1103,32896
1104,32960
1105,33024
1106,33088
1107,33152
1108,33280
1109,33408
1110,33472
1111,33536
1112,33664
1113,33792
1114,33920
1115,33984
1116,34048
1117,34048
1118,33920
1119,33728
1120,33472
1121,33472
1122,33856
1123,34880
1124,36992
1125,38208
1126,40256
1127,41280
1128,41472
1129,40128
1130,37504
1131,34688
1132,32576
1133,31360
1134,30976
1135,31104
1136,31488
1137,31936
1138,32448
1139,33024
1140,33216
1141,33536
1142,33728
1143,33856
1144,33920
1145,33920
1146,33984
1147,33984
1148,33984
1149,33920
1150,34048
1151,34112
1152,34176
1153,34112
1154,34112
1155,33984
1156,33920
1157,33856
1158,33856
1159,33920
1160,33920
1161,33920
1162,33920
1163,33984
1164,33984
1165,33984
1166,34048
1167,34112
1168,34112
1169,34048
1170,34048
1171,34112
1172,34176
1173,34176
1174,34176
1175,34240
1176,34368
1177,34432
1178,34432
1179,34432
1180,34560
1181,34624
1182,34624
1183,34624
1184,34752
1185,34688
1186,34688
1187,34752
1188,34816
1189,34816
1190,34816
1191,34880
1192,34880
1193,34880
1194,34816
1195,34816
1196,34816
1197,34752
1198,34752
1199,34752
1200,34752
1201,34816
1202,34752
1203,34624
1204,34496
1205,34368
1206,34240
1207,34112
1208,34048
1209,34048
1210,33984
1211,33856
1212,33792
1213,33792
1214,33792
1215,33792
1216,33792
1217,33792
1218,33856
1219,33856
1220,33856
1221,33984
1222,34112
1223,34176
1224,34048
1225,33984
1226,33984
1227,33984
1228,33984
1229,33984
1230,34048
1231,34048
1232,34048
1233,33984
1234,33984
1235,33984
1236,33920
1237,33920
1238,33984
1239,33920
1240,33856
1241,33792
1242,33856
1243,33856
1244,33856
1245,33792
1246,33792
1247,33792
1248,33856
1249,33920
1250,34112
1251,34240
1252,34304
1253,34304
1254,34496
1255,34816
1256,35072
1257,35136
1258,35136
1259,35008
1260,34880
1261,34560
1262,34176
1263,33920
1264,33600
1265,33344
1266,33088
1267,32960
1268,32896
1269,32832
1270,32832
1271,32960
1272,33088
1273,33216
1274,33280
1275,33472
1276,33536
1277,33536
1278,33536
1279,33600
1280,33664
1281,33664
1282,33600
1283,33472
1284,33344
1285,33152
1286,33152
1287,33664
1288,34816
1289,37056
1290,38336
1291,40064
1292,41088
1293,40960
1294,39232
1295,36352
1296,33728
1297,31872
1298,30976
1299,30784
1300,30976
1301,31424
1302,31872
1303,32320
1304,32704
1305,32960
1306,33216
1307,33472
1308,33600
1309,33792
1310,33920
1311,33984
1312,34048
1313,34112
1314,34112
1315,34048
1316,33984
1317,34048
1318,34112
1319,34048
1320,34048
1321,34048
1322,34112
1323,34048
1324,34048
1325,34112
1326,34112
1327,34048
1328,34048
1329,34112
1330,34176
1331,34176
1332,34112
1333,34112
1334,34112
1335,34112
1336,34112
1337,34112
1338,34176
1339,34240
1340,34304
1341,34368
1342,34496
1343,34560
1344,34624
1345,34624
1346,34624
1347,34688
1348,34624
1349,34624
1350,34624
1351,34624
1352,34624
1353,34624
1354,34688
1355,34752
1356,34688
1357,34560
1358,34496
1359,34496
1360,34496
1361,34432
1362,34432
1363,34496
1364,34560
1365,34560
1366,34496
1367,34496
1368,34496
1369,34432
1370,34368
1371,34368
1372,34304
1373,34176
1374,34112
1375,34048
1376,33984
1377,33856
1378,33792
1379,33792
1380,33792
1381,33792
1382,33728
1383,33600
1384,33600
1385,33536
1386,33408
1387,33344
1388,33408
1389,33472
1390,33536
1391,33472
1392,33536
1393,33536
1394,33728
1395,33728
1396,33920
1397,33984
1398,33984
1399,33920
1400,33856
1401,33792
1402,33792
1403,33792
1404,33792
1405,33856
1406,33856
1407,33792
1408,33792
1409,33856
1410,33856
1411,33920
1412,33984
1413,34240
1414,34368
1415,34432
1416,34496
1417,35200
1418,35392
1419,35392
1420,35328
1421,35200
1422,35008
1423,34688
1424,34624
1425,34176
1426,34112
1427,33600
1428,33280
1429,33088
1430,32960
1431,32960
1432,33024
1433,33088
1434,33152
1435,33280
1436,33280
1437,33408
1438,33536
1439,33472
1440,33664
1441,33728
1442,33792
1443,33728
1444,33600
1445,33536
1446,33472
1447,33280
1448,33216
1449,33600
1450,34624
1451,36224
1452,38144
1453,39936
1454,41152
1455,41152
1456,41024
1457,39488
1458,33984
1459,32000
1460,30976
1461,30656
1462,30848
1463,31296
1464,31744
1465,32128
1466,32448
1467,32704
1468,32960
1469,32960
1470,32960
1471,33088
1472,33344
1473,33344
1474,33408
1475,33408
1476,33408
1477,33344
1478,33344
1479,33408
1480,33472
1481,33472
1482,33408
1483,33344
1484,33280
1485,33344
1486,33280
1487,33472
1488,33536
1489,33408
1490,33280
1491,33280
1492,33408
1493,33472
1494,33536
1495,33536
1496,33600
1497,33664
1498,33664
1499,33664
1500,33728
1501,33728
1502,33792
1503,33856
1504,33920
1505,34048
1506,34112
1507,34176
1508,34176
1509,34176
1510,34112
1511,34112
1512,34176
1513,34304
1514,34368
1515,34304
1516,34240
1517,34304
1518,34304
1519,34304
1520,34368
1521,34368
1522,34368
1523,34304
1524,34304
1525,34304
1526,34368
1527,34368
1528,34304
1529,34304
1530,34240
1531,34176
1532,34048
1533,33984
1534,33920
1535,33920
1536,33856
1537,33728
1538,33792
1539,33792
1540,33792
1541,33792
1542,33856
1543,33856
1544,33856
1545,33920
1546,33920
1547,34112
1548,34176
1549,34240
1550,34304
1551,34304
1552,34240
1553,34176
1554,34176
1555,34176
1556,34176
1557,34240
1558,34304
1559,34304
1560,34304
1561,34304
1562,34304
1563,34304
1564,34240
1565,34240
1566,34240
1567,34240
1568,34240
1569,34176
1570,34240
1571,34240
1572,34304
1573,34304
1574,34368
1575,34624
1576,34816
1577,34944
1578,35008
1579,35200
1580,35456
1581,35584
1582,35712
1583,35776
1584,35648
1585,35456
1586,35136
1587,34944
1588,34624
1589,34304
1590,33984
1591,33728
1592,33536
1593,33408
1594,33408
1595,33408
1596,33600
1597,33728
1598,33856
1599,33920
1600,33984
1601,33984
1602,33920
1603,33984
1604,34048
1605,34176
1606,34176
1607,34176
1608,34112
1609,33984
1610,33856
1611,33728
1612,33984
1613,34944
1614,36352
1615,38208
1616,40192
1617,41600
1618,42112
1619,41152
1620,38528
1621,35584
1622,33152
1623,31744
1624,31232
1625,31296
1626,31616
1627,32000
1628,32448
1629,32896
1630,33280
1631,33472
1632,33664
1633,33856
1634,34048
1635,34176
1636,34176
1637,34240
1638,34304
1639,34304
1640,34240
1641,34240
1642,34240
1643,34176
1644,34176
1645,34240
1646,34304
1647,34304
1648,34240
1649,34176
1650,34240
1651,34240
1652,34176
1653,34112
1654,34112
1655,34112
1656,34112
1657,34112
1658,34176
1659,34240
1660,34304
1661,34304
1662,34368
1663,34432
1664,34432
1665,34432
1666,34432
1667,34496
1668,34496
1669,34496
1670,34560
1671,34624
1672,34624
1673,34688
1674,34752
1675,34816
1676,34752
1677,34560
1678,34368
1679,34304
1680,34304
1681,34304
1682,34304
1683,34368
1684,34368
1685,34368
1686,34432
1687,34496
1688,34496
1689,34496
1690,34432
1691,34368
1692,34368
1693,34304
1694,34176
1695,34048
1696,34048
1697,33920
1698,33856
1699,33792
1700,33728
1701,33664
1702,33664
1703,33664
1704,33664
1705,33664
1706,33664
1707,33728
1708,33792
1709,33856
1710,33856
1711,33856
1712,33920
1713,33984
1714,33984
1715,33984
1716,34048
1717,34112
1718,34048
1719,33984
1720,33984
1721,34048
1722,34048
1723,34048
1724,33984
1725,33984
1726,33984
1727,33920
1728,33856
1729,33856
1730,33920
1731,33920
1732,33920
1733,33984
1734,33984
1735,33920
1736,33792
1737,33792
1738,33792
1739,33920
1740,34112
1741,34304
1742,34560
1743,34688
1744,34752
1745,34944
1746,35136
1747,35328
1748,35328
1749,35200
1750,35072
1751,34880
1752,34560
1753,34240
1754,33920
1755,33600
1756,33280
1757,32960
1758,32896
1759,32896
1760,32960
1761,32960
1762,32960
1763,33088
1764,33216
1765,33408
1766,33536
1767,33600
1768,33600
1769,33536
1770,33600
1771,33728
1772,33792
1773,33792
1774,33600
1775,33472
1776,33344
1777,33600
1778,34496
1779,36096
1780,38080
1781,40192
1782,41664
1783,42176
1784,41216
1785,38784
1786,35648
1787,33088
1788,31552
1789,30976
1790,30976
1791,31232
1792,31680
1793,32128
1794,32512
1795,32960
1796,33344
1797,33664
1798,33920
1799,34112
1800,34304
1801,34368
1802,34304
1803,34240
1804,34176
1805,34176
1806,34176
1807,34240
1808,34304
1809,34304
1810,34240
1811,34176
1812,34176
1813,34240
1814,34304
1815,34304
1816,34368
1817,34432
1818,34432
1819,34304
1820,34304
1821,34304
1822,34240
1823,34176
1824,34240
1825,34368
1826,34432
1827,34496
1828,34624
1829,34688
1830,34688
1831,34688
1832,34752
1833,34816
1834,34944
1835,35008
1836,35008
1837,35008
1838,35008
1839,35008
1840,34944
1841,35008
1842,35008
1843,35008
1844,35008
1845,35072
1846,35136
1847,35200
1848,35264
1849,35328
1850,35392
1851,35328
1852,35200
1853,35136
1854,35072
1855,35072
1856,35072
1857,35072
1858,35072
1859,35008
1860,34944
1861,34816
1862,34816
1863,34752
1864,34688
1865,34752
1866,34880
1867,35072
1868,35072
1869,34944
1870,34752
1871,34688
1872,34688
1873,34752
1874,34880
1875,35008
1876,34944
1877,34816
1878,34752
1879,34816
1880,34880
1881,34880
1882,34880
1883,34816
1884,34688
1885,34624
1886,34688
1887,34752
1888,34752
1889,34688
1890,34624
1891,34560
1892,34560
1893,34560
1894,34432
1895,34432
1896,34368
1897,34240
1898,34176
1899,34240
1900,34368
1901,34304
1902,34240
1903,34304
1904,34432
1905,34496
1906,34496
1907,34432
1908,34432
1909,34560
1910,34688
1911,34880
1912,35008
1913,35008
1914,34944
1915,35008
1916,35328
1917,35520
1918,35584
1919,35392
1920,35264
1921,35072
1922,34752
1923,34432
1924,34240
1925,34176
1926,34112
1927,33984
1928,33792
1929,33664
1930,33536
1931,33472
1932,33536
1933,33664
1934,33856
1935,33984
1936,34112
1937,34112
1938,34048
1939,34048
1940,34112
1941,34176
1942,34176
1943,34048
1944,33664
1945,33472
1946,33472
1947,33728
1948,34496
1949,35840
1950,37696
1951,39680
1952,41088
1953,41664
1954,40960
1955,38720
1956,35904
1957,33664
1958,32320
1959,31872
1960,31872
1961,32128
1962,32512
1963,32896
1964,33216
1965,33472
1966,33600
1967,33792
1968,33856
1969,33920
1970,33984
1971,34112
1972,34176
1973,34240
1974,34368
1975,34496
1976,34560
1977,34432
1978,34368
1979,34304
1980,34304
1981,34368
1982,34496
1983,34624
1984,34752
1985,34688
1986,34688
1987,34752
1988,34624
1989,34368
1990,34176
1991,34112
1992,34112
1993,34112
1994,34048
1995,34176
1996,34368
1997,34560
1998,34560
1999,34560
2000,34624
2001,34752
2002,34816
2003,34816
2004,34752
2005,34752
2006,34688
2007,34752
2008,34944
2009,35008
2010,34944
2011,34944
2012,35008
2013,34944
2014,34880
2015,34688
2016,34496
2017,34304
2018,34176
2019,34176
2020,34304
2021,34496
2022,34688
2023,34816
2024,34880
2025,34880
2026,34816
2027,34752
2028,34688
2029,34752
2030,34688
2031,34496
2032,34304
2033,34304
2034,34304
2035,34304
2036,34240
2037,34304
2038,34240
2039,34240
2040,34304
2041,34432
2042,34432
2043,34368
2044,34304
2045,34368
2046,34496
2047,34432
2048,34304
2049,34368
2050,34432
2051,34368
2052,34368
2053,34496
2054,34560
2055,34496
2056,34432
2057,34304
2058,34304
2059,34368
2060,34368
2061,34304
2062,34176
2063,34176
2064,34176
2065,34304
2066,34304
2067,34432
2068,34432
2069,34368
2070,34368
2071,34496
2072,34816
2073,35072
2074,35264
2075,35456
2076,35456
2077,35328
2078,35136
2079,34880
2080,34560
2081,34240
2082,33856
2083,33408
2084,33024
2085,32768
2086,32640
2087,32704
2088,32768
2089,32896
2090,33024
2091,33152
2092,33216
2093,33216
2094,33152
2095,33152
2096,33344
2097,33472
2098,33728
2099,33920
2100,33920
2101,33536
2102,32960
2103,32384
2104,32192
2105,32704
2106,33856
2107,35712
2108,37824
2109,39680
2110,40576
2111,40192
2112,38144
2113,35328
2114,32896
2115,31424
2116,30656
2117,30464
2118,30464
2119,30656
2120,31040
2121,31552
2122,32000
2123,32384
2124,32832
2125,33344
2126,33728
2127,33920
2128,33856
2129,33536
2130,33280
2131,33216
2132,33536
2133,33920
2134,34112
2135,33728
2136,33408
2137,33536
2138,33664
2139,33792
2140,34112
2141,34240
2142,33984
2143,33408
2144,33024
2145,33216
2146,33664
2147,33920
2148,34368
2149,35072
2150,35328
2151,35200
2152,35136
2153,34944
2154,34816
2155,35008
2156,35200
2157,35200
2158,35072
2159,34880
2160,34240
2161,33536
2162,33280
2163,33344
2164,33600
2165,34048
2166,34624
2167,34880
2168,34944
2169,35072
2170,35456
2171,35712
2172,35392
2173,34880
2174,34304
2175,33792
2176,33472
2177,33472
2178,34112
2179,34816
2180,34752
2181,34112
2182,33984
2183,34304
2184,34432
2185,34368
2186,34880
2187,35456
2188,35328
2189,34752
2190,34176
2191,33984
2192,34176
2193,34304
2194,33728
2195,33600
2196,34240
2197,34816
2198,34880
2199,34304
2200,33728
2201,33856
2202,34688
2203,35584
2204,36032
2205,35712
2206,35072
2207,34624
2208,35392
2209,36736
2210,36864
2211,35520
2212,34496
2213,34432
2214,34176
2215,33792
2216,33728
2217,33664
2218,33536
2219,33600
2220,33920
2221,34240
2222,34432
2223,34752
2224,35072
2225,35456
2226,35904
2227,36352
2228,36800
2229,37056
2230,36672
2231,36160
2232,36032
2233,36096
2234,36672
2235,37312
2236,36928
2237,35776
2238,35136
2239,35328
2240,35136
2241,34752
2242,34304
2243,33216
2244,32256
2245,32448
2246,32576
2247,32320
2248,32384
2249,32704
2250,33088
2251,33536
2252,34112
2253,34688
2254,34688
2255,34112
2256,33280
2257,33472
2258,34112
2259,33920
2260,33472
2261,33472
2262,34048
2263,35136
2264,36608
2265,37632
2266,38720
2267,40192
2268,41088
2269,41024
2270,39424
2271,36672
2272,33856
2273,32000
2274,31232
2275,31104
2276,31424
2277,32000
2278,32704
2279,33344
2280,33856
2281,34496
2282,35392
2283,35968
2284,35328
2285,34176
2286,33472
2287,33408
2288,33856
2289,34560
2290,35136
2291,35264
2292,34944
2293,34752
2294,34880
2295,34880
2296,34624
2297,34496
2298,34240
2299,33792
2300,33792
2301,33856
2302,34112
2303,34624
2304,35072
2305,35072
2306,34880
2307,34880
2308,35072
2309,35136
2310,35008
2311,35200
2312,35584
2313,35520
2314,35456
2315,35648
2316,35904
2317,35968
2318,36032
2319,35968
2320,36096
2321,36224
2322,36288
2323,36416
2324,36480
2325,36288
2326,36032
2327,36096
2328,36160
2329,35712
2330,35328
2331,35392
2332,36032
2333,36736
2334,36992
2335,36992
2336,36864
2337,36480
2338,36032
2339,35584
2340,35456
2341,35584
2342,35840
2343,36032
2344,36032
2345,35968
2346,35776
2347,35456
2348,35200
2349,35200
2350,35136
2351,34880
2352,34496
2353,34496
2354,34496
2355,34368
2356,34176
2357,34048
2358,34048
2359,34304
2360,35072
2361,35520
2362,35968
2363,36160
2364,35072
2365,33856
2366,33664
2367,33856
2368,33600
2369,33728
2370,34688
2371,34944
2372,34176
2373,33664
2374,33728
2375,34048
2376,34048
2377,33728
2378,33344
2379,33216
2380,33536
2381,34112
2382,34816
2383,35712
2384,36160
2385,35968
2386,36032
2387,35968
2388,35648
2389,35328
2390,35072
2391,34432
2392,33600
2393,33152
2394,32768
2395,32512
2396,32320
2397,32448
2398,32768
2399,33152
2400,34240
2401,34624
2402,33792
2403,32640
2404,32064
2405,32000
2406,32512
2407,34112
2408,35776
2409,35456
2410,33536
2411,32064
2412,31680
2413,31808
2414,31872
2415,31936
2416,32192
2417,32896
2418,34304
2419,36416
2420,38720
2421,40768
2422,42112
2423,42176
2424,40704
2425,38080
2426,35520
2427,33792
2428,32576
2429,32064
2430,31808
2431,32064
2432,33152
2433,34176
2434,34048
2435,33344
2436,32832
2437,32704
2438,32576
2439,32448
2440,32832
2441,33216
2442,33152
2443,32576
2444,32000
2445,31616
2446,31680
2447,32128
2448,32704
2449,33216
2450,33280
2451,33088
2452,32896
2453,32704
2454,32448
2455,32640
2456,33984
2457,35328
2458,35264
2459,34368
2460,33536
2461,33088
2462,33344
2463,33984
2464,34304
2465,34240
2466,34432
2467,34752
2468,34688
2469,34496
2470,34368
2471,34240
2472,34240
2473,34432
2474,34880
2475,35072
2476,34880
2477,34304
2478,33984
2479,33920
2480,33920
2481,34176
2482,34304
2483,34048
2484,33728
2485,33344
2486,33344
2487,33536
2488,33664
2489,33856
2490,34112
2491,34496
2492,34944
2493,35584
2494,36672
2495,37248
2496,36416
2497,34816
2498,33792
2499,33472
2500,33792
2501,34304
2502,34880
2503,35264
2504,35136
2505,34560
2506,34048
2507,34112
2508,34304
2509,34432
2510,34816
2511,35136
2512,35264
2513,35200
2514,34944
2515,34944
2516,35072
2517,35072
2518,34944
2519,34752
2520,34752
2521,35008
2522,35200
2523,35072
2524,35072
2525,34880
2526,34688
2527,34752
2528,35200
2529,35840
2530,36352
2531,36544
2532,36544
2533,36352
2534,36416
2535,36608
2536,36672
2537,36736
2538,36736
2539,36864
2540,37248
2541,37568
2542,37312
2543,36480
2544,35328
2545,34176
2546,33664
2547,34240
2548,34624
2549,34240
2550,33728
2551,33536
2552,33408
2553,33536
2554,34048
2555,34368
2556,34432
2557,34304
2558,34048
2559,33856
2560,33856
2561,33792
2562,33600
2563,33344
2564,32768
2565,32640
2566,33408
2567,35008
2568,37056
2569,39040
2570,40576
2571,41152
2572,40064
2573,37376
2574,34432
2575,32192
2576,30784
2577,30208
2578,30336
2579,30912
2580,31616
2581,32768
2582,33664
2583,34240
2584,34368
2585,34368
2586,34432
2587,34560
2588,34624
2589,34560
2590,34304
2591,34112
2592,33920
2593,33792
2594,33792
2595,33856
2596,33920
2597,33728
2598,33472
2599,33344
2600,33344
2601,33408
2602,33472
2603,33600
2604,33664
2605,33728
2606,33792
2607,33856
2608,33984
2609,34688
2610,35264
2611,34688
2612,33408
2613,32256
2614,31168
2615,30016
2616,29312
2617,28928
2618,28608
2619,28224
2620,28032
2621,28352
2622,29056
2623,29824
2624,30784
2625,31808
2626,32768
2627,33536
2628,34240
2629,35008
2630,35648
2631,35648
2632,35328
2633,35136
2634,35264
2635,35328
2636,35456
2637,35840
2638,35520
2639,33920
2640,32256
2641,31808
2642,32064
2643,32064
2644,31616
2645,31552
2646,31808
2647,32256
2648,32576
2649,32960
2650,33472
2651,33920
2652,34048
2653,33856
2654,33792
2655,34112
2656,34688
2657,34752
2658,34112
2659,33664
2660,33664
2661,33600
2662,33344
2663,33216
2664,33216
2665,33344
2666,33600
2667,33856
2668,33984
2669,34432
2670,34944
2671,35200
2672,35072
2673,34752
2674,35136
2675,35520
2676,35264
2677,34624
2678,34304
2679,34368
2680,34624
2681,34880
2682,35008
2683,35328
2684,35840
2685,35584
2686,34688
2687,33856
2688,33280
2689,32896
2690,32640
2691,32640
2692,32832
2693,32960
2694,33088
2695,33152
2696,33408
2697,33600
2698,33792
2699,33920
2700,34112
2701,34368
2702,34496
2703,34432
2704,34176
2705,34048
2706,33856
2707,33152
2708,32448
2709,32512
2710,33536
2711,35136
2712,36992
2713,38720
2714,40704
2715,41408
2716,41088
2717,39552
2718,36800
2719,34240
2720,32448
2721,31616
2722,31424
2723,31616
2724,32320
2725,33344
2726,33920
2727,33408
2728,32704
2729,32448
2730,32576
2731,32768
2732,32896
2733,32896
2734,33024
2735,33216
2736,33408
2737,33536
2738,33472
2739,33408
2740,33472
2741,33792
2742,33984
2743,33856
2744,33664
2745,33536
2746,33536
2747,33472
2748,33408
2749,33472
2750,33664
2751,33856
2752,33856
2753,33984
2754,34240
2755,34560
2756,34624
2757,34560
2758,34432
2759,34368
2760,34432
2761,34560
2762,34752
2763,34944
2764,35200
2765,35584
2766,35840
2767,35840
2768,35584
2769,35200
2770,34944
2771,34944
2772,35136
2773,35328
2774,35520
2775,35648
2776,35584
2777,35520
2778,35584
2779,35712
2780,35840
2781,35776
2782,35712
2783,35776
2784,35776
2785,35648
2786,35456
2787,35520
2788,35840
2789,36224
2790,36096
2791,35648
2792,35328
2793,34944
2794,34624
2795,34496
2796,34624
2797,34880
2798,35072
2799,35072
2800,35136
2801,35200
2802,35520
2803,35712
2804,35584
2805,35648
2806,35904
2807,35776
2808,35200
2809,34752
2810,34560
2811,34688
2812,34944
2813,35072
2814,35136
2815,35200
2816,35392
2817,35648
2818,35712
2819,35648
2820,35776
2821,35904
2822,35968
2823,35904
2824,35776
2825,35712
2826,36160
2827,36096
2828,34944
2829,33792
2830,33280
2831,33024
2832,32896
2833,32960
2834,32960
2835,33024
2836,33152
2837,33408
2838,33600
2839,33600
2840,33472
2841,33536
2842,34048
2843,34624
2844,34752
2845,34304
2846,33920
2847,33664
2848,33536
2849,33408
2850,32960
2851,32640
2852,32960
2853,34176
2854,36288
2855,38720
2856,40960
2857,42368
2858,42048
2859,39744
2860,36736
2861,33920
2862,32256
2863,31488
2864,31232
2865,31296
2866,31744
2867,32512
2868,32960
2869,32960
2870,32896
2871,32960
2872,33152
2873,33280
2874,33536
2875,34048
2876,34432
2877,34368
2878,34112
2879,33856
2880,33728
2881,33728
2882,33792
2883,33920
2884,34240
2885,34688
2886,34944
2887,35008
2888,35072
2889,34944
2890,34304
2891,33856
2892,33664
2893,33600
2894,33728
2895,33920
2896,34176
2897,34304
2898,34560
2899,34816
2900,35136
2901,35008
2902,34624
2903,34432
2904,34624
2905,35584
2906,36352
2907,36096
2908,35264
2909,34624
2910,34112
2911,33600
2912,33408
2913,33536
2914,34240
2915,35456
2916,37376
2917,39104
2918,39040
2919,37440
2920,35520
2921,33728
2922,33472
2923,35200
2924,36928
2925,37376
2926,36672
2927,35520
2928,33984
2929,33344
2930,33728
2931,35392
2932,37376
2933,39232
2934,39680
2935,40256
2936,39936
2937,37312
2938,32448
2939,28992
2940,28416
2941,28928
2942,30144
2943,31424
2944,32576
2945,33664
2946,34304
2947,34560
2948,35200
2949,36160
2950,36672
2951,36224
2952,35392
2953,34688
2954,34304
2955,34240
2956,34240
2957,34368
2958,34688
2959,34816
2960,34688
2961,34752
2962,34880
2963,35136
2964,35264
2965,35200
2966,35072
2967,34816
2968,34560
2969,34112
2970,33920
2971,33664
2972,33472
2973,33344
2974,32768
2975,32384
2976,31936
2977,31488
2978,31424
2979,31488
2980,31488
2981,31424
2982,31552
2983,31744
2984,31936
2985,31872
2986,32192
2987,32960
2988,32576
2989,31616
2990,31552
2991,31616
2992,31296
2993,30848
2994,30720
2995,31232
2996,32576
2997,34560
2998,37376
2999,40000
3000,41664
3001,42240
3002,41344
3003,38784
3004,35584
3005,32768
3006,31168
3007,30912
3008,31616
3009,31744
3010,31488
3011,31488
3012,31872
3013,32128
3014,31936
3015,31936
3016,32576
3017,33344
3018,33664
3019,33728
3020,34368
3021,34880
3022,34944
3023,34752
3024,34944
3025,35392
3026,35456
3027,35264
3028,35008
3029,35008
3030,35072
3031,34816
3032,34368
3033,34368
3034,34816
3035,35008
3036,34944
3037,34944
3038,34176
3039,33152
3040,32704
3041,32896
3042,33216
3043,33600
3044,33984
3045,34176
3046,34048
3047,33344
3048,32896
3049,33216
3050,33664
3051,33728
3052,33728
3053,34048
3054,34240
3055,34176
3056,34304
3057,34880
3058,35200
3059,34752
3060,34112
3061,34112
3062,34368
3063,34560
3064,34752
3065,34816
3066,34816
3067,34752
3068,34560
3069,34112
3070,33728
3071,33600
3072,33408
3073,33152
3074,33152
3075,33280
3076,33280
3077,33088
3078,33536
3079,34880
3080,35584
3081,34240
3082,32512
3083,31616
3084,31232
3085,31040
3086,31360
3087,32128
3088,32576
3089,32512
3090,32704
3091,33408
3092,33920
3093,33472
3094,32896
3095,32832
3096,33088
3097,32960
3098,32448
3099,32320
3100,32384
3101,32512
3102,32640
3103,32896
3104,32896
3105,32832
3106,32576
3107,32320
3108,31936
3109,31616
3110,31168
3111,30848
3112,31232
3113,31808
3114,32128
3115,32448
3116,33408
3117,34176
3118,34048
3119,33856
3120,33664
3121,33216
3122,32384
3123,31744
3124,31744
3125,32256
3126,32512
3127,32512
3128,33088
3129,34432
3130,35008
3131,34048
3132,33088
3133,32768
3134,32384
3135,31616
3136,31360
3137,32000
3138,32064
3139,31232
3140,30784
3141,31552
3142,32640
3143,32768
3144,32640
3145,33280
3146,34112
3147,34240
3148,33920
3149,33920
3150,34112
3151,33536
3152,32576
3153,32704
3154,34048
3155,36032
3156,37440
3157,38464
3158,39744
3159,40384
3160,38976
3161,36288
3162,34176
3163,33152
3164,32064
3165,31360
3166,31680
3167,33024
3168,33600
3169,33472
3170,33856
3171,34752
3172,34752
3173,33664
3174,33152
3175,33600
3176,33408
3177,32256
3178,32064
3179,33408
3180,33856
3181,33088
3182,32576
3183,33344
3184,34368
3185,34176
3186,34176
3187,35584
3188,37184
3189,37696
3190,37248
3191,36864
3192,36352
3193,34880
3194,32384
3195,31936
3196,31808
3197,31104
3198,29888
3199,29568
3200,30080
3201,29888
3202,29120
3203,28800
3204,28992
3205,28928
3206,28224
3207,28224
3208,29248
3209,30144
3210,29760
3211,29120
3212,29568
3213,30272
3214,30336
3215,30336
3216,31424
3217,33280
3218,34368
3219,34944
3220,36288
3221,38272
3222,38976
3223,38208
3224,38016
3225,38144
3226,37312
3227,35776
3228,34880
3229,35200
3230,35392
3231,34496
3232,33920
3233,34688
3234,35648
3235,35584
3236,35392
3237,35904
3238,35392
3239,35200
3240,34752
3241,34624
3242,35008
3243,34304
3244,34560
3245,35520
3246,35840
3247,35456
3248,35584
3249,36416
3250,36608
3251,35840
3252,35392
3253,36224
3254,36224
3255,36288
3256,35584
3257,36224
3258,36864
3259,36544
3260,36160
3261,36736
3262,37440
3263,37312
3264,36864
3265,37120
3266,37824
3267,37504
3268,36672
3269,36544
3270,36992
3271,36800
3272,35904
3273,35456
3274,35840
3275,35712
3276,34752
3277,34368
3278,34944
3279,35264
3280,34688
3281,34304
3282,34816
3283,35264
3284,35200
3285,34304
3286,34752
3287,35392
3288,35072
3289,34432
3290,34624
3291,35328
3292,35136
3293,34432
3294,34624
3295,35520
3296,36288
3297,37056
3298,39808
3299,39872
3300,41664
3301,44480
3302,43776
3303,41792
3304,38656
3305,38208
3306,35456
3307,32640
3308,32768
3309,32576
3310,32576
3311,33344
3312,34432
3313,34560
3314,34240
3315,34752
3316,35584
3317,35776
3318,35392
3319,35648
3320,36352
3321,36288
3322,35648
3323,35520
3324,36096
3325,36224
3326,35712
3327,35648
3328,36416
3329,36416
3330,35904
3331,35520
3332,36160
3333,36864
3334,36544
3335,35840
3336,36160
3337,36992
3338,36736
3339,35648
3340,35392
3341,35776
3342,35584
3343,35072
3344,35008
3345,36096
3346,36160
3347,35520
3348,35264
3349,35840
3350,36032
3351,35520
3352,35456
3353,36160
3354,36352
3355,35584
3356,35136
3357,35584
3358,36096
3359,36032
3360,35264
3361,35456
3362,35840
3363,35648
3364,35008
3365,34944
3366,35264
3367,35136
3368,34752
3369,34816
3370,35328
3371,35264
3372,34432
3373,34176
3374,34688
3375,34688
3376,33984
3377,33600
3378,34112
3379,34496
3380,33984
3381,33664
3382,34176
3383,34752
3384,34304
3385,33728
3386,33984
3387,34624
3388,34048
3389,33920
3390,33920
3391,34880
3392,34944
3393,34368
3394,34304
3395,34752
3396,34560
3397,33920
3398,33856
3399,34880
3400,35328
3401,34816
3402,34624
3403,35776
3404,35776
3405,35456
3406,34880
3407,35008
3408,35264
3409,34688
3410,33984
3411,34176
3412,34624
3413,34176
3414,33344
3415,33408
3416,33984
3417,33920
3418,33280
3419,33472
3420,34304
3421,34304
3422,33536
3423,33280
3424,33856
3425,34176
3426,33664
3427,33344
3428,34048
3429,34496
3430,33984
3431,33728
3432,33920
3433,34176
3434,34176
3435,34944
3436,36992
3437,39616
3438,41216
3439,41408
3440,40896
3441,39168
3442,36032
3443,32704
3444,30976
3445,30912
3446,30976
3447,30656
3448,31168
3449,31168
3450,32896
3451,32704
3452,32704
3453,33664
3454,34624
3455,34432
3456,33792
3457,34048
3458,34368
3459,33344
3460,32320
3461,32448
3462,33088
3463,32768
3464,32000
3465,32064
3466,32704
3467,32704
3468,31872
3469,31808
3470,32448
3471,32512
3472,31872
3473,32064
3474,32960
3475,33024
3476,32064
3477,31552
3478,31936
3479,32448
3480,32192
3481,31808
3482,32576
3483,33728
3484,33728
3485,32896
3486,32640
3487,33088
3488,32960
3489,32512
3490,32832
3491,33728
3492,33792
3493,33216
3494,33280
3495,34048
3496,34112
3497,33408
3498,33088
3499,33664
3500,33984
3501,33152
3502,32512
3503,33088
3504,33984
3505,33920
3506,33216
3507,33152
3508,33280
3509,32768
3510,32256
3511,32704
3512,33536
3513,33408
3514,32832
3515,32960
3516,33728
3517,33792
3518,33152
3519,33152
3520,33984
3521,34240
3522,33664
3523,33536
3524,34176
3525,34624
3526,34432
3527,34112
3528,34304
3529,34368
3530,33856
3531,33920
3532,34368
3533,34368
3534,33600
3535,32896
3536,33280
3537,34176
3538,34240
3539,33984
3540,34368
3541,34944
3542,34880
3543,34240
3544,34240
3545,35008
3546,35264
3547,34688
3548,34304
3549,34496
3550,34304
3551,33472
3552,32960
3553,33280
3554,33664
3555,32960
3556,32192
3557,32256
3558,32704
3559,32448
3560,32384
3561,33088
3562,33664
3563,33216
3564,32448
3565,32640
3566,33536
3567,33728
3568,33024
3569,32960
3570,33792
3571,33984
3572,33088
3573,33024
3574,34816
3575,37120
3576,38464
3577,39552
3578,41152
3579,42048
3580,40832
3581,38208
3582,35712
3583,33728
3584,31872
3585,30656
3586,30656
3587,31488
3588,31808
3589,31680
3590,32256
3591,33472
3592,33792
3593,33280
3594,33408
3595,34304
3596,34688
3597,34176
3598,33856
3599,34432
3600,34944
3601,34688
3602,34240
3603,34432
3604,34944
3605,34560
3606,33728
3607,33856
3608,34496
3609,34560
3610,34112
3611,34240
3612,34880
3613,34944
3614,34496
3615,34688
3616,35264
3617,35072
3618,34304
3619,34240
3620,35072
3621,35456
3622,34880
3623,34560
3624,35136
3625,35584
3626,35072
3627,34624
3628,35136
3629,35776
3630,35584
3631,35264
3632,35648
3633,36224
3634,35712
3635,34880
3636,34944
3637,35712
3638,35712
3639,35200
3640,35200
3641,35904
3642,35968
3643,35328
3644,35200
3645,35904
3646,35904
3647,35200
3648,34816
3649,35328
3650,35712
3651,35200
3652,34496
3653,34880
3654,35456
3655,34944
3656,33984
3657,33920
3658,34368
3659,34112
3660,33600
3661,33856
3662,34368
3663,34112
3664,33408
3665,33600
3666,34304
3667,34304
3668,33536
3669,33408
3670,34048
3671,34432
3672,33856
3673,33472
3674,34048
3675,34560
3676,34112
3677,33792
3678,34368
3679,35200
3680,35136
3681,34560
3682,34816
3683,35648
3684,35776
3685,35328
3686,35456
3687,36096
3688,36160
3689,35264
3690,34944
3691,35200
3692,35008
3693,34112
3694,33728
3695,34112
3696,34240
3697,33728
3698,33472
3699,33664
3700,33728
3701,33152
3702,32832
3703,33408
3704,34048
3705,33728
3706,33152
3707,33408
3708,34048
3709,33792
3710,33216
3711,33344
3712,33984
3713,33856
3714,33088
3715,33088
3716,34240
3717,35392
3718,36416
3719,38080
3720,40256
3721,41664
3722,41344
3723,39744
3724,37568
3725,35136
3726,32640
3727,30912
3728,30656
3729,31168
3730,31104
3731,30912
3732,31552
3733,32512
3734,32704
3735,32448
3736,32832
3737,33600
3738,33600
3739,33088
3740,33088
3741,33856
3742,33984
3743,33408
3744,33216
3745,33856
3746,34112
3747,33536
3748,33152
3749,33664
3750,34112
3751,33600
3752,33216
3753,33664
3754,34304
3755,34048
3756,33536
3757,33856
3758,34496
3759,34368
3760,33792
3761,33920
3762,34624
3763,34624
3764,33984
3765,33984
3766,34688
3767,34944
3768,34432
3769,34304
3770,34944
3771,35200
3772,34560
3773,34240
3774,34816
3775,35264
3776,34688
3777,34048
3778,34432
3779,34944
3780,34688
3781,34112
3782,34304
3783,34944
3784,34688
3785,34048
3786,34048
3787,34688
3788,34624
3789,33920
3790,33856
3791,34560
3792,34752
3793,34176
3794,33984
3795,34432
3796,34688
3797,34112
3798,33728
3799,34176
3800,34624
3801,34048
3802,33536
3803,33984
3804,34560
3805,34304
3806,33856
3807,34176
3808,34880
3809,34752
3810,34240
3811,34368
3812,34944
3813,34880
3814,34176
3815,34112
3816,34816
3817,35008
3818,34368
3819,34176
3820,34752
3821,34944
3822,34304
3823,33792
3824,34176
3825,34816
3826,34624
3827,34176
3828,34560
3829,35264
3830,35264
3831,35008
3832,35520
3833,36288
3834,36224
3835,35776
3836,35904
3837,36352
3838,36160
3839,35328
3840,35072
3841,35264
3842,35008
3843,34304
3844,33728
3845,33600
3846,33472
3847,32768
3848,32384
3849,33024
3850,33728
3851,33536
3852,33216
3853,33728
3854,34432
3855,34176
3856,33664
3857,33856
3858,34560
3859,34432
3860,33728
3861,33856
3862,34496
3863,34560
3864,34560
3865,35712
3866,37888
3867,40000
3868,41280
3869,41856
3870,42048
3871,40384
3872,36864
3873,33664
3874,32192
3875,31808
3876,31296
3877,31168
3878,32192
3879,33280
3880,33152
3881,32704
3882,33152
3883,33984
3884,34048
3885,33600
3886,33728
3887,34432
3888,34496
3889,33920
3890,33856
3891,34496
3892,34752
3893,34176
3894,34112
3895,34816
3896,35136
3897,34496
3898,33920
3899,34240
3900,34624
3901,34240
3902,33728
3903,34112
3904,34624
3905,34368
3906,33728
3907,33984
3908,34624
3909,34496
3910,33856
3911,33920
3912,34560
3913,34624
3914,33984
3915,33920
3916,34560
3917,34880
3918,34304
3919,33984
3920,34560
3921,34880
3922,34496
3923,34368
3924,34880
3925,35136
3926,34560
3927,33920
3928,34176
3929,34816
3930,34688
3931,34112
3932,34368
3933,35072
3934,34944
3935,34304
3936,34368
3937,35008
3938,35136
3939,34560
3940,34496
3941,35136
3942,35264
3943,34560
3944,34176
3945,34880
3946,35136
3947,34560
3948,34048
3949,34368
3950,34752
3951,34496
3952,34112
3953,34496
3954,35008
3955,34688
3956,34048
3957,34304
3958,35008
3959,34944
3960,34240
3961,34368
3962,35200
3963,35328
3964,34560
3965,34304
3966,35008
3967,35264
3968,34624
3969,34304
3970,34880
3971,35264
3972,34816
3973,34304
3974,34752
3975,35328
3976,34816
3977,34240
3978,34560
3979,35264
3980,35136
3981,34688
3982,35008
3983,35840
3984,36032
3985,35648
3986,35712
3987,36288
3988,36288
3989,35392
3990,34944
3991,35264
3992,35264
3993,34432
3994,33856
3995,34112
3996,34304
3997,33664
3998,33216
3999,33728
4000,34048
4001,33536
4002,32960
4003,33344
4004,34112
4005,34048
4006,33472
4007,33600
4008,34304
4009,34304
4010,33600
4011,33472
4012,33984
4013,33920
4014,33216
4015,33472
4016,35072
4017,36928
4018,38272
4019,39744
4020,41344
4021,41984
4022,40320
4023,37184
4024,34688
4025,33088
4026,31680
4027,30656
4028,30912
4029,31872
4030,32256
4031,32192
4032,32640
4033,33536
4034,33792
4035,33344
4036,33408
4037,34176
4038,34368
4039,33792
4040,33600
4041,34240
4042,34496
4043,33920
4044,33600
4045,34112
4046,34560
4047,34048
4048,33600
4049,34112
4050,34880
4051,34496
4052,33728
4053,33856
4054,34496
4055,34240
4056,33536
4057,33536
4058,34176
4059,34176
4060,33600
4061,33600
4062,34304
4063,34496
4064,33920
4065,33920
4066,34624
4067,34944
4068,34368
4069,34112
4070,34752
4071,35200
4072,34688
4073,34176
4074,34688
4075,35264
4076,34944
4077,34432
4078,34752
4079,35392
4080,35072
4081,34368
4082,34496
4083,35200
4084,35136
4085,34432
4086,34368
4087,35136
4088,35392
4089,34816
4090,34496
4091,34944
4092,35136
4093,34496
4094,33984
4095,34432
4096,34880
4097,34304
4098,33728
4099,34048
4100,34560
4101,34176
4102,33600
4103,33856
4104,34496
4105,34304
4106,33600
4107,33664
4108,34368
4109,34496
4110,33920
4111,33920
4112,34560
4113,34816
4114,34240
4115,34048
4116,34624
4117,34880
4118,34240
4119,33728
4120,34240
4121,34752
4122,34304
4123,33728
4124,33920
4125,34304
4126,33856
4127,33152
4128,33472
4129,34176
4130,34112
4131,33536
4132,33536
4133,34176
4134,34176
4135,33600
4136,33664
4137,34560
4138,34944
4139,34496
4140,34496
4141,35200
4142,35584
4143,34944
4144,34368
4145,34688
4146,34880
4147,34176
4148,33344
4149,33344
4150,33600
4151,33088
4152,32384
4153,32448
4154,32896
4155,32768
4156,32256
4157,32512
4158,33344
4159,33536
4160,32960
4161,32896
4162,33536
4163,33856
4164,33344
4165,33152
4166,33728
4167,34048
4168,33344
4169,32832
4170,33600
4171,34880
4172,35712
4173,36736
4174,38784
4175,40896
4176,41600
4177,40960
4178,39424
4179,37184
4180,34368
4181,31872
4182,30912
4183,31360
4184,31616
4185,31424
4186,31808
4187,32896
4188,33536
4189,33472
4190,33536
4191,34176
4192,34624
4193,34112
4194,33792
4195,34304
4196,34816
4197,34368
4198,33792
4199,34048
4200,34688
4201,34496
4202,33920
4203,34048
4204,34688
4205,34496
4206,33920
4207,33984
4208,34688
4209,34816
4210,34176
4211,33984
4212,34624
4213,34880
4214,34304
4215,34176
4216,34752
4217,35136
4218,34560
4219,34112
4220,34560
4221,35072
4222,34688
4223,34240
4224,34624
4225,35328
4226,35136
4227,34496
4228,34624
4229,35264
4230,35136
4231,34496
4232,34560
4233,35200
4234,35328
4235,34624
4236,34368
4237,34880
4238,35136
4239,34624
4240,34368
4241,34944
4242,35328
4243,34752
4244,34240
4245,34624
4246,35200
4247,34816
4248,34304
4249,34560
4250,35136
4251,34816
4252,34112
4253,34240
4254,34880
4255,34688
4256,33984
4257,33856
4258,34432
4259,34560
4260,33984
4261,33792
4262,34368
4263,34624
4264,34112
4265,33792
4266,34368
4267,34816
4268,34368
4269,33920
4270,34304
4271,34816
4272,34496
4273,34048
4274,34304
4275,34816
4276,34496
4277,33920
4278,34048
4279,34752
4280,34752
4281,34112
4282,34048
4283,34688
4284,34752
4285,34176
4286,33920
4287,34496
4288,34752
4289,34112
4290,33728
4291,34176
4292,34624
4293,34176
4294,33792
4295,34240
4296,34752
4297,34304
4298,33664
4299,33920
4300,34560
4301,34368
4302,33728
4303,34048
4304,34944
4305,35008
4306,34432
4307,34560
4308,35328
4309,35584
4310,35072
4311,35008
4312,35712
4313,35904
4314,35136
4315,34560
4316,34816
4317,35072
4318,34368
4319,33728
4320,33984
4321,34304
4322,33728
4323,33024
4324,33280
4325,33984
4326,33792
4327,33152
4328,33344
4329,34048
4330,34048
4331,33472
4332,33408
4333,34240
4334,34368
4335,33600
4336,33408
4337,34048
4338,34432
4339,34112
4340,34560
4341,36288
4342,38208
4343,39552
4344,40576
4345,41664
4346,41664
4347,39296
4348,35840
4349,33344
4350,32192
4351,31296
4352,30528
4353,30848
4354,31936
4355,32448
4356,32256
4357,32576
4358,33472
4359,33856
4360,33472
4361,33472
4362,34176
4363,34560
4364,33984
4365,33600
4366,34112
4367,34496
4368,33984
4369,33472
4370,33856
4371,34432
4372,34112
4373,33536
4374,33792
4375,34432
4376,34240
4377,33600
4378,33664
4379,34304
4380,34368
4381,33664
4382,33728
4383,34368
4384,34496
4385,33792
4386,33472
4387,34112
4388,34496
4389,33920
4390,33600
4391,34112
4392,34624
4393,34304
4394,34048
4395,34688
4396,35136
4397,34560
4398,33728
4399,33856
4400,34496
4401,34368
4402,33792
4403,33920
4404,34688
4405,34752
4406,34112
4407,33984
4408,34688
4409,34880
4410,34240
4411,33984
4412,34624
4413,35008
4414,34496
4415,34112
4416,34560
4417,35072
4418,34624
4419,34112
4420,34624
4421,35392
4422,35072
4423,34112
4424,33984
4425,34560
4426,34304
4427,33600
4428,33664
4429,34368
4430,34496
4431,33856
4432,33792
4433,34560
4434,34816
4435,34240
4436,33984
4437,34624
4438,35136
4439,34560
4440,34112
4441,34624
4442,35328
4443,35008
4444,34368
4445,34496
4446,35072
4447,34624
4448,33856
4449,34176
4450,35008
4451,34816
4452,34048
4453,33984
4454,34688
4455,34752
4456,34112
4457,33920
4458,34560
4459,34816
4460,34240
4461,33920
4462,34496
4463,34880
4464,34432
4465,33984
4466,34496
4467,35136
4468,34752
4469,34176
4470,34368
4471,34816
4472,34560
4473,34048
4474,34112
4475,34624
4476,34496
4477,33792
4478,33856
4479,34560
4480,34752
4481,34176
4482,34240
4483,35072
4484,35456
4485,34944
4486,34752
4487,35456
4488,36096
4489,35712
4490,35328
4491,35840
4492,36416
4493,35712
4494,34560
4495,34432
4496,34752
4497,34304
4498,33408
4499,33344
4500,33856
4501,33728
4502,33088
4503,33152
4504,33920
4505,34112
4506,33472
4507,33344
4508,34048
4509,34368
4510,33792
4511,33472
4512,34048
4513,34496
4514,33856
4515,33344
4516,33792
4517,34688
4518,35200
4519,35968
4520,38016
4521,40320
4522,41408
4523,41280
4524,40640
4525,38912
4526,35904
4527,32832
4528,31232
4529,31232
4530,31360
4531,31040
4532,31360
4533,32384
4534,33088
4535,32896
4536,32896
4537,33728
4538,34432
4539,34048
4540,33536
4541,33920
4542,34432
4543,33984
4544,33408
4545,33856
4546,34496
4547,34240
4548,33600
4549,33664
4550,34432
4551,34560
4552,33920
4553,33728
4554,34240
4555,34240
4556,33600
4557,33408
4558,34112
4559,34432
4560,33920
4561,33664
4562,34240
4563,34688
4564,34176
4565,33792
4566,34304
4567,34816
4568,34368
4569,33728
4570,34112
4571,34880
4572,34688
4573,33984
4574,34048
4575,34752
4576,34688
4577,34176
4578,34176
4579,34880
4580,34944
4581,34304
4582,34112
4583,34752
4584,35136
4585,34560
4586,34176
4587,34688
4588,35200
4589,34688
4590,34176
4591,34624
4592,35136
4593,34816
4594,34176
4595,34368
4596,35136
4597,35008
4598,34240
4599,34240
4600,34880
4601,34816
4602,34112
4603,33984
4604,34688
4605,34944
4606,34304
4607,33920
4608,34368
4609,34560
4610,33920
4611,33600
4612,34176
4613,34752
4614,34432
4615,34112
4616,34496
4617,34944
4618,34496
4619,33792
4620,34112
4621,34816
4622,34688
4623,34048
4624,34112
4625,34752
4626,34688
4627,33984
4628,33920
4629,34624
4630,34816
4631,34176
4632,33984
4633,34560
4634,34880
4635,34368
4636,34048
4637,34688
4638,35200
4639,34624
4640,33856
4641,34112
4642,34688
4643,34304
4644,33728
4645,33984
4646,34624
4647,34432
4648,33664
4649,33792
4650,34368
4651,34304
4652,33728
4653,33664
4654,34304
4655,34496
4656,33856
4657,33664
4658,34368
4659,34816
4660,34240
4661,33664
4662,34176
4663,34880
4664,34624
4665,34240
4666,34560
4667,35072
4668,34880
4669,34560
4670,35008
4671,35776
4672,35584
4673,34816
4674,34688
4675,35200
4676,35008
4677,34112
4678,33792
4679,34176
4680,34048
4681,33216
4682,33024
4683,33664
4684,33920
4685,33344
4686,32960
4687,33664
4688,34240
4689,33728
4690,33216
4691,33600
4692,34176
4693,33856
4694,33280
4695,33536
4696,34240
4697,33984
4698,33408
4699,34048
4700,35840
4701,37440
4702,38784
4703,40256
4704,41728
4705,41792
4706,39616
4707,36480
4708,34048
4709,32448
4710,31040
4711,30464
4712,30976
4713,31808
4714,31744
4715,31680
4716,32384
4717,33408
4718,33472
4719,33088
4720,33408
4721,34048
4722,33984
4723,33408
4724,33600
4725,34240
4726,34304
4727,33536
4728,33344
4729,33984
4730,34304
4731,33728
4732,33408
4733,33920
4734,34368
4735,33984
4736,33600
4737,33984
4738,34368
4739,33792
4740,33216
4741,33664
4742,34368
4743,34176
4744,33536
4745,33792
4746,34496
4747,34560
4748,34048
4749,33920
4750,34496
4751,34496
4752,33856
4753,33728
4754,34496
4755,34688
4756,34112
4757,33920
4758,34624
4759,35072
4760,34496
4761,33984
4762,34368
4763,34880
4764,34432
4765,33856
4766,34240
4767,34880
4768,34688
4769,33984
4770,34112
4771,34688
4772,34560
4773,33856
4774,33856
4775,34624
4776,34816
4777,34240
4778,34112
4779,34816
4780,35072
4781,34368
4782,33856
4783,34368
4784,34688
4785,33984
4786,33344
4787,33664
4788,34240
4789,33856
4790,33344
4791,33728
4792,34368
4793,34048
4794,33472
4795,33664
4796,34368
4797,34368
4798,33728
4799,33728
4800,34240
4801,34240
4802,33728
4803,33664
4804,34304
4805,34560
4806,34048
4807,33664
4808,34112
4809,34560
4810,34112
4811,33600
4812,34048
4813,34560
4814,33984
4815,33472
4816,33792
4817,34368
4818,34176
4819,33536
4820,33664
4821,34368
4822,34304
4823,33664
4824,33664
4825,34368
4826,34368
4827,33664
4828,33472
4829,34176
4830,34560
4831,33920
4832,33600
4833,34240
4834,34752
4835,34176
4836,33664
4837,34112
4838,34752
4839,34496
4840,34112
4841,34432
4842,35072
4843,34944
4844,34368
4845,34560
4846,35328
4847,35520
4848,35008
4849,35136
4850,35904
4851,36032
4852,35200
4853,34752
4854,35136
4855,35200
4856,34368
4857,33728
4858,34048
4859,34112
4860,33536
4861,33088
4862,33472
4863,34048
4864,33792
4865,33280
4866,33600
4867,34304
4868,34176
4869,33664
4870,33984
4871,34688
4872,34496
4873,33664
4874,33600
4875,34048
4876,34240
4877,34048
4878,34880
4879,36864
4880,38848
4881,40128
4882,41088
4883,41920
4884,41280
4885,38336
4886,35008
4887,33024
4888,32128
4889,31296
4890,30784
4891,31360
4892,32448
4893,32832
4894,32576
4895,32960
4896,33856
4897,33984
4898,33408
4899,33472
4900,34240
4901,34496
4902,33792
4903,33600
4904,34240
4905,34624
4906,34048
4907,33728
4908,34240
4909,34688
4910,34240
4911,33728
4912,34112
4913,34752
4914,34496
4915,33920
4916,34240
4917,35008
4918,34688
4919,33856
4920,33920
4921,34688
4922,34688
4923,34176
4924,34176
4925,34752
4926,34880
4927,34176
4928,33984
4929,34688
4930,35072
4931,34560
4932,34240
4933,34880
4934,35392
4935,34880
4936,34368
4937,34688
4938,35200
4939,34880
4940,34240
4941,34560
4942,35328
4943,35200
4944,34432
4945,34368
4946,35008
4947,35008
4948,34368
4949,34432
4950,34880
4951,35136
4952,34624
4953,34496
4954,35200
4955,35584
4956,35008
4957,34432
4958,34880
4959,35264
4960,34816
4961,34240
4962,34560
4963,35072
4964,34496
4965,34048
4966,34240
4967,34816
4968,34688
4969,34048
4970,34176
4971,34880
4972,34944
4973,34368
4974,34304
4975,34944
4976,35072
4977,34432
4978,34112
4979,34880
4980,35200
4981,34624
4982,34240
4983,34752
4984,35200
4985,34624
4986,34048
4987,34432
4988,35072
4989,34752
4990,34176
4991,34368
4992,35008
4993,34944
4994,34432
4995,34560
4996,35136
4997,34944
4998,34176
4999,33984
5000,34752
5001,35136
5002,34816
5003,34752
5004,35520
5005,35968
5006,35712
5007,35520
5008,36096
5009,36480
5010,35904
5011,35264
5012,35328
5013,35648
5014,35072
5015,34176
5016,34048
5017,34496
5018,34176
5019,33344
5020,33152
5021,33728
5022,33792
5023,33280
5024,33536
5025,33984
5026,34240
5027,33728
5028,33536
5029,34304
5030,34816
5031,34304
5032,33792
5033,34048
5034,34368
5035,33792
5036,33152
5037,33536
5038,34688
5039,35712
5040,36544
5041,38592
5042,40832
5043,41856
5044,41216
5045,39488
5046,37248
5047,34496
5048,31872
5049,30464
5050,30528
5051,30720
5052,30528
5053,30784
5054,31808
5055,32704
5056,32576
5057,33216
5058,33600
5059,33088
5060,32512
5061,32832
5062,33472
5063,33280
5064,32704
5065,32960
5066,33728
5067,33728
5068,33152
5069,33216
5070,33984
5071,34240
5072,33664
5073,33536
5074,34176
5075,34432
5076,33792
5077,33472
5078,34112
5079,34624
5080,34304
5081,33920
5082,34304
5083,34752
5084,34688
5085,34304
5086,34240
5087,34816
5088,34496
5089,33856
5090,34048
5091,34816
5092,34752
5093,34176
5094,34112
5095,34688
5096,34752
5097,34112
5098,34240
5099,34240
5100,34624
5101,34752
5102,33600
5103,34048
5104,34496
5105,34048
5106,33408
5107,33600
5108,33984
5109,33536
5110,33024
5111,33344
5112,34048
5113,33536
5114,33408
5115,33344
5116,33984
5117,34048
5118,33472
5119,33408
5120,33984
5121,33920
5122,33152
5123,32832
5124,33408
5125,33728
5126,33216
5127,32960
5128,33664
5129,33664
5130,33408
5131,32896
5132,33344
5133,33920
5134,33600
5135,33152
5136,33536
5137,34240
5138,34112
5139,33472
5140,33472
5141,34048
5142,34048
5143,33408
5144,33408
5145,34112
5146,34304
5147,33664
5148,33472
5149,34112
5150,34432
5151,33792
5152,33344
5153,33856
5154,34240
5155,33856
5156,33472
5157,33920
5158,34432
5159,34368
5160,33408
5161,33728
5162,34432
5163,34240
5164,33536
5165,33536
5166,34240
5167,34304
5168,33600
5169,33600
5170,34304
5171,34496
5172,33856
5173,34048
5174,34176
5175,35136
5176,34624
5177,34304
5178,35008
5179,35712
5180,35584
5181,35264
5182,35648
5183,36096
5184,35712
5185,35008
5186,35008
5187,35328
5188,34432
5189,34240
5190,33664
5191,34176
5192,33984
5193,33216
5194,33088
5195,33728
5196,34048
5197,33536
5198,33408
5199,34112
5200,34624
5201,34112
5202,33728
5203,34240
5204,34752
5205,34240
5206,33792
5207,34304
5208,34880
5209,34432
5210,34112
5211,35328
5212,37312
5213,38912
5214,40192
5215,41600
5216,42688
5217,41856
5218,37824
5219,37568
5220,33728
5221,32448
5222,31360
5223,31168
5224,32064
5225,32768
5226,32640
5227,32640
5228,33536
5229,34368
5230,34048
5231,33664
5232,34176
5233,34880
5234,34624
5235,34048
5236,34304
5237,34944
5238,34752
5239,34112
5240,34176
5241,34880
5242,34880
5243,34176
5244,33984
5245,34624
5246,34816
5247,34240
5248,34432
5249,34496
5250,35072
5251,34432
5252,33920
5253,34368
5254,34880
5255,34560
5256,34112
5257,34496
5258,35008
5259,34688
5260,34112
5261,34304
5262,35008
5263,34944
5264,34304
5265,34368
5266,35008
5267,35136
5268,34496
5269,34304
5270,34880
5271,35136
5272,34496
5273,34240
5274,34880
5275,35200
5276,34560
5277,34112
5278,34944
5279,35008
5280,34688
5281,34112
5282,34496
5283,35072
5284,34816
5285,34176
5286,34304
5287,34944
5288,34816
5289,34176
5290,34240
5291,34880
5292,34944
5293,34048
5294,33984
5295,34688
5296,34944
5297,34176
5298,33664
5299,34176
5300,34496
5301,33984
5302,33664
5303,34240
5304,34816
5305,34304
5306,33792
5307,34176
5308,34816
5309,34752
5310,33792
5311,33984
5312,34752
5313,34624
5314,33984
5315,33984
5316,34688
5317,34816
5318,34176
5319,34048
5320,34752
5321,35008
5322,34304
5323,34176
5324,34176
5325,34752
5326,34112
5327,33664
5328,34176
5329,34816
5330,34432
5331,33728
5332,33984
5333,34560
5334,34368
5335,33728
5336,33920
5337,34560
5338,34176
5339,33984
5340,33856
5341,34560
5342,34624
5343,33920
5344,33728
5345,34368
5346,34624
5347,34048
5348,33792
5349,34496
5350,35008
5351,34560
5352,34176
5353,35072
5354,35072
5355,35328
5356,35008
5357,35392
5358,36032
5359,35712
5360,35008
5361,35136
5362,35648
5363,35264
5364,34368
5365,34112
5366,34624
5367,34560
5368,33600
5369,33152
5370,33664
5371,33920
5372,33344
5373,33024
5374,33664
5375,34240
5376,33792
5377,33344
5378,33856
5379,34496
5380,34176
5381,33600
5382,33856
5383,34368
5384,34240
5385,33344
5386,33600
5387,34816
5388,35840
5389,36672
5390,38464
5391,40704
5392,41856
5393,41536
5394,40064
5395,37952
5396,35328
5397,32576
5398,30912
5399,30912
5400,31552
5401,31424
5402,31360
5403,32256
5404,33216
5405,33216
5406,32896
5407,33408
5408,34240
5409,34240
5410,33664
5411,33664
5412,34304
5413,34176
5414,33536
5415,33536
5416,34304
5417,34560
5418,33856
5419,33536
5420,34176
5421,34496
5422,33920
5423,33472
5424,33984
5425,34432
5426,33920
5427,33408
5428,33856
5429,34560
5430,34304
5431,33728
5432,33920
5433,34560
5434,34368
5435,33728
5436,33728
5437,34432
5438,34432
5439,33792
5440,33792
5441,34624
5442,34880
5443,34240
5444,34048
5445,34560
5446,34880
5447,34304
5448,34048
5449,34624
5450,35136
5451,34624
5452,33984
5453,34240
5454,34880
5455,34624
5456,33920
5457,34112
5458,34688
5459,34368
5460,33600
5461,33728
5462,34560
5463,34688
5464,33920
5465,33664
5466,34176
5467,34304
5468,33600
5469,33280
5470,33920
5471,34304
5472,33856
5473,33280
5474,33728
5475,34048
5476,33600
5477,33152
5478,33728
5479,34432
5480,34048
5481,33408
5482,33536
5483,34048
5484,33856
5485,33280
5486,33472
5487,34304
5488,34304
5489,33536
5490,33280
5491,33920
5492,34112
5493,33408
5494,33088
5495,33728
5496,34048
5497,33536
5498,33152
5499,33664
5500,34240
5501,33792
5502,33152
5503,33408
5504,33984
5505,33664
5506,33088
5507,33536
5508,34432
5509,34304
5510,33536
5511,33536
5512,34176
5513,34240
5514,33536
5515,33344
5516,34048
5517,34368
5518,33920
5519,33664
5520,34176
5521,34432
5522,33792
5523,33408
5524,33920
5525,34432
5526,33920
5527,33280
5528,33664
5529,34368
5530,34240
5531,33728
5532,34112
5533,34944
5534,35072
5535,34560
5536,34688
5537,35520
5538,35840
5539,35456
5540,35520
5541,36160
5542,36224
5543,35456
5544,34816
5545,35136
5546,35264
5547,34496
5548,33728
5549,33984
5550,34304
5551,33856
5552,33216
5553,33536
5554,34176
5555,34112
5556,33600
5557,33792
5558,34368
5559,34304
5560,33728
5561,33920
5562,34816
5563,34944
5564,34304
5565,34048
5566,34560
5567,34688
5568,34176
5569,34496
5570,36160
5571,38144
5572,39616
5573,40640
5574,41664
5575,41600
5576,39232
5577,35968
5578,33728
5579,32704
5580,31744
5581,31168
5582,31552
5583,32512
5584,32768
5585,32448
5586,32704
5587,33664
5588,34048
5589,33536
5590,33536
5591,34304
5592,34624
5593,34048
5594,33728
5595,34496
5596,35008
5597,34304
5598,33664
5599,34048
5600,34624
5601,34240
5602,33728
5603,34112
5604,34880
5605,34752
5606,34112
5607,34176
5608,34752
5609,34560
5610,33920
5611,34048
5612,34688
5613,34816
5614,34112
5615,33920
5616,34688
5617,35136
5618,34496
5619,34048
5620,34432
5621,34816
5622,34304
5623,33856
5624,34432
5625,35072
5626,34624
5627,34048
5628,34368
5629,35072
5630,34944
5631,34240
5632,34304
5633,34944
5634,34880
5635,34112
5636,33984
5637,34752
5638,34880
5639,34304
5640,34240
5641,35072
5642,35264
5643,34496
5644,33984
5645,34496
5646,35008
5647,34560
5648,34048
5649,34496
5650,35136
5651,34816
5652,34240
5653,34496
5654,35200
5655,34944
5656,34176
5657,34176
5658,34816
5659,34752
5660,34048
5661,33920
5662,34688
5663,35008
5664,34432
5665,34176
5666,34688
5667,34944
5668,34368
5669,33984
5670,34496
5671,35008
5672,34560
5673,34176
5674,34624
5675,35264
5676,34816
5677,34240
5678,34432
5679,35072
5680,34816
5681,34240
5682,34368
5683,34944
5684,34816
5685,33984
5686,33920
5687,34560
5688,34816
5689,34176
5690,33920
5691,34560
5692,34944
5693,34368
5694,33984
5695,34560
5696,35200
5697,34688
5698,33984
5699,34240
5700,34752
5701,34432
5702,33856
5703,34048
5704,34816
5705,34816
5706,34240
5707,34432
5708,35328
5709,35392
5710,34880
5711,35008
5712,35904
5713,36224
5714,35584
5715,35136
5716,35520
5717,35648
5718,34752
5719,34112
5720,34432
5721,34688
5722,33792
5723,32896
5724,33024
5725,33600
5726,33280
5727,32640
5728,32896
5729,33728
5730,33792
5731,33088
5732,33088
5733,33728
5734,33920
5735,33344
5736,33152
5737,33728
5738,33856
5739,33088
5740,32768
5741,33344
5742,33920
5743,34048
5744,34880
5745,36992
5746,39296
5747,40512
5748,40704
5749,40576
5750,38976
5751,35840
5752,32704
5753,31232
5754,31104
5755,30912
5756,30528
5757,30976
5758,32000
5759,32512
5760,32256
5761,32384
5762,33280
5763,33664
5764,33216
5765,32896
5766,33408
5767,33728
5768,33216
5769,32768
5770,33280
5771,33792
5772,33408
5773,32896
5774,33280
5775,33920
5776,33600
5777,32960
5778,33152
5779,33856
5780,33728
5781,33088
5782,33088
5783,33792
5784,33792
5785,33152
5786,32960
5787,33664
5788,33984
5789,33408
5790,33024
5791,33536
5792,33984
5793,33472
5794,33088
5795,33600
5796,34304
5797,33920
5798,33408
5799,33728
5800,34432
5801,34304
5802,33728
5803,33984
5804,34688
5805,34624
5806,33984
5807,33856
5808,34496
5809,34560
5810,33984
5811,33920
5812,34496
5813,34688
5814,34048
5815,33728
5816,34304
5817,34752
5818,34304
5819,33856
5820,34368
5821,35008
5822,34816
5823,34240
5824,34560
5825,35136
5826,34816
5827,34176
5828,34304
5829,34944
5830,34752
5831,33920
5832,33856
5833,34560
5834,34752
5835,34048
5836,33728
5837,34368
5838,34560
5839,33984
5840,33600
5841,34240
5842,34816
5843,34304
5844,33792
5845,34112
5846,34624
5847,34176
5848,33600
5849,33920
5850,34624
5851,34304
5852,33472
5853,33472
5854,34176
5855,34112
5856,33408
5857,33408
5858,34112
5859,34368
5860,33792
5861,33600
5862,34304
5863,34752
5864,34240
5865,34048
5866,34816
5867,35456
5868,35136
5869,34752
5870,35136
5871,35456
5872,34816
5873,33920
5874,33856
5875,34240
5876,33728
5877,32576
5878,32192
5879,32384
5880,32128
5881,31360
5882,31360
5883,32192
5884,32512
5885,31936
5886,31808
5887,32512
5888,32896
5889,32384
5890,32128
5891,32832
5892,33344
5893,32896
5894,32320
5895,32448
5896,32768
5897,32320
5898,31872
5899,32960
5900,35008
5901,36672
5902,38080
5903,39680
5904,40960
5905,40320
5906,37376
5907,34240
5908,32384
5909,31040
5910,29760
5911,29632
5912,30400
5913,31168
5914,31104
5915,31104
5916,31872
5917,32640
5918,32512
5919,32256
5920,32832
5921,33472
5922,33280
5923,32896
5924,33152
5925,33664
5926,33408
5927,32704
5928,32768
5929,33408
5930,33472
5931,32832
5932,32768
5933,33472
5934,33792
5935,33152
5936,32896
5937,33536
5938,33920
5939,33408
5940,33024
5941,33600
5942,34176
5943,33856
5944,33344
5945,33728
5946,34304
5947,33984
5948,33280
5949,33472
5950,34176
5951,34112
5952,33472
5953,33472
5954,34240
5955,34304
5956,33728
5957,33600
5958,34304
5959,34560
5960,33920
5961,33728
5962,34368
5963,34816
5964,34368
5965,33856
5966,34176
5967,34560
5968,34112
5969,33408
5970,33664
5971,34240
5972,33984
5973,33408
5974,33600
5975,34432
5976,34368
5977,33536
5978,33472
5979,34112
5980,34176
5981,33472
5982,33280
5983,33856
5984,34112
5985,33472
5986,33152
5987,33728
5988,34112
5989,33600
5990,33152
5991,33536
5992,34112
5993,33728
5994,33216
5995,33536
5996,34176
5997,33920
5998,33280
5999,33408
6000,34048
6001,33984
6002,33344
6003,33344
6004,33984
6005,33984
6006,33280
6007,33152
6008,33728
6009,33856
6010,33024
6011,32576
6012,33088
6013,33536
6014,33024
6015,32512
6016,32960
6017,33472
6018,33152
6019,32704
6020,33024
6021,33792
6022,33600
6023,33024
6024,33152
6025,33984
6026,33920
6027,33216
6028,33024
6029,33536
6030,33600
6031,33024
6032,33024
6033,33792
6034,34112
6035,33472
6036,33152
6037,33920
6038,34560
6039,34240
6040,33856
6041,34240
6042,34688
6043,34048
6044,33216
6045,33152
6046,33408
6047,32832
6048,31872
6049,31680
6050,32064
6051,31872
6052,31232
6053,31232
6054,32000
6055,32320
6056,31872
6057,31872
6058,32704
6059,33024
6060,32512
6061,32320
6062,32960
6063,33408
6064,32832
6065,32256
6066,32576
6067,33152
6068,33152
6069,33344
6070,34880
6071,37184
6072,38976
6073,39936
6074,40768
6075,40896
6076,38784
6077,35072
6078,32192
6079,30976
6080,30336
6081,29632
6082,29824
6083,30848
6084,31616
6085,31488
6086,31488
6087,32448
6088,33280
6089,33088
6090,32768
6091,33216
6092,33856
6093,33536
6094,32896
6095,33088
6096,33792
6097,33728
6098,33152
6099,33216
6100,33856
6101,33792
6102,33152
6103,33152
6104,33920
6105,34176
6106,33664
6107,33472
6108,34176
6109,34624
6110,34112
6111,33728
6112,34304
6113,34880
6114,34624
6115,34176
6116,34496
6117,35008
6118,34624
6119,34048
6120,34368
6121,35072
6122,34944
6123,34368
6124,34432
6125,35136
6126,35200
6127,34560
6128,34496
6129,35200
6130,35456
6131,34816
6132,34496
6133,35008
6134,35392
6135,34880
6136,34496
6137,34944
6138,35328
6139,34752
6140,34112
6141,34432
6142,35008
6143,34752
6144,34176
6145,34432
6146,35200
6147,35136
6148,34560
6149,34688
6150,35456
6151,35520
6152,34816
6153,34688
6154,35328
6155,35584
6156,34944
6157,34624
6158,35136
6159,35520
6160,35008
6161,34624
6162,35072
6163,35584
6164,35136
6165,34624
6166,35008
6167,35584
6168,35328
6169,34752
6170,34944
6171,35648
6172,35456
6173,34688
6174,34688
6175,35392
6176,35456
6177,34752
6178,34432
6179,34944
6180,35136
6181,34496
6182,34176
6183,34880
6184,35392
6185,34816
6186,34240
6187,34624
6188,35136
6189,34752
6190,34240
6191,34560
6192,35264
6193,35008
6194,34304
6195,34496
6196,35072
6197,35008
6198,34432
6199,34432
6200,35072
6201,35136
6202,34496
6203,34368
6204,35264
6205,35840
6206,35520
6207,35456
6208,35968
6209,36288
6210,35584
6211,34880
6212,35072
6213,35328
6214,34688
6215,33856
6216,33856
6217,34304
6218,33920
6219,33280
6220,33536
6221,34304
6222,34368
6223,33792
6224,33920
6225,34752
6226,34880
6227,34240
6228,34112
6229,34816
6230,35136
6231,34496
6232,34112
6233,34624
6234,35008
6235,34496
6236,34240
6237,35392
6238,37120
6239,38528
6240,39936
6241,41280
6242,42368
6243,41344
6244,38336
6245,35520
6246,33792
6247,32320
6248,31168
6249,31104
6250,32064
6251,32512
6252,32192
6253,32320
6254,33216
6255,33728
6256,33216
6257,33024
6258,33792
6259,34304
6260,33792
6261,33280
6262,33664
6263,34304
6264,33984
6265,33344
6266,33536
6267,34176
6268,33984
6269,33344
6270,33472
6271,34176
6272,34112
6273,33344
6274,33216
6275,33920
6276,34048
6277,33408
6278,33216
6279,33984
6280,34240
6281,33600
6282,33216
6283,33856
6284,34304
6285,33600
6286,33216
6287,33792
6288,34432
6289,33984
6290,33280
6291,33600
6292,34368
6293,34176
6294,33408
6295,33536
6296,34240
6297,34176
6298,33408
6299,33280
6300,33984
6301,34240
6302,33600
6303,33408
6304,34048
6305,34304
6306,33664
6307,33280
6308,33920
6309,34496
6310,34048
6311,33536
6312,34048
6313,34688
6314,34432
6315,33856
6316,34368
6317,34944
6318,34688
6319,33984
6320,34048
6321,34816
6322,34752
6323,33984
6324,33984
6325,34752
6326,34880
6327,34240
6328,33984
6329,34688
6330,35008
6331,34368
6332,33856
6333,34240
6334,34688
6335,34112
6336,33536
6337,33920
6338,34624
6339,34368
6340,33792
6341,34112
6342,34880
6343,34688
6344,34048
6345,34176
6346,35008
6347,35008
6348,34240
6349,34112
6350,34816
6351,35072
6352,34368
6353,34048
6354,34688
6355,34944
6356,34304
6357,33920
6358,34560
6359,35136
6360,34624
6361,33920
6362,34304
6363,34944
6364,34560
6365,33792
6366,34048
6367,34816
6368,34752
6369,34112
6370,34368
6371,35328
6372,35456
6373,34880
6374,34752
6375,35520
6376,35840
6377,35456
6378,35328
6379,36032
6380,36352
6381,35584
6382,34880
6383,35200
6384,35456
6385,34688
6386,33792
6387,33920
6388,34432
6389,34048
6390,33408
6391,33664
6392,34432
6393,34304
6394,33664
6395,33856
6396,34688
6397,34816
6398,34112
6399,34048
6400,34816
6401,35136
6402,34496
6403,34112
6404,34752
6405,35136
6406,34496
6407,34240
6408,35648
6409,37504
6410,38976
6411,40256
6412,41728
6413,42624
6414,41216
6415,38016
6416,35264
6417,33856
6418,32576
6419,31488
6420,31552
6421,32704
6422,33088
6423,32768
6424,33024
6425,34112
6426,34752
6427,34240
6428,33856
6429,34432
6430,34880
6431,34432
6432,33920
6433,34432
6434,35008
6435,34624
6436,34048
6437,34368
6438,35072
6439,34816
6440,34112
6441,34240
6442,34944
6443,34880
6444,34176
6445,34176
6446,35072
6447,35264
6448,34624
6449,34496
6450,35136
6451,35328
6452,34688
6453,34368
6454,34944
6455,35392
6456,34816
6457,34304
6458,34880
6459,35520
6460,35136
6461,34560
6462,34880
6463,35584
6464,35456
6465,34688
6466,34752
6467,35392
6468,35392
6469,34688
6470,34688
6471,35456
6472,35584
6473,34880
6474,34688
6475,35456
6476,35648
6477,34880
6478,34368
6479,34944
6480,35456
6481,35008
6482,34624
6483,35264
6484,35904
6485,35456
6486,34816
6487,35136
6488,35840
6489,35584
6490,34816
6491,34944
6492,35584
6493,35584
6494,34816
6495,34624
6496,35328
6497,35520
6498,34880
6499,34688
6500,35264
6501,35520
6502,34880
6503,34496
6504,35136
6505,35584
6506,35072
6507,34496
6508,34880
6509,35584
6510,35200
6511,34560
6512,34816
6513,35456
6514,35264
6515,34496
6516,34560
6517,35328
6518,35328
6519,34560
6520,34496
6521,35200
6522,35392
6523,34688
6524,34368
6525,34944
6526,35264
6527,34624
6528,34176
6529,34752
6530,35264
6531,34688
6532,34112
6533,34624
6534,35264
6535,34880
6536,34176
6537,34368
6538,34944
6539,34688
6540,33984
6541,34112
6542,34944
6543,35200
6544,34624
6545,34624
6546,35392
6547,35712
6548,35264
6549,35136
6550,35904
6551,36224
6552,35584
6553,34944
6554,35264
6555,35520
6556,34688
6557,33856
6558,33792
6559,34048
6560,33472
6561,32704
6562,32960
6563,33728
6564,33728
6565,33152
6566,33280
6567,34176
6568,34368
6569,33728
6570,33600
6571,34368
6572,34816
6573,34240
6574,33856
6575,34368
6576,34624
6577,33920
6578,33408
6579,34368
6580,36032
6581,36992
6582,38336
6583,40384
6584,42304
6585,42112
6586,39616
6587,37504
6588,35392
6589,33280
6590,31616
6591,31296
6592,32128
6593,32512
6594,32256
6595,32512
6596,33536
6597,33984
6598,33536
6599,33344
6600,34112
6601,34688
6602,34304
6603,33920
6604,34496
6605,35008
6606,34496
6607,33792
6608,34176
6609,34944
6610,34688
6611,34048
6612,34176
6613,34880
6614,34752
6615,33984
6616,33984
6617,34752
6618,34880
6619,34176
6620,33984
6621,34688
6622,35072
6623,34496
6624,34176
6625,34752
6626,35136
6627,34560
6628,34112
6629,34624
6630,35200
6631,34752
6632,34112
6633,34432
6634,35200
6635,34944
6636,34176
6637,34304
6638,35072
6639,35008
6640,34240
6641,34048
6642,34752
6643,34816
6644,34048
6645,33856
6646,34496
6647,34752
6648,34048
6649,33728
6650,34368
6651,34752
6652,34176
6653,33728
6654,34240
6655,34880
6656,34560
6657,34048
6658,34368
6659,35072
6660,34880
6661,34176
6662,34240
6663,34944
6664,34944
6665,34240
6666,34176
6667,34880
6668,34944
6669,34176
6670,33920
6671,34560
6672,34944
6673,34368
6674,34048
6675,34688
6676,35136
6677,34624
6678,34112
6679,34560
6680,35200
6681,34880
6682,34240
6683,34496
6684,35136
6685,34944
6686,34176
6687,34240
6688,35008
6689,34880
6690,34240
6691,34176
6692,34816
6693,35008
6694,34368
6695,34048
6696,34752
6697,35200
6698,34560
6699,33984
6700,34496
6701,35072
6702,34560
6703,34048
6704,34624
6705,35200
6706,34688
6707,33984
6708,34240
6709,34944
6710,34752
6711,34048
6712,34112
6713,34880
6714,34944
6715,34176
6716,34112
6717,34944
6718,35392
6719,34880
6720,34688
6721,35456
6722,35968
6723,35584
6724,35328
6725,35840
6726,36288
6727,35648
6728,34752
6729,34880
6730,35264
6731,34688
6732,33728
6733,33664
6734,34176
6735,33792
6736,32960
6737,33024
6738,33792
6739,33984
6740,33344
6741,33280
6742,33984
6743,34176
6744,33472
6745,33152
6746,33856
6747,34432
6748,33920
6749,33408
6750,33792
6751,34240
6752,33600
6753,33216
6754,34368
6755,36352
6756,37824
6757,39168
6758,40832
6759,42240
6760,41664
6761,38912
6762,35904
6763,34048
6764,32448
6765,31232
6766,30976
6767,31936
6768,32576
6769,32384
6770,32448
6771,33472
6772,34176
6773,33792
6774,33536
6775,34176
6776,34944
6777,34496
6778,33792
6779,34112
6780,34880
6781,34624
6782,33856
6783,33984
6784,34752
6785,34752
6786,33984
6787,33920
6788,34752
6789,34816
6790,34112
6791,33856
6792,34624
6793,35008
6794,34240
6795,34048
6796,34624
6797,35136
6798,34560
6799,34048
6800,34560
6801,35264
6802,34944
6803,34304
6804,34560
6805,35200
6806,34944
6807,34240
6808,34432
6809,35200
6810,35200
6811,34496
6812,34496
6813,35200
6814,35328
6815,34624
6816,34304
6817,34944
6818,35328
6819,34688
6820,34240
6821,34752
6822,35200
6823,34560
6824,33984
6825,34368
6826,35008
6827,34752
6828,34176
6829,34496
6830,35264
6831,35072
6832,34368
6833,34496
6834,35264
6835,35264
6836,34496
6837,34368
6838,35200
6839,35456
6840,34624
6841,34176
6842,34688
6843,34944
6844,34368
6845,33984
6846,34624
6847,35264
6848,34816
6849,34240
6850,34688
6851,35328
6852,35008
6853,34368
6854,34688
6855,35328
6856,35200
6857,34496
6858,34560
6859,35392
6860,35392
6861,34752
6862,34624
6863,35328
6864,35584
6865,34880
6866,34624
6867,35200
6868,35520
6869,34688
6870,34368
6871,34880
6872,35456
6873,34944
6874,34368
6875,35456
6876,35136
6877,34432
6878,34624
6879,35392
6880,35200
6881,34432
6882,34368
6883,35072
6884,35136
6885,34432
6886,34368
6887,35200
6888,35584
6889,35008
6890,34752
6891,35584
6892,36096
6893,35520
6894,35072
6895,35712
6896,36416
6897,36096
6898,35520
6899,35456
6900,36224
6901,36160
6902,34688
6903,34496
6904,34880
6905,34432
6906,33408
6907,33216
6908,33792
6909,33792
6910,33088
6911,32960
6912,33792
6913,34176
6914,34112
6915,33472
6916,33536
6917,34752
6918,34176
6919,33600
6920,34112
6921,34752
6922,34304
6923,33600
6924,33728
6925,34432
6926,34752
6927,35264
6928,36992
6929,39616
6930,41344
6931,41728
6932,41600
6933,40512
6934,37824
6935,34496
6936,32256
6937,31808
6938,31872
6939,31552
6940,31680
6941,31808
6942,32768
6943,33280
6944,33152
6945,33024
6946,34368
6947,34112
6948,33600
6949,33984
6950,34688
6951,34496
6952,33792
6953,33920
6954,34688
6955,34752
6956,34048
6957,34048
6958,35008
6959,35008
6960,34112
6961,33792
6962,34496
6963,34880
6964,34240
6965,33920
6966,34560
6967,35136
6968,34624
6969,33984
6970,34432
6971,35072
6972,34752
6973,33984
6974,33920
6975,34944
6976,34816
6977,34112
6978,34304
6979,35072
6980,35136
6981,34432
6982,34368
6983,35072
6984,35264
6985,34560
6986,34240
6987,34880
6988,35200
6989,34624
6990,34176
6991,34752
6992,35264
6993,34752
6994,34112
6995,34496
6996,35136
6997,34816
6998,34176
6999,34432
7000,35200
7001,35008
7002,34240
7003,34304
7004,35136
7005,35200
7006,34432
7007,34240
7008,34944
7009,35136
7010,34432
7011,34112
7012,34752
7013,35136
7014,34432
7015,33920
7016,34432
7017,34944
7018,34240
7019,34112
7020,34496
7021,35200
7022,34944
7023,34240
7024,34368
7025,35008
7026,34880
7027,34176
7028,34240
7029,35008
7030,35072
7031,34304
7032,34112
7033,34944
7034,34944
7035,34368
7036,34048
7037,34688
7038,35072
7039,34432
7040,33920
7041,34368
7042,34944
7043,34496
7044,33920
7045,34240
7046,34880
7047,34560
7048,33792
7049,33920
7050,34688
7051,34624
7052,34048
7053,34112
7054,34880
7055,34944
7056,34304
7057,34176
7058,35008
7059,35456
7060,35008
7061,34944
7062,35776
7063,36224
7064,36160
7065,35072
7066,35264
7067,35584
7068,34880
7069,33920
7070,33856
7071,34240
7072,33728
7073,32832
7074,32896
7075,33536
7076,33536
7077,32832
7078,32832
7079,33664
7080,33920
7081,33280
7082,33152
7083,33920
7084,34368
7085,33664
7086,33216
7087,33792
7088,34240
7089,33600
7090,32960
7091,33280
7092,33920
7093,34176
7094,34112
7095,36608
7096,39168
7097,40832
7098,41216
7099,41216
7100,40192
7101,37376
7102,33984
7103,31872
7104,31424
7105,31296
7106,30784
7107,30848
7108,32384
7109,32448
7110,32576
7111,32512
7112,33344
7113,34048
7114,33728
7115,33280
7116,33664
7117,34368
7118,34048
7119,33472
7120,33728
7121,34432
7122,34304
7123,33472
7124,33408
7125,34368
7126,34368
7127,33664
7128,33536
7129,34240
7130,34496
7131,33792
7132,33536
7133,34176
7134,34560
7135,33984
7136,33536
7137,34112
7138,34688
7139,34240
7140,33728
7141,34176
7142,34880
7143,34624
7144,33984
7145,34240
7146,34944
7147,34816
7148,34048
7149,34048
7150,34816
7151,34880
7152,34176
7153,34048
7154,34816
7155,35072
7156,34304
7157,33920
7158,34560
7159,35008
7160,34368
7161,33792
7162,34240
7163,34816
7164,34432
7165,33792
7166,34112
7167,34752
7168,34112
7169,33984
7170,34112
7171,34176
7172,34496
7173,33600
7174,33408
7175,33984
7176,33984
7177,33216
7178,33024
7179,33792
7180,34112
7181,33472
7182,33088
7183,33984
7184,33984
7185,33728
7186,33280
7187,33792
7188,34432
7189,34048
7190,33408
7191,33664
7192,34304
7193,33984
7194,33216
7195,33408
7196,34176
7197,34240
7198,33600
7199,33600
7200,34368
7201,34496
7202,33792
7203,33536
7204,34304
7205,34624
7206,33920
7207,33536
7208,34176
7209,34624
7210,34048
7211,33536
7212,33920
7213,34496
7214,34432
7215,33536
7216,33856
7217,34624
7218,34432
7219,33728
7220,33856
7221,34560
7222,34496
7223,33664
7224,33600
7225,34368
7226,34624
7227,33984
7228,33728
7229,34368
7230,34752
7231,34176
7232,33664
7233,34240
7234,34752
7235,34240
7236,33664
7237,34176
7238,34944
7239,34624
7240,34112
7241,34496
7242,35328
7243,34944
7244,34816
7245,34816
7246,35840
7247,36032
7248,35456
7249,35328
7250,35840
7251,35776
7252,34880
7253,34304
7254,34688
7255,34880
7256,34112
7257,33536
7258,33920
7259,34304
7260,33728
7261,33152
7262,33472
7263,34176
7264,33920
7265,33344
7266,33600
7267,34368
7268,34304
7269,33600
7270,33728
7271,34560
7272,34624
7273,33664
7274,33600
7275,34304
7276,34624
7277,34688
7278,35584
7279,37760
7280,40064
7281,41152
7282,41472
7283,41536
7284,40128
7285,36800
7286,33536
7287,32000
7288,31680
7289,31552
7290,30976
7291,31552
7292,32704
7293,33152
7294,32768
7295,32960
7296,33856
7297,34112
7298,33536
7299,33408
7300,34176
7301,34560
7302,33920
7303,33600
7304,34176
7305,34688
7306,34176
7307,33728
7308,34176
7309,34688
7310,34176
7311,33536
7312,33856
7313,34624
7314,34432
7315,33728
7316,33856
7317,34560
7318,34112
7319,33920
7320,33664
7321,34496
7322,34688
7323,34048
7324,33856
7325,34624
7326,35008
7327,34368
7328,33984
7329,34496
7330,35008
7331,34432
7332,33984
7333,34816
7334,34880
7335,34816
7336,34176
7337,34432
7338,35136
7339,34944
7340,34304
7341,34368
7342,35008
7343,34944
7344,34176
7345,34112
7346,34816
7347,34944
7348,33984
7349,33920
7350,34688
7351,35072
7352,34432
7353,33984
7354,34560
7355,35072
7356,34560
7357,33984
7358,34368
7359,35008
7360,34624
7361,33920
7362,34048
7363,34688
7364,34496
7365,33728
7366,33856
7367,34624
7368,34688
7369,33920
7370,33792
7371,34560
7372,34816
7373,34112
7374,33856
7375,34560
7376,34944
7377,34304
7378,33984
7379,33920
7380,34944
7381,34432
7382,33856
7383,34240
7384,34944
7385,34624
7386,33984
7387,34112
7388,34816
7389,34688
7390,33920
7391,33920
7392,34624
7393,34688
7394,33984
7395,33856
7396,34560
7397,34752
7398,34112
7399,33728
7400,34304
7401,34752
7402,34240
7403,33728
7404,34240
7405,34816
7406,34304
7407,33664
7408,33984
7409,34752
7410,34496
7411,33856
7412,33984
7413,34816
7414,34752
7415,33984
7416,33856
7417,34496
7418,34624
7419,33984
7420,33728
7421,34432
7422,34752
7423,34112
7424,33664
7425,34368
7426,34816
7427,34304
7428,33728
7429,34240
7430,34880
7431,34560
7432,34112
7433,34624
7434,35456
7435,35328
7436,34688
7437,34944
7438,35840
7439,35904
7440,35264
7441,35136
7442,35712
7443,35712
7444,34816
7445,34304
7446,34752
7447,34880
7448,33984
7449,33344
7450,33728
7451,34176
7452,33664
7453,33152
7454,33728
7455,34432
7456,33984
7457,33280
7458,33664
7459,34496
7460,34304
7461,33664
7462,33728
7463,34432
7464,34496
7465,33664
7466,33472
7467,34176
7468,34496
7469,34240
7470,34944
7471,36992
7472,39168
7473,40576
7474,41344
7475,42048
7476,41472
7477,38464
7478,34944
7479,32960
7480,32192
7481,31488
7482,30912
7483,31424
7484,32576
7485,32960
7486,32576
7487,32832
7488,33856
7489,34176
7490,33600
7491,33600
7492,34432
7493,34688
7494,34048
7495,33728
7496,34368
7497,34816
7498,34176
7499,33664
7500,34176
7501,34752
7502,34304
7503,33728
7504,34176
7505,34880
7506,34560
7507,33792
7508,33920
7509,34688
7510,34624
7511,33984
7512,33984
7513,34688
7514,34752
7515,34048
7516,33920
7517,34688
7518,35136
7519,34560
7520,34176
7521,34688
7522,35200
7523,34688
7524,34176
7525,34688
7526,35264
7527,34816
7528,34240
7529,34560
7530,35264
7531,35008
7532,34304
7533,34496
7534,35200
7535,35072
7536,34304
7537,34176
7538,34880
7539,35008
7540,34240
7541,34048
7542,34752
7543,35136
7544,34496
7545,34176
7546,34752
7547,35264
7548,34752
7549,34176
7550,34624
7551,35136
7552,34688
7553,33984
7554,34240
7555,35008
7556,34688
7557,33856
7558,33920
7559,34624
7560,34688
7561,33920
7562,33920
7563,34624
7564,34816
7565,34048
7566,33792
7567,34432
7568,34880
7569,34304
7570,33920
7571,34560
7572,35072
7573,34496
7574,33920
7575,34432
7576,35072
7577,34816
7578,34112
7579,34240
7580,34880
7581,34688
7582,33920
7583,33984
7584,34688
7585,34688
7586,34048
7587,33920
7588,34688
7589,34880
7590,34048
7591,33792
7592,34432
7593,34816
7594,34304
7595,33856
7596,34368
7597,34880
7598,34368
7599,33792
7600,34176
7601,34816
7602,34496
7603,33728
7604,33856
7605,34624
7606,34496
7607,33792
7608,33792
7609,34560
7610,34688
7611,33920
7612,33728
7613,34432
7614,34688
7615,34048
7616,33792
7617,34432
7618,34816
7619,34112
7620,33664
7621,34176
7622,34880
7623,34432
7624,33728
7625,34048
7626,34880
7627,34752
7628,34240
7629,34496
7630,35392
7631,35520
7632,35008
7633,35136
7634,35840
7635,35840
7636,34944
7637,34496
7638,35008
7639,35136
7640,34240
7641,33472
7642,33728
7643,33984
7644,33344
7645,32768
7646,33216
7647,33920
7648,33600
7649,32896
7650,33280
7651,34112
7652,33984
7653,33344
7654,33472
7655,34240
7656,34240
7657,33536
7658,33472
7659,34112
7660,34112
7661,33216
7662,33088
7663,34432
7664,36032
7665,37184
7666,38720
7667,40832
7668,42240
7669,41536
7670,39104
7671,36480
7672,34368
7673,32192
7674,30656
7675,30656
7676,31552
7677,31936
7678,31808
7679,32192
7680,33152
7681,33472
7682,33024
7683,33024
7684,33792
7685,34048
7686,33408
7687,33152
7688,33856
7689,34304
7690,33664
7691,33216
7692,33792
7693,34432
7694,33920
7695,33344
7696,33664
7697,34304
7698,34048
7699,33344
7700,33536
7701,34304
7702,34240
7703,33600
7704,33536
7705,34240
7706,34368
7707,33664
7708,33536
7709,34240
7710,34560
7711,33920
7712,33600
7713,34240
7714,34752
7715,34176
7716,33728
7717,34240
7718,34880
7719,34496
7720,33920
7721,34304
7722,35072
7723,34944
7724,34176
7725,34240
7726,34880
7727,34816
7728,34112
7729,33984
7730,34688
7731,34752
7732,33984
7733,33728
7734,34432
7735,34816
7736,34176
7737,33856
7738,34496
7739,35072
7740,34624
7741,34112
7742,34560
7743,35072
7744,34624
7745,33984
7746,34240
7747,34816
7748,34496
7749,33728
7750,33856
7751,34560
7752,34496
7753,33792
7754,33856
7755,34560
7756,34752
7757,34048
7758,33920
7759,34688
7760,35072
7761,34432
7762,33984
7763,34560
7764,35072
7765,34624
7766,34048
7767,34496
7768,35200
7769,34880
7770,34240
7771,34496
7772,35136
7773,34944
7774,34176
7775,34240
7776,34944
7777,35008
7778,34304
7779,34240
7780,34944
7781,35200
7782,34496
7783,34112
7784,34688
7785,35072
7786,34496
7787,34048
7788,34560
7789,35072
7790,34688
7791,34304
7792,34752
7793,35264
7794,34752
7795,33920
7796,34048
7797,34752
7798,34624
7799,33920
7800,33984
7801,34752
7802,34880
7803,34176
7804,34048
7805,34752
7806,35072
7807,34432
7808,34240
7809,35008
7810,35648
7811,35200
7812,34816
7813,35456
7814,36160
7815,35840
7816,35264
7817,35520
7818,36032
7819,35648
7820,34880
7821,34880
7822,35392
7823,35008
7824,33920
7825,33536
7826,33984
7827,33984
7828,33280
7829,33024
7830,33792
7831,34176
7832,33600
7833,33344
7834,34048
7835,34560
7836,34048
7837,33536
7838,33984
7839,34688
7840,34368
7841,33792
7842,33984
7843,34432
7844,33984
7845,33280
7846,33984
7847,35904
7848,37504
7849,38784
7850,40384
7851,41920
7852,41984
7853,39744
7854,36608
7855,34496
7856,32896
7857,31424
7858,30720
7859,31488
7860,32256
7861,32192
7862,32064
7863,32768
7864,33728
7865,33664
7866,33216
7867,33664
7868,34432
7869,34304
7870,33600
7871,33664
7872,34432
7873,34432
7874,33728
7875,33664
7876,34368
7877,34560
7878,33856
7879,33664
7880,34368
7881,34816
7882,34112
7883,33600
7884,34112
7885,34688
7886,34240
7887,33664
7888,34048
7889,34752
7890,34432
7891,33792
7892,34048
7893,34816
7894,34688
7895,33920
7896,33920
7897,34688
7898,34816
7899,34176
7900,34112
7901,34880
7902,35200
7903,34496
7904,34176
7905,34752
7906,35136
7907,34560
7908,34048
7909,34560
7910,35136
7911,34688
7912,34112
7913,34432
7914,35136
7915,34752
7916,34112
7917,34368
7918,35072
7919,34944
7920,34112
7921,34112
7922,34880
7923,35072
7924,34432
7925,34240
7926,34880
7927,35136
7928,34304
7929,33856
7930,34304
7931,34688
7932,34112
7933,33600
7934,34048
7935,34624
7936,34176
7937,33600
7938,33984
7939,34816
7940,34560
7941,33792
7942,33920
7943,34688
7944,34688
7945,33920
7946,33856
7947,34624
7948,34752
7949,34048
7950,33856
7951,34624
7952,35008
7953,34304
7954,33792
7955,34240
7956,34752
7957,34240
7958,33664
7959,34112
7960,34816
7961,34496
7962,33856
7963,34048
7964,34688
7965,34496
7966,33792
7967,33856
7968,34560
7969,34624
7970,33920
7971,33856
7972,34560
7973,34752
7974,33984
7975,33664
7976,34240
7977,34624
7978,34048
7979,33600
7980,34240
7981,34688
7982,34240
7983,33664
7984,34112
7985,34816
7986,34624
7987,34112
7988,34496
7989,35328
7990,35264
7991,34688
7992,34944
7993,35840
7994,35968
7995,35264
7996,34944
7997,35456
7998,35456
7999,34624
8000,33984
8001,34368
8002,34624
8003,33792
8004,33088
8005,33408
8006,33984
8007,33536
8008,32960
8009,33280
8010,34048
8011,33728
8012,33088
8013,33344
8014,34176
8015,34240
8016,33600
8017,33664
8018,34432
8019,34432
8020,33536
8021,33152
8022,33728
8023,34112
8024,34112
8025,34944
8026,37184
8027,39552
8028,40832
8029,41344
8030,41536
8031,40320
8032,37184
8033,33920
8034,32192
8035,31808
8036,31360
8037,30912
8038,31360
8039,32448
8040,32768
8041,32384
8042,32640
8043,33600
8044,33920
8045,33344
8046,33216
8047,33984
8048,34368
8049,33792
8050,33408
8051,33984
8052,34560
8053,34176
8054,33728
8055,34240
8056,34880
8057,34496
8058,33728
8059,33984
8060,34688
8061,34560
8062,33856
8063,33920
8064,34624
8065,34624
8066,33920
8067,33792
8068,34560
8069,34816
8070,34112
8071,33856
8072,34496
8073,34944
8074,34432
8075,34048
8076,34560
8077,35136
8078,34688
8079,34112
8080,34560
8081,35200
8082,34816
8083,34112
8084,34240
8085,34944
8086,34816
8087,34112
8088,34176
8089,34944
8090,35008
8091,34304
8092,34176
8093,34880
8094,35136
8095,34496
8096,34112
8097,34688
8098,35136
8099,34496
8100,34048
8101,34688
8102,35200
8103,34752
8104,34048
8105,34304
8106,34880
8107,34560
8108,33792
8109,33920
8110,34688
8111,34560
8112,33792
8113,33792
8114,34560
8115,34560
8116,33664
8117,33536
8118,34240
8119,34624
8120,33984
8121,33600
8122,34240
8123,34816
8124,34368
8125,33920
8126,34368
8127,35008
8128,34624
8129,33920
8130,34240
8131,34944
8132,34688
8133,33984
8134,34112
8135,34880
8136,34880
8137,34112
8138,33984
8139,34752
8140,34880
8141,34176
8142,33920
8143,34688
8144,35008
8145,34304
8146,33792
8147,34240
8148,34752
8149,34240
8150,33728
8151,34240
8152,35008
8153,34816
8154,34304
8155,34624
8156,35456
8157,35584
8158,35136
8159,35392
8160,36160
8161,36032
8162,35264
8163,34944
8164,35392
8165,35264
8166,34304
8167,33728
8168,34048
8169,34176
8170,33408
8171,32896
8172,33408
8173,33984
8174,33536
8175,32960
8176,33408
8177,34112
8178,33920
8179,33344
8180,33600
8181,34368
8182,34240
8183,33536
8184,33600
8185,34304
8186,34240
8187,33344
8188,33152
8189,34368
8190,35776
8191,36736
8192,38272
8193,40576
8194,42112
8195,41856
8196,39872
8197,37504
8198,35136
8199,32576
8200,30848
8201,30656
8202,31424
8203,31552
8204,31424
8205,32064
8206,33152
8207,33472
8208,33024
8209,33216
8210,34112
8211,34304
8212,33664
8213,33472
8214,34112
8215,34432
8216,33920
8217,33600
8218,34112
8219,34560
8220,33984
8221,33472
8222,33920
8223,34560
8224,34240
8225,33600
8226,33856
8227,34560
8228,34368
8229,33664
8230,33792
8231,34496
8232,34560
8233,33856
8234,33792
8235,34560
8236,34752
8237,34112
8238,33856
8239,34560
8240,34944
8241,34368
8242,34048
8243,34688
8244,35200
8245,34752
8246,34112
8247,34432
8248,35008
8249,34624
8250,33984
8251,34304
8252,34944
8253,34816
8254,34112
8255,34112
8256,34880
8257,34880
8258,34176
8259,34048
8260,34752
8261,34944
8262,34240
8263,33920
8264,34560
8265,35008
8266,34432
8267,34048
8268,34496
8269,35008
8270,34432
8271,33792
8272,34112
8273,34752
8274,34496
8275,33792
8276,33920
8277,34560
8278,34304
8279,33536
8280,33600
8281,34368
8282,34368
8283,33664
8284,33536
8285,34304
8286,34624
8287,34048
8288,33792
8289,34432
8290,34880
8291,34304
8292,33856
8293,34368
8294,34944
8295,34496
8296,33856
8297,34176
8298,34944
8299,34752
8300,33984
8301,34048
8302,34816
8303,34688
8304,33920
8305,33856
8306,34560
8307,34688
8308,33984
8309,33792
8310,34496
8311,34944
8312,34432
8313,34176
8314,34944
8315,35584
8316,35264
8317,35008
8318,35648
8319,36352
8320,35904
8321,35072
8322,35072
8323,35520
8324,35008
8325,34048
8326,33856
8327,34368
8328,34112
8329,33152
8330,32960
8331,33664
8332,33792
8333,33024
8334,32832
8335,33536
8336,33920
8337,33408
8338,33088
8339,33728
8340,34304
8341,33792
8342,33280
8343,33728
8344,34368
8345,33984
8346,33216
8347,33408
8348,34240
8349,34688
8350,35136
8351,36736
8352,39296
8353,41088
8354,41600
8355,41472
8356,40320
8357,37696
8358,34240
8359,31808
8360,31424
8361,31424
8362,30976
8363,30848
8364,31744
8365,32768
8366,32704
8367,32512
8368,33152
8369,34048
8370,33920
8371,33408
8372,33728
8373,34432
8374,34304
8375,33536
8376,33536
8377,34304
8378,34432
8379,33792
8380,33664
8381,34368
8382,34624
8383,33984
8384,33600
8385,34240
8386,34688
8387,34112
8388,33600
8389,34112
8390,34688
8391,34304
8392,33792
8393,34176
8394,34880
8395,34688
8396,33920
8397,33984
8398,34752
8399,34688
8400,34048
8401,34048
8402,34816
8403,35008
8404,34368
8405,34176
8406,34944
8407,35200
8408,34560
8409,34240
8410,34880
8411,35392
8412,34816
8413,34240
8414,34688
8415,35328
8416,34880
8417,34176
8418,34368
8419,35008
8420,34752
8421,34112
8422,34304
8423,35136
8424,35072
8425,34368
8426,34240
8427,34944
8428,35008
8429,34240
8430,33856
8431,34432
8432,34816
8433,34176
8434,33728
8435,34176
8436,34624
8437,34112
8438,33600
8439,34112
8440,34688
8441,34304
8442,33664
8443,34048
8444,34880
8445,34624
8446,33920
8447,33920
8448,34688
8449,34752
8450,34112
8451,34048
8452,34880
8453,35136
8454,34432
8455,34048
8456,34688
8457,35072
8458,34368
8459,33920
8460,34560
8461,35136
8462,34560
8463,33920
8464,34176
8465,34880
8466,34624
8467,33920
8468,34112
8469,34880
8470,34816
8471,34048
8472,34048
8473,34688
8474,34752
8475,33984
8476,33792
8477,34432
8478,34752
8479,34240
8480,34112
8481,34880
8482,35392
8483,34816
8484,34368
8485,35008
8486,35840
8487,35776
8488,35328
8489,35520
8490,35904
8491,35392
8492,34432
8493,34304
8494,34816
8495,34496
8496,33536
8497,33280
8498,33856
8499,33984
8500,33216
8501,32832
8502,33536
8503,33984
8504,33472
8505,33152
8506,33664
8507,34048
8508,33536
8509,33088
8510,33664
8511,34432
8512,34048
8513,33408
8514,33600
8515,34240
8516,33984
8517,33600
8518,34560
8519,36864
8520,38592
8521,39808
8522,41024
8523,42112
8524,41664
8525,38720
8526,35328
8527,33280
8528,32128
8529,31040
8530,30592
8531,31360
8532,32256
8533,32192
8534,32064
8535,32640
8536,33408
8537,33216
8538,32768
8539,33088
8540,33984
8541,33920
8542,33280
8543,33344
8544,34112
8545,34240
8546,33536
8547,33536
8548,34368
8549,34496
8550,33664
8551,33280
8552,33856
8553,34176
8554,33536
8555,33152
8556,33664
8557,34304
8558,33856
8559,33216
8560,33600
8561,34368
8562,34112
8563,33536
8564,33856
8565,34624
8566,34560
8567,33792
8568,33856
8569,34560
8570,34624
8571,33856
8572,33664
8573,34304
8574,34688
8575,34048
8576,33728
8577,34432
8578,34944
8579,34432
8580,33984
8581,34496
8582,35008
8583,34432
8584,33856
8585,34176
8586,34880
8587,34624
8588,33984
8589,34176
8590,34944
8591,34816
8592,34048
8593,34048
8594,34880
8595,34880
8596,34048
8597,33728
8598,34368
8599,34560
8600,33856
8601,33344
8602,33920
8603,34432
8604,33984
8605,33408
8606,33728
8607,34368
8608,33984
8609,33472
8610,33792
8611,34496
8612,34304
8613,33664
8614,33856
8615,34688
8616,34624
8617,33920
8618,33856
8619,34624
8620,34880
8621,34112
8622,33920
8623,34560
8624,34944
8625,34304
8626,33856
8627,34368
8628,34880
8629,34432
8630,33856
8631,34240
8632,34816
8633,34432
8634,33728
8635,33984
8636,34688
8637,34624
8638,34048
8639,34240
8640,34880
8641,34752
8642,33920
8643,33728
8644,34432
8645,34624
8646,33984
8647,33664
8648,34304
8649,34688
8650,34112
8651,33664
8652,34240
8653,34880
8654,34432
8655,33856
8656,34304
8657,35072
8658,34816
8659,34304
8660,34624
8661,35456
8662,35520
8663,35008
8664,35136
8665,35968
8666,36032
8667,35200
8668,34816
8669,35264
8670,35264
8671,34368
8672,33792
8673,34112
8674,34368
8675,33600
8676,32960
8677,33472
8678,34112
8679,33792
8680,33280
8681,33664
8682,34368
8683,34176
8684,33472
8685,33664
8686,34496
8687,34432
8688,33728
8689,33664
8690,34368
8691,34432
8692,33664
8693,33408
8694,34176
8695,35200
8696,36160
8697,38528
8698,41152
8699,41216
8700,41600
8701,41472
8702,38976
8703,35712
8704,32704
8705,31552
8706,31680
8707,31552
8708,31232
8709,31808
8710,32960
8711,33344
8712,32896
8713,33088
8714,33088
8715,34240
8716,33664
8717,33408
8718,34176
8719,34688
8720,34176
8721,33728
8722,34240
8723,34752
8724,34240
8725,33728
8726,34112
8727,34688
8728,34304
8729,33664
8730,33984
8731,34112
8732,34560
8733,33856
8734,33920
8735,34688
8736,34688
8737,33920
8738,33792
8739,34624
8740,34880
8741,34240
8742,33920
8743,34816
8744,34816
8745,34432
8746,34240
8747,34560
8748,35136
8749,34688
8750,34176
8751,34560
8752,35264
8753,35008
8754,34368
8755,34560
8756,35328
8757,35200
8758,34368
8759,34304
8760,35200
8761,35328
8762,34624
8763,34496
8764,35136
8765,35264
8766,34496
8767,34048
8768,34624
8769,35072
8770,34560
8771,34112
8772,34624
8773,35200
8774,34752
8775,34112
8776,34368
8777,34944
8778,34624
8779,33856
8780,33920
8781,34688
8782,34624
8783,33856
8784,33792
8785,34496
8786,34688
8787,33984
8788,33920
8789,33920
8790,34944
8791,34304
8792,33920
8793,34496
8794,35008
8795,34496
8796,33920
8797,34368
8798,35008
8799,34624
8800,33984
8801,34304
8802,35072
8803,34816
8804,34112
8805,34240
8806,34944
8807,34880
8808,34112
8809,33984
8810,34752
8811,34880
8812,34112
8813,33856
8814,34432
8815,34816
8816,34240
8817,33856
8818,34624
8819,34624
8820,34304
8821,33728
8822,34176
8823,34944
8824,34752
8825,34240
8826,34560
8827,35392
8828,35392
8829,34816
8830,35136
8831,36032
8832,36160
8833,35456
8834,35200
8835,35712
8836,35712
8837,34880
8838,34368
8839,34752
8840,34816
8841,33920
8842,33216
8843,33600
8844,34048
8845,33536
8846,33024
8847,33408
8848,34176
8849,34112
8850,33344
8851,33536
8852,34304
8853,34240
8854,33600
8855,33664
8856,34432
8857,34560
8858,33792
8859,33536
8860,34112
8861,34304
8862,33792
8863,34496
8864,34496
8865,38272
8866,39680
8867,40768
8868,41984
8869,42112
8870,39744
8871,36288
8872,33856
8873,32640
8874,31552
8875,30784
8876,31104
8877,32192
8878,32704
8879,32512
8880,32832
8881,33792
8882,34112
8883,33600
8884,33536
8885,34304
8886,34624
8887,33984
8888,33664
8889,34240
8890,34752
8891,34304
8892,33792
8893,34496
8894,34496
8895,34304
8896,33728
8897,33984
8898,34688
8899,34496
8900,33792
8901,33920
8902,34688
8903,34688
8904,34048
8905,33984
8906,34688
8907,34944
8908,34176
8909,34048
8910,34752
8911,35136
8912,34560
8913,34112
8914,34624
8915,35136
8916,34688
8917,34240
8918,34688
8919,35392
8920,35136
8921,34496
8922,34688
8923,35392
8924,35328
8925,34496
8926,34432
8927,35136
8928,35200
8929,34560
8930,34368
8931,35008
8932,35200
8933,34496
8934,34176
8935,34752
8936,35200
8937,34688
8938,34304
8939,34752
8940,35200
8941,34752
8942,34176
8943,34368
8944,34944
8945,34560
8946,33856
8947,33984
8948,34624
8949,34496
8950,33856
8951,33856
8952,34496
8953,34624
8954,33984
8955,33792
8956,34432
8957,34688
8958,34112
8959,33856
8960,34432
8961,34880
8962,34432
8963,34048
8964,34496
8965,35072
8966,34688
8967,34112
8968,34688
8969,34752
8970,34816
8971,34112
8972,34176
8973,34816
8974,34688
8975,33984
8976,33920
8977,34560
8978,34688
8979,34048
8980,33856
8981,34496
8982,34816
8983,34240
8984,33856
8985,34432
8986,34816
8987,34304
8988,33792
8989,34240
8990,34816
8991,34496
8992,33792
8993,33984
8994,34624
8995,34496
8996,33920
8997,34112
8998,35136
8999,35136
9000,34624
9001,34624
9002,35392
9003,35776
9004,35264
9005,35072
9006,35584
9007,35840
9008,35136
9009,34496
9010,34752
9011,35072
9012,34432
9013,33536
9014,33472
9015,33984
9016,33600
9017,32896
9018,33088
9019,33792
9020,33792
9021,33216
9022,33280
9023,33984
9024,34176
9025,33600
9026,33472
9027,34112
9028,34432
9029,33856
9030,33472
9031,33920
9032,34240
9033,33728
9034,33344
9035,34368
9036,36032
9037,37312
9038,38720
9039,40576
9040,42112
9041,41856
9042,39616
9043,36800
9044,34688
9045,32704
9046,31040
9047,30656
9048,31360
9049,31808
9050,31680
9051,31936
9052,32896
9053,33472
9054,33216
9055,33088
9056,33728
9057,34240
9058,33600
9059,33472
9060,33792
9061,34368
9062,34112
9063,33536
9064,33792
9065,34432
9066,34304
9067,33664
9068,33664
9069,34240
9070,34176
9071,33600
9072,33600
9073,34368
9074,34368
9075,33728
9076,33536
9077,34112
9078,34432
9079,33920
9080,33600
9081,34112
9082,34560
9083,34176
9084,33728
9085,34240
9086,34816
9087,34560
9088,33984
9089,34240
9090,34880
9091,34688
9092,34112
9093,34176
9094,34816
9095,34880
9096,34304
9097,34176
9098,34752
9099,34880
9100,34240
9101,33984
9102,34560
9103,34816
9104,34752
9105,33984
9106,34496
9107,34944
9108,34496
9109,33984
9110,34368
9111,34880
9112,34560
9113,33920
9114,34048
9115,34688
9116,34560
9117,33920
9118,34112
9119,34176
9120,34304
9121,33600
9122,33408
9123,33984
9124,34240
9125,33664
9126,33408
9127,33984
9128,34432
9129,33984
9130,33600
9131,34112
9132,34624
9133,33984
9134,33920
9135,34048
9136,34624
9137,34432
9138,33856
9139,33984
9140,34688
9141,34560
9142,33920
9143,33920
9144,34560
9145,34688
9146,34048
9147,33856
9148,34432
9149,34688
9150,34048
9151,33856
9152,34432
9153,34816
9154,34112
9155,33536
9156,33856
9157,34432
9158,34048
9159,33536
9160,33856
9161,34496
9162,34304
9163,33600
9164,33536
9165,34368
9166,34368
9167,33664
9168,33600
9169,34304
9170,34432
9171,33856
9172,33792
9173,34688
9174,35200
9175,34752
9176,34432
9177,35072
9178,35776
9179,35456
9180,34880
9181,35136
9182,35520
9183,34944
9184,34112
9185,34112
9186,34560
9187,34048
9188,33152
9189,33088
9190,33664
9191,33728
9192,33024
9193,33088
9194,33152
9195,33600
9196,33088
9197,32896
9198,33600
9199,33984
9200,33536
9201,33152
9202,33664
9203,34176
9204,33728
9205,33152
9206,33408
9207,33856
9208,33472
9209,33408
9210,34752
9211,36800
9212,38528
9213,39808
9214,41088
9215,42048
9216,41152
9217,38016
9218,34816
9219,32896
9220,31680
9221,30592
9222,30272
9223,31552
9224,31552
9225,32064
9226,32000
9227,32768
9228,33536
9229,33344
9230,32960
9231,33344
9232,34112
9233,33920
9234,33280
9235,33408
9236,34112
9237,34048
9238,33408
9239,33472
9240,34304
9241,34368
9242,33600
9243,33344
9244,33920
9245,34240
9246,33664
9247,33344
9248,33920
9249,34368
9250,33856
9251,33344
9252,33856
9253,34368
9254,34304
9255,33472
9256,33920
9257,34560
9258,34368
9259,33792
9260,33920
9261,34688
9262,34688
9263,34048
9264,34048
9265,34752
9266,34944
9267,34304
9268,34432
9269,34496
9270,35072
9271,34432
9272,34048
9273,34560
9274,35072
9275,34560
9276,34112
9277,34496
9278,35008
9279,34624
9280,33984
9281,34240
9282,34880
9283,34560
9284,34432
9285,34240
9286,34816
9287,34752
9288,33984
9289,33792
9290,34368
9291,34496
9292,33792
9293,33472
9294,34048
9295,34368
9296,33728
9297,33344
9298,33856
9299,34368
9300,33856
9301,33472
9302,33920
9303,34560
9304,34240
9305,33664
9306,33856
9307,34624
9308,34560
9309,33856
9310,33856
9311,34560
9312,34560
9313,33920
9314,33792
9315,34560
9316,34752
9317,34112
9318,33792
9319,34368
9320,34752
9321,34304
9322,33856
9323,34304
9324,34752
9325,34304
9326,33728
9327,34048
9328,34688
9329,34560
9330,33728
9331,33856
9332,34496
9333,34432
9334,33728
9335,33728
9336,34432
9337,34560
9338,33920
9339,33728
9340,34368
9341,34560
9342,33984
9343,33984
9344,33984
9345,34688
9346,34112
9347,33600
9348,34048
9349,34624
9350,34304
9351,33920
9352,34496
9353,35264
9354,35136
9355,34496
9356,34752
9357,35584
9358,35648
9359,35008
9360,34944
9361,35520
9362,35456
9363,34624
9364,34240
9365,34688
9366,34752
9367,33920
9368,33280
9369,33600
9370,33920
9371,33344
9372,32832
9373,33344
9374,33920
9375,33536
9376,33088
9377,33344
9378,34112
9379,33920
9380,33344
9381,33472
9382,34176
9383,34240
9384,33600
9385,33536
9386,34176
9387,34240
9388,33600
9389,33792
9390,35456
9391,37184
9392,38592
9393,39872
9394,41472
9395,42240
9396,40768
9397,37760
9398,35136
9399,33280
9400,31680
9401,30528
9402,30784
9403,31744
9404,32064
9405,31872
9406,32320
9407,33344
9408,33728
9409,33280
9410,33280
9411,33920
9412,34112
9413,33536
9414,33280
9415,33920
9416,34304
9417,33792
9418,33344
9419,33856
9420,34432
9421,34048
9422,33472
9423,33920
9424,34560
9425,34304
9426,33600
9427,33792
9428,34432
9429,34304
9430,33600
9431,33664
9432,34432
9433,34624
9434,33984
9435,33856
9436,34560
9437,34752
9438,34048
9439,33728
9440,34432
9441,34816
9442,34304
9443,33856
9444,34368
9445,34944
9446,34624
9447,34112
9448,34496
9449,35200
9450,34944
9451,34240
9452,34304
9453,34944
9454,34880
9455,34240
9456,34240
9457,35008
9458,35072
9459,34368
9460,34112
9461,34752
9462,35072
9463,34432
9464,33984
9465,34496
9466,34944
9467,34368
9468,33856
9469,34240
9470,34816
9471,34368
9472,33664
9473,33920
9474,34496
9475,34176
9476,33472
9477,33472
9478,34176
9479,34176
9480,33536
9481,33472
9482,34176
9483,34368
9484,33728
9485,33536
9486,34240
9487,34688
9488,34112
9489,33792
9490,34368
9491,34816
9492,34304
9493,33792
9494,34240
9495,34880
9496,34496
9497,33856
9498,34048
9499,34752
9500,34560
9501,33792
9502,33856
9503,34624
9504,34624
9505,33920
9506,33792
9507,34432
9508,34624
9509,33984
9510,33728
9511,34624
9512,34880
9513,34176
9514,33600
9515,34048
9516,34560
9517,34048
9518,33472
9519,33856
9520,34560
9521,34240
9522,33536
9523,33792
9524,34496
9525,34368
9526,33664
9527,33664
9528,34432
9529,34496
9530,33792
9531,33664
9532,34432
9533,34688
9534,34048
9535,33856
9536,34624
9537,35264
9538,34816
9539,34432
9540,35072
9541,35712
9542,35392
9543,34880
9544,35200
9545,35712
9546,35264
9547,34368
9548,34304
9549,34752
9550,34432
9551,33472
9552,33216
9553,33792
9554,33792
9555,33088
9556,32896
9557,33600
9558,33920
9559,33344
9560,33024
9561,33664
9562,34176
9563,33664
9564,33216
9565,33728
9566,34368
9567,33984
9568,33344
9569,33536
9570,34176
9571,33792
9572,33152
9573,33728
9574,35328
9575,36672
9576,37824
9577,39552
9578,41536
9579,42240
9580,40896
9581,38336
9582,35904
9583,33664
9584,31552
9585,30528
9586,31040
9587,31808
9588,31744
9589,31680
9590,32448
9591,33280
9592,33152
9593,32768
9594,33280
9595,34112
9596,34048
9597,33344
9598,33408
9599,34112
9600,34176
9601,33472
9602,33408
9603,34112
9604,34368
9605,33664
9606,33408
9607,34112
9608,34560
9609,33920
9610,33408
9611,33856
9612,34432
9613,33984
9614,33472
9615,33920
9616,34560
9617,34304
9618,33664
9619,33984
9620,34560
9621,34432
9622,33728
9623,33856
9624,34688
9625,34752
9626,34112
9627,33984
9628,34752
9629,34944
9630,34240
9631,33984
9632,34624
9633,35072
9634,34560
9635,34112
9636,34624
9637,35136
9638,34752
9639,34112
9640,34432
9641,35008
9642,34752
9643,34048
9644,34240
9645,35008
9646,34880
9647,34240
9648,34304
9649,35008
9650,35008
9651,34240
9652,34112
9653,34752
9654,34880
9655,34048
9656,33536
9657,34048
9658,34432
9659,33856
9660,33344
9661,33792
9662,34368
9663,33920
9664,33344
9665,33728
9666,34496
9667,34304
9668,33728
9669,33920
9670,34688
9671,34624
9672,33792
9673,33728
9674,34496
9675,34560
9676,33920
9677,33728
9678,34432
9679,34752
9680,34112
9681,33792
9682,34432
9683,34944
9684,34368
9685,33856
9686,34304
9687,34880
9688,34432
9689,33792
9690,34048
9691,34688
9692,34304
9693,33600
9694,33728
9695,34432
9696,34368
9697,33664
9698,33600
9699,34304
9700,34496
9701,33792
9702,33536
9703,34176
9704,34560
9705,33920
9706,33536
9707,34112
9708,34624
9709,34176
9710,33600
9711,33984
9712,34560
9713,34240
9714,33664
9715,33856
9716,34560
9717,34432
9718,33920
9719,34240
9720,35200
9721,35136
9722,34432
9723,34240
9724,35072
9725,35456
9726,34944
9727,34752
9728,35328
9729,35584
9730,34880
9731,34304
9732,34624
9733,34944
9734,34240
9735,33408
9736,33536
9737,33920
9738,33472
9739,32832
9740,33024
9741,33792
9742,33728
9743,33152
9744,33344
9745,34112
9746,34176
9747,33472
9748,33280
9749,33984
9750,34240
9751,33600
9752,33344
9753,33920
9754,34240
9755,33600
9756,33088
9757,33984
9758,35584
9759,36672
9760,38080
9761,40192
9762,42112
9763,42304
9764,40512
9765,37952
9766,35584
9767,33152
9768,31168
9769,30592
9770,31296
9771,31744
9772,31488
9773,31744
9774,32768
9775,33408
9776,33088
9777,32896
9778,33600
9779,34176
9780,33728
9781,33344
9782,33792
9783,34368
9784,34048
9785,33472
9786,33792
9787,34432
9788,34240
9789,33600
9790,33728
9791,34496
9792,34496
9793,33792
9794,33728
9795,34432
9796,34496
9797,33856
9798,33664
9799,34304
9800,34688
9801,34176
9802,33856
9803,34368
9804,34816
9805,34368
9806,33856
9807,34304
9808,34944
9809,34688
9810,34112
9811,34368
9812,35008
9813,34816
9814,34176
9815,34304
9816,35008
9817,35008
9818,34304
9819,34240
9820,34944
9821,35136
9822,34496
9823,34240
9824,34816
9825,35136
9826,34432
9827,34048
9828,34560
9829,35072
9830,34560
9831,34048
9832,34496
9833,35136
9834,34816
9835,34176
9836,34368
9837,34944
9838,34688
9839,33856
9840,33856
9841,34496
9842,34560
9843,33792
9844,33536
9845,34176
9846,34368
9847,33664
9848,33408
9849,34048
9850,34496
9851,33984
9852,33600
9853,34176
9854,34752
9855,34368
9856,33792
9857,34112
9858,34752
9859,34432
9860,33792
9861,33984
9862,34752
9863,34624
9864,33984
9865,33984
9866,34688
9867,34688
9868,33984
9869,33856
9870,34496
9871,34816
9872,34176
9873,33920
9874,34432
9875,34816
9876,34304
9877,33792
9878,34240
9879,34752
9880,34304
9881,33728
9882,34048
9883,34688
9884,34496
9885,33920
9886,34432
9887,35136
9888,35200
9889,34624
9890,34688
9891,35584
9892,35904
9893,35456
9894,35264
9895,35776
9896,35776
9897,34880
9898,34240
9899,34560
9900,34752
9901,33664
9902,32960
9903,33152
9904,33600
9905,33216
9906,32640
9907,32960
9908,33792
9909,33728
9910,33152
9911,33280
9912,34112
9913,34112
9914,33472
9915,33536
9916,34240
9917,34368
9918,33664
9919,33408
9920,33984
9921,34176
9922,33536
9923,33472
9924,34944
9925,36736
9926,38080
9927,39488
9928,41280
9929,42496
9930,41408
9931,38208
9932,35712
9933,33792
9934,32000
9935,30656
9936,30592
9937,31488
9938,32000
9939,31808
9940,32128
9941,33088
9942,33600
9943,33152
9944,33088
9945,33856
9946,34304
9947,33792
9948,33472
9949,34048
9950,34560
9951,33984
9952,33408
9953,33856
9954,34496
9955,34176
9956,33536
9957,33728
9958,34496
9959,34304
9960,33664
9961,33728
9962,34496
9963,34560
9964,33920
9965,33856
9966,34560
9967,34688
9968,34048
9969,33792
9970,34432
9971,34816
9972,34240
9973,33792
9974,34368
9975,35008
9976,34560
9977,33984
9978,34368
9979,35072
9980,34880
9981,34304
9982,34496
9983,35200
9984,35072
9985,34368
9986,34304
9987,35008
9988,35072
9989,34368
9990,34176
9991,34880
9992,35072
9993,34368
9994,34048
9995,34624
9996,35072
9997,34560
9998,34112
9999,34560
10000,35072
10001,34560
10002,33920
10003,34176
10004,34752
10005,34432
10006,33728
10007,33856
10008,34560
10009,34432
10010,33664
10011,33536
10012,34240
10013,34304
10014,33664
10015,33472
10016,34240
10017,34560
10018,33984
10019,33600
10020,34240
10021,34688
10022,34176
10023,33792
10024,34240
10025,34752
10026,34368
10027,33792
10028,34112
10029,34816
10030,34560
10031,33920
10032,34112
10033,34816
10034,34752
10035,33984
10036,33920
10037,34560
10038,34688
10039,33984
10040,33856
10041,34496
10042,34816
10043,34176
10044,33728
10045,34240
10046,34688
10047,34176
10048,33600
10049,34112
10050,34816
10051,34560
10052,34112
10053,34560
10054,35392
10055,35328
10056,34880
10057,35200
10058,36032
10059,36032
10060,35264
10061,35008
10062,35456
10063,35328
10064,34432
10065,33920
10066,34240
10067,34240
10068,33344
10069,32768
10070,33216
10071,33664
10072,33280
10073,32832
10074,33344
10075,34048
10076,33792
10077,33344
10078,33728
10079,34368
10080,33984
10081,33344
10082,33472
10083,34176
10084,34240
10085,33472
10086,33216
10087,33792
10088,34048
10089,34048
10090,35072
10091,37248
10092,39424
10093,40640
10094,41344
10095,41792
10096,40768
10097,37696
10098,34240
10099,32192
10100,31552
10101,30784
10102,30080
10103,30464
10104,31616
10105,32000
10106,31680
10107,32000
10108,32896
10109,33152
10110,32576
10111,32576
10112,33408
10113,33856
10114,33344
10115,33088
10116,33792
10117,34304
10118,33792
10119,33344
10120,33920
10121,34560
10122,34048
10123,33280
10124,33344
10125,33728
10126,33280
10127,32576
10128,32832
10129,33856
10130,34176
10131,33664
10132,33728
10133,34496
10134,34432
10135,33408
10136,32896
10137,33408
10138,33792
10139,33536
10140,33600
10141,34624
10142,35264
10143,34752
10144,34176
10145,34560
10146,35072
10147,34560
10148,33984
10149,34304
10150,34880
10151,34560
10152,33792
10153,33984
10154,34752
10155,34752
10156,33984
10157,33984
10158,34816
10159,35008
10160,34304
10161,34176
10162,34880
10163,35264
10164,34624
10165,34240
10166,34816
10167,35264
10168,34624
10169,33984
10170,34304
10171,34880
10172,34432
10173,33664
10174,33920
10175,34688
10176,34496
10177,33728
10178,33856
10179,34560
10180,34496
10181,33728
10182,33600
10183,34368
10184,34624
10185,33984
10186,33728
10187,34432
10188,34880
10189,34240
10190,33856
10191,34496
10192,35072
10193,34560
10194,34048
10195,34496
10196,35136
10197,34816
10198,34176
10199,34432
10200,35136
10201,34880
10202,34048
10203,33984
10204,34688
10205,34624
10206,33856
10207,33664
10208,34368
10209,34560
10210,33856
10211,33600
10212,34304
10213,34752
10214,34112
10215,33664
10216,34240
10217,34752
10218,34112
10219,33472
10220,33920
10221,34688
10222,34560
10223,33984
10224,34368
10225,35264
10226,35264
10227,34688
10228,34880
10229,35712
10230,35776
10231,35008
10232,34688
10233,35200
10234,35264
10235,34368
10236,33728
10237,34048
10238,34112
10239,33280
10240,32640
10241,33152
10242,33728
10243,33280
10244,32768
10245,33280
10246,34048
10247,33792
10248,33152
10249,33408
10250,34304
10251,34240
10252,33536
10253,33536
10254,34240
10255,34240
10256,33408
10257,33152
10258,33984
10259,34624
10260,34880
10261,35968
10262,38272
10263,40640
10264,41472
10265,41536
10266,41152
10267,39296
10268,35904
10269,32704
10270,31424
10271,31488
10272,31232
10273,30848
10274,31360
10275,32512
10276,32832
10277,32448
10278,32640
10279,33536
10280,33728
10281,33152
10282,33024
10283,33856
10284,34240
10285,33600
10286,33216
10287,33856
10288,34368
10289,33728
10290,33216
10291,33792
10292,34368
10293,33920
10294,33344
10295,33664
10296,34432
10297,34176
10298,33408
10299,33536
10300,34304
10301,34304
10302,33600
10303,33600
10304,34368
10305,34560
10306,33792
10307,33600
10308,34368
10309,34688
10310,34112
10311,33792
10312,34432
10313,34944
10314,34432
10315,33920
10316,34432
10317,35072
10318,34752
10319,34112
10320,34368
10321,35136
10322,34944
10323,34240
10324,34304
10325,35136
10326,35072
10327,34304
10328,34112
10329,34880
10330,35072
10331,34304
10332,33984
10333,34624
10334,35008
10335,34368
10336,33856
10337,34432
10338,34880
10339,34304
10340,33600
10341,33920
10342,34560
10343,34112
10344,33344
10345,33536
10346,34176
10347,33984
10348,33280
10349,33344
10350,34176
10351,34240
10352,33536
10353,33472
10354,34240
10355,34496
10356,33792
10357,33536
10358,34304
10359,34688
10360,34112
10361,33600
10362,34240
10363,34816
10364,34304
10365,33664
10366,34048
10367,34752
10368,34432
10369,33728
10370,33920
10371,34688
10372,34560
10373,33792
10374,33792
10375,34496
10376,34560
10377,33728
10378,33600
10379,34368
10380,34624
10381,33920
10382,33536
10383,34176
10384,34624
10385,34048
10386,33536
10387,34048
10388,34624
10389,34112
10390,33472
10391,33792
10392,34496
10393,34176
10394,33472
10395,33664
10396,34432
10397,34304
10398,33600
10399,33664
10400,34560
10401,34816
10402,34240
10403,34176
10404,34944
10405,35264
10406,34752
10407,34560
10408,35328
10409,35840
10410,35264
10411,34560
10412,34816
10413,35200
10414,34560
10415,33664
10416,33728
10417,34176
10418,33664
10419,32832
10420,32832
10421,33536
10422,33536
10423,32832
10424,32768
10425,33536
10426,33728
10427,33088
10428,33024
10429,33792
10430,34176
10431,33472
10432,33152
10433,33792
10434,34240
10435,33600
10436,32960
10437,33408
10438,34304
10439,34688
10440,35392
10441,37312
10442,40000
10443,41344
10444,41536
10445,41216
10446,39872
10447,36864
10448,33536
10449,31552
10450,31232
10451,31168
10452,30784
10453,30976
10454,32128
10455,32896
10456,32576
10457,32512
10458,33344
10459,33984
10460,33536
10461,33088
10462,33536
10463,34176
10464,33792
10465,33152
10466,33408
10467,34176
10468,34112
10469,33472
10470,33664
10471,34496
10472,34432
10473,33728
10474,33664
10475,34496
10476,34688
10477,33984
10478,33728
10479,34368
10480,34752
10481,34048
10482,33664
10483,34240
10484,34752
10485,34240
10486,33728
10487,34176
10488,34880
10489,34624
10490,33984
10491,34240
10492,35008
10493,34880
10494,34176
10495,34240
10496,35008
10497,35072
10498,34368
10499,34240
10500,35008
10501,35200
10502,34496
10503,34176
10504,34880
10505,35264
10506,34688
10507,34176
10508,34688
10509,35264
10510,34752
10511,34112
10512,34496
10513,35136
10514,34176
10515,34112
10516,34432
10517,35008
10518,33920
10519,33856
10520,34496
10521,34496
10522,33728
10523,33536
10524,34176
10525,34432
10526,33664
10527,33344
10528,34176
10529,34240
10530,34432
10531,33920
10532,34048
10533,34624
10534,34240
10535,33600
10536,33984
10537,34688
10538,34432
10539,33728
10540,33920
10541,34752
10542,34688
10543,33920
10544,33792
10545,34688
10546,34816
10547,34048
10548,33856
10549,34560
10550,34816
10551,34176
10552,33792
10553,34432
10554,34880
10555,34304
10556,33728
10557,34240
10558,34816
10559,34368
10560,33792
10561,33728
10562,34816
10563,34560
10564,33984
10565,34240
10566,35072
10567,35136
10568,34496
10569,34688
10570,35648
10571,36032
10572,35392
10573,35200
10574,35136
10575,35776
10576,35520
10577,34240
10578,34560
10579,34752
10580,33792
10581,32960
10582,33088
10583,33536
10584,33024
10585,32384
10586,32768
10587,33536
10588,33344
10589,32640
10590,32832
10591,33728
10592,33728
10593,33024
10594,33024
10595,33856
10596,34048
10597,33344
10598,33152
10599,33792
10600,34048
10601,33344
10602,32960
10603,34368
10604,34560
10605,36736
10606,38144
10607,40256
10608,41984
10609,41984
10610,40128
10611,37632
10612,35264
10613,32832
10614,30848
10615,30400
10616,31232
10617,31552
10618,31296
10619,31680
10620,32832
10621,33280
10622,32832
10623,32704
10624,33536
10625,34048
10626,33472
10627,33088
10628,33792
10629,34368
10630,33856
10631,33216
10632,33664
10633,34432
10634,34368
10635,33472
10636,33792
10637,34560
10638,34368
10639,33600
10640,33600
10641,34304
10642,34240
10643,33472
10644,33408
10645,34176
10646,34432
10647,33728
10648,33536
10649,33472
10650,34688
10651,34112
10652,33728
10653,34368
10654,34944
10655,34496
10656,33856
10657,34304
10658,34944
10659,34624
10660,33984
10661,34240
10662,35072
10663,34944
10664,34240
10665,34304
10666,35072
10667,35136
10668,34368
10669,34176
10670,34880
10671,35136
10672,34368
10673,33984
10674,34688
10675,35072
10676,34432
10677,33856
10678,34560
10679,34624
10680,34432
10681,33792
10682,34112
10683,34688
10684,34240
10685,33408
10686,33536
10687,34240
10688,34048
10689,33216
10690,33216
10691,33920
10692,33984
10693,33088
10694,33024
10695,33792
10696,34112
10697,33408
10698,33088
10699,33792
10700,34304
10701,33728
10702,33280
10703,33792
10704,34432
10705,33984
10706,33344
10707,33600
10708,34304
10709,33984
10710,33280
10711,33472
10712,34240
10713,34112
10714,33344
10715,33280
10716,34048
10717,34176
10718,33472
10719,33280
10720,33984
10721,34240
10722,33536
10723,33152
10724,33728
10725,34112
10726,33472
10727,32960
10728,33408
10729,34112
10730,33664
10731,33088
10732,33472
10733,34240
10734,33984
10735,33216
10736,33344
10737,34048
10738,33920
10739,33792
10740,33152
10741,33920
10742,33984
10743,33280
10744,33024
10745,33792
10746,34240
10747,33728
10748,33472
10749,34304
10750,34944
10751,34496
10752,34048
10753,34944
10754,35008
10755,35200
10756,34688
10757,34880
10758,35328
10759,34816
10760,33792
10761,33728
10762,34304
10763,34112
10764,33088
10765,32768
10766,33408
10767,33536
10768,32768
10769,32512
10770,33344
10771,33728
10772,33088
10773,32704
10774,33344
10775,33920
10776,33408
10777,32832
10778,33344
10779,34048
10780,33728
10781,33024
10782,33216
10783,33984
10784,33984
10785,33344
10786,34304
10787,36352
10788,38208
10789,39488
10790,40704
10791,41856
10792,41344
10793,38272
10794,34944
10795,33024
10796,31872
10797,30720
10798,30336
10799,30336
10800,32000
10801,31936
10802,31744
10803,32448
10804,33408
10805,33280
10806,32768
10807,33152
10808,33984
10809,33920
10810,33280
10811,33408
10812,34112
10813,34048
10814,33216
10815,33088
10816,33856
10817,34176
10818,33472
10819,33152
10820,33792
10821,34304
10822,33664
10823,33280
10824,33856
10825,34432
10826,33984
10827,33344
10828,34048
10829,34112
10830,34304
10831,33600
10832,33856
10833,34624
10834,34496
10835,33792
10836,33792
10837,34624
10838,34688
10839,33920
10840,33856
10841,34688
10842,34944
10843,34112
10844,33984
10845,34752
10846,35200
10847,34624
10848,34112
10849,34624
10850,35200
10851,34752
10852,34112
10853,34496
10854,35136
10855,34816
10856,34048
10857,34304
10858,35136
10859,35072
10860,34176
10861,34176
10862,34944
10863,34944
10864,34048
10865,33728
10866,34368
10867,34624
10868,33792
10869,33344
10870,33920
10871,34368
10872,33728
10873,33216
10874,33728
10875,34368
10876,33920
10877,33280
10878,33664
10879,34496
10880,34240
10881,33600
10882,33792
10883,34560
10884,34496
10885,33728
10886,33728
10887,34560
10888,34624
10889,33920
10890,33856
10891,34560
10892,34880
10893,34176
10894,33792
10895,34368
10896,34816
10897,34240
10898,33664
10899,34176
10900,34816
10901,34368
10902,33728
10903,34368
10904,34432
10905,34496
10906,33728
10907,33920
10908,34688
10909,34560
10910,33792
10911,33728
10912,34496
10913,34688
10914,33984
10915,33728
10916,34496
10917,34816
10918,33920
10919,33792
10920,34304
10921,34816
10922,34240
10923,33728
10924,34176
