,ECG
0,36544
1,34624
2,33088
3,32064
4,31680
5,31616
6,31744
7,31936
8,32192
9,32512
10,32832
11,32832
12,33088
13,33216
14,33344
15,33344
16,33408
17,33408
18,33472
19,33472
20,33472
21,33536
22,33600
23,33536
24,33536
25,33664
26,33664
27,33792
28,33792
29,33856
30,33920
31,33920
32,33792
33,33728
34,33728
35,33728
36,33664
37,33728
38,33792
39,33792
40,33856
41,33792
42,34112
43,34304
44,34432
45,34560
46,34688
47,34816
48,34880
49,34880
50,34880
51,34752
52,34624
53,34496
54,34368
55,34368
56,34432
57,34496
58,34560
59,34688
60,34752
61,34752
62,34752
63,34816
64,34816
65,34752
66,34688
67,34624
68,34496
69,34368
70,34112
71,34048
72,33856
73,33728
74,33536
75,33536
76,33600
77,33664
78,33728
79,33792
80,33920
81,33984
82,33984
83,34048
84,34112
85,34176
86,34112
87,34112
88,34048
89,33984
90,33856
91,33856
92,33920
93,34048
94,34112
95,34176
96,34304
97,34496
98,34560
99,34496
100,34560
101,34496
102,34432
103,34368
104,34304
105,34176
106,34112
107,34048
108,33984
109,34112
110,34112
111,34048
112,34048
113,34112
114,34176
115,34176
116,34240
117,34240
118,34304
119,34240
120,34240
121,34240
122,34176
123,34048
124,33920
125,33920
126,33984
127,33984
128,33984
129,33984
130,34048
131,34048
132,34048
133,34176
134,34304
135,34368
136,34368
137,34304
138,34368
139,34432
140,34560
141,34688
142,34816
143,34944
144,34944
145,35008
146,35072
147,35008
148,34816
149,34560
150,34304
151,34048
152,33792
153,33536
154,33344
155,33216
156,33280
157,33280
158,33408
159,33472
160,33792
161,33792
162,34048
163,34112
164,34048
165,34048
166,34048
167,33984
168,33920
169,33792
170,33728
171,33856
172,34112
173,34560
174,35392
175,36608
176,37952
177,39552
178,40704
179,40832
180,39552
181,37568
182,35456
183,33728
184,32512
185,31744
186,31424
187,31360
188,31552
189,31744
190,32000
191,32256
192,32512
193,32768
194,33024
195,33152
196,33344
197,33600
198,33728
199,33856
200,33984
201,33984
202,33920
203,33856
204,33792
205,33600
206,33536
207,33344
208,33280
209,33216
210,33216
211,33152
212,33152
213,33152
214,33280
215,33344
216,33408
217,33600
218,33728
219,33920
220,34176
221,34432
222,34752
223,35072
224,35264
225,35456
226,35584
227,35584
228,35648
229,35712
230,35776
231,35648
232,35456
233,35200
234,35072
235,34880
236,34816
237,34752
238,34624
239,34560
240,34432
241,34368
242,34368
243,34432
244,34560
245,34688
246,34880
247,34944
248,35008
249,34944
250,34944
251,34880
252,34816
253,34688
254,34560
255,34432
256,34304
257,34048
258,33856
259,33664
260,33472
261,33280
262,33152
263,33024
264,32960
265,33024
266,33024
267,33280
268,33472
269,33664
270,33856
271,34048
272,34240
273,34368
274,34496
275,34624
276,34688
277,34688
278,34688
279,34624
280,34560
281,34496
282,34432
283,34368
284,34368
285,34304
286,34176
287,34176
288,34176
289,34240
290,34240
291,34240
292,34304
293,34368
294,34368
295,34432
296,34496
297,34432
298,34368
299,34304
300,34240
301,34112
302,33920
303,33792
304,33792
305,33792
306,33728
307,33664
308,33728
309,33920
310,34176
311,34176
312,34176
313,34176
314,34176
315,34112
316,34240
317,34304
318,34304
319,34240
320,34176
321,34176
322,34304
323,34432
324,34432
325,34304
326,34112
327,33856
328,33856
329,33984
330,34176
331,34240
332,34240
333,34304
334,34432
335,34624
336,34688
337,34688
338,34496
339,34240
340,33984
341,33728
342,33536
343,33408
344,33280
345,33344
346,33344
347,33408
348,33536
349,33536
350,33664
351,33856
352,34048
353,34112
354,34176
355,34240
356,34176
357,34112
358,34112
359,34112
360,34368
361,34880
362,35776
363,37056
364,38400
365,39808
366,41024
367,41152
368,39872
369,37696
370,35392
371,33344
372,31872
373,31040
374,30720
375,30848
376,31104
377,31488
378,31936
379,32448
380,32832
381,33216
382,33408
383,33728
384,34112
385,34240
386,34368
387,34432
388,34560
389,34624
390,34688
391,34752
392,34816
393,34752
394,34496
395,34176
396,33984
397,33856
398,33856
399,33728
400,33600
401,33344
402,33024
403,32832
404,32832
405,32960
406,32896
407,32896
408,32960
409,33152
410,33280
411,33408
412,33536
413,33664
414,33792
415,33984
416,34176
417,34368
418,34560
419,34688
420,34944
421,35136
422,35136
423,35072
424,35008
425,35072
426,35072
427,35072
428,35072
429,35136
430,35136
431,35072
432,34944
433,34880
434,34688
435,34432
436,34176
437,33920
438,33792
439,33792
440,33792
441,33728
442,33792
443,33728
444,33600
445,33408
446,33344
447,33408
448,33408
449,33472
450,33600
451,33728
452,33792
453,33792
454,33856
455,34048
456,34112
457,34112
458,34048
459,34048
460,34048
461,34112
462,34176
463,34304
464,34368
465,34432
466,34496
467,34496
468,34432
469,34432
470,34432
471,34432
472,34368
473,34112
474,33984
475,33984
476,34048
477,34048
478,34112
479,34048
480,34112
481,34240
482,34240
483,34304
484,34368
485,34368
486,34368
487,34432
488,34496
489,34496
490,34496
491,34432
492,34432
493,34432
494,34368
495,34240
496,34240
497,34240
498,34176
499,34176
500,34176
501,34304
502,34304
503,34304
504,34368
505,34432
506,34432
507,34432
508,34496
509,34560
510,34624
511,34624
512,34688
513,34688
514,34688
515,34560
516,34368
517,34176
518,33856
519,33536
520,33280
521,33152
522,33024
523,32960
524,32960
525,33024
526,33216
527,33280
528,33344
529,33408
530,33536
531,33600
532,33664
533,33728
534,33856
535,33920
536,33984
537,34112
538,34496
539,34944
540,35648
541,36672
542,37952
543,39424
544,40896
545,41792
546,41408
547,39808
548,37632
549,35584
550,33920
551,32768
552,32064
553,31680
554,31616
555,31744
556,31872
557,32000
558,32128
559,32320
560,32576
561,32704
562,32832
563,33024
564,33216
565,33280
566,33344
567,33472
568,33600
569,33600
570,33600
571,33664
572,33728
573,33792
574,33920
575,34112
576,34304
577,34496
578,34688
579,34816
580,34944
581,34944
582,35008
583,35072
584,35008
585,34944
586,34752
587,34560
588,34496
589,34496
590,34496
591,34432
592,34368
593,34304
594,34240
595,34176
596,34240
597,34304
598,34368
599,34368
600,34432
601,34560
602,34624
603,34624
604,34688
605,34816
606,34880
607,34944
608,34944
609,35008
610,35008
611,34880
612,34688
613,34496
614,34240
615,33856
616,33536
617,33344
618,33280
619,33152
620,33088
621,33024
622,32960
623,33024
624,33152
625,33344
626,33600
627,33728
628,33792
629,33856
630,34048
631,34176
632,34368
633,34688
634,34944
635,35136
636,35200
637,35200
638,35200
639,35328
640,35328
641,35328
642,35200
643,35008
644,34752
645,34432
646,34176
647,33920
648,33728
649,33472
650,33280
651,33216
652,33152
653,33216
654,33280
655,33472
656,33600
657,33792
658,33920
659,34048
660,34112
661,34176
662,34240
663,34432
664,34624
665,34752
666,34816
667,34880
668,34944
669,35008
670,35008
671,35072
672,35072
673,35072
674,35008
675,34944
676,34880
677,34816
678,34816
679,34880
680,35008
681,35072
682,35072
683,35136
684,35264
685,35328
686,35200
687,35008
688,34752
689,34432
690,34112
691,33856
692,33664
693,33664
694,33600
695,33664
696,33664
697,33664
698,33600
699,33536
700,33600
701,33728
702,33792
703,33792
704,33728
705,33664
706,33600
707,33536
708,33600
709,34048
710,34688
711,35456
712,36608
713,38016
714,39616
715,40768
716,40960
717,39744
718,37632
719,35456
720,33600
721,32320
722,31616
723,31360
724,31296
725,31360
726,31616
727,31808
728,32064
729,32384
730,32704
731,32960
732,33152
733,33344
734,33408
735,33472
736,33536
737,33536
738,33536
739,33536
740,33472
741,33408
742,33472
743,33472
744,33408
745,33408
746,33472
747,33536
748,33600
749,33664
750,33728
751,33856
752,33920
753,33984
754,34112
755,34176
756,34368
757,34432
758,34496
759,34624
760,34624
761,34624
762,34560
763,34624
764,34624
765,34560
766,34496
767,34496
768,34432
769,34368
770,34304
771,34304
772,34304
773,34304
774,34240
775,34304
776,34432
777,34496
778,34560
779,34624
780,34752
781,34880
782,34944
783,34944
784,35008
785,34880
786,34688
787,34560
788,34496
789,34368
790,34240
791,34176
792,34048
793,33984
794,33856
795,33728
796,33664
797,33728
798,33728
799,33728
800,33728
801,33728
802,33664
803,33600
804,33600
805,33728
806,33792
807,33920
808,33984
809,34112
810,34112
811,34048
812,33984
813,33984
814,33920
815,33920
816,33856
817,33920
818,33984
819,33984
820,33984
821,34112
822,34240
823,34304
824,34304
825,34304
826,34240
827,34240
828,34176
829,34112
830,34112
831,34048
832,33984
833,33920
834,33984
835,34048
836,34048
837,33984
838,33984
839,33920
840,33920
841,33920
842,33984
843,34176
844,34304
845,34368
846,34432
847,34432
848,34496
849,34496
850,34624
851,34816
852,34880
853,34944
854,34944
855,35008
856,35008
857,34944
858,34816
859,34624
860,34304
861,33984
862,33664
863,33472
864,33472
865,33472
866,33664
867,33792
868,33856
869,33856
870,33792
871,33792
872,33920
873,33984
874,33920
875,33920
876,33984
877,33984
878,33920
879,33856
880,33984
881,34432
882,35072
883,35968
884,37248
885,38720
886,40192
887,41152
888,40960
889,39424
890,37312
891,35200
892,33472
893,32320
894,31616
895,31424
896,31552
897,31744
898,31872
899,31936
900,32064
901,32256
902,32448
903,32640
904,32832
905,33152
906,33344
907,33408
908,33472
909,33536
910,33600
911,33600
912,33600
913,33664
914,33728
915,33728
916,33728
917,33792
918,33856
919,33984
920,34048
921,34048
922,33984
923,33856
924,33664
925,33536
926,33472
927,33472
928,33472
929,33536
930,33728
931,33920
932,34112
933,34304
934,34560
935,34752
936,34752
937,34752
938,34752
939,34688
940,34624
941,34496
942,34496
943,34560
944,34688
945,34752
946,34816
947,34816
948,34752
949,34688
950,34688
951,34624
952,34496
953,34368
954,34240
955,34112
956,34048
957,33920
958,33856
959,33920
960,33920
961,33856
962,33792
963,33856
964,33856
965,33920
966,33920
967,33984
968,33984
969,33920
970,33728
971,33664
972,33728
973,33792
974,33856
975,33920
976,34112
977,34176
978,34112
979,34048
980,34112
981,34112
982,34176
983,34240
984,34304
985,34368
986,34368
987,34240
988,34176
989,34176
990,34048
991,33984
992,33984
993,34048
994,33984
995,33984
996,33920
997,33984
998,33984
999,34048
1000,34112
1001,34304
1002,34368
1003,34368
1004,34240
1005,34240
1006,34176
1007,34176
1008,34112
1009,34048
1010,34048
1011,33984
1012,33984
1013,34112
1014,34304
1015,34368
1016,34304
1017,34368
1018,34432
1019,34496
1020,34624
1021,34752
1022,34816
1023,34816
1024,34752
1025,34752
1026,34688
1027,34624
1028,34432
1029,34240
1030,34048
1031,33792
1032,33600
1033,33472
1034,33408
1035,33408
1036,33408
1037,33472
1038,33536
1039,33600
1040,33664
1041,33792
1042,33856
1043,33984
1044,33984
1045,33856
1046,33856
1047,33792
1048,33664
1049,33600
1050,33728
1051,34240
1052,34880
1053,35904
1054,37120
1055,38592
1056,39936
1057,40768
1058,40320
1059,38720
1060,36608
1061,34560
1062,33024
1063,32128
1064,31680
1065,31552
1066,31616
1067,31808
1068,32064
1069,32384
1070,32576
1071,32768
1072,32896
1073,33024
1074,33024
1075,33088
1076,33280
1077,33408
1078,33472
1079,33536
1080,33664
1081,33664
1082,33664
1083,33728
1084,33856
1085,34048
1086,34240
1087,34304
1088,34304
1089,34240
1090,34176
1091,34048
1092,33984
1093,33920
1094,33856
1095,33792
1096,33792
1097,33792
1098,33856
1099,33920
1100,33984
1101,34176
1102,34240
1103,34304
1104,34304
1105,34368
1106,34432
1107,34368
1108,34368
1109,34432
1110,34560
1111,34560
1112,34496
1113,34496
1114,34560
1115,34624
1116,34688
1117,34752
1118,34816
1119,34816
1120,34752
1121,34752
1122,34752
1123,34688
1124,34560
1125,34496
1126,34432
1127,34368
1128,34240
1129,34112
1130,34048
1131,33984
1132,33920
1133,33856
1134,33856
1135,33920
1136,33920
1137,33984
1138,34048
1139,34112
1140,33984
1141,33856
1142,33728
1143,33664
1144,33728
1145,33792
1146,33792
1147,33792
1148,33792
1149,33856
1150,33920
1151,34048
1152,34112
1153,34112
1154,34112
1155,34176
1156,34176
1157,34112
1158,34048
1159,34112
1160,34112
1161,34112
1162,34112
1163,34176
1164,34240
1165,34240
1166,34240
1167,34240
1168,34304
1169,34304
1170,34240
1171,34176
1172,34240
1173,34112
1174,34048
1175,34048
1176,34048
1177,34048
1178,34048
1179,34112
1180,34112
1181,34176
1182,34112
1183,34112
1184,34112
1185,34176
1186,34112
1187,34048
1188,34048
1189,34112
1190,34176
1191,34240
1192,34432
1193,34624
1194,34688
1195,34624
1196,34688
1197,34816
1198,34880
1199,34944
1200,35008
1201,35136
1202,35072
1203,34944
1204,34816
1205,34816
1206,34816
1207,34688
1208,34432
1209,34176
1210,33984
1211,33728
1212,33536
1213,33536
1214,33536
1215,33600
1216,33600
1217,33664
1218,33728
1219,33728
1220,33728
1221,33664
1222,33728
1223,33728
1224,33728
1225,33792
1226,33856
1227,33856
1228,33792
1229,33856
1230,34240
1231,34880
1232,35648
1233,36736
1234,38144
1235,39744
1236,40896
1237,41088
1238,40064
1239,38144
1240,35968
1241,34048
1242,32704
1243,32000
1244,31744
1245,31744
1246,31872
1247,32128
1248,32320
1249,32512
1250,32704
1251,32896
1252,33088
1253,33152
1254,33280
1255,33344
1256,33472
1257,33472
1258,33536
1259,33600
1260,33664
1261,33664
1262,33600
1263,33664
1264,33856
1265,33920
1266,33856
1267,33856
1268,33856
1269,33920
1270,33920
1271,33984
1272,33920
1273,33856
1274,33728
1275,33664
1276,33728
1277,33792
1278,33856
1279,33984
1280,34112
1281,34176
1282,34304
1283,34368
1284,34496
1285,34560
1286,34624
1287,34624
1288,34624
1289,34752
1290,34752
1291,34688
1292,34688
1293,34752
1294,34752
1295,34688
1296,34560
1297,34496
1298,34368
1299,34304
1300,34240
1301,34304
1302,34368
1303,34368
1304,34368
1305,34368
1306,34432
1307,34432
1308,34368
1309,34368
1310,34368
1311,34304
1312,34176
1313,34112
1314,34176
1315,34240
1316,34176
1317,34048
1318,33920
1319,33792
1320,33728
1321,33664
1322,33664
1323,33664
1324,33664
1325,33664
1326,33792
1327,33920
1328,33920
1329,33920
1330,34048
1331,34176
1332,34240
1333,34240
1334,34304
1335,34368
1336,34496
1337,34560
1338,34560
1339,34496
1340,34368
1341,34176
1342,33920
1343,33792
1344,33792
1345,33792
1346,33856
1347,33984
1348,34048
1349,34048
1350,34048
1351,34112
1352,34240
1353,34240
1354,34240
1355,34304
1356,34368
1357,34304
1358,34176
1359,34112
1360,34176
1361,34240
1362,34240
1363,34240
1364,34240
1365,34112
1366,34048
1367,34048
1368,34112
1369,34240
1370,34176
1371,34112
1372,34176
1373,34432
1374,34560
1375,34624
1376,34688
1377,34752
1378,34688
1379,34752
1380,34880
1381,35008
1382,35008
1383,34880
1384,34816
1385,34944
1386,34944
1387,34880
1388,34688
1389,34432
1390,34048
1391,33664
1392,33472
1393,33408
1394,33344
1395,33344
1396,33408
1397,33472
1398,33536
1399,33600
1400,33600
1401,33664
1402,33792
1403,33920
1404,33984
1405,34048
1406,34048
1407,33984
1408,33920
1409,33920
1410,34048
1411,34368
1412,34944
1413,35840
1414,37056
1415,38528
1416,40064
1417,41088
1418,41024
1419,39488
1420,37312
1421,35008
1422,33536
1423,32448
1424,31936
1425,31808
1426,31872
1427,32128
1428,32320
1429,32576
1430,32768
1431,32960
1432,33152
1433,33280
1434,33344
1435,33408
1436,33344
1437,33280
1438,33280
1439,33472
1440,33728
1441,33728
1442,33792
1443,33792
1444,33856
1445,33792
1446,33792
1447,33856
1448,33984
1449,34048
1450,34048
1451,34048
1452,34048
1453,33984
1454,33856
1455,33856
1456,33920
1457,33984
1458,34048
1459,34176
1460,34240
1461,34304
1462,34304
1463,34304
1464,34432
1465,34496
1466,34560
1467,34624
1468,34752
1469,34752
1470,34752
1471,34816
1472,34944
1473,34944
1474,34880
1475,34752
1476,34688
1477,34688
1478,34688
1479,34624
1480,34560
1481,34560
1482,34560
1483,34496
1484,34432
1485,34496
1486,34432
1487,34368
1488,34304
1489,34304
1490,34304
1491,34112
1492,34048
1493,33984
1494,33984
1495,33920
1496,33792
1497,33792
1498,33856
1499,33792
1500,33792
1501,33792
1502,33856
1503,33920
1504,33920
1505,33920
1506,33984
1507,33984
1508,33984
1509,33984
1510,34048
1511,34048
1512,33984
1513,33920
1514,34048
1515,34112
1516,34176
1517,34240
1518,34304
1519,34304
1520,34176
1521,34112
1522,34176
1523,34240
1524,34240
1525,34240
1526,34304
1527,34304
1528,34176
1529,34048
1530,33984
1531,34048
1532,34048
1533,34048
1534,34112
1535,34176
1536,34176
1537,34176
1538,34176
1539,34240
1540,34240
1541,34176
1542,34112
1543,34112
1544,34112
1545,34048
1546,33920
1547,33920
1548,33984
1549,33920
1550,33920
1551,33984
1552,34048
1553,34112
1554,34112
1555,34048
1556,34048
1557,34048
1558,33984
1559,34048
1560,34176
1561,34240
1562,34304
1563,34368
1564,34432
1565,34496
1566,34560
1567,34688
1568,34816
1569,34816
1570,34816
1571,34816
1572,34880
1573,34944
1574,34944
1575,34880
1576,34752
1577,34624
1578,34368
1579,34048
1580,33792
1581,33792
1582,33728
1583,33664
1584,33664
1585,33664
1586,33664
1587,33664
1588,33728
1589,33856
1590,33920
1591,33984
1592,33984
1593,34048
1594,34048
1595,33984
1596,33920
1597,33856
1598,33920
1599,34048
1600,34432
1601,35264
1602,36096
1603,37312
1604,38784
1605,40256
1606,41216
1607,40704
1608,39104
1609,36928
1610,34944
1611,33408
1612,32384
1613,31872
1614,31808
1615,31936
1616,32128
1617,32256
1618,32512
1619,32704
1620,32896
1621,33088
1622,33280
1623,33408
1624,33536
1625,33536
1626,33536
1627,33536
1628,33536
1629,33600
1630,33664
1631,33664
1632,33664
1633,33664
1634,33664
1635,33792
1636,33856
1637,33856
1638,33920
1639,34048
1640,34048
1641,34112
1642,34112
1643,34176
1644,34240
1645,34240
1646,34176
1647,34176
1648,34176
1649,34176
1650,34176
1651,34240
1652,34304
1653,34304
1654,34304
1655,34368
1656,34432
1657,34496
1658,34496
1659,34560
1660,34624
1661,34688
1662,34560
1663,34560
1664,34624
1665,34688
1666,34688
1667,34688
1668,34752
1669,34688
1670,34624
1671,34624
1672,34624
1673,34624
1674,34560
1675,34496
1676,34432
1677,34432
1678,34304
1679,34240
1680,34240
1681,34112
1682,33984
1683,33856
1684,33856
1685,33792
1686,33728
1687,33792
1688,33920
1689,33984
1690,33984
1691,33984
1692,34048
1693,34112
1694,34048
1695,34048
1696,34112
1697,34048
1698,34176
1699,34176
1700,34176
1701,34176
1702,34176
1703,34176
1704,34176
1705,34176
1706,34112
1707,34048
1708,33920
1709,33984
1710,34048
1711,34176
1712,34112
1713,34240
1714,34240
1715,34176
1716,34176
1717,34240
1718,34240
1719,34240
1720,34176
1721,34176
1722,34176
1723,34368
1724,34304
1725,34240
1726,34176
1727,34112
1728,34048
1729,33984
1730,34048
1731,34048
1732,34048
1733,33984
1734,34048
1735,34048
1736,33984
1737,33984
1738,33984
1739,34048
1740,34112
1741,34112
1742,34176
1743,34304
1744,34368
1745,34432
1746,34624
1747,34752
1748,34752
1749,34752
1750,34880
1751,34944
1752,35008
1753,34944
1754,34944
1755,35008
1756,35072
1757,35008
1758,34816
1759,34688
1760,34432
1761,34112
1762,33856
1763,33728
1764,33664
1765,33664
1766,33600
1767,33664
1768,33792
1769,33856
1770,33856
1771,33920
1772,33984
1773,33984
1774,33984
1775,33984
1776,34048
1777,33984
1778,33856
1779,33792
1780,33920
1781,33920
1782,34496
1783,35200
1784,36224
1785,37568
1786,39104
1787,40448
1788,41216
1789,40512
1790,38656
1791,36544
1792,34752
1793,33344
1794,32448
1795,31936
1796,31872
1797,31936
1798,32064
1799,32256
1800,32512
1801,32768
1802,32960
1803,33088
1804,33216
1805,33344
1806,33472
1807,33536
1808,33600
1809,33664
1810,33728
1811,33664
1812,33600
1813,33664
1814,33728
1815,33792
1816,33792
1817,33920
1818,34048
1819,34048
1820,34048
1821,34112
1822,34176
1823,34176
1824,34112
1825,34112
1826,34112
1827,34112
1828,34112
1829,34176
1830,34176
1831,34176
1832,34176
1833,34176
1834,34176
1835,34304
1836,34304
1837,34304
1838,34432
1839,34496
1840,34560
1841,34496
1842,34560
1843,34560
1844,34560
1845,34560
1846,34624
1847,34624
1848,34624
1849,34624
1850,34688
1851,34688
1852,34752
1853,34752
1854,34688
1855,34688
1856,34624
1857,34496
1858,34432
1859,34432
1860,34368
1861,34304
1862,34240
1863,34176
1864,34112
1865,34048
1866,33920
1867,33856
1868,33856
1869,33792
1870,33792
1871,33728
1872,33856
1873,33920
1874,34048
1875,34112
1876,34240
1877,34304
1878,34368
1879,34432
1880,34496
1881,34560
1882,34624
1883,34624
1884,34560
1885,34304
1886,34176
1887,33984
1888,33984
1889,33984
1890,33920
1891,33920
1892,33984
1893,34048
1894,34048
1895,34112
1896,34240
1897,34368
1898,34432
1899,34432
1900,34432
1901,34496
1902,34432
1903,34368
1904,34304
1905,34304
1906,34240
1907,34176
1908,34176
1909,34176
1910,34112
1911,33984
1912,33984
1913,34048
1914,34048
1915,33984
1916,33920
1917,34112
1918,34240
1919,34368
1920,34368
1921,34496
1922,34560
1923,34560
1924,34624
1925,34752
1926,34816
1927,34816
1928,34752
1929,34752
1930,34816
1931,34816
1932,34688
1933,34432
1934,34176
1935,33920
1936,33664
1937,33408
1938,33280
1939,33216
1940,33280
1941,33344
1942,33472
1943,33664
1944,33728
1945,33856
1946,33792
1947,33984
1948,34112
1949,34176
1950,34304
1951,34496
1952,34496
1953,34368
1954,34240
1955,34368
1956,34752
1957,35328
1958,36160
1959,37376
1960,38848
1961,40192
1962,41088
1963,40768
1964,39232
1965,37056
1966,34880
1967,33344
1968,32256
1969,31744
1970,31552
1971,31616
1972,31872
1973,32192
1974,32448
1975,32896
1976,32896
1977,33216
1978,33344
1979,33472
1980,33600
1981,33728
1982,33600
1983,33600
1984,33664
1985,33664
1986,33536
1987,33472
1988,33472
1989,33536
1990,33472
1991,33536
1992,33600
1993,33728
1994,33792
1995,33856
1996,33856
1997,33984
1998,34048
1999,34048
2000,34048
2001,34112
2002,34112
2003,34048
2004,34048
2005,34112
2006,34240
2007,34368
2008,34496
2009,34624
2010,34688
2011,34624
2012,34496
2013,34368
2014,34304
2015,34240
2016,34176
2017,34240
2018,34304
2019,34368
2020,34432
2021,34368
2022,34560
2023,34688
2024,34752
2025,34752
2026,34752
2027,34752
2028,34688
2029,34688
2030,34688
2031,34496
2032,34240
2033,34048
2034,33920
2035,33920
2036,33856
2037,33856
2038,33856
2039,33920
2040,33920
2041,33920
2042,33856
2043,33856
2044,33792
2045,33728
2046,33728
2047,33792
2048,33728
2049,33664
2050,33600
2051,33600
2052,33600
2053,33600
2054,33728
2055,33856
2056,33984
2057,34048
2058,34112
2059,34240
2060,34368
2061,34432
2062,34496
2063,34432
2064,34304
2065,34240
2066,34240
2067,34240
2068,34304
2069,34240
2070,34176
2071,34176
2072,34240
2073,34240
2074,34176
2075,34240
2076,34304
2077,34304
2078,34240
2079,34176
2080,34240
2081,34176
2082,34112
2083,33984
2084,33920
2085,33792
2086,33536
2087,33216
2088,33024
2089,32832
2090,32640
2091,32512
2092,32512
2093,32768
2094,33024
2095,33536
2096,33600
2097,34496
2098,35072
2099,35520
2100,35776
2101,35776
2102,35648
2103,35328
2104,34944
2105,34624
2106,34304
2107,33984
2108,33856
2109,34048
2110,34304
2111,34496
2112,34560
2113,34624
2114,34688
2115,34560
2116,34368
2117,34176
2118,33856
2119,33472
2120,33088
2121,32768
2122,32384
2123,31936
2124,31424
2125,30976
2126,30976
2127,31168
2128,31552
2129,32192
2130,32896
2131,33536
2132,33984
2133,34304
2134,34688
2135,35200
2136,35712
2137,36224
2138,37056
2139,38016
2140,39552
2141,39680
2142,40320
2143,39552
2144,37952
2145,36160
2146,34752
2147,33984
2148,33792
2149,33920
2150,34240
2151,34496
2152,34432
2153,34176
2154,33920
2155,33728
2156,33728
2157,33408
2158,33152
2159,32896
2160,32704
2161,32640
2162,32640
2163,32768
2164,33088
2165,33408
2166,33664
2167,33984
2168,34304
2169,34560
2170,34752
2171,34880
2172,35008
2173,34880
2174,34560
2175,34304
2176,33984
2177,33728
2178,33536
2179,33280
2180,33216
2181,33216
2182,33152
2183,33216
2184,33344
2185,33536
2186,33536
2187,33728
2188,33920
2189,34112
2190,34176
2191,34240
2192,34432
2193,34752
2194,34944
2195,35072
2196,35200
2197,35392
2198,35456
2199,35392
2200,35456
2201,35392
2202,35392
2203,35392
2204,35328
2205,35392
2206,35392
2207,35328
2208,35392
2209,35520
2210,35648
2211,35712
2212,35648
2213,35456
2214,35200
2215,34880
2216,34560
2217,34304
2218,34112
2219,34048
2220,33920
2221,33728
2222,33536
2223,33408
2224,33216
2225,33088
2226,33088
2227,33088
2228,33152
2229,33280
2230,33472
2231,33472
2232,33664
2233,33728
2234,33856
2235,33984
2236,34112
2237,34240
2238,34304
2239,34304
2240,34368
2241,34432
2242,34496
2243,34496
2244,34496
2245,34432
2246,34368
2247,34432
2248,34496
2249,34432
2250,34368
2251,34496
2252,34560
2253,34560
2254,34496
2255,34432
2256,34432
2257,34368
2258,34176
2259,34048
2260,33920
2261,33856
2262,33728
2263,33792
2264,33920
2265,33920
2266,33856
2267,33792
2268,33792
2269,33856
2270,33856
2271,33920
2272,33920
2273,33920
2274,33984
2275,33984
2276,34048
2277,34112
2278,34112
2279,34048
2280,34112
2281,34304
2282,34432
2283,34560
2284,34624
2285,34624
2286,34560
2287,34624
2288,34880
2289,35072
2290,34944
2291,34880
2292,34688
2293,34688
2294,34816
2295,34816
2296,34880
2297,34752
2298,34560
2299,34176
2300,33920
2301,33728
2302,33600
2303,33472
2304,33472
2305,33600
2306,33664
2307,33600
2308,33472
2309,33536
2310,33600
2311,33600
2312,33536
2313,33600
2314,33664
2315,33792
2316,33792
2317,33728
2318,33728
2319,33792
2320,34112
2321,34688
2322,35520
2323,36672
2324,38016
2325,39552
2326,40896
2327,41216
2328,40064
2329,37952
2330,35712
2331,33856
2332,32512
2333,31872
2334,31808
2335,31872
2336,32064
2337,32128
2338,32384
2339,32640
2340,32832
2341,32960
2342,33088
2343,33280
2344,33344
2345,33344
2346,33344
2347,33408
2348,33408
2349,33344
2350,33344
2351,33408
2352,33536
2353,33600
2354,33664
2355,33792
2356,33856
2357,33856
2358,33792
2359,33856
2360,33920
2361,33856
2362,33792
2363,33856
2364,33920
2365,33920
2366,33920
2367,33984
2368,34048
2369,34112
2370,34112
2371,34176
2372,34240
2373,34368
2374,34432
2375,34432
2376,34496
2377,34560
2378,34496
2379,34496
2380,34560
2381,34624
2382,34624
2383,34560
2384,34496
2385,34560
2386,34624
2387,34624
2388,34560
2389,34688
2390,34752
2391,34688
2392,34624
2393,34624
2394,34624
2395,34496
2396,34304
2397,34240
2398,34240
2399,34176
2400,34048
2401,34048
2402,34048
2403,33984
2404,33856
2405,33792
2406,33856
2407,33856
2408,33728
2409,33728
2410,33792
2411,33792
2412,33856
2413,33856
2414,33920
2415,33984
2416,34048
2417,34048
2418,34112
2419,34176
2420,34112
2421,34112
2422,34112
2423,34176
2424,34176
2425,34048
2426,34048
2427,34048
2428,34048
2429,33984
2430,33984
2431,34112
2432,34176
2433,34176
2434,34176
2435,34240
2436,34240
2437,34176
2438,34112
2439,34176
2440,34176
2441,34112
2442,34048
2443,34048
2444,34048
2445,33984
2446,33920
2447,33984
2448,33984
2449,34048
2450,33984
2451,34048
2452,34112
2453,34112
2454,34112
2455,34112
2456,34176
2457,34112
2458,34048
2459,33920
2460,33984
2461,34112
2462,34048
2463,34048
2464,34048
2465,34048
2466,34048
2467,33984
2468,33984
2469,34048
2470,34048
2471,34176
2472,34240
2473,34368
2474,34368
2475,34368
2476,34432
2477,34496
2478,34560
2479,34624
2480,34688
2481,34816
2482,34816
2483,34816
2484,34816
2485,34816
2486,34688
2487,34496
2488,34304
2489,34048
2490,33856
2491,33664
2492,33536
2493,33536
2494,33600
2495,33600
2496,33664
2497,33728
2498,33856
2499,33856
2500,33856
2501,33856
2502,33920
2503,33920
2504,33856
2505,33792
2506,33856
2507,33792
2508,33728
2509,33856
2510,34240
2511,34944
2512,35776
2513,36992
2514,38592
2515,40256
2516,41344
2517,41152
2518,39680
2519,37632
2520,35520
2521,33728
2522,32512
2523,31936
2524,31744
2525,31744
2526,31936
2527,32256
2528,32576
2529,32704
2530,32704
2531,32832
2532,33024
2533,33088
2534,33216
2535,33408
2536,33600
2537,33600
2538,33664
2539,33728
2540,33792
2541,33792
2542,33792
2543,33792
2544,33920
2545,33920
2546,33856
2547,33920
2548,34048
2549,34048
2550,33920
2551,33856
2552,33920
2553,33856
2554,33792
2555,33792
2556,33856
2557,33920
2558,33920
2559,33984
2560,34048
2561,34176
2562,34176
2563,34176
2564,34304
2565,34432
2566,34496
2567,34496
2568,34560
2569,34624
2570,34560
2571,34496
2572,34496
2573,34624
2574,34624
2575,34560
2576,34560
2577,34560
2578,34560
2579,34496
2580,34560
2581,34624
2582,34624
2583,34560
2584,34496
2585,34496
2586,34496
2587,34368
2588,34176
2589,34048
2590,33984
2591,33920
2592,33792
2593,33792
2594,33792
2595,33792
2596,33792
2597,33856
2598,33984
2599,34048
2600,34048
2601,34112
2602,34240
2603,34304
2604,34304
2605,34304
2606,34304
2607,34304
2608,34304
2609,34304
2610,34304
2611,34304
2612,34048
2613,33920
2614,33920
2615,33984
2616,33984
2617,33984
2618,34112
2619,34112
2620,34112
2621,34112
2622,34176
2623,34176
2624,34240
2625,34304
2626,34368
2627,34432
2628,34304
2629,34176
2630,34112
2631,34176
2632,34240
2633,34112
2634,34048
2635,34112
2636,34176
2637,34176
2638,34048
2639,34048
2640,34048
2641,34048
2642,33984
2643,33984
2644,34048
2645,34112
2646,34048
2647,34112
2648,34304
2649,34368
2650,34240
2651,34240
2652,34304
2653,34240
2654,34176
2655,34176
2656,34368
2657,34496
2658,34560
2659,34624
2660,34752
2661,34880
2662,34880
2663,34880
2664,34944
2665,34944
2666,35008
2667,34944
2668,34880
2669,34752
2670,34496
2671,34112
2672,33856
2673,33728
2674,33536
2675,33280
2676,33216
2677,33280
2678,33280
2679,33408
2680,33536
2681,33728
2682,33856
2683,33856
2684,33920
2685,33984
2686,33920
2687,33792
2688,33792
2689,33920
2690,33920
2691,33856
2692,33984
2693,34496
2694,35264
2695,36416
2696,37760
2697,39424
2698,40832
2699,41216
2700,40192
2701,38144
2702,35840
2703,34048
2704,32640
2705,31936
2706,31680
2707,31744
2708,32000
2709,32320
2710,32384
2711,32448
2712,32512
2713,32640
2714,32832
2715,33024
2716,33216
2717,33344
2718,33408
2719,33472
2720,33536
2721,33600
2722,33728
2723,33792
2724,33792
2725,33728
2726,33728
2727,33792
2728,33856
2729,33856
2730,33856
2731,33984
2732,34112
2733,34176
2734,34112
2735,34112
2736,34048
2737,34048
2738,34112
2739,34240
2740,34304
2741,34304
2742,34240
2743,34240
2744,34240
2745,34240
2746,34176
2747,34176
2748,34176
2749,34176
2750,34176
2751,34240
2752,34368
2753,34432
2754,34432
2755,34496
2756,34560
2757,34688
2758,34752
2759,34752
2760,34752
2761,34688
2762,34688
2763,34624
2764,34560
2765,34560
2766,34496
2767,34368
2768,34368
2769,34368
2770,34304
2771,34176
2772,34112
2773,34112
2774,34048
2775,33984
2776,33920
2777,33984
2778,33984
2779,34048
2780,34176
2781,34240
2782,34176
2783,34048
2784,33856
2785,33856
2786,33856
2787,33856
2788,33920
2789,34048
2790,34112
2791,34112
2792,34112
2793,34176
2794,34240
2795,34304
2796,34304
2797,34368
2798,34368
2799,34304
2800,34176
2801,34176
2802,34240
2803,34176
2804,34112
2805,34112
2806,34112
2807,34176
2808,34176
2809,34240
2810,34304
2811,34304
2812,34304
2813,34240
2814,34240
2815,34240
2816,34176
2817,34176
2818,34176
2819,34176
2820,34176
2821,34176
2822,34304
2823,34432
2824,34432
2825,34240
2826,33984
2827,34048
2828,34112
2829,34112
2830,33920
2831,33600
2832,33536
2833,33856
2834,34112
2835,34240
2836,34368
2837,34368
2838,34432
2839,34496
2840,34688
2841,34880
2842,35008
2843,35008
2844,34880
2845,34752
2846,34752
2847,34944
2848,35200
2849,35328
2850,35328
2851,35264
2852,35264
2853,35328
2854,35392
2855,35392
2856,35392
2857,35264
2858,35008
2859,34816
2860,34752
2861,34816
2862,34880
2863,34880
2864,35072
2865,35264
2866,35392
2867,35328
2868,35072
2869,34752
2870,34432
2871,34048
2872,33792
2873,33600
2874,33536
2875,33408
2876,33408
2877,33600
2878,33792
2879,34048
2880,34560
2881,35392
2882,36544
2883,37952
2884,39488
2885,40640
2886,40576
2887,39040
2888,36736
2889,34432
2890,32576
2891,31360
2892,30656
2893,30336
2894,30400
2895,30464
2896,30528
2897,30656
2898,30912
2899,31040
2900,31168
2901,31360
2902,31680
2903,31936
2904,32192
2905,32512
2906,32896
2907,33216
2908,33536
2909,33792
2910,34048
2911,34304
2912,34432
2913,34432
2914,34496
2915,34560
2916,34560
2917,34496
2918,34432
2919,34432
2920,34432
2921,34368
2922,34368
2923,34432
2924,34432
2925,34304
2926,34176
2927,34176
2928,34176
2929,34112
2930,34112
2931,34176
2932,34176
2933,34112
2934,34176
2935,34240
2936,34368
2937,34432
2938,34496
2939,34624
2940,34816
2941,34944
2942,34944
2943,34880
2944,34944
2945,34944
2946,34944
2947,34880
2948,34944
2949,34880
2950,34816
2951,34880
2952,34944
2953,34944
2954,34944
2955,34944
2956,34816
2957,34688
2958,34560
2959,34496
2960,34432
2961,34368
2962,34304
2963,34176
2964,34048
2965,33984
2966,33920
2967,33856
2968,33856
2969,33920
2970,33792
2971,33920
2972,34112
2973,34304
2974,34368
2975,34304
2976,34240
2977,34240
2978,34304
2979,34368
2980,34432
2981,34496
2982,34496
2983,34368
2984,34176
2985,34112
2986,34176
2987,34176
2988,34240
2989,34368
2990,34496
2991,34560
2992,34624
2993,34624
2994,34688
2995,34688
2996,34624
2997,34624
2998,34624
2999,34624
3000,34624
3001,34624
3002,34688
3003,34624
3004,34496
3005,34432
3006,34496
3007,34432
3008,34304
3009,34240
3010,34240
3011,34240
3012,34240
3013,34240
3014,34304
3015,34432
3016,34432
3017,34432
3018,34368
3019,34496
3020,34560
3021,34496
3022,34496
3023,34560
3024,34560
3025,34496
3026,34496
3027,34560
3028,34624
3029,34624
3030,34560
3031,34624
3032,34560
3033,34496
3034,34560
3035,34688
3036,34688
3037,34560
3038,34304
3039,34304
3040,34368
3041,34432
3042,34432
3043,34368
3044,34368
3045,34496
3046,34560
3047,34688
3048,34752
3049,34816
3050,34816
3051,34880
3052,34944
3053,34880
3054,34752
3055,34688
3056,34496
3057,34240
3058,33920
3059,33792
3060,33728
3061,33792
3062,33856
3063,33856
3064,33792
3065,33856
3066,33792
3067,33664
3068,33664
3069,33728
3070,33728
3071,33664
3072,33728
3073,33792
3074,33728
3075,33664
3076,33664
3077,33856
3078,34240
3079,34880
3080,35776
3081,37056
3082,38592
3083,40256
3084,41344
3085,41344
3086,40064
3087,37952
3088,35776
3089,34112
3090,32832
3091,31936
3092,31552
3093,31680
3094,32000
3095,31872
3096,32064
3097,32576
3098,32960
3099,32768
3100,33024
3101,33152
3102,33216
3103,33408
3104,33536
3105,33664
3106,33792
3107,33920
3108,33984
3109,33984
3110,33984
3111,33920
3112,33856
3113,33728
3114,33792
3115,33920
3116,33984
3117,33984
3118,34112
3119,33984
3120,33856
3121,33664
3122,33728
3123,33920
3124,34048
3125,33920
3126,33984
3127,34112
3128,34176
3129,34240
3130,34304
3131,34368
3132,34496
3133,34432
3134,34304
3135,34368
3136,34496
3137,34496
3138,34304
3139,34112
3140,34112
3141,34112
3142,34048
3143,34112
3144,34368
3145,34432
3146,34304
3147,34176
3148,34304
3149,34496
3150,34496
3151,34496
3152,34432
3153,34496
3154,34432
3155,34304
3156,34176
3157,34176
3158,34112
3159,34048
3160,33984
3161,33920
3162,33856
3163,33728
3164,33600
3165,33472
3166,33344
3167,33280
3168,33280
3169,33344
3170,33408
3171,33408
3172,33408
3173,33408
3174,33408
3175,33472
3176,33536
3177,33600
3178,33728
3179,33728
3180,33664
3181,33536
3182,33536
3183,33536
3184,33664
3185,33792
3186,33920
3187,33984
3188,34112
3189,34176
3190,34240
3191,34240
3192,34176
3193,34112
3194,34112
3195,34048
3196,33984
3197,33920
3198,33856
3199,33728
3200,33728
3201,33664
3202,33664
3203,33600
3204,33536
3205,33408
3206,33408
3207,33408
3208,33344
3209,33280
3210,33344
3211,33472
3212,33472
3213,33408
3214,33344
3215,33344
3216,33344
3217,33280
3218,33344
3219,33472
3220,33536
3221,33600
3222,33600
3223,33664
3224,33728
3225,33664
3226,33600
3227,33536
3228,33536
3229,33536
3230,33600
3231,33792
3232,33984
3233,34112
3234,34240
3235,34368
3236,34496
3237,34688
3238,34752
3239,34816
3240,34816
3241,34880
3242,34880
3243,34880
3244,34816
3245,34688
3246,34496
3247,34304
3248,34112
3249,33856
3250,33472
3251,33280
3252,33152
3253,33152
3254,33152
3255,33152
3256,33216
3257,33280
3258,33408
3259,33472
3260,33536
3261,33664
3262,33664
3263,33664
3264,33664
3265,33792
3266,33792
3267,33856
3268,33984
3269,34304
3270,34880
3271,35520
3272,36544
3273,37824
3274,39424
3275,40832
3276,41280
3277,40256
3278,38336
3279,36096
3280,34048
3281,32704
3282,31936
3283,31616
3284,31552
3285,31616
3286,31744
3287,31936
3288,32128
3289,32384
3290,32640
3291,32832
3292,32960
3293,33024
3294,33216
3295,33408
3296,33600
3297,33600
3298,33664
3299,33728
3300,33728
3301,33792
3302,33856
3303,33920
3304,33920
3305,33856
3306,33920
3307,33984
3308,34048
3309,34048
3310,34048
3311,33984
3312,33984
3313,33984
3314,34048
3315,34048
3316,33984
3317,33984
3318,34048
3319,34176
3320,34304
3321,34240
3322,34176
3323,34176
3324,34240
3325,34176
3326,34240
3327,34304
3328,34368
3329,34368
3330,34368
3331,34432
3332,34560
3333,34624
3334,34688
3335,34816
3336,34880
3337,34944
3338,34944
3339,35008
3340,35072
3341,35072
3342,34944
3343,34880
3344,34880
3345,34880
3346,34816
3347,34624
3348,34432
3349,34240
3350,34112
3351,33920
3352,33856
3353,33792
3354,33728
3355,33664
3356,33664
3357,33728
3358,33728
3359,33792
3360,33920
3361,34048
3362,33984
3363,33920
3364,33920
3365,33984
3366,34048
3367,34048
3368,34176
3369,34304
3370,34368
3371,34368
3372,34368
3373,34368
3374,34304
3375,34240
3376,34240
3377,34304
3378,34240
3379,34176
3380,34112
3381,34048
3382,34112
3383,34112
3384,34176
3385,34240
3386,34368
3387,34432
3388,34368
3389,34304
3390,34304
3391,34240
3392,34240
3393,34240
3394,34304
3395,34304
3396,34304
3397,34304
3398,34240
3399,34240
3400,34176
3401,34112
3402,34112
3403,34112
3404,34112
3405,34048
3406,34048
3407,34112
3408,34048
3409,34112
3410,34176
3411,34176
3412,34112
3413,33984
3414,33984
3415,34048
3416,34112
3417,34112
3418,34112
3419,34176
3420,34240
3421,34176
3422,34176
3423,34240
3424,34304
3425,34432
3426,34496
3427,34624
3428,34624
3429,34560
3430,34560
3431,34688
3432,34816
3433,34880
3434,34816
3435,34880
3436,34944
3437,35008
3438,35008
3439,35008
3440,34944
3441,34816
3442,34496
3443,34240
3444,34048
3445,33920
3446,33856
3447,33728
3448,33728
3449,33728
3450,33728
3451,33728
3452,33792
3453,33856
3454,33920
3455,33920
3456,34048
3457,34112
3458,34048
3459,34048
3460,33984
3461,33984
3462,33920
3463,34048
3464,34496
3465,35072
3466,36032
3467,37184
3468,38720
3469,40256
3470,41344
3471,41216
3472,39680
3473,37568
3474,35456
3475,33728
3476,32512
3477,31936
3478,31808
3479,31872
3480,32064
3481,32256
3482,32512
3483,32704
3484,32896
3485,33152
3486,33408
3487,33536
3488,33600
3489,33664
3490,33728
3491,33728
3492,33792
3493,33856
3494,33920
3495,33920
3496,33920
3497,34048
3498,34112
3499,34112
3500,34112
3501,34176
3502,34176
3503,34176
3504,34112
3505,34048
3506,34048
3507,34048
3508,34112
3509,34176
3510,34176
3511,34240
3512,34304
3513,34368
3514,34496
3515,34560
3516,34560
3517,34624
3518,34688
3519,34688
3520,34688
3521,34688
3522,34688
3523,34752
3524,34688
3525,34688
3526,34752
3527,34816
3528,34816
3529,34752
3530,34752
3531,34816
3532,34880
3533,34944
3534,34944
3535,34944
3536,34816
3537,34624
3538,34560
3539,34496
3540,34496
3541,34368
3542,34304
3543,34240
3544,34176
3545,34048
3546,33984
3547,33920
3548,33920
3549,33920
3550,33920
3551,33856
3552,34048
3553,34048
3554,34048
3555,33984
3556,33984
3557,33920
3558,33984
3559,33984
3560,34048
3561,34112
3562,34048
3563,34048
3564,34176
3565,34240
3566,34176
3567,34368
3568,34432
3569,34432
3570,34368
3571,34368
3572,34368
3573,34432
3574,34368
3575,34176
3576,34112
3577,34112
3578,34048
3579,34048
3580,34176
3581,34304
3582,34368
3583,34432
3584,34432
3585,34496
3586,34560
3587,34496
3588,34496
3589,34624
3590,34688
3591,34624
3592,34560
3593,34496
3594,34432
3595,34304
3596,34176
3597,34112
3598,34112
3599,34112
3600,34048
3601,34048
3602,33984
3603,34048
3604,33984
3605,33984
3606,34112
3607,34176
3608,34176
3609,34112
3610,34176
3611,34240
3612,34176
3613,34176
3614,34368
3615,34496
3616,34624
3617,34560
3618,34688
3619,34688
3620,34688
3621,34752
3622,34816
3623,34816
3624,34752
3625,34752
3626,34688
3627,34880
3628,34944
3629,34880
3630,34688
3631,34496
3632,34240
3633,33984
3634,33792
3635,33792
3636,33728
3637,33664
3638,33664
3639,33728
3640,33792
3641,33792
3642,33792
3643,33856
3644,33856
3645,33920
3646,33920
3647,33920
3648,33984
3649,33984
3650,33920
3651,33984
3652,34240
3653,34688
3654,35392
3655,36608
3656,36800
3657,39168
3658,40576
3659,41280
3660,40704
3661,38912
3662,36736
3663,34752
3664,33280
3665,32384
3666,32000
3667,31872
3668,31936
3669,32128
3670,32384
3671,32384
3672,32832
3673,33088
3674,33280
3675,33344
3676,33472
3677,33600
3678,33664
3679,33728
3680,33792
3681,33920
3682,33984
3683,33984
3684,34048
3685,34176
3686,34240
3687,34112
3688,34048
3689,33984
3690,33984
3691,33920
3692,33920
3693,33984
3694,34112
3695,34112
3696,34048
3697,34048
3698,34112
3699,34112
3700,34176
3701,34176
3702,34368
3703,34432
3704,34432
3705,34432
3706,34496
3707,34496
3708,34432
3709,34368
3710,34496
3711,34624
3712,34688
3713,34688
3714,34688
3715,34688
3716,34688
3717,34688
3718,34688
3719,34688
3720,34688
3721,34752
3722,34752
3723,34816
3724,34816
3725,34752
3726,34752
3727,34752
3728,34688
3729,34560
3730,34496
3731,34432
3732,34368
3733,34240
3734,34176
3735,34112
3736,34048
3737,33984
3738,33920
3739,33920
3740,33984
3741,33920
3742,33856
3743,33920
3744,33984
3745,33920
3746,33856
3747,33792
3748,33792
3749,33856
3750,33856
3751,33920
3752,33984
3753,33984
3754,33984
3755,34048
3756,34112
3757,34176
3758,34176
3759,34240
3760,34304
3761,34304
3762,34304
3763,34240
3764,34240
3765,34304
3766,34240
3767,34176
3768,34176
3769,34240
3770,34240
3771,34176
3772,34240
3773,34368
3774,34368
3775,34240
3776,34176
3777,34176
3778,34176
3779,34112
3780,34112
3781,34176
3782,34176
3783,34112
3784,34048
3785,34048
3786,34048
3787,33920
3788,33920
3789,33920
3790,33984
3791,33920
3792,33920
3793,34048
3794,34112
3795,34176
3796,34176
3797,34240
3798,34304
3799,34240
3800,34176
3801,34048
3802,34112
3803,34176
3804,34176
3805,34240
3806,34176
3807,34304
3808,34368
3809,34368
3810,34432
3811,34496
3812,34496
3813,34560
3814,34688
3815,34816
3816,34816
3817,34880
3818,34944
3819,35072
3820,35136
3821,35136
3822,35200
3823,35264
3824,35200
3825,35008
3826,34816
3827,34560
3828,34176
3829,33728
3830,33408
3831,33216
3832,33216
3833,33216
3834,33280
3835,33408
3836,33536
3837,33600
3838,33664
3839,33792
3840,33856
3841,33920
3842,33920
3843,33920
3844,33920
3845,33920
3846,33856
3847,33856
3848,33920
3849,34240
3850,34688
3851,35392
3852,36544
3853,37952
3854,39488
3855,40832
3856,41408
3857,40384
3858,38528
3859,36288
3860,34368
3861,32960
3862,32128
3863,31808
3864,31808
3865,32064
3866,32064
3867,32320
3868,32576
3869,32768
3870,33024
3871,33152
3872,33280
3873,33472
3874,33600
3875,33600
3876,33664
3877,33728
3878,33856
3879,33856
3880,33856
3881,33856
3882,33856
3883,33856
3884,33792
3885,33792
3886,33856
3887,33920
3888,33856
3889,33856
3890,33792
3891,33792
3892,33792
3893,33792
3894,33920
3895,33984
3896,34048
3897,34176
3898,34240
3899,34368
3900,34368
3901,34368
3902,34432
3903,34432
3904,34432
3905,34432
3906,34432
3907,34496
3908,34496
3909,34560
3910,34688
3911,34688
3912,34816
3913,34752
3914,34752
3915,34816
3916,34880
3917,34880
3918,34880
3919,34880
3920,34752
3921,34560
3922,34432
3923,34432
3924,34432
3925,34368
3926,34304
3927,34240
3928,34176
3929,34048
3930,33984
3931,33984
3932,33984
3933,33920
3934,33856
3935,33792
3936,33792
3937,33728
3938,33728
3939,33728
3940,33792
3941,33728
3942,33728
3943,33728
3944,33728
3945,33664
3946,33664
3947,33664
3948,33728
3949,33856
3950,33856
3951,33920
3952,33984
3953,33984
3954,33984
3955,33984
3956,34048
3957,34112
3958,34176
3959,34176
3960,34240
3961,34304
3962,34240
3963,34176
3964,34176
3965,34176
3966,34240
3967,34304
3968,34368
3969,34304
3970,34176
3971,34112
3972,34048
3973,34112
3974,34176
3975,34176
3976,34240
3977,34368
3978,34368
3979,34240
3980,34176
3981,34176
3982,34240
3983,34304
3984,34368
3985,34560
3986,34496
3987,34688
3988,34752
3989,34816
3990,34944
3991,35072
3992,35072
3993,35072
3994,35008
3995,34880
3996,34752
3997,34752
3998,34880
3999,34880
4000,34752
4001,34624
4002,34432
4003,34176
4004,33984
4005,33792
4006,33792
4007,33728
4008,33728
4009,33792
4010,33792
4011,33856
4012,33856
4013,33856
4014,33920
4015,34048
4016,34112
4017,34112
4018,34176
4019,34176
4020,34048
4021,33984
4022,33984
4023,34112
4024,34496
4025,35136
4026,36096
4027,37440
4028,39040
4029,40448
4030,41088
4031,40896
4032,38976
4033,36864
4034,34944
4035,33408
4036,32512
4037,32000
4038,31808
4039,31872
4040,32064
4041,32256
4042,32448
4043,32640
4044,32832
4045,33088
4046,33216
4047,33344
4048,33536
4049,33664
4050,33728
4051,33792
4052,33856
4053,33920
4054,33920
4055,33920
4056,33856
4057,33792
4058,33792
4059,33792
4060,33856
4061,33920
4062,33920
4063,33920
4064,34048
4065,34112
4066,34048
4067,33984
4068,33984
4069,33984
4070,33984
4071,33920
4072,33920
4073,33984
4074,34112
4075,34176
4076,34176
4077,34304
4078,34368
4079,34432
4080,34496
4081,34624
4082,34688
4083,34752
4084,34752
4085,34752
4086,34816
4087,34752
4088,34752
4089,34816
4090,34880
4091,34944
4092,34880
4093,34816
4094,34816
4095,34816
4096,34688
4097,34624
4098,34560
4099,34496
4100,34368
4101,34240
4102,34240
4103,34112
4104,33984
4105,33920
4106,33856
4107,33856
4108,33792
4109,33792
4110,33856
4111,33856
4112,33856
4113,33792
4114,33856
4115,33984
4116,34048
4117,34048
4118,34048
4119,34176
4120,34240
4121,34176
4122,34176
4123,34176
4124,34176
4125,34240
4126,34304
4127,34368
4128,34368
4129,34304
4130,34240
4131,34304
4132,34368
4133,34432
4134,34432
4135,34496
4136,34432
4137,34304
4138,34176
4139,34176
4140,34240
4141,34304
4142,34176
4143,34176
4144,34176
4145,34176
4146,34112
4147,34112
4148,34176
4149,34176
4150,34240
4151,34176
4152,34240
4153,34304
4154,34304
4155,34368
4156,34496
4157,34688
4158,34816
4159,34880
4160,34880
4161,34880
4162,34880
4163,34880
4164,34944
4165,35072
4166,35072
4167,35008
4168,35008
4169,35008
4170,35008
4171,34816
4172,34496
4173,34304
4174,34048
4175,33920
4176,33856
4177,33792
4178,33728
4179,33600
4180,33600
4181,33600
4182,33728
4183,33792
4184,33856
4185,34048
4186,34240
4187,34432
4188,34496
4189,34496
4190,34432
4191,34304
4192,34112
4193,33984
4194,34240
4195,35008
4196,35072
4197,36288
4198,37568
4199,39040
4200,40384
4201,41088
4202,40448
4203,38720
4204,36544
4205,34560
4206,33088
4207,32192
4208,31744
4209,31616
4210,31616
4211,31616
4212,31744
4213,31872
4214,32128
4215,32384
4216,32576
4217,32768
4218,32896
4219,33152
4220,33344
4221,33408
4222,33472
4223,33600
4224,33664
4225,33792
4226,33792
4227,33984
4228,34112
4229,34176
4230,34176
4231,34304
4232,34368
4233,34432
4234,34432
4235,34432
4236,34496
4237,34496
4238,34560
4239,34560
4240,34560
4241,34496
4242,34432
4243,34368
4244,34432
4245,34368
4246,34304
4247,34240
4248,34176
4249,34176
4250,34176
4251,34176
4252,34176
4253,34176
4254,34176
4255,34240
4256,34240
4257,34368
4258,34432
4259,34496
4260,34624
4261,34752
4262,34752
4263,34752
4264,34688
4265,34688
4266,34752
4267,34752
4268,34688
4269,34688
4270,34624
4271,34560
4272,34432
4273,34432
4274,34432
4275,34304
4276,34112
4277,33984
4278,33920
4279,33920
4280,33856
4281,33856
4282,33920
4283,33920
4284,33920
4285,33920
4286,33920
4287,33920
4288,33856
4289,33856
4290,33920
4291,33920
4292,33920
4293,33856
4294,33856
4295,33920
4296,33920
4297,33920
4298,34048
4299,34112
4300,34112
4301,34112
4302,34176
4303,34240
4304,34304
4305,34240
4306,34176
4307,34240
4308,34240
4309,34176
4310,34240
4311,34240
4312,34176
4313,34112
4314,34112
4315,34112
4316,34112
4317,34048
4318,34112
4319,34176
4320,34176
4321,34112
4322,34048
4323,34048
4324,34112
4325,34112
4326,34048
4327,34112
4328,34176
4329,34112
4330,34176
4331,34240
4332,34304
4333,34368
4334,34432
4335,34496
4336,34560
4337,34560
4338,34560
4339,34560
4340,34752
4341,34816
4342,34880
4343,34880
4344,34944
4345,35008
4346,34944
4347,34880
4348,34816
4349,34688
4350,34432
4351,34176
4352,33920
4353,33792
4354,33664
4355,33600
4356,33600
4357,33664
4358,33664
4359,33664
4360,33728
4361,33856
4362,33920
4363,33920
4364,33920
4365,33984
4366,33984
4367,33920
4368,33920
4369,33920
4370,33920
4371,33984
4372,34368
4373,35072
4374,35968
4375,37056
4376,38400
4377,39872
4378,41024
4379,41088
4380,39744
4381,37696
4382,35520
4383,33792
4384,32512
4385,31936
4386,31808
4387,31808
4388,31872
4389,32064
4390,32320
4391,32640
4392,32768
4393,32960
4394,33152
4395,33408
4396,33536
4397,33600
4398,33600
4399,33664
4400,33664
4401,33664
4402,33856
4403,34048
4404,34112
4405,33984
4406,33728
4407,33600
4408,33536
4409,33536
4410,33600
4411,33728
4412,33728
4413,33792
4414,33856
4415,33920
4416,33984
4417,34048
4418,34112
4419,34176
4420,34368
4421,34432
4422,34432
4423,34496
4424,34560
4425,34496
4426,34432
4427,34496
4428,34560
4429,34688
4430,34752
4431,34688
4432,34624
4433,34496
4434,34496
4435,34560
4436,34560
4437,34624
4438,34688
4439,34624
4440,34624
4441,34624
4442,34688
4443,34688
4444,34752
4445,34816
4446,34816
4447,34688
4448,34624
4449,34624
4450,34496
4451,34368
4452,34304
4453,34240
4454,34112
4455,33984
4456,33920
4457,33792
4458,33728
4459,33664
4460,33600
4461,33664
4462,33664
4463,33728
4464,33728
4465,33856
4466,33920
4467,33984
4468,33984
4469,34112
4470,34176
4471,34112
4472,34048
4473,34112
4474,34112
4475,34112
4476,34112
4477,34176
4478,34176
4479,34112
4480,34048
4481,33984
4482,33984
4483,33856
4484,33792
4485,33792
4486,33856
4487,33920
4488,33920
4489,33984
4490,33984
4491,34112
4492,34112
4493,34112
4494,34240
4495,34368
4496,34240
4497,34176
4498,34112
4499,34176
4500,34176
4501,34176
4502,34176
4503,34112
4504,34112
4505,33984
4506,33984
4507,34048
4508,34112
4509,34112
4510,34176
4511,34240
4512,34240
4513,34240
4514,34176
4515,34176
4516,34240
4517,34176
4518,34176
4519,34240
4520,34432
4521,34560
4522,34624
4523,34624
4524,34560
4525,34496
4526,34496
4527,34624
4528,34752
4529,34816
4530,34816
4531,34880
4532,34944
4533,34944
4534,34816
4535,34752
4536,34560
4537,34304
4538,33984
4539,33792
4540,33664
4541,33600
4542,33536
4543,33600
4544,33664
4545,33792
4546,33856
4547,33856
4548,33920
4549,33984
4550,33920
4551,33920
4552,33920
4553,33984
4554,33920
4555,33856
4556,33856
4557,33920
4558,34112
4559,34496
4560,35136
4561,36160
4562,37504
4563,38976
4564,40448
4565,41408
4566,41088
4567,39424
4568,37120
4569,35072
4570,33472
4571,32512
4572,32000
4573,31936
4574,32000
4575,32128
4576,32320
4577,32512
4578,32704
4579,32896
4580,33024
4581,33152
4582,33280
4583,33344
4584,33280
4585,33344
4586,33408
4587,33472
4588,33472
4589,33536
4590,33600
4591,33664
4592,33664
4593,33664
4594,33664
4595,33728
4596,33792
4597,33856
4598,33920
4599,33920
4600,33920
4601,33984
4602,34048
4603,34048
4604,33984
4605,33984
4606,33984
4607,34048
4608,34112
4609,34048
4610,34048
4611,34176
4612,34240
4613,34240
4614,34304
4615,34432
4616,34496
4617,34496
4618,34432
4619,34496
4620,34496
4621,34560
4622,34560
4623,34624
4624,34624
4625,34624
4626,34560
4627,34624
4628,34688
4629,34688
4630,34624
4631,34560
4632,34560
4633,34496
4634,34496
4635,34496
4636,34560
4637,34368
4638,34176
4639,34048
4640,33984
4641,33920
4642,33792
4643,33728
4644,33728
4645,33728
4646,33728
4647,33664
4648,33728
4649,33792
4650,33728
4651,33728
4652,33792
4653,33920
4654,33984
4655,33984
4656,34048
4657,34112
4658,34112
4659,34112
4660,34112
4661,34176
4662,34176
4663,34176
4664,34112
4665,34176
4666,34240
4667,34176
4668,34112
4669,34112
4670,34176
4671,34176
4672,34112
4673,33984
4674,33984
4675,33984
4676,33984
4677,34048
4678,33984
4679,33984
4680,33920
4681,33920
4682,33920
4683,33920
4684,33984
4685,34048
4686,34176
4687,34240
4688,34240
4689,34240
4690,34176
4691,34176
4692,34176
4693,34176
4694,34176
4695,34240
4696,34176
4697,34112
4698,34112
4699,34112
4700,34048
4701,33984
4702,33984
4703,34112
4704,34176
4705,34240
4706,34304
4707,34432
4708,34560
4709,34560
4710,34496
4711,34560
4712,34624
4713,34688
4714,34688
4715,34752
4716,34752
4717,34816
4718,34816
4719,34880
4720,34816
4721,34624
4722,34304
4723,33984
4724,33728
4725,33536
4726,33472
4727,33472
4728,33600
4729,33600
4730,33600
4731,33600
4732,33600
4733,33664
4734,33664
4735,33664
4736,33792
4737,33792
4738,33856
4739,33920
4740,33984
4741,33984
4742,33984
4743,34048
4744,34304
4745,34816
4746,35456
4747,36352
4748,37696
4749,39296
4750,40640
4751,41152
4752,40384
4753,38592
4754,36544
4755,34624
4756,33152
4757,32256
4758,31744
4759,31616
4760,31680
4761,31872
4762,32064
4763,32256
4764,32448
4765,32704
4766,32896
4767,33024
4768,33088
4769,33280
4770,33408
4771,33472
4772,33472
4773,33600
4774,33664
4775,33728
4776,33792
4777,33792
4778,33920
4779,33984
4780,33984
4781,34048
4782,34112
4783,34176
4784,34112
4785,34112
4786,34112
4787,34176
4788,34112
4789,34112
4790,34112
4791,34112
4792,34176
4793,34176
4794,34240
4795,34240
4796,34304
4797,34240
4798,34304
4799,34304
4800,34240
4801,34240
4802,34240
4803,34368
4804,34432
4805,34432
4806,34368
4807,34432
4808,34432
4809,34560
4810,34624
4811,34688
4812,34688
4813,34624
4814,34624
4815,34624
4816,34624
4817,34560
4818,34560
4819,34624
4820,34688
4821,34624
4822,34560
4823,34368
4824,34240
4825,34176
4826,34112
4827,34048
4828,34048
4829,33984
4830,33920
4831,33920
4832,33984
4833,34048
4834,34048
4835,33984
4836,33984
4837,33984
4838,34048
4839,34112
4840,34176
4841,34176
4842,34112
4843,34048
4844,34048
4845,34112
4846,34112
4847,34112
4848,34112
4849,34176
4850,34112
4851,34112
4852,34048
4853,34112
4854,34176
4855,34240
4856,34368
4857,34368
4858,34368
4859,34432
4860,34432
4861,34368
4862,34368
4863,34304
4864,34240
4865,34176
4866,34112
4867,34048
4868,34048
4869,34048
4870,34048
4871,34048
4872,34048
4873,34112
4874,34240
4875,34304
4876,34240
4877,34112
4878,33984
4879,34048
4880,34112
4881,34112
4882,34176
4883,34176
4884,34176
4885,34048
4886,33984
4887,33984
4888,33984
4889,33920
4890,33984
4891,33984
4892,33984
4893,33984
4894,34048
4895,34112
4896,34176
4897,34176
4898,34368
4899,34496
4900,34624
4901,34624
4902,34752
4903,34880
4904,35008
4905,35008
4906,35008
4907,35072
4908,35072
4909,35008
4910,35072
4911,35136
4912,35008
4913,34752
4914,34496
4915,34240
4916,33984
4917,33728
4918,33472
4919,33408
4920,33472
4921,33472
4922,33472
4923,33536
4924,33664
4925,33728
4926,33728
4927,33792
4928,33856
4929,33856
4930,33856
4931,33920
4932,33920
4933,33920
4934,33920
4935,33984
4936,34368
4937,34944
4938,35776
4939,36864
4940,38336
4941,39936
4942,41152
4943,41344
4944,40128
4945,38144
4946,35968
4947,34048
4948,32768
4949,32128
4950,31872
4951,31808
4952,31872
4953,32064
4954,32320
4955,32512
4956,32704
4957,32960
4958,33088
4959,33088
4960,33152
4961,33216
4962,33344
4963,33472
4964,33536
4965,33664
4966,33728
4967,33728
4968,33664
4969,33728
4970,33792
4971,33792
4972,33728
4973,33728
4974,33728
4975,33792
4976,33792
4977,33920
4978,33984
4979,34048
4980,33984
4981,33984
4982,34048
4983,34112
4984,34112
4985,34112
4986,34240
4987,34304
4988,34368
4989,34368
4990,34368
4991,34432
4992,34432
4993,34304
4994,34304
4995,34432
4996,34432
4997,34432
4998,34432
4999,34560
5000,34624
5001,34624
5002,34624
5003,34688
5004,34752
5005,34688
5006,34688
5007,34752
5008,34752
5009,34688
5010,34624
5011,34624
5012,34560
5013,34432
5014,34304
5015,34304
5016,34304
5017,34240
5018,34048
5019,33792
5020,33728
5021,33664
5022,33536
5023,33472
5024,33600
5025,33728
5026,33856
5027,33920
5028,33920
5029,33984
5030,33984
5031,33984
5032,34112
5033,34176
5034,34176
5035,34048
5036,33984
5037,34112
5038,34176
5039,34240
5040,34432
5041,34496
5042,34368
5043,34176
5044,34048
5045,33984
5046,33856
5047,33856
5048,33856
5049,33984
5050,33984
5051,33984
5052,34048
5053,34112
5054,34112
5055,34112
5056,34176
5057,34304
5058,34432
5059,34496
5060,34560
5061,34688
5062,34624
5063,34560
5064,34496
5065,34432
5066,34432
5067,34368
5068,34240
5069,34240
5070,34176
5071,34112
5072,33984
5073,33920
5074,34048
5075,34048
5076,33984
5077,33984
5078,33984
5079,34048
5080,34048
5081,34048
5082,34112
5083,34240
5084,34304
5085,34432
5086,34496
5087,34496
5088,34624
5089,34688
5090,34624
5091,34560
5092,34496
5093,34496
5094,34624
5095,34752
5096,34880
5097,34880
5098,34944
5099,34880
5100,34816
5101,34816
5102,34880
5103,34752
5104,34496
5105,34240
5106,34048
5107,33856
5108,33728
5109,33664
5110,33600
5111,33600
5112,33728
5113,33856
5114,33856
5115,33856
5116,33728
5117,33664
5118,33664
5119,33664
5120,33728
5121,33856
5122,33920
5123,33920
5124,33920
5125,33984
5126,34112
5127,34624
5128,35392
5129,36480
5130,37760
5131,39296
5132,40768
5133,41408
5134,40640
5135,38784
5136,36608
5137,34560
5138,33088
5139,32128
5140,31680
5141,31680
5142,31744
5143,31872
5144,32128
5145,32384
5146,32576
5147,32768
5148,32960
5149,33152
5150,33280
5151,33344
5152,33472
5153,33600
5154,33664
5155,33728
5156,33792
5157,33856
5158,33792
5159,33728
5160,33600
5161,33600
5162,33600
5163,33600
5164,33664
5165,33792
5166,33920
5167,33984
5168,33984
5169,34048
5170,34048
5171,34048
5172,33984
5173,34048
5174,34176
5175,34240
5176,34240
5177,34304
5178,34432
5179,34432
5180,34496
5181,34496
5182,34560
5183,34560
5184,34560
5185,34496
5186,34496
5187,34560
5188,34560
5189,34624
5190,34688
5191,34752
5192,34752
5193,34688
5194,34688
5195,34688
5196,34688
5197,34752
5198,34688
5199,34752
5200,34624
5201,34496
5202,34496
5203,34496
5204,34496
5205,34368
5206,34304
5207,34304
5208,34304
5209,34176
5210,33984
5211,33792
5212,33728
5213,33664
5214,33728
5215,33856
5216,33856
5217,33792
5218,33728
5219,33728
5220,33856
5221,33856
5222,33856
5223,33920
5224,34048
5225,34112
5226,34176
5227,34240
5228,34304
5229,34304
5230,34240
5231,34176
5232,34176
5233,34176
5234,34176
5235,34240
5236,34240
5237,34176
5238,34112
5239,34048
5240,34112
5241,34176
5242,34176
5243,34112
5244,34112
5245,34112
5246,34112
5247,34176
5248,34240
5249,34368
5250,34304
5251,34112
5252,34112
5253,34176
5254,34176
5255,34112
5256,34112
5257,34176
5258,34176
5259,34112
5260,34048
5261,33984
5262,33984
5263,33984
5264,34048
5265,34048
5266,33984
5267,33984
5268,34112
5269,34176
5270,34240
5271,34112
5272,34048
5273,34048
5274,34048
5275,33984
5276,33984
5277,34048
5278,34112
5279,34176
5280,34176
5281,34176
5282,34176
5283,34240
5284,34368
5285,34368
5286,34496
5287,34624
5288,34688
5289,34752
5290,34880
5291,35008
5292,35008
5293,35008
5294,34816
5295,34752
5296,34688
5297,34688
5298,34624
5299,34560
5300,34368
5301,34048
5302,33856
5303,33728
5304,33664
5305,33600
5306,33600
5307,33792
5308,34048
5309,34112
5310,34112
5311,34048
5312,33856
5313,33664
5314,33600
5315,33664
5316,33728
5317,33728
5318,33728
5319,33728
5320,33792
5321,33920
5322,34304
5323,35008
5324,35968
5325,37248
5326,38912
5327,39040
5328,41344
5329,40960
5330,39232
5331,37120
5332,35136
5333,33536
5334,32512
5335,32000
5336,31744
5337,31744
5338,31872
5339,32128
5340,32320
5341,32512
5342,32576
5343,32576
5344,32768
5345,32896
5346,33088
5347,33344
5348,33472
5349,33536
5350,33600
5351,33728
5352,33920
5353,33984
5354,33920
5355,33920
5356,33920
5357,33856
5358,33792
5359,33856
5360,33920
5361,33792
5362,33664
5363,33600
5364,33664
5365,33856
5366,33792
5367,33920
5368,33920
5369,34048
5370,34112
5371,34176
5372,34176
5373,34240
5374,34304
5375,34368
5376,34432
5377,34624
5378,34752
5379,34816
5380,34688
5381,34624
5382,34688
5383,34688
5384,34752
5385,34880
5386,35008
5387,35008
5388,35072
5389,35136
5390,35328
5391,35328
5392,35136
5393,35072
5394,35072
5395,35008
5396,34880
5397,34752
5398,34624
5399,34432
5400,34240
5401,34048
5402,33856
5403,33728
5404,33600
5405,33472
5406,33472
5407,33472
5408,33472
5409,33472
5410,33536
5411,33600
5412,33664
5413,33600
5414,33536
5415,33536
5416,33472
5417,33408
5418,33472
5419,33600
5420,33664
5421,33664
5422,33792
5423,33920
5424,34048
5425,34048
5426,33984
5427,34048
5428,34176
5429,34240
5430,34240
5431,34304
5432,34304
5433,34240
5434,34240
5435,34240
5436,34176
5437,34112
5438,34112
5439,34112
5440,34112
5441,34048
5442,33920
5443,33920
5444,34048
5445,34112
5446,34048
5447,33920
5448,33920
5449,33984
5450,34112
5451,34176
5452,34240
5453,34304
5454,34304
5455,34240
5456,34176
5457,34176
5458,34240
5459,34240
5460,34240
5461,34176
5462,34112
5463,34048
5464,33984
5465,34048
5466,34048
5467,33984
5468,34048
5469,34112
5470,34176
5471,34112
5472,34112
5473,34176
5474,34176
5475,34112
5476,34048
5477,33984
5478,34048
5479,34112
5480,34176
5481,34304
5482,34432
5483,34432
5484,34368
5485,34496
5486,34688
5487,34816
5488,34880
5489,34944
5490,34944
5491,34944
5492,34944
5493,35008
5494,35072
5495,34880
5496,34560
5497,34240
5498,33984
5499,33728
5500,33600
5501,33536
5502,33536
5503,33600
5504,33664
5505,33728
5506,33920
5507,33984
5508,33984
5509,33920
5510,33856
5511,33920
5512,33920
5513,33920
5514,33984
5515,34048
5516,33984
5517,33984
5518,34304
5519,34880
5520,35648
5521,36608
5522,37888
5523,39424
5524,40704
5525,41152
5526,40192
5527,38336
5528,36224
5529,34304
5530,32896
5531,32064
5532,31744
5533,31744
5534,31808
5535,32000
5536,32192
5537,32448
5538,32640
5539,32896
5540,33216
5541,33408
5542,33472
5543,33536
5544,33536
5545,33472
5546,33408
5547,33344
5548,33408
5549,33472
5550,33536
5551,33600
5552,33728
5553,33792
5554,33920
5555,33984
5556,34176
5557,34176
5558,34048
5559,33920
5560,33920
5561,33984
5562,34048
5563,34048
5564,34112
5565,34240
5566,34304
5567,34240
5568,34240
5569,34304
5570,34368
5571,34368
5572,34304
5573,34304
5574,34368
5575,34304
5576,34304
5577,34368
5578,34368
5579,34432
5580,34496
5581,34624
5582,34752
5583,34816
5584,34816
5585,34880
5586,35008
5587,35072
5588,35008
5589,34880
5590,34752
5591,34688
5592,34496
5593,34432
5594,34368
5595,34304
5596,34176
5597,34112
5598,34048
5599,34048
5600,33984
5601,33920
5602,33856
5603,33856
5604,33792
5605,33728
5606,33664
5607,33728
5608,33728
5609,33728
5610,33728
5611,33856
5612,33856
5613,33792
5614,33728
5615,33728
5616,33792
5617,33792
5618,33920
5619,33984
5620,34112
5621,34048
5622,34112
5623,34112
5624,34176
5625,34112
5626,34112
5627,34112
5628,34112
5629,34112
5630,34112
5631,34176
5632,34176
5633,34112
5634,34048
5635,33984
5636,34048
5637,34112
5638,34176
5639,34240
5640,34176
5641,34176
5642,34176
5643,34176
5644,34176
5645,34112
5646,34112
5647,34112
5648,34176
5649,34176
5650,34112
5651,34112
5652,34112
5653,34112
5654,34176
5655,34112
5656,34176
5657,34304
5658,34304
5659,34240
5660,34176
5661,34176
5662,34240
5663,34176
5664,34240
5665,34240
5666,34176
5667,34112
5668,34048
5669,33984
5670,33984
5671,33920
5672,33856
5673,33920
5674,33920
5675,33920
5676,33984
5677,34112
5678,34368
5679,34496
5680,34496
5681,34560
5682,34688
5683,34816
5684,34944
5685,35008
5686,35072
5687,35136
5688,35072
5689,35136
5690,35136
5691,35072
5692,34880
5693,34688
5694,34496
5695,34176
5696,34048
5697,33728
5698,33600
5699,33536
5700,33472
5701,33472
5702,33472
5703,33536
5704,33536
5705,33600
5706,33792
5707,33984
5708,34112
5709,34048
5710,34048
5711,34048
5712,34048
5713,33984
5714,33920
5715,33920
5716,34112
5717,34496
5718,35136
5719,36032
5720,37184
5721,38592
5722,40128
5723,41152
5724,41024
5725,39488
5726,37312
5727,35264
5728,33536
5729,32448
5730,31808
5731,31680
5732,31744
5733,31936
5734,32128
5735,32320
5736,32512
5737,32704
5738,32832
5739,33024
5740,33280
5741,33280
5742,33472
5743,33536
5744,33600
5745,33664
5746,33664
5747,33600
5748,33664
5749,33792
5750,33728
5751,33728
5752,33664
5753,33728
5754,33728
5755,33792
5756,33792
5757,33984
5758,34048
5759,33984
5760,33920
5761,33920
5762,33856
5763,33856
5764,33920
5765,34048
5766,34112
5767,34176
5768,34176
5769,34240
5770,34368
5771,34368
5772,34432
5773,34496
5774,34560
5775,34560
5776,34560
5777,34560
5778,34624
5779,34624
5780,34624
5781,34624
5782,34688
5783,34688
5784,34688
5785,34752
5786,34752
5787,34752
5788,34688
5789,34624
5790,34560
5791,34560
5792,34496
5793,34432
5794,34432
5795,34432
5796,34240
5797,34048
5798,33984
5799,33920
5800,33792
5801,33728
5802,33664
5803,33728
5804,33728
5805,33792
5806,33792
5807,33792
5808,33792
5809,33792
5810,33856
5811,33984
5812,34048
5813,34048
5814,33984
5815,34176
5816,34112
5817,34240
5818,34176
5819,34176
5820,34112
5821,33984
5822,33984
5823,34048
5824,34176
5825,34176
5826,34176
5827,34176
5828,34176
5829,34176
5830,34240
5831,34176
5832,34368
5833,34368
5834,34304
5835,34240
5836,34240
5837,34304
5838,34240
5839,34176
5840,34176
5841,34240
5842,34240
5843,34240
5844,34240
5845,34240
5846,34176
5847,34112
5848,34176
5849,34240
5850,34240
5851,34112
5852,34112
5853,34112
5854,34112
5855,34112
5856,34112
5857,34112
5858,34176
5859,34112
5860,34112
5861,34176
5862,34240
5863,34176
5864,34048
5865,34048
5866,34176
5867,34112
5868,34048
5869,34048
5870,34048
5871,34048
5872,34048
5873,34048
5874,34176
5875,34240
5876,34368
5877,34496
5878,34688
5879,34752
5880,34752
5881,34816
5882,34944
5883,35008
5884,35008
5885,35008
5886,35008
5887,35072
5888,35072
5889,35008
5890,34944
5891,34816
5892,34432
5893,33984
5894,33728
5895,33600
5896,33472
5897,33344
5898,33344
5899,33472
5900,33600
5901,33600
5902,33664
5903,33792
5904,33792
5905,33792
5906,33728
5907,33792
5908,33856
5909,33792
5910,33728
5911,33792
5912,33856
5913,33920
5914,34176
5915,34752
5916,35584
5917,36672
5918,38016
5919,39616
5920,41216
5921,41408
5922,40320
5923,38336
5924,36160
5925,34240
5926,32896
5927,32064
5928,31808
5929,31808
5930,31808
5931,31936
5932,32192
5933,32448
5934,32640
5935,32832
5936,33088
5937,33216
5938,33344
5939,33408
5940,33536
5941,33664
5942,33664
5943,33600
5944,33728
5945,33792
5946,33856
5947,33856
5948,33920
5949,33984
5950,33984
5951,33856
5952,33792
5953,33792
5954,33792
5955,33792
5956,33856
5957,33984
5958,34112
5959,34048
5960,34048
5961,34112
5962,34240
5963,34240
5964,34240
5965,34368
5966,34368
5967,34432
5968,34368
5969,34432
5970,34624
5971,34688
5972,34624
5973,34624
5974,34688
5975,34688
5976,34624
5977,34688
5978,34752
5979,34752
5980,34752
5981,34688
5982,34880
5983,34880
5984,34816
5985,34752
5986,34752
5987,34816
5988,34688
5989,34560
5990,34496
5991,34496
5992,34432
5993,34304
5994,34240
5995,34240
5996,34176
5997,34048
5998,33856
5999,33792
6000,33728
6001,33664
6002,33728
6003,33856
6004,33920
6005,33984
6006,33984
6007,33920
6008,33856
6009,33728
6010,33728
6011,33792
6012,33856
6013,33920
6014,33920
6015,34048
6016,34176
6017,34176
6018,34112
6019,34112
6020,34176
6021,34176
6022,34176
6023,34240
6024,34304
6025,34240
6026,34112
6027,34048
6028,34112
6029,34176
6030,34176
6031,34176
6032,34304
6033,34304
6034,34176
6035,34112
6036,34176
6037,34176
6038,34112
6039,34112
6040,34176
6041,34112
6042,34176
6043,34112
6044,34112
6045,34176
6046,34112
6047,34112
6048,34112
6049,34240
6050,34240
6051,34112
6052,34112
6053,34112
6054,34112
6055,34048
6056,34048
6057,34048
6058,34112
6059,34048
6060,33984
6061,34048
6062,34112
6063,34112
6064,34048
6065,34112
6066,34176
6067,34112
6068,34048
6069,34112
6070,34176
6071,34112
6072,34048
6073,34048
6074,34112
6075,34112
6076,34112
6077,34112
6078,34240
6079,34368
6080,34432
6081,34496
6082,34624
6083,34624
6084,34624
6085,34752
6086,34816
6087,34880
6088,34944
6089,34880
6090,34880
6091,34944
6092,34944
6093,34880
6094,34816
6095,34688
6096,34432
6097,34048
6098,33728
6099,33600
6100,33472
6101,33344
6102,33408
6103,33536
6104,33600
6105,33600
6106,33600
6107,33728
6108,33792
6109,33856
6110,33792
6111,33856
6112,33984
6113,33984
6114,33984
6115,33984
6116,33920
6117,33984
6118,34240
6119,34816
6120,35648
6121,36800
6122,38208
6123,39680
6124,41024
6125,41280
6126,40128
6127,38080
6128,35968
6129,34112
6130,32320
6131,32128
6132,31744
6133,31744
6134,31872
6135,32064
6136,32320
6137,32576
6138,32704
6139,32832
6140,33024
6141,33152
6142,33216
6143,33216
6144,33280
6145,33536
6146,33600
6147,33600
6148,33600
6149,33664
6150,33728
6151,33664
6152,33664
6153,33728
6154,33728
6155,33664
6156,33664
6157,33728
6158,33856
6159,33856
6160,33856
6161,33984
6162,34112
6163,34112
6164,34112
6165,34176
6166,34240
6167,34240
6168,34240
6169,34304
6170,34368
6171,34368
6172,34304
6173,34432
6174,34560
6175,34624
6176,34624
6177,34688
6178,34752
6179,34752
6180,34688
6181,34688
6182,34752
6183,34816
6184,34752
6185,34752
6186,34816
6187,34880
6188,34880
6189,34816
6190,34880
6191,34816
6192,34752
6193,34624
6194,34560
6195,34496
6196,34432
6197,34304
6198,34304
6199,34240
6200,34176
6201,33984
6202,33856
6203,33856
6204,33792
6205,33664
6206,33664
6207,33664
6208,33792
6209,33792
6210,33792
6211,33920
6212,33984
6213,33920
6214,33856
6215,33920
6216,34048
6217,34048
6218,33984
6219,33984
6220,34112
6221,34048
6222,34048
6223,34048
6224,34112
6225,34176
6226,34176
6227,34176
6228,34240
6229,34240
6230,34176
6231,34112
6232,34176
6233,34240
6234,34240
6235,34176
6236,34240
6237,34368
6238,34304
6239,34240
6240,34240
6241,34240
6242,34240
6243,34112
6244,34048
6245,34112
6246,34112
6247,34048
6248,34048
6249,34176
6250,34240
6251,34240
6252,34176
6253,34176
6254,34176
6255,34112
6256,33984
6257,34048
6258,34048
6259,34048
6260,34048
6261,34112
6262,34176
6263,34176
6264,34112
6265,34176
6266,34176
6267,34112
6268,34048
6269,34112
6270,34176
6271,34176
6272,34240
6273,34176
6274,34176
6275,34176
6276,34112
6277,34048
6278,34048
6279,34048
6280,34048
6281,34112
6282,34176
6283,34240
6284,34176
6285,34112
6286,34112
6287,34176
6288,34304
6289,34432
6290,34560
6291,34688
6292,34688
6293,34688
6294,34688
6295,34816
6296,34880
6297,34944
6298,35008
6299,35008
6300,35008
6301,34880
6302,34880
6303,34816
6304,34688
6305,34496
6306,34240
6307,33984
6308,33792
6309,33600
6310,33472
6311,33536
6312,33600
6313,33600
6314,33600
6315,33664
6316,33792
6317,33792
6318,33792
6319,33984
6320,34048
6321,34112
6322,34048
6323,33984
6324,33984
6325,33920
6326,33920
6327,34112
6328,34560
6329,35200
6330,36096
6331,37376
6332,38912
6333,40448
6334,41280
6335,40832
6336,39168
6337,36992
6338,34816
6339,33216
6340,32256
6341,31808
6342,31680
6343,31744
6344,32000
6345,32192
6346,32384
6347,32576
6348,32832
6349,32960
6350,33088
6351,33088
6352,33216
6353,33344
6354,33408
6355,33472
6356,33536
6357,33600
6358,33728
6359,33792
6360,33856
6361,33856
6362,33856
6363,33792
6364,33792
6365,33856
6366,33920
6367,33984
6368,33920
6369,33984
6370,34048
6371,34048
6372,33984
6373,33984
6374,33984
6375,33984
6376,34048
6377,34112
6378,34176
6379,34240
6380,34240
6381,34240
6382,34304
6383,34368
6384,34368
6385,34432
6386,34496
6387,34560
6388,34560
6389,34624
6390,34688
6391,34752
6392,34752
6393,34816
6394,34816
6395,34816
6396,34816
6397,34752
6398,34816
6399,34880
6400,34880
6401,34816
6402,34752
6403,34688
6404,34624
6405,34496
6406,34368
6407,34176
6408,34112
6409,33984
6410,33792
6411,33792
6412,33792
6413,33728
6414,33664
6415,33728
6416,33792
6417,33792
6418,33792
6419,33792
6420,33856
6421,33856
6422,33920
6423,33984
6424,33984
6425,33920
6426,33856
6427,33856
6428,33920
6429,33984
6430,33984
6431,33984
6432,34048
6433,34048
6434,34048
6435,34048
6436,34176
6437,34240
6438,34240
6439,34176
6440,34112
6441,34048
6442,34048
6443,33984
6444,34048
6445,34112
6446,34176
6447,34176
6448,34240
6449,34304
6450,34240
6451,34112
6452,34048
6453,34048
6454,33984
6455,33984
6456,33984
6457,33984
6458,34048
6459,34048
6460,34048
6461,34112
6462,34176
6463,34240
6464,34176
6465,34176
6466,34048
6467,33984
6468,33920
6469,33920
6470,33984
6471,34048
6472,34048
6473,34048
6474,34048
6475,34112
6476,34112
6477,34112
6478,34176
6479,34176
6480,34112
6481,34048
6482,34112
6483,34112
6484,34048
6485,34048
6486,34112
6487,34112
6488,34112
6489,34112
6490,34240
6491,34368
6492,34432
6493,34368
6494,34432
6495,34432
6496,34432
6497,34368
6498,34432
6499,34560
6500,34752
6501,34816
6502,34880
6503,34880
6504,34880
6505,34944
6506,34944
6507,34944
6508,34816
6509,34560
6510,34304
6511,34048
6512,33856
6513,33728
6514,33600
6515,33536
6516,33600
6517,33600
6518,33600
6519,33664
6520,33664
6521,33664
6522,33728
6523,33792
6524,33856
6525,33920
6526,33920
6527,33920
6528,33920
6529,33856
6530,33856
6531,34048
6532,34560
6533,35328
6534,36416
6535,37760
6536,39232
6537,40640
6538,41344
6539,40576
6540,38784
6541,36608
6542,34688
6543,33216
6544,32256
6545,31744
6546,31616
6547,31680
6548,31808
6549,32064
6550,32384
6551,32640
6552,32768
6553,32960
6554,33088
6555,33088
6556,33152
6557,33216
6558,33280
6559,33344
6560,33408
6561,33472
6562,33536
6563,33600
6564,33600
6565,33664
6566,33664
6567,33664
6568,33664
6569,33728
6570,33856
6571,33920
6572,33920
6573,33920
6574,33920
6575,33920
6576,33920
6577,33984
6578,34048
6579,34112
6580,34112
6581,34112
6582,34240
6583,34304
6584,34368
6585,34304
6586,34304
6587,34368
6588,34432
6589,34560
6590,34560
6591,34560
6592,34560
6593,34560
6594,34560
6595,34560
6596,34560
6597,34624
6598,34688
6599,34816
6600,34880
6601,34816
6602,34752
6603,34688
6604,34624
6605,34560
6606,34560
6607,34496
6608,34496
6609,34496
6610,34432
6611,34304
6612,34240
6613,34176
6614,34112
6615,34048
6616,33984
6617,33856
6618,33792
6619,33856
6620,33856
6621,33856
6622,33856
6623,33856
6624,33920
6625,33984
6626,33856
6627,33856
6628,33920
6629,33920
6630,33984
6631,33984
6632,34112
6633,34304
6634,34304
6635,34304
6636,34240
6637,34240
6638,34176
6639,34112
6640,34112
6641,34240
6642,34176
6643,34176
6644,34240
6645,34304
6646,34304
6647,34304
6648,34240
6649,34240
6650,34240
6651,34240
6652,34176
6653,34176
6654,34240
6655,34176
6656,34112
6657,34112
6658,34048
6659,34048
6660,34048
6661,34176
6662,34176
6663,34176
6664,34176
6665,34240
6666,34304
6667,34240
6668,34240
6669,34240
6670,34304
6671,34240
6672,34176
6673,34112
6674,34112
6675,34112
6676,34048
6677,34048
6678,34112
6679,34176
6680,34176
6681,34112
6682,34240
6683,34432
6684,34496
6685,34496
6686,34496
6687,34560
6688,34560
6689,34624
6690,34752
6691,34816
6692,34816
6693,34816
6694,34880
6695,34944
6696,35008
6697,34880
6698,34688
6699,34432
6700,34112
6701,33728
6702,33536
6703,33472
6704,33472
6705,33536
6706,33536
6707,33600
6708,33664
6709,33664
6710,33728
6711,33792
6712,33856
6713,33856
6714,33856
6715,33856
6716,33920
6717,33920
6718,33856
6719,33856
6720,34112
6721,34496
6722,35072
6723,35968
6724,37120
6725,38592
6726,40064
6727,41024
6728,40896
6729,39360
6730,37248
6731,35264
6732,33664
6733,32640
6734,32000
6735,31744
6736,31808
6737,31936
6738,32064
6739,32320
6740,32576
6741,32768
6742,32896
6743,33088
6744,33216
6745,33344
6746,33536
6747,33536
6748,33536
6749,33600
6750,33664
6751,33664
6752,33728
6753,33728
6754,33728
6755,33664
6756,33600
6757,33728
6758,33856
6759,33920
6760,33920
6761,33984
6762,34048
6763,34048
6764,34048
6765,34048
6766,34112
6767,34112
6768,33984
6769,33920
6770,33984
6771,34048
6772,34112
6773,34240
6774,34368
6775,34432
6776,34432
6777,34496
6778,34560
6779,34624
6780,34624
6781,34624
6782,34624
6783,34688
6784,34624
6785,34496
6786,34496
6787,34560
6788,34624
6789,34624
6790,34624
6791,34624
6792,34624
6793,34624
6794,34560
6795,34560
6796,34560
6797,34496
6798,34432
6799,34368
6800,34304
6801,34176
6802,33984
6803,33856
6804,33920
6805,33920
6806,33856
6807,33792
6808,33856
6809,33792
6810,33792
6811,33792
6812,33792
6813,33728
6814,33664
6815,33728
6816,33792
6817,33856
6818,33920
6819,33920
6820,34048
6821,34048
6822,33984
6823,33984
6824,34048
6825,34176
6826,34176
6827,34240
6828,34304
6829,34240
6830,34176
6831,34112
6832,34176
6833,34176
6834,34176
6835,34112
6836,34176
6837,34240
6838,34240
6839,34176
6840,34176
6841,34176
6842,34240
6843,34176
6844,34112
6845,34112
6846,34112
6847,34048
6848,34112
6849,34176
6850,34176
6851,34176
6852,34176
6853,34112
6854,34112
6855,33984
6856,33920
6857,33984
6858,34048
6859,34112
6860,34048
6861,34112
6862,34176
6863,34176
6864,34112
6865,34176
6866,34368
6867,34368
6868,34368
6869,34368
6870,34432
6871,34496
6872,34560
6873,34560
6874,34624
6875,34688
6876,34688
6877,34624
6878,34688
6879,34752
6880,34816
6881,34688
6882,34496
6883,34240
6884,33984
6885,33728
6886,33664
6887,33600
6888,33536
6889,33472
6890,33472
6891,33536
6892,33600
6893,33600
6894,33664
6895,33728
6896,33792
6897,33792
6898,33728
6899,33792
6900,33856
6901,33856
6902,33792
6903,33856
6904,34048
6905,34496
6906,35136
6907,36096
6908,37376
6909,38848
6910,40256
6911,41152
6912,40896
6913,39232
6914,37056
6915,35072
6916,33536
6917,32512
6918,31872
6919,31680
6920,31680
6921,31872
6922,32064
6923,32256
6924,32448
6925,32640
6926,32768
6927,32960
6928,33152
6929,33280
6930,33408
6931,33536
6932,33664
6933,33728
6934,33728
6935,33792
6936,33856
6937,33856
6938,33856
6939,33792
6940,33792
6941,33792
6942,33856
6943,33856
6944,33792
6945,33856
6946,33856
6947,33856
6948,33920
6949,33920
6950,33920
6951,33920
6952,33920
6953,34048
6954,34176
6955,34240
6956,34304
6957,34368
6958,34496
6959,34496
6960,34496
6961,34560
6962,34560
6963,34560
6964,34560
6965,34560
6966,34688
6967,34752
6968,34688
6969,34688
6970,34752
6971,34688
6972,34624
6973,34560
6974,34624
6975,34688
6976,34624
6977,34624
6978,34560
6979,34560
6980,34496
6981,34368
6982,34304
6983,34304
6984,34240
6985,34112
6986,33984
6987,33920
6988,33856
6989,33728
6990,33728
6991,33728
6992,33792
6993,33792
6994,33728
6995,33792
6996,33792
6997,33728
6998,33728
6999,33792
7000,33792
7001,33856
7002,33920
7003,34048
7004,34112
7005,34112
7006,34112
7007,34112
7008,34112
7009,34176
7010,34176
7011,34176
7012,34176
7013,34112
7014,34048
7015,34048
7016,34112
7017,34176
7018,34176
7019,34240
7020,34304
7021,34240
7022,34176
7023,34112
7024,34112
7025,34112
7026,34048
7027,34112
7028,34112
7029,34176
7030,34112
7031,34112
7032,34176
7033,34240
7034,34176
7035,34112
7036,34112
7037,34112
7038,34176
7039,34112
7040,34112
7041,34112
7042,34112
7043,34112
7044,34176
7045,34240
7046,34240
7047,34176
7048,34112
7049,34112
7050,34176
7051,34112
7052,34048
7053,33984
7054,33984
7055,34048
7056,34048
7057,34176
7058,34368
7059,34496
7060,34560
7061,34624
7062,34624
7063,34688
7064,34688
7065,34816
7066,34944
7067,34944
7068,34880
7069,34816
7070,34880
7071,34944
7072,34880
7073,34752
7074,34496
7075,34176
7076,33856
7077,33600
7078,33472
7079,33472
7080,33472
7081,33408
7082,33408
7083,33472
7084,33536
7085,33600
7086,33536
7087,33600
7088,33664
7089,33728
7090,33792
7091,33856
7092,33856
7093,33856
7094,33856
7095,33920
7096,34048
7097,34496
7098,35136
7099,36096
7100,37312
7101,38720
7102,40192
7103,41152
7104,40960
7105,39360
7106,37248
7107,35136
7108,33472
7109,32320
7110,31744
7111,31616
7112,31744
7113,31872
7114,31936
7115,32064
7116,32320
7117,32576
7118,32704
7119,32896
7120,33088
7121,33280
7122,33408
7123,33536
7124,33664
7125,33664
7126,33536
7127,33472
7128,33600
7129,33600
7130,33600
7131,33728
7132,33856
7133,33920
7134,33920
7135,34048
7136,34176
7137,34176
7138,34176
7139,34112
7140,34112
7141,34048
7142,33984
7143,33920
7144,33920
7145,33920
7146,33984
7147,33984
7148,33920
7149,34112
7150,34240
7151,34176
7152,34176
7153,34304
7154,34304
7155,34368
7156,34560
7157,34560
7158,34752
7159,34688
7160,34688
7161,34816
7162,34880
7163,34944
7164,35008
7165,35072
7166,35008
7167,34880
7168,34816
7169,34816
7170,34880
7171,34880
7172,34752
7173,34688
7174,34560
7175,34432
7176,34112
7177,33856
7178,33664
7179,33600
7180,33536
7181,33600
7182,33664
7183,33600
7184,33536
7185,33664
7186,33792
7187,33856
7188,33920
7189,33920
7190,33920
7191,33920
7192,33920
7193,33984
7194,34048
7195,34048
7196,34112
7197,34112
7198,34176
7199,34176
7200,34176
7201,34048
7202,34048
7203,34048
7204,34048
7205,33984
7206,34048
7207,34176
7208,34304
7209,34304
7210,34240
7211,34176
7212,34112
7213,34112
7214,34048
7215,34048
7216,34176
7217,34176
7218,34176
7219,34112
7220,34176
7221,34112
7222,34048
7223,34048
7224,34112
7225,34112
7226,34112
7227,34048
7228,34048
7229,34048
7230,34048
7231,34112
7232,34112
7233,34112
7234,34112
7235,34112
7236,34176
7237,34112
7238,33984
7239,33984
7240,34048
7241,34048
7242,34048
7243,34048
7244,34176
7245,34176
7246,34112
7247,34112
7248,34112
7249,34176
7250,34176
7251,34176
7252,34304
7253,34496
7254,34496
7255,34496
7256,34496
7257,34560
7258,34496
7259,34496
7260,34624
7261,34816
7262,34944
7263,34880
7264,35008
7265,35008
7266,35072
7267,35008
7268,34944
7269,34880
7270,34752
7271,34432
7272,34112
7273,33856
7274,33728
7275,33600
7276,33536
7277,33536
7278,33600
7279,33600
7280,33600
7281,33664
7282,33728
7283,33728
7284,33792
7285,33856
7286,33856
7287,33984
7288,33984
7289,33984
7290,33984
7291,33920
7292,33920
7293,34304
7294,34816
7295,35648
7296,36736
7297,38144
7298,39744
7299,41024
7300,41216
7301,41024
7302,38144
7303,35904
7304,34048
7305,32640
7306,31936
7307,31744
7308,31808
7309,31872
7310,32064
7311,32256
7312,32512
7313,32704
7314,32832
7315,33024
7316,33216
7317,33408
7318,33472
7319,33472
7320,33408
7321,33408
7322,33472
7323,33600
7324,33728
7325,33792
7326,33792
7327,33920
7328,33984
7329,33984
7330,33984
7331,33984
7332,33984
7333,33920
7334,33856
7335,33856
7336,33920
7337,33920
7338,33920
7339,33984
7340,33984
7341,34048
7342,34112
7343,34176
7344,34368
7345,34560
7346,34560
7347,34560
7348,34560
7349,34560
7350,34496
7351,34432
7352,34496
7353,34560
7354,34624
7355,34688
7356,34752
7357,34816
7358,34816
7359,34816
7360,34880
7361,35008
7362,35072
7363,35008
7364,34880
7365,34752
7366,34624
7367,34496
7368,34304
7369,34304
7370,34304
7371,34176
7372,34112
7373,33984
7374,33856
7375,33792
7376,33792
7377,33792
7378,33792
7379,33792
7380,33792
7381,33856
7382,33920
7383,33920
7384,33920
7385,33920
7386,33920
7387,33792
7388,33792
7389,33856
7390,33920
7391,33984
7392,33984
7393,34048
7394,34112
7395,34112
7396,34048
7397,33984
7398,34048
7399,34112
7400,34048
7401,33984
7402,34048
7403,34048
7404,34112
7405,34112
7406,34176
7407,34240
7408,34176
7409,34240
7410,34304
7411,34368
7412,34240
7413,34176
7414,34176
7415,34240
7416,34304
7417,34176
7418,34176
7419,34112
7420,34112
7421,34048
7422,33920
7423,33920
7424,33920
7425,33920
7426,33920
7427,33984
7428,34048
7429,34048
7430,34048
7431,34112
7432,34240
7433,34304
7434,34240
7435,34176
7436,34240
7437,34304
7438,34240
7439,34240
7440,34368
7441,34432
7442,34368
7443,34240
7444,34240
7445,34112
7446,33984
7447,33920
7448,33920
7449,33984
7450,33984
7451,33920
7452,33984
7453,34048
7454,34048
7455,34048
7456,34176
7457,34368
7458,34560
7459,34688
7460,34752
7461,34816
7462,34816
7463,34816
7464,34944
7465,35072
7466,35200
7467,35072
7468,35072
7469,35136
7470,35136
7471,35008
7472,34816
7473,34624
7474,34368
7475,34048
7476,33792
7477,33600
7478,33472
7479,33344
7480,33408
7481,33472
7482,33600
7483,33664
7484,33664
7485,33792
7486,33920
7487,33792
7488,33792
7489,33856
7490,33920
7491,33984
7492,34048
7493,34048
7494,34048
7495,34112
7496,34368
7497,34880
7498,35584
7499,36736
7500,38016
7501,39616
7502,40960
7503,41408
7504,40320
7505,38400
7506,36224
7507,34368
7508,32960
7509,32128
7510,31744
7511,31680
7512,31808
7513,32128
7514,32384
7515,32640
7516,32768
7517,32832
7518,32896
7519,32960
7520,33088
7521,33152
7522,33216
7523,33408
7524,33472
7525,33536
7526,33600
7527,33728
7528,33792
7529,33792
7530,33856
7531,33984
7532,34112
7533,34112
7534,33984
7535,33920
7536,33856
7537,33920
7538,33984
7539,33984
7540,34048
7541,34112
7542,34112
7543,34112
7544,34176
7545,34368
7546,34432
7547,34496
7548,34496
7549,34560
7550,34496
7551,34432
7552,34496
7553,34560
7554,34560
7555,34496
7556,34496
7557,34560
7558,34688
7559,34816
7560,34880
7561,35008
7562,34944
7563,34816
7564,34816
7565,34816
7566,34816
7567,34752
7568,34816
7569,34816
7570,34816
7571,34624
7572,34432
7573,34368
7574,34432
7575,34432
7576,34368
7577,34368
7578,34240
7579,34048
7580,33856
7581,33792
7582,33792
7583,33792
7584,33792
7585,33792
7586,33792
7587,33920
7588,33984
7589,34048
7590,34112
7591,34112
7592,34112
7593,34176
7594,34176
7595,34112
7596,34048
7597,33984
7598,33984
7599,33984
7600,33920
7601,33984
7602,34048
7603,34176
7604,34176
7605,34176
7606,34240
7607,34240
7608,34176
7609,34176
7610,34240
7611,34240
7612,34240
7613,34176
7614,34176
7615,34240
7616,34176
7617,34048
7618,34048
7619,34176
7620,34304
7621,34304
7622,34240
7623,34240
7624,34240
7625,34176
7626,34112
7627,34112
7628,34112
7629,34048
7630,34048
7631,34112
7632,34240
7633,34176
7634,34048
7635,34112
7636,34304
7637,34432
7638,34368
7639,34304
7640,34240
7641,34176
7642,34112
7643,34048
7644,34112
7645,34112
7646,34048
7647,33984
7648,33920
7649,33984
7650,34048
7651,34112
7652,34176
7653,34240
7654,34240
7655,34240
7656,34240
7657,34304
7658,34368
7659,34368
7660,34304
7661,34368
7662,34560
7663,34624
7664,34752
7665,34752
7666,34880
7667,35008
7668,34944
7669,34880
7670,34880
7671,34816
7672,34688
7673,34688
7674,34688
7675,34688
7676,34624
7677,34560
7678,34304
7679,34048
7680,33792
7681,33664
7682,33600
7683,33472
7684,33408
7685,33408
7686,33536
7687,33664
7688,33792
7689,33856
7690,33984
7691,33984
7692,33920
7693,33856
7694,33856
7695,33920
7696,33920
7697,33856
7698,33856
7699,33856
7700,34048
7701,34432
7702,35072
7703,36096
7704,37312
7705,39296
7706,40384
7707,41408
7708,41152
7709,39488
7710,37312
7711,35136
7712,33408
7713,32384
7714,31808
7715,31680
7716,31808
7717,31872
7718,31936
7719,32128
7720,32448
7721,32640
7722,32832
7723,33024
7724,33152
7725,33152
7726,33152
7727,33152
7728,33280
7729,33408
7730,33472
7731,33600
7732,33792
7733,33920
7734,33920
7735,33920
7736,33856
7737,33792
7738,33792
7739,33792
7740,33984
7741,34112
7742,34176
7743,34048
7744,34048
7745,33984
7746,33920
7747,33856
7748,33920
7749,33984
7750,34048
7751,34112
7752,34176
7753,34304
7754,34368
7755,34432
7756,34432
7757,34496
7758,34496
7759,34496
7760,34432
7761,34496
7762,34624
7763,34624
7764,34688
7765,34752
7766,34752
7767,34688
7768,34688
7769,34752
7770,34816
7771,34816
7772,34816
7773,34752
7774,34688
7775,34560
7776,34496
7777,34496
7778,34432
7779,34304
7780,34176
7781,34112
7782,33984
7783,33856
7784,33728
7785,33664
7786,33728
7787,33792
7788,33792
7789,33792
7790,33792
7791,33728
7792,33600
7793,33536
7794,33600
7795,33728
7796,33728
7797,33728
7798,33792
7799,33920
7800,33920
7801,33856
7802,33856
7803,33920
7804,33984
7805,33984
7806,34048
7807,34112
7808,34176
7809,34176
7810,34304
7811,34304
7812,34304
7813,34240
7814,34176
7815,34240
7816,34176
7817,34048
7818,33984
7819,33984
7820,33984
7821,33984
7822,33984
7823,34048
7824,34112
7825,34112
7826,34112
7827,33984
7828,33984
7829,33984
7830,33984
7831,33920
7832,33856
7833,33920
7834,33920
7835,33984
7836,34112
7837,34240
7838,34240
7839,34176
7840,34112
7841,34112
7842,34112
7843,34048
7844,34048
7845,34048
7846,34048
7847,34048
7848,33984
7849,34048
7850,34048
7851,34048
7852,34048
7853,34176
7854,34240
7855,34240
7856,34240
7857,34304
7858,34368
7859,34432
7860,34432
7861,34496
7862,34496
7863,34560
7864,34624
7865,34816
7866,34944
7867,35008
7868,35008
7869,35008
7870,35072
7871,35072
7872,35008
7873,34944
7874,34816
7875,34496
7876,34176
7877,33920
7878,33792
7879,33664
7880,33600
7881,33664
7882,33664
7883,33600
7884,33600
7885,33600
7886,33600
7887,33664
7888,33728
7889,33792
7890,33856
7891,33920
7892,33856
7893,33792
7894,33792
7895,33856
7896,33856
7897,33984
7898,34496
7899,35200
7900,36608
7901,37376
7902,38912
7903,40576
7904,41664
7905,41472
7906,40000
7907,37632
7908,35712
7909,33920
7910,32832
7911,32320
7912,32000
7913,31872
7914,31872
7915,32128
7916,32256
7917,32448
7918,32704
7919,32960
7920,33088
7921,33152
7922,33216
7923,33344
7924,33536
7925,33664
7926,33664
7927,33664
7928,33728
7929,33792
7930,33856
7931,33856
7932,33856
7933,33920
7934,33920
7935,33984
7936,34048
7937,34048
7938,33984
7939,33856
7940,33856
7941,33920
7942,33920
7943,33984
7944,34048
7945,34176
7946,34240
7947,34176
7948,34240
7949,34304
7950,34304
7951,34304
7952,34432
7953,34560
7954,34624
7955,34560
7956,34496
7957,34496
7958,34496
7959,34560
7960,34624
7961,34816
7962,34880
7963,34880
7964,34816
7965,34688
7966,34688
7967,34560
7968,34560
7969,34560
7970,34624
7971,34752
7972,34688
7973,34496
7974,34432
7975,34368
7976,34304
7977,34240
7978,34112
7979,34048
7980,33984
7981,33984
7982,33984
7983,33984
7984,33856
7985,33792
7986,33728
7987,33600
7988,33536
7989,33664
7990,33728
7991,33728
7992,33728
7993,33664
7994,33728
7995,33792
7996,33920
7997,33984
7998,34048
7999,34048
8000,34048
8001,34048
8002,34112
8003,34112
8004,34176
8005,34176
8006,34112
8007,34176
8008,34176
8009,34112
8010,34112
8011,34048
8012,34112
8013,34112
8014,34112
8015,34240
8016,34304
8017,34240
8018,34176
8019,34176
8020,34176
8021,34112
8022,34112
8023,34240
8024,34304
8025,34240
8026,34112
8027,34112
8028,34112
8029,34048
8030,33984
8031,33984
8032,33984
8033,33984
8034,33984
8035,34112
8036,34112
8037,34176
8038,34176
8039,34176
8040,34240
8041,34176
8042,34112
8043,34048
8044,34048
8045,34176
8046,34176
8047,34048
8048,34048
8049,34048
8050,34048
8051,34048
8052,34112
8053,34176
8054,34112
8055,34112
8056,34240
8057,34368
8058,34368
8059,34176
8060,34048
8061,34112
8062,34176
8063,34176
8064,34240
8065,34240
8066,34240
8067,34432
8068,34688
8069,35008
8070,35200
8071,35200
8072,35136
8073,35072
8074,35072
8075,34944
8076,34816
8077,34688
8078,34560
8079,34240
8080,33792
8081,33664
8082,33600
8083,33536
8084,33536
8085,33536
8086,33536
8087,33664
8088,33664
8089,33600
8090,33600
8091,33600
8092,33536
8093,33600
8094,33728
8095,33920
8096,33920
8097,33856
8098,33984
8099,34112
8100,34176
8101,34560
8102,35136
8103,35968
8104,37120
8105,38592
8106,40192
8107,41472
8108,41664
8109,40320
8110,37184
8111,35776
8112,33920
8113,32640
8114,31872
8115,31616
8116,31616
8117,31680
8118,31872
8119,32128
8120,32384
8121,32576
8122,32768
8123,33024
8124,33216
8125,33344
8126,33344
8127,33408
8128,33472
8129,33408
8130,33280
8131,33344
8132,33536
8133,33600
8134,33664
8135,33728
8136,33792
8137,33920
8138,33920
8139,33920
8140,33920
8141,33920
8142,33984
8143,34048
8144,34112
8145,34176
8146,34176
8147,34112
8148,34176
8149,34176
8150,34176
8151,34176
8152,34176
8153,34304
8154,34368
8155,34304
8156,34240
8157,34368
8158,34496
8159,34560
8160,34560
8161,34624
8162,34688
8163,34688
8164,34752
8165,34816
8166,34880
8167,34816
8168,34752
8169,34816
8170,34944
8171,34880
8172,34752
8173,34688
8174,34752
8175,34752
8176,34688
8177,34560
8178,34432
8179,34304
8180,34112
8181,34048
8182,33984
8183,33984
8184,33856
8185,33792
8186,33792
8187,33728
8188,33664
8189,33664
8190,33728
8191,33792
8192,33792
8193,33728
8194,33792
8195,33856
8196,33856
8197,33856
8198,33856
8199,33920
8200,33984
8201,33920
8202,33856
8203,33920
8204,33920
8205,33920
8206,33920
8207,33984
8208,34048
8209,34112
8210,34176
8211,34240
8212,34240
8213,34176
8214,34112
8215,34112
8216,34176
8217,34112
8218,34048
8219,34112
8220,34112
8221,34112
8222,34176
8223,34240
8224,34240
8225,34176
8226,34112
8227,34048
8228,34112
8229,34176
8230,34176
8231,34112
8232,34112
8233,34112
8234,33984
8235,33920
8236,33920
8237,33984
8238,33984
8239,34048
8240,34048
8241,34112
8242,34112
8243,34048
8244,33984
8245,34048
8246,34048
8247,34048
8248,34048
8249,34048
8250,33984
8251,33920
8252,33856
8253,33984
8254,34048
8255,34048
8256,34048
8257,34176
8258,34240
8259,34240
8260,34176
8261,34176
8262,34112
8263,34112
8264,34048
8265,34112
8266,34176
8267,34304
8268,34304
8269,34432
8270,34496
8271,34560
8272,34560
8273,34624
8274,34816
8275,34880
8276,34944
8277,34880
8278,34944
8279,34944
8280,34944
8281,34880
8282,34880
8283,34688
8284,34368
8285,33984
8286,33728
8287,33536
8288,33472
8289,33408
8290,33408
8291,33408
8292,33472
8293,33472
8294,33536
8295,33728
8296,33856
8297,33792
8298,33792
8299,33920
8300,33984
8301,33984
8302,33920
8303,33856
8304,33792
8305,33792
8306,33984
8307,34560
8308,35392
8309,36416
8310,37760
8311,39360
8312,40896
8313,41536
8314,40704
8315,38720
8316,36480
8317,34432
8318,32960
8319,32064
8320,31744
8321,31680
8322,31744
8323,31872
8324,32128
8325,32384
8326,32576
8327,32768
8328,32960
8329,33088
8330,33216
8331,33216
8332,33344
8333,33472
8334,33536
8335,33600
8336,33664
8337,33664
8338,33728
8339,33728
8340,33792
8341,33856
8342,33856
8343,33856
8344,33920
8345,34048
8346,34048
8347,33984
8348,33984
8349,34112
8350,34176
8351,34176
8352,34176
8353,34176
8354,34240
8355,34176
8356,34112
8357,34240
8358,34304
8359,34304
8360,34304
8361,34368
8362,34432
8363,34432
8364,34432
8365,34496
8366,34624
8367,34688
8368,34688
8369,34752
8370,34880
8371,34880
8372,34816
8373,34816
8374,34816
8375,34880
8376,34816
8377,34752
8378,34816
8379,34752
8380,34688
8381,34560
8382,34624
8383,34688
8384,34560
8385,34304
8386,34176
8387,34176
8388,34112
8389,33920
8390,33856
8391,33792
8392,33728
8393,33600
8394,33536
8395,33600
8396,33664
8397,33664
8398,33728
8399,33920
8400,34048
8401,33984
8402,33856
8403,33856
8404,33856
8405,33856
8406,33856
8407,34048
8408,34112
8409,34112
8410,33984
8411,33984
8412,34048
8413,34048
8414,33984
8415,34048
8416,34176
8417,34176
8418,34176
8419,34240
8420,34304
8421,34240
8422,34176
8423,34112
8424,34240
8425,34304
8426,34240
8427,34176
8428,34176
8429,34176
8430,34176
8431,34112
8432,34176
8433,34176
8434,34176
8435,34176
8436,34176
8437,34240
8438,34176
8439,34048
8440,34112
8441,34304
8442,34304
8443,34176
8444,34176
8445,34240
8446,34240
8447,34176
8448,34112
8449,34240
8450,34240
8451,34112
8452,34048
8453,34048
8454,34048
8455,33984
8456,33920
8457,33984
8458,34112
8459,34176
8460,34112
8461,34176
8462,34240
8463,34176
8464,34176
8465,34176
8466,34240
8467,34240
8468,34176
8469,34112
8470,34112
8471,34176
8472,34240
8473,34368
8474,34432
8475,34304
8476,34176
8477,34048
8478,34112
8479,34240
8480,34304
8481,34496
8482,34688
8483,34752
8484,34688
8485,34624
8486,34624
8487,34752
8488,34816
8489,34880
8490,34880
8491,34944
8492,34944
8493,34944
8494,34880
8495,34816
8496,34624
8497,34368
8498,34048
8499,33856
8500,33728
8501,33600
8502,33600
8503,33664
8504,33664
8505,33664
8506,33664
8507,33728
8508,33792
8509,33856
8510,33856
8511,33920
8512,33984
8513,34048
8514,34048
8515,34112
8516,34112
8517,34048
8518,33984
8519,34304
8520,34880
8521,35712
8522,36800
8523,38080
8524,39680
8525,41024
8526,41536
8527,40640
8528,38592
8529,36288
8530,34240
8531,32832
8532,32064
8533,31744
8534,31680
8535,31808
8536,32000
8537,32256
8538,32448
8539,32640
8540,32896
8541,33152
8542,33344
8543,33408
8544,33408
8545,33408
8546,33472
8547,33472
8548,33600
8549,33664
8550,33664
8551,33600
8552,33600
8553,33600
8554,33664
8555,33664
8556,33728
8557,33792
8558,33920
8559,33920
8560,33920
8561,33984
8562,33984
8563,34048
8564,34048
8565,34112
8566,34176
8567,34240
8568,34240
8569,34304
8570,34304
8571,34368
8572,34368
8573,34432
8574,34432
8575,34432
8576,34496
8577,34560
8578,34624
8579,34752
8580,34752
8581,34752
8582,34816
8583,34880
8584,34880
8585,34880
8586,35008
8587,35072
8588,35008
8589,34944
8590,34944
8591,34880
8592,34816
8593,34688
8594,34624
8595,34560
8596,34496
8597,34304
8598,34176
8599,34112
8600,34048
8601,33920
8602,33856
8603,33856
8604,33792
8605,33792
8606,33792
8607,33792
8608,33792
8609,33792
8610,33792
8611,33792
8612,33856
8613,33920
8614,33984
8615,34048
8616,34048
8617,33984
8618,33920
8619,33920
8620,33984
8621,34048
8622,33984
8623,33984
8624,33984
8625,33920
8626,33856
8627,33920
8628,33984
8629,34048
8630,34048
8631,34048
8632,34048
8633,34112
8634,34112
8635,34112
8636,34112
8637,34176
8638,34176
8639,34176
8640,34240
8641,34304
8642,34304
8643,34240
8644,34176
8645,34176
8646,34112
8647,34048
8648,34112
8649,34176
8650,34112
8651,34048
8652,34048
8653,34048
8654,34048
8655,34112
8656,34112
8657,34176
8658,34176
8659,34112
8660,34048
8661,34048
8662,34048
8663,34048
8664,34048
8665,34112
8666,34176
8667,34112
8668,34112
8669,34112
8670,34176
8671,34112
8672,34048
8673,34048
8674,34048
8675,34048
8676,33984
8677,34048
8678,34112
8679,34176
8680,34176
8681,34240
8682,34432
8683,34624
8684,34688
8685,34752
8686,34816
8687,34880
8688,34816
8689,34752
8690,34752
8691,34880
8692,34880
8693,34880
8694,34944
8695,35008
8696,34944
8697,34752
8698,34560
8699,34304
8700,33984
8701,33728
8702,33600
8703,33536
8704,33536
8705,33536
8706,33600
8707,33664
8708,33792
8709,33792
8710,33792
8711,33856
8712,33856
8713,33792
8714,33792
8715,33856
8716,33920
8717,33920
8718,33920
8719,33920
8720,34112
8721,34496
8722,35008
8723,35904
8724,37248
8725,38720
8726,40256
8727,41280
8728,41216
8729,39680
8730,37504
8731,35264
8732,33536
8733,32448
8734,31808
8735,31616
8736,31680
8737,31872
8738,32064
8739,32320
8740,32576
8741,32768
8742,32960
8743,33088
8744,33216
8745,33344
8746,33408
8747,33472
8748,33600
8749,33664
8750,33728
8751,33792
8752,33728
8753,33728
8754,33728
8755,33728
8756,33728
8757,33792
8758,33856
8759,33856
8760,33856
8761,33856
8762,33920
8763,33920
8764,33920
8765,34048
8766,34176
8767,34176
8768,34112
8769,34112
8770,34176
8771,34240
8772,34304
8773,34368
8774,34432
8775,34496
8776,34496
8777,34560
8778,34624
8779,34752
8780,34752
8781,34752
8782,34752
8783,34816
8784,34752
8785,34752
8786,34752
8787,34816
8788,34816
8789,34752
8790,34752
8791,34752
8792,34752
8793,34752
8794,34752
8795,34752
8796,34752
8797,34688
8798,34624
8799,34560
8800,34368
8801,34176
8802,34048
8803,33920
8804,33856
8805,33792
8806,33728
8807,33728
8808,33728
8809,33728
8810,33664
8811,33664
8812,33728
8813,33728
8814,33728
8815,33792
8816,33856
8817,33856
8818,33792
8819,33792
8820,33856
8821,33792
8822,33792
8823,33856
8824,33920
8825,34048
8826,34112
8827,34176
8828,34240
8829,34304
8830,34240
8831,34240
8832,34304
8833,34304
8834,34240
8835,34240
8836,34240
8837,34240
8838,34112
8839,34048
8840,34048
8841,34048
8842,34048
8843,34048
8844,34048
8845,34112
8846,34176
8847,34176
8848,34176
8849,34240
8850,34304
8851,34304
8852,34304
8853,34304
8854,34240
8855,34112
8856,34112
8857,34112
8858,34112
8859,34048
8860,33984
8861,34048
8862,34112
8863,34112
8864,34112
8865,34112
8866,34176
8867,34176
8868,34112
8869,34112
8870,34176
8871,34176
8872,34240
8873,34304
8874,34432
8875,34496
8876,34496
8877,34496
8878,34432
8879,34432
8880,34496
8881,34560
8882,34688
8883,34816
8884,34816
8885,34816
8886,34880
8887,35008
8888,35008
8889,34880
8890,34752
8891,34496
8892,34176
8893,33920
8894,33664
8895,33600
8896,33472
8897,33344
8898,33344
8899,33472
8900,33600
8901,33664
8902,33728
8903,33856
8904,33920
8905,33920
8906,33984
8907,34048
8908,34048
8909,33920
8910,33856
8911,33856
8912,34048
8913,34368
8914,34944
8915,35776
8916,36864
8917,38272
8918,39616
8919,40832
8920,41216
8921,40000
8922,37952
8923,35968
8924,34240
8925,32960
8926,32256
8927,31872
8928,31808
8929,31872
8930,31936
8931,32128
8932,32384
8933,32576
8934,32704
8935,32832
8936,32960
8937,33088
8938,33216
8939,33280
8940,33344
8941,33472
8942,33536
8943,33600
8944,33664
8945,33792
8946,33728
8947,33664
8948,33664
8949,33728
8950,33792
8951,33728
8952,33920
8953,33920
8954,33920
8955,33920
8956,33984
8957,33984
8958,34240
8959,34304
8960,34240
8961,34240
8962,34368
8963,34432
8964,34432
8965,34368
8966,34240
8967,34240
8968,34240
8969,34368
8970,34368
8971,34368
8972,34304
8973,34560
8974,34560
8975,34624
8976,34688
8977,34752
8978,34752
8979,34752
8980,34816
8981,34816
8982,34816
8983,34752
8984,34624
8985,34624
8986,34624
8987,34624
8988,34560
8989,34496
8990,34432
8991,34368
8992,34304
8993,34176
8994,34112
8995,34048
8996,33984
8997,33920
8998,33856
8999,33792
9000,33728
9001,33728
9002,33728
9003,33792
9004,33920
9005,33920
9006,33920
9007,33920
9008,33920
9009,33792
9010,33856
9011,33920
9012,33984
9013,33984
9014,34048
9015,34048
9016,33984
9017,33920
9018,33984
9019,34112
9020,34240
9021,34240
9022,34240
9023,34240
9024,34176
9025,34112
9026,34112
9027,34176
9028,34240
9029,34240
9030,34240
9031,34240
9032,34240
9033,34112
9034,34048
9035,33984
9036,33984
9037,33920
9038,33920
9039,33920
9040,34048
9041,34176
9042,34176
9043,34176
9044,34240
9045,34304
9046,34240
9047,34176
9048,34176
9049,34176
9050,34048
9051,34048
9052,34048
9053,34048
9054,34048
9055,34048
9056,34304
9057,34496
9058,34496
9059,34496
9060,34496
9061,34624
9062,34560
9063,34688
9064,34752
9065,34816
9066,34816
9067,34944
9068,34944
9069,34944
9070,34816
9071,34560
9072,34304
9073,33984
9074,33664
9075,33472
9076,33344
9077,33408
9078,33472
9079,33536
9080,33600
9081,33664
9082,33728
9083,33728
9084,33728
9085,33728
9086,33792
9087,33856
9088,33856
9089,33920
9090,33920
9091,33920
9092,33856
9093,33920
9094,34304
9095,34816
9096,35584
9097,36736
9098,38208
9099,39744
9100,40960
9101,41216
9102,40128
9103,38208
9104,36096
9105,34176
9106,32832
9107,32000
9108,31616
9109,31488
9110,31552
9111,31744
9112,31936
9113,32192
9114,32448
9115,32832
9116,33088
9117,33216
9118,33344
9119,33472
9120,33600
9121,33664
9122,33728
9123,33792
9124,33792
9125,33792
9126,33792
9127,33856
9128,33856
9129,33920
9130,33920
9131,33920
9132,33920
9133,33856
9134,33792
9135,33856
9136,33984
9137,33920
9138,33920
9139,33920
9140,33920
9141,33984
9142,33984
9143,34048
9144,34176
9145,34304
9146,34304
9147,34368
9148,34496
9149,34560
9150,34560
9151,34560
9152,34624
9153,34688
9154,34688
9155,34688
9156,34688
9157,34688
9158,34624
9159,34688
9160,34688
9161,34688
9162,34624
9163,34560
9164,34560
9165,34624
9166,34624
9167,34560
9168,34560
9169,34560
9170,34560
9171,34496
9172,34432
9173,34304
9174,34240
9175,34176
9176,34048
9177,33984
9178,33920
9179,33856
9180,33856
9181,33856
9182,33856
9183,33792
9184,33792
9185,33856
9186,33920
9187,33920
9188,33856
9189,33856
9190,33856
9191,33856
9192,33856
9193,33920
9194,34048
9195,34112
9196,34112
9197,34048
9198,34112
9199,34176
9200,34176
9201,34176
9202,34176
9203,34176
9204,34112
9205,34112
9206,34112
9207,34112
9208,34112
9209,34176
9210,34240
9211,34240
9212,34240
9213,34240
9214,34240
9215,34304
9216,34304
9217,34240
9218,34176
9219,34176
9220,34240
9221,34240
9222,34176
9223,34240
9224,34304
9225,34240
9226,34176
9227,34112
9228,34112
9229,34048
9230,34048
9231,34112
9232,34176
9233,34112
9234,34112
9235,34112
9236,34176
9237,34240
9238,34368
9239,34432
9240,34496
9241,34560
9242,34560
9243,34560
9244,34688
9245,34880
9246,34944
9247,34944
9248,34944
9249,34944
9250,34944
9251,35008
9252,35072
9253,35008
9254,34816
9255,34496
9256,34240
9257,33920
9258,33664
9259,33536
9260,33472
9261,33472
9262,33472
9263,33472
9264,33536
9265,33600
9266,33664
9267,33728
9268,33792
9269,33856
9270,33984
9271,34048
9272,34048
9273,34048
9274,34048
9275,33984
9276,34048
9277,34432
9278,35072
9279,35840
9280,36992
9281,38400
9282,40000
9283,41152
9284,41152
9285,39808
9286,37760
9287,35648
9288,33856
9289,32640
9290,32000
9291,31808
9292,31808
9293,31936
9294,32128
9295,32384
9296,32640
9297,32832
9298,32960
9299,33088
9300,33216
9301,33280
9302,33280
9303,33344
9304,33344
9305,33344
9306,33408
9307,33472
9308,33536
9309,33600
9310,33728
9311,33792
9312,33728
9313,33728
9314,33728
9315,33856
9316,33920
9317,33984
9318,34048
9319,34112
9320,34176
9321,34112
9322,34112
9323,34176
9324,34240
9325,34240
9326,34240
9327,34304
9328,34368
9329,34368
9330,34368
9331,34432
9332,34432
9333,34432
9334,34496
9335,34496
9336,34560
9337,34624
9338,34624
9339,34752
9340,34816
9341,34816
9342,34816
9343,34752
9344,34752
9345,34752
9346,34816
9347,34880
9348,34944
9349,34880
9350,34816
9351,34688
9352,34624
9353,34624
9354,34560
9355,34432
9356,34304
9357,34240
9358,34112
9359,33984
9360,33856
9361,33728
9362,33664
9363,33600
9364,33600
9365,33728
9366,33792
9367,33792
9368,33792
9369,33856
9370,33856
9371,33792
9372,33792
9373,33920
9374,33984
9375,33984
9376,33984
9377,34048
9378,34112
9379,34112
9380,34048
9381,34112
9382,34176
9383,34176
9384,34176
9385,34240
9386,34240
9387,34176
9388,34112
9389,34048
9390,34112
9391,34176
9392,34176
9393,34176
9394,34112
9395,34112
9396,34112
9397,34112
9398,34176
9399,34240
9400,34240
9401,34112
9402,34112
9403,34112
9404,34048
9405,34048
9406,34048
9407,34112
9408,34112
9409,34112
9410,34048
9411,34048
9412,34048
9413,33984
9414,34048
9415,34176
9416,34176
9417,34176
9418,34112
9419,34048
9420,34048
9421,34048
9422,34112
9423,34112
9424,34176
9425,34048
9426,33984
9427,33984
9428,33984
9429,34048
9430,34048
9431,34112
9432,34112
9433,34048
9434,34048
9435,34112
9436,34176
9437,34304
9438,34432
9439,34560
9440,34688
9441,34752
9442,34752
9443,34880
9444,35008
9445,34944
9446,34816
9447,34688
9448,34752
9449,34752
9450,34752
9451,34752
9452,34688
9453,34432
9454,34112
9455,33792
9456,33600
9457,33536
9458,33472
9459,33408
9460,33472
9461,33536
9462,33600
9463,33600
9464,33664
9465,33664
9466,33728
9467,33792
9468,33856
9469,33984
9470,34048
9471,34048
9472,34048
9473,34112
9474,34112
9475,34240
9476,34560
9477,35136
9478,36032
9479,37056
9480,38336
9481,39808
9482,41088
9483,41280
9484,40128
9485,38144
9486,36032
9487,34176
9488,32768
9489,32064
9490,31744
9491,31744
9492,31744
9493,31936
9494,32192
9495,32448
9496,32576
9497,32704
9498,32896
9499,33088
9500,33280
9501,33408
9502,33472
9503,33472
9504,33472
9505,33536
9506,33664
9507,33792
9508,33856
9509,33856
9510,33856
9511,33856
9512,33856
9513,33856
9514,33856
9515,33984
9516,33984
9517,33984
9518,34048
9519,34112
9520,34112
9521,34048
9522,34048
9523,34112
9524,34112
9525,34176
9526,34176
9527,34304
9528,34368
9529,34368
9530,34368
9531,34432
9532,34560
9533,34624
9534,34688
9535,34688
9536,34752
9537,34752
9538,34752
9539,34752
9540,34816
9541,34752
9542,34688
9543,34688
9544,34752
9545,34816
9546,34816
9547,34880
9548,34944
9549,34880
9550,34752
9551,34624
9552,34560
9553,34432
9554,34304
9555,34112
9556,34048
9557,34048
9558,33984
9559,33920
9560,33920
9561,33984
9562,33920
9563,33856
9564,33792
9565,33792
9566,33856
9567,33792
9568,33792
9569,33856
9570,33920
9571,33920
9572,33920
9573,33920
9574,33920
9575,33920
9576,33920
9577,33984
9578,33984
9579,33984
9580,33984
9581,34048
9582,34176
9583,34176
9584,34176
9585,34176
9586,34240
9587,34240
9588,34240
9589,34304
9590,34368
9591,34368
9592,34240
9593,34176
9594,34176
9595,34240
9596,34176
9597,34176
9598,34240
9599,34240
9600,34112
9601,34112
9602,34176
9603,34240
9604,34240
9605,34176
9606,34176
9607,34240
9608,34240
9609,34240
9610,34240
9611,34240
9612,34240
9613,34240
9614,34240
9615,34176
9616,34176
9617,34112
9618,34176
9619,34176
9620,34176
9621,34112
9622,34176
9623,34240
9624,34304
9625,34176
9626,34112
9627,34112
9628,34112
9629,34112
9630,34112
9631,34112
9632,34176
9633,34176
9634,34112
9635,34176
9636,34176
9637,34112
9638,34112
9639,34112
9640,34240
9641,34304
9642,34304
9643,34432
9644,34624
9645,34688
9646,34688
9647,34688
9648,34752
9649,34816
9650,34816
9651,34880
9652,34944
9653,34944
9654,34944
9655,34944
9656,34944
9657,34944
9658,34816
9659,34496
9660,34176
9661,33984
9662,33728
9663,33600
9664,33536
9665,33600
9666,33600
9667,33600
9668,33536
9669,33600
9670,33664
9671,33664
9672,33664
9673,33728
9674,33792
9675,33856
9676,33920
9677,33984
9678,34048
9679,34048
9680,33920
9681,33984
9682,34304
9683,34880
9684,35648
9685,36800
9686,38272
9687,39808
9688,41024
9689,41344
9690,40320
9691,38400
9692,36096
9693,34176
9694,32896
9695,32192
9696,31872
9697,31808
9698,31872
9699,32000
9700,32128
9701,32320
9702,32576
9703,32832
9704,33024
9705,33152
9706,33344
9707,33472
9708,33536
9709,33536
9710,33600
9711,33728
9712,33792
9713,33856
9714,33856
9715,33856
9716,33792
9717,33792
9718,33792
9719,33856
9720,33920
9721,33856
9722,33792
9723,33856
9724,33920
9725,33920
9726,33920
9727,33984
9728,34048
9729,34048
9730,34048
9731,34112
9732,34240
9733,34304
9734,34240
9735,34304
9736,34368
9737,34368
9738,34368
9739,34368
9740,34432
9741,34496
9742,34496
9743,34560
9744,34624
9745,34688
9746,34624
9747,34560
9748,34624
9749,34688
9750,34752
9751,34688
9752,34688
9753,34688
9754,34688
9755,34624
9756,34624
9757,34560
9758,34432
9759,34304
9760,34176
9761,34176
9762,34112
9763,33920
9764,33856
9765,33856
9766,33856
9767,33728
9768,33664
9769,33728
9770,33728
9771,33728
9772,33728
9773,33728
9774,33728
9775,33792
9776,33792
9777,33856
9778,33920
9779,33856
9780,33792
9781,33728
9782,33728
9783,33728
9784,33728
9785,33792
9786,33856
9787,33920
9788,33920
9789,33856
9790,33984
9791,33984
9792,33984
9793,34112
9794,34240
9795,34304
9796,34304
9797,34368
9798,34496
9799,34496
9800,34560
9801,34560
9802,34496
9803,34496
9804,34432
9805,34304
9806,34240
9807,34176
9808,34176
9809,34048
9810,33984
9811,33984
9812,33984
9813,33856
9814,33856
9815,33920
9816,33984
9817,33984
9818,33920
9819,33984
9820,34048
9821,34048
9822,34112
9823,34176
9824,34240
9825,34240
9826,34240
9827,34240
9828,34240
9829,34240
9830,34176
9831,34240
9832,34176
9833,34112
9834,33984
9835,33984
9836,34112
9837,34176
9838,34176
9839,34240
9840,34368
9841,34432
9842,34368
9843,34304
9844,34240
9845,34240
9846,34176
9847,34176
9848,34176
9849,34176
9850,34176
9851,34176
9852,34304
9853,34496
9854,34560
9855,34624
9856,34560
9857,34624
9858,34624
9859,34688
9860,34752
9861,34880
9862,34944
9863,34880
9864,34880
9865,35008
9866,35008
9867,34880
9868,34688
9869,34432
9870,34112
9871,33856
9872,33728
9873,33664
9874,33600
9875,33600
9876,33536
9877,33536
9878,33600
9879,33664
9880,33728
9881,33792
9882,33920
9883,33920
9884,33920
9885,33920
9886,33984
9887,34048
9888,33920
9889,33920
9890,34048
9891,34432
9892,35072
9893,35840
9894,36928
9895,38976
9896,39872
9897,41024
9898,41344
9899,40384
9900,38336
9901,36096
9902,34048
9903,32832
9904,32064
9905,31744
9906,31744
9907,31936
9908,32064
9909,32192
9910,32512
9911,32640
9912,32832
9913,32960
9914,33024
9915,33152
9916,33280
9917,33344
9918,33408
9919,33536
9920,33664
9921,33728
9922,33792
9923,33856
9924,33920
9925,33920
9926,33856
9927,33920
9928,33984
9929,33984
9930,33920
9931,33856
9932,33920
9933,33920
9934,33920
9935,33984
9936,34112
9937,34112
9938,34048
9939,34112
9940,34176
9941,34240
9942,34240
9943,34240
9944,34368
9945,34496
9946,34560
9947,34560
9948,34624
9949,34688
9950,34688
9951,34688
9952,34752
9953,34816
9954,34880
9955,34880
9956,34880
9957,34944
9958,34880
9959,34880
9960,34880
9961,34880
9962,34816
9963,34752
9964,34752
9965,34752
9966,34688
9967,34560
9968,34496
9969,34432
9970,34368
9971,34304
9972,34176
9973,33984
9974,33856
9975,33792
9976,33664
9977,33600
9978,33600
9979,33600
9980,33600
9981,33664
9982,33792
9983,33920
9984,33920
9985,33920
9986,33920
9987,33920
9988,33920
9989,33920
9990,33920
9991,33984
9992,34048
9993,33984
9994,33984
9995,34048
9996,34048
9997,34112
9998,34176
9999,34240
10000,34240
10001,34176
10002,34304
10003,34304
10004,34304
10005,34240
10006,34240
10007,34240
10008,34176
10009,34112
10010,34048
10011,34176
10012,34240
10013,34240
10014,34176
10015,34176
10016,34176
10017,34176
10018,34112
10019,33984
10020,34048
10021,34112
10022,34176
10023,34240
10024,34240
10025,34176
10026,34112
10027,33984
10028,34048
10029,34048
10030,34048
10031,34048
10032,34048
10033,34112
10034,34112
10035,34048
10036,34112
10037,34176
10038,34176
10039,34240
10040,34240
10041,34240
10042,34176
10043,34112
10044,34112
10045,34240
10046,34176
10047,34048
10048,34048
10049,34112
10050,34112
10051,34112
10052,34176
10053,34176
10054,34176
10055,34112
10056,34112
10057,34176
10058,34176
10059,34176
10060,34304
10061,34304
10062,34432
10063,34560
10064,34688
10065,34688
10066,34624
10067,34560
10068,34688
10069,34816
10070,35008
10071,35136
10072,35136
10073,35072
10074,35008
10075,35008
10076,34880
10077,34752
10078,34496
10079,34176
10080,33856
10081,33664
10082,33600
10083,33472
10084,33408
10085,33408
10086,33472
10087,33472
10088,33472
10089,33600
10090,33792
10091,33920
10092,33920
10093,33984
10094,34048
10095,33984
10096,33984
10097,33920
10098,33920
10099,33920
10100,34048
10101,34368
10102,35008
10103,35840
10104,36928
10105,38208
10106,39680
10107,40960
10108,41344
10109,40192
10110,38144
10111,35904
10112,33984
10113,32640
10114,31872
10115,31680
10116,31616
10117,31744
10118,31936
10119,32256
10120,32640
10121,32704
10122,32832
10123,33024
10124,33216
10125,33280
10126,33280
10127,33344
10128,33472
10129,33600
10130,33600
10131,33664
10132,33728
10133,33856
10134,33856
10135,33920
10136,33920
10137,33984
10138,33984
10139,34048
10140,34048
10141,33984
10142,33984
10143,33984
10144,33984
10145,33984
10146,34048
10147,34112
10148,34112
10149,34176
10150,34112
10151,34048
10152,34112
10153,34240
10154,34368
10155,34432
10156,34496
10157,34496
10158,34432
10159,34368
10160,34368
10161,34496
10162,34496
10163,34560
10164,34624
10165,34752
10166,34880
10167,34816
10168,34816
10169,34816
10170,34816
10171,34752
10172,34688
10173,34752
10174,34688
10175,34624
10176,34560
10177,34560
10178,34496
10179,34432
10180,34368
10181,34304
10182,34240
10183,34112
10184,33984
10185,33920
10186,33920
10187,33920
10188,33856
10189,33856
10190,33792
10191,33792
10192,33792
10193,33728
10194,33792
10195,33728
10196,33728
10197,33664
10198,33664
10199,33728
10200,33792
10201,33856
10202,34048
10203,34176
10204,34176
10205,34112
10206,34048
10207,34048
10208,34048
10209,34048
10210,34048
10211,34176
10212,34176
10213,34112
10214,34112
10215,34176
10216,34240
10217,34240
10218,34176
10219,34176
10220,34176
10221,34176
10222,34176
10223,34240
10224,34304
10225,34304
10226,34240
10227,34240
10228,34240
10229,34176
10230,34112
10231,34112
10232,34112
10233,34048
10234,33984
10235,33984
10236,34048
10237,34112
10238,34048
10239,33984
10240,34048
10241,34112
10242,34112
10243,34112
10244,34048
10245,33984
10246,33984
10247,33984
10248,34048
10249,34112
10250,34112
10251,34048
10252,34048
10253,34112
10254,34176
10255,34176
10256,34176
10257,34176
10258,34112
10259,34048
10260,34048
10261,34112
10262,34176
10263,34176
10264,34176
10265,34112
10266,34112
10267,34176
10268,34304
10269,34368
10270,34624
10271,34752
10272,34816
10273,34816
10274,34880
10275,34816
10276,34816
10277,34880
10278,34944
10279,34944
10280,34880
10281,35008
10282,35072
10283,35008
10284,34816
10285,34496
10286,34304
10287,34048
10288,33664
10289,33536
10290,33600
10291,33600
10292,33664
10293,33664
10294,33664
10295,33728
10296,33664
10297,33664
10298,33600
10299,33728
10300,33792
10301,33856
10302,33920
10303,34048
10304,33984
10305,33920
10306,33920
10307,34112
10308,34688
10309,35392
10310,36480
10311,38016
10312,39616
10313,40960
10314,41472
10315,40704
10316,38720
10317,36416
10318,34368
10319,32896
10320,32128
10321,31744
10322,31744
10323,31808
10324,32064
10325,32128
10326,32320
10327,32576
10328,32896
10329,33152
10330,33280
10331,33408
10332,33536
10333,33536
10334,33536
10335,33600
10336,33664
10337,33728
10338,33728
10339,33856
10340,33920
10341,33920
10342,33792
10343,33728
10344,33792
10345,33856
10346,33920
10347,33920
10348,33920
10349,33920
10350,33920
10351,33920
10352,33984
10353,34048
10354,34048
10355,33984
10356,34112
10357,34240
10358,34368
10359,34368
10360,34432
10361,34624
10362,34688
10363,34752
10364,34688
10365,34752
10366,34752
10367,34560
10368,34624
10369,34752
10370,34752
10371,34688
10372,34624
10373,34752
10374,34880
10375,34816
10376,34688
10377,34752
10378,34816
10379,34880
10380,34816
10381,34752
10382,34688
10383,34624
10384,34560
10385,34560
10386,34560
10387,34432
10388,34240
10389,34048
10390,33920
10391,33856
10392,33728
10393,33728
10394,33728
10395,33728
10396,33728
10397,33792
10398,33920
10399,33984
10400,34048
10401,34048
10402,34176
10403,34176
10404,34112
10405,33920
10406,33856
10407,33792
10408,33792
10409,33792
10410,33728
10411,33792
10412,33920
10413,34048
10414,34176
10415,34304
10416,34368
10417,34368
10418,34304
10419,34304
10420,34304
10421,34240
10422,34240
10423,34240
10424,34176
10425,34112
10426,34112
10427,34112
10428,34176
10429,34176
10430,34176
10431,34112
10432,34112
10433,34048
10434,34112
10435,34176
10436,34240
10437,34240
10438,34240
10439,34176
10440,34112
10441,34048
10442,33920
10443,33920
10444,34048
10445,34176
10446,34112
10447,34112
10448,34112
10449,34176
10450,34176
10451,34176
10452,34176
10453,34240
10454,34176
10455,34112
10456,34112
10457,34112
10458,34048
10459,33984
10460,33984
10461,33984
10462,33984
10463,33920
10464,33984
10465,34112
10466,34176
10467,34176
10468,34176
10469,34240
10470,34176
10471,34176
10472,34240
10473,34432
10474,34624
10475,34688
10476,34688
10477,34624
10478,34688
10479,34752
10480,34752
10481,34816
10482,34880
10483,34880
10484,34880
10485,34880
10486,34816
10487,34688
10488,34368
10489,34112
10490,33920
10491,33856
10492,33792
10493,33728
10494,33728
10495,33728
10496,33664
10497,33664
10498,33728
10499,33792
10500,33792
10501,33792
10502,33792
10503,33856
10504,33920
10505,33920
10506,33984
10507,33920
10508,33856
10509,33856
10510,34112
10511,34688
10512,35328
10513,36288
10514,37568
10515,39168
10516,40640
10517,41472
10518,40896
10519,39104
10520,36992
10521,35008
10522,33408
10523,32448
10524,31936
10525,31808
10526,31872
10527,32064
10528,32192
10529,32384
10530,32512
10531,32704
10532,32896
10533,33088
10534,33152
10535,33280
10536,33408
10537,33472
10538,33472
10539,33536
10540,33600
10541,33664
10542,33664
10543,33728
10544,33856
10545,33920
10546,33984
10547,33984
10548,33984
10549,34048
10550,34048
10551,34048
10552,34112
10553,34176
10554,34176
10555,34240
10556,34240
10557,34304
10558,34240
10559,34176
10560,34112
10561,34176
10562,34240
10563,34304
10564,34368
10565,34432
10566,34496
10567,34560
10568,34560
10569,34624
10570,34688
10571,34688
10572,34688
10573,34752
10574,34816
10575,34816
10576,34816
10577,34816
10578,34880
10579,34880
10580,34816
10581,34752
10582,34752
10583,34816
10584,34752
10585,34688
10586,34688
10587,34688
10588,34624
10589,34624
10590,34624
10591,34560
10592,34368
10593,34176
10594,34112
10595,33984
10596,33856
10597,33792
10598,33728
10599,33792
10600,33728
10601,33728
10602,33792
10603,33856
10604,33920
10605,33920
10606,33920
10607,33984
10608,34048
10609,33984
10610,34048
10611,34112
10612,34176
10613,34176
10614,34240
10615,34368
10616,34432
10617,34432
10618,34432
10619,34368
10620,34368
10621,34368
10622,34304
10623,34304
10624,34304
10625,34304
10626,34304
10627,34368
10628,34304
10629,34176
10630,34048
10631,34048
10632,34048
10633,34112
10634,34048
10635,34048
10636,34176
10637,34240
10638,34240
10639,34240
10640,34240
10641,34304
10642,34304
10643,34304
10644,34304
10645,34304
10646,34240
10647,34176
10648,34112
10649,34112
10650,34176
10651,34176
10652,34240
10653,34304
10654,34368
10655,34304
10656,34304
10657,34304
10658,34368
10659,34432
10660,34496
10661,34624
10662,34624
10663,34560
10664,34496
10665,34560
10666,34688
10667,34816
10668,34816
10669,34880
10670,34944
10671,34880
10672,34880
10673,34880
10674,34880
10675,34752
10676,34496
10677,34240
10678,33984
10679,33792
10680,33600
10681,33536
10682,33600
10683,33728
10684,33728
10685,33728
10686,33792
10687,33920
10688,33984
10689,33984
10690,34048
10691,34048
10692,33984
10693,33920
10694,33920
10695,33984
10696,33856
10697,33728
10698,33856
10699,34240
10700,34816
10701,35648
10702,36864
10703,38400
10704,40064
10705,41280
10706,41344
10707,40000
10708,37888
10709,35712
10710,33984
10711,32768
10712,32128
10713,31808
10714,31744
10715,31936
10716,32192
10717,32384
10718,32576
10719,32768
10720,32896
10721,33024
10722,33152
10723,33280
10724,33408
10725,33536
10726,33600
10727,33728
10728,33792
10729,33856
10730,33792
10731,33856
10732,33856
10733,33920
10734,33920
10735,33920
10736,34048
10737,34048
10738,34048
10739,33984
10740,33984
10741,33984
10742,33920
10743,33984
10744,33984
10745,34112
10746,34112
10747,34176
10748,34176
10749,34304
10750,34368
10751,34496
10752,34560
10753,34688
10754,34688
10755,34624
10756,34560
10757,34560
10758,34624
10759,34560
10760,34560
10761,34688
10762,34752
10763,34752
10764,35008
10765,35072
10766,35072
10767,34944
10768,34816
10769,34688
10770,34624
10771,34496
10772,34432
10773,34496
10774,34432
10775,34368
10776,34240
10777,34240
10778,34176
10779,34112
10780,34048
10781,34048
10782,33984
10783,33920
10784,33856
10785,33856
10786,33856
10787,33792
10788,33600
10789,33664
10790,33728
10791,33728
10792,33728
10793,33728
10794,33920
10795,33920
10796,33856
10797,33984
10798,34048
10799,34176
10800,34240
10801,34176
10802,34176
10803,34112
10804,34048
10805,34048
10806,34176
10807,34176
10808,34112
10809,34048
10810,34112
10811,34112
10812,34304
10813,34176
10814,34112
10815,34048
10816,34112
10817,34048
10818,34176
10819,34240
10820,34304
10821,34240
10822,34240
10823,34240
10824,34176
10825,34176
10826,34240
10827,34240
10828,34176
10829,34112
10830,34048
10831,34048
10832,34048
10833,33984
10834,33920
10835,33984
10836,34112
10837,34112
10838,34112
10839,34048
10840,34048
10841,34112
10842,34176
10843,34304
10844,34432
10845,34496
10846,34560
10847,34560
10848,34624
10849,34624
10850,34688
10851,34816
10852,34944
10853,35008
10854,34944
10855,34944
10856,35008
10857,34944
10858,34816
10859,34688
10860,34560
10861,34304
10862,33984
10863,33728
10864,33664
10865,33600
10866,33600
10867,33664
10868,33792
10869,33856
10870,33856
10871,33856
10872,33920
10873,34048
10874,34112
10875,34048
10876,34112
10877,34176
10878,34176
10879,33984
10880,33920
10881,33856
10882,33920
10883,34176
10884,34816
10885,35648
10886,36800
10887,38016
10888,39488
10889,40768
10890,41216
10891,40128
10892,38272
10893,36160
10894,34368
10895,33024
10896,32256
10897,32000
10898,32000
10899,32064
10900,32256
10901,32384
10902,32640
10903,32832
10904,32960
10905,33088
10906,33280
10907,33408
10908,33472
10909,33472
10910,33600
10911,33600
10912,33600
10913,33664
10914,33728
10915,33792
10916,33856
10917,33920
10918,33984
10919,34048
10920,34048
10921,34048
10922,34112
10923,34112
10924,34048
