,ECG
0,31040
1,30848
2,30784
3,30848
4,31104
5,31488
6,31808
7,32064
8,32128
9,32000
10,31936
11,32064
12,32320
13,32704
14,32896
15,32960
16,33088
17,33280
18,33344
19,33088
20,32960
21,32896
22,32704
23,32384
24,32192
25,32320
26,32448
27,32704
28,32896
29,33152
30,33344
31,33536
32,33728
33,33920
34,33984
35,33984
36,34048
37,34240
38,34560
39,34816
40,35008
41,35008
42,34944
43,34816
44,34688
45,34560
46,34496
47,34304
48,34048
49,33664
50,33216
51,32832
52,32576
53,32448
54,32448
55,32640
56,32576
57,32512
58,32384
59,32384
60,32384
61,32448
62,32512
63,32640
64,32640
65,32704
66,32768
67,33216
68,34048
69,35520
70,37632
71,40448
72,43520
73,46208
74,47168
75,45376
76,41856
77,37952
78,34240
79,30976
80,28800
81,27712
82,27584
83,28032
84,28736
85,29504
86,30272
87,30976
88,31552
89,32000
90,32256
91,32448
92,32704
93,32896
94,33152
95,33472
96,33728
97,33728
98,33472
99,33216
100,33152
101,33152
102,33280
103,33536
104,33920
105,34048
106,33984
107,33920
108,33984
109,34112
110,34112
111,34112
112,34176
113,34432
114,34752
115,34944
116,35072
117,35072
118,35072
119,35200
120,35456
121,35648
122,35776
123,35904
124,36032
125,36096
126,36224
127,36224
128,36160
129,36224
130,36224
131,36416
132,36608
133,36544
134,36352
135,36288
136,36224
137,35840
138,35072
139,34240
140,33472
141,32832
142,32384
143,32192
144,32064
145,32000
146,31872
147,31744
148,31680
149,31680
150,31616
151,31616
152,31680
153,31808
154,32000
155,32064
156,32128
157,32128
158,32128
159,32256
160,32576
161,32832
162,32832
163,32768
164,32768
165,32768
166,32832
167,33088
168,33280
169,33280
170,33216
171,33280
172,33280
173,33344
174,33408
175,33472
176,33664
177,33984
178,34048
179,34112
180,33984
181,33984
182,34176
183,34368
184,34624
185,34880
186,35008
187,35136
188,35328
189,35392
190,35328
191,35200
192,35072
193,34880
194,34432
195,33856
196,33216
197,32768
198,32448
199,32320
200,32256
201,32320
202,32448
203,32640
204,32704
205,32704
206,32768
207,32960
208,33152
209,33280
210,33344
211,33152
212,32960
213,33024
214,33536
215,34752
216,36608
217,39104
218,42176
219,45248
220,47488
221,47232
222,44224
223,39936
224,35584
225,31936
226,29376
227,28096
228,27840
229,28224
230,28928
231,29696
232,30272
233,30784
234,31168
235,31424
236,31616
237,31808
238,32000
239,32256
240,32512
241,32768
242,33024
243,33088
244,33088
245,33024
246,33024
247,33088
248,33344
249,33536
250,33728
251,33792
252,33792
253,33728
254,33728
255,33792
256,33984
257,34048
258,34112
259,34368
260,34560
261,34752
262,34880
263,35008
264,35200
265,35392
266,35520
267,35584
268,35776
269,35904
270,35968
271,35904
272,35840
273,35840
274,35968
275,36160
276,36352
277,36416
278,36352
279,36160
280,36032
281,35776
282,35520
283,35200
284,34880
285,34496
286,34112
287,33664
288,33280
289,32832
290,32384
291,32064
292,31808
293,31616
294,31552
295,31552
296,31744
297,31872
298,31936
299,32000
300,32064
301,32064
302,32000
303,32128
304,32128
305,32192
306,32256
307,32448
308,32576
309,32704
310,32832
311,33024
312,33152
313,33280
314,33408
315,33600
316,33728
317,33856
318,33920
319,34048
320,34048
321,34048
322,34048
323,34112
324,34304
325,34688
326,35072
327,35264
328,35392
329,35328
330,35264
331,35520
332,35776
333,35712
334,35264
335,34432
336,33536
337,32640
338,32128
339,32000
340,32000
341,32064
342,32128
343,32192
344,32320
345,32448
346,32448
347,32448
348,32704
349,32960
350,33216
351,33408
352,33536
353,33664
354,33920
355,34624
356,35776
357,37568
358,40064
359,43328
360,46144
361,47680
362,46592
363,43264
364,39040
365,34944
366,31552
367,29184
368,27840
369,27392
370,27776
371,28608
372,29504
373,30272
374,31040
375,32000
376,32960
377,33344
378,33344
379,33344
380,33792
381,34240
382,34112
383,33920
384,33984
385,33856
386,33344
387,32768
388,32384
389,32000
390,31936
391,32192
392,32960
393,33728
394,34112
395,34304
396,34560
397,34560
398,34496
399,34624
400,34944
401,35392
402,35968
403,36416
404,36224
405,35584
406,34944
407,34688
408,34688
409,34880
410,35200
411,35520
412,35712
413,35776
414,35840
415,35968
416,36032
417,36096
418,36416
419,36736
420,36672
421,36480
422,36416
423,36224
424,35648
425,34880
426,34304
427,34048
428,33856
429,33536
430,32896
431,32128
432,31744
433,31744
434,31744
435,31680
436,31552
437,31680
438,32000
439,32448
440,32896
441,33152
442,32896
443,32448
444,32512
445,33024
446,33408
447,33216
448,32832
449,32640
450,32768
451,32896
452,32960
453,32960
454,33024
455,33152
456,33344
457,33728
458,33920
459,33856
460,33856
461,34240
462,34688
463,34880
464,35072
465,35200
466,35200
467,34880
468,34432
469,34176
470,34432
471,34944
472,35200
473,35072
474,34944
475,34944
476,34944
477,34944
478,34816
479,34304
480,33472
481,32576
482,32000
483,31744
484,31680
485,31872
486,32000
487,32128
488,32192
489,32512
490,32768
491,32896
492,32896
493,32896
494,33024
495,33088
496,33280
497,33408
498,33600
499,34432
500,35712
501,37376
502,39488
503,42368
504,45568
505,48000
506,47744
507,44352
508,39744
509,35072
510,31296
511,28864
512,27712
513,27456
514,27904
515,28608
516,29568
517,30720
518,31680
519,32064
520,32128
521,32384
522,32832
523,33216
524,33344
525,33344
526,33344
527,33344
528,33024
529,32512
530,32128
531,32128
532,32384
533,32640
534,33024
535,33344
536,33600
537,33792
538,33920
539,34432
540,34944
541,35328
542,35520
543,35712
544,35584
545,34880
546,34240
547,34304
548,34496
549,34560
550,34624
551,34816
552,35072
553,35264
554,35392
555,35584
556,35904
557,36032
558,36032
559,35840
560,35904
561,36032
562,36096
563,36224
564,36224
565,35840
566,35328
567,34944
568,34880
569,34816
570,34688
571,34304
572,33984
573,33600
574,33280
575,33024
576,32704
577,32384
578,32000
579,31744
580,31488
581,31424
582,31616
583,31872
584,31872
585,31872
586,31936
587,32128
588,32256
589,32320
590,32384
591,32384
592,32320
593,32512
594,32704
595,33024
596,33280
597,33408
598,33472
599,33472
600,33280
601,33152
602,33216
603,33280
604,33472
605,33600
606,33536
607,33600
608,33984
609,34368
610,34432
611,34240
612,34368
613,35200
614,35968
615,35840
616,35136
617,34560
618,34112
619,34048
620,34048
621,34112
622,34176
623,34176
624,34048
625,33664
626,33280
627,32960
628,32576
629,32448
630,32704
631,32960
632,33088
633,33024
634,33152
635,33408
636,33536
637,33280
638,32896
639,32576
640,32384
641,32320
642,32128
643,32000
644,32256
645,32896
646,33920
647,35520
648,37952
649,41088
650,44544
651,47808
652,49280
653,47616
654,43392
655,38528
656,34048
657,30528
658,28352
659,27392
660,27264
661,27648
662,28352
663,29312
664,30272
665,31104
666,31744
667,32192
668,32704
669,33344
670,33920
671,34112
672,33856
673,33856
674,34048
675,33792
676,32960
677,32448
678,32192
679,32192
680,32384
681,32704
682,33152
683,33472
684,33728
685,34048
686,34560
687,35264
688,35904
689,36352
690,36544
691,36416
692,35904
693,35328
694,34688
695,34496
696,34240
697,34240
698,34560
699,34880
700,35072
701,35264
702,35520
703,35712
704,35904
705,36096
706,36224
707,36352
708,36288
709,36352
710,36224
711,36160
712,36544
713,36864
714,36288
715,35264
716,34496
717,34112
718,33600
719,33024
720,32576
721,32384
722,32384
723,32192
724,31872
725,31744
726,31616
727,31616
728,31552
729,31616
730,31680
731,31744
732,31872
733,31872
734,32064
735,32320
736,32512
737,32640
738,32832
739,33024
740,33088
741,33088
742,33152
743,33088
744,33024
745,33024
746,33152
747,33280
748,33280
749,33280
750,33216
751,33216
752,33216
753,33408
754,33536
755,33600
756,33664
757,33728
758,33856
759,33920
760,33984
761,34048
762,34112
763,34176
764,34432
765,34688
766,34816
767,34880
768,34944
769,35072
770,35072
771,35008
772,34880
773,34624
774,34368
775,33984
776,33536
777,33152
778,32832
779,32576
780,32448
781,32448
782,32576
783,32576
784,32576
785,32576
786,32640
787,32704
788,32832
789,32960
790,33024
791,33024
792,32832
793,32704
794,32832
795,33536
796,34880
797,36864
798,39488
799,42560
800,45696
801,47360
802,46592
803,43648
804,39872
805,35968
806,32576
807,30080
808,28736
809,28352
810,28352
811,28800
812,29568
813,30400
814,31040
815,31552
816,32000
817,32256
818,32384
819,32512
820,32704
821,32768
822,32896
823,33088
824,33216
825,33344
826,33472
827,33600
828,33600
829,33600
830,33664
831,33728
832,33792
833,33984
834,34112
835,34240
836,34304
837,34368
838,34432
839,34496
840,34496
841,34688
842,34944
843,35072
844,35200
845,35328
846,35392
847,35392
848,35392
849,35456
850,35584
851,35776
852,35840
853,35904
854,35776
855,35648
856,35648
857,35648
858,35648
859,35584
860,35392
861,35264
862,35200
863,35136
864,35072
865,34816
866,34496
867,34176
868,33920
869,33600
870,33216
871,32832
872,32384
873,32064
874,31808
875,31552
876,31488
877,31552
878,31616
879,31616
880,31616
881,31744
882,31936
883,32064
884,32256
885,32320
886,32512
887,32768
888,32896
889,32960
890,33024
891,33152
892,33216
893,33280
894,33280
895,33344
896,33408
897,33408
898,33472
899,33536
900,33600
901,33664
902,33728
903,33920
904,33984
905,34112
906,34176
907,34176
908,34240
909,34368
910,34496
911,34688
912,34880
913,35072
914,35200
915,35264
916,35328
917,35200
918,34944
919,34560
920,34112
921,33600
922,33280
923,32960
924,32704
925,32576
926,32512
927,32512
928,32576
929,32704
930,32832
931,32896
932,32960
933,33088
934,33088
935,33088
936,32960
937,32832
938,32704
939,32960
940,33920
941,35456
942,37440
943,39936
944,42688
945,45056
946,45824
947,44160
948,41280
949,38208
950,35200
951,32512
952,30400
953,29056
954,28480
955,28544
956,28992
957,29568
958,30336
959,31040
960,31744
961,32128
962,32384
963,32512
964,32640
965,32832
966,32896
967,33024
968,33088
969,33216
970,33344
971,33472
972,33536
973,33600
974,33664
975,33728
976,33792
977,33856
978,33984
979,34048
980,34176
981,34240
982,34368
983,34432
984,34560
985,34624
986,34752
987,34816
988,34880
989,34944
990,35008
991,35072
992,35136
993,35200
994,35328
995,35456
996,35520
997,35584
998,35648
999,35712
1000,35712
1001,35648
1002,35584
1003,35520
1004,35456
1005,35392
1006,35264
1007,35200
1008,35136
1009,35008
1010,34752
1011,34496
1012,34176
1013,33920
1014,33600
1015,33280
1016,32960
1017,32768
1018,32640
1019,32448
1020,32320
1021,32320
1022,32320
1023,32320
1024,32384
1025,32512
1026,32576
1027,32576
1028,32640
1029,32768
1030,32960
1031,33024
1032,33088
1033,33088
1034,33152
1035,33152
1036,33216
1037,33280
1038,33280
1039,33280
1040,33344
1041,33408
1042,33472
1043,33536
1044,33536
1045,33536
1046,33600
1047,33664
1048,33728
1049,33792
1050,33856
1051,33920
1052,34112
1053,34304
1054,34368
1055,34432
1056,34368
1057,34432
1058,34496
1059,34688
1060,34816
1061,34944
1062,35008
1063,35072
1064,35008
1065,34816
1066,34624
1067,34240
1068,33792
1069,33344
1070,32896
1071,32704
1072,32640
1073,32576
1074,32640
1075,32704
1076,32704
1077,32832
1078,32960
1079,33088
1080,33152
1081,33088
1082,33024
1083,32960
1084,32832
1085,32704
1086,32896
1087,33600
1088,34944
1089,36800
1090,39168
1091,42112
1092,44992
1093,46912
1094,46592
1095,43776
1096,40128
1097,36288
1098,32704
1099,30080
1100,28608
1101,28160
1102,28416
1103,28928
1104,29696
1105,30464
1106,31040
1107,31552
1108,31936
1109,32256
1110,32448
1111,32640
1112,32896
1113,33024
1114,33088
1115,33216
1116,33280
1117,33344
1118,33408
1119,33472
1120,33600
1121,33664
1122,33792
1123,33792
1124,33856
1125,33856
1126,33984
1127,34112
1128,34240
1129,34368
1130,34496
1131,34560
1132,34624
1133,34752
1134,34880
1135,34944
1136,35072
1137,35200
1138,35328
1139,35456
1140,35584
1141,35712
1142,35840
1143,35904
1144,35904
1145,35904
1146,35904
1147,35904
1148,35904
1149,35904
1150,35776
1151,35712
1152,35584
1153,35520
1154,35392
1155,35264
1156,35072
1157,34880
1158,34624
1159,34368
1160,33984
1161,33664
1162,33280
1163,32960
1164,32704
1165,32448
1166,32320
1167,32192
1168,32000
1169,31872
1170,31872
1171,31872
1172,31936
1173,32000
1174,32064
1175,32128
1176,32256
1177,32384
1178,32512
1179,32704
1180,32832
1181,32960
1182,33024
1183,33024
1184,33088
1185,33152
1186,33216
1187,33344
1188,33408
1189,33472
1190,33408
1191,33472
1192,33472
1193,33472
1194,33536
1195,33600
1196,33664
1197,33856
1198,33984
1199,34112
1200,34176
1201,34304
1202,34304
1203,34432
1204,34560
1205,34816
1206,34944
1207,35008
1208,35072
1209,35072
1210,35008
1211,34816
1212,34560
1213,34048
1214,33472
1215,32960
1216,32704
1217,32512
1218,32448
1219,32448
1220,32448
1221,32576
1222,32640
1223,32768
1224,32896
1225,32960
1226,32960
1227,32960
1228,33024
1229,33024
1230,32896
1231,32832
1232,33088
1233,33920
1234,35328
1235,37376
1236,39872
1237,42816
1238,45632
1239,47232
1240,46144
1241,42880
1242,39168
1243,35328
1244,31936
1245,29568
1246,28416
1247,28160
1248,28480
1249,29120
1250,29888
1251,30592
1252,31168
1253,31616
1254,32000
1255,32192
1256,32384
1257,32576
1258,32768
1259,32896
1260,33024
1261,33088
1262,33216
1263,33280
1264,33344
1265,33408
1266,33472
1267,33600
1268,33664
1269,33792
1270,33920
1271,34048
1272,34112
1273,34176
1274,34304
1275,34432
1276,34560
1277,34624
1278,34752
1279,34816
1280,34880
1281,34944
1282,35072
1283,35200
1284,35264
1285,35328
1286,35392
1287,35520
1288,35648
1289,35776
1290,35840
1291,35968
1292,36032
1293,35968
1294,35968
1295,35904
1296,35904
1297,35776
1298,35712
1299,35584
1300,35456
1301,35264
1302,35008
1303,34752
1304,34496
1305,34112
1306,33728
1307,33408
1308,33024
1309,32640
1310,32384
1311,32128
1312,32000
1313,31872
1314,31744
1315,31744
1316,31808
1317,31808
1318,31936
1319,32000
1320,32128
1321,32320
1322,32448
1323,32576
1324,32768
1325,32896
1326,32896
1327,32960
1328,32960
1329,33024
1330,33024
1331,33088
1332,33152
1333,33216
1334,33280
1335,33344
1336,33408
1337,33472
1338,33536
1339,33536
1340,33664
1341,33728
1342,33856
1343,34048
1344,34176
1345,34304
1346,34240
1347,34176
1348,34176
1349,34240
1350,34432
1351,34688
1352,34816
1353,34880
1354,34944
1355,35008
1356,34944
1357,34816
1358,34560
1359,34176
1360,33664
1361,33216
1362,32832
1363,32576
1364,32448
1365,32448
1366,32640
1367,32768
1368,32832
1369,32768
1370,32768
1371,32768
1372,32768
1373,32832
1374,32896
1375,32896
1376,32832
1377,32768
1378,32832
1379,33408
1380,34560
1381,36288
1382,38720
1383,41664
1384,44608
1385,46784
1386,46848
1387,44352
1388,40576
1389,36672
1390,32768
1391,30336
1392,28736
1393,28160
1394,28288
1395,28864
1396,29504
1397,30208
1398,30784
1399,31296
1400,31680
1401,32000
1402,32256
1403,32448
1404,32640
1405,32768
1406,32960
1407,33088
1408,33152
1409,33216
1410,33280
1411,33408
1412,33536
1413,33600
1414,33664
1415,33792
1416,33920
1417,33984
1418,34048
1419,34112
1420,34176
1421,34240
1422,34368
1423,34560
1424,34752
1425,34880
1426,34944
1427,35008
1428,35072
1429,35136
1430,35264
1431,35392
1432,35520
1433,35584
1434,35648
1435,35712
1436,35840
1437,35840
1438,35904
1439,35840
1440,35840
1441,35840
1442,35840
1443,35776
1444,35648
1445,35520
1446,35392
1447,35264
1448,35072
1449,34880
1450,34624
1451,34304
1452,33920
1453,33600
1454,33344
1455,33024
1456,32768
1457,32448
1458,32192
1459,32000
1460,31872
1461,31872
1462,31936
1463,32000
1464,32000
1465,32000
1466,32000
1467,32128
1468,32192
1469,32320
1470,32512
1471,32640
1472,32704
1473,32832
1474,32960
1475,33024
1476,33152
1477,33216
1478,33344
1479,33472
1480,33536
1481,33472
1482,33408
1483,33344
1484,33408
1485,33600
1486,33728
1487,33920
1488,33984
1489,34048
1490,34048
1491,34112
1492,34176
1493,34304
1494,34432
1495,34624
1496,34816
1497,34944
1498,35072
1499,35072
1500,35072
1501,34944
1502,34688
1503,34304
1504,33856
1505,33408
1506,32960
1507,32640
1508,32448
1509,32448
1510,32448
1511,32384
1512,32448
1513,32576
1514,32640
1515,32704
1516,32768
1517,32896
1518,32960
1519,32896
1520,32768
1521,32704
1522,32768
1523,33344
1524,34496
1525,36352
1526,38848
1527,41792
1528,44800
1529,46912
1530,46720
1531,43968
1532,40128
1533,36224
1534,32704
1535,30080
1536,28608
1537,28160
1538,28352
1539,28928
1540,29632
1541,30400
1542,31040
1543,31552
1544,31936
1545,32256
1546,32448
1547,32704
1548,32832
1549,32960
1550,33088
1551,33216
1552,33280
1553,33280
1554,33408
1555,33536
1556,33728
1557,33728
1558,33856
1559,33920
1560,33856
1561,34112
1562,34240
1563,34304
1564,34368
1565,34496
1566,34624
1567,34752
1568,34880
1569,35008
1570,35136
1571,35264
1572,35264
1573,35584
1574,35584
1575,35584
1576,35520
1577,35584
1578,35712
1579,35776
1580,35840
1581,35840
1582,35776
1583,35712
1584,35648
1585,35584
1586,35584
1587,35520
1588,35456
1589,35392
1590,35328
1591,35200
1592,34944
1593,34624
1594,34304
1595,33984
1596,33600
1597,33216
1598,32896
1599,32640
1600,32384
1601,32256
1602,32128
1603,32000
1604,32000
1605,32000
1606,32000
1607,32064
1608,32192
1609,32384
1610,32512
1611,32576
1612,32640
1613,32640
1614,32768
1615,32896
1616,33024
1617,32960
1618,33088
1619,33152
1620,33152
1621,33216
1622,33216
1623,33344
1624,33536
1625,33664
1626,33792
1627,34048
1628,34112
1629,34112
1630,34176
1631,34176
1632,34112
1633,34240
1634,34304
1635,34496
1636,34688
1637,34880
1638,35008
1639,35136
1640,35264
1641,35200
1642,35072
1643,34816
1644,34368
1645,33728
1646,33152
1647,32704
1648,32448
1649,32448
1650,32448
1651,32448
1652,32512
1653,32512
1654,32512
1655,32576
1656,32704
1657,32832
1658,32960
1659,33088
1660,32960
1661,32704
1662,32640
1663,32704
1664,33536
1665,35008
1666,37248
1667,40128
1668,43328
1669,46080
1670,47232
1671,45632
1672,42112
1673,38080
1674,34368
1675,31296
1676,29248
1677,28544
1678,28608
1679,29056
1680,29632
1681,30208
1682,30784
1683,31296
1684,31744
1685,32064
1686,32320
1687,32512
1688,32704
1689,32896
1690,33024
1691,33216
1692,33408
1693,33600
1694,33728
1695,33728
1696,33600
1697,33600
1698,33728
1699,33856
1700,34048
1701,34176
1702,34240
1703,34240
1704,34304
1705,34368
1706,34432
1707,34560
1708,34624
1709,34688
1710,34816
1711,35072
1712,35264
1713,35392
1714,35456
1715,35456
1716,35520
1717,35648
1718,35904
1719,36096
1720,36160
1721,36096
1722,36096
1723,36288
1724,36544
1725,36800
1726,37056
1727,36992
1728,36352
1729,35584
1730,34944
1731,34496
1732,34176
1733,33984
1734,33792
1735,33600
1736,33408
1737,33216
1738,32896
1739,32640
1740,32448
1741,32192
1742,32000
1743,31808
1744,31744
1745,31744
1746,31744
1747,31808
1748,31936
1749,32064
1750,32192
1751,32384
1752,32512
1753,32576
1754,32576
1755,32640
1756,32704
1757,32768
1758,32832
1759,32896
1760,33024
1761,33088
1762,33152
1763,33216
1764,33216
1765,33280
1766,33344
1767,33408
1768,33472
1769,33664
1770,33856
1771,33984
1772,34112
1773,34112
1774,34176
1775,34304
1776,34432
1777,34624
1778,34752
1779,34880
1780,35008
1781,35072
1782,35136
1783,35072
1784,34816
1785,34496
1786,34048
1787,33536
1788,33024
1789,32704
1790,32448
1791,32384
1792,32320
1793,32320
1794,32384
1795,32512
1796,32640
1797,32704
1798,32704
1799,32832
1800,33088
1801,33152
1802,33088
1803,32896
1804,32640
1805,32768
1806,33472
1807,34880
1808,36928
1809,39552
1810,42688
1811,45568
1812,47040
1813,45824
1814,42368
1815,38592
1816,34752
1817,31488
1818,29312
1819,28288
1820,28224
1821,28608
1822,29312
1823,30080
1824,30720
1825,31360
1826,31872
1827,32256
1828,32448
1829,32576
1830,32704
1831,32768
1832,32960
1833,33088
1834,33216
1835,33344
1836,33536
1837,33536
1838,33536
1839,33536
1840,33600
1841,33728
1842,33856
1843,33920
1844,33984
1845,34112
1846,34240
1847,34368
1848,34432
1849,34496
1850,34496
1851,34432
1852,34560
1853,34752
1854,34880
1855,34880
1856,34880
1857,35008
1858,35136
1859,35328
1860,35520
1861,35648
1862,35712
1863,35648
1864,35520
1865,35456
1866,35392
1867,35392
1868,35456
1869,35328
1870,35264
1871,35392
1872,35520
1873,35712
1874,35712
1875,35520
1876,35264
1877,34688
1878,33856
1879,33088
1880,32448
1881,32000
1882,31744
1883,31552
1884,31552
1885,31488
1886,31616
1887,31680
1888,31744
1889,31744
1890,31872
1891,31936
1892,32064
1893,32128
1894,32192
1895,32320
1896,32512
1897,32640
1898,32768
1899,32832
1900,32960
1901,33088
1902,33216
1903,33344
1904,33536
1905,33600
1906,33728
1907,33792
1908,33856
1909,33920
1910,34048
1911,34112
1912,34112
1913,34112
1914,34176
1915,34304
1916,34496
1917,34752
1918,34944
1919,35008
1920,34944
1921,34816
1922,34752
1923,34624
1924,34304
1925,33856
1926,33280
1927,32832
1928,32576
1929,32512
1930,32512
1931,32576
1932,32512
1933,32576
1934,32768
1935,32768
1936,32704
1937,32640
1938,32640
1939,32704
1940,32768
1941,32768
1942,32576
1943,32448
1944,32768
1945,33664
1946,35328
1947,37376
1948,40000
1949,42688
1950,44800
1951,45120
1952,43264
1953,40448
1954,37376
1955,34496
1956,32000
1957,30144
1958,29120
1959,28800
1960,28992
1961,29504
1962,30208
1963,30848
1964,31488
1965,31872
1966,32064
1967,32192
1968,32576
1969,33088
1970,33472
1971,33728
1972,33792
1973,33600
1974,33344
1975,33216
1976,33344
1977,33472
1978,33600
1979,33728
1980,33792
1981,33856
1982,33984
1983,34048
1984,34176
1985,34432
1986,34816
1987,35136
1988,35392
1989,35328
1990,35072
1991,34816
1992,34624
1993,34560
1994,34624
1995,34752
1996,34880
1997,34944
1998,35072
1999,35136
2000,35200
2001,35328
2002,35584
2003,36096
2004,36480
2005,36352
2006,36032
2007,35776
2008,35520
2009,35264
2010,34944
2011,34752
2012,34560
2013,34368
2014,34176
2015,33984
2016,33792
2017,33536
2018,33344
2019,33152
2020,32896
2021,32640
2022,32448
2023,32320
2024,32256
2025,32256
2026,32320
2027,32384
2028,32448
2029,32448
2030,32512
2031,32576
2032,32704
2033,32768
2034,32832
2035,32832
2036,32832
2037,32896
2038,32896
2039,32960
2040,33088
2041,33216
2042,33280
2043,33280
2044,33344
2045,33344
2046,33344
2047,33408
2048,33600
2049,33792
2050,33984
2051,34112
2052,34240
2053,34304
2054,34432
2055,34496
2056,34624
2057,34816
2058,34880
2059,34880
2060,34816
2061,34880
2062,34880
2063,34816
2064,34688
2065,34432
2066,33984
2067,33408
2068,32960
2069,32704
2070,32576
2071,32448
2072,32448
2073,32512
2074,32576
2075,32576
2076,32640
2077,32704
2078,32832
2079,32896
2080,32896
2081,32896
2082,32768
2083,32512
2084,32256
2085,32512
2086,33536
2087,35264
2088,37696
2089,40704
2090,43904
2091,46528
2092,47296
2093,45376
2094,41728
2095,37696
2096,33728
2097,30720
2098,28800
2099,28096
2100,28224
2101,28800
2102,29568
2103,30336
2104,31040
2105,31616
2106,32064
2107,32320
2108,32448
2109,32448
2110,32384
2111,32320
2112,32448
2113,32704
2114,32960
2115,33216
2116,33408
2117,33664
2118,33920
2119,34176
2120,34496
2121,34624
2122,34496
2123,34304
2124,34112
2125,34176
2126,34240
2127,34304
2128,34432
2129,34496
2130,34560
2131,34560
2132,34688
2133,34816
2134,34880
2135,35008
2136,35136
2137,35200
2138,35200
2139,35264
2140,35392
2141,35584
2142,35648
2143,35712
2144,35712
2145,35840
2146,35904
2147,35840
2148,35648
2149,35520
2150,35456
2151,35392
2152,35328
2153,35200
2154,35072
2155,34880
2156,34560
2157,34176
2158,33792
2159,33344
2160,32896
2161,32576
2162,32384
2163,32256
2164,32192
2165,32128
2166,32064
2167,32000
2168,32000
2169,32064
2170,32128
2171,32192
2172,32256
2173,32384
2174,32512
2175,32640
2176,32768
2177,32896
2178,32960
2179,33024
2180,33024
2181,33088
2182,33216
2183,33280
2184,33344
2185,33472
2186,33536
2187,33536
2188,33600
2189,33728
2190,33856
2191,33984
2192,34048
2193,34112
2194,34176
2195,34176
2196,34304
2197,34496
2198,34688
2199,34816
2200,34816
2201,34752
2202,34752
2203,34816
2204,34944
2205,34944
2206,34816
2207,34560
2208,34176
2209,33664
2210,33216
2211,32896
2212,32704
2213,32704
2214,32832
2215,32960
2216,32896
2217,32704
2218,32512
2219,32448
2220,32512
2221,32576
2222,32704
2223,32768
2224,32704
2225,32576
2226,32448
2227,32768
2228,33600
2229,35136
2230,37376
2231,40192
2232,43520
2233,46528
2234,47872
2235,46080
2236,42688
2237,38464
2238,34560
2239,31296
2240,29120
2241,28160
2242,28032
2243,28480
2244,29184
2245,29952
2246,30656
2247,31232
2248,31616
2249,31936
2250,32192
2251,32512
2252,32768
2253,33024
2254,33024
2255,33024
2256,32960
2257,33088
2258,33216
2259,33344
2260,33408
2261,33536
2262,33600
2263,33792
2264,33920
2265,33984
2266,33984
2267,33984
2268,33984
2269,34048
2270,34176
2271,34368
2272,34624
2273,34880
2274,35136
2275,35328
2276,35392
2277,35264
2278,35200
2279,35200
2280,35328
2281,35392
2282,35520
2283,35584
2284,35648
2285,35712
2286,35712
2287,35712
2288,35648
2289,35648
2290,35776
2291,35840
2292,35776
2293,35584
2294,35328
2295,35136
2296,34944
2297,34688
2298,34368
2299,34048
2300,33664
2301,33344
2302,33024
2303,32704
2304,32448
2305,32192
2306,32000
2307,31872
2308,31808
2309,31808
2310,31936
2311,32064
2312,32256
2313,32512
2314,32704
2315,32640
2316,32448
2317,32320
2318,32320
2319,32384
2320,32512
2321,32640
2322,32768
2323,32832
2324,32960
2325,33088
2326,33280
2327,33408
2328,33472
2329,33472
2330,33472
2331,33408
2332,33472
2333,33472
2334,33472
2335,33600
2336,33664
2337,33856
2338,33984
2339,34112
2340,34240
2341,34176
2342,34240
2343,34368
2344,34496
2345,34624
2346,34752
2347,34880
2348,34880
2349,34944
2350,34816
2351,34560
2352,34240
2353,33792
2354,33280
2355,32832
2356,32640
2357,32512
2358,32448
2359,32512
2360,32576
2361,32768
2362,32896
2363,33024
2364,33088
2365,33152
2366,33216
2367,33216
2368,33024
2369,32768
2370,32512
2371,32640
2372,33344
2373,34752
2374,36864
2375,39488
2376,42496
2377,45312
2378,46720
2379,45568
2380,42432
2381,38720
2382,35200
2383,32192
2384,29952
2385,28608
2386,28288
2387,28544
2388,29120
2389,29952
2390,30656
2391,31296
2392,31680
2393,32000
2394,32256
2395,32448
2396,32576
2397,32640
2398,32832
2399,33088
2400,33280
2401,33344
2402,33344
2403,33472
2404,33664
2405,33728
2406,33664
2407,33664
2408,33728
2409,33792
2410,33920
2411,34048
2412,34176
2413,34240
2414,34368
2415,34432
2416,34560
2417,34688
2418,34816
2419,35008
2420,35136
2421,35264
2422,35328
2423,35392
2424,35520
2425,35648
2426,35712
2427,35648
2428,35648
2429,35648
2430,35648
2431,35584
2432,35520
2433,35520
2434,35520
2435,35520
2436,35456
2437,35392
2438,35328
2439,35200
2440,35008
2441,34752
2442,34496
2443,34240
2444,33920
2445,33600
2446,33344
2447,33088
2448,32896
2449,32576
2450,32256
2451,32064
2452,31936
2453,31936
2454,31872
2455,31936
2456,32000
2457,32128
2458,32256
2459,32384
2460,32512
2461,32576
2462,32640
2463,32704
2464,32768
2465,32832
2466,32960
2467,33024
2468,33088
2469,33152
2470,33216
2471,33280
2472,33344
2473,33408
2474,33536
2475,33536
2476,33536
2477,33600
2478,33792
2479,33984
2480,34176
2481,34240
2482,34176
2483,34176
2484,34240
2485,34368
2486,34560
2487,34688
2488,34752
2489,34880
2490,34944
2491,34944
2492,34880
2493,34624
2494,34304
2495,33856
2496,33472
2497,33088
2498,32768
2499,32512
2500,32384
2501,32320
2502,32384
2503,32448
2504,32576
2505,32704
2506,32768
2507,32896
2508,32896
2509,32960
2510,32960
2511,32832
2512,32640
2513,32832
2514,33536
2515,35008
2516,37312
2517,39488
2518,42304
2519,45056
2520,46336
2521,45056
2522,42048
2523,38528
2524,35136
2525,32192
2526,30016
2527,28736
2528,28352
2529,28480
2530,29056
2531,29952
2532,30720
2533,31424
2534,31872
2535,32192
2536,32448
2537,32640
2538,32832
2539,33024
2540,33088
2541,33152
2542,33216
2543,33280
2544,33344
2545,33344
2546,33472
2547,33600
2548,33728
2549,33920
2550,34048
2551,34176
2552,34304
2553,34432
2554,34496
2555,34432
2556,34432
2557,34496
2558,34624
2559,34624
2560,34688
2561,34880
2562,34944
2563,35072
2564,35200
2565,35328
2566,35392
2567,35456
2568,35584
2569,35648
2570,35648
2571,35712
2572,35712
2573,35776
2574,35776
2575,35776
2576,35712
2577,35712
2578,35648
2579,35584
2580,35456
2581,35264
2582,35008
2583,34752
2584,34496
2585,34176
2586,33856
2587,33536
2588,33216
2589,32896
2590,32576
2591,32320
2592,32064
2593,32000
2594,31936
2595,31936
2596,32000
2597,32000
2598,32128
2599,32192
2600,32320
2601,32448
2602,32576
2603,32704
2604,32768
2605,32832
2606,32960
2607,33024
2608,33024
2609,33088
2610,33152
2611,33280
2612,33344
2613,33344
2614,33408
2615,33472
2616,33472
2617,33536
2618,33600
2619,33664
2620,33664
2621,33664
2622,33600
2623,33600
2624,33600
2625,33664
2626,33792
2627,34048
2628,34240
2629,34368
2630,34368
2631,34368
2632,34432
2633,34560
2634,34688
2635,34816
2636,34880
2637,34944
2638,35008
2639,35008
2640,34880
2641,34624
2642,34240
2643,33856
2644,33472
2645,33088
2646,32832
2647,32640
2648,32576
2649,32576
2650,32640
2651,32704
2652,32768
2653,32832
2654,32896
2655,32960
2656,33152
2657,33216
2658,33152
2659,32960
2660,32896
2661,33152
2662,34048
2663,35456
2664,37504
2665,40192
2666,43968
2667,46080
2668,47104
2669,45632
2670,41984
2671,38400
2672,34752
2673,31744
2674,29632
2675,28608
2676,28480
2677,28800
2678,29440
2679,30144
2680,30784
2681,31424
2682,31744
2683,32064
2684,32320
2685,32512
2686,32640
2687,32768
2688,32896
2689,33024
2690,33152
2691,33280
2692,33408
2693,33408
2694,33472
2695,33600
2696,33664
2697,33792
2698,33984
2699,34176
2700,34240
2701,34240
2702,34304
2703,34432
2704,34496
2705,34560
2706,34560
2707,34624
2708,34752
2709,34816
2710,34944
2711,35200
2712,35392
2713,35520
2714,35648
2715,35776
2716,35904
2717,36032
2718,36096
2719,36160
2720,36160
2721,36096
2722,36032
2723,35904
2724,35840
2725,35776
2726,35712
2727,35648
2728,35584
2729,35520
2730,35328
2731,35136
2732,34880
2733,34624
2734,34368
2735,33984
2736,33536
2737,33152
2738,32768
2739,32448
2740,32128
2741,31872
2742,31744
2743,31680
2744,31744
2745,31744
2746,31808
2747,31872
2748,32000
2749,32128
2750,32320
2751,32448
2752,32512
2753,32640
2754,32832
2755,33024
2756,33216
2757,33344
2758,33344
2759,33280
2760,33280
2761,33280
2762,33280
2763,33344
2764,33344
2765,33472
2766,33472
2767,33536
2768,33536
2769,33600
2770,33664
2771,33728
2772,33728
2773,33728
2774,33728
2775,33664
2776,33664
2777,33664
2778,33728
2779,33856
2780,33984
2781,34176
2782,34240
2783,34240
2784,34304
2785,34432
2786,34688
2787,34816
2788,35008
2789,35136
2790,35328
2791,35328
2792,35200
2793,35072
2794,34752
2795,34368
2796,33856
2797,33280
2798,32832
2799,32576
2800,32448
2801,32448
2802,32512
2803,32576
2804,32704
2805,32896
2806,32960
2807,33088
2808,33216
2809,33216
2810,33152
2811,33024
2812,32896
2813,32768
2814,33024
2815,33920
2816,35904
2817,37440
2818,39872
2819,42880
2820,45760
2821,47168
2822,45952
2823,42752
2824,38912
2825,35264
2826,32064
2827,29824
2828,28672
2829,28416
2830,28736
2831,29504
2832,30016
2833,30656
2834,31168
2835,31680
2836,32000
2837,32320
2838,32512
2839,32704
2840,32896
2841,33152
2842,33344
2843,33472
2844,33472
2845,33472
2846,33600
2847,33664
2848,33792
2849,33920
2850,34048
2851,34112
2852,34176
2853,34112
2854,34048
2855,34112
2856,34176
2857,34304
2858,34432
2859,34560
2860,34688
2861,34880
2862,35008
2863,35136
2864,35264
2865,35392
2866,35584
2867,35712
2868,35840
2869,35904
2870,35968
2871,36032
2872,36096
2873,36032
2874,35968
2875,35904
2876,35968
2877,35968
2878,36032
2879,36032
2880,35904
2881,35648
2882,35456
2883,35264
2884,35008
2885,34688
2886,34368
2887,34048
2888,33664
2889,33280
2890,32960
2891,32704
2892,32512
2893,32320
2894,32128
2895,31936
2896,31744
2897,31680
2898,31744
2899,31744
2900,31872
2901,31936
2902,32064
2903,32192
2904,32320
2905,32448
2906,32576
2907,32704
2908,32768
2909,32896
2910,33024
2911,33152
2912,33216
2913,33216
2914,33216
2915,33216
2916,33216
2917,33216
2918,33280
2919,33344
2920,33472
2921,33536
2922,33536
2923,33536
2924,33600
2925,33600
2926,33664
2927,33728
2928,33664
2929,33600
2930,33600
2931,33600
2932,33600
2933,33600
2934,33536
2935,33600
2936,33600
2937,33600
2938,33600
2939,33664
2940,33792
2941,33920
2942,34112
2943,34176
2944,34240
2945,34304
2946,34432
2947,34624
2948,34752
2949,34944
2950,35072
2951,35136
2952,35072
2953,35008
2954,34816
2955,34496
2956,34112
2957,33664
2958,33216
2959,32896
2960,32704
2961,32576
2962,32576
2963,32640
2964,32832
2965,32960
2966,33024
2967,33024
2968,33024
2969,33088
2970,33088
2971,33088
2972,32960
2973,32896
2974,33024
2975,33664
2976,34944
2977,36736
2978,39168
2979,41984
2980,44672
2981,46272
2982,45312
2983,42688
2984,39296
2985,35968
2986,33024
2987,30592
2988,29056
2989,28416
2990,28416
2991,28864
2992,29568
2993,30272
2994,30976
2995,31616
2996,32064
2997,32320
2998,32576
2999,32832
3000,32960
3001,33088
3002,33216
3003,33280
3004,33344
3005,33472
3006,33536
3007,33600
3008,33664
3009,33664
3010,33792
3011,33920
3012,33920
3013,33920
3014,33920
3015,34048
3016,34112
3017,34240
3018,34304
3019,34496
3020,34624
3021,34752
3022,34816
3023,34944
3024,35136
3025,35264
3026,35328
3027,35392
3028,35520
3029,35712
3030,35840
3031,35904
3032,35968
3033,35968
3034,35968
3035,35904
3036,35840
3037,35776
3038,35712
3039,35648
3040,35648
3041,35584
3042,35520
3043,35328
3044,35136
3045,34880
3046,34624
3047,34304
3048,33920
3049,33600
3050,33280
3051,32960
3052,32640
3053,32384
3054,32128
3055,31936
3056,31808
3057,31744
3058,31808
3059,31872
3060,32000
3061,32064
3062,32128
3063,32256
3064,32320
3065,32448
3066,32512
3067,32576
3068,32704
3069,32896
3070,33024
3071,33152
3072,33216
3073,33280
3074,33280
3075,33344
3076,33344
3077,33408
3078,33472
3079,33472
3080,33472
3081,33600
3082,33600
3083,33600
3084,33600
3085,33600
3086,33600
3087,33536
3088,33664
3089,33792
3090,33920
3091,34048
3092,34112
3093,34112
3094,34176
3095,34240
3096,34304
3097,34432
3098,34560
3099,34688
3100,34816
3101,34944
3102,34944
3103,35008
3104,34944
3105,34688
3106,34368
3107,33920
3108,33408
3109,32960
3110,32768
3111,32640
3112,32640
3113,32704
3114,32704
3115,32768
3116,32832
3117,32832
3118,32832
3119,32832
3120,32896
3121,32896
3122,32960
3123,33024
3124,32960
3125,33152
3126,33856
3127,35264
3128,37120
3129,39424
3130,41984
3131,45248
3132,45632
3133,44480
3134,41792
3135,38784
3136,35776
3137,33088
3138,30848
3139,29376
3140,28672
3141,28608
3142,28928
3143,29504
3144,30208
3145,30848
3146,31616
3147,31808
3148,32192
3149,32512
3150,32768
3151,32832
3152,32960
3153,33088
3154,33152
3155,33280
3156,33344
3157,33536
3158,33600
3159,33664
3160,33728
3161,33920
3162,33984
3163,33984
3164,33984
3165,34048
3166,34048
3167,34112
3168,34240
3169,34368
3170,34432
3171,34560
3172,34688
3173,34816
3174,34880
3175,35008
3176,35136
3177,35264
3178,35392
3179,35456
3180,35520
3181,35648
3182,35712
3183,35776
3184,35776
3185,35840
3186,35776
3187,35776
3188,35712
3189,35584
3190,35520
3191,35328
3192,35200
3193,35072
3194,34944
3195,34688
3196,34496
3197,34240
3198,33920
3199,33600
3200,33408
3201,33088
3202,32832
3203,32576
3204,32448
3205,32256
3206,32192
3207,32128
3208,32128
3209,32128
3210,32192
3211,32256
3212,32320
3213,32320
3214,32448
3215,32576
3216,32640
3217,32704
3218,32768
3219,32896
3220,32960
3221,33088
3222,33152
3223,33280
3224,33344
3225,33408
3226,33408
3227,33472
3228,33472
3229,33472
3230,33536
3231,33664
3232,33728
3233,33792
3234,33792
3235,33856
3236,33856
3237,33792
3238,33792
3239,33728
3240,33664
3241,33664
3242,33664
3243,33728
3244,33856
3245,33984
3246,34112
3247,34176
3248,34176
3249,34304
3250,34432
3251,34624
3252,34624
3253,34752
3254,34816
3255,34880
3256,34880
3257,34816
3258,34752
3259,34496
3260,34240
3261,33920
3262,33472
3263,33152
3264,32896
3265,32768
3266,32704
3267,32704
3268,32704
3269,32768
3270,32832
3271,32960
3272,33024
3273,33088
3274,33088
3275,33088
3276,33024
3277,33024
3278,33024
3279,33344
3280,34176
3281,35584
3282,37440
3283,39744
3284,42432
3285,44992
3286,46144
3287,44864
3288,41920
3289,38592
3290,35328
3291,32448
3292,30208
3293,28864
3294,28416
3295,28608
3296,29120
3297,29824
3298,30528
3299,31168
3300,31616
3301,32000
3302,32256
3303,32512
3304,32640
3305,32832
3306,32960
3307,33088
3308,33152
3309,33280
3310,33408
3311,33472
3312,33600
3313,33728
3314,33856
3315,33920
3316,33920
3317,33920
3318,33984
3319,34048
3320,34112
3321,34240
3322,34304
3323,34432
3324,34496
3325,34560
3326,34688
3327,34816
3328,34944
3329,35072
3330,35200
3331,35328
3332,35456
3333,35584
3334,35776
3335,35904
3336,36032
3337,36032
3338,36096
3339,36096
3340,36160
3341,36096
3342,35968
3343,35776
3344,35648
3345,35584
3346,35456
3347,35328
3348,35200
3349,35008
3350,34752
3351,34432
3352,34112
3353,33728
3354,33344
3355,33024
3356,32704
3357,32512
3358,32256
3359,32192
3360,32128
3361,32064
3362,32000
3363,32000
3364,32000
3365,32128
3366,32192
3367,32320
3368,32384
3369,32512
3370,32576
3371,32704
3372,32768
3373,32832
3374,32960
3375,33088
3376,33152
3377,33280
3378,33344
3379,33472
3380,33600
3381,33600
3382,33536
3383,33472
3384,33472
3385,33472
3386,33536
3387,33536
3388,33600
3389,33664
3390,33664
3391,33728
3392,33728
3393,33728
3394,33792
3395,33856
3396,33856
3397,33856
3398,33792
3399,33728
3400,33664
3401,33600
3402,33600
3403,33664
3404,33728
3405,33856
3406,33984
3407,34112
3408,34240
3409,34304
3410,34368
3411,34496
3412,34624
3413,34816
3414,34944
3415,35072
3416,35136
3417,35072
3418,35072
3419,34944
3420,34752
3421,34432
3422,34048
3423,33664
3424,33280
3425,33024
3426,32960
3427,32960
3428,32896
3429,32832
3430,32768
3431,32768
3432,32768
3433,32896
3434,33024
3435,33088
3436,33088
3437,33088
3438,33024
3439,33088
3440,33472
3441,34368
3442,35776
3443,37824
3444,40448
3445,43456
3446,46272
3447,46464
3448,45824
3449,42496
3450,38720
3451,35136
3452,32064
3453,29760
3454,28416
3455,28096
3456,28352
3457,29056
3458,29760
3459,30528
3460,31104
3461,31616
3462,32000
3463,32256
3464,32512
3465,32704
3466,32832
3467,33024
3468,33216
3469,33344
3470,33408
3471,33472
3472,33600
3473,33664
3474,33728
3475,33792
3476,33920
3477,33920
3478,34112
3479,34112
3480,34176
3481,34304
3482,34432
3483,34496
3484,34560
3485,34752
3486,34880
3487,34944
3488,35008
3489,35136
3490,35264
3491,35456
3492,35648
3493,35840
3494,36032
3495,36096
3496,36224
3497,36224
3498,36160
3499,36032
3500,35968
3501,35968
3502,36032
3503,36032
3504,36032
3505,36032
3506,35904
3507,35776
3508,35584
3509,35392
3510,35200
3511,34880
3512,34560
3513,34176
3514,33856
3515,33472
3516,33088
3517,32768
3518,32512
3519,32320
3520,32064
3521,31936
3522,31808
3523,31744
3524,31680
3525,31680
3526,31744
3527,31808
3528,31936
3529,32064
3530,32192
3531,32320
3532,32384
3533,32512
3534,32576
3535,32704
3536,32768
3537,32832
3538,32896
3539,33024
3540,33152
3541,33280
3542,33344
3543,33344
3544,33344
3545,33344
3546,33408
3547,33408
3548,33472
3549,33472
3550,33408
3551,33536
3552,33536
3553,33600
3554,33600
3555,33600
3556,33664
3557,33728
3558,33728
3559,33664
3560,33664
3561,33600
3562,33600
3563,33600
3564,33600
3565,33600
3566,33600
3567,33536
3568,33600
3569,33792
3570,33984
3571,34112
3572,34240
3573,34240
3574,34368
3575,34496
3576,34688
3577,34880
3578,35008
3579,35008
3580,35072
3581,35072
3582,35072
3583,35072
3584,34944
3585,34624
3586,34176
3587,33664
3588,33152
3589,32832
3590,32640
3591,32576
3592,32576
3593,32576
3594,32704
3595,32832
3596,33024
3597,33152
3598,33216
3599,33216
3600,33152
3601,33088
3602,32960
3603,32896
3604,33024
3605,33664
3606,34944
3607,36800
3608,39104
3609,41856
3610,44672
3611,46528
3612,46144
3613,43456
3614,39872
3615,36224
3616,33088
3617,30464
3618,28928
3619,28224
3620,28224
3621,28736
3622,29440
3623,30272
3624,30912
3625,31488
3626,31936
3627,32192
3628,32320
3629,32512
3630,32704
3631,32832
3632,32960
3633,33024
3634,33152
3635,33280
3636,33344
3637,33408
3638,33536
3639,33600
3640,33728
3641,33920
3642,34112
3643,34112
3644,34112
3645,34112
3646,34176
3647,34176
3648,34304
3649,34432
3650,34560
3651,34752
3652,34880
3653,34944
3654,35072
3655,35264
3656,35328
3657,35392
3658,35456
3659,35648
3660,35776
3661,35904
3662,35968
3663,36096
3664,36160
3665,36224
3666,36160
3667,36160
3668,36096
3669,35968
3670,35840
3671,35776
3672,35648
3673,35520
3674,35328
3675,35072
3676,34688
3677,34176
3678,33792
3679,33408
3680,33024
3681,32640
3682,32384
3683,32192
3684,32064
3685,32000
3686,31936
3687,32000
3688,31936
3689,31936
3690,31936
3691,32000
3692,32064
3693,32128
3694,32256
3695,32320
3696,32384
3697,32512
3698,32576
3699,32640
3700,32704
3701,32768
3702,32832
3703,32832
3704,33024
3705,33152
3706,33280
3707,33408
3708,33536
3709,33664
3710,33664
3711,33664
3712,33664
3713,33664
3714,33664
3715,33664
3716,33664
3717,33728
3718,33728
3719,33792
3720,33920
3721,34048
3722,34176
3723,34240
3724,34304
3725,34432
3726,34560
3727,34752
3728,34816
3729,34880
3730,35008
3731,35072
3732,35008
3733,34880
3734,34816
3735,34560
3736,34112
3737,33600
3738,33152
3739,32768
3740,32576
3741,32512
3742,32512
3743,32576
3744,32640
3745,32768
3746,32896
3747,33024
3748,33088
3749,33152
3750,33152
3751,33152
3752,33024
3753,32896
3754,33088
3755,33920
3756,35264
3757,37120
3758,39424
3759,42112
3760,44736
3761,46208
3762,45184
3763,42496
3764,39168
3765,36032
3766,33088
3767,30656
3768,29120
3769,28480
3770,28416
3771,28864
3772,29504
3773,30336
3774,31040
3775,31616
3776,32128
3777,32384
3778,32576
3779,32704
3780,32832
3781,32960
3782,33024
3783,33088
3784,33152
3785,33216
3786,33344
3787,33408
3788,33472
3789,33600
3790,33728
3791,33792
3792,33856
3793,33984
3794,34048
3795,34112
3796,34240
3797,34368
3798,34432
3799,34432
3800,34496
3801,34624
3802,34752
3803,34880
3804,34944
3805,35136
3806,35328
3807,35456
3808,35584
3809,35712
3810,35712
3811,35776
3812,35840
3813,35840
3814,35904
3815,35968
3816,35904
3817,35840
3818,35776
3819,35648
3820,35520
3821,35392
3822,35200
3823,35072
3824,34816
3825,34560
3826,34176
3827,33856
3828,33536
3829,33216
3830,32960
3831,32704
3832,32512
3833,32320
3834,32192
3835,32064
3836,32000
3837,31936
3838,31936
3839,32000
3840,32064
3841,32064
3842,32192
3843,32320
3844,32384
3845,32512
3846,32640
3847,32768
3848,32832
3849,32896
3850,32960
3851,33088
3852,33216
3853,33344
3854,33472
3855,33472
3856,33472
3857,33472
3858,33408
3859,33408
3860,33408
3861,33472
3862,33536
3863,33600
3864,33664
3865,33664
3866,33728
3867,33728
3868,33792
3869,33792
3870,33856
3871,33984
3872,34112
3873,34176
3874,34176
3875,34176
3876,34240
3877,34304
3878,34432
3879,34496
3880,34624
3881,34688
3882,34816
3883,34880
3884,34944
3885,34944
3886,34880
3887,34624
3888,34304
3889,33920
3890,33472
3891,33088
3892,32832
3893,32704
3894,32640
3895,32640
3896,32640
3897,32704
3898,32768
3899,32832
3900,32896
3901,32896
3902,32960
3903,33024
3904,32960
3905,32896
3906,32896
3907,33280
3908,34240
3909,35776
3910,37888
3911,40448
3912,43328
3913,45696
3914,46400
3915,44416
3916,41344
3917,37824
3918,34624
3919,31872
3920,29760
3921,28608
3922,28288
3923,28544
3924,29056
3925,29696
3926,30464
3927,31040
3928,31616
3929,32000
3930,32384
3931,32640
3932,32832
3933,32896
3934,33024
3935,33088
3936,33216
3937,33280
3938,33344
3939,33408
3940,33536
3941,33600
3942,33664
3943,33664
3944,33728
3945,33792
3946,33856
3947,33984
3948,34048
3949,34112
3950,34304
3951,34496
3952,34688
3953,34816
3954,34816
3955,34816
3956,34944
3957,35072
3958,35264
3959,35456
3960,35584
3961,35648
3962,35776
3963,35840
3964,35840
3965,35904
3966,35968
3967,35968
3968,36032
3969,36032
3970,35968
3971,35904
3972,35904
3973,35840
3974,35776
3975,35584
3976,35392
3977,35136
3978,34752
3979,34240
3980,33856
3981,33408
3982,33024
3983,32640
3984,32320
3985,32128
3986,31936
3987,31872
3988,31808
3989,31808
3990,31744
3991,31808
3992,31872
3993,31936
3994,32064
3995,32192
3996,32384
3997,32512
3998,32576
3999,32640
4000,32704
4001,32768
4002,32832
4003,32896
4004,32896
4005,33088
4006,33280
4007,33600
4008,33792
4009,33664
4010,33472
4011,33280
4012,33280
4013,33344
4014,33408
4015,33536
4016,33600
4017,33664
4018,33728
4019,33792
4020,33984
4021,34048
4022,34048
4023,34048
4024,34112
4025,34304
4026,34496
4027,34688
4028,34816
4029,35008
4030,35072
4031,35008
4032,35008
4033,34880
4034,34624
4035,34240
4036,33792
4037,33408
4038,33088
4039,32832
4040,32576
4041,32512
4042,32576
4043,32576
4044,32576
4045,32576
4046,32704
4047,32832
4048,33024
4049,33088
4050,33088
4051,33024
4052,32960
4053,32768
4054,32960
4055,33664
4056,34944
4057,36736
4058,38976
4059,41728
4060,44480
4061,46272
4062,45696
4063,43136
4064,39744
4065,36288
4066,33152
4067,30720
4068,29056
4069,28224
4070,28032
4071,28416
4072,28992
4073,29760
4074,30464
4075,31168
4076,31680
4077,32000
4078,32256
4079,32576
4080,32832
4081,32960
4082,32960
4083,32960
4084,32960
4085,32960
4086,33024
4087,33152
4088,33216
4089,33280
4090,33408
4091,33536
4092,33600
4093,33856
4094,34048
4095,34176
4096,34240
4097,34240
4098,34304
4099,34368
4100,34432
4101,34496
4102,34624
4103,34752
4104,34880
4105,34944
4106,35072
4107,35200
4108,35328
4109,35456
4110,35584
4111,35712
4112,35776
4113,35840
4114,35904
4115,35968
4116,35904
4117,35712
4118,35520
4119,35328
4120,35136
4121,35008
4122,34944
4123,34816
4124,34496
4125,34112
4126,33920
4127,33664
4128,33408
4129,33088
4130,32768
4131,32448
4132,32192
4133,32000
4134,31872
4135,31808
4136,31744
4137,31744
4138,31872
4139,32128
4140,32256
4141,32192
4142,32128
4143,32128
4144,32192
4145,32192
4146,32256
4147,32320
4148,32512
4149,32640
4150,32896
4151,33024
4152,33088
4153,33088
4154,33088
4155,33152
4156,33216
4157,33280
4158,33280
4159,33344
4160,33408
4161,33408
4162,33472
4163,33728
4164,33984
4165,34112
4166,34112
4167,34240
4168,34368
4169,34368
4170,34432
4171,34560
4172,34816
4173,34944
4174,34944
4175,34816
4176,34496
4177,34112
4178,33920
4179,33920
4180,33984
4181,33920
4182,33664
4183,33280
4184,32960
4185,32768
4186,32704
4187,32640
4188,32576
4189,32512
4190,32576
4191,32768
4192,32896
4193,33024
4194,33024
4195,32960
4196,32768
4197,32576
4198,32704
4199,33408
4200,34688
4201,36160
4202,38208
4203,40640
4204,43392
4205,45568
4206,45952
4207,43968
4208,40768
4209,37248
4210,33984
4211,31104
4212,29184
4213,28096
4214,28032
4215,28544
4216,29248
4217,29952
4218,30592
4219,31168
4220,31552
4221,31872
4222,32128
4223,32256
4224,32384
4225,32448
4226,32640
4227,32832
4228,32960
4229,33024
4230,33088
4231,33024
4232,33088
4233,33216
4234,33216
4235,33408
4236,33728
4237,34240
4238,34816
4239,35328
4240,35648
4241,35520
4242,35264
4243,35008
4244,34752
4245,34560
4246,34304
4247,33984
4248,33600
4249,33408
4250,33344
4251,33344
4252,33728
4253,34240
4254,34816
4255,35456
4256,36032
4257,36544
4258,37056
4259,37760
4260,39104
4261,40384
4262,39936
4263,37376
4264,34752
4265,33088
4266,32320
4267,32128
4268,32320
4269,32448
4270,32576
4271,32512
4272,32384
4273,32256
4274,32192
4275,32128
4276,32064
4277,31936
4278,31616
4279,31296
4280,31168
4281,31232
4282,31552
4283,32000
4284,32448
4285,32832
4286,33088
4287,33344
4288,33472
4289,33280
4290,32768
4291,32320
4292,32256
4293,32448
4294,32576
4295,32832
4296,33216
4297,33472
4298,33536
4299,33344
4300,33280
4301,33408
4302,33664
4303,33920
4304,34048
4305,34304
4306,34496
4307,34432
4308,34176
4309,33856
4310,33856
4311,34048
4312,34368
4313,34688
4314,34816
4315,34432
4316,33792
4317,33344
4318,33344
4319,33664
4320,34112
4321,34304
4322,34560
4323,34816
4324,35008
4325,35072
4326,35008
4327,34944
4328,34752
4329,34432
4330,33984
4331,33536
4332,33216
4333,32896
4334,32704
4335,32768
4336,32832
4337,32960
4338,33088
4339,33408
4340,33472
4341,33280
4342,33280
4343,33472
4344,33408
4345,33088
4346,32768
4347,32896
4348,33536
4349,34560
4350,36096
4351,38080
4352,40960
4353,44032
4354,46464
4355,46784
4356,44544
4357,41152
4358,37632
4359,34432
4360,31488
4361,29184
4362,28288
4363,28160
4364,28672
4365,29248
4366,29760
4367,30208
4368,30656
4369,30976
4370,31232
4371,31552
4372,31872
4373,32320
4374,32640
4375,32832
4376,32832
4377,32896
4378,33216
4379,33728
4380,34048
4381,33984
4382,33920
4383,33856
4384,34048
4385,34496
4386,34880
4387,35008
4388,34944
4389,34752
4390,34112
4391,33472
4392,33536
4393,34240
4394,34880
4395,34944
4396,34688
4397,34688
4398,34752
4399,34880
4400,35008
4401,35136
4402,35328
4403,35648
4404,35968
4405,36224
4406,36288
4407,36224
4408,36032
4409,36032
4410,36352
4411,36736
4412,36928
4413,36864
4414,36544
4415,35776
4416,34816
4417,33920
4418,33344
4419,33280
4420,33344
4421,33408
4422,33152
4423,32832
4424,32640
4425,32448
4426,32192
4427,32000
4428,32064
4429,32256
4430,32832
4431,33344
4432,33216
4433,32640
4434,32384
4435,32192
4436,31936
4437,31616
4438,31552
4439,31616
4440,31680
4441,31808
4442,32000
4443,32384
4444,32768
4445,33088
4446,33280
4447,33472
4448,33728
4449,33984
4450,33984
4451,33984
4452,33984
4453,33920
4454,33920
4455,33984
4456,33984
4457,33856
4458,33664
4459,33472
4460,33472
4461,33472
4462,33536
4463,33728
4464,34048
4465,34240
4466,34560
4467,34816
4468,35136
4469,35328
4470,35264
4471,35136
4472,35136
4473,35392
4474,35520
4475,35456
4476,35200
4477,34816
4478,34368
4479,33984
4480,33536
4481,32768
4482,32000
4483,31680
4484,31680
4485,31936
4486,32384
4487,32896
4488,33088
4489,32896
4490,32704
4491,32704
4492,32704
4493,32640
4494,32640
4495,32640
4496,32448
4497,32768
4498,33728
4499,35072
4500,36992
4501,39872
4502,43520
4503,46848
4504,48320
4505,46592
4506,42688
4507,38400
4508,34368
4509,31040
4510,28864
4511,27840
4512,27584
4513,28160
4514,29056
4515,29824
4516,30272
4517,30720
4518,31296
4519,31744
4520,32128
4521,32512
4522,32896
4523,33088
4524,32896
4525,32832
4526,32896
4527,33024
4528,33216
4529,33216
4530,32896
4531,32640
4532,32512
4533,32640
4534,32832
4535,33408
4536,34176
4537,34816
4538,35136
4539,35200
4540,35072
4541,35008
4542,34944
4543,34816
4544,34496
4545,34368
4546,34624
4547,34944
4548,35072
4549,34880
4550,35072
4551,35840
4552,36544
4553,36800
4554,36800
4555,36608
4556,36352
4557,36032
4558,35776
4559,35712
4560,35904
4561,36096
4562,36224
4563,36032
4564,35648
4565,35136
4566,34624
4567,34304
4568,33984
4569,33536
4570,33216
4571,33024
4572,32640
4573,32256
4574,32000
4575,31936
4576,32320
4577,32512
4578,32512
4579,32448
4580,32064
4581,31744
4582,31424
4583,31104
4584,31040
4585,31232
4586,31616
4587,31872
4588,32128
4589,32384
4590,32512
4591,32768
4592,32960
4593,33088
4594,33152
4595,33344
4596,33280
4597,33024
4598,32960
4599,32960
4600,32960
4601,33024
4602,33024
4603,33024
4604,33344
4605,33664
4606,33600
4607,33536
4608,33600
4609,33728
4610,33728
4611,33664
4612,33536
4613,33472
4614,33472
4615,33472
4616,33280
4617,33280
4618,33408
4619,33408
4620,33344
4621,33472
4622,33920
4623,34176
4624,34304
4625,34496
4626,34560
4627,34496
4628,34496
4629,34560
4630,34880
4631,34944
4632,34816
4633,34624
4634,34688
4635,34880
4636,35008
4637,34816
4638,34496
4639,34112
4640,33600
4641,33024
4642,32576
4643,32512
4644,32512
4645,32384
4646,32384
4647,32384
4648,32192
4649,32320
4650,32704
4651,33024
4652,33216
4653,33280
4654,33280
4655,33152
4656,33024
4657,33280
4658,34048
4659,35392
4660,37184
4661,39744
4662,42816
4663,45888
4664,47680
4665,46720
4666,43584
4667,39488
4668,35328
4669,31680
4670,29376
4671,28416
4672,28608
4673,29504
4674,30400
4675,30784
4676,30848
4677,30848
4678,30912
4679,31168
4680,31552
4681,31744
4682,31936
4683,32128
4684,32384
4685,32704
4686,32896
4687,33152
4688,33472
4689,33600
4690,33600
4691,33600
4692,33856
4693,34048
4694,34112
4695,33984
4696,33920
4697,33984
4698,33984
4699,34112
4700,34176
4701,34304
4702,34432
4703,34624
4704,34752
4705,34880
4706,35072
4707,35200
4708,35392
4709,35520
4710,35648
4711,35776
4712,35904
4713,36096
4714,36160
4715,36160
4716,36160
4717,36160
4718,36160
4719,36160
4720,36160
4721,36096
4722,36032
4723,35968
4724,35904
4725,35776
4726,35648
4727,35392
4728,35072
4729,34688
4730,34368
4731,33984
4732,33536
4733,33088
4734,32768
4735,32448
4736,32128
4737,31936
4738,31808
4739,31744
4740,31680
4741,31680
4742,31744
4743,31808
4744,31872
4745,32000
4746,32128
4747,32192
4748,32320
4749,32448
4750,32512
4751,32704
4752,32832
4753,32896
4754,33024
4755,33088
4756,33152
4757,33216
4758,33280
4759,33280
4760,33344
4761,33344
4762,33344
4763,33408
4764,33408
4765,33472
4766,33472
4767,33536
4768,33536
4769,33536
4770,33536
4771,33536
4772,33600
4773,33664
4774,33664
4775,33728
4776,33728
4777,33664
4778,33664
4779,33664
4780,33664
4781,33728
4782,33728
4783,33792
4784,33920
4785,34048
4786,34176
4787,34304
4788,34432
4789,34496
4790,34560
4791,34688
4792,34816
4793,35008
4794,35200
4795,35264
4796,35328
4797,35328
4798,35264
4799,35136
4800,34880
4801,34496
4802,34048
4803,33536
4804,33088
4805,32832
4806,32704
4807,32640
4808,32704
4809,32768
4810,32832
4811,32960
4812,33024
4813,33088
4814,33152
4815,33216
4816,33152
4817,33088
4818,32960
4819,32896
4820,33344
4821,34368
4822,35968
4823,38208
4824,40960
4825,44096
4826,47168
4827,47168
4828,45120
4829,41536
4830,37440
4831,34048
4832,31040
4833,29120
4834,28352
4835,28352
4836,28800
4837,29568
4838,30336
4839,30976
4840,31424
4841,31936
4842,32192
4843,32384
4844,32640
4845,32768
4846,32960
4847,33088
4848,33280
4849,33344
4850,33408
4851,33472
4852,33536
4853,33600
4854,33728
4855,33792
4856,33920
4857,34048
4858,34112
4859,34176
4860,34304
4861,34368
4862,34496
4863,34624
4864,34688
4865,34752
4866,34880
4867,35008
4868,35072
4869,35136
4870,35264
4871,35456
4872,35520
4873,35648
4874,35776
4875,36032
4876,36096
4877,36160
4878,36096
4879,36096
4880,36160
4881,36160
4882,36096
4883,36032
4884,35968
4885,35904
4886,35840
4887,35712
4888,35584
4889,35456
4890,35200
4891,34944
4892,34624
4893,34304
4894,33920
4895,33536
4896,33152
4897,32768
4898,32448
4899,32192
4900,32000
4901,31872
4902,31808
4903,31744
4904,31744
4905,31808
4906,31936
4907,32064
4908,32192
4909,32320
4910,32448
4911,32512
4912,32576
4913,32704
4914,32768
4915,32832
4916,32960
4917,32960
4918,33088
4919,33152
4920,33216
4921,33280
4922,33280
4923,33344
4924,33408
4925,33408
4926,33472
4927,33472
4928,33408
4929,33408
4930,33472
4931,33472
4932,33472
4933,33472
4934,33536
4935,33536
4936,33536
4937,33536
4938,33600
4939,33600
4940,33600
4941,33600
4942,33600
4943,33600
4944,33600
4945,33600
4946,33600
4947,33600
4948,33600
4949,33600
4950,33664
4951,33664
4952,33664
4953,33728
4954,33792
4955,33856
4956,33984
4957,34176
4958,34304
4959,34432
4960,34560
4961,34624
4962,34752
4963,34944
4964,35136
4965,35200
4966,35200
4967,35200
4968,35200
4969,35072
4970,34944
4971,34624
4972,34240
4973,33792
4974,33408
4975,33088
4976,32896
4977,32832
4978,32704
4979,32704
4980,32768
4981,32768
4982,32896
4983,32960
4984,33088
4985,33152
4986,33216
4987,33152
4988,33024
4989,32960
4990,33216
4991,34496
4992,35520
4993,37312
4994,39808
4995,42752
4996,45568
4997,47040
4998,45824
4999,42688
5000,38912
5001,35328
5002,32192
5003,29824
5004,28544
5005,28224
5006,28544
5007,29184
5008,29952
5009,30720
5010,31296
5011,31744
5012,32064
5013,32384
5014,32576
5015,32768
5016,32832
5017,32896
5018,32960
5019,33088
5020,33152
5021,33344
5022,33408
5023,33536
5024,33664
5025,33792
5026,33856
5027,33920
5028,33984
5029,34112
5030,34176
5031,34304
5032,34432
5033,34496
5034,34560
5035,34624
5036,34752
5037,34752
5038,34880
5039,35008
5040,35136
5041,35264
5042,35456
5043,35520
5044,35648
5045,35776
5046,35840
5047,35904
5048,35968
5049,36032
5050,36032
5051,36032
5052,35968
5053,35904
5054,35840
5055,35840
5056,35776
5057,35712
5058,35648
5059,35520
5060,35328
5061,35136
5062,34944
5063,34624
5064,34368
5065,33984
5066,33600
5067,33216
5068,32832
5069,32512
5070,32192
5071,32000
5072,31936
5073,31808
5074,31808
5075,31744
5076,31808
5077,31872
5078,32000
5079,32128
5080,32320
5081,32448
5082,32512
5083,32576
5084,32640
5085,32704
5086,32768
5087,32768
5088,32896
5089,33024
5090,33152
5091,33344
5092,33408
5093,33472
5094,33472
5095,33472
5096,33536
5097,33536
5098,33600
5099,33600
5100,33600
5101,33536
5102,33600
5103,33536
5104,33536
5105,33600
5106,33600
5107,33536
5108,33536
5109,33536
5110,33536
5111,33536
5112,33536
5113,33600
5114,33728
5115,33856
5116,33920
5117,34112
5118,34304
5119,34304
5120,34368
5121,34432
5122,34560
5123,34752
5124,34880
5125,35008
5126,35200
5127,35264
5128,35264
5129,35136
5130,34816
5131,34432
5132,33920
5133,33408
5134,33024
5135,32768
5136,32704
5137,32640
5138,32576
5139,32640
5140,32704
5141,32768
5142,32896
5143,32960
5144,32960
5145,32832
5146,32704
5147,32704
5148,32704
5149,32704
5150,33024
5151,33856
5152,35264
5153,37248
5154,39744
5155,42688
5156,45568
5157,46848
5158,45760
5159,42624
5160,38848
5161,35264
5162,32128
5163,29888
5164,28672
5165,28352
5166,28608
5167,29184
5168,29888
5169,30592
5170,31104
5171,31680
5172,32064
5173,32448
5174,32768
5175,32960
5176,33024
5177,33088
5178,33152
5179,33280
5180,33344
5181,33408
5182,33600
5183,33920
5184,34240
5185,34432
5186,34304
5187,34112
5188,33856
5189,33728
5190,33536
5191,33472
5192,33536
5193,33792
5194,34048
5195,34368
5196,34496
5197,34816
5198,35264
5199,35712
5200,36160
5201,36160
5202,36224
5203,36288
5204,36160
5205,36096
5206,35840
5207,35648
5208,35520
5209,35584
5210,35456
5211,35200
5212,35072
5213,35264
5214,35520
5215,35840
5216,35776
5217,36992
5218,37568
5219,37312
5220,37184
5221,34752
5222,33664
5223,32960
5224,32576
5225,32448
5226,32320
5227,32064
5228,31616
5229,31296
5230,31168
5231,31296
5232,31616
5233,31872
5234,32000
5235,32192
5236,32832
5237,33664
5238,34112
5239,33664
5240,32960
5241,32320
5242,32064
5243,32000
5244,31936
5245,31808
5246,31872
5247,31936
5248,32192
5249,32320
5250,32320
5251,32704
5252,32960
5253,33216
5254,33472
5255,33664
5256,33728
5257,33920
5258,34048
5259,33792
5260,33600
5261,33408
5262,33344
5263,33216
5264,33152
5265,33280
5266,33280
5267,33280
5268,33344
5269,33472
5270,33728
5271,34112
5272,34560
5273,34944
5274,35264
5275,35584
5276,35712
5277,35648
5278,35584
5279,35584
5280,35520
5281,35392
5282,35072
5283,34688
5284,34048
5285,33344
5286,32896
5287,32704
5288,32640
5289,32768
5290,32832
5291,32960
5292,32960
5293,33216
5294,33088
5295,33088
5296,33152
5297,33152
5298,33152
5299,33088
5300,33024
5301,33152
5302,33792
5303,34944
5304,36480
5305,38592
5306,41216
5307,44160
5308,46400
5309,46464
5310,44032
5311,40576
5312,37056
5313,33920
5314,31296
5315,29504
5316,28736
5317,28608
5318,28928
5319,29504
5320,30208
5321,30848
5322,31360
5323,31744
5324,32128
5325,32448
5326,32704
5327,32896
5328,32960
5329,33216
5330,33280
5331,33216
5332,33216
5333,33216
5334,33408
5335,33664
5336,33792
5337,33856
5338,33856
5339,33984
5340,33984
5341,34112
5342,34048
5343,33984
5344,33984
5345,34176
5346,34368
5347,34560
5348,34688
5349,34752
5350,34880
5351,34880
5352,34944
5353,35072
5354,35328
5355,35520
5356,35584
5357,35776
5358,35904
5359,35776
5360,35648
5361,35584
5362,35520
5363,35520
5364,35584
5365,35712
5366,35648
5367,35392
5368,35200
5369,35264
5370,35328
5371,35328
5372,35072
5373,34752
5374,34368
5375,33920
5376,33344
5377,32896
5378,32640
5379,32576
5380,32320
5381,31936
5382,31808
5383,31872
5384,32192
5385,32448
5386,32448
5387,32064
5388,31616
5389,31488
5390,31744
5391,32128
5392,32512
5393,32704
5394,32640
5395,32512
5396,32704
5397,32960
5398,33024
5399,33088
5400,33216
5401,33408
5402,33408
5403,33152
5404,32704
5405,32576
5406,32768
5407,33024
5408,32896
5409,32768
5410,32832
5411,33088
5412,33216
5413,33472
5414,33920
5415,34432
5416,34624
5417,34688
5418,34688
5419,34624
5420,34496
5421,34368
5422,34432
5423,34624
5424,34304
5425,33792
5426,33536
5427,33728
5428,34368
5429,35200
5430,35712
5431,35520
5432,35008
5433,34304
5434,33728
5435,33344
5436,33152
5437,33024
5438,32768
5439,32512
5440,32192
5441,32192
5442,32384
5443,32384
5444,32128
5445,31552
5446,31424
5447,31936
5448,32384
5449,32704
5450,32768
5451,32896
5452,33472
5453,34752
5454,36800
5455,39488
5456,42688
5457,45248
5458,47168
5459,46528
5460,43456
5461,39552
5462,35648
5463,32256
5464,29888
5465,28544
5466,28160
5467,28416
5468,29184
5469,30080
5470,30784
5471,31360
5472,31680
5473,31872
5474,32192
5475,32512
5476,32704
5477,32704
5478,32576
5479,32704
5480,32896
5481,33216
5482,33536
5483,33536
5484,33472
5485,33472
5486,33472
5487,33600
5488,33792
5489,33856
5490,33984
5491,34112
5492,34368
5493,34496
5494,34624
5495,34688
5496,34752
5497,34816
5498,34880
5499,34880
5500,34944
5501,35136
5502,35264
5503,35456
5504,35584
5505,35712
5506,35776
5507,35840
5508,35968
5509,36032
5510,36032
5511,36096
5512,36160
5513,35968
5514,35776
5515,35648
5516,35648
5517,35648
5518,35648
5519,35584
5520,35456
5521,35200
5522,34944
5523,34688
5524,34368
5525,34048
5526,33728
5527,33344
5528,32896
5529,32576
5530,32384
5531,32256
5532,32320
5533,32320
5534,32128
5535,31936
5536,31872
5537,31872
5538,32064
5539,32320
5540,32640
5541,32640
5542,32448
5543,32320
5544,32384
5545,32512
5546,32768
5547,32960
5548,33024
5549,33216
5550,33216
5551,33216
5552,33216
5553,33280
5554,33408
5555,33536
5556,33664
5557,33536
5558,33344
5559,33280
5560,33280
5561,33344
5562,33472
5563,33472
5564,33472
5565,33280
5566,33024
5567,32896
5568,33024
5569,33216
5570,33728
5571,34176
5572,34304
5573,34368
5574,34432
5575,34624
5576,34752
5577,34880
5578,35008
5579,35200
5580,35328
5581,35456
5582,35328
5583,34944
5584,34560
5585,34304
5586,34048
5587,33792
5588,33664
5589,33408
5590,33216
5591,33088
5592,32960
5593,32640
5594,32512
5595,32576
5596,32896
5597,33280
5598,33472
5599,33472
5600,33344
5601,33280
5602,33280
5603,33216
5604,33728
5605,34752
5606,36544
5607,38656
5608,41472
5609,44672
5610,46976
5611,47232
5612,44672
5613,40768
5614,36608
5615,32960
5616,30144
5617,28672
5618,28160
5619,28352
5620,28992
5621,29568
5622,30144
5623,30784
5624,31552
5625,32192
5626,32704
5627,33152
5628,33152
5629,33088
5630,33152
5631,33216
5632,33216
5633,33344
5634,33728
5635,33984
5636,33856
5637,33472
5638,33344
5639,33344
5640,33408
5641,33472
5642,33600
5643,33792
5644,33984
5645,33984
5646,34112
5647,34368
5648,34752
5649,35072
5650,35200
5651,35200
5652,35200
5653,35264
5654,35520
5655,35712
5656,35648
5657,35264
5658,35008
5659,35200
5660,35520
5661,35904
5662,35968
5663,35904
5664,35904
5665,35904
5666,35712
5667,35520
5668,35520
5669,35648
5670,35712
5671,35648
5672,35264
5673,35072
5674,35200
5675,35200
5676,34752
5677,34240
5678,33792
5679,33344
5680,33088
5681,32768
5682,32512
5683,32320
5684,32192
5685,32192
5686,32512
5687,33280
5688,34560
5689,36032
5690,36416
5691,34944
5692,32256
5693,30144
5694,29184
5695,29184
5696,29760
5697,30528
5698,31232
5699,31808
5700,32128
5701,32320
5702,32384
5703,32640
5704,32896
5705,33152
5706,33216
5707,33152
5708,32960
5709,32896
5710,32960
5711,33024
5712,33152
5713,33152
5714,33216
5715,33280
5716,33408
5717,33408
5718,33344
5719,33088
5720,32768
5721,32896
5722,33536
5723,34368
5724,34752
5725,34816
5726,34688
5727,34432
5728,34240
5729,34368
5730,34688
5731,35136
5732,35328
5733,35456
5734,35392
5735,35008
5736,34688
5737,34368
5738,33728
5739,33088
5740,32704
5741,32512
5742,32448
5743,32384
5744,32256
5745,32448
5746,32640
5747,32704
5748,32768
5749,32896
5750,33024
5751,32896
5752,32640
5753,32640
5754,32768
5755,32832
5756,32896
5757,33344
5758,34304
5759,35840
5760,38144
5761,41344
5762,44800
5763,47360
5764,47104
5765,44096
5766,40192
5767,36288
5768,32768
5769,30016
5770,28416
5771,27904
5772,28096
5773,28544
5774,29120
5775,30080
5776,31168
5777,31872
5778,32256
5779,32448
5780,32768
5781,32832
5782,32832
5783,33024
5784,33280
5785,33344
5786,33344
5787,33344
5788,33408
5789,33408
5790,33472
5791,33536
5792,33600
5793,33664
5794,33792
5795,33920
5796,34048
5797,33792
5798,33536
5799,33600
5800,34176
5801,34816
5802,35072
5803,35264
5804,35392
5805,35392
5806,35328
5807,35264
5808,35328
5809,35328
5810,35264
5811,35392
5812,35456
5813,35584
5814,35712
5815,35776
5816,35776
5817,35840
5818,35840
5819,35776
5820,35712
5821,35776
5822,35840
5823,35776
5824,35712
5825,35520
5826,35264
5827,35072
5828,34624
5829,33984
5830,33408
5831,33024
5832,32768
5833,32640
5834,32576
5835,32448
5836,32320
5837,32128
5838,31872
5839,31680
5840,31616
5841,31680
5842,31808
5843,32000
5844,32320
5845,32640
5846,32896
5847,33152
5848,33216
5849,33024
5850,32640
5851,32448
5852,32384
5853,32576
5854,32768
5855,32960
5856,33088
5857,33024
5858,33024
5859,33152
5860,33280
5861,33344
5862,33216
5863,33024
5864,33152
5865,33408
5866,33728
5867,33728
5868,33536
5869,33408
5870,33280
5871,33216
5872,33152
5873,33152
5874,33280
5875,33600
5876,33984
5877,34240
5878,34368
5879,34304
5880,34240
5881,34304
5882,34496
5883,34752
5884,34944
5885,34880
5886,34880
5887,34816
5888,34880
5889,34816
5890,34496
5891,33920
5892,33280
5893,32768
5894,32576
5895,32576
5896,32512
5897,32640
5898,32704
5899,32704
5900,32768
5901,32896
5902,32896
5903,32896
5904,32960
5905,32960
5906,32896
5907,32768
5908,32640
5909,32768
5910,33536
5911,34688
5912,36416
5913,38656
5914,41472
5915,44480
5916,46464
5917,46144
5918,43456
5919,39936
5920,36544
5921,33152
5922,30592
5923,28736
5924,27968
5925,28224
5926,28800
5927,29632
5928,30464
5929,31168
5930,31616
5931,31936
5932,32256
5933,32448
5934,32640
5935,32768
5936,32960
5937,33024
5938,33024
5939,33024
5940,33088
5941,33344
5942,33536
5943,33664
5944,33664
5945,33728
5946,33856
5947,33984
5948,34048
5949,34112
5950,34048
5951,33984
5952,34176
5953,34432
5954,34432
5955,34368
5956,34432
5957,34688
5958,34880
5959,35072
5960,35328
5961,35456
5962,35392
5963,35392
5964,35328
5965,35328
5966,35456
5967,35584
5968,35648
5969,35776
5970,35648
5971,35456
5972,35456
5973,35776
5974,35904
5975,35840
5976,35712
5977,35520
5978,35200
5979,34880
5980,34688
5981,34560
5982,34240
5983,33920
5984,33728
5985,33280
5986,32704
5987,32320
5988,32192
5989,32384
5990,32448
5991,32384
5992,32192
5993,32128
5994,32256
5995,32320
5996,32320
5997,32256
5998,32192
5999,32384
6000,32640
6001,32832
6002,32960
6003,32896
6004,32832
6005,32960
6006,33152
6007,33216
6008,33344
6009,33408
6010,33472
6011,33408
6012,33280
6013,33344
6014,33536
6015,33600
6016,33536
6017,33600
6018,33536
6019,33536
6020,33664
6021,33792
6022,33856
6023,33984
6024,34048
6025,34112
6026,34112
6027,34176
6028,34432
6029,34816
6030,35008
6031,35136
6032,35200
6033,35136
6034,35072
6035,35008
6036,34816
6037,34496
6038,33984
6039,33408
6040,32960
6041,32704
6042,32512
6043,32512
6044,32512
6045,32576
6046,32640
6047,32704
6048,32640
6049,32576
6050,32704
6051,32896
6052,33024
6053,33088
6054,32960
6055,32896
6056,33088
6057,33856
6058,35328
6059,37376
6060,40064
6061,42880
6062,45440
6063,46336
6064,44736
6065,41600
6066,38208
6067,35008
6068,32256
6069,30144
6070,28928
6071,28544
6072,28672
6073,29120
6074,29888
6075,30656
6076,31232
6077,31744
6078,32064
6079,32384
6080,32576
6081,32704
6082,32832
6083,32960
6084,33152
6085,33280
6086,33472
6087,33536
6088,33600
6089,33664
6090,33728
6091,33792
6092,33856
6093,33856
6094,33920
6095,33984
6096,34048
6097,34112
6098,34240
6099,34432
6100,34560
6101,34624
6102,34752
6103,34944
6104,35072
6105,35136
6106,35200
6107,35264
6108,35392
6109,35456
6110,35520
6111,35584
6112,35648
6113,35648
6114,35712
6115,35712
6116,35712
6117,35648
6118,35520
6119,35520
6120,35520
6121,35456
6122,35392
6123,35328
6124,35200
6125,35072
6126,34816
6127,34560
6128,34304
6129,34048
6130,33728
6131,33408
6132,33152
6133,32896
6134,32704
6135,32448
6136,32256
6137,32192
6138,32320
6139,32384
6140,32448
6141,32512
6142,32576
6143,32640
6144,32640
6145,32768
6146,32832
6147,32960
6148,33024
6149,33152
6150,33216
6151,33344
6152,33344
6153,33408
6154,33472
6155,33536
6156,33536
6157,33600
6158,33664
6159,33664
6160,33664
6161,33664
6162,33728
6163,33728
6164,33728
6165,33728
6166,33728
6167,33792
6168,33792
6169,33856
6170,33920
6171,34048
6172,34112
6173,34240
6174,34304
6175,34368
6176,34432
6177,34496
6178,34752
6179,34944
6180,35136
6181,35200
6182,35200
6183,35136
6184,35072
6185,34816
6186,34496
6187,33984
6188,33472
6189,33088
6190,32832
6191,32704
6192,32576
6193,32576
6194,32576
6195,32640
6196,32704
6197,32768
6198,32832
6199,32896
6200,32960
6201,32960
6202,32960
6203,32832
6204,32832
6205,33152
6206,34112
6207,35584
6208,37696
6209,40384
6210,43456
6211,46144
6212,47168
6213,45504
6214,42112
6215,38272
6216,34688
6217,31552
6218,29440
6219,28416
6220,28288
6221,28672
6222,29312
6223,30080
6224,30784
6225,31424
6226,31872
6227,32192
6228,32448
6229,32704
6230,32896
6231,33088
6232,33152
6233,33152
6234,33216
6235,33216
6236,33280
6237,33408
6238,33472
6239,33600
6240,33728
6241,33728
6242,33792
6243,33856
6244,33984
6245,34176
6246,34240
6247,34304
6248,34368
6249,34432
6250,34560
6251,34688
6252,34816
6253,34880
6254,35008
6255,35136
6256,35328
6257,35456
6258,35584
6259,35648
6260,35648
6261,35648
6262,35712
6263,35712
6264,35776
6265,35840
6266,35840
6267,35776
6268,35712
6269,35712
6270,35712
6271,35712
6272,35584
6273,35392
6274,35200
6275,34944
6276,34688
6277,34304
6278,33920
6279,33536
6280,33152
6281,32768
6282,32512
6283,32256
6284,32000
6285,31872
6286,31808
6287,31744
6288,31744
6289,31808
6290,31872
6291,32000
6292,32128
6293,32192
6294,32320
6295,32448
6296,32576
6297,32704
6298,32832
6299,32960
6300,33024
6301,33088
6302,33152
6303,33216
6304,33216
6305,33280
6306,33280
6307,33344
6308,33408
6309,33472
6310,33472
6311,33472
6312,33472
6313,33536
6314,33600
6315,33600
6316,33664
6317,33664
6318,33664
6319,33728
6320,33856
6321,33984
6322,34048
6323,34112
6324,34176
6325,34240
6326,34304
6327,34496
6328,34688
6329,34880
6330,35008
6331,35136
6332,35200
6333,35200
6334,35072
6335,34880
6336,34560
6337,34176
6338,33664
6339,33152
6340,32832
6341,32576
6342,32512
6343,32448
6344,32448
6345,32512
6346,32640
6347,32704
6348,32832
6349,32960
6350,33024
6351,33024
6352,33024
6353,32960
6354,32832
6355,32960
6356,33664
6357,35008
6358,36992
6359,39552
6360,42624
6361,45568
6362,47232
6363,46272
6364,43136
6365,39296
6366,35520
6367,32256
6368,29824
6369,28480
6370,28160
6371,28480
6372,29120
6373,29760
6374,30464
6375,31104
6376,31552
6377,31936
6378,32192
6379,32448
6380,32640
6381,32768
6382,32896
6383,33024
6384,33152
6385,33280
6386,33408
6387,33472
6388,33600
6389,33664
6390,33728
6391,33792
6392,33856
6393,33984
6394,34112
6395,34176
6396,34240
6397,34304
6398,34368
6399,34496
6400,34624
6401,34752
6402,34816
6403,34944
6404,35072
6405,35200
6406,35264
6407,35392
6408,35584
6409,35648
6410,35776
6411,35840
6412,35968
6413,35968
6414,35968
6415,35968
6416,35968
6417,35968
6418,35904
6419,35840
6420,35712
6421,35584
6422,35456
6423,35328
6424,35136
6425,34944
6426,34624
6427,34304
6428,33984
6429,33600
6430,33216
6431,32896
6432,32640
6433,32384
6434,32128
6435,32000
6436,31872
6437,31808
6438,31808
6439,31808
6440,31872
6441,32000
6442,32064
6443,32128
6444,32192
6445,32384
6446,32448
6447,32512
6448,32640
6449,32768
6450,32896
6451,32960
6452,33088
6453,33152
6454,33216
6455,33216
6456,33216
6457,33344
6458,33344
6459,33344
6460,33344
6461,33408
6462,33408
6463,33472
6464,33472
6465,33472
6466,33536
6467,33600
6468,33600
6469,33600
6470,33600
6471,33536
6472,33472
6473,33536
6474,33664
6475,33920
6476,34112
6477,34176
6478,34240
6479,34240
6480,34240
6481,34304
6482,34496
6483,34688
6484,34880
6485,35008
6486,35072
6487,35136
6488,35072
6489,34944
6490,34624
6491,34176
6492,33664
6493,33152
6494,32832
6495,32640
6496,32576
6497,32576
6498,32640
6499,32704
6500,32768
6501,32768
6502,32896
6503,32960
6504,33024
6505,32960
6506,32960
6507,32896
6508,32768
6509,32832
6510,33472
6511,34688
6512,36480
6513,38912
6514,41792
6515,44800
6516,46848
6517,46400
6518,43584
6519,39936
6520,36288
6521,32384
6522,30272
6523,28800
6524,28224
6525,28352
6526,28928
6527,29632
6528,30400
6529,31040
6530,31488
6531,31872
6532,32192
6533,32448
6534,32640
6535,32768
6536,32960
6537,33088
6538,33216
6539,33280
6540,33344
6541,33344
6542,33408
6543,33536
6544,33600
6545,33728
6546,33856
6547,33920
6548,34048
6549,34048
6550,34112
6551,34176
6552,34240
6553,34368
6554,34560
6555,34688
6556,34816
6557,34944
6558,35072
6559,35136
6560,35328
6561,35456
6562,35520
6563,35584
6564,35648
6565,35776
6566,35904
6567,35968
6568,35968
6569,36032
6570,35968
6571,35968
6572,35840
6573,35776
6574,35776
6575,35648
6576,35520
6577,35456
6578,35264
6579,35072
6580,34752
6581,34432
6582,34112
6583,33792
6584,33408
6585,33024
6586,32640
6587,32384
6588,32128
6589,31872
6590,31744
6591,31616
6592,31616
6593,31616
6594,31680
6595,31744
6596,31872
6597,32000
6598,32064
6599,32192
6600,32256
6601,32384
6602,32448
6603,32576
6604,32704
6605,32768
6606,32896
6607,32960
6608,33088
6609,33152
6610,33152
6611,33216
6612,33280
6613,33344
6614,33344
6615,33344
6616,33408
6617,33472
6618,33472
6619,33472
6620,33472
6621,33472
6622,33472
6623,33408
6624,33472
6625,33536
6626,33536
6627,33600
6628,33600
6629,33600
6630,33600
6631,33600
6632,33664
6633,33664
6634,33792
6635,33920
6636,33984
6637,34048
6638,34048
6639,34112
6640,34240
6641,34432
6642,34624
6643,34816
6644,34944
6645,35008
6646,35072
6647,35072
6648,34944
6649,34688
6650,34304
6651,33792
6652,33280
6653,32960
6654,32768
6655,32704
6656,32704
6657,32704
6658,32704
6659,32768
6660,32832
6661,32960
6662,32960
6663,33024
6664,33024
6665,32960
6666,32896
6667,32768
6668,32896
6669,33472
6670,34688
6671,36992
6672,38656
6673,41344
6674,44224
6675,46208
6676,45824
6677,43264
6678,39872
6679,36416
6680,33280
6681,30720
6682,29056
6683,28352
6684,28288
6685,28736
6686,29440
6687,30144
6688,30848
6689,31424
6690,31936
6691,32256
6692,32512
6693,32704
6694,32832
6695,32960
6696,33024
6697,33088
6698,33216
6699,33344
6700,33408
6701,33536
6702,33600
6703,33664
6704,33664
6705,33792
6706,33920
6707,34048
6708,34112
6709,34176
6710,34240
6711,34304
6712,34432
6713,34560
6714,34624
6715,34752
6716,34880
6717,34944
6718,35072
6719,35264
6720,35392
6721,35456
6722,35584
6723,35712
6724,35840
6725,35904
6726,35904
6727,35904
6728,35904
6729,35968
6730,35904
6731,35840
6732,35712
6733,35648
6734,35648
6735,35520
6736,35392
6737,35200
6738,34944
6739,34688
6740,34368
6741,34112
6742,33728
6743,33408
6744,33088
6745,32704
6746,32448
6747,32128
6748,32000
6749,31872
6750,31808
6751,31808
6752,31872
6753,31872
6754,31936
6755,31936
6756,32064
6757,32128
6758,32256
6759,32320
6760,32448
6761,32512
6762,32640
6763,32768
6764,32832
6765,32896
6766,32960
6767,33024
6768,33088
6769,33152
6770,33280
6771,33344
6772,33408
6773,33408
6774,33408
6775,33472
6776,33600
6777,33600
6778,33664
6779,33664
6780,33728
6781,33728
6782,33728
6783,33664
6784,33600
6785,33600
6786,33600
6787,33664
6788,33728
6789,33728
6790,33856
6791,33920
6792,34048
6793,34048
6794,34112
6795,34240
6796,34304
6797,34496
6798,34688
6799,34880
6800,35008
6801,35008
6802,34944
6803,34944
6804,34816
6805,34624
6806,34112
6807,33728
6808,33344
6809,32960
6810,32768
6811,32704
6812,32704
6813,32704
6814,32768
6815,32768
6816,32832
6817,32832
6818,32960
6819,33024
6820,33024
6821,32960
6822,32896
6823,32832
6824,32896
6825,33472
6826,34432
6827,36032
6828,38272
6829,40896
6830,43712
6831,45888
6832,46016
6833,43840
6834,40576
6835,37184
6836,33024
6837,31360
6838,29504
6839,28544
6840,28352
6841,28736
6842,29312
6843,30016
6844,30656
6845,31296
6846,31744
6847,32128
6848,32384
6849,32576
6850,32768
6851,32896
6852,32960
6853,33088
6854,33152
6855,33280
6856,33408
6857,33536
6858,33600
6859,33600
6860,33664
6861,33792
6862,33856
6863,33984
6864,34048
6865,34176
6866,34240
6867,34304
6868,34368
6869,34496
6870,34624
6871,34752
6872,34880
6873,35008
6874,35072
6875,35200
6876,35328
6877,35392
6878,35584
6879,35648
6880,35776
6881,35904
6882,35904
6883,35968
6884,35968
6885,35968
6886,35968
6887,35968
6888,35968
6889,35840
6890,35712
6891,35584
6892,35392
6893,35200
6894,34944
6895,34752
6896,34432
6897,34112
6898,33728
6899,33408
6900,33088
6901,32704
6902,32448
6903,32192
6904,32000
6905,31872
6906,31808
6907,31808
6908,31872
6909,31872
6910,32000
6911,32064
6912,32128
6913,32256
6914,32384
6915,32448
6916,32512
6917,32576
6918,32640
6919,32768
6920,32896
6921,32960
6922,33024
6923,33152
6924,33216
6925,33216
6926,33280
6927,33344
6928,33408
6929,33408
6930,33408
6931,33472
6932,33536
6933,33600
6934,33664
6935,33728
6936,33728
6937,33728
6938,33664
6939,33664
6940,33600
6941,33664
6942,33664
6943,33664
6944,33664
6945,33728
6946,33728
6947,33728
6948,33728
6949,33728
6950,33664
6951,33664
6952,33600
6953,33664
6954,33728
6955,33792
6956,33920
6957,34112
6958,34240
6959,34304
6960,34432
6961,34496
6962,34624
6963,34752
6964,34880
6965,35008
6966,35072
6967,35136
6968,35136
6969,35200
6970,35136
6971,34752
6972,34496
6973,34048
6974,33600
6975,33152
6976,32896
6977,32704
6978,32640
6979,32704
6980,32768
6981,32832
6982,32896
6983,32960
6984,33024
6985,33024
6986,33088
6987,33088
6988,33024
6989,32960
6990,33024
6991,33472
6992,34496
6993,35968
6994,38016
6995,40704
6996,43712
6997,46272
6998,47296
6999,45568
7000,42048
7001,38016
7002,34368
7003,31232
7004,29248
7005,28288
7006,28288
7007,28736
7008,29504
7009,30208
7010,30848
7011,31360
7012,31744
7013,32064
7014,32448
7015,32704
7016,32704
7017,32768
7018,33024
7019,33152
7020,33280
7021,33344
7022,33472
7023,33536
7024,33664
7025,33728
7026,33856
7027,33984
7028,34048
7029,34112
7030,34304
7031,34240
7032,34240
7033,34496
7034,34560
7035,34688
7036,34816
7037,34944
7038,35072
7039,35264
7040,35328
7041,35392
7042,35584
7043,35776
7044,35968
7045,36096
7046,36096
7047,36288
7048,36352
7049,36416
7050,36416
7051,36416
7052,36352
7053,36288
7054,36160
7055,36096
7056,35968
7057,35840
7058,35648
7059,35392
7060,35072
7061,35008
7062,34368
7063,33920
7064,33536
7065,33408
7066,32768
7067,32384
7068,32128
7069,31936
7070,31744
7071,31616
7072,31616
7073,31552
7074,31616
7075,31680
7076,31680
7077,31680
7078,32000
7079,32064
7080,32064
7081,32320
7082,32448
7083,32576
7084,32704
7085,32768
7086,32768
7087,32832
7088,32896
7089,32960
7090,33088
7091,33088
7092,33088
7093,33280
7094,33344
7095,33408
7096,33408
7097,33472
7098,33536
7099,33536
7100,33536
7101,33536
7102,33600
7103,33600
7104,33600
7105,33664
7106,33600
7107,33600
7108,33536
7109,33536
7110,33472
7111,33472
7112,33472
7113,33536
7114,33536
7115,33600
7116,33600
7117,33664
7118,33664
7119,33664
7120,33664
7121,33664
7122,33600
7123,33600
7124,33600
7125,33600
7126,33600
7127,33664
7128,33728
7129,33728
7130,33792
7131,33792
7132,33792
7133,33728
7134,33792
7135,33920
7136,33856
7137,33920
7138,34240
7139,34304
7140,34432
7141,34496
7142,34560
7143,34624
7144,34752
7145,34944
7146,35072
7147,35200
7148,35264
7149,35200
7150,35136
7151,35008
7152,34944
7153,34432
7154,33984
7155,33536
7156,33216
7157,32960
7158,32768
7159,32704
7160,32704
7161,32768
7162,32832
7163,32960
7164,33024
7165,33088
7166,33088
7167,33152
7168,33152
7169,33024
7170,32960
7171,33152
7172,33856
7173,35008
7174,36672
7175,39040
7176,41920
7177,45056
7178,47232
7179,47232
7180,42752
7181,41920
7182,36864
7183,33216
7184,30336
7185,28672
7186,28096
7187,28224
7188,28864
7189,29632
7190,30336
7191,30912
7192,31360
7193,31744
7194,32064
7195,32320
7196,32512
7197,32640
7198,32832
7199,32960
7200,33088
7201,33152
7202,33280
7203,33408
7204,33472
7205,33472
7206,33536
7207,33536
7208,33664
7209,33728
7210,33920
7211,34048
7212,34112
7213,34176
7214,34240
7215,34368
7216,34304
7217,34624
7218,34752
7219,34880
7220,35008
7221,35136
7222,35328
7223,35520
7224,35648
7225,35776
7226,35904
7227,35968
7228,36032
7229,36160
7230,36224
7231,36288
7232,36288
7233,36288
7234,36288
7235,36224
7236,36160
7237,36032
7238,35904
7239,35776
7240,35648
7241,35456
7242,35200
7243,34944
7244,34560
7245,34176
7246,33728
7247,33408
7248,33024
7249,32640
7250,32320
7251,32000
7252,31744
7253,31616
7254,31488
7255,31424
7256,31488
7257,31488
7258,31552
7259,31680
7260,31744
7261,31872
7262,32064
7263,32192
7264,32384
7265,32448
7266,32576
7267,32704
7268,32768
7269,32896
7270,33024
7271,33088
7272,33152
7273,33216
7274,33216
7275,33216
7276,33280
7277,33280
7278,33280
7279,33344
7280,33408
7281,33472
7282,33472
7283,33536
7284,33536
7285,33600
7286,33600
7287,33600
7288,33600
7289,33600
7290,33600
7291,33600
7292,33664
7293,33664
7294,33664
7295,33600
7296,33600
7297,33600
7298,33600
7299,33600
7300,33600
7301,33600
7302,33600
7303,33600
7304,33536
7305,33536
7306,33536
7307,33536
7308,33600
7309,33664
7310,33664
7311,33728
7312,33728
7313,33728
7314,33792
7315,33792
7316,33792
7317,33792
7318,33792
7319,33792
7320,33792
7321,33792
7322,33792
7323,33792
7324,33792
7325,33792
7326,33856
7327,33920
7328,33920
7329,33920
7330,33984
7331,34112
7332,34240
7333,34368
7334,34560
7335,34624
7336,34688
7337,34752
7338,34880
7339,35072
7340,35200
7341,35200
7342,35200
7343,35200
7344,35072
7345,34816
7346,34560
7347,34240
7348,33856
7349,33536
7350,33280
7351,33088
7352,32960
7353,32896
7354,32896
7355,32960
7356,33024
7357,33088
7358,33152
7359,33152
7360,33216
7361,33216
7362,33152
7363,33024
7364,33152
7365,33728
7366,34816
7367,36480
7368,38720
7369,41472
7370,44480
7371,46848
7372,46976
7373,44672
7374,41088
7375,37312
7376,33856
7377,30976
7378,29120
7379,28288
7380,28288
7381,28736
7382,29376
7383,30080
7384,30784
7385,31360
7386,31872
7387,32192
7388,32448
7389,32640
7390,32768
7391,32896
7392,33024
7393,33088
7394,33216
7395,33280
7396,33280
7397,33408
7398,33536
7399,33664
7400,33728
7401,33792
7402,33920
7403,33984
7404,34112
7405,34176
7406,34240
7407,34368
7408,34496
7409,34560
7410,34624
7411,34752
7412,34816
7413,34944
7414,35072
7415,35200
7416,35264
7417,35392
7418,35584
7419,35712
7420,35840
7421,36032
7422,36160
7423,36224
7424,36288
7425,36288
7426,36288
7427,36352
7428,36288
7429,36224
7430,36160
7431,36032
7432,35840
7433,35776
7434,35584
7435,35392
7436,35072
7437,34688
7438,34304
7439,33920
7440,33472
7441,33024
7442,32704
7443,32384
7444,32128
7445,31936
7446,31744
7447,31616
7448,31616
7449,31552
7450,31552
7451,31616
7452,31680
7453,31744
7454,31872
7455,31936
7456,32064
7457,32128
7458,32256
7459,32320
7460,32448
7461,32576
7462,32704
7463,32832
7464,32960
7465,33024
7466,33024
7467,33088
7468,33216
7469,33344
7470,33344
7471,33408
7472,33472
7473,33600
7474,33664
7475,33664
7476,33600
7477,33536
7478,33472
7479,33472
7480,33472
7481,33536
7482,33536
7483,33600
7484,33600
7485,33600
7486,33600
7487,33600
7488,33600
7489,33600
7490,33600
7491,33664
7492,33664
7493,33664
7494,33664
7495,33600
7496,33600
7497,33600
7498,33600
7499,33600
7500,33600
7501,33664
7502,33664
7503,33664
7504,33664
7505,33664
7506,33728
7507,33664
7508,33664
7509,33664
7510,33664
7511,33728
7512,33728
7513,33728
7514,33728
7515,33728
7516,33728
7517,33856
7518,33984
7519,34112
7520,34304
7521,34368
7522,34496
7523,34496
7524,34560
7525,34688
7526,34944
7527,35072
7528,35072
7529,35008
7530,34944
7531,34880
7532,34688
7533,34496
7534,34176
7535,33856
7536,33600
7537,33344
7538,33152
7539,33024
7540,32960
7541,33024
7542,33024
7543,33088
7544,33152
7545,33152
7546,33216
7547,33216
7548,33280
7549,33280
7550,33152
7551,33088
7552,33344
7553,34112
7554,35392
7555,37248
7556,39744
7557,42432
7558,45120
7559,46656
7560,45312
7561,42752
7562,39232
7563,35840
7564,32832
7565,30464
7566,28928
7567,28352
7568,28480
7569,28992
7570,29632
7571,30400
7572,30976
7573,31552
7574,32000
7575,32320
7576,32512
7577,32704
7578,32832
7579,32896
7580,33024
7581,33152
7582,33280
7583,33344
7584,33408
7585,33536
7586,33600
7587,33664
7588,33792
7589,33920
7590,33984
7591,34048
7592,34112
7593,34176
7594,34240
7595,34304
7596,34368
7597,34496
7598,34560
7599,34688
7600,34816
7601,34944
7602,35072
7603,35200
7604,35264
7605,35392
7606,35520
7607,35712
7608,35776
7609,35840
7610,35968
7611,36096
7612,36160
7613,36160
7614,36160
7615,36160
7616,36160
7617,36096
7618,35968
7619,35840
7620,35648
7621,35456
7622,35264
7623,35072
7624,34816
7625,34496
7626,34048
7627,33728
7628,33344
7629,32960
7630,32640
7631,32384
7632,32192
7633,32000
7634,31808
7635,31744
7636,31680
7637,31744
7638,31744
7639,31744
7640,31808
7641,31872
7642,32000
7643,32192
7644,32320
7645,32448
7646,32512
7647,32640
7648,32704
7649,32768
7650,32832
7651,32960
7652,33024
7653,33088
7654,33216
7655,33280
7656,33408
7657,33408
7658,33472
7659,33536
7660,33536
7661,33536
7662,33536
7663,33472
7664,33472
7665,33600
7666,33600
7667,33664
7668,33664
7669,33664
7670,33664
7671,33664
7672,33664
7673,33664
7674,33600
7675,33600
7676,33600
7677,33664
7678,33664
7679,33664
7680,33664
7681,33664
7682,33664
7683,33600
7684,33600
7685,33536
7686,33536
7687,33536
7688,33536
7689,33536
7690,33536
7691,33600
7692,33600
7693,33664
7694,33728
7695,33728
7696,33728
7697,33728
7698,33728
7699,33792
7700,33792
7701,33792
7702,33856
7703,33920
7704,33984
7705,34112
7706,34176
7707,34304
7708,34432
7709,34496
7710,34560
7711,34624
7712,34752
7713,34944
7714,35008
7715,35072
7716,35008
7717,34880
7718,34752
7719,34496
7720,34240
7721,33920
7722,33664
7723,33408
7724,33216
7725,33088
7726,33024
7727,32960
7728,32960
7729,33024
7730,33088
7731,33088
7732,33088
7733,33088
7734,33088
7735,33088
7736,33024
7737,32960
7738,33088
7739,33664
7740,34816
7741,36480
7742,38656
7743,41408
7744,44416
7745,46720
7746,47168
7747,44992
7748,41408
7749,37568
7750,33920
7751,30912
7752,29056
7753,28224
7754,28160
7755,28608
7756,29376
7757,30144
7758,30784
7759,31360
7760,31744
7761,32064
7762,32320
7763,32512
7764,32704
7765,32832
7766,32960
7767,33088
7768,33216
7769,33280
7770,33408
7771,33408
7772,33536
7773,33600
7774,33728
7775,33856
7776,33920
7777,33920
7778,33984
7779,34048
7780,34112
7781,34240
7782,34368
7783,34432
7784,34624
7785,34752
7786,34880
7787,34944
7788,35008
7789,35136
7790,35328
7791,35456
7792,35648
7793,35776
7794,35904
7795,36096
7796,36160
7797,36288
7798,36288
7799,36352
7800,36352
7801,36352
7802,36288
7803,36224
7804,36096
7805,36032
7806,35968
7807,35840
7808,35648
7809,35328
7810,35008
7811,34624
7812,34240
7813,33792
7814,33408
7815,33024
7816,32640
7817,32320
7818,32064
7819,31808
7820,31616
7821,31552
7822,31488
7823,31488
7824,31488
7825,31488
7826,31616
7827,31680
7828,31744
7829,31808
7830,31936
7831,32064
7832,32192
7833,32320
7834,32448
7835,32512
7836,32640
7837,32704
7838,32832
7839,32896
7840,33024
7841,33088
7842,33152
7843,33216
7844,33344
7845,33408
7846,33408
7847,33472
7848,33472
7849,33472
7850,33472
7851,33536
7852,33600
7853,33600
7854,33600
7855,33664
7856,33664
7857,33664
7858,33664
7859,33664
7860,33664
7861,33664
7862,33600
7863,33664
7864,33664
7865,33664
7866,33664
7867,33664
7868,33664
7869,33600
7870,33600
7871,33600
7872,33600
7873,33600
7874,33664
7875,33664
7876,33664
7877,33664
7878,33664
7879,33664
7880,33728
7881,33728
7882,33792
7883,33792
7884,33792
7885,33792
7886,33792
7887,33792
7888,33792
7889,33792
7890,33792
7891,33792
7892,33856
7893,33920
7894,33920
7895,33856
7896,33856
7897,33856
7898,33984
7899,34048
7900,34176
7901,34304
7902,34496
7903,34624
7904,34688
7905,34752
7906,34880
7907,35008
7908,35136
7909,35200
7910,35136
7911,35072
7912,34944
7913,34816
7914,34560
7915,34240
7916,33920
7917,33600
7918,33408
7919,33216
7920,33024
7921,32960
7922,32896
7923,32960
7924,33024
7925,33024
7926,33088
7927,33152
7928,33152
7929,33152
7930,33088
7931,33024
7932,33088
7933,33600
7934,34560
7935,36096
7936,38208
7937,40896
7938,43968
7939,46656
7940,47744
7941,46080
7942,42496
7943,38464
7944,34624
7945,31360
7946,29184
7947,28160
7948,28032
7949,28544
7950,29248
7951,30016
7952,30656
7953,31104
7954,31488
7955,31808
7956,32064
7957,32256
7958,32448
7959,32640
7960,32832
7961,33024
7962,33152
7963,33216
7964,33280
7965,33344
7966,33408
7967,33536
7968,33600
7969,33728
7970,33792
7971,33920
7972,33984
7973,34048
7974,34112
7975,34240
7976,34304
7977,34368
7978,34496
7979,34624
7980,34752
7981,34880
7982,35072
7983,35200
7984,35328
7985,35456
7986,35648
7987,35776
7988,35904
7989,36096
7990,36160
7991,36288
7992,36416
7993,36544
7994,36608
7995,36608
7996,36544
7997,36416
7998,36352
7999,36288
8000,36160
8001,36032
8002,35840
8003,35584
8004,35264
8005,34944
8006,34560
8007,34112
8008,33664
8009,33280
8010,32896
8011,32512
8012,32128
8013,31872
8014,31744
8015,31552
8016,31424
8017,31360
8018,31360
8019,31424
8020,31488
8021,31552
8022,31616
8023,31680
8024,31744
8025,31872
8026,32064
8027,32192
8028,32256
8029,32384
8030,32576
8031,32704
8032,32832
8033,32896
8034,32960
8035,33024
8036,33088
8037,33152
8038,33152
8039,33280
8040,33344
8041,33408
8042,33408
8043,33472
8044,33472
8045,33408
8046,33472
8047,33472
8048,33536
8049,33600
8050,33600
8051,33536
8052,33536
8053,33600
8054,33600
8055,33664
8056,33664
8057,33664
8058,33600
8059,33600
8060,33600
8061,33664
8062,33664
8063,33664
8064,33664
8065,33600
8066,33600
8067,33600
8068,33600
8069,33600
8070,33600
8071,33600
8072,33664
8073,33664
8074,33728
8075,33728
8076,33728
8077,33728
8078,33728
8079,33792
8080,33792
8081,33856
8082,33856
8083,33856
8084,33920
8085,33920
8086,33792
8087,33728
8088,33728
8089,33728
8090,33728
8091,33728
8092,33792
8093,33856
8094,33856
8095,33856
8096,33856
8097,33920
8098,33920
8099,33984
8100,34048
8101,34240
8102,34432
8103,34560
8104,34624
8105,34688
8106,34688
8107,34752
8108,34816
8109,35008
8110,35136
8111,35136
8112,35136
8113,35072
8114,34944
8115,34752
8116,34496
8117,34112
8118,33792
8119,33472
8120,33280
8121,33152
8122,33024
8123,32960
8124,32960
8125,33024
8126,33152
8127,33152
8128,33216
8129,33216
8130,33216
8131,33152
8132,33088
8133,33024
8134,33152
8135,33792
8136,34944
8137,36608
8138,38912
8139,41792
8140,44800
8141,47104
8142,47296
8143,44864
8144,41088
8145,37184
8146,33536
8147,30656
8148,28864
8149,28160
8150,28160
8151,28736
8152,29568
8153,30272
8154,30848
8155,31296
8156,31680
8157,32000
8158,32320
8159,32512
8160,32640
8161,32768
8162,32896
8163,33088
8164,33216
8165,33344
8166,33408
8167,33472
8168,33536
8169,33664
8170,33728
8171,33792
8172,33920
8173,34048
8174,34112
8175,34112
8176,34176
8177,34240
8178,34368
8179,34496
8180,34624
8181,34752
8182,34880
8183,34944
8184,35072
8185,35264
8186,35392
8187,35456
8188,35648
8189,35776
8190,35968
8191,36096
8192,36224
8193,36352
8194,36416
8195,36480
8196,36480
8197,36480
8198,36416
8199,36352
8200,36288
8201,36288
8202,36224
8203,36096
8204,35968
8205,35776
8206,35456
8207,35072
8208,34624
8209,34176
8210,33728
8211,33280
8212,32896
8213,32512
8214,32192
8215,31936
8216,31744
8217,31552
8218,31488
8219,31424
8220,31360
8221,31360
8222,31424
8223,31552
8224,31680
8225,31744
8226,31872
8227,32000
8228,32128
8229,32256
8230,32384
8231,32512
8232,32576
8233,32640
8234,32704
8235,32768
8236,32896
8237,32960
8238,33088
8239,33152
8240,33216
8241,33216
8242,33216
8243,33280
8244,33344
8245,33408
8246,33408
8247,33408
8248,33408
8249,33408
8250,33472
8251,33536
8252,33536
8253,33536
8254,33536
8255,33536
8256,33536
8257,33536
8258,33600
8259,33664
8260,33664
8261,33664
8262,33664
8263,33664
8264,33664
8265,33664
8266,33664
8267,33664
8268,33664
8269,33664
8270,33664
8271,33600
8272,33600
8273,33600
8274,33600
8275,33600
8276,33600
8277,33600
8278,33600
8279,33600
8280,33664
8281,33664
8282,33664
8283,33664
8284,33728
8285,33728
8286,33664
8287,33664
8288,33664
8289,33664
8290,33728
8291,33792
8292,33792
8293,33792
8294,33792
8295,33728
8296,33728
8297,33728
8298,33728
8299,33728
8300,33792
8301,33856
8302,33984
8303,34048
8304,34176
8305,34304
8306,34496
8307,34624
8308,34688
8309,34752
8310,34816
8311,34944
8312,35072
8313,35136
8314,35136
8315,35072
8316,34944
8317,34752
8318,34560
8319,34240
8320,33856
8321,33536
8322,33216
8323,33024
8324,32960
8325,32896
8326,32960
8327,32960
8328,33024
8329,33088
8330,33088
8331,33152
8332,33152
8333,33152
8334,33024
8335,32960
8336,33088
8337,33728
8338,34816
8339,36544
8340,38784
8341,41600
8342,44608
8343,46912
8344,47296
8345,44928
8346,41216
8347,37312
8348,33728
8349,30784
8350,28992
8351,28224
8352,28224
8353,28736
8354,29376
8355,30144
8356,30784
8357,31296
8358,31680
8359,32000
8360,32256
8361,32384
8362,32512
8363,32704
8364,32832
8365,32960
8366,33088
8367,33216
8368,33280
8369,33408
8370,33472
8371,33600
8372,33664
8373,33728
8374,33792
8375,33856
8376,33984
8377,34048
8378,34176
8379,34240
8380,34368
8381,34496
8382,34624
8383,34752
8384,34880
8385,34944
8386,35008
8387,35072
8388,35264
8389,35456
8390,35584
8391,35712
8392,35840
8393,35968
8394,36096
8395,36224
8396,36352
8397,36416
8398,36480
8399,36480
8400,36480
8401,36480
8402,36352
8403,36288
8404,36160
8405,36032
8406,35840
8407,35648
8408,35392
8409,35072
8410,34688
8411,34176
8412,33728
8413,33344
8414,32960
8415,32576
8416,32192
8417,31936
8418,31680
8419,31488
8420,31360
8421,31296
8422,31296
8423,31296
8424,31360
8425,31488
8426,31616
8427,31744
8428,31872
8429,31936
8430,32064
8431,32192
8432,32320
8433,32384
8434,32512
8435,32640
8436,32704
8437,32832
8438,32896
8439,32960
8440,33024
8441,33152
8442,33216
8443,33280
8444,33280
8445,33280
8446,33344
8447,33344
8448,33408
8449,33408
8450,33408
8451,33472
8452,33472
8453,33472
8454,33472
8455,33536
8456,33536
8457,33600
8458,33600
8459,33600
8460,33536
8461,33536
8462,33536
8463,33600
8464,33600
8465,33600
8466,33600
8467,33600
8468,33600
8469,33600
8470,33536
8471,33536
8472,33536
8473,33536
8474,33536
8475,33600
8476,33664
8477,33664
8478,33728
8479,33728
8480,33728
8481,33728
8482,33728
8483,33792
8484,33792
8485,33728
8486,33664
8487,33600
8488,33664
8489,33664
8490,33664
8491,33664
8492,33728
8493,33792
8494,33792
8495,33728
8496,33792
8497,33792
8498,33856
8499,33920
8500,34112
8501,34240
8502,34368
8503,34432
8504,34496
8505,34496
8506,34560
8507,34688
8508,34880
8509,35008
8510,35072
8511,35008
8512,35008
8513,34880
8514,34752
8515,34496
8516,34176
8517,33792
8518,33472
8519,33216
8520,33024
8521,32960
8522,32896
8523,32960
8524,33024
8525,33088
8526,33088
8527,33216
8528,33280
8529,33280
8530,33216
8531,33152
8532,33024
8533,33152
8534,33664
8535,34880
8536,36544
8537,38720
8538,41536
8539,44416
8540,46592
8541,46656
8542,44288
8543,40832
8544,37184
8545,33856
8546,30592
8547,29248
8548,28416
8549,28288
8550,28736
8551,29312
8552,30080
8553,30784
8554,31360
8555,31808
8556,32128
8557,32384
8558,32576
8559,32768
8560,32896
8561,33024
8562,33088
8563,33152
8564,33216
8565,33344
8566,33344
8567,33408
8568,33536
8569,33664
8570,33792
8571,33856
8572,33920
8573,34048
8574,34112
8575,34176
8576,34240
8577,34368
8578,34496
8579,34560
8580,34624
8581,34752
8582,34816
8583,34944
8584,35072
8585,35264
8586,35328
8587,35456
8588,35584
8589,35712
8590,35904
8591,36096
8592,36160
8593,36224
8594,36288
8595,36288
8596,36352
8597,36352
8598,36288
8599,36160
8600,36032
8601,35968
8602,35904
8603,35776
8604,35584
8605,35328
8606,34944
8607,34560
8608,34176
8609,33728
8610,33408
8611,32960
8612,32640
8613,32256
8614,32000
8615,31744
8616,31552
8617,31424
8618,31360
8619,31424
8620,31488
8621,31616
8622,31680
8623,31744
8624,31808
8625,32000
8626,32128
8627,32256
8628,32320
8629,32384
8630,32512
8631,32640
8632,32768
8633,32896
8634,32960
8635,33024
8636,33024
8637,33088
8638,33152
8639,33152
8640,33216
8641,33216
8642,33280
8643,33344
8644,33408
8645,33472
8646,33536
8647,33600
8648,33600
8649,33600
8650,33664
8651,33664
8652,33664
8653,33664
8654,33664
8655,33664
8656,33664
8657,33664
8658,33664
8659,33600
8660,33664
8661,33600
8662,33600
8663,33600
8664,33600
8665,33536
8666,33600
8667,33600
8668,33600
8669,33664
8670,33664
8671,33664
8672,33600
8673,33600
8674,33600
8675,33600
8676,33664
8677,33728
8678,33728
8679,33728
8680,33728
8681,33728
8682,33856
8683,33984
8684,34112
8685,34304
8686,34432
8687,34496
8688,34560
8689,34624
8690,34752
8691,34880
8692,34944
8693,34944
8694,34944
8695,34880
8696,34688
8697,34432
8698,34176
8699,33856
8700,33536
8701,33280
8702,33152
8703,32960
8704,32896
8705,32896
8706,32960
8707,33024
8708,33088
8709,33152
8710,33216
8711,33280
8712,33216
8713,33152
8714,33088
8715,33088
8716,33408
8717,34240
8718,35584
8719,37504
8720,39872
8721,42688
8722,45312
8723,46784
8724,45632
8725,42624
8726,38656
8727,35712
8728,32704
8729,30336
8730,28864
8731,28288
8732,28352
8733,28864
8734,29568
8735,30272
8736,30976
8737,31552
8738,32000
8739,32320
8740,32576
8741,32768
8742,32832
8743,32960
8744,33024
8745,33152
8746,33216
8747,33280
8748,33408
8749,33472
8750,33536
8751,33600
8752,33728
8753,33856
8754,33920
8755,33984
8756,34112
8757,34112
8758,34176
8759,34240
8760,34368
8761,34432
8762,34560
8763,34688
8764,34816
8765,34880
8766,35008
8767,35136
8768,35264
8769,35392
8770,35584
8771,35776
8772,35840
8773,35968
8774,36096
8775,36160
8776,36288
8777,36352
8778,36352
8779,36288
8780,36288
8781,36224
8782,36160
8783,35968
8784,35840
8785,35712
8786,35456
8787,35264
8788,34944
8789,34624
8790,34240
8791,33792
8792,33408
8793,33024
8794,32704
8795,32384
8796,32128
8797,31936
8798,31744
8799,31616
8800,31616
8801,31616
8802,31616
8803,31616
8804,31744
8805,31872
8806,31936
8807,32000
8808,32128
8809,32320
8810,32448
8811,32512
8812,32576
8813,32640
8814,32768
8815,32832
8816,32960
8817,33024
8818,33088
8819,33152
8820,33216
8821,33280
8822,33344
8823,33408
8824,33408
8825,33472
8826,33472
8827,33536
8828,33600
8829,33600
8830,33600
8831,33728
8832,33728
8833,33728
8834,33792
8835,33728
8836,33664
8837,33664
8838,33664
8839,33664
8840,33600
8841,33664
8842,33664
8843,33664
8844,33664
8845,33664
8846,33664
8847,33728
8848,33728
8849,33728
8850,33728
8851,33664
8852,33600
8853,33664
8854,33664
8855,33664
8856,33664
8857,33664
8858,33664
8859,33728
8860,33792
8861,33728
8862,33728
8863,33792
8864,33728
8865,33728
8866,33792
8867,33856
8868,33920
8869,33984
8870,34112
8871,34240
8872,34432
8873,34560
8874,34624
8875,34688
8876,34688
8877,34688
8878,35008
8879,35072
8880,35072
8881,35008
8882,34944
8883,34816
8884,34624
8885,34304
8886,33920
8887,33600
8888,33344
8889,33152
8890,33024
8891,32960
8892,32960
8893,33024
8894,33024
8895,33024
8896,33088
8897,33088
8898,33088
8899,33152
8900,33152
8901,33152
8902,33088
8903,33280
8904,33984
8905,35904
8906,36224
8907,37120
8908,42176
8909,45120
8910,47232
8911,47168
8912,44544
8913,40704
8914,36736
8915,33152
8916,30336
8917,28736
8918,28096
8919,28224
8920,29120
8921,29248
8922,29632
8923,30848
8924,31360
8925,31744
8926,32064
8927,32320
8928,32512
8929,32704
8930,32832
8931,32960
8932,33024
8933,33088
8934,33216
8935,33408
8936,33344
8937,33344
8938,33600
8939,33728
8940,33728
8941,33856
8942,33920
8943,34048
8944,34112
8945,34240
8946,34368
8947,34432
8948,34496
8949,34624
8950,34688
8951,34816
8952,34944
8953,35072
8954,35200
8955,35328
8956,35456
8957,35648
8958,35840
8959,36032
8960,36096
8961,36224
8962,36288
8963,36416
8964,36480
8965,36544
8966,36544
8967,36544
8968,36416
8969,36352
8970,36288
8971,36160
8972,36032
8973,35840
8974,35584
8975,35200
8976,34880
8977,34432
8978,33984
8979,33472
8980,32832
8981,32768
8982,32256
8983,31936
8984,31744
8985,31552
8986,31360
8987,31232
8988,31232
8989,31232
8990,31360
8991,31424
8992,31552
8993,31616
8994,31744
8995,31872
8996,32000
8997,32128
8998,32192
8999,32320
9000,32448
9001,32576
9002,32640
9003,32768
9004,32896
9005,32960
9006,32960
9007,33024
9008,33088
9009,33152
9010,33152
9011,33088
9012,33216
9013,33280
9014,33344
9015,33344
9016,33408
9017,33472
9018,33472
9019,33536
9020,33536
9021,33536
9022,33536
9023,33536
9024,33536
9025,33600
9026,33600
9027,33600
9028,33600
9029,33600
9030,33600
9031,33600
9032,33600
9033,33600
9034,33600
9035,33600
9036,33536
9037,33600
9038,33600
9039,33600
9040,33600
9041,33600
9042,33600
9043,33600
9044,33728
9045,33728
9046,33664
9047,33664
9048,33600
9049,33600
9050,33664
9051,33664
9052,33728
9053,33664
9054,33728
9055,33792
9056,33792
9057,33728
9058,33792
9059,33792
9060,33792
9061,33792
9062,33856
9063,33856
9064,33920
9065,33984
9066,34048
9067,34176
9068,34368
9069,34560
9070,34752
9071,34688
9072,34688
9073,34752
9074,34880
9075,35072
9076,35136
9077,35136
9078,35072
9079,34944
9080,34752
9081,34496
9082,34176
9083,33856
9084,33600
9085,33280
9086,33216
9087,33024
9088,32896
9089,32896
9090,32896
9091,32960
9092,33024
9093,33088
9094,33088
9095,33152
9096,33152
9097,33088
9098,33024
9099,33024
9100,33600
9101,34496
9102,35968
9103,38016
9104,40832
9105,43968
9106,46528
9107,47744
9108,46272
9109,42816
9110,38784
9111,34944
9112,31616
9113,29440
9114,28288
9115,28224
9116,28352
9117,29184
9118,29888
9119,30592
9120,31040
9121,31488
9122,31808
9123,32064
9124,32256
9125,32448
9126,32640
9127,32768
9128,32896
9129,33024
9130,33152
9131,33152
9132,33280
9133,33344
9134,33472
9135,33536
9136,33600
9137,33728
9138,33856
9139,33984
9140,34048
9141,34048
9142,34176
9143,34240
9144,34368
9145,34560
9146,34560
9147,34752
9148,34880
9149,34944
9150,35072
9151,35264
9152,35392
9153,35584
9154,35776
9155,35904
9156,36032
9157,36160
9158,36288
9159,36416
9160,36480
9161,36544
9162,36608
9163,36608
9164,36544
9165,36416
9166,36352
9167,36288
9168,36160
9169,36032
9170,35776
9171,35520
9172,35136
9173,34688
9174,34240
9175,33792
9176,33344
9177,32896
9178,32512
9179,32128
9180,31808
9181,31616
9182,31360
9183,31232
9184,31104
9185,31104
9186,31168
9187,31232
9188,31296
9189,31424
9190,31552
9191,31744
9192,31872
9193,32000
9194,32128
9195,32192
9196,32320
9197,32384
9198,32512
9199,32640
9200,32704
9201,32768
9202,32832
9203,32896
9204,32960
9205,33088
9206,33088
9207,33152
9208,33216
9209,33280
9210,33344
9211,33344
9212,33408
9213,33408
9214,33408
9215,33472
9216,33472
9217,33536
9218,33600
9219,33536
9220,33536
9221,33536
9222,33536
9223,33600
9224,33600
9225,33664
9226,33664
9227,33664
9228,33664
9229,33600
9230,33600
9231,33600
9232,33600
9233,33600
9234,33664
9235,33664
9236,33664
9237,33664
9238,33664
9239,33664
9240,33664
9241,33664
9242,33664
9243,33728
9244,33728
9245,33728
9246,33728
9247,33728
9248,33728
9249,33728
9250,33728
9251,33728
9252,33664
9253,33664
9254,33664
9255,33664
9256,33664
9257,33664
9258,33728
9259,33728
9260,33792
9261,33920
9262,34048
9263,34240
9264,34432
9265,34560
9266,34624
9267,34752
9268,34752
9269,34816
9270,34944
9271,35008
9272,35072
9273,35072
9274,35008
9275,34880
9276,34688
9277,34368
9278,34048
9279,33792
9280,33472
9281,33216
9282,33024
9283,32896
9284,32832
9285,32832
9286,32896
9287,32960
9288,33088
9289,33088
9290,33152
9291,33152
9292,33216
9293,33152
9294,33088
9295,33152
9296,33728
9297,34688
9298,36288
9299,38464
9300,41152
9301,44160
9302,46720
9303,47488
9304,45504
9305,41920
9306,37952
9307,34240
9308,31168
9309,29056
9310,28096
9311,28032
9312,28544
9313,29312
9314,30080
9315,30720
9316,31296
9317,31680
9318,32000
9319,32192
9320,32384
9321,32576
9322,32704
9323,32832
9324,32960
9325,33024
9326,33152
9327,33280
9328,33408
9329,33536
9330,33664
9331,33728
9332,33792
9333,33920
9334,33920
9335,33984
9336,34048
9337,34112
9338,34240
9339,34304
9340,34368
9341,34432
9342,34560
9343,34688
9344,34880
9345,35072
9346,35200
9347,35392
9348,35520
9349,35648
9350,35776
9351,35904
9352,36032
9353,36160
9354,36352
9355,36480
9356,36544
9357,36608
9358,36608
9359,36544
9360,36480
9361,36352
9362,36352
9363,36224
9364,36096
9365,35968
9366,35712
9367,35392
9368,35072
9369,34688
9370,34240
9371,33792
9372,33344
9373,32896
9374,32512
9375,32128
9376,31808
9377,31552
9378,31360
9379,31296
9380,31232
9381,31232
9382,31296
9383,31296
9384,31360
9385,31424
9386,31552
9387,31680
9388,31936
9389,32064
9390,32128
9391,32192
9392,32320
9393,32448
9394,32576
9395,32640
9396,32704
9397,32768
9398,32896
9399,32960
9400,33088
9401,33088
9402,33152
9403,33152
9404,33280
9405,33280
9406,33280
9407,33344
9408,33344
9409,33472
9410,33472
9411,33472
9412,33536
9413,33600
9414,33600
9415,33600
9416,33536
9417,33536
9418,33536
9419,33536
9420,33600
9421,33600
9422,33600
9423,33600
9424,33600
9425,33600
9426,33536
9427,33536
9428,33536
9429,33600
9430,33600
9431,33600
9432,33600
9433,33664
9434,33600
9435,33600
9436,33600
9437,33600
9438,33664
9439,33664
9440,33664
9441,33664
9442,33664
9443,33664
9444,33664
9445,33664
9446,33664
9447,33664
9448,33664
9449,33664
9450,33664
9451,33600
9452,33600
9453,33664
9454,33856
9455,33920
9456,34048
9457,34176
9458,34368
9459,34496
9460,34560
9461,34560
9462,34688
9463,34816
9464,35008
9465,35072
9466,35072
9467,35008
9468,34944
9469,34752
9470,34560
9471,34304
9472,33920
9473,33600
9474,33344
9475,33152
9476,33024
9477,32960
9478,32960
9479,32960
9480,32960
9481,33024
9482,33024
9483,33088
9484,33152
9485,33152
9486,33088
9487,33024
9488,32960
9489,33152
9490,33856
9491,35136
9492,36864
9493,39168
9494,41920
9495,44928
9496,46848
9497,46528
9498,43776
9499,40192
9500,36608
9501,33344
9502,30720
9503,28992
9504,28224
9505,28224
9506,28736
9507,29376
9508,30144
9509,30784
9510,31296
9511,31744
9512,32192
9513,32448
9514,32640
9515,32768
9516,32960
9517,33024
9518,33024
9519,33088
9520,33216
9521,33344
9522,33408
9523,33472
9524,33536
9525,33664
9526,33728
9527,33856
9528,33920
9529,33920
9530,33984
9531,34048
9532,34176
9533,34240
9534,34368
9535,34496
9536,34624
9537,34752
9538,34880
9539,35072
9540,35200
9541,35264
9542,35456
9543,35584
9544,35776
9545,35968
9546,36032
9547,36096
9548,36160
9549,36160
9550,36224
9551,36288
9552,36288
9553,36224
9554,36224
9555,36160
9556,36032
9557,35904
9558,35840
9559,35648
9560,35392
9561,35136
9562,34816
9563,34496
9564,34112
9565,33664
9566,33216
9567,32896
9568,32512
9569,32128
9570,31872
9571,31616
9572,31488
9573,31424
9574,31360
9575,31424
9576,31424
9577,31552
9578,31616
9579,31744
9580,31808
9581,31872
9582,32000
9583,32128
9584,32256
9585,32384
9586,32512
9587,32640
9588,32704
9589,32768
9590,32768
9591,32896
9592,32960
9593,33088
9594,33152
9595,33216
9596,33280
9597,33344
9598,33408
9599,33472
9600,33536
9601,33536
9602,33536
9603,33536
9604,33536
9605,33600
9606,33664
9607,33664
9608,33728
9609,33728
9610,33728
9611,33664
9612,33664
9613,33600
9614,33600
9615,33600
9616,33600
9617,33600
9618,33600
9619,33600
9620,33600
9621,33664
9622,33664
9623,33664
9624,33664
9625,33664
9626,33664
9627,33664
9628,33664
9629,33664
9630,33728
9631,33728
9632,33728
9633,33728
9634,33728
9635,33664
9636,33664
9637,33664
9638,33664
9639,33728
9640,33856
9641,33984
9642,34176
9643,34368
9644,34432
9645,34560
9646,34624
9647,34816
9648,35008
9649,35136
9650,35072
9651,35008
9652,34880
9653,34752
9654,34496
9655,34304
9656,33984
9657,33664
9658,33408
9659,33152
9660,32960
9661,32832
9662,32832
9663,32896
9664,32960
9665,33024
9666,33088
9667,33152
9668,33216
9669,33216
9670,33216
9671,33280
9672,33280
9673,33280
9674,33728
9675,34688
9676,36288
9677,38400
9678,40960
9679,43840
9680,46080
9681,46528
9682,44416
9683,41152
9684,37632
9685,34304
9686,31552
9687,29568
9688,28480
9689,28160
9690,28480
9691,29056
9692,29824
9693,30592
9694,31232
9695,31680
9696,32128
9697,32384
9698,32576
9699,32704
9700,32896
9701,33024
9702,33152
9703,33216
9704,33280
9705,33344
9706,33408
9707,33472
9708,33600
9709,33664
9710,33728
9711,33792
9712,33920
9713,33984
9714,34048
9715,34176
9716,34240
9717,34368
9718,34432
9719,34560
9720,34688
9721,34880
9722,34944
9723,35008
9724,35072
9725,35136
9726,35264
9727,35456
9728,35648
9729,35840
9730,35968
9731,36096
9732,36160
9733,36224
9734,36288
9735,36352
9736,36352
9737,36352
9738,36288
9739,36288
9740,36224
9741,36096
9742,35968
9743,35776
9744,35520
9745,35200
9746,34880
9747,34496
9748,34048
9749,33600
9750,33216
9751,32832
9752,32448
9753,32128
9754,31936
9755,31744
9756,31552
9757,31488
9758,31488
9759,31488
9760,31488
9761,31552
9762,31680
9763,31808
9764,31936
9765,32064
9766,32192
9767,32320
9768,32384
9769,32512
9770,32576
9771,32640
9772,32704
9773,32768
9774,32832
9775,32896
9776,33024
9777,33088
9778,33152
9779,33280
9780,33280
9781,33344
9782,33408
9783,33472
9784,33472
9785,33472
9786,33536
9787,33536
9788,33536
9789,33600
9790,33664
9791,33728
9792,33728
9793,33664
9794,33664
9795,33664
9796,33664
9797,33728
9798,33728
9799,33728
9800,33728
9801,33728
9802,33728
9803,33664
9804,33728
9805,33664
9806,33664
9807,33600
9808,33664
9809,33664
9810,33664
9811,33600
9812,33664
9813,33728
9814,33728
9815,33664
9816,33728
9817,33728
9818,33728
9819,33728
9820,33792
9821,33856
9822,33856
9823,33984
9824,34112
9825,34240
9826,34368
9827,34496
9828,34560
9829,34624
9830,34752
9831,34944
9832,35008
9833,35072
9834,35072
9835,34944
9836,34816
9837,34624
9838,34368
9839,34112
9840,33792
9841,33536
9842,33280
9843,33088
9844,32960
9845,32960
9846,32896
9847,32896
9848,32960
9849,33024
9850,33088
9851,33152
9852,33152
9853,33216
9854,33216
9855,33152
9856,33088
9857,33408
9858,34176
9859,35456
9860,37248
9861,39616
9862,42496
9863,45376
9864,47168
9865,46592
9866,43456
9867,39872
9868,36032
9869,32640
9870,29888
9871,28544
9872,28032
9873,28224
9874,28800
9875,29568
9876,30336
9877,30912
9878,31360
9879,31744
9880,32064
9881,32320
9882,32512
9883,32704
9884,32832
9885,32960
9886,33088
9887,33152
9888,33280
9889,33344
9890,33408
9891,33472
9892,33472
9893,33600
9894,33664
9895,33792
9896,33920
9897,34048
9898,34112
9899,34176
9900,34304
9901,34368
9902,34432
9903,34560
9904,34688
9905,34880
9906,35008
9907,35200
9908,35328
9909,35456
9910,35584
9911,35712
9912,35904
9913,36032
9914,36160
9915,36288
9916,36416
9917,36544
9918,36608
9919,36672
9920,36672
9921,36608
9922,36544
9923,36416
9924,36352
9925,36224
9926,36032
9927,35840
9928,35584
9929,35264
9930,34880
9931,34368
9932,33856
9933,33408
9934,32960
9935,32512
9936,32192
9937,31936
9938,31680
9939,31488
9940,31360
9941,31296
9942,31360
9943,31424
9944,31488
9945,31552
9946,31616
9947,31744
9948,31808
9949,31872
9950,32000
9951,32192
9952,32320
9953,32448
9954,32576
9955,32640
9956,32704
9957,32768
9958,32896
9959,32896
9960,32960
9961,33024
9962,33152
9963,33216
9964,33280
9965,33344
9966,33472
9967,33536
9968,33600
9969,33600
9970,33600
9971,33600
9972,33600
9973,33600
9974,33600
9975,33664
9976,33664
9977,33664
9978,33664
9979,33664
9980,33664
9981,33664
9982,33664
9983,33728
9984,33728
9985,33728
9986,33728
9987,33728
9988,33728
9989,33728
9990,33664
9991,33728
9992,33728
9993,33728
9994,33728
9995,33792
9996,33792
9997,33728
9998,33728
9999,33728
10000,33728
10001,33664
10002,33664
10003,33728
10004,33728
10005,33728
10006,33728
10007,33792
10008,33792
10009,33728
10010,33728
10011,33728
10012,33728
10013,33728
10014,33728
10015,33792
10016,33920
10017,34048
10018,34176
10019,34304
10020,34496
10021,34624
10022,34688
10023,34752
10024,34816
10025,34944
10026,35072
10027,35072
10028,35072
10029,35008
10030,34944
10031,34688
10032,34432
10033,34112
10034,33792
10035,33472
10036,33152
10037,33024
10038,32960
10039,32960
10040,32960
10041,32960
10042,33024
10043,33088
10044,33088
10045,33152
10046,33216
10047,33216
10048,33216
10049,33152
10050,33216
10051,33664
10052,34624
10053,36096
10054,38144
10055,40832
10056,43904
10057,46656
10058,47872
10059,46400
10060,42880
10061,38848
10062,34816
10063,31616
10064,29312
10065,28160
10066,27968
10067,28416
10068,29120
10069,29888
10070,30528
10071,31104
10072,31552
10073,31872
10074,32128
10075,32320
10076,32512
10077,32640
10078,32768
10079,32896
10080,33024
10081,33152
10082,33280
10083,33408
10084,33472
10085,33536
10086,33600
10087,33664
10088,33728
10089,33792
10090,33856
10091,33984
10092,34112
10093,34176
10094,34240
10095,34432
10096,34560
10097,34688
10098,34816
10099,34944
10100,35072
10101,35200
10102,35328
10103,35456
10104,35648
10105,35776
10106,35968
10107,36160
10108,36288
10109,36416
10110,36608
10111,36608
10112,36672
10113,36672
10114,36736
10115,36736
10116,36672
10117,36544
10118,36416
10119,36288
10120,36096
10121,35840
10122,35520
10123,35136
10124,34752
10125,34304
10126,33856
10127,33408
10128,32960
10129,32576
10130,32256
10131,31936
10132,31680
10133,31488
10134,31360
10135,31232
10136,31232
10137,31360
10138,31424
10139,31424
10140,31488
10141,31616
10142,31744
10143,31808
10144,31936
10145,32064
10146,32192
10147,32320
10148,32384
10149,32512
10150,32576
10151,32704
10152,32832
10153,32896
10154,32960
10155,33024
10156,33088
10157,33152
10158,33280
10159,33280
10160,33344
10161,33344
10162,33472
10163,33536
10164,33536
10165,33536
10166,33600
10167,33600
10168,33600
10169,33600
10170,33600
10171,33600
10172,33536
10173,33536
10174,33536
10175,33600
10176,33600
10177,33600
10178,33600
10179,33600
10180,33600
10181,33600
10182,33600
10183,33600
10184,33664
10185,33600
10186,33600
10187,33600
10188,33600
10189,33600
10190,33664
10191,33728
10192,33664
10193,33600
10194,33600
10195,33600
10196,33664
10197,33728
10198,33728
10199,33728
10200,33792
10201,33728
10202,33728
10203,33664
10204,33664
10205,33664
10206,33664
10207,33728
10208,33728
10209,33728
10210,33728
10211,33728
10212,33728
10213,33792
10214,33792
10215,33856
10216,33920
10217,34048
10218,34112
10219,34240
10220,34368
10221,34560
10222,34688
10223,34752
10224,34752
10225,34880
10226,35008
10227,35136
10228,35136
10229,35072
10230,35008
10231,34880
10232,34688
10233,34432
10234,34176
10235,33792
10236,33536
10237,33280
10238,33152
10239,33024
10240,32960
10241,32960
10242,32960
10243,33024
10244,33088
10245,33216
10246,33280
10247,33280
10248,33280
10249,33216
10250,33088
10251,33152
10252,33664
10253,34688
10254,36224
10255,38336
10256,41088
10257,44160
10258,46784
10259,47616
10260,45568
10261,42048
10262,38080
10263,34368
10264,31232
10265,29184
10266,28224
10267,28096
10268,28544
10269,29248
10270,30016
10271,30720
10272,31232
10273,31616
10274,31936
10275,32192
10276,32384
10277,32576
10278,32704
10279,32832
10280,32960
10281,33088
10282,33152
10283,33280
10284,33344
10285,33472
10286,33536
10287,33600
10288,33664
10289,33728
10290,33856
10291,33920
10292,34048
10293,34176
10294,34240
10295,34368
10296,34496
10297,34624
10298,34752
10299,34816
10300,34880
10301,35008
10302,35072
10303,35200
10304,35392
10305,35520
10306,35648
10307,35776
10308,35968
10309,36096
10310,36288
10311,36352
10312,36480
10313,36544
10314,36544
10315,36608
10316,36608
10317,36608
10318,36544
10319,36416
10320,36288
10321,36160
10322,35840
10323,35584
10324,35264
10325,34816
10326,34368
10327,33920
10328,33472
10329,33024
10330,32640
10331,32192
10332,31936
10333,31680
10334,31488
10335,31360
10336,31360
10337,31296
10338,31296
10339,31296
10340,31360
10341,31488
10342,31680
10343,31808
10344,31872
10345,32000
10346,32128
10347,32128
10348,32256
10349,32384
10350,32512
10351,32640
10352,32704
10353,32832
10354,32896
10355,32960
10356,33024
10357,33088
10358,33152
10359,33280
10360,33344
10361,33344
10362,33408
10363,33408
10364,33408
10365,33408
10366,33472
10367,33472
10368,33536
10369,33536
10370,33536
10371,33536
10372,33536
10373,33600
10374,33600
10375,33600
10376,33536
10377,33536
10378,33600
10379,33600
10380,33600
10381,33600
10382,33600
10383,33600
10384,33600
10385,33536
10386,33536
10387,33600
10388,33600
10389,33600
10390,33536
10391,33600
10392,33600
10393,33664
10394,33664
10395,33728
10396,33728
10397,33728
10398,33728
10399,33792
10400,33792
10401,33792
10402,33728
10403,33728
10404,33728
10405,33792
10406,33792
10407,33792
10408,33792
10409,33792
10410,33792
10411,33728
10412,33728
10413,33728
10414,33792
10415,33856
10416,33856
10417,33920
10418,33856
10419,33856
10420,33856
10421,33856
10422,33920
10423,33984
10424,34112
10425,34240
10426,34368
10427,34432
10428,34560
10429,34624
10430,34688
10431,34752
10432,34880
10433,35136
10434,35200
10435,35136
10436,35072
10437,34944
10438,34752
10439,34496
10440,34176
10441,33920
10442,33600
10443,33344
10444,33152
10445,33088
10446,33024
10447,32960
10448,32960
10449,33024
10450,33088
10451,33152
10452,33152
10453,33216
10454,33280
10455,33216
10456,33152
10457,33152
10458,33664
10459,34688
10460,36160
10461,38144
10462,40832
10463,43904
10464,46592
10465,47616
10466,46016
10467,42496
10468,38528
10469,34752
10470,31552
10471,29376
10472,28288
10473,28032
10474,28480
10475,29184
10476,29888
10477,30528
10478,31104
10479,31552
10480,31872
10481,32192
10482,32384
10483,32512
10484,32704
10485,32832
10486,32960
10487,33088
10488,33152
10489,33280
10490,33344
10491,33408
10492,33536
10493,33600
10494,33664
10495,33792
10496,33856
10497,33920
10498,34048
10499,34112
10500,34176
10501,34240
10502,34368
10503,34432
10504,34560
10505,34688
10506,34816
10507,34944
10508,35072
10509,35264
10510,35392
10511,35584
10512,35712
10513,35776
10514,35904
10515,36096
10516,36224
10517,36352
10518,36352
10519,36416
10520,36480
10521,36480
10522,36480
10523,36480
10524,36416
10525,36352
10526,36224
10527,36032
10528,35776
10529,35584
10530,35328
10531,35008
10532,34560
10533,34176
10534,33664
10535,33216
10536,32768
10537,32384
10538,32064
10539,31744
10540,31552
10541,31424
10542,31296
10543,31232
10544,31168
10545,31232
10546,31360
10547,31488
10548,31616
10549,31680
10550,31808
10551,31872
10552,32000
10553,32128
10554,32256
10555,32384
10556,32512
10557,32576
10558,32640
10559,32768
10560,32832
10561,32896
10562,32960
10563,33024
10564,33088
10565,33216
10566,33280
10567,33280
10568,33344
10569,33408
10570,33408
10571,33472
10572,33472
10573,33472
10574,33472
10575,33536
10576,33536
10577,33600
10578,33600
10579,33536
10580,33536
10581,33536
10582,33536
10583,33600
10584,33600
10585,33600
10586,33600
10587,33600
10588,33536
10589,33536
10590,33600
10591,33600
10592,33600
10593,33600
10594,33536
10595,33536
10596,33600
10597,33600
10598,33600
10599,33664
10600,33728
10601,33728
10602,33664
10603,33664
10604,33728
10605,33728
10606,33728
10607,33728
10608,33728
10609,33728
10610,33728
10611,33728
10612,33728
10613,33728
10614,33792
10615,33728
10616,33728
10617,33728
10618,33728
10619,33728
10620,33728
10621,33728
10622,33728
10623,33728
10624,33856
10625,33920
10626,33984
10627,33984
10628,34048
10629,34112
10630,34176
10631,34304
10632,34432
10633,34496
10634,34560
10635,34752
10636,34880
10637,35072
10638,35136
10639,35072
10640,35008
10641,34880
10642,34688
10643,34368
10644,34048
10645,33792
10646,33472
10647,33280
10648,33152
10649,33088
10650,33088
10651,33088
10652,33088
10653,33088
10654,33088
10655,33088
10656,33152
10657,33152
10658,33152
10659,33088
10660,33280
10661,33344
10662,33664
10663,36224
10664,38400
10665,38464
10666,43968
10667,46400
10668,46912
10669,44928
10670,41536
10671,37888
10672,34432
10673,31424
10674,29312
10675,28288
10676,28032
10677,28288
10678,28928
10679,29760
10680,29760
10681,31040
10682,31552
10683,31936
10684,32192
10685,32384
10686,32576
10687,32768
10688,32896
10689,32960
10690,33152
10691,33088
10692,33152
10693,33280
10694,33408
10695,33344
10696,33600
10697,33728
10698,33792
10699,33856
10700,33856
10701,33920
10702,33984
10703,34048
10704,34176
10705,34368
10706,34304
10707,34368
10708,34624
10709,34752
10710,34688
10711,35072
10712,35200
10713,35328
10714,35392
10715,35520
10716,35712
10717,35840
10718,36032
10719,36096
10720,36288
10721,36224
10722,36224
10723,36352
10724,36416
10725,36352
10726,36288
10727,36224
10728,36096
10729,35968
10730,35776
10731,35648
10732,35456
10733,35136
10734,34752
10735,34368
10736,33920
10737,33536
10738,33088
10739,32704
10740,32320
10741,32000
10742,31744
10743,31552
10744,31488
10745,31360
10746,31296
10747,31232
10748,31296
10749,31360
10750,31552
10751,31488
10752,31808
10753,31936
10754,32064
10755,32192
10756,32256
10757,32320
10758,32384
10759,32512
10760,32640
10761,32768
10762,32896
10763,32960
10764,33024
10765,33088
10766,33088
10767,33088
10768,33152
10769,33280
10770,33216
10771,33344
10772,33344
10773,33344
10774,33408
10775,33472
10776,33472
10777,33536
10778,33600
10779,33664
10780,33664
10781,33664
10782,33664
10783,33664
10784,33664
10785,33664
10786,33664
10787,33600
10788,33600
10789,33600
10790,33600
10791,33600
10792,33536
10793,33472
10794,33472
10795,33536
10796,33472
10797,33536
10798,33536
10799,33600
10800,33600
10801,33600
10802,33600
10803,33600
10804,33664
10805,33664
10806,33728
10807,33792
10808,33792
10809,33728
10810,33664
10811,33664
10812,33728
10813,33792
10814,33920
10815,34048
10816,34176
10817,34304
10818,34368
10819,34432
10820,34560
10821,34624
10822,34816
10823,34880
10824,34944
10825,34944
10826,34944
10827,34816
10828,34624
10829,34368
10830,33984
10831,33664
10832,33408
10833,33216
10834,33088
10835,32960
10836,32960
10837,32960
10838,33024
10839,33024
10840,33088
10841,33088
10842,33152
10843,33216
10844,33216
10845,33152
10846,33024
10847,33088
10848,33536
10849,34624
10850,36224
10851,38336
10852,40896
10853,43584
10854,45824
10855,45888
10856,45440
10857,41280
10858,37888
10859,34688
10860,31744
10861,29888
10862,28736
10863,28352
10864,28480
10865,29056
10866,29696
10867,30400
10868,31104
10869,31552
10870,32064
10871,32064
10872,32384
10873,32576
10874,32768
10875,32960
10876,33088
10877,33216
10878,33280
10879,33344
10880,33472
10881,33536
10882,33600
10883,33664
10884,33664
10885,33728
10886,33792
10887,33984
10888,34112
10889,34112
10890,34112
10891,34240
10892,34368
10893,34496
10894,34624
10895,34688
10896,34752
10897,34752
10898,34880
10899,35008
10900,35264
10901,35200
10902,35456
10903,35584
10904,35776
10905,35904
10906,35968
10907,36032
10908,36096
10909,36160
10910,36160
10911,36224
10912,36224
10913,36224
10914,36160
10915,36032
10916,35968
10917,35712
10918,35520
10919,35264
10920,34880
10921,34560
10922,34112
10923,33728
10924,33344
