,ECG
0,35264
1,35264
2,35520
3,35712
4,35840
5,35968
6,36032
7,36032
8,36096
9,36160
10,36224
11,36160
12,36224
13,36352
14,36352
15,36352
16,36352
17,36288
18,36224
19,36160
20,35968
21,35648
22,35392
23,34944
24,34496
25,34112
26,33792
27,33344
28,32896
29,32576
30,32256
31,32128
32,32064
33,31872
34,31744
35,31616
36,31488
37,31488
38,31616
39,31744
40,31936
41,32064
42,32320
43,32512
44,32640
45,32768
46,32896
47,33024
48,32960
49,32832
50,32896
51,32960
52,33024
53,33152
54,33344
55,33344
56,33408
57,33344
58,33344
59,33344
60,33344
61,33408
62,33408
63,33472
64,33536
65,33536
66,33664
67,33792
68,33920
69,33984
70,34112
71,34112
72,33984
73,33920
74,33920
75,34112
76,34304
77,34496
78,34624
79,34688
80,34880
81,35008
82,35008
83,34944
84,34880
85,34752
86,34496
87,34048
88,33600
89,33280
90,32960
91,32704
92,32448
93,32448
94,32512
95,32640
96,32768
97,32832
98,32896
99,32960
100,33088
101,33216
102,33216
103,33024
104,32896
105,32960
106,33536
107,34752
108,36480
109,38720
110,41280
111,44160
112,46336
113,46528
114,44288
115,40960
116,37504
117,34304
118,31552
119,29568
120,28544
121,28288
122,28608
123,29248
124,29888
125,30656
126,31296
127,31872
128,32256
129,32576
130,32768
131,32832
132,32960
133,33152
134,33216
135,33152
136,33088
137,33280
138,33600
139,33664
140,33728
141,33856
142,34112
143,34112
144,33920
145,33920
146,34048
147,34240
148,34432
149,34624
150,34752
151,34816
152,34880
153,35008
154,35072
155,35072
156,35136
157,35136
158,35200
159,35264
160,35328
161,35520
162,35648
163,35776
164,35904
165,36032
166,36352
167,36544
168,36544
169,36480
170,36352
171,36224
172,35968
173,35840
174,35776
175,35648
176,35520
177,35392
178,35200
179,34944
180,34560
181,34176
182,33792
183,33472
184,33152
185,32896
186,32576
187,32256
188,32128
189,32064
190,31872
191,31808
192,31616
193,31552
194,31680
195,31808
196,31872
197,31936
198,32128
199,32384
200,32576
201,32640
202,32832
203,33024
204,33152
205,33152
206,33088
207,33216
208,33344
209,33280
210,33152
211,33216
212,33344
213,33536
214,33664
215,33664
216,33536
217,33536
218,33536
219,33600
220,33600
221,33664
222,33792
223,33984
224,34048
225,34048
226,34048
227,34112
228,34240
229,34240
230,34176
231,34176
232,34176
233,34304
234,34496
235,34624
236,34752
237,34944
238,35008
239,34944
240,34880
241,34752
242,34496
243,34112
244,33792
245,33536
246,33216
247,32896
248,32704
249,32704
250,32704
251,32832
252,32832
253,32896
254,32960
255,33088
256,33152
257,33216
258,33216
259,33216
260,33088
261,33024
262,33216
263,34048
264,35328
265,37056
266,39360
267,42112
268,44928
269,46848
270,46400
271,43712
272,40128
273,36352
274,33280
275,30720
276,29120
277,28352
278,28288
279,28672
280,29312
281,30016
282,30720
283,31424
284,31936
285,32192
286,32512
287,32768
288,32960
289,33088
290,33152
291,33280
292,33472
293,33536
294,33536
295,33472
296,33472
297,33536
298,33664
299,33856
300,33920
301,33984
302,33920
303,33920
304,33984
305,34240
306,34496
307,34752
308,34816
309,34688
310,34560
311,34688
312,35008
313,35200
314,35392
315,35520
316,35584
317,35648
318,35840
319,36032
320,36032
321,35840
322,35712
323,35776
324,35968
325,36096
326,36288
327,36416
328,36480
329,36416
330,36288
331,36096
332,35904
333,35776
334,35584
335,35264
336,34880
337,34560
338,34112
339,33664
340,33216
341,32832
342,32576
343,32320
344,32128
345,32064
346,31936
347,31872
348,31808
349,31808
350,31936
351,32128
352,32192
353,32192
354,32192
355,32256
356,32320
357,32384
358,32512
359,32640
360,32768
361,32832
362,32960
363,33088
364,33152
365,33216
366,33280
367,33344
368,33472
369,33472
370,33472
371,33536
372,33536
373,33536
374,33664
375,33728
376,33728
377,33792
378,33856
379,33792
380,33728
381,33664
382,33664
383,33728
384,33792
385,33856
386,33984
387,34112
388,34304
389,34368
390,34560
391,34560
392,34560
393,34688
394,34944
395,35136
396,35200
397,35264
398,35264
399,35136
400,34944
401,34496
402,34176
403,33792
404,33472
405,33152
406,33024
407,32896
408,32896
409,32960
410,32960
411,32896
412,32896
413,32960
414,33088
415,33152
416,33280
417,33344
418,33280
419,33280
420,33216
421,33536
422,34368
423,35584
424,37376
425,39616
426,42432
427,45184
428,46976
429,46464
430,43712
431,40000
432,36288
433,33088
434,30528
435,29056
436,28416
437,28480
438,28928
439,29568
440,30336
441,31104
442,31616
443,32000
444,32256
445,32512
446,32704
447,32832
448,32960
449,33152
450,33408
451,33472
452,33536
453,33664
454,33728
455,33792
456,33792
457,33728
458,33728
459,33792
460,33856
461,33984
462,34048
463,34048
464,34112
465,34240
466,34432
467,34624
468,34624
469,34688
470,34880
471,35200
472,35392
473,35520
474,35520
475,35584
476,35776
477,35968
478,36032
479,36160
480,36288
481,36416
482,36416
483,36480
484,36416
485,36352
486,36224
487,36096
488,36096
489,36096
490,36032
491,35840
492,35584
493,35264
494,35008
495,34816
496,34560
497,34304
498,33984
499,33600
500,33088
501,32640
502,32320
503,32000
504,31872
505,31744
506,31616
507,31616
508,31680
509,31808
510,31936
511,32000
512,32128
513,32192
514,32256
515,32384
516,32448
517,32640
518,32768
519,32832
520,32832
521,32832
522,32896
523,32960
524,33088
525,33216
526,33344
527,33472
528,33472
529,33536
530,33536
531,33536
532,33600
533,33664
534,33664
535,33536
536,33472
537,33536
538,33664
539,33856
540,33984
541,33984
542,33856
543,33728
544,33664
545,33664
546,33792
547,34048
548,34176
549,34304
550,34304
551,34304
552,34240
553,34368
554,34560
555,34816
556,34944
557,34944
558,35008
559,35008
560,35008
561,34880
562,34752
563,34624
564,34304
565,33856
566,33408
567,33088
568,32832
569,32768
570,32832
571,32960
572,33024
573,33088
574,33024
575,33088
576,33216
577,33344
578,33472
579,33408
580,33280
581,33216
582,33088
583,33344
584,34112
585,35392
586,37312
587,39808
588,42624
589,45312
590,46976
591,46528
592,43648
593,39872
594,36160
595,32768
596,30272
597,28800
598,28224
599,28352
600,28992
601,29824
602,30720
603,31296
604,31680
605,31936
606,32192
607,32448
608,32576
609,32768
610,33024
611,33216
612,33344
613,33472
614,33536
615,33536
616,33600
617,33728
618,33856
619,33984
620,34048
621,34112
622,34048
623,33984
624,34048
625,34176
626,34432
627,34624
628,34688
629,34752
630,34880
631,34944
632,35008
633,35136
634,35264
635,35328
636,35456
637,35648
638,35776
639,35840
640,35840
641,35904
642,35904
643,35904
644,36032
645,36288
646,36416
647,36480
648,36416
649,36352
650,36352
651,36480
652,36480
653,36352
654,36096
655,35712
656,35392
657,35072
658,34688
659,34176
660,33664
661,33280
662,32960
663,32640
664,32320
665,32000
666,31744
667,31552
668,31424
669,31488
670,31616
671,31744
672,31808
673,31808
674,31872
675,31936
676,32000
677,32192
678,32320
679,32512
680,32576
681,32640
682,32768
683,32832
684,32832
685,32896
686,32960
687,33024
688,33152
689,33280
690,33344
691,33344
692,33280
693,33344
694,33408
695,33472
696,33472
697,33472
698,33408
699,33344
700,33216
701,33280
702,33408
703,33408
704,33408
705,33408
706,33536
707,33664
708,33728
709,33728
710,33728
711,33728
712,33728
713,33792
714,33920
715,33984
716,34176
717,34304
718,34432
719,34624
720,34688
721,34816
722,34816
723,34816
724,34816
725,34880
726,34880
727,34752
728,34560
729,34304
730,33984
731,33536
732,33152
733,32832
734,32640
735,32704
736,32768
737,32896
738,32896
739,33280
740,33408
741,33472
742,33472
743,33408
744,33216
745,33024
746,32832
747,32832
748,33152
749,33984
750,35456
751,38080
752,38080
753,42880
754,45632
755,47296
756,46528
757,43328
758,42752
759,36160
760,32960
761,30464
762,28864
763,28224
764,28224
765,28672
766,29376
767,30272
768,30336
769,31680
770,32128
771,32448
772,32704
773,32896
774,32960
775,33024
776,33024
777,33152
778,33216
779,33344
780,33408
781,33472
782,33536
783,33664
784,33920
785,34048
786,34176
787,34176
788,34240
789,34176
790,34048
791,33984
792,33984
793,34112
794,34432
795,34752
796,35008
797,35200
798,35328
799,35392
800,35456
801,35584
802,35712
803,35776
804,35968
805,36032
806,36032
807,36160
808,36224
809,36160
810,36160
811,36480
812,36544
813,36544
814,36416
815,36160
816,35840
817,35584
818,35456
819,35456
820,35456
821,35392
822,35200
823,34944
824,34624
825,34240
826,33728
827,33280
828,32832
829,32384
830,32128
831,31936
832,31744
833,31552
834,31488
835,31616
836,31680
837,31680
838,31616
839,31552
840,31744
841,32064
842,32448
843,32704
844,32704
845,32768
846,33088
847,33152
848,33152
849,33152
850,33024
851,32896
852,32832
853,32832
854,32832
855,33088
856,33472
857,33792
858,33792
859,33728
860,33664
861,33600
862,33472
863,33536
864,33600
865,33664
866,33600
867,33472
868,33408
869,33344
870,33344
871,33408
872,33536
873,33728
874,33728
875,33792
876,33792
877,33792
878,33664
879,33600
880,33472
881,33536
882,33600
883,33728
884,33920
885,34048
886,34112
887,34176
888,34240
889,34368
890,34496
891,34752
892,35072
893,35328
894,35264
895,35264
896,35264
897,35328
898,35392
899,35328
900,35072
901,34688
902,34240
903,33920
904,33472
905,33024
906,32768
907,32640
908,32640
909,32576
910,32704
911,32896
912,32960
913,33088
914,33152
915,33088
916,33024
917,33024
918,33024
919,33024
920,33088
921,33728
922,34752
923,36416
924,38528
925,41088
926,44032
927,46592
928,47360
929,47104
930,42368
931,38400
932,34624
933,31552
934,29376
935,28288
936,28032
937,28288
938,28736
939,29440
940,30208
941,31040
942,31680
943,32000
944,32000
945,32320
946,32576
947,32832
948,33088
949,33088
950,33280
951,33344
952,33344
953,33216
954,33280
955,33408
956,33600
957,33792
958,33792
959,33600
960,33536
961,33536
962,33792
963,34176
964,34176
965,34624
966,34752
967,34752
968,34880
969,35072
970,35264
971,35392
972,35392
973,35392
974,35456
975,35520
976,35584
977,35712
978,35904
979,35904
980,36224
981,36352
982,36544
983,36544
984,36352
985,36224
986,36224
987,36224
988,36096
989,35776
990,35520
991,35328
992,35200
993,35264
994,35264
995,35008
996,34624
997,34240
998,33856
999,33792
1000,33344
1001,32960
1002,32576
1003,32256
1004,32064
1005,31936
1006,31808
1007,31744
1008,31552
1009,31488
1010,31552
1011,31680
1012,31744
1013,31808
1014,31936
1015,32128
1016,32192
1017,32192
1018,32256
1019,32512
1020,32704
1021,32768
1022,32832
1023,32960
1024,33088
1025,33280
1026,33344
1027,33280
1028,33152
1029,33152
1030,33280
1031,33408
1032,33600
1033,33792
1034,33920
1035,33920
1036,33728
1037,33536
1038,33280
1039,33152
1040,33152
1041,33152
1042,33280
1043,33472
1044,33536
1045,33600
1046,33664
1047,33600
1048,33600
1049,33536
1050,33728
1051,33920
1052,34112
1053,34240
1054,34304
1055,34368
1056,34432
1057,34560
1058,34688
1059,34880
1060,35008
1061,35072
1062,35136
1063,35072
1064,35008
1065,34944
1066,34880
1067,34560
1068,34112
1069,33728
1070,33344
1071,33088
1072,32960
1073,32960
1074,33024
1075,33024
1076,33088
1077,33152
1078,33152
1079,33152
1080,33152
1081,33280
1082,33408
1083,33472
1084,33408
1085,33472
1086,33600
1087,34304
1088,35584
1089,37248
1090,39424
1091,42304
1092,45120
1093,46912
1094,46528
1095,43776
1096,40064
1097,36352
1098,33088
1099,30528
1100,28928
1101,28352
1102,28480
1103,29184
1104,29184
1105,30400
1106,31040
1107,31488
1108,31872
1109,32256
1110,32512
1111,32704
1112,32832
1113,32960
1114,33024
1115,33152
1116,33280
1117,33344
1118,33408
1119,33472
1120,33472
1121,33472
1122,33664
1123,33856
1124,33984
1125,33984
1126,33984
1127,34048
1128,34240
1129,34368
1130,34432
1131,34496
1132,34560
1133,34624
1134,34560
1135,34624
1136,34752
1137,34944
1138,35136
1139,35328
1140,35392
1141,35456
1142,35584
1143,35648
1144,35840
1145,35968
1146,36096
1147,36096
1148,36160
1149,36224
1150,36224
1151,36224
1152,36224
1153,36160
1154,36032
1155,35968
1156,35840
1157,35712
1158,35456
1159,35264
1160,34944
1161,34624
1162,34240
1163,33856
1164,33472
1165,33088
1166,32768
1167,32448
1168,32192
1169,31936
1170,31744
1171,31680
1172,31616
1173,31424
1174,31360
1175,31488
1176,31744
1177,32064
1178,32320
1179,32384
1180,32384
1181,32384
1182,32448
1183,32448
1184,32512
1185,32704
1186,32832
1187,32896
1188,32896
1189,32832
1190,33088
1191,33216
1192,33344
1193,33408
1194,33408
1195,33408
1196,33344
1197,33408
1198,33472
1199,33536
1200,33600
1201,33664
1202,33600
1203,33600
1204,33600
1205,33600
1206,33600
1207,33728
1208,33728
1209,33728
1210,33728
1211,33728
1212,33728
1213,33728
1214,33728
1215,33792
1216,33920
1217,34048
1218,34112
1219,34112
1220,34240
1221,34432
1222,34688
1223,35008
1224,34944
1225,35200
1226,35200
1227,35136
1228,35136
1229,35072
1230,34944
1231,34624
1232,34240
1233,33664
1234,33088
1235,32832
1236,32704
1237,32640
1238,32640
1239,32640
1240,32704
1241,32896
1242,33024
1243,33088
1244,33088
1245,33216
1246,33216
1247,33152
1248,33088
1249,33088
1250,33152
1251,33536
1252,34432
1253,35968
1254,37952
1255,40448
1256,43264
1257,45888
1258,46976
1259,45504
1260,42432
1261,38592
1262,35008
1263,31936
1264,29760
1265,28608
1266,28288
1267,28672
1268,29312
1269,30016
1270,30720
1271,31296
1272,31680
1273,32000
1274,32256
1275,32512
1276,32704
1277,32896
1278,33024
1279,32960
1280,33280
1281,33280
1282,33408
1283,33664
1284,33792
1285,33792
1286,33792
1287,33792
1288,33856
1289,33920
1290,33984
1291,34048
1292,34176
1293,34304
1294,34240
1295,34560
1296,34624
1297,34688
1298,34816
1299,34816
1300,34944
1301,35008
1302,35136
1303,35392
1304,35584
1305,35648
1306,35648
1307,35648
1308,35712
1309,35840
1310,36032
1311,36160
1312,36352
1313,36480
1314,36480
1315,36416
1316,36288
1317,36224
1318,36160
1319,36032
1320,35968
1321,35840
1322,35584
1323,35392
1324,35200
1325,35008
1326,34688
1327,34240
1328,33728
1329,33664
1330,33152
1331,32768
1332,32384
1333,31936
1334,31872
1335,31680
1336,31680
1337,31616
1338,31488
1339,31552
1340,31616
1341,31744
1342,31808
1343,31936
1344,32064
1345,32192
1346,32384
1347,32640
1348,32832
1349,32768
1350,32832
1351,32832
1352,32960
1353,33088
1354,33152
1355,33216
1356,33280
1357,33280
1358,33280
1359,33216
1360,33216
1361,33280
1362,33408
1363,33472
1364,33472
1365,33536
1366,33664
1367,33728
1368,33664
1369,33600
1370,33600
1371,33600
1372,33600
1373,33664
1374,33856
1375,34112
1376,34240
1377,34240
1378,34176
1379,34240
1380,34432
1381,34624
1382,34816
1383,34880
1384,35072
1385,35200
1386,35136
1387,35008
1388,34880
1389,34688
1390,34304
1391,33792
1392,33344
1393,32960
1394,32768
1395,32640
1396,32576
1397,32576
1398,32576
1399,32704
1400,32832
1401,32832
1402,32896
1403,32896
1404,32896
1405,32960
1406,32960
1407,32960
1408,32896
1409,32832
1410,33792
1411,35072
1412,36928
1413,39360
1414,42304
1415,45184
1416,47040
1417,46656
1418,43840
1419,40128
1420,36352
1421,32960
1422,30336
1423,28800
1424,28288
1425,28416
1426,28928
1427,29696
1428,30336
1429,30976
1430,31680
1431,32064
1432,32256
1433,32448
1434,32704
1435,32832
1436,32896
1437,32960
1438,33024
1439,33152
1440,33216
1441,33408
1442,33536
1443,33600
1444,33728
1445,33792
1446,33856
1447,33920
1448,34112
1449,34112
1450,34048
1451,34112
1452,34176
1453,34304
1454,34432
1455,34560
1456,34752
1457,34944
1458,35008
1459,35136
1460,35264
1461,35392
1462,35584
1463,35712
1464,35776
1465,35968
1466,36096
1467,36160
1468,36160
1469,36160
1470,36224
1471,36224
1472,36352
1473,36416
1474,36416
1475,36288
1476,36224
1477,36096
1478,36096
1479,36032
1480,35968
1481,35712
1482,35328
1483,35008
1484,34688
1485,34304
1486,33856
1487,33344
1488,32960
1489,32576
1490,32320
1491,32128
1492,31936
1493,31808
1494,31680
1495,31616
1496,31616
1497,31680
1498,31808
1499,31936
1500,32128
1501,32192
1502,32320
1503,32448
1504,32576
1505,32512
1506,32576
1507,32704
1508,32896
1509,33024
1510,33024
1511,33024
1512,33024
1513,33024
1514,33088
1515,33088
1516,33216
1517,33344
1518,33408
1519,33472
1520,33536
1521,33536
1522,33600
1523,33536
1524,33600
1525,33600
1526,33664
1527,33792
1528,33856
1529,33920
1530,33984
1531,34112
1532,34176
1533,34304
1534,34432
1535,34496
1536,34560
1537,34752
1538,34816
1539,34880
1540,34944
1541,34944
1542,35008
1543,34944
1544,34752
1545,34368
1546,33856
1547,33408
1548,33088
1549,32832
1550,32704
1551,32704
1552,32640
1553,32640
1554,32640
1555,32640
1556,32704
1557,32896
1558,33024
1559,33152
1560,33088
1561,32960
1562,32896
1563,32832
1564,32960
1565,33408
1566,34368
1567,35840
1568,37888
1569,40576
1570,43520
1571,46080
1572,46976
1573,45312
1574,41600
1575,38016
1576,34368
1577,31232
1578,29248
1579,28352
1580,28288
1581,28736
1582,29504
1583,30272
1584,30912
1585,31488
1586,31872
1587,32192
1588,32384
1589,32576
1590,32768
1591,32896
1592,33088
1593,33152
1594,33280
1595,33344
1596,33408
1597,33536
1598,33664
1599,33792
1600,33856
1601,33856
1602,33920
1603,33984
1604,34048
1605,34112
1606,34240
1607,34368
1608,34368
1609,34432
1610,34560
1611,34688
1612,34816
1613,34944
1614,35072
1615,35200
1616,35392
1617,35456
1618,35520
1619,35584
1620,35712
1621,35840
1622,35968
1623,36032
1624,36096
1625,36160
1626,36160
1627,36160
1628,36096
1629,36096
1630,36160
1631,36160
1632,36096
1633,36032
1634,35904
1635,35712
1636,35520
1637,35328
1638,35072
1639,34688
1640,34304
1641,33856
1642,33472
1643,33088
1644,32768
1645,32512
1646,32320
1647,32000
1648,31744
1649,31680
1650,31616
1651,31616
1652,31552
1653,31488
1654,31552
1655,31744
1656,31936
1657,32064
1658,32192
1659,32256
1660,32320
1661,32448
1662,32576
1663,32768
1664,32896
1665,32960
1666,33024
1667,33024
1668,33088
1669,33152
1670,33216
1671,33280
1672,33344
1673,33408
1674,33408
1675,33344
1676,33344
1677,33344
1678,33472
1679,33536
1680,33472
1681,33472
1682,33600
1683,33664
1684,33792
1685,33920
1686,34048
1687,34112
1688,34112
1689,34240
1690,34432
1691,34624
1692,34752
1693,34944
1694,35072
1695,35072
1696,35008
1697,34880
1698,34688
1699,34368
1700,33920
1701,33408
1702,33024
1703,32768
1704,32640
1705,32576
1706,32576
1707,32640
1708,32640
1709,32704
1710,32768
1711,32896
1712,33024
1713,33152
1714,33216
1715,33152
1716,33088
1717,32960
1718,32832
1719,33280
1720,34176
1721,35712
1722,37824
1723,40448
1724,43392
1725,45824
1726,46592
1727,44480
1728,41536
1729,38016
1730,34688
1731,31872
1732,29760
1733,28608
1734,28288
1735,28608
1736,29248
1737,30016
1738,30656
1739,31232
1740,31744
1741,32128
1742,32448
1743,32640
1744,32832
1745,32960
1746,33088
1747,33152
1748,33216
1749,33344
1750,33472
1751,33472
1752,33600
1753,33600
1754,33536
1755,33536
1756,33728
1757,33984
1758,34048
1759,34112
1760,34240
1761,34368
1762,34496
1763,34496
1764,34560
1765,34688
1766,34816
1767,34880
1768,35008
1769,35136
1770,35264
1771,35392
1772,35520
1773,35648
1774,35712
1775,35776
1776,35840
1777,35840
1778,35904
1779,35904
1780,35968
1781,35968
1782,35968
1783,35904
1784,35840
1785,35776
1786,35712
1787,35712
1788,35584
1789,35456
1790,35200
1791,35008
1792,34752
1793,34432
1794,34048
1795,33664
1796,33408
1797,33088
1798,32832
1799,32576
1800,32320
1801,32128
1802,31936
1803,31872
1804,31808
1805,31744
1806,31808
1807,31872
1808,31872
1809,31872
1810,32000
1811,32256
1812,32448
1813,32576
1814,32704
1815,32832
1816,32832
1817,32896
1818,33088
1819,33216
1820,33280
1821,33216
1822,33216
1823,33280
1824,33408
1825,33408
1826,33408
1827,33408
1828,33472
1829,33536
1830,33472
1831,33472
1832,33472
1833,33600
1834,33728
1835,33728
1836,33792
1837,33920
1838,34048
1839,34048
1840,34112
1841,34176
1842,34240
1843,34368
1844,34432
1845,34560
1846,34752
1847,34816
1848,34944
1849,35072
1850,35072
1851,34944
1852,34752
1853,34496
1854,34112
1855,33600
1856,33152
1857,32832
1858,32704
1859,32640
1860,32704
1861,32768
1862,32832
1863,32896
1864,32832
1865,32896
1866,32960
1867,33024
1868,33152
1869,33216
1870,33216
1871,33088
1872,33024
1873,33216
1874,33984
1875,35072
1876,36800
1877,39104
1878,41856
1879,44672
1880,46528
1881,46080
1882,43456
1883,39936
1884,36480
1885,33280
1886,30784
1887,29184
1888,28480
1889,28480
1890,28864
1891,29568
1892,30272
1893,30976
1894,31488
1895,31872
1896,32256
1897,32512
1898,32704
1899,32832
1900,32896
1901,33024
1902,33152
1903,33280
1904,33408
1905,33472
1906,33600
1907,33664
1908,33728
1909,33856
1910,33920
1911,34048
1912,34176
1913,34368
1914,34368
1915,34304
1916,34240
1917,34240
1918,34368
1919,34560
1920,34752
1921,34880
1922,35008
1923,35136
1924,35200
1925,35328
1926,35392
1927,35520
1928,35712
1929,35840
1930,35904
1931,35968
1932,36032
1933,36032
1934,36032
1935,36096
1936,36096
1937,36096
1938,36032
1939,35968
1940,35968
1941,35968
1942,35904
1943,35776
1944,35520
1945,35264
1946,35072
1947,34816
1948,34496
1949,34176
1950,33728
1951,33344
1952,33024
1953,32704
1954,32320
1955,32064
1956,31808
1957,31744
1958,31808
1959,31744
1960,31744
1961,31872
1962,32000
1963,32128
1964,32192
1965,32256
1966,32384
1967,32448
1968,32640
1969,32768
1970,32896
1971,32960
1972,33024
1973,33024
1974,33152
1975,33280
1976,33344
1977,33280
1978,33344
1979,33472
1980,33472
1981,33536
1982,33536
1983,33600
1984,33664
1985,33664
1986,33664
1987,33600
1988,33600
1989,33664
1990,33664
1991,33664
1992,33664
1993,33664
1994,33664
1995,33664
1996,33664
1997,33792
1998,33856
1999,33728
2000,33792
2001,33984
2002,34112
2003,34304
2004,34368
2005,34368
2006,34368
2007,34496
2008,34688
2009,34880
2010,35008
2011,35072
2012,35200
2013,35264
2014,35264
2015,35200
2016,34944
2017,34432
2018,33920
2019,33408
2020,33088
2021,32832
2022,32704
2023,32576
2024,32512
2025,32576
2026,32704
2027,32832
2028,32960
2029,33024
2030,33024
2031,33152
2032,33216
2033,33216
2034,33152
2035,33088
2036,33280
2037,34112
2038,35456
2039,37760
2040,39808
2041,42560
2042,45440
2043,47168
2044,46528
2045,43584
2046,39808
2047,35968
2048,32576
2049,30016
2050,28608
2051,28224
2052,28480
2053,29184
2054,29952
2055,30720
2056,31232
2057,31680
2058,31936
2059,32256
2060,32512
2061,32768
2062,32832
2063,32960
2064,33024
2065,33088
2066,33216
2067,33280
2068,33408
2069,33472
2070,33536
2071,33536
2072,33600
2073,33728
2074,33856
2075,34048
2076,34112
2077,34240
2078,34304
2079,34432
2080,34560
2081,34688
2082,34688
2083,34816
2084,34944
2085,35072
2086,35200
2087,35200
2088,35200
2089,35200
2090,35392
2091,35584
2092,35776
2093,35904
2094,36032
2095,36160
2096,36160
2097,36224
2098,36288
2099,36288
2100,36288
2101,36224
2102,36224
2103,36160
2104,36160
2105,36160
2106,36032
2107,35840
2108,35520
2109,35200
2110,34880
2111,34496
2112,34176
2113,33728
2114,33280
2115,32896
2116,32576
2117,32192
2118,31936
2119,31744
2120,31616
2121,31616
2122,31616
2123,31616
2124,31616
2125,31744
2126,31872
2127,32000
2128,32128
2129,32192
2130,32256
2131,32384
2132,32576
2133,32704
2134,32704
2135,32768
2136,32896
2137,33024
2138,33152
2139,33152
2140,33152
2141,33216
2142,33280
2143,33408
2144,33472
2145,33472
2146,33408
2147,33472
2148,33408
2149,33472
2150,33536
2151,33600
2152,33664
2153,33664
2154,33728
2155,33664
2156,33600
2157,33536
2158,33536
2159,33664
2160,33600
2161,33536
2162,33600
2163,33664
2164,33664
2165,33536
2166,33536
2167,33600
2168,33664
2169,33792
2170,33920
2171,34048
2172,34176
2173,34240
2174,34304
2175,34304
2176,34496
2177,34688
2178,34944
2179,35008
2180,34944
2181,34944
2182,35008
2183,35072
2184,35072
2185,34816
2186,34496
2187,34112
2188,33728
2189,33216
2190,32960
2191,32768
2192,32704
2193,32704
2194,32768
2195,32768
2196,32832
2197,32832
2198,32960
2199,33088
2200,33216
2201,33216
2202,33152
2203,33088
2204,32960
2205,32960
2206,33472
2207,34560
2208,36224
2209,38464
2210,41216
2211,44160
2212,46592
2213,47168
2214,45120
2215,41536
2216,37632
2217,34112
2218,31104
2219,29120
2220,28352
2221,28352
2222,28864
2223,29568
2224,30208
2225,30784
2226,31296
2227,31680
2228,32064
2229,32320
2230,32448
2231,32640
2232,32832
2233,32960
2234,33152
2235,33216
2236,33280
2237,33344
2238,33472
2239,33536
2240,33600
2241,33664
2242,33728
2243,33792
2244,33792
2245,33856
2246,33984
2247,34112
2248,34176
2249,34368
2250,34432
2251,34560
2252,34560
2253,34688
2254,34816
2255,34944
2256,35008
2257,35072
2258,35200
2259,35392
2260,35520
2261,35648
2262,35648
2263,35712
2264,35840
2265,35968
2266,36096
2267,36224
2268,36224
2269,36288
2270,36352
2271,36288
2272,36032
2273,35840
2274,35776
2275,35648
2276,35520
2277,35328
2278,35200
2279,34880
2280,34624
2281,34176
2282,33728
2283,33344
2284,32960
2285,32640
2286,32320
2287,32064
2288,31872
2289,31680
2290,31552
2291,31488
2292,31488
2293,31552
2294,31744
2295,31808
2296,32000
2297,32064
2298,32064
2299,32064
2300,32128
2301,32320
2302,32448
2303,32576
2304,32768
2305,32832
2306,32832
2307,32960
2308,33024
2309,33088
2310,33088
2311,33088
2312,33088
2313,33152
2314,33280
2315,33408
2316,33408
2317,33344
2318,33344
2319,33408
2320,33408
2321,33536
2322,33536
2323,33600
2324,33664
2325,33600
2326,33600
2327,33664
2328,33664
2329,33664
2330,33728
2331,33600
2332,33408
2333,33344
2334,33280
2335,33280
2336,33344
2337,33536
2338,33664
2339,33792
2340,33920
2341,34048
2342,34112
2343,34240
2344,34368
2345,34560
2346,34816
2347,34944
2348,35008
2349,35072
2350,35136
2351,35136
2352,35008
2353,34816
2354,34368
2355,33856
2356,33280
2357,32960
2358,32768
2359,32704
2360,32640
2361,32640
2362,32704
2363,32768
2364,32896
2365,32960
2366,33024
2367,33088
2368,33152
2369,33088
2370,33088
2371,33024
2372,32896
2373,33088
2374,33792
2375,35072
2376,36928
2377,39360
2378,42176
2379,44864
2380,46400
2381,45568
2382,42816
2383,39424
2384,34816
2385,32896
2386,30720
2387,29184
2388,28480
2389,28480
2390,28864
2391,29504
2392,30272
2393,30912
2394,31552
2395,32000
2396,32320
2397,32576
2398,32704
2399,32832
2400,32960
2401,33152
2402,33216
2403,33280
2404,33280
2405,33408
2406,33408
2407,33472
2408,33536
2409,33536
2410,33664
2411,33792
2412,33792
2413,33856
2414,34048
2415,34112
2416,34240
2417,34368
2418,34496
2419,34560
2420,34624
2421,34752
2422,34816
2423,34880
2424,34944
2425,35072
2426,35200
2427,35264
2428,35328
2429,35456
2430,35584
2431,35776
2432,35968
2433,36096
2434,36160
2435,36096
2436,36032
2437,36032
2438,36032
2439,35904
2440,35776
2441,35648
2442,35648
2443,35584
2444,35328
2445,35200
2446,35008
2447,34688
2448,34368
2449,33920
2450,33536
2451,33280
2452,32960
2453,32704
2454,32448
2455,32256
2456,32192
2457,32000
2458,31936
2459,31872
2460,31872
2461,31936
2462,32000
2463,32064
2464,32128
2465,32192
2466,32320
2467,32448
2468,32512
2469,32640
2470,32704
2471,32960
2472,33024
2473,33152
2474,33216
2475,33152
2476,33152
2477,33152
2478,33216
2479,33344
2480,33408
2481,33472
2482,33664
2483,33792
2484,33856
2485,33792
2486,33728
2487,33728
2488,33728
2489,33664
2490,33664
2491,33664
2492,33664
2493,33664
2494,33664
2495,33728
2496,33856
2497,34048
2498,34112
2499,34176
2500,34112
2501,34112
2502,34176
2503,34304
2504,34560
2505,34688
2506,34752
2507,34816
2508,34944
2509,35200
2510,35392
2511,35328
2512,35136
2513,34688
2514,34240
2515,33728
2516,33344
2517,33088
2518,32896
2519,32832
2520,32768
2521,32704
2522,32768
2523,32896
2524,32960
2525,32960
2526,32896
2527,32960
2528,33152
2529,33152
2530,33152
2531,33088
2532,33216
2533,33856
2534,33856
2535,36544
2536,38784
2537,38848
2538,41536
2539,46592
2540,46912
2541,44608
2542,40960
2543,37056
2544,33600
2545,30912
2546,29184
2547,28480
2548,28672
2549,28672
2550,29888
2551,29952
2552,31040
2553,31104
2554,32000
2555,32384
2556,32576
2557,32704
2558,32832
2559,32960
2560,33152
2561,33344
2562,33472
2563,33664
2564,33664
2565,33984
2566,33984
2567,33856
2568,33792
2569,33792
2570,33792
2571,33792
2572,33856
2573,34048
2574,34304
2575,34496
2576,34560
2577,34560
2578,34688
2579,34624
2580,34816
2581,34944
2582,35072
2583,35072
2584,35392
2585,35520
2586,35648
2587,35840
2588,36032
2589,36032
2590,36096
2591,36160
2592,36288
2593,36288
2594,36224
2595,36224
2596,36160
2597,36096
2598,36032
2599,36096
2600,36096
2601,35968
2602,35840
2603,35712
2604,35456
2605,35200
2606,34880
2607,34560
2608,34112
2609,33984
2610,33856
2611,33024
2612,32576
2613,32192
2614,31936
2615,31744
2616,31680
2617,31616
2618,31424
2619,31296
2620,31360
2621,31552
2622,31680
2623,31936
2624,31936
2625,32192
2626,32256
2627,32320
2628,32448
2629,32512
2630,32640
2631,32832
2632,33024
2633,33152
2634,33152
2635,33152
2636,33216
2637,33280
2638,33344
2639,33344
2640,33280
2641,33280
2642,33344
2643,33536
2644,33728
2645,33920
2646,33984
2647,33856
2648,33792
2649,33728
2650,33728
2651,33664
2652,33664
2653,33728
2654,33664
2655,33664
2656,33600
2657,33600
2658,33728
2659,33792
2660,33664
2661,33600
2662,33600
2663,33728
2664,33728
2665,33600
2666,33536
2667,33664
2668,33664
2669,33728
2670,33728
2671,33664
2672,33664
2673,33792
2674,33984
2675,34240
2676,34304
2677,34304
2678,34304
2679,34432
2680,34560
2681,34752
2682,34944
2683,35008
2684,35072
2685,35072
2686,35072
2687,35136
2688,35136
2689,35008
2690,34752
2691,34304
2692,33792
2693,33344
2694,33088
2695,32896
2696,32896
2697,32832
2698,32768
2699,32768
2700,32768
2701,32896
2702,33088
2703,33216
2704,33216
2705,33216
2706,33216
2707,33152
2708,33088
2709,33280
2710,33984
2711,35200
2712,36992
2713,39296
2714,42240
2715,45056
2716,46976
2717,46656
2718,44096
2719,40576
2720,36800
2721,33344
2722,30720
2723,29120
2724,28416
2725,28352
2726,28608
2727,29248
2728,29952
2729,30592
2730,31232
2731,31680
2732,32128
2733,32448
2734,32768
2735,32960
2736,33024
2737,33024
2738,33088
2739,33152
2740,33216
2741,33344
2742,33344
2743,33472
2744,33600
2745,33664
2746,33728
2747,33792
2748,33920
2749,34048
2750,34112
2751,34176
2752,34176
2753,34240
2754,34432
2755,34624
2756,34624
2757,34560
2758,34624
2759,34816
2760,35008
2761,35264
2762,35584
2763,35712
2764,35712
2765,35712
2766,35776
2767,35840
2768,35904
2769,35904
2770,36032
2771,36160
2772,36160
2773,36096
2774,36096
2775,36160
2776,36096
2777,35968
2778,35904
2779,35712
2780,35584
2781,35456
2782,35200
2783,34880
2784,34560
2785,34240
2786,33856
2787,33472
2788,33152
2789,32832
2790,32576
2791,32192
2792,31936
2793,31680
2794,31552
2795,31552
2796,31616
2797,31744
2798,31808
2799,31936
2800,32000
2801,32064
2802,32128
2803,32192
2804,32320
2805,32384
2806,32448
2807,32512
2808,32640
2809,32768
2810,32832
2811,33024
2812,33216
2813,33408
2814,33536
2815,33600
2816,33664
2817,33600
2818,33600
2819,33600
2820,33536
2821,33472
2822,33536
2823,33536
2824,33600
2825,33728
2826,33728
2827,33728
2828,33792
2829,33792
2830,33792
2831,33728
2832,33664
2833,33600
2834,33536
2835,33600
2836,33728
2837,33856
2838,33920
2839,34048
2840,34112
2841,34176
2842,34176
2843,34304
2844,34432
2845,34560
2846,34752
2847,34944
2848,35136
2849,35200
2850,35200
2851,35136
2852,35008
2853,34752
2854,34432
2855,34048
2856,33664
2857,33216
2858,32960
2859,32896
2860,32704
2861,32576
2862,32512
2863,32512
2864,32576
2865,32704
2866,32896
2867,32960
2868,32896
2869,32960
2870,33024
2871,33088
2872,33024
2873,33024
2874,33408
2875,34304
2876,35776
2877,37824
2878,40320
2879,43264
2880,45824
2881,46976
2882,45696
2883,42496
2884,38848
2885,35264
2886,32192
2887,29952
2888,28672
2889,28288
2890,28544
2891,29120
2892,29888
2893,30720
2894,31424
2895,31872
2896,32128
2897,32256
2898,32448
2899,32640
2900,32768
2901,32896
2902,32960
2903,33216
2904,33408
2905,33344
2906,33344
2907,33408
2908,33536
2909,33728
2910,33792
2911,33920
2912,34048
2913,34048
2914,34048
2915,34112
2916,34176
2917,34240
2918,34368
2919,34560
2920,34688
2921,34880
2922,35008
2923,35008
2924,35072
2925,35136
2926,35264
2927,35392
2928,35584
2929,35712
2930,35840
2931,35968
2932,36032
2933,36096
2934,36224
2935,36224
2936,36160
2937,36160
2938,36160
2939,36096
2940,36096
2941,36160
2942,36224
2943,36096
2944,35776
2945,35456
2946,35200
2947,34880
2948,34496
2949,34112
2950,33728
2951,33280
2952,32896
2953,32576
2954,32320
2955,32128
2956,31936
2957,31808
2958,31680
2959,31616
2960,31680
2961,31744
2962,31872
2963,31936
2964,31936
2965,32064
2966,32256
2967,32384
2968,32384
2969,32512
2970,32640
2971,32640
2972,32704
2973,32768
2974,32896
2975,33088
2976,33152
2977,33152
2978,33152
2979,33280
2980,33344
2981,33408
2982,33600
2983,33728
2984,33792
2985,33728
2986,33664
2987,33600
2988,33600
2989,33536
2990,33536
2991,33664
2992,33792
2993,33856
2994,33856
2995,33792
2996,33728
2997,33728
2998,33728
2999,33728
3000,33728
3001,33728
3002,33728
3003,33792
3004,33728
3005,33728
3006,33728
3007,33728
3008,33728
3009,33728
3010,33728
3011,33728
3012,33728
3013,33792
3014,33920
3015,34048
3016,34176
3017,34432
3018,34560
3019,34624
3020,34624
3021,34688
3022,34816
3023,35008
3024,35200
3025,35328
3026,35328
3027,35328
3028,35264
3029,35200
3030,35008
3031,34560
3032,34048
3033,33536
3034,33280
3035,32960
3036,32704
3037,32576
3038,32576
3039,32640
3040,32704
3041,32832
3042,32960
3043,33024
3044,33152
3045,33280
3046,33280
3047,33280
3048,33088
3049,33024
3050,33280
3051,34112
3052,35392
3053,37120
3054,39424
3055,42240
3056,45184
3057,47168
3058,46912
3059,44160
3060,40256
3061,36352
3062,32640
3063,30272
3064,28736
3065,28352
3066,28544
3067,29184
3068,29888
3069,30528
3070,30976
3071,31360
3072,31808
3073,32128
3074,32320
3075,32512
3076,32768
3077,33024
3078,33216
3079,33344
3080,33472
3081,33536
3082,33472
3083,33472
3084,33472
3085,33472
3086,33472
3087,33664
3088,33792
3089,33920
3090,34048
3091,34176
3092,34304
3093,34304
3094,34368
3095,34496
3096,34624
3097,34752
3098,34880
3099,35072
3100,35200
3101,35328
3102,35328
3103,35392
3104,35456
3105,35584
3106,35648
3107,35776
3108,35904
3109,36096
3110,36224
3111,36288
3112,36288
3113,36288
3114,36352
3115,36416
3116,36544
3117,36544
3118,36352
3119,36096
3120,36032
3121,35904
3122,35712
3123,35520
3124,35200
3125,34816
3126,34368
3127,33920
3128,33472
3129,33088
3130,32832
3131,32448
3132,32128
3133,31872
3134,31680
3135,31616
3136,31616
3137,31488
3138,31424
3139,31424
3140,31488
3141,31616
3142,31808
3143,32064
3144,32192
3145,32320
3146,32384
3147,32512
3148,32576
3149,32704
3150,32768
3151,32832
3152,32960
3153,33024
3154,33152
3155,33152
3156,33152
3157,33216
3158,33280
3159,33344
3160,33344
3161,33408
3162,33472
3163,33536
3164,33536
3165,33664
3166,33728
3167,33728
3168,33664
3169,33664
3170,33600
3171,33536
3172,33472
3173,33472
3174,33472
3175,33536
3176,33600
3177,33600
3178,33600
3179,33664
3180,33664
3181,33664
3182,33600
3183,33472
3184,33408
3185,33408
3186,33536
3187,33600
3188,33664
3189,33728
3190,33792
3191,33792
3192,33792
3193,33856
3194,34048
3195,34112
3196,34240
3197,34368
3198,34496
3199,34560
3200,34688
3201,34880
3202,35008
3203,35136
3204,35264
3205,35328
3206,35264
3207,35200
3208,35136
3209,35008
3210,34816
3211,34304
3212,33664
3213,33152
3214,32896
3215,32768
3216,32704
3217,32704
3218,32640
3219,32704
3220,32832
3221,32960
3222,33088
3223,33216
3224,33280
3225,33344
3226,33344
3227,33216
3228,33152
3229,33280
3230,33920
3231,35136
3232,36928
3233,39296
3234,42176
3235,45056
3236,46912
3237,46592
3238,43904
3239,40064
3240,36352
3241,32960
3242,30272
3243,28672
3244,28288
3245,28544
3246,29056
3247,29760
3248,30464
3249,31104
3250,31552
3251,32000
3252,32320
3253,32576
3254,32768
3255,32960
3256,33024
3257,33152
3258,33216
3259,33216
3260,33216
3261,33280
3262,33280
3263,33344
3264,33472
3265,33600
3266,33792
3267,33984
3268,34112
3269,34112
3270,34176
3271,34176
3272,34304
3273,34304
3274,34432
3275,34560
3276,34752
3277,35008
3278,35264
3279,35328
3280,35264
3281,35136
3282,35200
3283,35392
3284,35584
3285,35712
3286,35840
3287,35968
3288,36096
3289,36160
3290,36160
3291,36160
3292,36224
3293,36224
3294,36224
3295,36288
3296,36288
3297,36160
3298,35968
3299,35904
3300,35776
3301,35648
3302,35328
3303,34944
3304,34624
3305,34240
3306,33920
3307,33536
3308,33088
3309,32704
3310,32384
3311,32064
3312,31808
3313,31680
3314,31616
3315,31488
3316,31424
3317,31424
3318,31552
3319,31616
3320,31744
3321,31872
3322,32000
3323,32128
3324,32192
3325,32256
3326,32256
3327,32384
3328,32576
3329,32768
3330,32896
3331,33088
3332,33088
3333,33088
3334,33088
3335,33216
3336,33408
3337,33408
3338,33280
3339,33216
3340,33216
3341,33280
3342,33408
3343,33408
3344,33472
3345,33472
3346,33472
3347,33600
3348,33600
3349,33600
3350,33600
3351,33600
3352,33600
3353,33600
3354,33664
3355,33664
3356,33728
3357,33728
3358,33664
3359,33728
3360,33728
3361,33728
3362,33664
3363,33536
3364,33536
3365,33728
3366,33792
3367,33984
3368,34176
3369,34240
3370,34304
3371,34496
3372,34688
3373,34880
3374,35072
3375,35136
3376,35200
3377,35072
3378,34944
3379,34880
3380,34688
3381,34368
3382,33984
3383,33536
3384,33152
3385,32896
3386,32832
3387,32896
3388,32832
3389,32768
3390,32768
3391,32896
3392,33088
3393,33152
3394,33088
3395,33088
3396,33088
3397,33088
3398,33088
3399,33024
3400,33280
3401,34112
3402,35392
3403,37120
3404,39488
3405,42368
3406,45056
3407,46720
3408,45824
3409,43072
3410,39680
3411,36288
3412,33216
3413,30720
3414,29056
3415,28416
3416,28480
3417,28928
3418,29568
3419,30272
3420,30976
3421,31424
3422,31808
3423,32128
3424,32448
3425,32768
3426,33024
3427,33088
3428,33088
3429,33152
3430,33280
3431,33344
3432,33408
3433,33536
3434,33664
3435,33856
3436,33920
3437,33984
3438,34048
3439,34048
3440,34112
3441,34176
3442,34304
3443,34496
3444,34496
3445,34560
3446,34624
3447,34688
3448,34816
3449,34944
3450,34880
3451,34944
3452,35072
3453,35264
3454,35456
3455,35584
3456,35648
3457,35712
3458,35904
3459,36096
3460,36224
3461,36224
3462,36160
3463,36096
3464,36032
3465,35904
3466,35904
3467,35840
3468,35840
3469,35712
3470,35584
3471,35520
3472,35520
3473,35328
3474,35008
3475,34560
3476,34048
3477,33600
3478,33216
3479,32960
3480,32640
3481,32320
3482,32064
3483,31808
3484,31680
3485,31616
3486,31552
3487,31616
3488,31744
3489,31744
3490,31808
3491,31872
3492,32064
3493,32256
3494,32384
3495,32384
3496,32448
3497,32512
3498,32640
3499,32832
3500,33024
3501,33024
3502,33024
3503,33088
3504,33216
3505,33344
3506,33408
3507,33344
3508,33344
3509,33408
3510,33472
3511,33536
3512,33664
3513,33728
3514,33728
3515,33664
3516,33664
3517,33664
3518,33664
3519,33664
3520,33664
3521,33792
3522,33792
3523,33792
3524,33792
3525,33856
3526,34048
3527,34112
3528,34176
3529,34240
3530,34304
3531,34432
3532,34496
3533,34688
3534,34880
3535,34944
3536,35072
3537,35136
3538,35200
3539,35136
3540,34880
3541,34496
3542,34048
3543,33600
3544,33152
3545,32768
3546,32576
3547,32576
3548,32640
3549,32640
3550,32704
3551,32832
3552,32960
3553,32960
3554,33088
3555,33152
3556,33152
3557,33088
3558,33024
3559,32960
3560,32960
3561,33280
3562,34240
3563,35712
3564,37696
3565,40128
3566,42944
3567,45440
3568,46528
3569,45248
3570,42304
3571,38848
3572,35392
3573,32320
3574,30016
3575,28800
3576,28352
3577,28608
3578,29184
3579,29888
3580,30464
3581,31104
3582,31616
3583,32128
3584,32448
3585,32640
3586,32704
3587,32832
3588,33024
3589,33152
3590,33280
3591,33280
3592,33280
3593,33344
3594,33472
3595,33536
3596,33664
3597,33856
3598,33984
3599,34176
3600,34240
3601,34240
3602,34176
3603,34176
3604,34240
3605,34368
3606,34432
3607,34496
3608,34624
3609,34752
3610,34944
3611,35136
3612,35264
3613,35328
3614,35392
3615,35520
3616,35648
3617,35776
3618,35968
3619,36096
3620,36096
3621,36160
3622,36224
3623,36160
3624,36096
3625,36032
3626,36032
3627,35968
3628,35968
3629,35840
3630,35712
3631,35520
3632,35328
3633,35008
3634,34816
3635,34560
3636,34240
3637,33856
3638,33536
3639,33088
3640,32704
3641,32448
3642,32256
3643,32128
3644,31936
3645,31744
3646,31552
3647,31488
3648,31488
3649,31552
3650,31680
3651,31872
3652,32064
3653,32256
3654,32320
3655,32384
3656,32448
3657,32512
3658,32640
3659,32704
3660,32704
3661,32832
3662,32960
3663,33088
3664,33216
3665,33344
3666,33600
3667,33664
3668,33536
3669,33472
3670,33408
3671,33472
3672,33600
3673,33792
3674,33856
3675,33792
3676,33728
3677,33664
3678,33728
3679,33728
3680,33728
3681,33728
3682,33664
3683,33728
3684,33792
3685,33856
3686,33792
3687,33728
3688,33664
3689,33664
3690,33728
3691,33728
3692,33856
3693,34048
3694,34240
3695,34240
3696,34304
3697,34368
3698,34432
3699,34624
3700,34880
3701,35008
3702,35072
3703,35136
3704,35264
3705,35264
3706,35200
3707,35136
3708,34944
3709,34560
3710,34048
3711,33600
3712,33152
3713,32832
3714,32704
3715,32576
3716,32640
3717,32768
3718,32960
3719,33152
3720,33152
3721,33088
3722,33088
3723,33088
3724,33152
3725,33088
3726,32960
3727,32896
3728,33152
3729,33984
3730,35264
3731,37056
3732,39360
3733,42176
3734,45056
3735,47040
3736,46848
3737,44160
3738,40192
3739,36544
3740,33152
3741,30528
3742,28928
3743,28288
3744,28480
3745,28992
3746,29632
3747,30272
3748,30784
3749,31296
3750,31680
3751,32000
3752,32320
3753,32576
3754,32768
3755,33024
3756,33088
3757,33152
3758,33216
3759,33344
3760,33408
3761,33472
3762,33536
3763,33664
3764,33792
3765,33856
3766,33984
3767,34048
3768,33984
3769,33920
3770,34048
3771,34176
3772,34368
3773,34560
3774,34752
3775,34816
3776,34880
3777,34880
3778,34944
3779,35008
3780,35136
3781,35328
3782,35456
3783,35648
3784,35840
3785,35968
3786,36096
3787,36160
3788,36288
3789,36352
3790,36352
3791,36352
3792,36352
3793,36224
3794,36160
3795,36224
3796,36224
3797,36160
3798,36032
3799,35712
3800,35392
3801,35008
3802,34624
3803,34240
3804,34048
3805,33792
3806,33344
3807,32896
3808,32448
3809,32064
3810,31808
3811,31552
3812,31488
3813,31488
3814,31616
3815,31680
3816,31808
3817,31872
3818,31872
3819,31872
3820,31808
3821,31808
3822,31936
3823,32192
3824,32384
3825,32448
3826,32512
3827,32640
3828,32832
3829,33088
3830,33152
3831,33216
3832,33344
3833,33408
3834,33344
3835,33344
3836,33408
3837,33472
3838,33344
3839,33216
3840,33216
3841,33344
3842,33472
3843,33600
3844,33600
3845,33728
3846,33792
3847,33792
3848,33856
3849,33856
3850,33728
3851,33728
3852,33728
3853,33728
3854,33728
3855,33728
3856,33792
3857,33664
3858,33600
3859,33472
3860,33472
3861,33536
3862,33600
3863,33664
3864,33728
3865,33792
3866,33792
3867,33728
3868,33728
3869,33664
3870,33664
3871,33728
3872,33920
3873,34048
3874,34176
3875,34432
3876,34624
3877,34752
3878,34880
3879,34880
3880,34752
3881,34688
3882,34816
3883,35072
3884,35200
3885,35264
3886,35200
3887,35200
3888,35072
3889,34752
3890,34368
3891,33920
3892,33536
3893,33152
3894,32960
3895,32832
3896,32896
3897,32832
3898,32832
3899,32896
3900,33024
3901,33280
3902,33408
3903,33344
3904,33344
3905,33280
3906,33216
3907,33088
3908,33088
3909,33664
3910,34752
3911,36288
3912,38336
3913,41024
3914,44544
3915,46656
3916,47552
3917,45760
3918,41920
3919,38272
3920,34688
3921,31680
3922,29568
3923,28480
3924,28224
3925,28544
3926,29184
3927,29952
3928,30656
3929,31360
3930,31744
3931,32128
3932,32320
3933,32512
3934,32704
3935,32896
3936,33024
3937,33088
3938,33152
3939,33216
3940,33216
3941,33280
3942,33472
3943,33664
3944,33792
3945,33856
3946,33792
3947,33856
3948,33920
3949,34048
3950,34240
3951,34304
3952,34432
3953,34432
3954,34496
3955,34624
3956,34688
3957,34752
3958,34880
3959,35072
3960,35264
3961,35392
3962,35520
3963,35712
3964,35840
3965,35904
3966,35904
3967,35904
3968,36032
3969,36224
3970,36352
3971,36352
3972,36352
3973,36288
3974,36288
3975,36224
3976,36224
3977,36224
3978,36224
3979,36096
3980,35776
3981,35520
3982,35200
3983,34752
3984,34240
3985,33856
3986,33536
3987,33152
3988,32768
3989,32448
3990,32128
3991,31936
3992,31872
3993,31744
3994,31680
3995,31616
3996,31616
3997,31552
3998,31552
3999,31552
4000,31744
4001,32000
4002,32128
4003,32128
4004,32256
4005,32384
4006,32448
4007,32576
4008,32704
4009,32832
4010,33024
4011,33088
4012,33088
4013,33088
4014,33152
4015,33216
4016,33280
4017,33344
4018,33344
4019,33344
4020,33344
4021,33472
4022,33472
4023,33472
4024,33472
4025,33536
4026,33600
4027,33600
4028,33664
4029,33792
4030,33920
4031,33984
4032,33792
4033,33600
4034,33536
4035,33472
4036,33600
4037,33536
4038,33472
4039,33408
4040,33472
4041,33472
4042,33472
4043,33600
4044,33664
4045,33792
4046,33728
4047,33664
4048,33664
4049,33664
4050,33664
4051,33792
4052,33856
4053,33792
4054,33728
4055,33792
4056,33856
4057,34048
4058,34176
4059,34240
4060,34368
4061,34368
4062,34496
4063,34560
4064,34560
4065,34624
4066,34752
4067,34944
4068,35136
4069,35328
4070,35456
4071,35328
4072,35136
4073,34816
4074,34496
4075,34112
4076,33664
4077,33344
4078,33088
4079,32960
4080,32960
4081,32896
4082,32896
4083,32896
4084,32960
4085,33024
4086,33088
4087,33152
4088,33280
4089,33280
4090,33280
4091,33280
4092,33152
4093,33280
4094,34240
4095,35200
4096,36992
4097,39296
4098,42112
4099,44992
4100,46976
4101,46784
4102,44160
4103,40384
4104,36608
4105,33216
4106,30528
4107,29056
4108,28544
4109,28608
4110,28992
4111,29632
4112,30336
4113,30976
4114,31488
4115,31808
4116,32064
4117,32320
4118,32512
4119,32704
4120,32832
4121,32960
4122,33088
4123,33216
4124,33280
4125,33344
4126,33472
4127,33536
4128,33664
4129,33728
4130,33856
4131,33856
4132,33792
4133,33920
4134,34176
4135,34432
4136,34432
4137,34304
4138,34304
4139,34368
4140,34432
4141,34496
4142,34624
4143,34752
4144,34944
4145,35136
4146,35392
4147,35584
4148,35712
4149,35840
4150,35904
4151,36032
4152,36160
4153,36352
4154,36352
4155,36288
4156,36224
4157,36224
4158,36224
4159,36224
4160,36224
4161,36096
4162,36096
4163,35904
4164,35712
4165,35328
4166,35008
4167,34752
4168,34432
4169,33984
4170,33664
4171,33280
4172,32832
4173,32384
4174,32064
4175,31936
4176,31744
4177,31552
4178,31360
4179,31360
4180,31424
4181,31552
4182,31488
4183,31552
4184,31744
4185,31744
4186,31872
4187,32000
4188,32192
4189,32384
4190,32448
4191,32448
4192,32448
4193,32576
4194,32640
4195,32768
4196,32896
4197,33152
4198,33216
4199,33344
4200,33408
4201,33472
4202,33344
4203,33216
4204,33216
4205,33344
4206,33472
4207,33472
4208,33472
4209,33600
4210,33728
4211,33856
4212,33856
4213,33728
4214,33664
4215,33600
4216,33536
4217,33536
4218,33536
4219,33728
4220,33920
4221,33920
4222,33728
4223,33536
4224,33472
4225,33408
4226,33408
4227,33344
4228,33280
4229,33344
4230,33344
4231,33536
4232,33664
4233,33664
4234,33664
4235,33664
4236,33728
4237,33728
4238,33792
4239,33792
4240,33792
4241,33856
4242,33984
4243,34112
4244,34304
4245,34368
4246,34432
4247,34432
4248,34368
4249,34496
4250,34752
4251,34944
4252,35008
4253,35008
4254,35008
4255,35008
4256,35008
4257,34944
4258,34624
4259,34240
4260,33792
4261,33472
4262,33280
4263,33280
4264,33216
4265,33024
4266,32832
4267,32832
4268,32832
4269,32896
4270,33088
4271,33152
4272,33088
4273,33024
4274,33088
4275,33152
4276,33024
4277,33088
4278,33664
4279,34816
4280,36480
4281,38656
4282,41408
4283,44288
4284,46336
4285,46336
4286,44032
4287,40768
4288,37248
4289,32960
4290,31232
4291,29504
4292,28608
4293,28480
4294,28800
4295,29312
4296,29952
4297,30592
4298,31232
4299,31680
4300,32064
4301,32448
4302,32704
4303,32896
4304,33088
4305,33088
4306,33088
4307,33152
4308,33344
4309,33472
4310,33536
4311,33472
4312,33472
4313,33472
4314,33536
4315,33600
4316,33728
4317,33856
4318,33920
4319,33984
4320,34048
4321,34240
4322,34432
4323,34560
4324,34624
4325,34752
4326,34880
4327,35008
4328,35008
4329,34880
4330,34880
4331,35008
4332,35136
4333,35456
4334,35840
4335,35904
4336,35904
4337,35904
4338,35968
4339,36096
4340,36096
4341,36096
4342,36096
4343,36160
4344,36160
4345,36096
4346,36032
4347,35840
4348,35328
4349,35264
4350,35200
4351,34496
4352,34432
4353,33536
4354,33216
4355,32960
4356,32704
4357,32448
4358,32128
4359,31936
4360,31808
4361,31808
4362,31872
4363,31936
4364,31936
4365,31808
4366,31680
4367,31680
4368,31744
4369,31936
4370,32064
4371,32192
4372,32320
4373,32512
4374,32576
4375,32704
4376,32832
4377,32896
4378,33088
4379,33024
4380,33088
4381,33280
4382,33344
4383,33408
4384,33472
4385,33472
4386,33536
4387,33728
4388,33856
4389,33792
4390,33728
4391,33600
4392,33472
4393,33536
4394,33536
4395,33728
4396,33792
4397,33856
4398,33856
4399,33728
4400,33664
4401,33600
4402,33728
4403,33792
4404,33856
4405,33856
4406,33856
4407,33984
4408,34240
4409,34176
4410,34176
4411,34112
4412,34112
4413,34240
4414,34496
4415,34624
4416,34752
4417,34752
4418,34752
4419,34816
4420,34816
4421,34880
4422,34944
4423,34880
4424,34624
4425,34176
4426,33728
4427,33408
4428,33216
4429,33088
4430,32896
4431,32832
4432,32896
4433,32832
4434,32832
4435,32960
4436,33024
4437,33088
4438,32960
4439,32832
4440,32832
4441,32832
4442,32768
4443,32960
4444,33600
4445,34752
4446,36480
4447,38592
4448,41152
4449,43968
4450,46144
4451,46400
4452,44352
4453,39616
4454,39104
4455,37504
4456,32000
4457,29888
4458,28544
4459,28096
4460,28352
4461,28928
4462,29696
4463,30400
4464,31040
4465,31616
4466,32000
4467,32384
4468,32640
4469,32832
4470,33024
4471,33152
4472,33088
4473,33088
4474,33216
4475,33280
4476,33344
4477,33408
4478,33536
4479,33664
4480,33856
4481,33920
4482,33920
4483,33920
4484,33856
4485,34112
4486,34304
4487,34624
4488,34816
4489,34944
4490,35008
4491,35008
4492,34880
4493,34688
4494,34496
4495,34496
4496,34688
4497,34944
4498,35264
4499,35264
4500,35584
4501,35776
4502,35904
4503,36096
4504,36224
4505,36352
4506,36352
4507,36288
4508,36160
4509,36032
4510,36032
4511,35968
4512,35776
4513,35456
4514,35392
4515,35136
4516,34944
4517,34624
4518,34240
4519,33920
4520,33664
4521,33280
4522,32768
4523,32320
4524,32000
4525,31744
4526,31744
4527,31744
4528,31872
4529,31936
4530,31936
4531,31936
4532,31872
4533,31744
4534,31744
4535,31872
4536,32000
4537,32064
4538,32192
4539,32320
4540,32448
4541,32576
4542,32768
4543,33024
4544,32960
4545,33088
4546,33088
4547,33152
4548,33280
4549,33408
4550,33472
4551,33600
4552,33664
4553,33792
4554,33792
4555,33792
4556,33664
4557,33664
4558,33664
4559,33600
4560,33728
4561,33920
4562,34048
4563,34176
4564,34048
4565,33792
4566,33536
4567,33408
4568,33600
4569,33792
4570,33920
4571,33920
4572,33984
4573,34112
4574,34240
4575,34368
4576,34304
4577,34176
4578,34176
4579,34240
4580,34432
4581,34624
4582,34816
4583,34944
4584,35072
4585,35200
4586,35264
4587,35136
4588,34688
4589,34560
4590,34176
4591,33600
4592,33024
4593,32704
4594,32640
4595,32704
4596,32768
4597,32768
4598,32832
4599,32960
4600,32896
4601,32896
4602,32960
4603,33024
4604,33088
4605,33088
4606,32960
4607,32896
4608,33088
4609,33728
4610,34944
4611,36544
4612,38592
4613,41088
4614,43840
4615,46080
4616,46528
4617,44672
4618,41664
4619,38208
4620,34944
4621,31872
4622,29568
4623,28352
4624,28096
4625,28416
4626,29056
4627,29888
4628,30656
4629,31296
4630,31808
4631,32128
4632,32320
4633,32448
4634,32640
4635,32896
4636,33216
4637,33408
4638,33280
4639,33152
4640,33088
4641,33216
4642,33344
4643,33472
4644,33664
4645,33792
4646,33856
4647,33920
4648,34048
4649,34240
4650,34304
4651,34368
4652,34496
4653,34432
4654,34496
4655,34880
4656,35264
4657,35136
4658,34688
4659,34496
4660,34496
4661,34624
4662,34752
4663,34944
4664,35264
4665,35520
4666,35968
4667,36288
4668,36416
4669,36672
4670,36928
4671,36928
4672,36864
4673,36928
4674,37056
4675,36800
4676,36352
4677,36032
4678,35776
4679,35264
4680,34816
4681,34432
4682,34048
4683,33664
4684,33280
4685,33088
4686,33152
4687,33344
4688,33216
4689,32768
4690,32640
4691,33088
4692,33408
4693,33152
4694,32384
4695,31488
4696,30784
4697,30464
4698,30592
4699,30848
4700,31232
4701,31552
4702,31744
4703,32000
4704,32256
4705,32512
4706,32832
4707,33024
4708,33088
4709,33216
4710,33408
4711,33600
4712,33792
4713,33664
4714,33344
4715,33152
4716,33152
4717,33152
4718,33344
4719,33408
4720,33536
4721,33664
4722,33664
4723,33600
4724,33600
4725,33664
4726,33728
4727,33728
4728,33664
4729,33664
4730,33664
4731,33728
4732,33792
4733,33920
4734,34048
4735,33984
4736,33792
4737,33728
4738,33728
4739,33792
4740,33920
4741,33920
4742,33920
4743,33920
4744,33984
4745,34176
4746,34496
4747,34688
4748,34624
4749,34624
4750,34560
4751,34624
4752,34816
4753,35200
4754,35584
4755,35648
4756,35712
4757,35712
4758,35392
4759,34816
4760,34112
4761,33536
4762,33088
4763,32768
4764,32512
4765,32448
4766,32320
4767,32384
4768,32512
4769,32576
4770,32704
4771,33024
4772,33344
4773,33344
4774,33216
4775,33216
4776,33216
4777,33280
4778,33344
4779,33792
4780,34752
4781,36160
4782,38208
4783,40704
4784,43392
4785,45632
4786,46656
4787,45184
4788,42240
4789,38592
4790,35008
4791,31808
4792,29568
4793,28480
4794,28352
4795,28800
4796,29504
4797,30272
4798,31040
4799,31616
4800,32000
4801,32192
4802,32256
4803,32320
4804,32512
4805,32768
4806,32768
4807,32832
4808,32960
4809,33152
4810,33280
4811,33408
4812,33600
4813,33728
4814,33792
4815,33920
4816,34048
4817,34048
4818,34048
4819,33984
4820,34048
4821,34112
4822,34240
4823,34240
4824,34240
4825,34304
4826,34496
4827,34688
4828,34816
4829,34880
4830,35008
4831,35264
4832,35648
4833,35904
4834,36096
4835,36096
4836,36096
4837,36032
4838,36032
4839,36096
4840,36032
4841,35968
4842,35968
4843,36032
4844,36160
4845,36160
4846,36032
4847,36032
4848,36032
4849,36032
4850,35968
4851,35648
4852,35200
4853,34624
4854,34176
4855,33728
4856,33280
4857,32832
4858,32512
4859,32192
4860,32064
4861,32000
4862,32192
4863,32256
4864,32384
4865,32384
4866,32192
4867,31936
4868,31744
4869,31680
4870,31552
4871,31616
4872,31744
4873,31872
4874,31936
4875,32064
4876,32256
4877,32448
4878,32576
4879,32832
4880,33152
4881,33408
4882,33472
4883,33472
4884,33472
4885,33600
4886,33600
4887,33472
4888,33280
4889,33152
4890,33088
4891,33088
4892,33152
4893,33280
4894,33472
4895,33600
4896,33728
4897,33856
4898,33984
4899,34048
4900,34176
4901,34176
4902,34048
4903,33984
4904,34176
4905,34304
4906,34240
4907,33856
4908,33536
4909,33280
4910,33280
4911,33280
4912,33216
4913,33152
4914,33152
4915,33344
4916,33600
4917,33792
4918,34048
4919,34432
4920,34560
4921,34496
4922,34688
4923,34880
4924,34688
4925,34048
4926,33536
4927,33280
4928,33344
4929,33472
4930,33664
4931,33920
4932,34112
4933,34432
4934,34688
4935,34816
4936,34944
4937,35072
4938,35136
4939,35200
4940,35264
4941,35200
4942,34944
4943,34304
4944,33536
4945,32832
4946,32512
4947,32448
4948,32448
4949,32512
4950,32576
4951,32704
4952,32768
4953,32832
4954,33088
4955,33216
4956,33408
4957,33536
4958,33536
4959,33536
4960,33536
4961,33856
4962,34624
4963,35904
4964,37888
4965,40128
4966,42880
4967,45248
4968,46080
4969,44608
4970,41728
4971,38464
4972,35328
4973,32512
4974,30400
4975,29120
4976,28672
4977,28864
4978,29440
4979,30080
4980,30720
4981,31296
4982,31680
4983,31872
4984,31936
4985,32192
4986,32448
4987,32640
4988,32768
4989,32960
4990,33152
4991,33216
4992,33216
4993,33344
4994,33472
4995,33600
4996,33792
4997,33856
4998,33984
4999,34112
5000,34048
5001,33984
5002,33984
5003,34048
5004,34176
5005,34240
5006,34368
5007,34496
5008,34496
5009,34432
5010,34560
5011,34816
5012,35072
5013,35264
5014,35392
5015,35584
5016,35712
5017,35776
5018,35776
5019,35712
5020,35776
5021,35904
5022,35968
5023,36032
5024,35968
5025,35904
5026,35712
5027,35648
5028,35584
5029,35520
5030,35520
5031,35392
5032,35328
5033,35264
5034,35008
5035,34880
5036,34688
5037,34368
5038,33856
5039,33344
5040,32960
5041,32576
5042,32192
5043,31872
5044,31616
5045,31552
5046,31552
5047,31552
5048,31552
5049,31680
5050,31808
5051,32000
5052,32320
5053,32576
5054,32768
5055,32768
5056,32704
5057,32896
5058,33152
5059,33344
5060,33216
5061,33024
5062,32960
5063,32960
5064,32960
5065,32960
5066,33024
5067,33216
5068,33344
5069,33408
5070,33472
5071,33536
5072,33536
5073,33600
5074,33728
5075,33792
5076,33920
5077,34048
5078,34112
5079,34112
5080,33984
5081,33920
5082,33856
5083,33728
5084,33792
5085,33792
5086,33792
5087,33792
5088,33792
5089,33792
5090,33728
5091,33856
5092,34048
5093,34048
5094,33856
5095,33856
5096,33984
5097,34112
5098,34112
5099,34176
5100,34240
5101,34368
5102,34496
5103,34624
5104,34752
5105,34816
5106,34944
5107,34944
5108,35008
5109,35072
5110,35008
5111,34752
5112,34304
5113,33792
5114,33344
5115,33152
5116,32896
5117,32832
5118,32768
5119,32832
5120,33024
5121,33152
5122,33152
5123,33088
5124,32960
5125,32832
5126,32896
5127,33024
5128,33088
5129,33088
5130,33216
5131,33600
5132,34496
5133,36096
5134,37952
5135,40192
5136,42560
5137,44480
5138,44928
5139,43648
5140,41408
5141,38784
5142,36096
5143,33472
5144,31040
5145,29632
5146,28800
5147,28672
5148,28992
5149,29696
5150,30336
5151,30912
5152,31424
5153,31936
5154,32448
5155,32896
5156,33088
5157,32960
5158,32896
5159,32960
5160,33024
5161,33152
5162,33088
5163,33088
5164,33152
5165,33344
5166,33664
5167,33856
5168,33792
5169,33664
5170,33600
5171,33728
5172,34048
5173,34368
5174,34560
5175,34560
5176,34496
5177,34432
5178,34432
5179,34368
5180,34304
5181,34368
5182,34496
5183,34688
5184,34752
5185,34816
5186,35008
5187,35264
5188,35520
5189,35776
5190,35904
5191,35904
5192,35776
5193,35584
5194,35520
5195,35456
5196,35456
5197,35456
5198,35456
5199,35456
5200,35392
5201,35328
5202,35008
5203,34688
5204,34432
5205,34112
5206,33728
5207,33408
5208,33152
5209,32896
5210,32640
5211,32384
5212,32256
5213,32192
5214,32128
5215,31936
5216,31808
5217,31744
5218,31808
5219,31872
5220,31936
5221,32064
5222,32256
5223,32448
5224,32512
5225,32640
5226,32768
5227,33024
5228,33216
5229,33408
5230,33536
5231,33600
5232,33664
5233,33600
5234,33536
5235,33536
5236,33472
5237,33408
5238,33280
5239,33216
5240,33280
5241,33536
5242,33792
5243,33920
5244,33856
5245,33600
5246,33408
5247,33472
5248,33472
5249,33536
5250,33600
5251,33664
5252,33792
5253,33856
5254,33920
5255,33984
5256,33920
5257,33920
5258,33920
5259,33792
5260,33600
5261,33472
5262,33408
5263,33408
5264,33472
5265,33536
5266,33536
5267,33600
5268,33728
5269,33920
5270,34176
5271,34560
5272,34752
5273,34816
5274,34752
5275,34816
5276,35008
5277,35328
5278,35520
5279,35520
5280,35264
5281,35008
5282,34752
5283,34560
5284,34176
5285,33728
5286,33280
5287,32896
5288,32640
5289,32512
5290,32512
5291,32640
5292,32832
5293,32960
5294,33088
5295,33152
5296,33280
5297,33344
5298,33408
5299,33472
5300,33408
5301,33216
5302,33088
5303,33024
5304,33408
5305,34176
5306,35456
5307,37120
5308,39360
5309,42112
5310,44800
5311,46656
5312,46400
5313,43904
5314,40512
5315,36992
5316,33856
5317,31296
5318,29568
5319,28800
5320,28608
5321,28864
5322,29376
5323,30016
5324,30528
5325,30976
5326,31296
5327,31616
5328,32000
5329,32320
5330,32576
5331,32768
5332,32896
5333,33088
5334,33280
5335,33344
5336,33472
5337,33600
5338,33792
5339,33856
5340,33856
5341,33792
5342,33664
5343,33536
5344,33536
5345,33728
5346,33792
5347,33856
5348,33920
5349,34112
5350,34240
5351,34432
5352,34624
5353,34752
5354,35008
5355,35264
5356,35520
5357,35840
5358,35968
5359,35904
5360,35776
5361,35712
5362,35776
5363,35904
5364,36032
5365,36032
5366,35968
5367,35904
5368,35904
5369,35904
5370,35968
5371,35840
5372,35776
5373,35776
5374,35712
5375,35456
5376,35200
5377,35008
5378,34880
5379,34752
5380,34304
5381,33792
5382,33280
5383,33024
5384,32768
5385,32384
5386,32000
5387,31680
5388,31552
5389,31488
5390,31488
5391,31488
5392,31552
5393,31616
5394,31744
5395,31872
5396,32064
5397,32192
5398,32256
5399,32384
5400,32640
5401,32832
5402,33024
5403,33024
5404,33088
5405,33088
5406,33152
5407,33216
5408,33280
5409,33280
5410,33344
5411,33344
5412,33408
5413,33472
5414,33472
5415,33472
5416,33472
5417,33536
5418,33664
5419,33792
5420,33984
5421,34048
5422,34048
5423,33920
5424,33792
5425,33664
5426,33600
5427,33536
5428,33664
5429,33792
5430,33792
5431,33792
5432,33664
5433,33536
5434,33472
5435,33536
5436,33600
5437,33600
5438,33728
5439,33920
5440,33984
5441,33984
5442,33920
5443,33856
5444,33728
5445,33728
5446,33856
5447,33984
5448,34048
5449,33984
5450,33856
5451,33664
5452,33600
5453,33472
5454,33536
5455,33536
5456,33536
5457,33536
5458,33600
5459,33728
5460,33856
5461,33856
5462,33920
5463,33920
5464,33984
5465,34048
5466,34176
5467,34240
5468,34368
5469,34432
5470,34432
5471,34432
5472,34496
5473,34496
5474,34496
5475,34688
5476,34944
5477,35008
5478,35008
5479,34944
5480,34880
5481,34816
5482,34688
5483,34496
5484,34304
5485,34112
5486,33920
5487,33728
5488,33408
5489,33216
5490,33152
5491,33280
5492,33408
5493,33344
5494,33152
5495,32960
5496,32896
5497,33024
5498,33152
5499,33152
5500,33152
5501,33024
5502,33216
5503,33920
5504,35200
5505,36672
5506,38592
5507,41088
5508,43968
5509,46336
5510,47104
5511,45504
5512,42368
5513,38848
5514,35328
5515,32192
5516,29888
5517,28608
5518,28160
5519,28224
5520,28736
5521,29504
5522,30336
5523,30976
5524,31488
5525,31936
5526,32192
5527,32448
5528,32704
5529,32832
5530,33088
5531,33280
5532,33408
5533,33408
5534,33472
5535,33600
5536,33728
5537,33728
5538,33728
5539,33728
5540,33664
5541,33664
5542,33664
5543,33664
5544,33792
5545,33856
5546,33984
5547,34112
5548,34240
5549,34368
5550,34560
5551,34752
5552,34944
5553,35072
5554,35264
5555,35392
5556,35520
5557,35584
5558,35712
5559,35968
5560,36032
5561,35968
5562,35840
5563,35776
5564,35904
5565,36032
5566,35968
5567,35968
5568,35904
5569,35840
5570,35840
5571,36032
5572,36160
5573,36032
5574,35712
5575,35456
5576,35264
5577,35008
5578,34560
5579,34176
5580,33856
5581,33664
5582,33344
5583,32896
5584,32448
5585,32064
5586,31808
5587,31680
5588,31744
5589,31744
5590,31808
5591,31808
5592,31872
5593,32064
5594,32320
5595,32640
5596,32768
5597,32704
5598,32704
5599,32768
5600,32704
5601,32576
5602,32576
5603,32704
5604,32832
5605,32832
5606,32896
5607,32960
5608,33088
5609,33280
5610,33472
5611,33600
5612,33792
5613,33856
5614,33920
5615,33856
5616,33856
5617,33920
5618,33984
5619,33984
5620,33856
5621,33664
5622,33472
5623,33408
5624,33472
5625,33536
5626,33600
5627,33920
5628,34112
5629,34240
5630,34240
5631,34240
5632,34176
5633,33984
5634,33856
5635,33728
5636,33728
5637,33792
5638,33728
5639,33664
5640,33600
5641,33600
5642,33664
5643,33664
5644,33728
5645,33792
5646,33856
5647,33792
5648,33664
5649,33600
5650,33728
5651,33920
5652,34176
5653,34496
5654,34624
5655,34560
5656,34304
5657,34112
5658,34112
5659,33984
5660,33728
5661,33728
5662,33728
5663,33664
5664,33600
5665,33536
5666,33600
5667,33664
5668,33792
5669,33856
5670,33920
5671,33984
5672,34112
5673,34176
5674,34240
5675,34368
5676,34816
5677,35072
5678,34880
5679,34432
5680,34112
5681,33920
5682,33920
5683,34112
5684,34304
5685,34432
5686,34560
5687,34688
5688,34944
5689,35200
5690,35264
5691,35328
5692,35328
5693,35328
5694,35200
5695,35008
5696,34752
5697,34496
5698,34240
5699,33984
5700,33664
5701,33472
5702,33408
5703,33280
5704,33088
5705,33024
5706,32960
5707,33024
5708,33152
5709,33280
5710,33344
5711,33536
5712,33600
5713,33472
5714,33600
5715,34368
5716,35648
5717,37376
5718,39488
5719,42240
5720,45248
5721,47552
5722,47936
5723,45184
5724,40704
5725,37248
5726,33600
5727,30848
5728,29376
5729,28864
5730,28864
5731,28928
5732,29184
5733,29824
5734,30464
5735,31040
5736,31488
5737,31808
5738,32064
5739,32256
5740,32384
5741,32512
5742,32704
5743,32832
5744,32960
5745,33024
5746,33152
5747,33280
5748,33408
5749,33536
5750,33728
5751,33792
5752,33920
5753,34112
5754,34304
5755,34560
5756,34688
5757,34624
5758,34496
5759,34432
5760,34368
5761,34496
5762,34624
5763,34752
5764,34816
5765,34944
5766,35136
5767,35264
5768,35328
5769,35456
5770,35776
5771,36032
5772,36224
5773,36416
5774,36416
5775,36288
5776,36288
5777,36288
5778,36352
5779,36416
5780,36416
5781,36352
5782,36352
5783,36288
5784,36096
5785,35968
5786,35904
5787,35712
5788,35456
5789,35136
5790,34880
5791,34560
5792,34240
5793,33856
5794,33408
5795,33088
5796,32640
5797,32128
5798,31808
5799,31680
5800,31552
5801,31360
5802,31296
5803,31232
5804,31360
5805,31488
5806,31616
5807,31680
5808,31808
5809,32000
5810,32192
5811,32256
5812,32320
5813,32384
5814,32448
5815,32576
5816,32704
5817,32960
5818,33088
5819,33152
5820,33088
5821,33216
5822,33344
5823,33408
5824,33408
5825,33344
5826,33216
5827,33152
5828,33216
5829,33408
5830,33664
5831,33856
5832,33920
5833,33984
5834,33856
5835,33600
5836,33344
5837,33344
5838,33600
5839,33728
5840,33792
5841,33664
5842,33600
5843,33472
5844,33472
5845,33536
5846,33600
5847,33600
5848,33600
5849,33600
5850,33600
5851,33600
5852,33728
5853,33856
5854,33984
5855,34048
5856,33984
5857,33856
5858,33728
5859,33728
5860,33728
5861,33920
5862,33984
5863,33920
5864,33664
5865,33600
5866,33728
5867,33856
5868,33984
5869,34048
5870,34112
5871,33920
5872,33664
5873,33472
5874,33408
5875,33472
5876,33536
5877,33664
5878,33792
5879,33984
5880,34048
5881,34048
5882,33856
5883,33728
5884,33664
5885,33792
5886,34048
5887,34304
5888,34496
5889,34752
5890,34816
5891,34752
5892,34752
5893,34816
5894,34944
5895,34880
5896,34880
5897,34880
5898,34944
5899,34944
5900,34816
5901,34560
5902,34240
5903,33856
5904,33472
5905,33280
5906,33216
5907,33216
5908,33216
5909,33088
5910,33088
5911,33152
5912,33280
5913,33344
5914,33408
5915,33408
5916,33344
5917,33280
5918,33152
5919,33024
5920,33344
5921,34240
5922,35776
5923,37824
5924,40448
5925,43456
5926,46272
5927,47808
5928,46656
5929,43392
5930,39488
5931,35776
5932,32448
5933,29888
5934,28480
5935,28096
5936,28224
5937,28800
5938,29632
5939,30528
5940,31296
5941,31744
5942,31936
5943,31936
5944,32000
5945,32192
5946,32384
5947,32576
5948,32768
5949,33024
5950,33216
5951,33344
5952,33344
5953,33408
5954,33472
5955,33728
5956,33984
5957,34048
5958,33984
5959,33984
5960,34112
5961,34240
5962,34304
5963,34304
5964,34368
5965,34368
5966,34368
5967,34432
5968,34560
5969,34816
5970,35072
5971,35328
5972,35456
5973,35456
5974,35456
5975,35520
5976,35712
5977,35776
5978,35776
5979,35968
5980,36096
5981,36224
5982,36288
5983,36352
5984,36416
5985,36480
5986,36480
5987,36544
5988,36544
5989,36480
5990,36352
5991,36288
5992,36096
5993,35840
5994,35392
5995,34816
5996,34304
5997,33792
5998,33408
5999,33088
6000,32768
6001,32448
6002,32128
6003,31872
6004,31808
6005,31680
6006,31616
6007,31488
6008,31488
6009,31552
6010,31552
6011,31552
6012,31744
6013,31808
6014,31872
6015,31936
6016,32000
6017,32256
6018,32448
6019,32512
6020,32512
6021,32512
6022,32576
6023,32768
6024,32960
6025,33088
6026,33216
6027,33216
6028,33088
6029,33024
6030,33088
6031,33152
6032,33216
6033,33280
6034,33408
6035,33600
6036,33792
6037,33856
6038,33920
6039,33856
6040,33664
6041,33472
6042,33408
6043,33280
6044,33216
6045,33280
6046,33408
6047,33472
6048,33472
6049,33472
6050,33536
6051,33600
6052,33664
6053,33664
6054,33600
6055,33600
6056,33728
6057,33728
6058,33664
6059,33664
6060,33600
6061,33536
6062,33472
6063,33472
6064,33472
6065,33600
6066,33664
6067,33728
6068,33856
6069,33856
6070,33792
6071,33728
6072,33664
6073,33792
6074,33920
6075,33792
6076,33664
6077,33600
6078,33600
6079,33536
6080,33472
6081,33472
6082,33536
6083,33536
6084,33536
6085,33664
6086,33856
6087,34176
6088,34432
6089,34688
6090,34752
6091,34624
6092,34496
6093,34624
6094,34944
6095,35008
6096,35008
6097,34944
6098,34816
6099,34752
6100,34560
6101,34432
6102,34368
6103,34112
6104,33856
6105,33472
6106,33216
6107,33024
6108,32896
6109,32832
6110,32896
6111,32960
6112,32960
6113,33088
6114,33152
6115,33280
6116,33408
6117,33472
6118,33472
6119,33344
6120,33280
6121,33472
6122,34048
6123,35392
6124,38144
6125,40192
6126,43264
6127,46080
6128,47360
6129,45952
6130,42752
6131,39040
6132,35520
6133,32448
6134,30080
6135,28736
6136,28224
6137,28416
6138,28928
6139,29696
6140,30528
6141,31040
6142,31424
6143,31808
6144,32064
6145,32320
6146,32576
6147,32768
6148,32832
6149,32896
6150,33024
6151,33088
6152,33152
6153,33280
6154,33472
6155,33664
6156,33728
6157,33856
6158,33856
6159,33920
6160,34048
6161,34112
6162,34112
6163,33984
6164,33792
6165,33792
6166,33856
6167,34368
6168,34432
6169,34624
6170,34880
6171,35072
6172,35200
6173,35200
6174,35328
6175,35584
6176,35712
6177,35776
6178,35776
6179,35840
6180,35968
6181,36032
6182,36160
6183,36288
6184,36352
6185,36288
6186,36224
6187,36160
6188,36096
6189,35968
6190,35904
6191,35776
6192,35648
6193,35520
6194,35264
6195,34944
6196,34368
6197,34112
6198,34048
6199,33664
6200,33344
6201,32448
6202,32000
6203,31744
6204,31552
6205,31424
6206,31552
6207,31680
6208,31680
6209,31552
6210,31488
6211,31616
6212,31808
6213,31808
6214,32000
6215,32000
6216,32000
6217,32064
6218,32192
6219,32448
6220,32704
6221,32832
6222,32832
6223,32960
6224,32960
6225,32960
6226,32960
6227,32960
6228,32896
6229,33024
6230,33408
6231,33536
6232,33600
6233,33536
6234,33536
6235,33536
6236,33536
6237,33408
6238,33280
6239,33280
6240,33280
6241,33408
6242,33472
6243,33472
6244,33472
6245,33472
6246,33536
6247,33600
6248,33536
6249,33472
6250,33408
6251,33536
6252,33664
6253,33728
6254,33728
6255,33600
6256,33536
6257,33536
6258,33664
6259,33792
6260,33856
6261,33920
6262,33984
6263,34048
6264,34048
6265,34240
6266,34496
6267,34688
6268,34688
6269,34624
6270,34688
6271,34816
6272,34880
6273,35008
6274,35072
6275,35008
6276,34624
6277,34112
6278,33600
6279,33216
6280,33024
6281,32960
6282,32960
6283,33024
6284,33024
6285,33152
6286,33280
6287,33472
6288,33600
6289,33408
6290,33280
6291,33344
6292,33344
6293,33152
6294,32896
6295,32768
6296,32832
6297,33536
6298,34752
6299,36352
6300,38528
6301,41088
6302,44096
6303,46208
6304,46784
6305,44992
6306,41792
6307,38208
6308,34816
6309,32000
6310,29952
6311,28736
6312,28288
6313,28416
6314,28928
6315,29568
6316,30272
6317,30976
6318,31552
6319,31552
6320,32256
6321,32576
6322,32768
6323,32960
6324,32896
6325,33088
6326,33088
6327,33152
6328,33216
6329,33408
6330,33664
6331,33792
6332,33664
6333,33600
6334,33664
6335,33728
6336,33792
6337,33856
6338,33984
6339,34176
6340,34368
6341,34496
6342,34560
6343,34496
6344,34432
6345,34560
6346,34624
6347,34688
6348,34880
6349,35200
6350,35456
6351,35520
6352,35584
6353,35648
6354,35904
6355,36096
6356,36096
6357,36096
6358,36096
6359,36096
6360,36288
6361,36224
6362,36032
6363,35840
6364,35712
6365,35648
6366,35712
6367,35712
6368,35584
6369,35392
6370,35072
6371,34688
6372,34368
6373,33920
6374,33664
6375,33408
6376,33024
6377,32768
6378,32576
6379,32320
6380,32000
6381,31616
6382,31360
6383,31168
6384,31232
6385,31488
6386,31680
6387,31808
6388,32128
6389,32064
6390,32256
6391,32256
6392,32384
6393,32512
6394,32704
6395,32832
6396,32896
6397,32832
6398,32832
6399,32896
6400,33024
6401,33024
6402,33088
6403,33152
6404,33152
6405,33344
6406,33472
6407,33600
6408,33664
6409,33664
6410,33664
6411,33664
6412,33664
6413,33664
6414,33600
6415,33472
6416,33472
6417,33664
6418,33728
6419,33664
6420,33664
6421,33728
6422,33728
6423,33664
6424,33600
6425,33664
6426,33600
6427,33600
6428,33728
6429,33728
6430,33792
6431,33728
6432,33728
6433,33792
6434,33792
6435,34048
6436,34368
6437,34560
6438,34432
6439,34304
6440,34368
6441,34496
6442,34688
6443,34816
6444,34880
6445,35008
6446,35072
6447,34944
6448,34624
6449,34496
6450,34112
6451,33664
6452,33344
6453,33280
6454,33216
6455,33024
6456,32768
6457,32576
6458,32576
6459,32704
6460,32832
6461,32960
6462,33088
6463,33280
6464,33344
6465,33280
6466,33216
6467,33152
6468,33152
6469,33600
6470,34432
6471,35776
6472,37568
6473,39936
6474,42944
6475,45824
6476,47360
6477,46336
6478,41408
6479,40832
6480,35968
6481,32832
6482,30400
6483,28800
6484,28032
6485,27968
6486,28416
6487,29248
6488,30144
6489,30848
6490,31296
6491,31680
6492,32064
6493,32384
6494,32704
6495,33024
6496,33088
6497,33088
6498,33024
6499,33088
6500,33280
6501,33472
6502,33664
6503,33792
6504,33728
6505,33728
6506,33728
6507,33728
6508,33920
6509,33920
6510,34112
6511,34176
6512,34176
6513,34240
6514,34304
6515,34496
6516,34688
6517,34688
6518,34752
6519,34880
6520,35072
6521,35200
6522,35200
6523,35264
6524,35328
6525,35520
6526,35712
6527,36032
6528,36224
6529,36352
6530,36480
6531,36416
6532,36352
6533,36288
6534,36288
6535,36352
6536,36416
6537,36288
6538,36032
6539,35776
6540,35584
6541,35328
6542,35072
6543,34944
6544,34752
6545,34432
6546,33920
6547,33280
6548,32832
6549,32384
6550,32000
6551,31744
6552,31616
6553,31616
6554,31680
6555,31680
6556,31552
6557,31488
6558,31488
6559,31552
6560,31680
6561,31808
6562,31936
6563,32256
6564,32576
6565,32640
6566,32640
6567,32640
6568,32576
6569,32512
6570,32576
6571,32640
6572,32768
6573,32832
6574,33024
6575,33216
6576,33280
6577,33280
6578,33408
6579,33600
6580,33664
6581,33664
6582,33664
6583,33664
6584,33728
6585,33856
6586,33920
6587,33920
6588,33984
6589,34048
6590,34048
6591,33984
6592,33856
6593,33664
6594,33600
6595,33600
6596,33600
6597,33664
6598,33728
6599,33664
6600,33664
6601,33728
6602,33792
6603,33664
6604,33664
6605,33664
6606,33792
6607,33856
6608,33856
6609,33792
6610,33728
6611,33792
6612,33728
6613,33664
6614,33600
6615,33600
6616,33728
6617,34048
6618,34304
6619,34496
6620,34496
6621,34560
6622,34624
6623,34624
6624,34688
6625,34880
6626,35264
6627,35520
6628,35456
6629,35264
6630,34944
6631,34496
6632,34240
6633,34048
6634,33984
6635,33792
6636,33536
6637,33280
6638,33152
6639,33024
6640,32960
6641,32960
6642,33088
6643,33152
6644,33152
6645,33024
6646,33024
6647,33088
6648,33088
6649,33280
6650,33408
6651,33344
6652,33280
6653,33728
6654,34688
6655,36224
6656,38336
6657,41152
6658,44160
6659,46784
6660,47808
6661,46144
6662,42688
6663,38784
6664,35072
6665,31808
6666,29568
6667,28480
6668,28224
6669,28608
6670,29248
6671,29888
6672,30464
6673,30976
6674,31360
6675,31744
6676,32128
6677,32576
6678,32832
6679,33088
6680,33216
6681,33280
6682,33216
6683,33152
6684,33216
6685,33216
6686,33152
6687,33280
6688,33472
6689,33600
6690,33664
6691,33792
6692,33984
6693,34176
6694,34240
6695,34304
6696,34304
6697,34368
6698,34432
6699,34496
6700,34496
6701,34560
6702,34688
6703,34816
6704,34944
6705,35136
6706,35328
6707,35520
6708,35648
6709,35712
6710,35904
6711,36032
6712,36160
6713,36288
6714,36480
6715,36608
6716,36736
6717,36672
6718,36544
6719,36416
6720,36288
6721,36096
6722,35968
6723,35968
6724,36096
6725,35968
6726,35584
6727,35072
6728,34496
6729,33920
6730,33408
6731,33024
6732,32704
6733,32448
6734,32256
6735,32064
6736,31872
6737,31616
6738,31360
6739,31168
6740,31104
6741,31168
6742,31296
6743,31360
6744,31424
6745,31616
6746,31872
6747,32064
6748,32128
6749,32256
6750,32448
6751,32640
6752,32768
6753,32832
6754,32896
6755,32896
6756,32960
6757,32960
6758,33024
6759,33088
6760,33152
6761,33280
6762,33344
6763,33408
6764,33536
6765,33600
6766,33664
6767,33664
6768,33600
6769,33600
6770,33664
6771,33792
6772,33856
6773,33792
6774,33664
6775,33600
6776,33600
6777,33536
6778,33536
6779,33536
6780,33472
6781,33408
6782,33472
6783,33600
6784,33792
6785,33856
6786,33728
6787,33664
6788,33600
6789,33664
6790,33664
6791,33664
6792,33664
6793,33728
6794,33792
6795,33856
6796,33856
6797,33856
6798,33728
6799,33600
6800,33600
6801,33664
6802,33728
6803,33856
6804,34048
6805,34176
6806,34176
6807,33984
6808,33728
6809,33664
6810,33728
6811,33728
6812,33856
6813,33728
6814,33664
6815,33728
6816,33920
6817,34176
6818,34432
6819,34752
6820,34944
6821,35008
6822,35008
6823,35008
6824,35008
6825,35072
6826,35200
6827,35328
6828,35264
6829,35072
6830,34816
6831,34752
6832,34432
6833,33920
6834,33408
6835,33088
6836,32960
6837,33024
6838,33152
6839,33152
6840,33152
6841,33024
6842,32960
6843,33088
6844,33280
6845,33280
6846,33216
6847,33088
6848,32896
6849,32896
6850,33344
6851,34176
6852,35456
6853,37312
6854,40064
6855,42944
6856,45952
6857,47936
6858,47424
6859,44608
6860,40704
6861,36736
6862,33152
6863,30400
6864,28800
6865,28160
6866,28288
6867,28864
6868,29504
6869,30080
6870,30528
6871,31040
6872,31616
6873,31936
6874,32256
6875,32512
6876,32704
6877,32832
6878,33024
6879,33152
6880,33152
6881,33152
6882,33280
6883,33408
6884,33536
6885,33664
6886,33856
6887,33984
6888,33856
6889,33728
6890,33728
6891,33792
6892,33920
6893,33984
6894,34048
6895,34112
6896,34304
6897,34496
6898,34688
6899,34688
6900,34688
6901,34752
6902,34944
6903,35200
6904,35392
6905,35648
6906,35904
6907,36032
6908,36288
6909,36416
6910,36480
6911,36480
6912,36416
6913,36416
6914,36352
6915,36224
6916,36224
6917,36288
6918,36288
6919,36160
6920,35968
6921,35776
6922,35520
6923,35392
6924,35136
6925,34752
6926,34240
6927,33728
6928,33344
6929,33088
6930,32704
6931,32320
6932,32064
6933,31872
6934,31680
6935,31616
6936,31552
6937,31552
6938,31488
6939,31488
6940,31552
6941,31552
6942,31552
6943,31680
6944,31936
6945,32192
6946,32320
6947,32384
6948,32384
6949,32256
6950,32192
6951,32320
6952,32512
6953,32704
6954,32768
6955,32960
6956,33152
6957,33344
6958,33344
6959,33280
6960,33280
6961,33344
6962,33536
6963,33664
6964,33728
6965,33600
6966,33536
6967,33472
6968,33408
6969,33408
6970,33472
6971,33536
6972,33600
6973,33600
6974,33536
6975,33536
6976,33472
6977,33536
6978,33728
6979,33984
6980,33984
6981,33792
6982,33664
6983,33792
6984,33920
6985,33856
6986,33600
6987,33472
6988,33472
6989,33600
6990,33728
6991,33792
6992,33728
6993,33664
6994,33664
6995,33536
6996,33472
6997,33472
6998,33664
6999,33728
7000,33792
7001,33856
7002,34048
7003,34176
7004,34304
7005,34560
7006,34816
7007,34816
7008,34560
7009,34368
7010,34304
7011,34496
7012,34752
7013,34944
7014,35008
7015,35072
7016,35008
7017,34816
7018,34496
7019,34112
7020,33920
7021,33728
7022,33536
7023,33344
7024,33152
7025,33024
7026,32960
7027,32960
7028,33088
7029,33280
7030,33280
7031,33152
7032,33024
7033,32960
7034,32960
7035,32960
7036,32960
7037,33088
7038,33664
7039,34688
7040,36096
7041,38080
7042,40704
7043,43648
7044,46080
7045,46784
7046,44992
7047,41856
7048,38528
7049,35392
7050,32576
7051,30272
7052,28800
7053,28416
7054,28672
7055,29312
7056,29952
7057,30464
7058,30848
7059,31296
7060,31808
7061,32192
7062,32576
7063,32768
7064,32896
7065,33024
7066,33152
7067,33280
7068,33216
7069,33280
7070,33344
7071,33472
7072,33600
7073,33664
7074,33664
7075,33664
7076,33728
7077,33856
7078,34048
7079,34112
7080,34176
7081,34176
7082,34240
7083,34368
7084,34368
7085,34432
7086,34560
7087,34816
7088,34880
7089,34944
7090,35008
7091,35136
7092,35328
7093,35456
7094,35584
7095,35712
7096,35840
7097,36032
7098,36096
7099,36160
7100,36160
7101,36224
7102,36288
7103,36288
7104,36224
7105,36160
7106,35968
7107,35776
7108,35648
7109,35456
7110,35328
7111,35136
7112,35008
7113,34688
7114,34304
7115,33984
7116,33600
7117,33216
7118,32768
7119,32448
7120,32192
7121,32064
7122,32000
7123,31872
7124,31680
7125,31552
7126,31552
7127,31744
7128,32000
7129,32064
7130,32064
7131,32128
7132,32256
7133,32320
7134,32384
7135,32384
7136,32384
7137,32512
7138,32576
7139,32704
7140,32896
7141,33088
7142,33088
7143,33088
7144,33024
7145,32960
7146,33024
7147,33088
7148,33216
7149,33472
7150,33664
7151,33728
7152,33664
7153,33536
7154,33600
7155,33664
7156,33856
7157,33920
7158,33856
7159,33792
7160,33728
7161,33728
7162,33792
7163,33920
7164,33856
7165,33664
7166,33472
7167,33408
7168,33344
7169,33472
7170,33600
7171,33664
7172,33664
7173,33792
7174,33792
7175,33728
7176,33728
7177,33728
7178,33792
7179,33856
7180,33792
7181,33664
7182,33600
7183,33600
7184,33664
7185,33792
7186,33920
7187,33984
7188,33984
7189,33856
7190,33792
7191,33792
7192,33856
7193,33984
7194,34368
7195,34752
7196,34752
7197,34560
7198,34368
7199,34496
7200,34752
7201,34944
7202,35008
7203,35072
7204,35072
7205,34944
7206,34752
7207,34496
7208,34176
7209,33792
7210,33408
7211,33216
7212,33216
7213,33216
7214,33216
7215,33152
7216,33088
7217,33088
7218,33088
7219,33152
7220,33344
7221,33344
7222,33216
7223,33088
7224,33088
7225,33152
7226,33472
7227,34176
7228,35200
7229,36864
7230,38912
7231,41792
7232,44800
7233,47104
7234,47488
7235,45248
7236,41600
7237,37696
7238,34048
7239,31040
7240,29056
7241,28224
7242,28096
7243,28480
7244,29184
7245,29824
7246,30592
7247,31296
7248,31808
7249,32256
7250,32576
7251,32768
7252,32832
7253,32960
7254,33024
7255,33024
7256,33024
7257,33088
7258,33216
7259,33472
7260,33600
7261,33664
7262,33600
7263,33600
7264,33792
7265,33984
7266,34112
7267,34176
7268,34368
7269,34560
7270,34560
7271,34368
7272,34176
7273,34048
7274,34176
7275,34368
7276,34688
7277,34880
7278,35008
7279,35136
7280,35200
7281,35392
7282,35584
7283,35776
7284,36032
7285,36160
7286,36224
7287,36224
7288,36352
7289,36544
7290,36672
7291,36672
7292,36608
7293,36416
7294,36224
7295,36096
7296,36032
7297,35968
7298,35840
7299,35584
7300,35200
7301,34816
7302,34304
7303,33792
7304,33344
7305,32960
7306,32704
7307,32448
7308,32256
7309,32128
7310,31936
7311,31680
7312,31488
7313,31424
7314,31488
7315,31616
7316,31680
7317,31808
7318,31744
7319,31744
7320,31872
7321,32064
7322,32320
7323,32384
7324,32448
7325,32448
7326,32512
7327,32640
7328,32704
7329,32768
7330,32832
7331,32896
7332,33024
7333,33152
7334,33344
7335,33536
7336,33664
7337,33728
7338,33728
7339,33664
7340,33600
7341,33600
7342,33728
7343,33856
7344,33792
7345,33664
7346,33664
7347,33792
7348,33792
7349,33664
7350,33472
7351,33408
7352,33408
7353,33408
7354,33472
7355,33536
7356,33664
7357,33728
7358,33728
7359,33664
7360,33664
7361,33664
7362,33664
7363,33728
7364,33728
7365,33856
7366,34048
7367,34240
7368,34112
7369,33856
7370,33536
7371,33408
7372,33344
7373,33344
7374,33472
7375,33728
7376,33920
7377,33920
7378,33792
7379,33664
7380,33664
7381,33792
7382,33856
7383,33792
7384,33728
7385,33728
7386,33792
7387,33984
7388,34176
7389,34304
7390,34176
7391,34176
7392,34304
7393,34496
7394,34560
7395,34624
7396,34752
7397,34816
7398,34880
7399,35008
7400,35072
7401,35136
7402,35200
7403,35072
7404,34880
7405,34624
7406,34176
7407,33728
7408,33344
7409,33152
7410,33088
7411,33088
7412,33088
7413,33216
7414,33152
7415,33088
7416,33024
7417,33088
7418,33152
7419,33280
7420,33344
7421,33344
7422,33280
7423,33152
7424,33408
7425,34176
7426,35584
7427,37504
7428,40320
7429,42944
7430,45824
7431,47680
7432,47104
7433,44288
7434,40512
7435,36608
7436,32960
7437,30208
7438,28608
7439,28032
7440,28160
7441,28672
7442,29376
7443,30144
7444,30784
7445,31296
7446,31744
7447,32000
7448,32256
7449,32448
7450,32768
7451,33024
7452,33088
7453,33088
7454,33088
7455,33216
7456,33280
7457,33344
7458,33408
7459,33536
7460,33600
7461,33664
7462,33792
7463,33920
7464,34048
7465,34176
7466,34176
7467,34176
7468,34176
7469,34176
7470,34304
7471,34432
7472,34496
7473,34560
7474,34752
7475,35008
7476,35200
7477,35456
7478,35520
7479,35456
7480,35520
7481,35648
7482,35840
7483,36032
7484,36288
7485,36480
7486,36608
7487,36608
7488,36544
7489,36480
7490,36480
7491,36480
7492,36544
7493,36544
7494,36288
7495,36032
7496,35840
7497,35584
7498,35200
7499,34816
7500,34432
7501,33984
7502,33536
7503,33024
7504,32576
7505,32192
7506,32000
7507,31872
7508,31744
7509,31616
7510,31488
7511,31424
7512,31360
7513,31360
7514,31360
7515,31488
7516,31616
7517,31808
7518,31936
7519,32000
7520,32128
7521,32320
7522,32448
7523,32512
7524,32640
7525,32768
7526,32832
7527,32896
7528,33024
7529,33088
7530,33088
7531,33088
7532,33152
7533,33280
7534,33408
7535,33536
7536,33600
7537,33600
7538,33600
7539,33600
7540,33600
7541,33472
7542,33472
7543,33600
7544,33792
7545,33856
7546,33792
7547,33600
7548,33408
7549,33344
7550,33472
7551,33472
7552,33472
7553,33408
7554,33344
7555,33408
7556,33472
7557,33472
7558,33472
7559,33600
7560,33728
7561,33920
7562,33920
7563,33920
7564,33920
7565,33984
7566,33856
7567,33856
7568,33856
7569,33856
7570,33920
7571,33984
7572,34048
7573,33856
7574,33728
7575,33600
7576,33472
7577,33472
7578,33536
7579,33600
7580,33728
7581,33728
7582,33728
7583,33792
7584,33856
7585,33920
7586,33984
7587,34048
7588,33984
7589,33920
7590,33920
7591,34048
7592,34176
7593,34176
7594,33984
7595,33856
7596,33984
7597,34048
7598,33984
7599,34048
7600,34240
7601,34496
7602,34496
7603,34496
7604,34496
7605,34688
7606,34880
7607,35072
7608,35136
7609,35072
7610,34944
7611,34816
7612,34752
7613,34496
7614,34240
7615,33984
7616,33792
7617,33536
7618,33152
7619,33024
7620,32896
7621,32896
7622,32960
7623,33024
7624,33152
7625,33216
7626,33344
7627,33344
7628,33344
7629,33344
7630,33280
7631,33152
7632,33280
7633,33984
7634,35264
7635,37184
7636,39616
7637,42624
7638,45696
7639,47296
7640,46720
7641,43904
7642,40256
7643,36736
7644,33408
7645,30656
7646,28928
7647,28160
7648,28096
7649,28544
7650,29184
7651,29952
7652,30656
7653,31168
7654,31424
7655,31744
7656,32128
7657,32448
7658,32640
7659,32768
7660,32960
7661,33152
7662,33216
7663,33344
7664,33344
7665,33280
7666,33408
7667,33664
7668,33856
7669,33856
7670,33728
7671,33600
7672,33600
7673,33664
7674,33792
7675,33920
7676,33984
7677,34048
7678,34176
7679,34368
7680,34560
7681,34688
7682,34880
7683,35072
7684,35200
7685,35328
7686,35328
7687,35328
7688,35456
7689,35520
7690,35648
7691,35840
7692,36160
7693,36288
7694,36416
7695,36416
7696,36416
7697,36416
7698,36352
7699,36352
7700,36480
7701,36544
7702,36416
7703,36160
7704,35776
7705,35392
7706,35008
7707,34688
7708,34368
7709,33920
7710,33536
7711,33088
7712,32768
7713,32448
7714,32256
7715,32000
7716,31744
7717,31488
7718,31424
7719,31488
7720,31616
7721,31808
7722,31808
7723,31744
7724,31616
7725,31680
7726,31808
7727,32064
7728,32128
7729,32128
7730,32256
7731,32448
7732,32512
7733,32512
7734,32576
7735,32640
7736,32704
7737,32768
7738,32832
7739,32896
7740,33088
7741,33408
7742,33664
7743,33664
7744,33664
7745,33536
7746,33472
7747,33408
7748,33408
7749,33408
7750,33536
7751,33728
7752,33856
7753,33792
7754,33664
7755,33600
7756,33472
7757,33472
7758,33472
7759,33472
7760,33600
7761,33664
7762,33728
7763,33728
7764,33664
7765,33664
7766,33728
7767,33792
7768,33792
7769,33856
7770,33856
7771,33728
7772,33664
7773,33664
7774,33728
7775,33728
7776,33792
7777,33856
7778,33856
7779,33856
7780,33856
7781,33856
7782,33792
7783,33792
7784,33856
7785,33920
7786,33984
7787,33984
7788,34048
7789,34176
7790,34368
7791,34496
7792,34496
7793,34560
7794,34880
7795,35136
7796,35264
7797,35136
7798,34944
7799,34880
7800,34880
7801,34816
7802,34560
7803,34112
7804,33728
7805,33600
7806,33408
7807,33216
7808,32960
7809,32768
7810,32768
7811,32896
7812,33024
7813,33088
7814,33216
7815,33280
7816,33280
7817,33280
7818,33152
7819,33024
7820,33024
7821,33344
7822,34176
7823,35520
7824,37376
7825,39872
7826,42752
7827,45504
7828,47104
7829,46336
7830,43520
7831,40064
7832,36608
7833,33536
7834,31040
7835,29376
7836,28416
7837,28160
7838,28416
7839,29056
7840,29888
7841,30720
7842,31424
7843,31936
7844,32320
7845,32384
7846,32512
7847,32640
7848,32832
7849,32960
7850,33152
7851,33280
7852,33344
7853,33408
7854,33536
7855,33728
7856,33984
7857,33984
7858,33984
7859,33920
7860,33792
7861,33856
7862,33984
7863,34112
7864,34112
7865,34048
7866,34112
7867,34240
7868,34368
7869,34496
7870,34624
7871,34752
7872,34880
7873,35008
7874,35264
7875,35520
7876,35648
7877,35712
7878,35776
7879,35840
7880,35904
7881,35968
7882,35968
7883,36096
7884,36224
7885,36288
7886,36416
7887,36416
7888,36352
7889,36288
7890,36160
7891,35968
7892,35840
7893,35712
7894,35456
7895,35136
7896,34816
7897,34432
7898,34048
7899,33664
7900,33344
7901,33152
7902,32768
7903,32320
7904,31872
7905,31552
7906,31360
7907,31296
7908,31232
7909,31296
7910,31424
7911,31680
7912,31936
7913,32128
7914,32256
7915,32256
7916,32320
7917,32448
7918,32576
7919,32640
7920,32640
7921,32576
7922,32640
7923,32704
7924,32768
7925,32896
7926,32960
7927,33088
7928,33216
7929,33280
7930,33408
7931,33472
7932,33536
7933,33664
7934,33728
7935,33728
7936,33728
7937,33664
7938,33664
7939,33664
7940,33600
7941,33664
7942,33728
7943,33920
7944,33984
7945,33856
7946,33728
7947,33600
7948,33536
7949,33536
7950,33600
7951,33728
7952,33856
7953,33920
7954,33984
7955,33984
7956,33920
7957,33920
7958,33856
7959,33856
7960,33728
7961,33600
7962,33472
7963,33408
7964,33344
7965,33408
7966,33472
7967,33600
7968,33728
7969,33728
7970,33664
7971,33664
7972,33728
7973,33792
7974,33856
7975,33920
7976,34048
7977,34112
7978,34176
7979,34112
7980,34048
7981,33920
7982,33920
7983,34048
7984,34304
7985,34432
7986,34688
7987,34944
7988,35008
7989,35136
7990,35200
7991,35136
7992,35008
7993,34816
7994,34688
7995,34368
7996,34048
7997,33728
7998,33472
7999,33344
8000,33280
8001,33152
8002,33088
8003,33024
8004,33088
8005,33280
8006,33408
8007,33472
8008,33344
8009,33152
8010,32960
8011,32960
8012,32960
8013,32896
8014,33024
8015,33664
8016,34816
8017,36480
8018,38720
8019,41600
8020,44672
8021,47040
8022,47552
8023,44672
8024,44096
8025,38016
8026,34496
8027,31552
8028,29696
8029,28736
8030,28416
8031,28544
8032,28992
8033,29760
8034,30528
8035,31040
8036,31424
8037,31680
8038,31872
8039,32128
8040,32384
8041,32704
8042,32960
8043,33088
8044,33088
8045,33152
8046,33216
8047,33408
8048,33408
8049,33344
8050,33344
8051,33536
8052,33792
8053,34048
8054,33984
8055,34048
8056,34048
8057,34112
8058,34176
8059,34240
8060,34304
8061,34368
8062,34496
8063,34688
8064,34880
8065,34944
8066,34944
8067,35072
8068,35264
8069,35392
8070,35584
8071,35968
8072,36352
8073,36672
8074,36608
8075,36352
8076,36224
8077,36096
8078,36096
8079,36224
8080,36288
8081,36160
8082,36032
8083,35968
8084,35904
8085,35840
8086,35712
8087,35584
8088,35264
8089,34944
8090,34560
8091,34176
8092,33920
8093,33600
8094,33216
8095,32896
8096,32704
8097,32384
8098,31936
8099,31488
8100,31168
8101,31104
8102,31168
8103,31232
8104,31296
8105,31360
8106,31552
8107,31744
8108,31936
8109,32128
8110,32128
8111,32192
8112,32320
8113,32448
8114,32448
8115,32640
8116,32768
8117,32960
8118,33024
8119,33024
8120,33088
8121,33152
8122,33280
8123,33344
8124,33408
8125,33472
8126,33536
8127,33472
8128,33408
8129,33408
8130,33472
8131,33536
8132,33664
8133,33728
8134,33664
8135,33856
8136,33920
8137,33856
8138,33664
8139,33536
8140,33600
8141,33600
8142,33600
8143,33536
8144,33600
8145,33664
8146,33728
8147,33728
8148,33728
8149,33728
8150,33728
8151,33728
8152,33664
8153,33664
8154,33792
8155,33920
8156,33984
8157,33920
8158,33856
8159,33792
8160,33600
8161,33472
8162,33408
8163,33472
8164,33536
8165,33664
8166,33856
8167,34048
8168,34112
8169,34112
8170,34048
8171,33984
8172,33856
8173,33792
8174,33792
8175,33856
8176,33984
8177,34048
8178,34176
8179,34240
8180,34432
8181,34560
8182,34624
8183,34624
8184,34752
8185,34944
8186,35072
8187,35200
8188,35328
8189,35328
8190,35200
8191,34880
8192,34560
8193,34304
8194,33920
8195,33600
8196,33408
8197,33216
8198,33152
8199,33088
8200,33024
8201,32960
8202,33024
8203,33024
8204,33024
8205,33152
8206,33280
8207,33472
8208,33472
8209,33344
8210,33280
8211,33536
8212,34304
8213,35648
8214,37504
8215,39936
8216,42816
8217,45632
8218,47424
8219,46912
8220,44160
8221,40448
8222,36480
8223,33088
8224,30336
8225,28736
8226,28160
8227,28288
8228,28800
8229,29504
8230,30144
8231,30720
8232,31232
8233,31552
8234,31872
8235,32128
8236,32320
8237,32576
8238,32832
8239,32960
8240,32960
8241,32960
8242,33088
8243,33280
8244,33472
8245,33664
8246,33728
8247,33664
8248,33600
8249,33600
8250,33728
8251,33856
8252,33856
8253,33920
8254,34048
8255,34176
8256,34304
8257,34304
8258,34368
8259,34560
8260,34752
8261,35072
8262,35264
8263,35328
8264,35264
8265,35264
8266,35392
8267,35520
8268,35648
8269,35776
8270,35904
8271,36096
8272,36160
8273,36288
8274,36352
8275,36416
8276,36416
8277,36416
8278,36416
8279,36416
8280,36288
8281,36096
8282,35968
8283,35840
8284,35712
8285,35520
8286,35200
8287,34752
8288,34176
8289,33728
8290,33280
8291,32896
8292,32512
8293,32128
8294,31872
8295,31680
8296,31552
8297,31488
8298,31424
8299,31424
8300,31552
8301,31616
8302,31744
8303,31808
8304,31936
8305,32064
8306,32128
8307,32320
8308,32384
8309,32384
8310,32384
8311,32576
8312,32832
8313,32896
8314,32896
8315,32832
8316,32832
8317,33024
8318,33152
8319,33152
8320,33152
8321,33280
8322,33408
8323,33472
8324,33472
8325,33472
8326,33472
8327,33472
8328,33472
8329,33664
8330,33792
8331,33792
8332,33792
8333,33792
8334,33728
8335,33664
8336,33600
8337,33664
8338,33728
8339,33728
8340,33600
8341,33472
8342,33472
8343,33472
8344,33408
8345,33472
8346,33536
8347,33664
8348,33664
8349,33792
8350,33856
8351,33856
8352,33856
8353,33856
8354,33792
8355,33856
8356,33792
8357,33600
8358,33536
8359,33664
8360,33856
8361,33856
8362,33728
8363,33600
8364,33600
8365,33600
8366,33600
8367,33600
8368,33600
8369,33664
8370,33664
8371,33792
8372,33920
8373,34048
8374,34112
8375,34048
8376,34048
8377,34048
8378,34048
8379,34176
8380,34304
8381,34432
8382,34560
8383,34624
8384,34688
8385,34752
8386,34944
8387,35072
8388,35072
8389,35072
8390,35008
8391,35072
8392,35136
8393,34944
8394,34560
8395,34112
8396,33728
8397,33408
8398,33152
8399,32960
8400,32960
8401,32960
8402,32960
8403,33088
8404,33280
8405,33472
8406,33408
8407,33344
8408,33280
8409,33280
8410,33216
8411,33088
8412,33024
8413,33344
8414,34240
8415,35648
8416,37568
8417,40064
8418,42944
8419,45760
8420,47488
8421,46912
8422,44032
8423,40256
8424,36416
8425,32960
8426,30336
8427,28864
8428,28352
8429,28480
8430,29056
8431,29696
8432,30464
8433,31168
8434,31424
8435,31680
8436,31936
8437,32192
8438,32384
8439,32512
8440,32576
8441,32768
8442,32896
8443,33088
8444,33088
8445,33216
8446,33408
8447,33536
8448,33600
8449,33728
8450,33728
8451,33792
8452,33856
8453,33984
8454,34048
8455,34048
8456,33984
8457,34048
8458,34112
8459,34240
8460,34432
8461,34496
8462,34624
8463,34688
8464,34816
8465,35008
8466,35200
8467,35456
8468,35648
8469,35840
8470,35968
8471,36032
8472,36032
8473,36096
8474,36224
8475,36288
8476,36352
8477,36352
8478,36352
8479,36288
8480,36224
8481,36224
8482,36224
8483,36160
8484,36032
8485,35904
8486,35776
8487,35648
8488,35328
8489,34944
8490,34432
8491,33920
8492,33472
8493,33088
8494,32704
8495,32384
8496,32064
8497,31808
8498,31616
8499,31488
8500,31360
8501,31296
8502,31232
8503,31232
8504,31360
8505,31488
8506,31680
8507,31936
8508,32128
8509,32256
8510,32256
8511,32256
8512,32320
8513,32384
8514,32512
8515,32704
8516,32896
8517,33024
8518,33088
8519,33152
8520,33152
8521,33280
8522,33344
8523,33344
8524,33216
8525,33216
8526,33280
8527,33344
8528,33536
8529,33600
8530,33600
8531,33536
8532,33536
8533,33472
8534,33472
8535,33472
8536,33536
8537,33600
8538,33664
8539,33664
8540,33600
8541,33600
8542,33600
8543,33664
8544,33600
8545,33600
8546,33600
8547,33664
8548,33664
8549,33600
8550,33536
8551,33664
8552,33792
8553,33792
8554,33792
8555,33728
8556,33600
8557,33472
8558,33408
8559,33536
8560,33664
8561,33792
8562,33920
8563,33856
8564,33856
8565,33856
8566,33856
8567,33856
8568,33792
8569,33728
8570,33664
8571,33664
8572,33664
8573,33728
8574,33856
8575,33984
8576,33920
8577,33984
8578,34112
8579,34240
8580,34432
8581,34624
8582,34752
8583,34816
8584,34944
8585,34944
8586,34944
8587,35072
8588,35200
8589,35264
8590,35200
8591,35008
8592,34752
8593,34496
8594,34240
8595,33920
8596,33536
8597,33152
8598,32832
8599,32704
8600,32704
8601,32832
8602,33024
8603,33152
8604,33280
8605,33280
8606,33280
8607,33216
8608,33280
8609,33280
8610,33280
8611,33280
8612,33600
8613,34496
8614,35968
8615,37824
8616,40384
8617,43712
8618,46144
8619,47744
8620,46912
8621,43776
8622,39360
8623,35712
8624,32192
8625,29632
8626,28288
8627,27968
8628,28288
8629,29120
8630,29888
8631,30656
8632,31232
8633,31488
8634,31744
8635,32000
8636,32256
8637,32576
8638,32768
8639,32896
8640,32896
8641,33024
8642,33152
8643,33216
8644,33280
8645,33280
8646,33408
8647,33600
8648,33792
8649,33984
8650,34048
8651,34048
8652,33984
8653,33984
8654,34048
8655,34176
8656,34304
8657,34368
8658,34304
8659,34368
8660,34496
8661,34624
8662,34752
8663,34880
8664,35072
8665,35136
8666,35264
8667,35456
8668,35648
8669,35904
8670,36032
8671,36096
8672,36160
8673,36224
8674,36288
8675,36288
8676,36352
8677,36416
8678,36416
8679,36416
8680,36480
8681,36416
8682,36224
8683,36032
8684,35840
8685,35648
8686,35328
8687,34944
8688,34560
8689,34048
8690,33600
8691,33152
8692,32768
8693,32448
8694,32064
8695,31808
8696,31680
8697,31616
8698,31488
8699,31424
8700,31552
8701,31552
8702,31552
8703,31488
8704,31488
8705,31552
8706,31680
8707,31872
8708,32128
8709,32192
8710,32256
8711,32384
8712,32512
8713,32704
8714,32768
8715,32704
8716,32768
8717,32832
8718,32960
8719,33152
8720,33280
8721,33408
8722,33472
8723,33408
8724,33408
8725,33344
8726,33344
8727,33344
8728,33344
8729,33472
8730,33600
8731,33664
8732,33664
8733,33600
8734,33600
8735,33536
8736,33536
8737,33536
8738,33600
8739,33600
8740,33664
8741,33664
8742,33728
8743,33728
8744,33664
8745,33664
8746,33600
8747,33600
8748,33536
8749,33600
8750,33600
8751,33728
8752,33856
8753,33856
8754,33728
8755,33600
8756,33472
8757,33408
8758,33408
8759,33472
8760,33664
8761,33728
8762,33728
8763,33728
8764,33792
8765,33856
8766,33856
8767,33856
8768,33856
8769,33856
8770,33856
8771,33856
8772,33856
8773,33856
8774,33856
8775,33792
8776,33792
8777,33920
8778,34048
8779,34176
8780,34304
8781,34368
8782,34496
8783,34688
8784,34816
8785,34880
8786,35072
8787,35200
8788,35264
8789,35264
8790,35264
8791,35264
8792,35072
8793,34752
8794,34368
8795,33920
8796,33600
8797,33216
8798,32960
8799,32768
8800,32704
8801,32768
8802,32832
8803,32896
8804,33024
8805,33216
8806,33280
8807,33280
8808,33216
8809,33216
8810,33280
8811,33216
8812,33344
8813,33856
8814,34944
8815,36480
8816,38720
8817,41472
8818,44480
8819,46784
8820,47296
8821,45248
8822,41792
8823,37888
8824,34240
8825,31168
8826,29184
8827,28288
8828,28160
8829,28608
8830,29248
8831,30080
8832,30720
8833,31232
8834,31616
8835,32000
8836,32256
8837,32384
8838,32512
8839,32704
8840,32896
8841,32960
8842,32960
8843,33024
8844,33152
8845,33216
8846,33280
8847,33408
8848,33536
8849,33728
8850,33984
8851,34048
8852,33984
8853,33920
8854,34048
8855,34176
8856,34240
8857,34368
8858,34368
8859,34368
8860,34368
8861,34432
8862,34560
8863,34752
8864,34944
8865,35072
8866,35328
8867,35456
8868,35520
8869,35584
8870,35712
8871,35840
8872,35968
8873,36032
8874,36224
8875,36352
8876,36416
8877,36288
8878,36288
8879,36288
8880,36352
8881,36224
8882,36096
8883,35968
8884,35776
8885,35520
8886,35200
8887,35008
8888,34752
8889,34432
8890,34112
8891,33664
8892,33216
8893,32832
8894,32512
8895,32128
8896,31872
8897,31552
8898,31360
8899,31360
8900,31424
8901,31488
8902,31488
8903,31488
8904,31616
8905,31680
8906,31680
8907,31680
8908,31872
8909,32128
8910,32320
8911,32448
8912,32512
8913,32576
8914,32576
8915,32576
8916,32704
8917,32768
8918,32832
8919,32896
8920,33024
8921,33216
8922,33344
8923,33472
8924,33536
8925,33536
8926,33600
8927,33664
8928,33728
8929,33728
8930,33664
8931,33728
8932,33728
8933,33728
8934,33728
8935,33536
8936,33344
8937,33344
8938,33344
8939,33408
8940,33408
8941,33408
8942,33472
8943,33472
8944,33536
8945,33600
8946,33728
8947,33792
8948,33792
8949,33728
8950,33664
8951,33600
8952,33664
8953,33728
8954,33792
8955,33856
8956,33792
8957,33728
8958,33664
8959,33600
8960,33664
8961,33600
8962,33536
8963,33472
8964,33472
8965,33536
8966,33664
8967,33792
8968,33792
8969,33792
8970,33856
8971,33856
8972,33920
8973,33920
8974,33856
8975,33792
8976,33792
8977,33920
8978,34048
8979,34112
8980,34176
8981,34304
8982,34560
8983,34688
8984,34688
8985,34624
8986,34752
8987,34880
8988,35008
8989,35072
8990,35008
8991,35008
8992,34944
8993,34752
8994,34496
8995,34240
8996,33920
8997,33600
8998,33280
8999,33024
9000,32960
9001,32896
9002,32832
9003,32832
9004,32960
9005,33152
9006,33216
9007,33216
9008,33280
9009,33344
9010,33344
9011,33216
9012,33216
9013,33600
9014,34560
9015,36032
9016,37952
9017,40384
9018,43328
9019,45952
9020,47232
9021,45952
9022,42816
9023,39104
9024,35264
9025,32064
9026,29696
9027,28352
9028,28032
9029,28352
9030,29056
9031,29888
9032,30656
9033,31232
9034,31680
9035,31936
9036,32128
9037,32192
9038,32384
9039,32640
9040,32832
9041,33024
9042,33216
9043,33216
9044,33280
9045,33152
9046,33024
9047,33088
9048,33216
9049,33344
9050,33536
9051,33664
9052,33792
9053,33984
9054,34112
9055,34304
9056,34432
9057,34496
9058,34496
9059,34432
9060,34432
9061,34432
9062,34496
9063,34624
9064,34816
9065,34944
9066,35136
9067,35264
9068,35456
9069,35584
9070,35712
9071,35840
9072,35968
9073,36096
9074,36288
9075,36480
9076,36608
9077,36480
9078,36352
9079,36288
9080,36160
9081,36032
9082,36096
9083,36096
9084,35968
9085,35840
9086,35648
9087,35392
9088,35072
9089,34688
9090,34240
9091,33792
9092,33280
9093,32896
9094,32448
9095,32128
9096,31872
9097,31744
9098,31616
9099,31488
9100,31360
9101,31360
9102,31488
9103,31616
9104,31680
9105,31744
9106,31872
9107,32064
9108,32256
9109,32320
9110,32320
9111,32320
9112,32320
9113,32384
9114,32448
9115,32576
9116,32704
9117,32896
9118,33024
9119,33152
9120,33152
9121,33088
9122,33216
9123,33344
9124,33536
9125,33728
9126,33792
9127,33792
9128,33664
9129,33536
9130,33472
9131,33536
9132,33664
9133,33728
9134,33728
9135,33664
9136,33600
9137,33536
9138,33536
9139,33536
9140,33472
9141,33472
9142,33472
9143,33536
9144,33600
9145,33728
9146,33856
9147,33856
9148,33792
9149,33664
9150,33600
9151,33472
9152,33472
9153,33408
9154,33472
9155,33600
9156,33728
9157,33792
9158,33792
9159,33728
9160,33664
9161,33792
9162,33920
9163,33920
9164,33728
9165,33600
9166,33664
9167,33728
9168,33792
9169,33856
9170,33920
9171,33920
9172,33984
9173,34048
9174,33984
9175,33856
9176,33792
9177,33728
9178,33728
9179,33728
9180,33792
9181,33920
9182,34112
9183,34368
9184,34624
9185,34688
9186,34752
9187,34816
9188,35008
9189,35200
9190,35328
9191,35392
9192,35456
9193,35520
9194,35456
9195,35072
9196,34688
9197,34240
9198,33792
9199,33344
9200,33024
9201,32832
9202,32768
9203,32704
9204,32640
9205,32704
9206,32768
9207,32896
9208,33024
9209,33152
9210,33216
9211,33280
9212,33280
9213,33216
9214,33472
9215,34112
9216,35200
9217,36800
9218,38976
9219,41728
9220,44672
9221,46912
9222,47168
9223,44992
9224,41408
9225,37632
9226,34240
9227,31424
9228,29504
9229,28608
9230,28352
9231,28672
9232,29248
9233,29952
9234,30784
9235,31360
9236,31872
9237,32192
9238,32448
9239,32640
9240,32768
9241,32832
9242,32896
9243,32896
9244,32896
9245,33088
9246,33344
9247,33536
9248,33600
9249,33664
9250,33664
9251,33664
9252,33664
9253,33664
9254,33792
9255,34048
9256,34176
9257,34112
9258,33984
9259,34048
9260,34112
9261,34176
9262,34240
9263,34368
9264,34496
9265,34624
9266,34816
9267,35008
9268,35136
9269,35264
9270,35392
9271,35584
9272,35712
9273,35840
9274,36032
9275,36160
9276,36352
9277,36416
9278,36416
9279,36480
9280,36544
9281,36544
9282,36544
9283,36544
9284,36480
9285,36352
9286,36160
9287,35968
9288,35584
9289,35072
9290,34496
9291,33984
9292,33536
9293,33152
9294,32832
9295,32640
9296,32448
9297,32448
9298,32384
9299,32192
9300,31872
9301,31552
9302,31360
9303,31424
9304,31552
9305,31616
9306,31680
9307,31808
9308,32000
9309,32064
9310,32000
9311,32064
9312,32448
9313,32768
9314,32704
9315,32576
9316,32640
9317,32704
9318,32832
9319,33024
9320,33152
9321,33408
9322,33600
9323,33600
9324,33408
9325,33280
9326,33216
9327,33152
9328,33216
9329,33344
9330,33472
9331,33344
9332,33152
9333,33152
9334,33408
9335,33728
9336,33856
9337,33792
9338,34304
9339,35520
9340,35968
9341,35840
9342,35520
9343,34880
9344,34176
9345,33664
9346,33024
9347,32320
9348,32064
9349,32256
9350,32576
9351,32960
9352,33216
9353,33344
9354,33344
9355,33472
9356,33600
9357,33536
9358,33792
9359,34752
9360,35520
9361,34816
9362,33728
9363,33152
9364,33088
9365,33216
9366,33728
9367,34112
9368,33920
9369,33472
9370,33216
9371,33152
9372,33280
9373,33664
9374,33728
9375,33344
9376,33088
9377,33216
9378,33344
9379,33536
9380,34688
9381,36672
9382,37312
9383,36416
9384,36032
9385,35968
9386,35072
9387,33792
9388,32896
9389,32704
9390,32896
9391,33280
9392,33536
9393,33664
9394,33856
9395,34176
9396,34432
9397,34432
9398,34112
9399,34240
9400,34944
9401,35328
9402,35520
9403,36096
9404,35456
9405,34112
9406,32832
9407,31616
9408,31104
9409,30912
9410,30848
9411,30912
9412,31232
9413,31552
9414,32064
9415,32960
9416,34688
9417,37248
9418,40064
9419,42944
9420,46208
9421,49024
9422,49536
9423,47808
9424,44544
9425,39296
9426,33088
9427,28224
9428,25664
9429,25088
9430,25536
9431,26496
9432,27456
9433,28480
9434,29440
9435,30144
9436,30784
9437,31488
9438,32000
9439,32448
9440,32768
9441,33216
9442,34176
9443,34880
9444,34432
9445,33856
9446,33536
9447,32896
9448,32000
9449,31680
9450,31936
9451,32320
9452,32512
9453,32832
9454,33088
9455,33344
9456,33344
9457,33472
9458,33664
9459,33792
9460,33792
9461,33984
9462,34176
9463,34560
9464,34816
9465,34880
9466,34688
9467,34624
9468,35008
9469,35264
9470,35520
9471,35584
9472,35328
9473,34944
9474,35072
9475,35520
9476,36032
9477,36160
9478,35904
9479,35776
9480,35712
9481,35776
9482,35904
9483,36160
9484,36416
9485,36544
9486,36672
9487,36480
9488,35776
9489,34816
9490,34368
9491,33920
9492,33664
9493,33408
9494,33024
9495,32640
9496,32320
9497,32128
9498,31680
9499,31232
9500,31040
9501,31360
9502,31872
9503,32192
9504,31808
9505,31296
9506,30848
9507,30976
9508,31296
9509,31552
9510,31808
9511,32000
9512,32192
9513,32256
9514,32256
9515,32320
9516,32448
9517,32512
9518,32640
9519,32832
9520,33024
9521,33088
9522,33024
9523,32832
9524,32640
9525,32640
9526,32960
9527,33152
9528,33536
9529,33728
9530,33728
9531,33664
9532,33728
9533,33920
9534,33792
9535,33408
9536,32896
9537,32320
9538,32000
9539,32064
9540,32128
9541,32832
9542,34240
9543,35392
9544,35712
9545,35520
9546,35072
9547,34816
9548,34624
9549,34112
9550,33664
9551,33280
9552,32960
9553,32768
9554,32768
9555,33024
9556,33088
9557,33280
9558,33536
9559,33856
9560,34048
9561,34176
9562,34560
9563,35008
9564,35392
9565,35648
9566,35648
9567,35584
9568,35264
9569,34944
9570,34880
9571,34688
9572,34240
9573,33664
9574,33152
9575,32896
9576,32896
9577,32960
9578,32832
9579,32896
9580,33088
9581,33088
9582,33088
9583,33088
9584,33024
9585,32896
9586,32896
9587,33280
9588,33472
9589,33216
9590,32960
9591,33344
9592,34368
9593,35968
9594,38400
9595,40064
9596,42560
9597,44992
9598,45952
9599,44544
9600,41728
9601,38528
9602,35392
9603,32512
9604,30464
9605,29376
9606,28736
9607,28608
9608,28864
9609,29632
9610,30272
9611,31104
9612,31616
9613,32064
9614,32320
9615,32448
9616,32576
9617,32832
9618,33408
9619,34368
9620,35584
9621,36224
9622,35328
9623,33600
9624,32256
9625,31680
9626,31616
9627,31936
9628,32384
9629,32576
9630,32640
9631,32832
9632,33344
9633,33920
9634,34304
9635,34432
9636,34496
9637,34560
9638,34624
9639,34688
9640,34880
9641,34944
9642,34944
9643,35072
9644,35136
9645,35200
9646,35200
9647,35200
9648,35328
9649,35712
9650,36032
9651,36224
9652,36352
9653,36416
9654,36544
9655,36544
9656,36544
9657,36480
9658,36480
9659,36352
9660,36224
9661,35968
9662,35712
9663,35520
9664,35328
9665,35008
9666,34624
9667,34304
9668,33920
9669,33408
9670,33088
9671,32768
9672,32448
9673,32192
9674,31936
9675,31744
9676,31616
9677,31488
9678,31488
9679,31616
9680,31872
9681,32064
9682,32128
9683,32192
9684,32384
9685,32448
9686,32512
9687,32576
9688,32640
9689,32704
9690,32704
9691,32704
9692,32768
9693,32832
9694,32896
9695,32960
9696,33088
9697,33152
9698,33216
9699,33408
9700,33536
9701,33664
9702,33728
9703,33728
9704,33664
9705,33728
9706,33664
9707,33728
9708,33728
9709,33792
9710,33792
9711,33792
9712,33792
9713,33728
9714,33664
9715,33664
9716,33728
9717,33856
9718,33856
9719,33792
9720,33792
9721,33856
9722,33920
9723,34112
9724,34112
9725,33984
9726,33792
9727,33664
9728,33664
9729,33792
9730,33792
9731,33856
9732,33920
9733,33920
9734,33856
9735,33728
9736,33664
9737,33664
9738,33856
9739,34048
9740,34304
9741,34496
9742,34560
9743,34688
9744,34880
9745,35072
9746,35328
9747,35456
9748,35392
9749,35200
9750,34944
9751,34688
9752,34432
9753,34112
9754,33792
9755,33472
9756,33216
9757,33024
9758,32960
9759,32960
9760,32960
9761,32960
9762,33088
9763,33216
9764,33216
9765,33280
9766,33344
9767,33280
9768,33280
9769,33216
9770,33152
9771,33344
9772,33920
9773,35072
9774,36928
9775,38656
9776,41216
9777,44032
9778,46400
9779,47104
9780,45248
9781,41920
9782,38208
9783,34688
9784,31616
9785,29504
9786,28416
9787,28160
9788,28480
9789,29120
9790,29888
9791,30656
9792,31424
9793,32000
9794,32320
9795,32576
9796,32832
9797,33024
9798,33152
9799,33280
9800,33344
9801,33408
9802,33344
9803,33408
9804,33728
9805,33792
9806,33664
9807,33536
9808,33536
9809,33664
9810,33920
9811,34176
9812,34304
9813,34368
9814,34368
9815,34368
9816,34432
9817,34560
9818,34752
9819,34752
9820,34752
9821,35072
9822,35264
9823,35520
9824,35648
9825,35776
9826,35840
9827,35904
9828,36096
9829,36224
9830,36352
9831,36416
9832,36480
9833,36544
9834,36480
9835,36480
9836,36608
9837,36672
9838,36608
9839,36544
9840,36480
9841,36416
9842,36224
9843,35968
9844,35584
9845,35200
9846,34816
9847,34432
9848,34048
9849,33664
9850,33280
9851,32896
9852,32320
9853,31872
9854,31552
9855,31360
9856,31232
9857,31232
9858,31232
9859,31424
9860,31552
9861,31680
9862,31808
9863,32128
9864,32064
9865,32384
9866,32448
9867,32448
9868,32448
9869,32512
9870,32640
9871,32704
9872,32768
9873,32896
9874,33088
9875,33152
9876,33152
9877,33152
9878,33152
9879,33088
9880,33152
9881,33216
9882,33280
9883,33408
9884,33472
9885,33536
9886,33600
9887,33664
9888,33664
9889,33664
9890,33792
9891,33920
9892,34048
9893,33920
9894,33792
9895,33792
9896,33728
9897,33728
9898,33728
9899,33664
9900,33664
9901,33664
9902,33664
9903,33664
9904,33728
9905,33792
9906,33792
9907,33792
9908,33920
9909,33856
9910,34112
9911,34176
9912,34304
9913,34432
9914,34496
9915,34624
9916,34752
9917,34944
9918,35072
9919,35264
9920,35456
9921,35648
9922,35584
9923,35136
9924,35072
9925,34560
9926,34176
9927,33792
9928,33472
9929,33280
9930,33216
9931,33024
9932,33024
9933,33152
9934,33344
9935,33280
9936,33152
9937,33088
9938,33152
9939,33088
9940,33152
9941,33216
9942,33216
9943,33088
9944,33024
9945,33216
9946,33920
9947,35200
9948,37120
9949,39616
9950,42624
9951,45568
9952,47488
9953,46912
9954,44160
9955,40512
9956,36928
9957,33408
9958,30912
9959,29120
9960,28288
9961,28224
9962,28608
9963,29248
9964,29952
9965,30592
9966,31168
9967,31680
9968,32256
9969,32256
9970,32704
9971,32896
9972,33088
9973,33216
9974,33408
9975,33472
9976,33408
9977,33344
9978,33408
9979,33536
9980,33664
9981,33728
9982,33728
9983,33920
9984,33856
9985,34048
9986,34112
9987,34176
9988,34240
9989,34304
9990,34368
9991,34496
9992,34624
9993,34752
9994,34944
9995,35072
9996,35200
9997,35328
9998,35392
9999,35520
10000,35648
10001,35776
10002,35904
10003,36032
10004,36224
10005,36352
10006,36416
10007,36480
10008,36608
10009,36800
10010,36864
10011,36736
10012,36544
10013,36416
10014,36352
10015,36224
10016,36096
10017,35904
10018,35584
10019,35200
10020,34816
10021,34304
10022,33792
10023,33344
10024,32896
10025,32512
10026,32192
10027,31936
10028,31808
10029,31616
10030,31424
10031,31296
10032,31232
10033,31168
10034,31296
10035,31424
10036,31552
10037,31744
10038,31872
10039,32000
10040,32192
10041,32320
10042,32448
10043,32384
10044,32320
10045,32384
10046,32448
10047,32576
10048,32704
10049,32832
10050,33024
10051,33152
10052,33216
10053,33216
10054,33344
10055,33408
10056,33472
10057,33472
10058,33408
10059,33344
10060,33408
10061,33536
10062,33664
10063,33664
10064,33664
10065,33728
10066,33728
10067,33792
10068,33728
10069,33664
10070,33600
10071,33600
10072,33536
10073,33472
10074,33408
10075,33472
10076,33472
10077,33536
10078,33536
10079,33600
10080,33728
10081,33920
10082,34048
10083,34176
10084,34240
10085,34368
10086,34496
10087,34496
10088,34624
10089,34560
10090,34816
10091,35008
10092,35136
10093,35200
10094,35136
10095,35008
10096,34752
10097,34368
10098,33984
10099,33664
10100,33280
10101,32960
10102,32768
10103,32704
10104,32832
10105,32960
10106,33024
10107,33024
10108,33024
10109,33024
10110,32960
10111,33024
10112,33088
10113,33152
10114,33088
10115,32960
10116,32896
10117,33088
10118,34368
10119,34496
10120,36992
10121,39488
10122,42368
10123,45312
10124,47168
10125,46400
10126,43456
10127,39872
10128,36416
10129,33344
10130,30784
10131,29056
10132,28288
10133,28224
10134,28608
10135,29184
10136,29952
10137,30720
10138,31424
10139,32000
10140,32320
10141,32448
10142,32576
10143,32704
10144,32832
10145,32960
10146,33088
10147,33216
10148,33344
10149,33472
10150,33536
10151,33600
10152,33664
10153,33792
10154,33920
10155,33920
10156,33920
10157,33920
10158,34048
10159,34112
10160,34112
10161,34176
10162,34368
10163,34624
10164,34688
10165,34688
10166,34688
10167,34752
10168,34816
10169,34944
10170,35136
10171,35264
10172,35392
10173,35584
10174,35712
10175,35904
10176,36096
10177,36160
10178,36224
10179,36224
10180,36224
10181,36224
10182,36224
10183,36224
10184,36224
10185,36224
10186,36096
10187,35968
10188,35904
10189,35712
10190,35456
10191,35136
10192,34688
10193,34240
10194,33792
10195,33408
10196,32960
10197,32576
10198,32256
10199,32000
10200,31808
10201,31680
10202,31552
10203,31424
10204,31424
10205,31488
10206,31552
10207,31616
10208,31616
10209,31680
10210,31744
10211,31936
10212,32128
10213,32256
10214,32384
10215,32512
10216,32640
10217,32704
10218,32640
10219,32704
10220,32832
10221,32960
10222,33024
10223,33088
10224,33152
10225,33152
10226,33152
10227,33152
10228,33152
10229,33280
10230,33408
10231,33472
10232,33472
10233,33600
10234,33664
10235,33600
10236,33600
10237,33664
10238,33664
10239,33728
10240,33728
10241,33920
10242,34240
10243,34368
10244,34368
10245,34176
10246,33920
10247,33856
10248,33792
10249,33856
10250,34048
10251,34304
10252,34496
10253,34688
10254,34816
10255,34944
10256,35008
10257,35008
10258,34816
10259,34560
10260,34112
10261,33600
10262,33216
10263,32960
10264,32832
10265,32768
10266,32704
10267,32704
10268,32768
10269,32832
10270,32896
10271,32960
10272,32960
10273,33024
10274,33024
10275,33024
10276,33024
10277,32896
10278,32896
10279,33216
10280,34048
10281,35328
10282,37056
10283,39360
10284,42176
10285,44864
10286,46528
10287,45888
10288,43136
10289,39808
10290,36416
10291,33280
10292,30720
10293,29056
10294,28288
10295,28288
10296,28672
10297,29312
10298,30080
10299,30784
10300,31424
10301,31872
10302,32256
10303,32448
10304,32576
10305,32768
10306,32832
10307,33024
10308,33024
10309,33024
10310,33088
10311,33152
10312,33280
10313,33408
10314,33536
10315,33600
10316,33792
10317,33984
10318,34048
10319,34112
10320,34176
10321,34240
10322,34368
10323,34432
10324,34496
10325,34496
10326,34560
10327,34624
10328,34816
10329,35008
10330,35136
10331,35200
10332,35328
10333,35456
10334,35584
10335,35712
10336,35904
10337,36032
10338,36160
10339,36288
10340,36352
10341,36352
10342,36352
10343,36288
10344,36288
10345,36288
10346,36160
10347,36032
10348,35840
10349,35712
10350,35584
10351,35392
10352,35136
10353,34816
10354,34496
10355,34048
10356,33536
10357,33088
10358,32768
10359,32384
10360,32064
10361,31808
10362,31552
10363,31424
10364,31424
10365,31488
10366,31488
10367,31552
10368,31616
10369,31680
10370,31808
10371,32064
10372,32256
10373,32384
10374,32512
10375,32512
10376,32512
10377,32640
10378,32704
10379,32704
10380,32640
10381,32704
10382,32768
10383,32896
10384,33024
10385,33152
10386,33216
10387,33280
10388,33344
10389,33408
10390,33472
10391,33536
10392,33600
10393,33600
10394,33600
10395,33664
10396,33792
10397,33792
10398,33792
10399,33856
10400,33984
10401,33984
10402,33984
10403,34112
10404,34240
10405,34240
10406,34240
10407,34304
10408,34496
10409,34624
10410,34688
10411,34880
10412,35072
10413,35200
10414,35200
10415,35136
10416,34880
10417,34560
10418,34176
10419,33664
10420,33280
10421,32960
10422,32768
10423,32768
10424,32832
10425,32896
10426,32896
10427,32896
10428,32896
10429,32896
10430,33088
10431,33152
10432,33088
10433,33024
10434,32896
10435,32768
10436,32704
10437,32896
10438,33664
10439,34752
10440,36480
10441,38784
10442,41664
10443,44608
10444,46784
10445,46784
10446,44416
10447,40896
10448,37248
10449,33920
10450,31168
10451,29248
10452,28352
10453,28160
10454,28544
10455,29248
10456,29952
10457,30592
10458,31104
10459,31552
10460,31936
10461,32320
10462,32512
10463,32704
10464,32832
10465,33024
10466,33152
10467,33280
10468,33344
10469,33408
10470,33472
10471,33536
10472,33600
10473,33664
10474,33728
10475,33856
10476,33984
10477,33984
10478,34048
10479,34176
10480,34304
10481,34432
10482,34432
10483,34432
10484,34496
10485,34624
10486,34752
10487,34880
10488,35008
10489,35136
10490,35264
10491,35456
10492,35648
10493,35776
10494,35904
10495,36032
10496,36160
10497,36288
10498,36288
10499,36288
10500,36352
10501,36416
10502,36480
10503,36480
10504,36416
10505,36288
10506,36096
10507,35840
10508,35648
10509,35328
10510,35008
10511,34688
10512,34368
10513,33984
10514,33536
10515,33088
10516,32704
10517,32320
10518,32064
10519,31872
10520,31744
10521,31744
10522,31680
10523,31552
10524,31488
10525,31424
10526,31488
10527,31552
10528,31744
10529,31872
10530,32064
10531,32192
10532,32256
10533,32320
10534,32448
10535,32640
10536,32768
10537,32960
10538,33024
10539,33088
10540,33152
10541,33216
10542,33280
10543,33280
10544,33280
10545,33216
10546,33216
10547,33280
10548,33344
10549,33472
10550,33536
10551,33536
10552,33472
10553,33536
10554,33600
10555,33664
10556,33728
10557,33792
10558,33792
10559,33792
10560,33792
10561,33728
10562,33664
10563,33664
10564,33792
10565,33920
10566,34048
10567,34112
10568,34176
10569,34304
10570,34368
10571,34368
10572,34432
10573,34560
10574,34816
10575,34944
10576,35008
10577,35008
10578,35008
10579,34944
10580,34880
10581,34624
10582,34240
10583,33856
10584,33472
10585,33152
10586,32896
10587,32768
10588,32704
10589,32704
10590,32704
10591,32832
10592,32960
10593,33088
10594,33152
10595,33216
10596,33344
10597,33344
10598,33280
10599,33088
10600,32896
10601,32896
10602,33344
10603,34432
10604,35840
10605,37760
10606,40256
10607,43136
10608,45824
10609,47104
10610,45888
10611,42752
10612,39104
10613,35520
10614,32256
10615,29952
10616,28608
10617,28224
10618,28480
10619,29056
10620,29760
10621,30400
10622,31040
10623,31488
10624,31808
10625,32064
10626,32320
10627,32512
10628,32640
10629,32768
10630,32896
10631,33024
10632,33088
10633,33216
10634,33408
10635,33472
10636,33536
10637,33600
10638,33728
10639,33856
10640,33984
10641,34112
10642,34176
10643,34112
10644,34112
10645,34240
10646,34432
10647,34432
10648,34496
10649,34624
10650,34816
10651,34880
10652,34944
10653,35008
10654,35136
10655,35264
10656,35392
10657,35584
10658,35776
10659,35968
10660,36096
10661,36160
10662,36288
10663,36416
10664,36544
10665,36608
10666,36672
10667,36672
10668,36544
10669,36416
10670,36224
10671,36096
10672,35904
10673,35776
10674,35648
10675,35392
10676,34880
10677,34304
10678,33728
10679,33280
10680,32896
10681,32448
10682,32128
10683,31808
10684,31680
10685,31552
10686,31360
10687,31296
10688,31296
10689,31296
10690,31424
10691,31488
10692,31680
10693,31872
10694,32000
10695,32128
10696,32256
10697,32384
10698,32384
10699,32512
10700,32640
10701,32768
10702,32832
10703,33024
10704,33152
10705,33088
10706,33024
10707,33024
10708,32960
10709,32960
10710,33088
10711,33216
10712,33280
10713,33344
10714,33344
10715,33408
10716,33536
10717,33600
10718,33664
10719,33728
10720,33792
10721,33792
10722,33792
10723,33728
10724,33600
10725,33536
10726,33536
10727,33600
10728,33600
10729,33600
10730,33536
10731,33472
10732,33472
10733,33600
10734,33664
10735,33664
10736,33664
10737,33664
10738,33664
10739,33664
10740,33664
10741,33728
10742,33792
10743,33792
10744,33792
10745,33920
10746,33984
10747,33984
10748,34048
10749,34112
10750,34304
10751,34432
10752,34560
10753,34560
10754,34560
10755,34560
10756,34752
10757,34944
10758,35072
10759,35072
10760,35008
10761,34944
10762,34752
10763,34496
10764,34176
10765,33920
10766,33728
10767,33472
10768,33216
10769,33024
10770,32896
10771,32832
10772,32896
10773,33024
10774,33088
10775,33152
10776,33280
10777,33408
10778,33472
10779,33536
10780,33472
10781,33408
10782,33280
10783,33280
10784,33664
10785,34560
10786,36096
10787,38144
10788,40768
10789,43712
10790,46272
10791,47360
10792,45760
10793,42496
10794,38720
10795,35200
10796,32192
10797,30016
10798,28736
10799,28288
10800,28480
10801,28992
10802,29696
10803,30464
10804,31104
10805,31552
10806,31872
10807,32064
10808,32192
10809,32384
10810,32512
10811,32704
10812,32896
10813,33088
10814,33152
10815,33280
10816,33344
10817,33344
10818,33472
10819,33536
10820,33728
10821,33856
10822,33856
10823,33856
10824,33920
10825,33984
10826,34048
10827,34176
10828,34304
10829,34432
10830,34560
10831,34624
10832,34816
10833,34880
10834,34944
10835,34944
10836,35136
10837,35264
10838,35392
10839,35520
10840,35712
10841,35840
10842,35968
10843,36160
10844,36288
10845,36416
10846,36480
10847,36480
10848,36480
10849,36480
10850,36480
10851,36416
10852,36288
10853,36224
10854,36096
10855,35840
10856,35520
10857,35200
10858,34816
10859,34368
10860,33984
10861,33600
10862,33216
10863,32768
10864,32384
10865,32000
10866,31680
10867,31488
10868,31360
10869,31360
10870,31360
10871,31360
10872,31424
10873,31552
10874,31744
10875,31808
10876,31872
10877,32000
10878,32128
10879,32256
10880,32320
10881,32448
10882,32640
10883,32832
10884,32896
10885,32896
10886,32896
10887,32960
10888,32960
10889,32960
10890,32960
10891,33088
10892,33216
10893,33344
10894,33472
10895,33472
10896,33408
10897,33408
10898,33472
10899,33472
10900,33472
10901,33536
10902,33664
10903,33792
10904,33920
10905,33984
10906,33856
10907,33728
10908,33600
10909,33536
10910,33536
10911,33536
10912,33536
10913,33600
10914,33600
10915,33600
10916,33536
10917,33536
10918,33600
10919,33664
10920,33728
10921,33792
10922,33792
10923,33792
10924,33856
