,ECG
0,33216
1,33280
2,33408
3,33472
4,33536
5,33600
6,33536
7,33472
8,33472
9,33408
10,33280
11,33280
12,33152
13,33088
14,33152
15,33344
16,33536
17,33664
18,33600
19,33664
20,33792
21,33920
22,33920
23,33920
24,33984
25,33984
26,33920
27,33920
28,34048
29,34240
30,34432
31,34496
32,34432
33,34304
34,34304
35,34368
36,34432
37,34624
38,34560
39,34624
40,34496
41,34304
42,34048
43,33856
44,33536
45,33344
46,33216
47,33088
48,33024
49,33088
50,33088
51,33024
52,33024
53,32960
54,32960
55,33024
56,33280
57,33408
58,33280
59,33280
60,33344
61,33600
62,33792
63,33792
64,33664
65,33472
66,33408
67,33536
68,33472
69,34176
70,37632
71,40256
72,41984
73,42112
74,40704
75,38016
76,35008
77,31488
78,31232
79,29760
80,29696
81,30144
82,30976
83,31040
84,32640
85,33280
86,33664
87,33920
88,34048
89,34048
90,34112
91,34112
92,34048
93,33984
94,33856
95,33856
96,33920
97,33920
98,33856
99,33920
100,33984
101,33984
102,33984
103,33984
104,33984
105,34112
106,34176
107,34240
108,34304
109,34368
110,34432
111,34496
112,34560
113,34624
114,34624
115,34688
116,34816
117,34944
118,35008
119,34944
120,34944
121,34944
122,34880
123,34816
124,34944
125,35072
126,35136
127,35264
128,35328
129,35328
130,35264
131,35136
132,35200
133,35328
134,35328
135,35264
136,35264
137,35392
138,35328
139,35392
140,35456
141,35520
142,35584
143,35520
144,35456
145,35328
146,35200
147,34944
148,34624
149,34112
150,33856
151,33664
152,33408
153,33280
154,33152
155,33088
156,33088
157,33024
158,33024
159,33024
160,33024
161,33088
162,33280
163,33472
164,33472
165,33408
166,33536
167,33600
168,33600
169,33536
170,33536
171,33664
172,33856
173,33856
174,33664
175,33600
176,33664
177,33600
178,33472
179,33472
180,33408
181,33280
182,33088
183,33024
184,33088
185,33088
186,33152
187,33152
188,33216
189,33344
190,33472
191,33536
192,33664
193,33664
194,33664
195,33664
196,33728
197,33664
198,33600
199,33408
200,33408
201,33344
202,33216
203,33152
204,33280
205,33408
206,33536
207,33600
208,33600
209,33600
210,33664
211,33728
212,33920
213,34048
214,34112
215,33984
216,33792
217,33664
218,33664
219,33664
220,33728
221,33920
222,34112
223,34240
224,34304
225,34496
226,34368
227,34112
228,33920
229,33920
230,34048
231,34240
232,34432
233,34688
234,34944
235,35008
236,34944
237,34752
238,34432
239,34112
240,33856
241,33600
242,33408
243,33280
244,33216
245,33152
246,33088
247,32960
248,32832
249,32896
250,32960
251,32960
252,32960
253,33152
254,33344
255,33408
256,33408
257,33472
258,33536
259,33664
260,33664
261,33664
262,33728
263,33856
264,34176
265,35072
266,36992
267,39552
268,41344
269,41408
270,40064
271,37568
272,34816
273,32448
274,30848
275,29888
276,29632
277,29888
278,30464
279,31360
280,32192
281,32832
282,33408
283,33920
284,34176
285,34304
286,34304
287,34304
288,34304
289,34304
290,34240
291,34240
292,34368
293,34432
294,34432
295,34432
296,34496
297,34496
298,34432
299,34368
300,34368
301,34368
302,34304
303,34240
304,34432
305,34688
306,34752
307,34688
308,34752
309,34880
310,34816
311,34816
312,34944
313,35008
314,35008
315,34944
316,35008
317,35136
318,35392
319,35520
320,35648
321,35648
322,35584
323,35520
324,35520
325,35584
326,35648
327,35584
328,35520
329,35520
330,35776
331,35968
332,35840
333,35648
334,35520
335,35520
336,35584
337,35904
338,36352
339,36416
340,36160
341,35648
342,35136
343,34688
344,34432
345,34368
346,34240
347,33984
348,33728
349,33536
350,33536
351,33536
352,33536
353,33600
354,33600
355,33600
356,33664
357,33728
358,33792
359,33792
360,33728
361,33472
362,33408
363,33344
364,33408
365,33472
366,33536
367,33728
368,33792
369,33856
370,33920
371,33984
372,34048
373,34048
374,34048
375,34048
376,34176
377,34240
378,34176
379,34048
380,34048
381,34048
382,33984
383,33856
384,33856
385,33856
386,33920
387,33984
388,33920
389,33856
390,33792
391,33792
392,33856
393,33984
394,34048
395,34048
396,34112
397,34112
398,34176
399,34304
400,34368
401,34304
402,34240
403,34240
404,34304
405,34304
406,34240
407,34176
408,34176
409,34240
410,34368
411,34560
412,34816
413,35008
414,35072
415,34944
416,34880
417,34816
418,34880
419,34944
420,35072
421,35392
422,35456
423,35328
424,35136
425,34944
426,34752
427,34560
428,34304
429,33984
430,33856
431,33728
432,33920
433,34112
434,34048
435,33920
436,33984
437,34112
438,34240
439,34112
440,34176
441,34304
442,34176
443,34112
444,34176
445,34240
446,34304
447,34368
448,34368
449,34368
450,34560
451,34944
452,35456
453,36608
454,38528
455,41216
456,43136
457,43520
458,42112
459,39232
460,35776
461,32768
462,30784
463,29824
464,29568
465,29888
466,30592
467,31360
468,32256
469,32896
470,33408
471,33920
472,34240
473,34368
474,34432
475,34560
476,34560
477,34368
478,34304
479,34496
480,34432
481,34304
482,34368
483,34432
484,34496
485,34432
486,34240
487,34240
488,34368
489,34368
490,34304
491,34432
492,34560
493,34496
494,34496
495,34624
496,34752
497,34880
498,34880
499,34816
500,34816
501,34752
502,34688
503,34624
504,34816
505,35008
506,34880
507,34688
508,34688
509,34880
510,35008
511,35008
512,34944
513,34752
514,34624
515,34432
516,34368
517,34432
518,34624
519,34816
520,34944
521,35008
522,35072
523,35072
524,35072
525,35072
526,35072
527,34944
528,34752
529,34496
530,34176
531,33920
532,33664
533,33344
534,33024
535,32832
536,32704
537,32576
538,32448
539,32256
540,32128
541,32000
542,31872
543,31808
544,31872
545,32128
546,32320
547,32512
548,32640
549,32704
550,32704
551,32768
552,32768
553,32768
554,32768
555,32832
556,32832
557,32768
558,32768
559,32768
560,32704
561,32704
562,32768
563,32832
564,32832
565,32704
566,32576
567,32512
568,32448
569,32448
570,32384
571,32384
572,32320
573,32320
574,32384
575,32512
576,32512
577,32448
578,32384
579,32384
580,32320
581,32064
582,31808
583,31680
584,31552
585,31488
586,31488
587,31488
588,31552
589,31680
590,31744
591,31744
592,31808
593,31872
594,31936
595,32000
596,32000
597,32192
598,32320
599,32448
600,32576
601,32640
602,32576
603,32640
604,32704
605,32768
606,32832
607,32896
608,32896
609,32768
610,32512
611,32256
612,32064
613,31872
614,31616
615,31424
616,31360
617,31552
618,31616
619,31488
620,31424
621,31424
622,31488
623,31552
624,31680
625,31808
626,31936
627,32128
628,32256
629,32320
630,32512
631,32704
632,32768
633,32704
634,32640
635,32704
636,33024
637,33920
638,35712
639,38080
640,40448
641,41472
642,40896
643,38656
644,35392
645,32320
646,30144
647,28864
648,28480
649,28672
650,29376
651,30400
652,31360
653,32192
654,32640
655,33024
656,33216
657,33408
658,33600
659,33600
660,33472
661,33344
662,33280
663,33408
664,33472
665,33472
666,33472
667,33472
668,33728
669,33856
670,33920
671,34048
672,34112
673,34112
674,34176
675,34240
676,34304
677,34368
678,34496
679,34624
680,34688
681,34688
682,34752
683,34880
684,35008
685,35136
686,35136
687,35072
688,35136
689,35136
690,35136
691,35072
692,35136
693,35200
694,35200
695,35328
696,35456
697,35584
698,35648
699,35648
700,35712
701,35840
702,35904
703,35904
704,35840
705,35904
706,35904
707,35904
708,35968
709,36032
710,36032
711,35968
712,35904
713,35712
714,35584
715,35328
716,34944
717,34624
718,34368
719,34112
720,33920
721,33792
722,33664
723,33472
724,33536
725,33536
726,33472
727,33408
728,33408
729,33472
730,33600
731,33728
732,33728
733,33792
734,33792
735,33856
736,33920
737,33984
738,34112
739,34176
740,34112
741,34048
742,34112
743,34240
744,34304
745,34304
746,34304
747,34240
748,34176
749,34176
750,34176
751,34240
752,34176
753,34112
754,33984
755,33984
756,33920
757,33856
758,33920
759,34048
760,34048
761,34048
762,34112
763,34112
764,34176
765,34176
766,34112
767,34176
768,34176
769,34112
770,34176
771,34240
772,34304
773,34368
774,34304
775,34304
776,34432
777,34560
778,34752
779,34880
780,34880
781,34880
782,34944
783,35072
784,35136
785,35200
786,35264
787,35392
788,35584
789,35712
790,35712
791,35648
792,35456
793,35136
794,34816
795,34624
796,34624
797,34496
798,34304
799,34112
800,34112
801,34112
802,34112
803,34112
804,34240
805,34368
806,34432
807,34432
808,34432
809,34432
810,34496
811,34496
812,34560
813,34624
814,34688
815,34624
816,34688
817,34880
818,35136
819,35456
820,36096
821,37440
822,39680
823,42432
824,44160
825,44224
826,42560
827,39424
828,35968
829,33600
830,31872
831,30976
832,30848
833,31360
834,32320
835,33344
836,34176
837,34880
838,35456
839,35840
840,36032
841,36096
842,36160
843,36096
844,36096
845,36032
846,35904
847,35776
848,35648
849,35648
850,35712
851,35840
852,35904
853,35840
854,35840
855,35968
856,36032
857,36160
858,36224
859,36160
860,36032
861,35904
862,35968
863,36032
864,36032
865,36032
866,36096
867,36288
868,36480
869,36544
870,36544
871,36480
872,36416
873,36416
874,36416
875,36544
876,36672
877,36736
878,36800
879,36800
880,36800
881,36800
882,36800
883,36864
884,36992
885,36928
886,36864
887,36800
888,36736
889,36672
890,36736
891,36736
892,36800
893,36800
894,36608
895,36480
896,36352
897,36160
898,35904
899,35648
900,35328
901,35072
902,34816
903,34624
904,34432
905,34240
906,34048
907,33920
908,33856
909,33856
910,33856
911,33856
912,33920
913,34112
914,34176
915,34112
916,34048
917,34112
918,34112
919,33984
920,33984
921,34112
922,34176
923,34176
924,34048
925,34048
926,34112
927,34176
928,34112
929,34112
930,34176
931,34176
932,34112
933,34048
934,34112
935,34176
936,34240
937,34176
938,34176
939,34112
940,34048
941,34112
942,34176
943,34304
944,34240
945,34176
946,34048
947,34048
948,34048
949,34048
950,34176
951,34368
952,34368
953,34304
954,34240
955,34176
956,34112
957,34048
958,34112
959,34368
960,34560
961,34688
962,34816
963,34944
964,35008
965,35008
966,35136
967,35328
968,35456
969,35520
970,35520
971,35520
972,35392
973,35200
974,34880
975,34688
976,34560
977,34432
978,34368
979,34240
980,34176
981,34048
982,33856
983,33856
984,33856
985,33856
986,33856
987,33920
988,33920
989,33984
990,34048
991,34112
992,34176
993,34176
994,34176
995,34240
996,34368
997,34432
998,34432
999,34560
1000,34816
1001,35264
1002,36096
1003,37760
1004,40192
1005,42240
1006,42752
1007,41792
1008,39424
1009,36352
1010,33600
1011,31616
1012,30528
1013,30272
1014,30592
1015,31296
1016,32192
1017,33152
1018,33920
1019,34368
1020,34624
1021,34816
1022,34944
1023,35008
1024,35008
1025,35072
1026,35072
1027,35008
1028,34880
1029,34816
1030,34816
1031,34816
1032,34816
1033,34880
1034,34944
1035,35008
1036,35072
1037,35136
1038,35136
1039,35200
1040,35200
1041,35200
1042,35264
1043,35392
1044,35456
1045,35456
1046,35584
1047,35584
1048,35520
1049,35520
1050,35584
1051,35712
1052,35712
1053,35712
1054,35712
1055,35712
1056,35776
1057,35904
1058,35968
1059,36032
1060,36096
1061,36096
1062,36096
1063,36096
1064,36032
1065,35904
1066,35840
1067,35840
1068,35840
1069,35840
1070,35904
1071,35968
1072,36032
1073,36096
1074,36096
1075,36096
1076,36032
1077,35776
1078,35392
1079,35136
1080,34880
1081,34688
1082,34432
1083,34240
1084,34176
1085,34048
1086,33984
1087,33920
1088,33792
1089,33664
1090,33472
1091,33408
1092,33472
1093,33600
1094,33728
1095,33856
1096,33984
1097,34048
1098,34048
1099,34048
1100,34048
1101,34048
1102,34048
1103,34112
1104,34240
1105,34432
1106,34496
1107,34496
1108,34432
1109,34368
1110,34368
1111,34432
1112,34368
1113,34240
1114,34176
1115,34048
1116,33984
1117,33984
1118,34048
1119,34048
1120,34048
1121,34112
1122,34176
1123,34240
1124,34240
1125,34304
1126,34368
1127,34304
1128,34240
1129,34176
1130,34112
1131,33984
1132,33984
1133,34112
1134,34112
1135,34112
1136,34112
1137,34240
1138,34432
1139,34432
1140,34432
1141,34496
1142,34688
1143,34880
1144,35008
1145,35008
1146,35072
1147,35136
1148,35264
1149,35456
1150,35520
1151,35392
1152,35008
1153,34752
1154,34496
1155,34304
1156,34112
1157,33856
1158,33728
1159,33600
1160,33664
1161,33664
1162,33664
1163,33664
1164,33664
1165,33728
1166,33856
1167,33920
1168,33984
1169,33984
1170,33984
1171,34048
1172,34112
1173,34112
1174,34048
1175,33984
1176,33984
1177,33984
1178,33984
1179,34048
1180,34304
1181,35264
1182,37120
1183,39680
1184,41984
1185,42816
1186,42176
1187,39872
1188,36672
1189,33728
1190,31616
1191,30464
1192,30080
1193,30400
1194,31040
1195,31936
1196,32768
1197,33536
1198,34112
1199,34560
1200,34816
1201,35072
1202,35136
1203,35136
1204,35072
1205,35008
1206,34880
1207,34752
1208,34688
1209,34560
1210,34560
1211,34496
1212,34496
1213,34496
1214,34560
1215,34624
1216,34624
1217,34624
1218,34624
1219,34624
1220,34688
1221,34816
1222,35008
1223,35136
1224,35136
1225,35136
1226,35136
1227,34944
1228,34752
1229,34816
1230,34944
1231,34944
1232,34880
1233,34944
1234,35072
1235,35200
1236,35328
1237,35392
1238,35456
1239,35392
1240,35392
1241,35392
1242,35392
1243,35456
1244,35520
1245,35520
1246,35584
1247,35584
1248,35520
1249,35456
1250,35456
1251,35648
1252,35776
1253,35776
1254,35712
1255,35648
1256,35392
1257,35136
1258,34816
1259,34560
1260,34304
1261,34112
1262,33920
1263,33664
1264,33408
1265,33152
1266,33024
1267,33024
1268,33024
1269,33024
1270,33024
1271,33024
1272,33216
1273,33280
1274,33344
1275,33344
1276,33472
1277,33472
1278,33408
1279,33408
1280,33408
1281,33536
1282,33600
1283,33600
1284,33536
1285,33664
1286,33728
1287,33856
1288,34048
1289,34176
1290,34176
1291,34112
1292,34112
1293,34112
1294,34112
1295,34112
1296,34240
1297,34240
1298,34176
1299,33984
1300,33856
1301,33856
1302,33856
1303,33856
1304,33856
1305,33920
1306,33984
1307,34048
1308,34112
1309,34176
1310,34112
1311,34048
1312,34112
1313,34112
1314,34048
1315,34048
1316,34112
1317,34304
1318,34368
1319,34304
1320,34304
1321,34432
1322,34560
1323,34688
1324,34816
1325,34944
1326,35008
1327,35072
1328,35136
1329,35136
1330,35072
1331,34880
1332,34560
1333,34176
1334,33792
1335,33536
1336,33344
1337,33216
1338,33152
1339,33088
1340,33152
1341,33152
1342,33152
1343,33024
1344,33024
1345,33024
1346,33088
1347,33216
1348,33344
1349,33408
1350,33344
1351,33216
1352,33088
1353,32960
1354,32896
1355,32960
1356,32960
1357,32960
1358,32960
1359,33088
1360,33664
1361,35136
1362,37376
1363,39488
1364,40128
1365,39360
1366,37184
1367,34176
1368,31232
1369,28992
1370,27584
1371,27008
1372,27072
1373,27648
1374,28480
1375,29440
1376,30336
1377,31040
1378,31552
1379,32000
1380,32384
1381,32576
1382,32640
1383,32640
1384,32704
1385,32704
1386,32640
1387,32704
1388,32768
1389,32832
1390,32896
1391,32896
1392,32896
1393,32960
1394,33088
1395,33088
1396,33216
1397,33344
1398,33408
1399,33408
1400,33472
1401,33536
1402,33600
1403,33728
1404,33920
1405,34112
1406,34240
1407,34240
1408,34176
1409,34112
1410,34176
1411,34176
1412,34176
1413,34176
1414,34176
1415,34176
1416,34176
1417,34240
1418,34304
1419,34368
1420,34304
1421,34368
1422,34368
1423,34432
1424,34496
1425,34560
1426,34624
1427,34624
1428,34560
1429,34496
1430,34496
1431,34624
1432,34624
1433,34560
1434,34496
1435,34432
1436,34240
1437,34048
1438,33856
1439,33664
1440,33408
1441,33152
1442,32960
1443,32832
1444,32768
1445,32640
1446,32576
1447,32640
1448,32704
1449,32768
1450,32768
1451,32640
1452,32576
1453,32576
1454,32640
1455,32768
1456,32832
1457,32832
1458,32896
1459,32896
1460,33024
1461,33088
1462,33024
1463,32960
1464,32896
1465,32896
1466,32960
1467,32960
1468,32896
1469,32896
1470,32896
1471,32960
1472,32960
1473,32896
1474,32832
1475,32768
1476,32768
1477,32832
1478,32768
1479,32832
1480,32960
1481,33024
1482,33088
1483,33152
1484,33216
1485,33216
1486,33216
1487,33216
1488,33408
1489,33472
1490,33536
1491,33536
1492,33536
1493,33664
1494,33664
1495,33664
1496,33728
1497,33792
1498,33920
1499,34048
1500,34176
1501,34368
1502,34432
1503,34496
1504,34496
1505,34560
1506,34560
1507,34560
1508,34624
1509,34624
1510,34624
1511,34496
1512,34304
1513,34176
1514,33984
1515,33856
1516,33792
1517,33664
1518,33536
1519,33408
1520,33216
1521,33152
1522,32960
1523,32832
1524,32704
1525,32704
1526,32704
1527,32704
1528,32768
1529,32960
1530,32960
1531,33024
1532,33088
1533,33088
1534,33088
1535,33024
1536,33024
1537,33152
1538,33280
1539,33472
1540,33728
1541,34368
1542,35904
1543,38336
1544,40960
1545,42304
1546,41984
1547,39872
1548,35712
1549,32896
1550,30464
1551,29120
1552,28608
1553,28736
1554,29312
1555,30272
1556,31168
1557,31744
1558,32128
1559,32448
1560,32640
1561,32768
1562,32960
1563,33088
1564,33088
1565,33024
1566,33024
1567,33024
1568,33024
1569,33024
1570,32960
1571,32896
1572,32896
1573,32960
1574,32896
1575,32896
1576,32896
1577,32896
1578,32832
1579,32896
1580,33024
1581,33152
1582,33216
1583,33344
1584,33472
1585,33536
1586,33472
1587,33408
1588,33472
1589,33600
1590,33728
1591,33792
1592,33920
1593,33984
1594,33920
1595,33920
1596,33920
1597,34048
1598,34176
1599,34176
1600,34112
1601,34112
1602,34240
1603,34240
1604,34176
1605,34176
1606,34176
1607,34112
1608,34112
1609,34048
1610,33984
1611,33984
1612,33920
1613,33984
1614,33984
1615,33856
1616,33728
1617,33536
1618,33344
1619,33216
1620,33024
1621,32896
1622,32576
1623,32320
1624,32128
1625,31936
1626,31808
1627,31744
1628,31616
1629,31616
1630,31616
1631,31552
1632,31488
1633,31488
1634,31616
1635,31680
1636,31744
1637,31808
1638,31936
1639,32064
1640,32192
1641,32256
1642,32384
1643,32384
1644,32320
1645,32320
1646,32384
1647,32448
1648,32384
1649,32320
1650,32256
1651,32256
1652,32192
1653,32192
1654,32128
1655,32128
1656,32128
1657,32128
1658,32128
1659,32192
1660,32192
1661,32128
1662,32064
1663,32064
1664,32128
1665,32128
1666,32192
1667,32256
1668,32320
1669,32384
1670,32384
1671,32512
1672,32640
1673,32704
1674,32768
1675,32768
1676,32832
1677,32768
1678,32768
1679,32832
1680,32896
1681,32960
1682,33088
1683,33216
1684,33536
1685,33792
1686,33856
1687,33728
1688,33792
1689,33856
1690,33920
1691,33920
1692,33984
1693,34048
1694,33984
1695,33856
1696,33600
1697,33472
1698,33280
1699,33152
1700,33024
1701,32896
1702,32832
1703,32768
1704,32704
1705,32768
1706,32704
1707,32640
1708,32576
1709,32640
1710,32704
1711,32768
1712,32768
1713,32896
1714,33024
1715,32960
1716,32896
1717,32896
1718,32960
1719,33088
1720,33088
1721,33152
1722,33472
1723,33920
1724,34560
1725,35840
1726,37888
1727,40448
1728,41984
1729,41792
1730,40256
1731,37248
1732,33856
1733,31040
1734,29440
1735,28864
1736,29056
1737,29760
1738,30656
1739,31680
1740,32576
1741,33216
1742,33664
1743,33856
1744,33984
1745,33984
1746,33984
1747,33984
1748,33920
1749,33856
1750,33728
1751,33728
1752,33728
1753,33792
1754,33792
1755,33792
1756,33856
1757,33920
1758,33984
1759,33984
1760,33920
1761,33920
1762,33984
1763,34176
1764,34304
1765,34240
1766,34240
1767,34368
1768,34368
1769,34304
1770,34304
1771,34304
1772,34432
1773,34432
1774,34432
1775,34496
1776,34688
1777,34816
1778,34944
1779,34880
1780,34880
1781,34816
1782,34752
1783,34816
1784,35008
1785,35136
1786,35136
1787,35008
1788,34880
1789,34816
1790,34752
1791,34752
1792,34752
1793,34816
1794,34880
1795,34944
1796,35072
1797,35008
1798,34816
1799,34624
1800,34496
1801,34304
1802,34112
1803,34048
1804,33792
1805,33664
1806,33472
1807,33344
1808,33344
1809,33344
1810,33152
1811,32832
1812,32704
1813,32640
1814,32640
1815,32704
1816,32896
1817,33088
1818,33088
1819,33088
1820,33408
1821,33600
1822,33664
1823,33664
1824,33728
1825,33856
1826,33856
1827,33792
1828,33600
1829,33600
1830,33664
1831,33792
1832,33792
1833,33792
1834,33728
1835,33600
1836,33536
1837,33536
1838,33472
1839,33472
1840,33472
1841,33472
1842,33600
1843,33728
1844,33728
1845,33792
1846,33856
1847,33792
1848,33728
1849,33792
1850,33856
1851,33920
1852,33920
1853,33984
1854,33984
1855,33792
1856,33664
1857,33664
1858,33792
1859,33920
1860,33984
1861,33920
1862,33920
1863,33856
1864,34048
1865,33984
1866,34048
1867,34048
1868,34112
1869,34048
1870,34112
1871,34176
1872,34176
1873,34176
1874,34240
1875,34304
1876,34304
1877,34432
1878,34368
1879,34432
1880,34624
1881,34688
1882,34752
1883,34688
1884,35072
1885,35136
1886,35136
1887,35200
1888,35200
1889,35072
1890,34944
1891,34880
1892,34688
1893,34368
1894,34112
1895,33856
1896,33600
1897,33344
1898,33216
1899,33152
1900,33152
1901,33152
1902,33216
1903,33280
1904,33472
1905,33600
1906,33664
1907,33856
1908,33856
1909,33920
1910,33920
1911,33728
1912,33600
1913,33536
1914,33536
1915,33536
1916,33728
1917,34048
1918,34560
1919,35584
1920,37440
1921,40064
1922,42560
1923,42560
1924,41664
1925,38976
1926,35584
1927,32512
1928,30464
1929,30336
1930,29568
1931,29952
1932,30784
1933,31680
1934,32512
1935,33280
1936,33728
1937,34176
1938,34176
1939,34240
1940,34368
1941,34368
1942,34432
1943,34240
1944,34048
1945,33984
1946,34112
1947,34176
1948,34240
1949,34304
1950,34368
1951,34432
1952,34432
1953,34560
1954,34560
1955,34560
1956,34624
1957,34688
1958,34688
1959,34752
1960,34816
1961,34944
1962,35072
1963,35072
1964,35008
1965,34944
1966,34880
1967,34944
1968,34880
1969,34944
1970,35072
1971,35200
1972,35328
1973,35328
1974,35456
1975,35456
1976,35392
1977,35200
1978,35136
1979,35200
1980,35264
1981,35264
1982,35328
1983,35264
1984,35520
1985,35520
1986,35392
1987,35456
1988,35456
1989,35456
1990,35392
1991,35392
1992,35392
1993,35392
1994,35456
1995,35392
1996,35136
1997,34880
1998,34560
1999,34368
2000,34112
2001,33856
2002,33536
2003,33408
2004,33408
2005,33472
2006,33472
2007,33536
2008,33600
2009,33664
2010,33664
2011,33728
2012,33792
2013,33728
2014,33856
2015,33856
2016,33792
2017,33792
2018,33728
2019,33664
2020,33664
2021,33792
2022,33984
2023,34112
2024,34112
2025,34048
2026,33920
2027,33792
2028,33728
2029,33856
2030,33920
2031,33920
2032,33856
2033,33792
2034,33792
2035,33792
2036,33792
2037,33792
2038,33856
2039,33792
2040,33728
2041,33728
2042,33728
2043,33728
2044,33728
2045,33792
2046,33856
2047,33856
2048,33792
2049,33792
2050,33792
2051,33856
2052,33856
2053,33984
2054,33920
2055,33792
2056,33600
2057,33472
2058,33472
2059,33536
2060,33600
2061,33664
2062,33664
2063,33664
2064,33792
2065,33920
2066,34112
2067,34304
2068,34432
2069,34368
2070,34176
2071,34048
2072,33920
2073,33856
2074,33856
2075,33920
2076,34112
2077,34304
2078,34560
2079,34752
2080,34944
2081,34944
2082,35008
2083,35008
2084,35072
2085,35072
2086,35136
2087,35200
2088,35136
2089,35008
2090,34752
2091,34624
2092,34432
2093,34240
2094,34048
2095,33792
2096,33664
2097,33600
2098,33536
2099,33472
2100,33344
2101,33280
2102,33216
2103,33280
2104,33344
2105,33472
2106,33536
2107,33536
2108,33728
2109,33792
2110,33856
2111,33792
2112,33792
2113,33664
2114,33536
2115,33408
2116,33600
2117,34432
2118,34560
2119,36928
2120,39552
2121,41792
2122,42432
2123,41536
2124,39040
2125,35840
2126,33024
2127,31040
2128,29952
2129,29696
2130,30144
2131,30848
2132,32128
2133,32192
2134,33280
2135,33728
2136,34048
2137,34240
2138,34368
2139,34432
2140,34432
2141,34432
2142,34368
2143,34304
2144,34176
2145,34112
2146,34176
2147,34240
2148,34176
2149,34240
2150,34304
2151,34368
2152,34432
2153,34432
2154,34560
2155,34624
2156,34688
2157,34688
2158,34752
2159,34816
2160,34816
2161,34816
2162,34816
2163,34752
2164,34752
2165,34688
2166,34752
2167,34880
2168,34880
2169,34944
2170,34944
2171,35008
2172,35008
2173,34944
2174,35008
2175,35072
2176,35136
2177,35136
2178,35136
2179,35136
2180,35136
2181,35136
2182,35072
2183,35136
2184,35072
2185,35072
2186,35072
2187,35072
2188,35072
2189,35072
2190,35072
2191,35072
2192,35008
2193,34944
2194,34816
2195,34688
2196,34560
2197,34368
2198,34176
2199,33984
2200,33856
2201,33728
2202,33536
2203,33472
2204,33408
2205,33344
2206,33280
2207,33280
2208,33408
2209,33472
2210,33408
2211,33280
2212,33216
2213,33216
2214,33280
2215,33344
2216,33408
2217,33472
2218,33472
2219,33472
2220,33472
2221,33600
2222,33664
2223,33664
2224,33728
2225,33792
2226,33792
2227,33792
2228,33728
2229,33728
2230,33664
2231,33600
2232,33536
2233,33536
2234,33600
2235,33664
2236,33728
2237,33664
2238,33664
2239,33600
2240,33536
2241,33536
2242,33664
2243,33664
2244,33664
2245,33600
2246,33536
2247,33536
2248,33536
2249,33600
2250,33728
2251,33792
2252,33792
2253,33792
2254,33792
2255,33792
2256,33728
2257,33728
2258,33728
2259,33792
2260,33856
2261,33856
2262,33984
2263,34048
2264,34048
2265,33920
2266,33856
2267,33856
2268,33792
2269,33728
2270,33728
2271,33856
2272,33920
2273,34048
2274,34112
2275,34304
2276,34496
2277,34624
2278,34624
2279,34688
2280,34752
2281,34816
2282,34880
2283,35008
2284,35072
2285,35008
2286,34816
2287,34624
2288,34432
2289,34240
2290,34112
2291,33920
2292,33792
2293,33600
2294,33408
2295,33280
2296,33280
2297,33216
2298,33216
2299,33216
2300,33216
2301,33152
2302,33088
2303,33088
2304,33152
2305,33280
2306,33280
2307,33344
2308,33408
2309,33472
2310,33536
2311,33536
2312,33472
2313,33536
2314,33728
2315,34368
2316,35840
2317,38208
2318,40768
2319,41984
2320,41728
2321,40064
2322,37248
2323,34368
2324,32000
2325,30400
2326,29632
2327,29568
2328,30016
2329,30720
2330,31616
2331,32384
2332,33024
2333,33600
2334,33920
2335,34112
2336,34240
2337,34240
2338,34304
2339,34240
2340,34240
2341,34176
2342,34176
2343,34048
2344,33984
2345,33984
2346,33984
2347,33920
2348,33920
2349,33984
2350,34112
2351,34240
2352,34240
2353,34304
2354,34304
2355,34304
2356,34240
2357,34304
2358,34432
2359,34496
2360,34496
2361,34432
2362,34496
2363,34560
2364,34560
2365,34624
2366,34688
2367,34816
2368,34816
2369,34752
2370,34688
2371,34688
2372,34752
2373,34816
2374,34816
2375,34944
2376,35072
2377,35136
2378,35072
2379,35008
2380,35008
2381,34944
2382,34880
2383,34944
2384,34944
2385,34944
2386,34944
2387,35008
2388,35072
2389,35008
2390,34816
2391,34688
2392,34560
2393,34368
2394,34176
2395,33920
2396,33728
2397,33536
2398,33344
2399,33152
2400,33024
2401,32896
2402,32832
2403,32832
2404,32832
2405,32896
2406,32832
2407,32832
2408,32960
2409,33024
2410,33024
2411,33024
2412,33024
2413,33152
2414,33152
2415,33216
2416,33216
2417,33280
2418,33280
2419,33152
2420,33152
2421,33216
2422,33216
2423,33216
2424,33216
2425,33152
2426,33152
2427,33088
2428,33152
2429,33152
2430,33216
2431,33216
2432,33280
2433,33344
2434,33408
2435,33344
2436,33280
2437,33280
2438,33216
2439,33216
2440,33216
2441,33216
2442,33280
2443,33344
2444,33280
2445,33344
2446,33408
2447,33344
2448,33280
2449,33216
2450,33216
2451,33280
2452,33280
2453,33408
2454,33472
2455,33536
2456,33536
2457,33472
2458,33536
2459,33536
2460,33600
2461,33600
2462,33664
2463,33728
2464,33792
2465,33920
2466,34048
2467,34176
2468,34176
2469,34112
2470,34176
2471,34304
2472,34432
2473,34560
2474,34688
2475,34816
2476,34816
2477,34752
2478,34496
2479,34304
2480,34048
2481,33856
2482,33536
2483,33280
2484,33152
2485,33024
2486,32960
2487,32896
2488,32896
2489,32832
2490,32768
2491,32832
2492,32960
2493,33024
2494,33152
2495,33216
2496,33280
2497,33344
2498,33280
2499,33280
2500,33344
2501,33344
2502,33216
2503,33024
2504,33024
2505,33280
2506,34048
2507,35776
2508,38272
2509,40832
2510,42240
2511,41984
2512,40128
2513,37120
2514,34048
2515,31552
2516,30016
2517,29248
2518,29184
2519,29568
2520,30272
2521,31104
2522,31936
2523,32576
2524,32960
2525,33280
2526,33472
2527,33600
2528,33600
2529,33664
2530,33664
2531,33600
2532,33536
2533,33536
2534,33536
2535,33536
2536,33472
2537,33472
2538,33472
2539,33472
2540,33472
2541,33472
2542,33600
2543,33664
2544,33728
2545,33856
2546,33984
2547,34048
2548,33920
2549,33856
2550,33856
2551,33856
2552,33856
2553,33856
2554,33984
2555,34112
2556,34240
2557,34240
2558,34304
2559,34304
2560,34304
2561,34304
2562,34304
2563,34368
2564,34432
2565,34432
2566,34496
2567,34624
2568,34688
2569,34688
2570,34560
2571,34368
2572,34304
2573,34240
2574,34240
2575,34240
2576,34240
2577,34176
2578,34048
2579,34048
2580,33984
2581,33856
2582,33728
2583,33536
2584,33280
2585,33024
2586,32704
2587,32384
2588,32064
2589,31872
2590,31680
2591,31552
2592,31488
2593,31424
2594,31360
2595,31424
2596,31552
2597,31680
2598,31744
2599,31744
2600,31808
2601,31872
2602,31936
2603,32000
2604,32128
2605,32192
2606,32192
2607,32128
2608,32192
2609,32256
2610,32384
2611,32448
2612,32512
2613,32512
2614,32512
2615,32576
2616,32640
2617,32704
2618,32768
2619,32768
2620,32768
2621,32896
2622,32896
2623,32768
2624,32704
2625,32704
2626,32768
2627,32832
2628,32896
2629,32960
2630,33088
2631,33088
2632,33152
2633,33152
2634,33216
2635,33216
2636,33280
2637,33344
2638,33280
2639,33280
2640,33216
2641,33216
2642,33280
2643,33280
2644,33280
2645,33344
2646,33408
2647,33408
2648,33408
2649,33472
2650,33472
2651,33536
2652,33472
2653,33472
2654,33536
2655,33600
2656,33600
2657,33536
2658,33600
2659,33728
2660,33856
2661,34048
2662,34240
2663,34368
2664,34496
2665,34560
2666,34624
2667,34624
2668,34688
2669,34752
2670,34880
2671,35008
2672,35072
2673,35008
2674,34944
2675,34816
2676,34688
2677,34496
2678,34240
2679,34048
2680,33856
2681,33728
2682,33600
2683,33536
2684,33536
2685,33536
2686,33472
2687,33472
2688,33536
2689,33536
2690,33600
2691,33664
2692,33728
2693,33728
2694,33664
2695,33728
2696,33728
2697,33792
2698,33792
2699,33792
2700,33728
2701,33856
2702,34112
2703,34880
2704,36352
2705,38656
2706,41344
2707,42752
2708,42624
2709,40768
2710,37632
2711,34304
2712,31744
2713,30144
2714,29440
2715,29504
2716,30016
2717,30848
2718,31744
2719,32384
2720,33024
2721,33472
2722,33728
2723,33856
2724,33920
2725,33984
2726,33984
2727,33984
2728,33984
2729,33984
2730,33984
2731,33984
2732,33984
2733,33984
2734,33984
2735,33984
2736,33984
2737,34048
2738,34048
2739,34048
2740,34112
2741,34112
2742,34176
2743,34176
2744,34112
2745,34176
2746,34176
2747,34240
2748,34240
2749,34240
2750,34368
2751,34496
2752,34560
2753,34560
2754,34624
2755,34752
2756,34752
2757,34816
2758,34816
2759,34880
2760,34880
2761,34816
2762,34816
2763,34816
2764,34816
2765,34880
2766,34944
2767,35008
2768,35008
2769,35008
2770,34944
2771,34944
2772,34944
2773,34944
2774,34880
2775,34880
2776,34816
2777,34752
2778,34624
2779,34560
2780,34368
2781,34176
2782,33856
2783,33600
2784,33408
2785,33216
2786,33024
2787,32832
2788,32704
2789,32576
2790,32448
2791,32448
2792,32448
2793,32448
2794,32512
2795,32576
2796,32640
2797,32704
2798,32704
2799,32768
2800,32896
2801,32960
2802,32960
2803,32960
2804,32960
2805,33024
2806,33088
2807,33088
2808,33152
2809,33216
2810,33216
2811,33152
2812,33216
2813,33280
2814,33280
2815,33280
2816,33280
2817,33280
2818,33344
2819,33280
2820,33280
2821,33216
2822,33216
2823,33152
2824,33152
2825,33152
2826,33152
2827,33088
2828,33088
2829,33088
2830,33152
2831,33152
2832,33152
2833,33216
2834,33216
2835,33280
2836,33216
2837,33152
2838,33152
2839,33152
2840,33088
2841,33152
2842,33152
2843,33216
2844,33280
2845,33280
2846,33280
2847,33344
2848,33344
2849,33344
2850,33344
2851,33408
2852,33408
2853,33344
2854,33408
2855,33408
2856,33408
2857,33344
2858,33408
2859,33472
2860,33600
2861,33664
2862,33792
2863,33984
2864,34112
2865,34112
2866,34112
2867,34112
2868,34176
2869,34240
2870,34304
2871,34432
2872,34432
2873,34304
2874,34176
2875,34048
2876,33856
2877,33600
2878,33408
2879,33280
2880,33216
2881,33088
2882,33024
2883,33024
2884,32960
2885,32896
2886,32896
2887,32960
2888,33024
2889,33152
2890,33152
2891,33152
2892,33152
2893,33152
2894,33152
2895,33216
2896,33280
2897,33344
2898,33344
2899,33280
2900,33344
2901,33536
2902,34048
2903,35264
2904,37312
2905,40000
2906,41984
2907,42368
2908,41280
2909,38656
2910,35456
2911,32640
2912,30720
2913,29696
2914,29504
2915,29824
2916,30528
2917,31360
2918,32192
2919,32832
2920,33344
2921,33664
2922,33856
2923,33984
2924,34048
2925,34048
2926,34112
2927,34048
2928,34048
2929,33984
2930,33984
2931,33920
2932,33920
2933,33984
2934,34048
2935,34048
2936,34048
2937,34112
2938,34176
2939,34240
2940,34240
2941,34304
2942,34304
2943,34304
2944,34304
2945,34304
2946,34432
2947,34496
2948,34496
2949,34496
2950,34496
2951,34496
2952,34432
2953,34496
2954,34560
2955,34688
2956,34688
2957,34688
2958,34816
2959,34880
2960,34944
2961,34944
2962,34880
2963,34880
2964,34816
2965,34688
2966,34624
2967,34688
2968,34688
2969,34752
2970,34752
2971,34816
2972,34816
2973,34752
2974,34688
2975,34688
2976,34688
2977,34560
2978,34368
2979,34240
2980,34048
2981,33792
2982,33536
2983,33344
2984,33152
2985,32960
2986,32768
2987,32576
2988,32512
2989,32448
2990,32384
2991,32448
2992,32512
2993,32512
2994,32576
2995,32576
2996,32640
2997,32640
2998,32640
2999,32576
3000,32640
3001,32704
3002,32704
3003,32768
3004,32832
3005,32960
3006,33024
3007,33024
3008,33088
3009,33152
3010,33152
3011,33088
3012,33088
3013,33088
3014,33024
3015,32960
3016,32896
3017,32832
3018,32832
3019,32832
3020,32832
3021,32896
3022,32896
3023,32832
3024,32832
3025,32896
3026,32896
3027,32896
3028,32896
3029,32896
3030,32896
3031,32896
3032,32896
3033,32896
3034,32896
3035,32896
3036,32896
3037,32896
3038,32960
3039,32960
3040,32960
3041,32960
3042,32960
3043,32960
3044,33024
3045,33024
3046,33088
3047,33152
3048,33152
3049,33216
3050,33280
3051,33280
3052,33216
3053,33216
3054,33216
3055,33280
3056,33280
3057,33280
3058,33344
3059,33408
3060,33408
3061,33472
3062,33600
3063,33792
3064,33920
3065,33984
3066,34112
3067,34176
3068,34176
3069,34240
3070,34368
3071,34560
3072,34752
3073,34752
3074,34688
3075,34560
3076,34304
3077,33984
3078,33728
3079,33536
3080,33408
3081,33280
3082,33152
3083,33088
3084,33152
3085,33152
3086,33088
3087,33024
3088,33088
3089,33088
3090,33088
3091,33088
3092,33152
3093,33152
3094,33216
3095,33280
3096,33280
3097,33280
3098,33216
3099,33152
3100,33152
3101,33216
3102,33344
3103,33664
3104,34560
3105,36288
3106,38848
3107,41280
3108,42240
3109,41664
3110,39488
3111,36352
3112,33344
3113,31168
3114,29760
3115,29184
3116,29312
3117,29888
3118,30656
3119,31360
3120,32064
3121,32704
3122,33152
3123,33408
3124,33600
3125,33792
3126,33920
3127,33920
3128,33920
3129,33920
3130,33792
3131,33728
3132,33600
3133,33600
3134,33600
3135,33664
3136,33664
3137,33728
3138,33792
3139,33792
3140,33792
3141,33856
3142,33920
3143,33920
3144,33984
3145,34048
3146,34176
3147,34240
3148,34240
3149,34240
3150,34240
3151,34240
3152,34240
3153,34240
3154,34368
3155,34496
3156,34560
3157,34560
3158,34688
3159,34752
3160,34880
3161,34880
3162,34880
3163,34944
3164,34944
3165,34944
3166,35008
3167,35072
3168,35072
3169,35072
3170,35072
3171,35136
3172,35200
3173,35136
3174,35136
3175,35072
3176,35008
3177,34880
3178,34752
3179,34560
3180,34432
3181,34304
3182,34112
3183,33984
3184,33728
3185,33600
3186,33408
3187,33280
3188,33216
3189,33088
3190,32960
3191,32896
3192,32896
3193,32896
3194,32832
3195,32768
3196,32704
3197,32768
3198,32768
3199,32896
3200,33024
3201,33152
3202,33216
3203,33280
3204,33344
3205,33408
3206,33472
3207,33536
3208,33664
3209,33664
3210,33600
3211,33408
3212,33280
3213,33216
3214,33216
3215,33152
3216,33216
3217,33280
3218,33344
3219,33344
3220,33408
3221,33408
3222,33408
3223,33408
3224,33408
3225,33344
3226,33216
3227,33152
3228,33152
3229,33152
3230,33152
3231,33152
3232,33152
3233,33152
3234,33152
3235,33152
3236,33088
3237,33216
3238,33280
3239,33344
3240,33280
3241,33216
3242,33280
3243,33280
3244,33216
3245,33216
3246,33280
3247,33344
3248,33280
3249,33280
3250,33280
3251,33344
3252,33344
3253,33408
3254,33408
3255,33408
3256,33408
3257,33344
3258,33408
3259,33408
3260,33472
3261,33408
3262,33408
3263,33472
3264,33536
3265,33600
3266,33728
3267,33856
3268,34048
3269,34240
3270,34368
3271,34368
3272,34304
3273,34176
3274,34240
3275,34368
3276,34560
3277,34624
3278,34560
3279,34560
3280,34496
3281,34368
3282,34112
3283,33984
3284,33792
3285,33600
3286,33344
3287,33216
3288,33152
3289,33088
3290,33024
3291,33024
3292,33024
3293,33024
3294,33088
3295,33152
3296,33280
3297,33344
3298,33344
3299,33344
3300,33472
3301,33472
3302,33472
3303,33472
3304,33408
3305,33408
3306,33408
3307,33536
3308,33984
3309,35072
3310,36864
3311,39424
3312,41600
3313,42176
3314,41280
3315,38720
3316,35584
3317,32768
3318,30720
3319,29568
3320,29248
3321,29568
3322,30208
3323,30976
3324,31808
3325,32512
3326,33024
3327,33280
3328,33472
3329,33536
3330,33600
3331,33664
3332,33664
3333,33728
3334,33728
3335,33728
3336,33792
3337,33856
3338,33920
3339,33856
3340,33728
3341,33664
3342,33664
3343,33728
3344,33856
3345,33856
3346,33792
3347,33728
3348,33728
3349,33728
3350,33856
3351,33856
3352,33920
3353,34048
3354,34112
3355,34176
3356,34240
3357,34304
3358,34432
3359,34560
3360,34624
3361,34560
3362,34496
3363,34496
3364,34432
3365,34496
3366,34560
3367,34688
3368,34816
3369,34816
3370,34752
3371,34816
3372,34816
3373,34880
3374,34944
3375,34944
3376,34880
3377,34880
3378,34880
3379,34880
3380,34880
3381,34752
3382,34688
3383,34688
3384,34496
3385,34304
3386,34176
3387,34048
3388,33920
3389,33664
3390,33408
3391,33152
3392,33024
3393,32896
3394,32768
3395,32640
3396,32640
3397,32640
3398,32640
3399,32640
3400,32704
3401,32768
3402,32832
3403,32832
3404,32896
3405,33024
3406,33088
3407,33152
3408,33152
3409,33216
3410,33280
3411,33344
3412,33344
3413,33280
3414,33152
3415,33088
3416,33152
3417,33344
3418,33472
3419,33408
3420,33408
3421,33344
3422,33344
3423,33344
3424,33344
3425,33280
3426,33280
3427,33280
3428,33280
3429,33216
3430,33216
3431,33088
3432,33088
3433,33152
3434,33152
3435,33152
3436,33152
3437,33216
3438,33280
3439,33280
3440,33344
3441,33344
3442,33344
3443,33344
3444,33216
3445,33152
3446,33216
3447,33280
3448,33408
3449,33408
3450,33408
3451,33408
3452,33408
3453,33408
3454,33344
3455,33344
3456,33280
3457,33280
3458,33280
3459,33280
3460,33344
3461,33408
3462,33408
3463,33472
3464,33472
3465,33536
3466,33728
3467,33984
3468,34176
3469,34240
3470,34240
3471,34240
3472,34304
3473,34368
3474,34496
3475,34560
3476,34624
3477,34624
3478,34560
3479,34432
3480,34304
3481,34048
3482,33856
3483,33728
3484,33600
3485,33408
3486,33216
3487,33152
3488,33152
3489,33152
3490,33152
3491,33152
3492,33152
3493,33152
3494,33088
3495,33088
3496,33152
3497,33152
3498,33152
3499,33216
3500,33280
3501,33472
3502,33600
3503,33600
3504,33472
3505,33344
3506,33408
3507,33536
3508,34176
3509,35648
3510,37888
3511,40512
3512,42112
3513,42048
3514,40640
3515,37888
3516,34944
3517,32576
3518,30848
3519,29952
3520,29760
3521,30080
3522,30656
3523,31296
3524,32000
3525,32576
3526,33088
3527,33408
3528,33728
3529,33984
3530,34112
3531,34176
3532,34112
3533,34048
3534,33984
3535,33920
3536,33856
3537,33856
3538,33856
3539,33920
3540,34048
3541,34176
3542,34240
3543,34112
3544,33984
3545,33792
3546,33728
3547,33792
3548,33856
3549,33984
3550,34112
3551,34240
3552,34304
3553,34304
3554,34368
3555,34496
3556,34496
3557,34496
3558,34560
3559,34624
3560,34752
3561,34944
3562,35008
3563,34880
3564,34752
3565,34624
3566,34624
3567,34688
3568,34688
3569,34688
3570,34752
3571,34816
3572,34880
3573,34944
3574,35008
3575,35008
3576,35008
3577,35008
3578,35008
3579,35072
3580,35136
3581,35264
3582,35136
3583,34944
3584,34624
3585,34304
3586,34048
3587,33856
3588,33600
3589,33472
3590,33280
3591,33088
3592,32832
3593,32640
3594,32576
3595,32512
3596,32512
3597,32576
3598,32576
3599,32640
3600,32704
3601,32768
3602,32768
3603,32896
3604,32960
3605,33088
3606,33152
3607,33216
3608,33216
3609,33280
3610,33280
3611,33344
3612,33472
3613,33472
3614,33408
3615,33344
3616,33344
3617,33408
3618,33344
3619,33408
3620,33408
3621,33408
3622,33472
3623,33408
3624,33536
3625,33472
3626,33408
3627,33344
3628,33408
3629,33408
3630,33408
3631,33408
3632,33408
3633,33408
3634,33216
3635,33024
3636,32960
3637,33024
3638,33216
3639,33216
3640,33472
3641,33536
3642,33472
3643,33472
3644,33536
3645,33536
3646,33600
3647,33536
3648,33472
3649,33472
3650,33536
3651,33536
3652,33536
3653,33536
3654,33664
3655,33664
3656,33728
3657,33728
3658,33728
3659,33600
3660,33408
3661,33344
3662,33408
3663,33344
3664,33472
3665,33472
3666,33472
3667,33536
3668,33600
3669,33792
3670,33984
3671,34176
3672,34304
3673,34432
3674,34496
3675,34496
3676,34496
3677,34496
3678,34688
3679,34880
3680,35008
3681,34944
3682,34816
3683,34496
3684,34176
3685,33920
3686,33664
3687,33536
3688,33408
3689,33280
3690,33216
3691,33216
3692,33216
3693,33216
3694,33152
3695,33152
3696,33216
3697,33280
3698,33280
3699,33408
3700,33472
3701,33536
3702,33536
3703,33536
3704,33600
3705,33600
3706,33600
3707,33600
3708,33536
3709,33536
3710,33792
3711,34304
3712,35520
3713,37632
3714,37632
3715,42240
3716,42880
3717,41984
3718,39360
3719,35904
3720,32768
3721,30592
3722,29312
3723,29184
3724,29184
3725,30464
3726,31360
3727,32128
3728,32832
3729,33344
3730,33664
3731,33792
3732,33920
3733,34048
3734,34048
3735,34048
3736,33984
3737,34048
3738,34048
3739,34048
3740,33984
3741,33984
3742,33984
3743,33920
3744,33856
3745,33984
3746,33984
3747,33984
3748,33984
3749,33984
3750,34048
3751,34112
3752,34112
3753,34048
3754,34176
3755,34112
3756,34112
3757,34112
3758,34240
3759,34176
3760,34240
3761,34368
3762,34432
3763,34496
3764,34560
3765,34560
3766,34688
3767,34752
3768,34688
3769,34752
3770,34880
3771,34880
3772,34880
3773,34944
3774,35008
3775,35008
3776,35008
3777,34944
3778,34944
3779,35008
3780,35008
3781,35008
3782,35008
3783,35008
3784,34944
3785,34816
3786,34624
3787,34496
3788,34304
3789,34240
3790,33792
3791,33600
3792,33344
3793,33152
3794,32896
3795,32768
3796,32640
3797,32512
3798,32448
3799,32384
3800,32384
3801,32320
3802,32320
3803,32384
3804,32384
3805,32448
3806,32448
3807,32512
3808,32640
3809,32704
3810,32768
3811,32768
3812,32832
3813,32896
3814,32896
3815,32896
3816,32960
3817,32960
3818,32960
3819,32960
3820,32960
3821,33024
3822,32960
3823,32960
3824,32960
3825,33024
3826,33024
3827,33024
3828,32960
3829,33024
3830,33024
3831,33024
3832,32960
3833,33024
3834,32960
3835,32960
3836,32960
3837,32960
3838,32960
3839,32896
3840,32896
3841,32896
3842,32896
3843,32896
3844,32960
3845,33024
3846,33088
3847,33152
3848,33152
3849,33088
3850,33216
3851,33216
3852,33280
3853,33280
3854,33408
3855,33408
3856,33344
3857,33344
3858,33344
3859,33344
3860,33344
3861,33408
3862,33472
3863,33536
3864,33536
3865,33600
3866,33664
3867,33728
3868,33728
3869,33728
3870,33728
3871,33792
3872,33792
3873,33792
3874,33856
3875,33920
3876,33856
3877,33856
3878,33920
3879,33984
3880,33984
3881,34048
3882,34240
3883,34496
3884,34688
3885,34816
3886,34944
3887,34944
3888,35008
3889,35136
3890,35200
3891,35328
3892,35392
3893,35392
3894,35264
3895,35200
3896,35072
3897,34880
3898,34624
3899,34368
3900,34112
3901,33920
3902,33792
3903,33728
3904,33728
3905,33664
3906,33600
3907,33664
3908,33728
3909,33728
3910,33664
3911,33728
3912,33792
3913,33856
3914,33856
3915,33856
3916,33856
3917,33856
3918,33792
3919,33728
3920,33728
3921,33728
3922,33856
3923,34432
3924,35648
3925,37696
3926,40384
3927,42432
3928,42944
3929,41856
3930,39104
3931,35776
3932,31936
3933,31616
3934,29760
3935,29504
3936,29824
3937,30528
3938,31296
3939,32128
3940,32768
3941,33280
3942,33600
3943,33792
3944,33920
3945,34048
3946,34048
3947,34048
3948,33984
3949,33984
3950,33984
3951,33920
3952,33920
3953,33920
3954,33856
3955,33856
3956,33792
3957,33856
3958,33856
3959,33920
3960,33984
3961,34048
3962,34112
3963,34048
3964,34048
3965,34112
3966,34240
3967,34304
3968,34240
3969,34304
3970,34368
3971,34432
3972,34432
3973,34432
3974,34432
3975,34496
3976,34496
3977,34624
3978,34560
3979,34752
3980,34752
3981,34752
3982,34816
3983,34944
3984,34944
3985,34944
3986,34944
3987,35008
3988,35008
3989,35072
3990,35072
3991,35072
3992,35072
3993,35072
3994,35072
3995,35008
3996,35008
3997,35008
3998,34816
3999,34688
4000,34496
4001,34240
4002,33984
4003,33856
4004,33664
4005,33472
4006,33280
4007,33152
4008,33088
4009,33024
4010,32896
4011,32896
4012,32896
4013,32896
4014,32896
4015,32960
4016,33024
4017,33088
4018,33088
4019,33216
4020,33280
4021,33280
4022,33280
4023,33216
4024,33344
4025,33408
4026,33472
4027,33472
4028,33536
4029,33664
4030,33664
4031,33728
4032,33664
4033,33664
4034,33664
4035,33664
4036,33728
4037,33856
4038,33792
4039,33728
4040,33664
4041,33600
4042,33664
4043,33600
4044,33600
4045,33600
4046,33664
4047,33600
4048,33600
4049,33600
4050,33664
4051,33600
4052,33600
4053,33600
4054,33600
4055,33664
4056,33600
4057,33600
4058,33600
4059,33600
4060,33600
4061,33600
4062,33600
4063,33664
4064,33664
4065,33728
4066,33728
4067,33792
4068,33728
4069,33664
4070,33728
4071,33728
4072,33792
4073,33728
4074,33728
4075,33792
4076,33856
4077,33920
4078,34048
4079,34240
4080,34432
4081,34496
4082,34624
4083,34560
4084,34624
4085,34624
4086,34688
4087,34816
4088,34880
4089,34816
4090,34752
4091,34624
4092,34368
4093,34176
4094,33984
4095,33856
4096,33664
4097,33408
4098,33280
4099,33280
4100,33280
4101,33216
4102,33152
4103,33152
4104,33216
4105,33280
4106,33280
4107,33408
4108,33472
4109,33536
4110,33536
4111,33536
4112,33600
4113,33600
4114,33664
4115,33600
4116,33664
4117,33728
4118,33920
4119,34496
4120,35776
4121,37952
4122,40576
4123,42240
4124,42304
4125,40896
4126,38016
4127,33408
4128,33024
4129,30528
4130,29760
4131,29696
4132,30272
4133,31168
4134,31936
4135,32576
4136,33216
4137,33728
4138,34048
4139,34176
4140,34304
4141,34368
4142,34432
4143,34368
4144,34304
4145,34304
4146,34304
4147,34304
4148,34304
4149,34368
4150,34432
4151,34368
4152,34368
4153,34368
4154,34432
4155,34496
4156,34496
4157,34496
4158,34560
4159,34624
4160,34624
4161,34688
4162,34688
4163,34752
4164,34688
4165,34752
4166,34816
4167,34880
4168,34944
4169,35008
4170,35072
4171,35136
4172,35136
4173,35200
4174,35328
4175,35392
4176,35392
4177,35392
4178,35392
4179,35392
4180,35392
4181,35392
4182,35456
4183,35456
4184,35456
4185,35456
4186,35456
4187,35520
4188,35520
4189,35520
4190,35520
4191,35456
4192,35392
4193,35200
4194,35072
4195,34944
4196,34752
4197,34560
4198,34304
4199,34048
4200,33856
4201,33664
4202,33472
4203,33344
4204,33152
4205,33088
4206,32960
4207,32960
4208,32960
4209,32960
4210,32960
4211,33024
4212,33152
4213,33216
4214,33216
4215,33280
4216,33344
4217,33408
4218,33472
4219,33472
4220,33536
4221,33600
4222,33536
4223,33536
4224,33600
4225,33664
4226,33664
4227,33600
4228,33664
4229,33664
4230,33728
4231,33664
4232,33728
4233,33728
4234,33728
4235,33728
4236,33664
4237,33664
4238,33600
4239,33472
4240,33472
4241,33472
4242,33472
4243,33472
4244,33408
4245,33472
4246,33536
4247,33472
4248,33472
4249,33472
4250,33472
4251,33408
4252,33408
4253,33408
4254,33472
4255,33472
4256,33472
4257,33472
4258,33472
4259,33472
4260,33472
4261,33472
4262,33536
4263,33536
4264,33536
4265,33536
4266,33600
4267,33600
4268,33600
4269,33600
4270,33600
4271,33664
4272,33728
4273,33856
4274,33984
4275,34176
4276,34304
4277,34304
4278,34368
4279,34432
4280,34560
4281,34560
4282,34624
4283,34752
4284,34752
4285,34624
4286,34496
4287,34368
4288,34112
4289,33856
4290,33664
4291,33472
4292,33344
4293,33216
4294,33088
4295,33088
4296,33024
4297,32960
4298,32960
4299,32960
4300,33024
4301,33088
4302,33152
4303,33280
4304,33344
4305,33408
4306,33408
4307,33408
4308,33472
4309,33472
4310,33472
4311,33408
4312,33472
4313,33600
4314,34048
4315,35264
4316,37248
4317,39872
4318,41792
4319,42240
4320,41152
4321,38592
4322,35328
4323,32384
4324,30656
4325,29696
4326,29504
4327,29824
4328,30592
4329,31424
4330,32192
4331,32832
4332,33344
4333,33728
4334,33920
4335,34048
4336,34048
4337,34112
4338,34112
4339,34048
4340,34048
4341,34112
4342,34048
4343,34048
4344,33984
4345,34048
4346,34048
4347,34048
4348,34112
4349,34112
4350,34176
4351,34240
4352,34240
4353,34240
4354,34304
4355,34368
4356,34368
4357,34432
4358,34496
4359,34560
4360,34560
4361,34624
4362,34752
4363,34752
4364,34816
4365,34880
4366,34944
4367,34944
4368,34944
4369,34944
4370,35008
4371,35072
4372,35072
4373,35072
4374,35072
4375,35136
4376,35136
4377,35136
4378,35136
4379,35136
4380,35136
4381,35136
4382,35200
4383,35200
4384,35200
4385,35136
4386,35136
4387,35072
4388,35008
4389,34816
4390,34688
4391,34496
4392,34304
4393,34048
4394,33856
4395,33664
4396,33472
4397,33280
4398,33088
4399,33024
4400,32960
4401,32832
4402,32768
4403,32768
4404,32768
4405,32832
4406,32896
4407,32960
4408,33088
4409,33088
4410,33088
4411,33152
4412,33216
4413,33280
4414,33344
4415,33408
4416,33472
4417,33536
4418,33536
4419,33536
4420,33536
4421,33536
4422,33536
4423,33536
4424,33536
4425,33536
4426,33536
4427,33536
4428,33536
4429,33600
4430,33536
4431,33536
4432,33472
4433,33472
4434,33536
4435,33536
4436,33536
4437,33600
4438,33536
4439,33472
4440,33408
4441,33408
4442,33408
4443,33408
4444,33408
4445,33536
4446,33600
4447,33536
4448,33536
4449,33536
4450,33600
4451,33536
4452,33472
4453,33472
4454,33536
4455,33536
4456,33536
4457,33600
4458,33664
4459,33664
4460,33728
4461,33728
4462,33728
4463,33728
4464,33664
4465,33664
4466,33728
4467,33792
4468,33792
4469,33856
4470,33984
4471,34112
4472,34304
4473,34432
4474,34624
4475,34688
4476,34688
4477,34688
4478,34816
4479,34944
4480,35008
4481,35008
4482,35072
4483,35072
4484,34944
4485,34816
4486,34624
4487,34432
4488,34240
4489,34048
4490,33856
4491,33728
4492,33600
4493,33472
4494,33472
4495,33408
4496,33408
4497,33344
4498,33344
4499,33408
4500,33536
4501,33600
4502,33664
4503,33728
4504,33728
4505,33664
4506,33664
4507,33664
4508,33728
4509,33664
4510,33600
4511,33664
4512,33856
4513,34368
4514,35584
4515,37696
4516,40384
4517,42304
4518,42560
4519,41344
4520,38720
4521,35456
4522,32640
4523,30656
4524,29760
4525,29568
4526,29888
4527,30528
4528,31296
4529,32128
4530,32768
4531,33344
4532,33792
4533,34112
4534,34240
4535,34240
4536,34240
4537,34176
4538,34176
4539,34112
4540,34048
4541,34048
4542,33920
4543,33792
4544,33728
4545,33664
4546,33728
4547,33728
4548,33792
4549,33920
4550,33984
4551,34112
4552,34176
4553,34304
4554,34432
4555,34432
4556,34368
4557,34368
4558,34368
4559,34368
4560,34432
4561,34496
4562,34560
4563,34688
4564,34688
4565,34752
4566,34880
4567,34944
4568,35008
4569,35072
4570,35136
4571,35264
4572,35328
4573,35264
4574,35200
4575,35136
4576,35136
4577,35136
4578,35200
4579,35264
4580,35328
4581,35328
4582,35392
4583,35456
4584,35456
4585,35392
4586,35328
4587,35200
4588,35136
4589,34880
4590,34688
4591,34496
4592,34240
4593,33920
4594,33664
4595,33472
4596,33280
4597,33088
4598,33024
4599,33024
4600,33024
4601,32960
4602,32896
4603,32832
4604,32832
4605,32832
4606,32832
4607,32960
4608,33024
4609,33024
4610,33024
4611,33152
4612,33216
4613,33280
4614,33344
4615,33344
4616,33344
4617,33344
4618,33344
4619,33408
4620,33472
4621,33472
4622,33536
4623,33536
4624,33536
4625,33536
4626,33472
4627,33408
4628,33472
4629,33536
4630,33536
4631,33536
4632,33536
4633,33536
4634,33472
4635,33344
4636,33344
4637,33408
4638,33472
4639,33408
4640,33344
4641,33344
4642,33280
4643,33216
4644,33152
4645,33216
4646,33280
4647,33280
4648,33344
4649,33344
4650,33408
4651,33408
4652,33472
4653,33472
4654,33472
4655,33536
4656,33536
4657,33600
4658,33600
4659,33536
4660,33408
4661,33344
4662,33344
4663,33344
4664,33280
4665,33344
4666,33408
4667,33472
4668,33536
4669,33536
4670,33600
4671,33536
4672,33536
4673,33600
4674,33728
4675,33984
4676,34240
4677,34304
4678,34368
4679,34368
4680,34304
4681,34304
4682,34368
4683,34560
4684,34688
4685,34752
4686,34688
4687,34688
4688,34496
4689,34304
4690,34112
4691,33984
4692,33792
4693,33472
4694,33280
4695,33152
4696,33088
4697,32960
4698,32896
4699,32896
4700,32896
4701,32960
4702,32960
4703,33088
4704,33280
4705,33344
4706,33408
4707,33408
4708,33472
4709,33536
4710,33536
4711,33472
4712,33344
4713,33216
4714,33280
4715,33536
4716,34176
4717,35584
4718,37824
4719,40512
4720,42112
4721,42112
4722,40512
4723,37568
4724,34496
4725,32000
4726,30208
4727,29312
4728,29184
4729,29568
4730,30336
4731,31168
4732,32000
4733,32704
4734,33152
4735,33408
4736,33664
4737,33792
4738,33856
4739,33792
4740,33792
4741,33792
4742,33728
4743,33728
4744,33664
4745,33600
4746,33600
4747,33536
4748,33536
4749,33600
4750,33728
4751,33792
4752,33792
4753,33792
4754,33792
4755,33792
4756,33728
4757,33728
4758,33856
4759,33856
4760,33920
4761,33920
4762,34112
4763,34240
4764,34240
4765,34304
4766,34368
4767,34432
4768,34496
4769,34560
4770,34752
4771,34880
4772,34944
4773,34816
4774,34688
4775,34624
4776,34560
4777,34560
4778,34560
4779,34560
4780,34560
4781,34624
4782,34752
4783,34880
4784,34944
4785,35008
4786,35136
4787,35200
4788,35136
4789,35072
4790,34880
4791,34752
4792,34560
4793,34240
4794,34048
4795,33920
4796,33728
4797,33536
4798,33280
4799,33216
4800,33152
4801,33024
4802,32896
4803,32768
4804,32768
4805,32768
4806,32704
4807,32704
4808,32704
4809,32832
4810,32896
4811,32960
4812,33088
4813,33152
4814,33152
4815,33152
4816,33216
4817,33280
4818,33344
4819,33408
4820,33472
4821,33472
4822,33472
4823,33472
4824,33472
4825,33472
4826,33472
4827,33472
4828,33600
4829,33600
4830,33536
4831,33536
4832,33600
4833,33600
4834,33664
4835,33664
4836,33600
4837,33472
4838,33344
4839,33280
4840,33344
4841,33344
4842,33408
4843,33408
4844,33408
4845,33472
4846,33536
4847,33536
4848,33600
4849,33664
4850,33728
4851,33728
4852,33728
4853,33664
4854,33600
4855,33408
4856,33280
4857,33280
4858,33216
4859,33280
4860,33344
4861,33408
4862,33536
4863,33664
4864,33792
4865,33984
4866,34176
4867,34368
4868,34432
4869,34368
4870,34368
4871,34240
4872,34112
4873,34112
4874,34240
4875,34432
4876,34560
4877,34752
4878,34880
4879,34880
4880,34816
4881,34688
4882,34560
4883,34432
4884,34304
4885,34048
4886,33792
4887,33600
4888,33408
4889,33152
4890,32960
4891,32832
4892,32832
4893,32896
4894,33024
4895,33216
4896,33344
4897,33408
4898,33472
4899,33600
4900,33728
4901,33856
4902,33920
4903,33792
4904,33664
4905,33472
4906,33344
4907,33280
4908,33344
4909,33728
4910,35008
4911,37184
4912,39936
4913,41856
4914,42048
4915,40832
4916,38272
4917,35328
4918,32704
4919,30912
4920,29888
4921,29632
4922,29952
4923,30656
4924,31296
4925,32064
4926,32640
4927,33024
4928,33344
4929,33472
4930,33600
4931,33600
4932,33664
4933,33728
4934,33792
4935,33792
4936,33856
4937,33920
4938,33920
4939,33920
4940,33920
4941,33920
4942,33856
4943,33728
4944,33728
4945,33728
4946,33792
4947,33792
4948,33856
4949,33984
4950,34048
4951,34048
4952,34112
4953,34112
4954,34048
4955,34048
4956,34048
4957,34112
4958,34304
4959,34432
4960,34560
4961,34688
4962,34816
4963,34880
4964,34944
4965,34944
4966,34880
4967,34880
4968,34880
4969,34944
4970,34944
4971,35008
4972,34944
4973,34880
4974,35008
4975,35072
4976,35072
4977,35008
4978,34944
4979,34944
4980,34944
4981,34944
4982,35072
4983,35136
4984,34944
4985,34624
4986,34176
4987,33856
4988,33536
4989,33216
4990,33024
4991,32896
4992,32832
4993,32704
4994,32640
4995,32576
4996,32576
4997,32576
4998,32640
4999,32640
5000,32640
5001,32640
5002,32576
5003,32512
5004,32448
5005,32384
5006,32384
5007,32512
5008,32640
5009,32768
5010,32832
5011,32960
5012,33088
5013,33216
5014,33216
5015,33216
5016,33216
5017,33216
5018,33216
5019,33280
5020,33280
5021,33280
5022,33216
5023,33088
5024,33024
5025,32960
5026,32960
5027,32960
5028,33088
5029,33216
5030,33344
5031,33408
5032,33472
5033,33472
5034,33408
5035,33280
5036,33280
5037,33280
5038,33280
5039,33216
5040,33216
5041,33216
5042,33216
5043,33280
5044,33280
5045,33408
5046,33472
5047,33536
5048,33600
5049,33664
5050,33728
5051,33728
5052,33728
5053,33792
5054,33792
5055,33728
5056,33600
5057,33536
5058,33536
5059,33536
5060,33536
5061,33664
5062,33792
5063,33792
5064,33792
5065,33728
5066,33728
5067,33728
5068,33728
5069,33792
5070,33856
5071,33920
5072,33984
5073,34048
5074,34048
5075,34048
5076,34112
5077,34176
5078,34240
5079,34368
5080,34496
5081,34560
5082,34624
5083,34688
5084,34688
5085,34752
5086,34752
5087,34816
5088,34944
5089,34944
5090,34944
5091,34944
5092,34752
5093,34496
5094,34176
5095,33920
5096,33664
5097,33536
5098,33536
5099,33536
5100,33536
5101,33472
5102,33408
5103,33408
5104,33344
5105,33344
5106,33344
5107,33472
5108,33600
5109,33600
5110,33600
5111,33600
5112,33600
5113,33664
5114,33728
5115,33792
5116,33856
5117,33984
5118,34176
5119,34688
5120,35904
5121,37952
5122,40512
5123,42368
5124,42688
5125,41408
5126,38528
5127,35264
5128,32512
5129,30784
5130,30016
5131,29824
5132,30144
5133,30848
5134,31552
5135,32320
5136,32960
5137,33472
5138,33728
5139,33920
5140,33984
5141,34112
5142,34176
5143,34112
5144,34112
5145,34112
5146,34048
5147,34048
5148,34112
5149,34176
5150,34304
5151,34304
5152,34240
5153,34112
5154,33984
5155,33984
5156,33984
5157,34048
5158,34240
5159,34304
5160,34304
5161,34240
5162,34304
5163,34304
5164,34368
5165,34432
5166,34496
5167,34560
5168,34560
5169,34624
5170,34688
5171,34816
5172,34944
5173,35008
5174,35008
5175,35072
5176,35072
5177,35072
5178,35136
5179,35200
5180,35264
5181,35328
5182,35392
5183,35456
5184,35392
5185,35264
5186,35200
5187,35264
5188,35264
5189,35328
5190,35456
5191,35520
5192,35520
5193,35392
5194,35200
5195,34944
5196,34688
5197,34432
5198,34176
5199,33984
5200,33792
5201,33600
5202,33472
5203,33344
5204,33152
5205,32960
5206,32832
5207,32704
5208,32768
5209,32832
5210,32832
5211,32960
5212,33024
5213,33088
5214,33216
5215,33344
5216,33408
5217,33344
5218,33280
5219,33216
5220,33216
5221,33280
5222,33280
5223,33344
5224,33472
5225,33600
5226,33600
5227,33600
5228,33536
5229,33472
5230,33408
5231,33344
5232,33408
5233,33408
5234,33472
5235,33408
5236,33408
5237,33472
5238,33472
5239,33472
5240,33408
5241,33408
5242,33344
5243,33280
5244,33216
5245,33216
5246,33216
5247,33152
5248,33088
5249,33088
5250,33024
5251,32960
5252,32960
5253,33024
5254,33088
5255,33152
5256,33152
5257,33152
5258,33216
5259,33216
5260,33216
5261,33216
5262,33216
5263,33216
5264,33216
5265,33280
5266,33344
5267,33344
5268,33408
5269,33344
5270,33344
5271,33280
5272,33280
5273,33216
5274,33280
5275,33408
5276,33472
5277,33536
5278,33536
5279,33472
5280,33472
5281,33472
5282,33472
5283,33536
5284,33600
5285,33600
5286,33600
5287,33600
5288,33664
5289,33600
5290,33664
5291,33792
5292,33856
5293,33856
5294,33920
5295,33984
5296,34176
5297,34368
5298,34560
5299,34624
5300,34624
5301,34560
5302,34560
5303,34688
5304,34816
5305,34944
5306,35072
5307,35072
5308,35008
5309,34880
5310,34752
5311,34560
5312,34240
5313,33984
5314,33728
5315,33536
5316,33472
5317,33408
5318,33344
5319,33344
5320,33344
5321,33344
5322,33344
5323,33408
5324,33472
5325,33472
5326,33536
5327,33600
5328,33600
5329,33664
5330,33664
5331,33728
5332,33728
5333,33728
5334,33600
5335,33664
5336,33856
5337,34368
5338,35584
5339,37568
5340,40256
5341,42176
5342,42496
5343,41024
5344,38528
5345,35264
5346,32448
5347,30464
5348,29376
5349,29248
5350,29568
5351,30272
5352,31040
5353,31936
5354,32640
5355,33152
5356,33472
5357,33664
5358,33792
5359,33856
5360,33856
5361,33856
5362,33920
5363,33856
5364,33792
5365,33792
5366,33856
5367,33792
5368,33664
5369,33600
5370,33664
5371,33728
5372,33728
5373,33792
5374,33792
5375,33920
5376,33984
5377,34048
5378,34112
5379,34176
5380,34240
5381,34240
5382,34240
5383,34304
5384,34304
5385,34304
5386,34368
5387,34432
5388,34496
5389,34560
5390,34624
5391,34752
5392,34880
5393,34944
5394,35008
5395,35008
5396,35008
5397,35008
5398,35008
5399,35072
5400,35072
5401,35008
5402,35008
5403,35072
5404,35072
5405,35136
5406,35136
5407,35136
5408,35200
5409,35200
5410,35136
5411,35136
5412,35072
5413,34816
5414,34560
5415,34368
5416,34176
5417,33984
5418,33792
5419,33600
5420,33408
5421,33280
5422,33088
5423,33024
5424,33024
5425,33024
5426,32960
5427,32896
5428,32960
5429,33024
5430,33024
5431,33152
5432,33216
5433,33216
5434,33280
5435,33408
5436,33472
5437,33408
5438,33408
5439,33344
5440,33472
5441,33536
5442,33536
5443,33600
5444,33600
5445,33664
5446,33664
5447,33728
5448,33664
5449,33728
5450,33728
5451,33664
5452,33728
5453,33664
5454,33600
5455,33600
5456,33600
5457,33664
5458,33728
5459,33664
5460,33600
5461,33600
5462,33600
5463,33664
5464,33664
5465,33664
5466,33664
5467,33600
5468,33600
5469,33536
5470,33600
5471,33472
5472,33408
5473,33472
5474,33472
5475,33472
5476,33472
5477,33472
5478,33472
5479,33536
5480,33536
5481,33536
5482,33600
5483,33536
5484,33536
5485,33600
5486,33600
5487,33536
5488,33408
5489,33408
5490,33408
5491,33408
5492,33344
5493,33344
5494,33408
5495,33408
5496,33408
5497,33408
5498,33472
5499,33472
5500,33472
5501,33472
5502,33472
5503,33536
5504,33472
5505,33472
5506,33472
5507,33600
5508,33536
5509,33600
5510,33536
5511,33728
5512,33792
5513,33920
5514,33984
5515,34048
5516,34112
5517,34176
5518,34240
5519,34240
5520,34304
5521,34368
5522,34496
5523,34688
5524,34880
5525,34944
5526,34944
5527,34816
5528,34752
5529,34560
5530,34368
5531,34176
5532,33984
5533,33728
5534,33472
5535,33344
5536,33280
5537,33280
5538,33216
5539,33216
5540,33216
5541,33216
5542,33216
5543,33280
5544,33408
5545,33536
5546,33536
5547,33600
5548,33664
5549,33728
5550,33792
5551,33728
5552,33600
5553,33536
5554,33536
5555,33664
5556,34368
5557,35776
5558,37888
5559,40576
5560,42496
5561,42816
5562,41600
5563,38848
5564,35840
5565,33280
5566,31424
5567,30272
5568,29888
5569,30080
5570,30592
5571,31360
5572,32192
5573,33024
5574,32960
5575,33856
5576,34048
5577,34240
5578,34304
5579,34304
5580,34240
5581,34240
5582,34176
5583,34112
5584,34112
5585,34112
5586,34176
5587,34176
5588,34240
5589,34176
5590,34240
5591,34240
5592,34240
5593,34304
5594,34368
5595,34432
5596,34432
5597,34496
5598,34432
5599,34432
5600,34432
5601,34368
5602,34432
5603,34560
5604,34624
5605,34688
5606,34752
5607,34880
5608,34944
5609,34944
5610,35008
5611,35072
5612,35072
5613,35072
5614,35136
5615,35264
5616,35392
5617,35456
5618,35520
5619,35520
5620,35456
5621,35392
5622,35328
5623,35264
5624,35264
5625,35264
5626,35264
5627,35264
5628,35328
5629,35328
5630,35264
5631,35200
5632,35072
5633,34880
5634,34624
5635,34432
5636,34240
5637,34048
5638,33728
5639,33536
5640,33408
5641,33280
5642,33088
5643,33024
5644,32960
5645,32896
5646,32768
5647,32704
5648,32768
5649,32832
5650,32832
5651,32896
5652,33024
5653,33088
5654,33216
5655,33280
5656,33344
5657,33472
5658,33408
5659,33536
5660,33600
5661,33792
5662,33856
5663,33792
5664,33664
5665,33600
5666,33536
5667,33472
5668,33472
5669,33472
5670,33536
5671,33536
5672,33600
5673,33728
5674,33728
5675,33856
5676,33920
5677,33984
5678,33920
5679,33856
5680,33792
5681,33856
5682,33920
5683,33856
5684,33600
5685,33408
5686,33344
5687,33344
5688,33280
5689,33408
5690,33536
5691,33664
5692,33728
5693,33792
5694,33856
5695,33920
5696,33856
5697,33856
5698,33728
5699,33728
5700,33664
5701,33664
5702,33728
5703,33728
5704,33792
5705,33792
5706,33792
5707,33856
5708,33856
5709,33792
5710,33792
5711,33856
5712,33856
5713,33856
5714,33856
5715,33920
5716,33920
5717,33856
5718,33856
5719,33984
5720,33984
5721,33920
5722,33984
5723,34048
5724,33984
5725,33856
5726,33792
5727,33728
5728,33792
5729,33792
5730,33856
5731,33920
5732,33920
5733,33984
5734,33920
5735,33984
5736,34048
5737,34048
5738,33984
5739,33984
5740,34048
5741,34048
5742,34048
5743,34048
5744,34048
5745,34048
5746,34048
5747,34112
5748,34048
5749,34304
5750,34368
5751,34496
5752,34624
5753,34624
5754,34624
5755,34688
5756,34880
5757,35008
5758,35072
5759,35072
5760,35136
5761,35072
5762,34816
5763,34688
5764,34240
5765,33984
5766,33792
5767,33600
5768,33408
5769,33408
5770,33472
5771,33408
5772,33408
5773,33408
5774,33408
5775,33408
5776,33408
5777,33472
5778,33600
5779,33600
5780,33600
5781,33536
5782,33536
5783,33536
5784,33536
5785,33664
5786,33792
5787,33728
5788,33728
5789,33856
5790,34304
5791,35392
5792,38272
5793,38592
5794,42304
5795,43072
5796,42048
5797,39424
5798,35968
5799,32960
5800,30784
5801,29568
5802,29312
5803,29632
5804,30336
5805,31168
5806,32000
5807,32960
5808,33024
5809,33664
5810,33856
5811,34048
5812,34048
5813,33984
5814,33920
5815,33920
5816,33856
5817,33792
5818,33728
5819,33792
5820,33856
5821,33920
5822,33984
5823,34048
5824,34240
5825,34304
5826,34304
5827,34304
5828,34304
5829,34240
5830,34240
5831,34368
5832,34432
5833,34496
5834,34496
5835,34496
5836,34560
5837,34560
5838,34624
5839,34688
5840,34880
5841,34944
5842,35008
5843,35072
5844,35136
5845,35200
5846,35200
5847,35200
5848,35264
5849,35328
5850,35328
5851,35392
5852,35392
5853,35456
5854,35456
5855,35520
5856,35584
5857,35648
5858,35648
5859,35648
5860,35648
5861,35584
5862,35520
5863,35392
5864,35328
5865,35200
5866,35136
5867,34880
5868,34816
5869,34624
5870,34368
5871,34112
5872,33920
5873,33728
5874,33536
5875,33344
5876,33152
5877,33088
5878,33088
5879,33088
5880,33024
5881,33024
5882,33024
5883,33024
5884,33024
5885,33088
5886,33152
5887,33280
5888,33344
5889,33408
5890,33472
5891,33536
5892,33536
5893,33600
5894,33600
5895,33664
5896,33664
5897,33728
5898,33728
5899,33728
5900,33664
5901,33600
5902,33664
5903,33664
5904,33664
5905,33664
5906,33728
5907,33728
5908,33728
5909,33728
5910,33792
5911,33792
5912,33792
5913,33728
5914,33728
5915,33728
5916,33664
5917,33600
5918,33536
5919,33536
5920,33472
5921,33408
5922,33472
5923,33536
5924,33536
5925,33536
5926,33536
5927,33600
5928,33536
5929,33600
5930,33600
5931,33600
5932,33600
5933,33600
5934,33600
5935,33664
5936,33728
5937,33728
5938,33664
5939,33600
5940,33600
5941,33600
5942,33600
5943,33600
5944,33664
5945,33664
5946,33600
5947,33600
5948,33664
5949,33664
5950,33600
5951,33600
5952,33600
5953,33600
5954,33600
5955,33600
5956,33664
5957,33792
5958,33728
5959,33664
5960,33664
5961,33664
5962,33664
5963,33664
5964,33664
5965,33664
5966,33728
5967,33664
5968,33664
5969,33728
5970,33664
5971,33664
5972,33664
5973,33600
5974,33664
5975,33664
5976,33664
5977,33728
5978,33728
5979,33728
5980,33728
5981,33792
5982,33856
5983,33856
5984,33856
5985,33984
5986,34176
5987,34368
5988,34432
5989,34432
5990,34496
5991,34496
5992,34560
5993,34688
5994,34816
5995,34880
5996,34816
5997,34752
5998,34688
5999,34496
6000,34304
6001,34112
6002,33792
6003,33728
6004,33536
6005,33344
6006,33280
6007,33280
6008,33216
6009,33152
6010,33152
6011,33152
6012,33152
6013,33152
6014,33216
6015,33344
6016,33408
6017,33408
6018,33408
6019,33472
6020,33536
6021,33536
6022,33536
6023,33536
6024,33600
6025,33792
6026,34304
6027,35584
6028,37696
6029,40384
6030,42304
6031,42752
6032,40512
6033,40064
6034,35712
6035,32896
6036,30912
6037,29760
6038,29376
6039,29568
6040,30208
6041,30976
6042,31744
6043,32512
6044,33088
6045,33472
6046,33728
6047,33856
6048,33984
6049,33984
6050,33984
6051,33984
6052,33984
6053,33920
6054,33856
6055,33856
6056,33792
6057,33728
6058,33728
6059,33728
6060,33792
6061,33920
6062,33984
6063,33984
6064,34048
6065,34112
6066,34112
6067,34176
6068,34176
6069,34240
6070,34240
6071,34240
6072,34304
6073,34432
6074,34496
6075,34496
6076,34560
6077,34688
6078,34688
6079,34688
6080,34688
6081,34752
6082,34816
6083,34816
6084,34880
6085,34944
6086,35008
6087,35072
6088,35072
6089,35136
6090,35200
6091,35264
6092,35264
6093,35200
6094,35136
6095,35136
6096,35136
6097,35136
6098,35200
6099,35200
6100,35200
6101,35136
6102,35008
6103,34880
6104,34688
6105,34432
6106,34240
6107,33984
6108,33856
6109,33664
6110,33472
6111,33408
6112,33280
6113,33088
6114,32960
6115,32960
6116,32960
6117,32896
6118,32960
6119,32960
6120,33024
6121,33088
6122,33088
6123,33152
6124,33216
6125,33216
6126,33216
6127,33280
6128,33344
6129,33408
6130,33472
6131,33536
6132,33664
6133,33664
6134,33728
6135,33728
6136,33728
6137,33728
6138,33728
6139,33728
6140,33728
6141,33728
6142,33664
6143,33664
6144,33728
6145,33792
6146,33728
6147,33664
6148,33664
6149,33664
6150,33664
6151,33728
6152,33728
6153,33664
6154,33600
6155,33600
6156,33664
6157,33664
6158,33664
6159,33664
6160,33728
6161,33792
6162,33728
6163,33728
6164,33728
6165,33792
6166,33792
6167,33728
6168,33792
6169,33792
6170,33792
6171,33728
6172,33728
6173,33728
6174,33792
6175,33792
6176,33856
6177,33920
6178,33984
6179,33984
6180,33984
6181,33984
6182,34048
6183,33984
6184,33920
6185,33856
6186,33920
6187,33984
6188,34048
6189,34112
6190,34240
6191,34176
6192,34112
6193,34048
6194,34048
6195,33984
6196,33920
6197,33920
6198,33984
6199,33984
6200,34048
6201,34112
6202,34176
6203,34176
6204,34112
6205,34048
6206,34048
6207,33984
6208,33920
6209,33984
6210,34112
6211,34240
6212,34432
6213,34496
6214,34560
6215,34688
6216,34752
6217,34816
6218,34880
6219,35008
6220,35072
6221,35008
6222,34880
6223,34816
6224,34624
6225,34432
6226,34176
6227,34048
6228,33920
6229,33728
6230,33600
6231,33600
6232,33472
6233,33280
6234,33152
6235,33152
6236,33152
6237,33216
6238,33280
6239,33408
6240,33536
6241,33600
6242,33600
6243,33600
6244,33600
6245,33600
6246,33600
6247,33600
6248,33600
6249,33600
6250,33664
6251,33984
6252,34880
6253,36480
6254,38976
6255,41728
6256,43200
6257,43072
6258,41152
6259,37888
6260,34688
6261,32064
6262,30336
6263,29504
6264,29504
6265,30016
6266,30784
6267,31616
6268,32384
6269,33088
6270,33600
6271,33856
6272,34048
6273,34240
6274,34240
6275,34240
6276,34240
6277,34240
6278,34176
6279,34048
6280,33920
6281,33920
6282,33920
6283,33920
6284,33920
6285,33984
6286,34048
6287,34112
6288,34176
6289,34176
6290,34240
6291,34240
6292,34240
6293,34304
6294,34432
6295,34496
6296,34432
6297,34496
6298,34496
6299,34496
6300,34496
6301,34496
6302,34624
6303,34688
6304,34752
6305,34816
6306,34880
6307,35008
6308,35072
6309,35072
6310,35136
6311,35136
6312,35200
6313,35200
6314,35264
6315,35392
6316,35392
6317,35392
6318,35392
6319,35392
6320,35456
6321,35456
6322,35520
6323,35584
6324,35584
6325,35520
6326,35392
6327,35264
6328,35072
6329,34816
6330,34560
6331,34368
6332,34112
6333,33856
6334,33600
6335,33408
6336,33280
6337,33152
6338,33024
6339,32960
6340,32896
6341,32832
6342,32768
6343,32768
6344,32832
6345,32896
6346,32832
6347,32896
6348,32960
6349,32960
6350,33024
6351,33024
6352,33152
6353,33216
6354,33216
6355,33216
6356,33280
6357,33344
6358,33344
6359,33344
6360,33344
6361,33344
6362,33344
6363,33344
6364,33408
6365,33472
6366,33408
6367,33408
6368,33472
6369,33472
6370,33472
6371,33472
6372,33472
6373,33536
6374,33536
6375,33536
6376,33472
6377,33472
6378,33408
6379,33344
6380,33344
6381,33344
6382,33408
6383,33472
6384,33536
6385,33600
6386,33600
6387,33600
6388,33600
6389,33600
6390,33600
6391,33536
6392,33536
6393,33600
6394,33728
6395,33856
6396,33856
6397,33856
6398,33792
6399,33792
6400,33792
6401,33856
6402,33856
6403,33856
6404,33856
6405,33792
6406,33792
6407,33856
6408,33792
6409,33792
6410,33856
6411,33920
6412,33920
6413,33920
6414,33920
6415,33920
6416,33920
6417,33856
6418,33856
6419,33920
6420,33984
6421,33984
6422,33984
6423,33984
6424,33984
6425,33984
6426,33984
6427,34048
6428,33984
6429,33984
6430,34048
6431,34112
6432,34112
6433,34112
6434,34112
6435,34112
6436,34176
6437,34112
6438,34112
6439,34112
6440,34112
6441,34112
6442,34112
6443,34048
6444,34048
6445,34048
6446,34112
6447,34112
6448,34176
6449,34176
6450,34112
6451,34112
6452,34112
6453,34112
6454,34112
6455,34048
6456,34176
6457,34304
6458,34368
6459,34496
6460,34688
6461,34816
6462,34816
6463,34816
6464,34816
6465,34880
6466,34944
6467,35008
6468,35072
6469,35136
6470,35072
6471,34880
6472,34688
6473,34496
6474,34304
6475,34048
6476,33920
6477,33856
6478,33728
6479,33600
6480,33536
6481,33472
6482,33472
6483,33408
6484,33344
6485,33408
6486,33472
6487,33472
6488,33536
6489,33664
6490,33728
6491,33728
6492,33728
6493,33664
6494,33664
6495,33600
6496,33536
6497,33600
6498,33856
6499,34240
6500,35200
6501,36928
6502,39552
6503,42048
6504,43136
6505,42624
6506,40384
6507,37056
6508,33728
6509,31232
6510,29760
6511,29248
6512,29376
6513,30016
6514,30848
6515,31744
6516,32448
6517,32960
6518,33408
6519,33728
6520,33856
6521,33920
6522,33920
6523,33984
6524,33920
6525,33856
6526,33856
6527,33856
6528,33856
6529,33856
6530,33792
6531,33856
6532,33856
6533,33920
6534,33920
6535,33920
6536,33984
6537,33984
6538,33984
6539,34048
6540,34112
6541,34176
6542,34240
6543,34304
6544,34432
6545,34496
6546,34496
6547,34496
6548,34496
6549,34560
6550,34624
6551,34688
6552,34816
6553,34880
6554,34880
6555,34816
6556,34880
6557,34944
6558,35008
6559,35008
6560,35136
6561,35200
6562,35200
6563,35264
6564,35264
6565,35328
6566,35328
6567,35328
6568,35328
6569,35392
6570,35392
6571,35392
6572,35456
6573,35456
6574,35392
6575,35264
6576,35136
6577,35008
6578,34816
6579,34560
6580,34240
6581,34048
6582,33792
6583,33600
6584,33408
6585,33344
6586,33216
6587,33024
6588,32960
6589,32960
6590,32960
6591,32960
6592,32896
6593,32960
6594,33024
6595,33088
6596,33088
6597,33152
6598,33216
6599,33280
6600,33280
6601,33344
6602,33408
6603,33472
6604,33472
6605,33472
6606,33472
6607,33472
6608,33472
6609,33472
6610,33472
6611,33472
6612,33472
6613,33472
6614,33536
6615,33600
6616,33600
6617,33600
6618,33600
6619,33600
6620,33536
6621,33536
6622,33536
6623,33536
6624,33600
6625,33536
6626,33536
6627,33600
6628,33600
6629,33536
6630,33536
6631,33536
6632,33600
6633,33600
6634,33600
6635,33664
6636,33664
6637,33600
6638,33536
6639,33536
6640,33536
6641,33600
6642,33600
6643,33664
6644,33728
6645,33728
6646,33664
6647,33664
6648,33728
6649,33728
6650,33664
6651,33728
6652,33792
6653,33792
6654,33792
6655,33792
6656,33792
6657,33856
6658,33856
6659,33792
6660,33856
6661,33920
6662,33920
6663,33856
6664,33856
6665,33856
6666,33792
6667,33728
6668,33728
6669,33792
6670,33792
6671,33792
6672,33856
6673,33856
6674,33856
6675,33856
6676,33920
6677,33984
6678,33984
6679,33984
6680,33984
6681,33984
6682,33984
6683,33920
6684,33920
6685,33920
6686,33920
6687,33920
6688,33920
6689,33984
6690,34048
6691,33984
6692,33920
6693,33920
6694,33920
6695,33920
6696,33920
6697,33920
6698,33920
6699,33920
6700,33920
6701,33920
6702,33984
6703,33920
6704,33920
6705,33856
6706,33920
6707,33984
6708,34048
6709,34112
6710,34176
6711,34304
6712,34368
6713,34432
6714,34560
6715,34752
6716,34880
6717,34880
6718,34880
6719,34880
6720,34816
6721,34816
6722,34816
6723,34752
6724,34688
6725,34432
6726,34240
6727,34112
6728,33984
6729,33856
6730,33792
6731,33728
6732,33664
6733,33536
6734,33472
6735,33472
6736,33536
6737,33536
6738,33536
6739,33664
6740,33728
6741,33792
6742,33856
6743,33984
6744,34112
6745,34048
6746,33984
6747,33920
6748,33920
6749,33856
6750,33856
6751,34112
6752,34688
6753,35904
6754,37824
6755,40576
6756,42816
6757,43584
6758,42496
6759,40000
6760,36608
6761,33536
6762,31296
6763,30080
6764,29696
6765,30016
6766,30592
6767,31360
6768,32192
6769,32896
6770,33408
6771,33728
6772,33984
6773,34176
6774,34240
6775,34240
6776,34304
6777,34304
6778,34240
6779,34176
6780,34112
6781,34112
6782,34112
6783,34048
6784,33984
6785,33984
6786,33984
6787,34048
6788,34048
6789,34176
6790,34176
6791,34176
6792,34176
6793,34240
6794,34368
6795,34368
6796,34368
6797,34368
6798,34496
6799,34560
6800,34688
6801,34816
6802,34880
6803,34816
6804,34688
6805,34624
6806,34624
6807,34752
6808,34880
6809,34944
6810,35072
6811,35072
6812,35008
6813,35008
6814,35136
6815,35200
6816,35328
6817,35392
6818,35456
6819,35456
6820,35264
6821,35136
6822,35136
6823,35136
6824,35200
6825,35136
6826,35136
6827,35136
6828,35136
6829,35072
6830,34944
6831,34688
6832,34432
6833,34048
6834,33792
6835,33600
6836,33472
6837,33280
6838,33088
6839,32960
6840,32896
6841,32768
6842,32704
6843,32704
6844,32768
6845,32768
6846,32704
6847,32768
6848,32832
6849,32832
6850,32832
6851,32832
6852,32896
6853,32960
6854,33024
6855,33152
6856,33280
6857,33408
6858,33344
6859,33152
6860,33024
6861,32896
6862,32832
6863,32896
6864,32960
6865,33088
6866,33216
6867,33216
6868,33280
6869,33280
6870,33280
6871,33280
6872,33280
6873,33344
6874,33344
6875,33280
6876,33280
6877,33216
6878,33152
6879,33024
6880,33024
6881,33152
6882,33280
6883,33344
6884,33344
6885,33344
6886,33280
6887,33152
6888,33152
6889,33280
6890,33344
6891,33344
6892,33280
6893,33344
6894,33344
6895,33344
6896,33344
6897,33408
6898,33472
6899,33472
6900,33472
6901,33472
6902,33536
6903,33536
6904,33536
6905,33600
6906,33664
6907,33728
6908,33728
6909,33728
6910,33728
6911,33728
6912,33728
6913,33728
6914,33728
6915,33728
6916,33664
6917,33600
6918,33664
6919,33792
6920,33792
6921,33792
6922,33856
6923,33856
6924,33856
6925,33792
6926,33856
6927,33920
6928,33920
6929,33920
6930,33920
6931,33920
6932,33856
6933,33856
6934,33920
6935,33984
6936,34048
6937,34048
6938,34048
6939,34112
6940,34048
6941,33984
6942,33856
6943,33856
6944,33920
6945,33984
6946,34048
6947,34176
6948,34176
6949,34240
6950,34176
6951,34176
6952,34176
6953,34240
6954,34240
6955,34240
6956,34304
6957,34368
6958,34368
6959,34432
6960,34560
6961,34752
6962,34816
6963,34880
6964,34880
6965,35008
6966,35072
6967,35200
6968,35328
6969,35392
6970,35392
6971,35200
6972,34944
6973,34752
6974,34560
6975,34240
6976,33984
6977,33792
6978,33664
6979,33600
6980,33600
6981,33664
6982,33664
6983,33664
6984,33664
6985,33728
6986,33792
6987,33856
6988,33920
6989,33984
6990,33984
6991,33984
6992,33856
6993,33792
6994,33728
6995,33664
6996,33600
6997,33664
6998,33792
6999,34176
7000,35200
7001,36928
7002,39488
7003,42048
7004,43072
7005,42688
7006,40768
7007,37760
7008,34752
7009,32384
7010,30784
7011,30016
7012,29888
7013,30208
7014,30848
7015,31680
7016,32384
7017,33088
7018,33536
7019,33856
7020,33984
7021,34112
7022,34112
7023,34048
7024,33984
7025,33920
7026,33984
7027,34048
7028,34048
7029,34112
7030,34176
7031,34240
7032,34304
7033,34240
7034,34176
7035,34240
7036,34368
7037,34368
7038,34240
7039,34240
7040,34304
7041,34304
7042,34304
7043,34304
7044,34304
7045,34368
7046,34432
7047,34496
7048,34560
7049,34688
7050,34752
7051,34816
7052,34816
7053,34816
7054,34752
7055,34816
7056,34880
7057,34944
7058,34944
7059,35008
7060,35072
7061,35136
7062,35136
7063,35200
7064,35264
7065,35328
7066,35328
7067,35328
7068,35392
7069,35456
7070,35520
7071,35520
7072,35520
7073,35520
7074,35456
7075,35328
7076,35264
7077,35072
7078,34880
7079,34688
7080,34496
7081,34304
7082,34048
7083,33792
7084,33600
7085,33472
7086,33344
7087,33152
7088,33088
7089,33024
7090,32960
7091,32960
7092,33024
7093,33088
7094,33216
7095,33216
7096,33280
7097,33408
7098,33472
7099,33536
7100,33536
7101,33536
7102,33600
7103,33600
7104,33600
7105,33664
7106,33728
7107,33792
7108,33792
7109,33792
7110,33856
7111,33792
7112,33728
7113,33728
7114,33856
7115,33856
7116,33856
7117,33792
7118,33728
7119,33728
7120,33728
7121,33728
7122,33792
7123,33792
7124,33856
7125,33792
7126,33792
7127,33856
7128,33920
7129,33984
7130,34048
7131,34112
7132,34048
7133,33792
7134,33664
7135,33600
7136,33600
7137,33536
7138,33536
7139,33600
7140,33728
7141,33728
7142,33728
7143,33792
7144,33856
7145,33856
7146,33920
7147,33984
7148,33984
7149,33920
7150,33856
7151,33856
7152,33856
7153,33920
7154,33920
7155,33984
7156,33984
7157,33984
7158,33920
7159,33856
7160,33856
7161,33792
7162,33728
7163,33728
7164,33792
7165,33984
7166,34112
7167,34112
7168,34048
7169,34048
7170,33984
7171,33920
7172,33984
7173,33984
7174,33920
7175,33856
7176,33792
7177,33728
7178,33728
7179,33664
7180,33664
7181,33728
7182,33792
7183,33792
7184,33856
7185,33856
7186,33792
7187,33728
7188,33792
7189,33984
7190,34176
7191,34368
7192,34432
7193,34432
7194,34368
7195,34304
7196,34368
7197,34496
7198,34752
7199,34880
7200,34944
7201,34880
7202,34752
7203,34560
7204,34368
7205,34112
7206,33984
7207,33856
7208,33600
7209,33472
7210,33408
7211,33408
7212,33280
7213,33216
7214,33152
7215,33088
7216,32960
7217,32960
7218,33088
7219,33280
7220,33408
7221,33472
7222,33536
7223,33600
7224,33664
7225,33600
7226,33600
7227,33600
7228,33472
7229,33472
7230,33664
7231,34240
7232,35520
7233,37632
7234,40384
7235,42624
7236,43264
7237,42176
7238,39424
7239,36032
7240,33024
7241,30912
7242,29760
7243,29504
7244,29888
7245,30464
7246,31168
7247,31936
7248,32640
7249,33152
7250,33856
7251,34048
7252,34048
7253,34048
7254,33984
7255,33984
7256,33920
7257,33920
7258,33984
7259,33984
7260,34048
7261,33984
7262,33920
7263,33920
7264,33856
7265,33984
7266,33920
7267,33984
7268,34176
7269,34112
7270,34304
7271,34368
7272,34368
7273,34368
7274,34368
7275,34496
7276,34560
7277,34688
7278,34688
7279,34880
7280,34880
7281,34944
7282,34944
7283,34880
7284,34816
7285,35008
7286,35136
7287,35200
7288,35264
7289,35264
7290,35264
7291,35200
7292,35264
7293,35264
7294,35584
7295,35712
7296,35712
7297,35840
7298,35840
7299,35840
7300,35840
7301,35840
7302,35840
7303,35840
7304,35776
7305,35712
7306,35584
7307,35328
7308,35008
7309,34752
7310,34496
7311,34176
7312,33856
7313,33664
7314,33472
7315,33280
7316,33024
7317,32896
7318,32896
7319,32896
7320,32832
7321,32832
7322,32896
7323,32832
7324,32768
7325,32896
7326,33088
7327,33216
7328,33216
7329,33152
7330,33152
7331,33152
7332,33216
7333,33152
7334,33152
7335,33152
7336,33280
7337,33408
7338,33344
7339,33536
7340,33600
7341,33536
7342,33664
7343,33728
7344,33728
7345,33664
7346,33664
7347,33728
7348,33728
7349,33664
7350,33728
7351,33728
7352,33728
7353,33664
7354,33664
7355,33664
7356,33664
7357,33600
7358,33472
7359,33472
7360,33472
7361,33600
7362,33664
7363,33728
7364,33728
7365,33664
7366,33664
7367,33664
7368,33600
7369,33728
7370,33664
7371,33728
7372,33792
7373,33856
7374,33856
7375,33920
7376,33856
7377,33728
7378,33600
7379,33536
7380,33600
7381,33600
7382,33536
7383,33536
7384,33728
7385,33920
7386,33856
7387,33792
7388,33728
7389,33664
7390,33664
7391,33664
7392,33728
7393,33664
7394,33728
7395,33728
7396,33792
7397,33792
7398,33728
7399,33664
7400,33600
7401,33600
7402,33600
7403,33536
7404,33600
7405,33728
7406,33792
7407,33728
7408,33664
7409,33600
7410,33600
7411,33600
7412,33728
7413,33792
7414,33792
7415,33664
7416,33664
7417,33792
7418,33920
7419,34176
7420,34368
7421,34496
7422,34496
7423,34432
7424,34432
7425,34496
7426,34624
7427,34752
7428,34752
7429,34880
7430,34880
7431,34752
7432,34496
7433,34176
7434,33856
7435,33664
7436,33472
7437,33344
7438,33344
7439,33280
7440,33280
7441,33216
7442,33216
7443,33216
7444,33280
7445,33408
7446,33472
7447,33408
7448,33408
7449,33408
7450,33536
7451,33600
7452,33600
7453,33600
7454,33664
7455,33664
7456,33728
7457,33856
7458,34176
7459,35008
7460,36736
7461,39360
7462,42048
7463,43392
7464,42944
7465,40832
7466,37568
7467,34432
7468,31936
7469,30336
7470,29632
7471,29696
7472,30400
7473,30464
7474,31808
7475,32640
7476,33216
7477,33664
7478,33920
7479,34112
7480,34176
7481,34240
7482,34176
7483,34112
7484,34112
7485,34112
7486,34048
7487,33984
7488,33984
7489,33984
7490,34048
7491,33984
7492,33984
7493,34048
7494,34048
7495,34112
7496,34176
7497,34176
7498,34176
7499,34176
7500,34176
7501,34240
7502,34304
7503,34240
7504,34176
7505,34240
7506,34304
7507,34368
7508,34496
7509,34624
7510,34688
7511,34688
7512,34752
7513,34880
7514,34944
7515,35008
7516,35072
7517,35136
7518,35136
7519,35136
7520,35200
7521,35264
7522,35264
7523,35200
7524,35136
7525,35136
7526,35136
7527,35136
7528,35136
7529,35200
7530,35392
7531,35456
7532,35392
7533,35392
7534,35328
7535,35264
7536,35072
7537,34880
7538,34688
7539,34496
7540,34304
7541,33984
7542,33728
7543,33536
7544,33344
7545,33152
7546,33024
7547,32832
7548,32832
7549,32896
7550,32896
7551,32960
7552,32896
7553,32832
7554,32832
7555,32768
7556,32704
7557,32576
7558,32640
7559,32768
7560,32896
7561,33024
7562,33152
7563,33280
7564,33280
7565,33280
7566,33280
7567,33216
7568,33216
7569,33152
7570,33088
7571,33216
7572,33216
7573,33216
7574,33152
7575,33152
7576,33152
7577,33216
7578,33152
7579,33216
7580,33216
7581,33152
7582,33088
7583,33088
7584,33152
7585,33216
7586,33216
7587,33152
7588,33152
7589,33216
7590,33216
7591,33280
7592,33344
7593,33344
7594,33280
7595,33216
7596,33280
7597,33408
7598,33472
7599,33472
7600,33472
7601,33536
7602,33536
7603,33472
7604,33408
7605,33408
7606,33408
7607,33408
7608,33408
7609,33536
7610,33536
7611,33536
7612,33600
7613,33728
7614,33792
7615,33792
7616,33856
7617,33920
7618,33920
7619,33856
7620,33792
7621,33792
7622,33792
7623,33792
7624,33856
7625,34048
7626,34240
7627,34368
7628,34560
7629,34624
7630,34688
7631,34816
7632,34944
7633,35072
7634,35264
7635,35328
7636,35328
7637,35200
7638,35136
7639,34880
7640,34624
7641,34304
7642,34112
7643,33920
7644,33792
7645,33664
7646,33536
7647,33536
7648,33536
7649,33472
7650,33536
7651,33600
7652,33600
7653,33600
7654,33728
7655,33728
7656,33728
7657,33728
7658,33728
7659,33728
7660,33728
7661,33728
7662,33856
7663,33920
7664,33920
7665,33920
7666,34112
7667,34752
7668,36224
7669,38656
7670,41536
7671,43264
7672,43264
7673,41472
7674,38336
7675,35072
7676,32512
7677,30784
7678,29952
7679,29888
7680,30272
7681,30976
7682,31936
7683,32000
7684,33152
7685,33600
7686,33920
7687,34176
7688,34368
7689,34432
7690,34432
7691,34432
7692,34432
7693,34432
7694,34304
7695,34240
7696,34176
7697,34176
7698,34112
7699,34112
7700,34112
7701,34176
7702,34240
7703,34304
7704,34304
7705,34432
7706,34432
7707,34432
7708,34496
7709,34624
7710,34752
7711,34880
7712,35008
7713,34944
7714,35008
7715,34944
7716,34944
7717,34944
7718,35008
7719,35008
7720,35072
7721,35200
7722,35264
7723,35328
7724,35392
7725,35456
7726,35520
7727,35584
7728,35584
7729,35648
7730,35776
7731,35904
7732,35904
7733,35904
7734,35840
7735,35840
7736,35840
7737,35776
7738,35776
7739,35712
7740,35712
7741,35648
7742,35584
7743,35520
7744,35328
7745,35136
7746,34944
7747,34752
7748,34496
7749,34240
7750,34048
7751,33920
7752,33792
7753,33536
7754,33344
7755,33216
7756,33152
7757,33088
7758,33152
7759,33280
7760,33344
7761,33408
7762,33472
7763,33600
7764,33664
7765,33728
7766,33792
7767,33920
7768,34048
7769,34112
7770,34176
7771,34176
7772,34176
7773,34176
7774,34176
7775,34112
7776,34112
7777,34048
7778,33984
7779,33984
7780,33984
7781,34048
7782,34048
7783,34112
7784,34176
7785,34240
7786,34176
7787,34176
7788,34176
7789,34304
7790,34304
7791,34368
7792,34368
7793,34432
7794,34368
7795,34304
7796,34240
7797,34176
7798,34048
7799,33984
7800,34048
7801,34112
7802,34240
7803,34304
7804,34368
7805,34432
7806,34432
7807,34432
7808,34432
7809,34496
7810,34496
7811,34432
7812,34432
7813,34496
7814,34560
7815,34624
7816,34624
7817,34688
7818,34624
7819,34688
7820,34624
7821,34624
7822,34624
7823,34624
7824,34560
7825,34560
7826,34624
7827,34688
7828,34816
7829,34944
7830,35136
7831,35264
7832,35392
7833,35456
7834,35456
7835,35520
7836,35584
7837,35712
7838,35840
7839,35904
7840,35904
7841,35840
7842,35712
7843,35520
7844,35264
7845,35072
7846,34816
7847,34560
7848,34496
7849,34240
7850,34176
7851,34176
7852,34112
7853,34112
7854,34176
7855,34304
7856,34240
7857,34112
7858,33984
7859,33920
7860,33920
7861,33920
7862,33920
7863,33920
7864,33984
7865,33984
7866,34048
7867,33984
7868,33920
7869,33920
7870,34240
7871,35264
7872,37120
7873,39808
7874,42368
7875,43392
7876,42752
7877,40320
7878,36928
7879,33792
7880,31360
7881,29952
7882,29312
7883,29440
7884,29952
7885,30720
7886,31552
7887,32320
7888,32960
7889,33408
7890,33664
7891,33856
7892,34048
7893,34048
7894,34112
7895,34112
7896,34112
7897,34048
7898,33920
7899,33792
7900,33728
7901,33664
7902,33600
7903,33536
7904,33600
7905,33664
7906,33728
7907,33792
7908,33856
7909,33984
7910,34048
7911,34048
7912,34048
7913,34176
7914,34368
7915,34560
7916,34624
7917,34560
7918,34432
7919,34304
7920,34304
7921,34432
7922,34560
7923,34560
7924,34624
7925,34688
7926,34816
7927,34880
7928,35008
7929,35136
7930,35264
7931,35328
7932,35392
7933,35520
7934,35584
7935,35648
7936,35648
7937,35584
7938,35584
7939,35520
7940,35520
7941,35456
7942,35456
7943,35328
7944,35264
7945,35072
7946,34880
7947,34688
7948,34368
7949,33984
7950,33728
7951,33408
7952,33088
7953,33024
7954,32768
7955,32576
7956,32384
7957,32192
7958,32064
7959,32000
7960,31936
7961,32000
7962,32000
7963,32000
7964,31936
7965,31872
7966,31808
7967,31872
7968,31872
7969,31936
7970,32000
7971,32128
7972,32192
7973,32256
7974,32192
7975,32256
7976,32256
7977,32256
7978,32256
7979,32256
7980,32256
7981,32320
7982,32384
7983,32448
7984,32448
7985,32384
7986,32256
7987,32192
7988,32128
7989,32128
7990,32128
7991,32128
7992,32192
7993,32256
7994,32256
7995,32320
7996,32448
7997,32640
7998,32640
7999,32768
8000,32960
8001,33216
8002,33408
8003,33600
8004,33728
8005,33920
8006,34048
8007,34176
8008,34176
8009,34176
8010,34112
8011,34048
8012,34048
8013,33984
8014,34048
8015,34048
8016,33984
8017,33984
8018,33984
8019,33984
8020,33984
8021,34048
8022,34112
8023,34112
8024,34112
8025,34112
8026,34048
8027,34048
8028,34048
8029,34112
8030,34240
8031,34368
8032,34496
8033,34624
8034,34752
8035,34752
8036,34816
8037,34880
8038,35072
8039,35136
8040,35200
8041,35264
8042,35200
8043,35072
8044,34880
8045,34624
8046,34304
8047,33984
8048,33536
8049,33216
8050,32960
8051,32832
8052,32640
8053,32576
8054,32512
8055,32512
8056,32640
8057,32832
8058,32832
8059,33024
8060,33088
8061,33088
8062,33152
8063,33280
8064,33408
8065,33472
8066,33600
8067,33728
8068,33792
8069,33856
8070,33984
8071,34368
8072,35968
8073,36096
8074,39296
8075,42048
8076,43520
8077,43264
8078,41280
8079,38016
8080,34752
8081,32192
8082,30592
8083,29888
8084,30016
8085,30592
8086,31424
8087,32256
8088,33152
8089,33856
8090,34304
8091,34496
8092,34624
8093,34624
8094,34560
8095,34496
8096,34432
8097,34304
8098,34240
8099,34176
8100,34176
8101,34240
8102,34240
8103,34304
8104,34368
8105,34368
8106,34368
8107,34368
8108,34432
8109,34496
8110,34560
8111,34624
8112,34624
8113,34688
8114,34752
8115,34752
8116,34688
8117,34688
8118,34688
8119,34752
8120,34816
8121,34944
8122,35072
8123,35136
8124,35200
8125,35264
8126,35328
8127,35328
8128,35392
8129,35520
8130,35584
8131,35648
8132,35648
8133,35648
8134,35584
8135,35456
8136,35392
8137,35328
8138,35328
8139,35392
8140,35392
8141,35456
8142,35520
8143,35456
8144,35328
8145,35200
8146,35136
8147,35008
8148,34816
8149,34624
8150,34368
8151,34112
8152,33792
8153,33536
8154,33280
8155,33088
8156,32896
8157,32704
8158,32448
8159,32384
8160,32320
8161,32256
8162,32320
8163,32384
8164,32384
8165,32384
8166,32384
8167,32448
8168,32448
8169,32448
8170,32512
8171,32640
8172,32704
8173,32768
8174,32768
8175,32832
8176,32896
8177,32896
8178,32832
8179,32768
8180,32704
8181,32704
8182,32704
8183,32704
8184,32768
8185,32768
8186,32768
8187,32768
8188,32768
8189,32768
8190,32704
8191,32704
8192,32768
8193,32832
8194,32896
8195,32832
8196,32832
8197,32768
8198,32640
8199,32576
8200,32512
8201,32512
8202,32512
8203,32512
8204,32640
8205,32704
8206,32704
8207,32704
8208,32768
8209,32768
8210,32832
8211,32896
8212,32896
8213,32832
8214,32704
8215,32640
8216,32576
8217,32640
8218,32704
8219,32768
8220,32832
8221,32896
8222,32960
8223,32960
8224,33024
8225,33088
8226,33216
8227,33280
8228,33344
8229,33472
8230,33600
8231,33664
8232,33664
8233,33664
8234,33728
8235,33792
8236,33792
8237,33856
8238,33984
8239,34112
8240,34176
8241,34368
8242,34560
8243,34688
8244,34816
8245,35008
8246,35136
8247,35264
8248,35264
8249,35328
8250,35392
8251,35584
8252,35712
8253,35712
8254,35776
8255,35776
8256,35648
8257,35392
8258,35072
8259,34816
8260,34496
8261,34240
8262,34048
8263,33920
8264,33856
8265,33792
8266,33728
8267,33792
8268,33792
8269,33792
8270,33728
8271,33664
8272,33664
8273,33664
8274,33728
8275,33792
8276,33792
8277,33728
8278,33664
8279,33664
8280,33728
8281,33728
8282,33728
8283,33920
8284,34240
8285,35008
8286,36416
8287,38656
8288,41408
8289,43136
8290,43264
8291,41664
8292,38528
8293,35072
8294,32192
8295,30272
8296,29376
8297,29312
8298,29760
8299,30464
8300,31360
8301,32256
8302,33024
8303,33600
8304,33856
8305,33984
8306,33984
8307,33984
8308,34048
8309,34048
8310,33984
8311,33984
8312,33920
8313,33920
8314,33984
8315,34048
8316,34112
8317,34176
8318,34240
8319,34240
8320,34368
8321,34560
8322,34752
8323,34816
8324,34752
8325,34688
8326,34688
8327,34624
8328,34624
8329,34752
8330,34880
8331,35072
8332,35072
8333,35136
8334,35200
8335,35392
8336,35520
8337,35648
8338,35712
8339,35776
8340,35776
8341,35776
8342,35712
8343,35584
8344,35584
8345,35712
8346,35968
8347,36160
8348,36224
8349,36288
8350,36352
8351,36352
8352,36480
8353,36480
8354,36480
8355,36416
8356,36288
8357,36160
8358,36096
8359,36096
8360,36032
8361,35840
8362,35712
8363,35584
8364,35456
8365,35072
8366,34752
8367,34368
8368,34112
8369,33792
8370,33536
8371,33344
8372,33344
8373,33408
8374,33344
8375,33280
8376,33216
8377,33152
8378,33152
8379,33280
8380,33344
8381,33344
8382,33280
8383,33344
8384,33280
8385,33472
8386,33536
8387,33600
8388,33664
8389,33664
8390,33664
8391,33600
8392,33536
8393,33536
8394,33472
8395,33536
8396,33600
8397,33664
8398,33728
8399,33664
8400,33664
8401,33664
8402,33664
8403,33600
8404,33600
8405,33600
8406,33664
8407,33664
8408,33664
8409,33664
8410,33600
8411,33600
8412,33472
8413,33408
8414,33344
8415,33344
8416,33280
8417,33280
8418,33344
8419,33472
8420,33472
8421,33408
8422,33280
8423,33152
8424,33088
8425,33088
8426,33152
8427,33152
8428,33152
8429,33152
8430,33216
8431,33280
8432,33408
8433,33408
8434,33472
8435,33536
8436,33536
8437,33536
8438,33472
8439,33472
8440,33408
8441,33408
8442,33344
8443,33280
8444,33088
8445,32832
8446,32832
8447,32960
8448,33088
8449,33216
8450,33344
8451,33408
8452,33472
8453,33536
8454,33728
8455,33920
8456,33920
8457,33920
8458,34048
8459,34176
8460,34240
8461,34240
8462,34432
8463,34432
8464,34496
8465,34496
8466,34688
8467,34816
8468,35008
8469,35136
8470,35200
8471,35136
8472,34944
8473,34560
8474,34176
8475,33920
8476,33792
8477,33664
8478,33344
8479,33088
8480,33024
8481,33088
8482,33088
8483,33088
8484,33152
8485,33024
8486,32896
8487,32960
8488,33280
8489,33472
8490,33472
8491,33344
8492,33152
8493,33152
8494,33280
8495,33600
8496,34048
8497,34304
8498,34368
8499,34240
8500,34112
8501,34752
8502,36672
8503,39552
8504,42176
8505,43200
8506,42432
8507,39936
8508,36736
8509,33856
8510,31488
8511,29888
8512,29248
8513,29440
8514,30080
8515,30848
8516,31680
8517,32576
8518,33280
8519,33664
8520,33920
8521,34048
8522,34048
8523,34048
8524,34112
8525,34112
8526,34048
8527,33920
8528,33920
8529,33920
8530,33984
8531,33984
8532,33920
8533,33920
8534,33984
8535,34048
8536,34112
8537,34112
8538,34048
8539,33984
8540,33984
8541,33984
8542,34048
8543,34176
8544,34240
8545,34368
8546,34560
8547,34688
8548,34688
8549,34752
8550,34816
8551,34880
8552,34816
8553,34752
8554,34752
8555,34816
8556,35008
8557,35136
8558,35328
8559,35456
8560,35456
8561,35584
8562,35648
8563,35648
8564,35584
8565,35456
8566,35456
8567,35520
8568,35456
8569,35520
8570,35520
8571,35520
8572,35520
8573,35456
8574,35392
8575,35264
8576,35200
8577,35072
8578,34880
8579,34688
8580,34560
8581,34368
8582,34112
8583,33984
8584,33984
8585,33920
8586,33792
8587,33600
8588,33472
8589,33280
8590,33152
8591,33024
8592,33088
8593,33152
8594,33216
8595,33216
8596,33408
8597,33600
8598,33664
8599,33728
8600,33856
8601,33984
8602,34048
8603,33984
8604,33920
8605,33856
8606,33856
8607,33984
8608,33984
8609,33984
8610,33984
8611,33984
8612,33984
8613,33984
8614,34048
8615,33984
8616,34048
8617,34176
8618,34176
8619,34176
8620,34176
8621,34048
8622,34048
8623,34112
8624,34240
8625,34304
8626,34176
8627,34112
8628,34112
8629,34176
8630,34240
8631,34048
8632,33984
8633,34048
8634,34112
8635,34176
8636,34176
8637,34304
8638,34368
8639,34432
8640,34496
8641,34432
8642,34496
8643,34496
8644,34432
8645,34496
8646,34560
8647,34496
8648,34432
8649,34368
8650,34240
8651,34176
8652,34176
8653,34240
8654,34368
8655,34432
8656,34496
8657,34496
8658,34432
8659,34496
8660,34560
8661,34752
8662,35008
8663,35200
8664,35264
8665,35264
8666,35264
8667,35264
8668,35328
8669,35520
8670,35584
8671,35648
8672,35712
8673,35584
8674,35456
8675,35264
8676,35072
8677,34816
8678,34624
8679,34560
8680,34432
8681,34368
8682,34176
8683,33984
8684,33984
8685,33920
8686,33920
8687,33856
8688,33856
8689,33920
8690,33920
8691,33920
8692,34048
8693,34112
8694,34112
8695,34176
8696,34304
8697,34368
8698,34496
8699,34496
8700,34432
8701,34304
8702,34304
8703,34496
8704,35456
8705,37376
8706,40192
8707,42688
8708,43584
8709,42752
8710,40320
8711,37056
8712,34048
8713,31872
8714,30592
8715,30080
8716,30208
8717,30848
8718,31744
8719,32576
8720,33280
8721,33728
8722,34112
8723,34304
8724,34496
8725,34624
8726,34688
8727,34624
8728,34560
8729,34560
8730,34560
8731,34624
8732,34752
8733,34752
8734,34688
8735,34560
8736,34432
8737,34368
8738,34432
8739,34560
8740,34624
8741,34688
8742,34752
8743,34816
8744,34880
8745,34944
8746,35008
8747,35136
8748,35200
8749,35264
8750,35328
8751,35392
8752,35520
8753,35584
8754,35584
8755,35584
8756,35584
8757,35584
8758,35648
8759,35776
8760,35904
8761,36096
8762,36224
8763,36352
8764,36352
8765,36352
8766,36352
8767,36352
8768,36288
8769,36288
8770,36288
8771,36160
8772,36032
8773,35968
8774,35904
8775,35968
8776,35968
8777,36032
8778,35968
8779,35904
8780,35776
8781,35520
8782,35392
8783,35200
8784,35072
8785,34752
8786,34432
8787,34112
8788,33920
8789,33792
8790,33792
8791,33856
8792,33984
8793,34048
8794,34048
8795,33984
8796,33984
8797,33920
8798,33856
8799,33920
8800,33920
8801,33984
8802,34112
8803,34176
8804,34304
8805,34368
8806,34368
8807,34240
8808,34240
8809,34304
8810,34176
8811,34240
8812,34304
8813,34368
8814,34432
8815,34432
8816,34496
8817,34624
8818,34688
8819,34688
8820,34688
8821,34688
8822,34688
8823,34688
8824,34752
8825,34880
8826,34816
8827,34688
8828,34624
8829,34688
8830,34752
8831,34752
8832,34624
8833,34624
8834,34624
8835,34560
8836,34624
8837,34624
8838,34688
8839,34688
8840,34752
8841,34816
8842,34944
8843,34944
8844,34880
8845,34880
8846,34880
8847,34880
8848,34944
8849,34944
8850,35008
8851,35136
8852,35136
8853,34944
8854,34816
8855,34688
8856,34624
8857,34624
8858,34816
8859,34880
8860,34880
8861,34816
8862,34944
8863,35136
8864,35200
8865,35200
8866,35264
8867,35392
8868,35584
8869,35648
8870,35840
8871,35968
8872,35968
8873,35904
8874,35648
8875,35392
8876,35136
8877,34880
8878,34624
8879,34368
8880,34240
8881,34240
8882,34240
8883,34240
8884,34304
8885,34432
8886,34496
8887,34624
8888,34688
8889,34752
8890,34816
8891,34752
8892,34752
8893,34752
8894,34624
8895,34560
8896,34560
8897,34688
8898,34816
8899,34816
8900,34816
8901,35008
8902,35520
8903,36928
8904,39168
8905,41856
8906,43968
8907,44288
8908,42880
8909,40064
8910,36736
8911,33856
8912,31808
8913,30720
8914,30528
8915,30848
8916,31488
8917,32192
8918,32896
8919,33536
8920,33984
8921,34432
8922,34688
8923,34816
8924,34752
8925,34816
8926,34752
8927,34752
8928,34752
8929,34752
8930,34752
8931,34816
8932,34816
8933,34880
8934,35072
8935,35136
8936,35008
8937,34816
8938,34624
8939,34496
8940,34496
8941,34560
8942,34752
8943,34816
8944,34880
8945,35008
8946,35072
8947,35264
8948,35392
8949,35456
8950,35520
8951,35520
8952,35520
8953,35648
8954,35776
8955,35776
8956,35520
8957,35456
8958,35456
8959,35456
8960,35456
8961,35584
8962,35712
8963,35904
8964,35968
8965,35904
8966,35712
8967,35648
8968,35648
8969,35712
8970,35776
8971,35840
8972,35904
8973,35904
8974,36032
8975,36160
8976,36160
8977,36032
8978,35776
8979,35584
8980,35392
8981,35072
8982,34752
8983,34368
8984,34112
8985,33920
8986,33600
8987,33408
8988,33280
8989,33152
8990,33024
8991,32960
8992,32896
8993,32896
8994,32960
8995,33088
8996,33216
8997,33344
8998,33408
8999,33408
9000,33472
9001,33536
9002,33664
9003,33664
9004,33536
9005,33536
9006,33600
9007,33664
9008,33728
9009,33856
9010,33920
9011,33984
9012,34112
9013,34304
9014,34560
9015,34624
9016,34496
9017,34368
9018,34368
9019,34368
9020,34432
9021,34496
9022,34560
9023,34624
9024,34624
9025,34624
9026,34560
9027,34496
9028,34432
9029,34496
9030,34560
9031,34688
9032,34752
9033,34752
9034,34816
9035,34944
9036,35072
9037,35456
9038,35712
9039,35840
9040,35840
9041,35712
9042,35712
9043,35712
9044,35712
9045,35712
9046,35584
9047,35456
9048,35264
9049,35072
9050,35008
9051,35008
9052,34944
9053,34816
9054,34752
9055,34816
9056,34880
9057,34944
9058,35072
9059,35200
9060,35264
9061,35200
9062,35264
9063,35328
9064,35456
9065,35520
9066,35520
9067,35584
9068,35584
9069,35392
9070,34880
9071,34624
9072,34432
9073,34176
9074,33856
9075,33664
9076,33600
9077,33600
9078,33600
9079,33344
9080,33152
9081,33088
9082,33088
9083,33152
9084,33216
9085,33280
9086,33472
9087,33728
9088,33984
9089,34048
9090,34112
9091,34176
9092,34176
9093,34240
9094,34304
9095,34496
9096,34688
9097,35072
9098,36224
9099,38272
9100,41216
9101,43328
9102,43840
9103,42624
9104,39744
9105,36096
9106,33024
9107,30976
9108,30784
9109,29952
9110,30336
9111,31040
9112,31936
9113,32832
9114,33664
9115,34368
9116,34880
9117,35200
9118,35392
9119,35520
9120,35584
9121,35648
9122,35648
9123,35584
9124,35584
9125,35456
9126,35392
9127,35328
9128,35392
9129,35392
9130,35328
9131,35264
9132,35264
9133,35328
9134,35392
9135,35328
9136,35328
9137,35328
9138,35328
9139,35264
9140,35264
9141,35200
9142,35264
9143,35264
9144,35264
9145,35264
9146,35264
9147,35264
9148,35328
9149,35328
9150,35392
9151,35392
9152,35520
9153,35584
9154,35584
9155,35520
9156,35520
9157,35520
9158,35584
9159,35520
9160,35520
9161,35584
9162,35648
9163,35584
9164,35392
9165,35136
9166,35008
9167,34944
9168,34944
9169,34944
9170,34944
9171,34944
9172,34880
9173,34752
9174,34432
9175,34176
9176,33856
9177,33472
9178,33216
9179,32960
9180,32768
9181,32576
9182,32384
9183,32256
9184,32128
9185,32064
9186,32000
9187,32064
9188,32064
9189,32064
9190,32064
9191,32128
9192,32128
9193,32064
9194,32064
9195,32064
9196,32256
9197,32320
9198,32320
9199,32320
9200,32320
9201,32320
9202,32256
9203,32256
9204,32384
9205,32448
9206,32448
9207,32448
9208,32384
9209,32384
9210,32320
9211,32320
9212,32320
9213,32256
9214,32192
9215,32192
9216,32128
9217,32064
9218,31936
9219,31808
9220,31744
9221,31680
9222,31680
9223,31680
9224,31744
9225,31808
9226,31744
9227,31808
9228,31744
9229,31744
9230,31680
9231,31552
9232,31424
9233,31296
9234,31296
9235,31296
9236,31424
9237,31616
9238,31744
9239,31680
9240,31680
9241,31680
9242,31808
9243,32000
9244,32320
9245,32576
9246,32768
9247,32832
9248,32960
9249,33152
9250,33280
9251,33344
9252,33408
9253,33600
9254,33728
9255,33920
9256,33984
9257,34112
9258,34112
9259,34048
9260,33920
9261,33728
9262,33472
9263,33216
9264,32960
9265,32768
9266,32640
9267,32512
9268,32384
9269,32256
9270,32256
9271,32320
9272,32448
9273,32384
9274,32704
9275,32832
9276,32640
9277,32384
9278,32192
9279,32000
9280,31872
9281,31872
9282,32000
9283,32128
9284,32192
9285,32128
9286,32064
9287,32128
9288,32384
9289,33088
9290,34752
9291,37312
9292,40256
9293,42048
9294,42176
9295,40640
9296,37632
9297,34304
9298,31552
9299,29760
9300,28864
9301,28672
9302,29056
9303,29824
9304,30592
9305,31424
9306,32000
9307,32448
9308,32704
9309,32896
9310,32960
9311,32960
9312,32960
9313,32896
9314,32832
9315,32768
9316,32768
9317,32704
9318,32704
9319,32768
9320,32960
9321,33088
9322,33088
9323,32960
9324,32832
9325,32768
9326,32832
9327,32960
9328,33088
9329,33280
9330,33408
9331,33472
9332,33536
9333,33536
9334,33664
9335,33600
9336,33664
9337,33792
9338,33856
9339,33856
9340,33920
9341,34048
9342,34112
9343,34176
9344,34368
9345,34432
9346,34432
9347,34496
9348,34496
9349,34432
9350,34368
9351,34240
9352,34176
9353,34112
9354,34240
9355,34304
9356,34496
9357,34688
9358,34560
9359,34624
9360,34752
9361,34752
9362,34752
9363,34688
9364,34688
9365,34496
9366,34176
9367,33984
9368,33792
9369,33600
9370,33472
9371,33344
9372,33216
9373,33088
9374,32960
9375,32832
9376,32640
9377,32512
9378,32448
9379,32448
9380,32384
9381,32320
9382,32320
9383,32320
9384,32320
9385,32320
9386,32320
9387,32384
9388,32448
9389,32512
9390,32640
9391,32768
9392,32896
9393,32832
9394,32960
9395,32896
9396,32832
9397,32768
9398,32704
9399,32768
9400,32832
9401,32896
9402,33024
9403,33152
9404,33152
9405,33152
9406,33024
9407,33024
9408,33024
9409,33088
9410,33088
9411,33088
9412,33152
9413,33152
9414,33088
9415,33024
9416,33088
9417,33152
9418,33280
9419,33408
9420,33472
9421,33472
9422,33536
9423,33472
9424,33728
9425,33856
9426,33792
9427,33600
9428,33408
9429,33344
9430,33344
9431,33344
9432,33280
9433,33344
9434,33472
9435,33728
9436,33984
9437,34176
9438,34304
9439,34368
9440,34496
9441,34624
9442,34624
9443,34688
9444,34624
9445,34816
9446,35072
9447,35136
9448,35008
9449,34752
9450,34432
9451,34112
9452,33856
9453,33792
9454,33856
9455,33792
9456,33600
9457,33216
9458,32704
9459,32512
9460,32384
9461,32384
9462,32448
9463,32704
9464,32896
9465,33024
9466,33088
9467,33280
9468,33216
9469,33344
9470,33408
9471,33600
9472,33856
9473,34048
9474,34048
9475,33856
9476,33600
9477,33664
9478,34624
9479,36736
9480,39552
9481,41792
9482,42368
9483,42176
9484,38528
9485,35008
9486,31872
9487,29696
9488,28544
9489,28160
9490,28416
9491,29056
9492,29952
9493,30912
9494,31744
9495,32448
9496,32896
9497,33216
9498,33408
9499,33600
9500,33728
9501,33664
9502,33536
9503,33472
9504,33408
9505,33344
9506,33344
9507,33472
9508,33600
9509,33728
9510,33728
9511,33664
9512,33536
9513,33408
9514,33344
9515,33344
9516,33408
9517,33408
9518,33472
9519,33536
9520,33600
9521,33664
9522,33600
9523,33664
9524,33728
9525,33856
9526,33856
9527,33856
9528,33920
9529,33984
9530,34048
9531,34112
9532,34240
9533,34432
9534,34496
9535,34496
9536,34560
9537,34560
9538,34624
9539,34560
9540,34560
9541,34624
9542,34752
9543,34752
9544,34816
9545,34944
9546,35008
9547,35008
9548,34944
9549,34880
9550,34816
9551,34816
9552,34688
9553,34560
9554,34432
9555,34176
9556,33856
9557,33600
9558,33344
9559,33024
9560,32768
9561,32640
9562,32512
9563,32448
9564,32448
9565,32448
9566,32448
9567,32512
9568,32512
9569,32512
9570,32640
9571,32768
9572,32768
9573,32704
9574,32896
9575,32960
9576,32896
9577,32896
9578,32960
9579,33088
9580,33088
9581,33152
9582,33152
9583,33216
9584,33280
9585,33280
9586,33344
9587,33344
9588,33344
9589,33280
9590,33280
9591,33408
9592,33408
9593,33408
9594,33344
9595,33344
9596,33344
9597,33216
9598,33216
9599,33216
9600,33216
9601,33216
9602,33152
9603,33216
9604,33280
9605,33280
9606,33344
9607,33344
9608,33280
9609,33280
9610,33280
9611,33152
9612,33152
9613,33024
9614,32896
9615,32896
9616,33024
9617,33152
9618,33216
9619,33216
9620,33280
9621,33344
9622,33536
9623,33792
9624,34048
9625,34112
9626,34176
9627,34176
9628,34240
9629,34368
9630,34432
9631,34368
9632,34432
9633,34368
9634,34176
9635,33856
9636,33664
9637,33536
9638,33344
9639,33152
9640,33088
9641,33088
9642,33088
9643,32960
9644,32896
9645,32832
9646,32896
9647,32896
9648,32896
9649,32896
9650,32960
9651,32960
9652,33024
9653,32960
9654,33088
9655,33088
9656,32960
9657,32960
9658,32832
9659,32512
9660,32384
9661,32576
9662,33024
9663,34112
9664,36160
9665,39104
9666,41472
9667,42240
9668,41536
9669,39424
9670,36288
9671,33280
9672,31040
9673,29760
9674,29312
9675,29440
9676,29888
9677,30976
9678,31040
9679,32320
9680,32960
9681,33280
9682,33408
9683,33472
9684,33472
9685,33472
9686,33472
9687,33600
9688,33664
9689,33664
9690,33664
9691,33728
9692,33792
9693,33856
9694,33920
9695,33984
9696,34112
9697,34240
9698,34304
9699,34304
9700,34112
9701,33984
9702,33920
9703,33984
9704,34112
9705,34240
9706,34304
9707,34240
9708,34176
9709,33792
9710,33600
9711,33792
9712,34048
9713,34176
9714,34368
9715,34496
9716,34560
9717,34496
9718,34432
9719,34496
9720,34688
9721,34752
9722,34880
9723,35072
9724,35072
9725,34944
9726,34944
9727,34944
9728,34880
9729,34816
9730,34752
9731,34752
9732,34816
9733,34944
9734,34816
9735,34624
9736,34624
9737,34624
9738,34624
9739,34432
9740,34176
9741,33984
9742,33792
9743,33536
9744,33280
9745,33152
9746,33152
9747,33024
9748,32768
9749,32640
9750,32576
9751,32448
9752,32448
9753,32448
9754,32448
9755,32384
9756,32384
9757,32448
9758,32640
9759,32832
9760,33088
9761,33216
9762,33280
9763,33216
9764,33152
9765,33152
9766,33280
9767,33408
9768,33344
9769,33152
9770,33088
9771,33024
9772,33024
9773,33152
9774,33152
9775,33152
9776,33152
9777,33088
9778,33216
9779,33536
9780,33920
9781,33920
9782,33600
9783,33408
9784,33024
9785,32960
9786,33088
9787,33280
9788,33408
9789,33664
9790,33728
9791,33536
9792,33536
9793,33536
9794,33600
9795,33600
9796,33664
9797,33856
9798,33920
9799,34112
9800,34176
9801,34112
9802,34048
9803,34112
9804,34240
9805,34496
9806,34688
9807,34752
9808,34624
9809,34496
9810,34560
9811,34880
9812,35328
9813,35520
9814,35328
9815,34816
9816,34304
9817,33984
9818,33728
9819,33728
9820,33664
9821,33472
9822,33344
9823,33280
9824,33280
9825,33280
9826,33280
9827,33216
9828,33344
9829,33472
9830,33600
9831,33600
9832,33600
9833,33600
9834,33600
9835,33664
9836,33728
9837,33984
9838,34112
9839,34048
9840,33920
9841,33728
9842,33856
9843,34048
9844,34560
9845,35840
9846,38208
9847,41280
9848,43392
9849,43712
9850,42176
9851,39168
9852,35648
9853,32704
9854,30720
9855,29632
9856,29440
9857,29952
9858,30528
9859,31296
9860,32064
9861,32768
9862,33344
9863,33728
9864,33920
9865,33984
9866,34112
9867,34112
9868,33984
9869,34048
9870,34112
9871,34112
9872,33984
9873,33984
9874,33984
9875,33984
9876,34112
9877,34112
9878,34112
9879,34048
9880,33920
9881,33920
9882,33920
9883,33920
9884,33984
9885,34048
9886,34240
9887,34304
9888,34304
9889,34176
9890,33984
9891,33792
9892,33536
9893,33088
9894,32640
9895,32384
9896,32320
9897,32448
9898,32768
9899,33088
9900,33472
9901,33792
9902,34176
9903,34304
9904,34432
9905,34560
9906,34496
9907,34432
9908,34560
9909,34624
9910,34688
9911,34752
9912,34880
9913,35072
9914,35264
9915,35328
9916,35264
9917,34944
9918,34816
9919,34624
9920,34432
9921,34176
9922,33984
9923,33856
9924,33792
9925,33792
9926,33728
9927,33536
9928,33344
9929,33088
9930,32896
9931,32832
9932,32832
9933,32832
9934,32832
9935,32768
9936,32640
9937,32640
9938,32576
9939,32576
9940,32704
9941,32768
9942,32832
9943,32960
9944,33024
9945,33152
9946,33216
9947,33344
9948,33344
9949,33472
9950,33536
9951,33536
9952,33472
9953,33472
9954,33536
9955,33600
9956,33472
9957,33344
9958,33408
9959,33472
9960,33536
9961,33536
9962,33472
9963,33280
9964,32960
9965,32832
9966,32704
9967,32640
9968,32576
9969,32576
9970,32640
9971,32576
9972,32384
9973,32256
9974,32192
9975,32256
9976,32256
9977,32128
9978,32000
9979,32000
9980,31936
9981,31808
9982,31872
9983,31936
9984,32000
9985,32128
9986,32256
9987,32512
9988,32576
9989,32512
9990,32384
9991,32320
9992,32448
9993,32512
9994,32512
9995,32512
9996,32320
9997,32000
9998,31616
9999,31296
10000,31104
10001,30912
10002,30848
10003,30720
10004,30656
10005,30592
10006,30592
10007,30720
10008,30784
10009,30784
10010,30784
10011,30784
10012,30848
10013,30848
10014,30912
10015,30912
10016,30912
10017,30912
10018,30976
10019,31040
10020,31104
10021,31040
10022,30784
10023,30720
10024,30848
10025,31232
10026,32000
10027,33472
10028,36032
10029,38656
10030,39872
10031,39360
10032,37312
10033,33984
10034,30592
10035,28160
10036,26688
10037,26048
10038,26112
10039,26560
10040,27328
10041,28224
10042,29184
10043,29888
10044,30464
10045,30912
10046,31232
10047,31360
10048,31424
10049,31424
10050,31424
10051,31488
10052,31552
10053,31616
10054,31616
10055,31488
10056,31424
10057,31488
10058,31616
10059,31808
10060,31936
10061,32000
10062,32064
10063,32128
10064,32192
10065,32256
10066,32256
10067,32256
10068,32256
10069,32384
10070,32640
10071,32896
10072,33024
10073,33024
10074,33152
10075,33280
10076,33408
10077,33472
10078,33472
10079,33536
10080,33600
10081,33536
10082,33536
10083,33600
10084,33664
10085,33728
10086,33856
10087,33920
10088,33920
10089,34048
10090,34240
10091,34432
10092,34432
10093,34176
10094,33984
10095,33920
10096,33984
10097,33984
10098,33920
10099,33856
10100,33856
10101,33728
10102,33600
10103,33472
10104,33408
10105,33344
10106,33088
10107,32896
10108,32704
10109,32576
10110,32384
10111,32000
10112,31744
10113,31616
10114,31552
10115,31616
10116,31680
10117,31680
10118,31552
10119,31488
10120,31424
10121,31424
10122,31552
10123,31936
10124,32384
10125,32960
10126,33408
10127,33536
10128,33408
10129,33216
10130,33024
10131,33024
10132,33280
10133,33472
10134,33344
10135,33152
10136,32960
10137,33024
10138,33216
10139,33280
10140,33408
10141,33600
10142,33728
10143,33728
10144,33600
10145,33600
10146,33664
10147,33728
10148,33600
10149,33536
10150,33536
10151,33600
10152,33600
10153,33600
10154,33536
10155,33280
10156,33024
10157,32832
10158,32832
10159,32832
10160,32704
10161,32576
10162,32576
10163,32512
10164,32384
10165,32320
10166,32384
10167,32576
10168,32768
10169,32960
10170,33024
10171,33088
10172,33088
10173,32960
10174,33024
10175,33152
10176,33152
10177,33024
10178,32896
10179,32768
10180,32576
10181,32320
10182,31744
10183,30848
10184,30080
10185,29632
10186,29504
10187,29632
10188,29952
10189,30400
10190,30912
10191,31424
10192,32064
10193,32576
10194,32960
10195,33216
10196,33344
10197,33472
10198,33216
10199,32640
10200,32128
10201,31616
10202,31232
10203,31104
10204,31488
10205,32064
10206,32832
10207,33664
10208,35136
10209,37632
10210,40256
10211,41536
10212,41216
10213,39232
10214,36160
10215,33152
10216,30912
10217,29696
10218,29760
10219,30272
10220,30464
10221,30592
10222,30912
10223,31104
10224,31296
10225,31680
10226,32256
10227,32896
10228,33216
10229,33344
10230,33280
10231,33216
10232,33344
10233,33600
10234,33600
10235,33472
10236,33664
10237,33856
10238,33984
10239,33920
10240,33984
10241,34432
10242,34496
10243,33728
10244,33216
10245,33024
10246,32832
10247,32960
10248,33088
10249,33088
10250,33152
10251,33088
10252,33088
10253,33472
10254,33984
10255,34240
10256,34048
10257,33984
10258,34176
10259,34368
10260,34496
10261,34688
10262,34880
10263,35072
10264,34944
10265,34816
10266,34944
10267,35264
10268,35712
10269,35904
10270,35648
10271,34944
10272,34368
10273,34240
10274,34368
10275,34624
10276,34944
10277,35008
10278,35008
10279,35008
10280,34752
10281,34304
10282,34048
10283,33920
10284,33792
10285,33728
10286,33920
10287,34048
10288,34240
10289,34560
10290,34368
10291,33728
10292,33024
10293,32704
10294,32768
10295,32896
10296,32960
10297,33088
10298,32768
10299,32256
10300,32064
10301,32064
10302,32000
10303,32064
10304,32256
10305,32512
10306,32512
10307,32192
10308,32000
10309,32000
10310,31744
10311,31488
10312,31744
10313,32064
10314,32320
10315,32320
10316,32320
10317,32448
10318,32640
10319,32896
10320,33152
10321,33344
10322,33536
10323,33728
10324,33792
10325,33728
10326,33792
10327,34048
10328,34240
10329,34176
10330,34112
10331,34240
10332,34368
10333,34304
10334,34240
10335,33856
10336,33216
10337,33024
10338,33216
10339,33216
10340,33152
10341,32960
10342,33024
10343,33216
10344,33408
10345,33088
10346,32768
10347,32768
10348,33088
10349,33792
10350,34240
10351,34368
10352,34560
10353,34496
10354,34304
10355,34240
10356,34304
10357,34240
10358,34048
10359,33984
10360,34048
10361,34048
10362,34048
10363,33920
10364,33792
10365,33728
10366,33600
10367,33472
10368,33408
10369,33536
10370,33856
10371,33920
10372,33536
10373,33536
10374,33664
10375,33728
10376,33472
10377,33152
10378,32896
10379,32832
10380,33088
10381,33152
10382,33216
10383,33344
10384,33600
10385,33664
10386,33920
10387,34176
10388,34688
10389,35840
10390,37632
10391,40320
10392,42752
10393,43776
10394,42688
10395,40000
10396,36480
10397,33472
10398,31488
10399,30080
10400,29504
10401,29760
10402,30336
10403,30784
10404,31488
10405,32320
10406,33344
10407,34112
10408,34624
10409,34816
10410,34560
10411,34304
10412,33984
10413,33728
10414,33856
10415,34176
10416,34560
10417,34496
10418,34240
10419,34112
10420,34432
10421,34752
10422,34752
10423,34752
10424,35200
10425,35328
10426,34944
10427,34560
10428,34560
10429,34560
10430,34176
10431,33920
10432,34304
10433,34688
10434,34880
10435,34880
10436,34880
10437,35008
10438,35456
10439,35648
10440,35648
10441,35712
10442,35584
10443,35328
10444,35200
10445,35136
10446,35200
10447,35200
10448,35008
10449,35008
10450,35072
10451,35072
10452,35136
10453,35264
10454,35456
10455,35392
10456,35392
10457,35264
10458,35072
10459,34944
10460,34752
10461,34432
10462,34240
10463,34304
10464,34368
10465,34304
10466,34240
10467,34240
10468,34048
10469,33984
10470,33984
10471,33920
10472,33920
10473,33728
10474,33856
10475,34240
10476,34432
10477,34048
10478,33408
10479,33024
10480,32704
10481,32704
10482,32896
10483,33152
10484,33472
10485,33600
10486,33728
10487,33856
10488,33664
10489,33728
10490,34048
10491,33984
10492,33984
10493,34112
10494,34624
10495,35008
10496,34880
10497,34560
10498,34240
10499,34368
10500,35072
10501,34752
10502,33856
10503,33408
10504,33408
10505,33728
10506,34112
10507,34432
10508,34752
10509,34880
10510,35200
10511,35392
10512,35392
10513,35200
10514,34880
10515,34240
10516,33664
10517,33280
10518,33152
10519,33536
10520,34048
10521,33920
10522,33664
10523,33600
10524,33664
10525,33984
10526,34432
10527,34944
10528,35264
10529,35456
10530,35648
10531,35968
10532,36288
10533,36096
10534,35712
10535,35264
10536,35584
10537,36096
10538,36224
10539,35840
10540,35328
10541,34944
10542,34624
10543,34560
10544,34496
10545,34496
10546,34560
10547,34368
10548,34112
10549,33984
10550,33984
10551,34048
10552,34176
10553,34048
10554,33984
10555,33920
10556,34048
10557,34496
10558,34624
10559,34560
10560,34240
10561,33792
10562,33536
10563,33344
10564,33408
10565,33664
10566,34048
10567,34624
10568,34496
10569,34432
10570,35008
10571,36288
10572,37888
10573,40384
10574,42624
10575,43520
10576,42560
10577,39936
10578,36672
10579,34240
10580,32512
10581,31296
10582,30336
10583,29888
10584,30080
10585,30912
10586,31808
10587,32448
10588,33216
10589,34048
10590,34624
10591,34688
10592,34752
10593,34880
10594,34752
10595,34560
10596,34176
10597,34112
10598,34304
10599,34240
10600,34240
10601,34368
10602,34624
10603,34880
10604,35008
10605,34944
10606,34944
10607,35200
10608,35136
10609,35072
10610,34816
10611,34624
10612,34624
10613,35136
10614,35200
10615,34944
10616,34816
10617,35008
10618,35264
10619,35264
10620,35136
10621,35136
10622,35328
10623,35904
10624,36032
10625,35712
10626,35584
10627,35968
10628,36352
10629,36352
10630,36288
10631,35968
10632,35584
10633,35584
10634,35456
10635,35392
10636,35904
10637,36736
10638,36864
10639,36032
10640,35328
10641,35072
10642,35072
10643,35008
10644,34816
10645,34752
10646,35008
10647,35392
10648,35584
10649,35328
10650,34816
10651,34624
10652,34432
10653,33792
10654,33408
10655,33408
10656,33408
10657,33408
10658,33664
10659,33984
10660,33792
10661,33408
10662,33280
10663,33536
10664,33920
10665,33984
10666,33984
10667,33920
10668,33792
10669,33920
10670,33920
10671,33856
10672,33920
10673,33920
10674,33856
10675,33920
10676,34048
10677,34112
10678,34240
10679,34560
10680,34880
10681,34816
10682,34560
10683,34432
10684,34048
10685,33792
10686,33792
10687,33920
10688,33920
10689,33984
10690,34112
10691,34496
10692,34752
10693,34688
10694,34560
10695,34560
10696,34368
10697,34304
10698,34496
10699,34688
10700,34688
10701,34368
10702,34112
10703,33792
10704,33792
10705,34048
10706,34624
10707,35072
10708,34944
10709,34560
10710,34304
10711,34368
10712,34688
10713,35136
10714,35392
10715,35392
10716,35456
10717,35456
10718,35328
10719,35328
10720,35392
10721,35392
10722,35520
10723,35712
10724,35904
10725,36416
10726,36800
10727,36480
10728,35840
10729,35456
10730,35008
10731,34560
10732,34432
10733,34304
10734,34112
10735,33792
10736,33664
10737,33792
10738,33856
10739,33984
10740,34176
10741,34496
10742,34624
10743,34368
10744,34304
10745,34368
10746,34368
10747,34240
10748,34304
10749,34560
10750,34816
10751,35072
10752,35264
10753,35392
10754,35392
10755,35584
10756,36352
10757,38016
10758,40576
10759,42816
10760,43776
10761,43264
10762,41344
10763,38272
10764,35264
10765,33152
10766,32256
10767,31872
10768,31552
10769,31488
10770,31808
10771,32448
10772,33344
10773,34176
10774,34880
10775,35520
10776,35840
10777,35968
10778,35904
10779,35712
10780,35392
10781,35072
10782,35072
10783,35136
10784,35008
10785,35008
10786,34944
10787,34944
10788,35072
10789,35200
10790,35456
10791,35392
10792,34880
10793,34560
10794,34496
10795,34560
10796,34624
10797,34880
10798,35072
10799,35200
10800,35200
10801,35200
10802,35328
10803,35456
10804,35584
10805,35584
10806,35520
10807,35712
10808,35520
10809,34944
10810,34624
10811,34752
10812,35008
10813,35264
10814,35776
10815,36032
10816,35840
10817,35456
10818,35264
10819,35200
10820,35072
10821,35072
10822,35264
10823,35456
10824,35456
10825,35520
10826,35456
10827,35200
10828,34944
10829,34880
10830,34880
10831,34752
10832,34560
10833,34368
10834,34176
10835,34240
10836,34368
10837,34240
10838,34240
10839,34304
10840,34112
10841,33664
10842,33280
10843,33088
10844,33088
10845,33152
10846,33088
10847,33024
10848,33216
10849,33472
10850,33536
10851,33664
10852,33728
10853,33728
10854,33792
10855,34048
10856,34240
10857,34176
10858,34112
10859,34112
10860,34048
10861,33984
10862,33920
10863,33920
10864,33920
10865,33984
10866,34048
10867,34048
10868,34048
10869,34112
10870,34304
10871,34368
10872,34368
10873,34240
10874,33792
10875,33728
10876,33984
10877,34112
10878,34048
10879,34176
10880,34368
10881,34304
10882,34112
10883,34048
10884,33856
10885,33856
10886,33856
10887,33856
10888,33984
10889,34048
10890,33856
10891,33728
10892,33792
10893,33728
10894,33920
10895,34112
10896,34240
10897,34304
10898,34368
10899,34368
10900,34624
10901,34816
10902,34944
10903,35264
10904,35392
10905,35328
10906,35392
10907,35456
10908,35392
10909,35264
10910,35200
10911,35264
10912,35200
10913,34816
10914,34304
10915,33984
10916,33728
10917,33472
10918,33408
10919,33280
10920,33472
10921,33728
10922,33728
10923,33600
10924,33600
