,ECG
0,33408
1,33408
2,33664
3,34048
4,34048
5,33856
6,33664
7,33472
8,33408
9,33664
10,34304
11,35264
12,37056
13,40128
14,43456
15,44736
16,43904
17,41536
18,38656
19,35456
20,31936
21,29248
22,27840
23,27584
24,28096
25,29248
26,30976
27,32960
28,34176
29,34304
30,33728
31,33408
32,33664
33,34176
34,34816
35,35264
36,35264
37,34560
38,33472
39,32512
40,32128
41,32256
42,32576
43,32896
44,33216
45,33408
46,33728
47,34112
48,34176
49,34048
50,34176
51,34624
52,35072
53,35264
54,35072
55,34624
56,34048
57,33536
58,33280
59,33216
60,33088
61,33088
62,33280
63,33472
64,33728
65,33984
66,34304
67,34560
68,34752
69,34880
70,35136
71,35456
72,35712
73,35648
74,35584
75,35584
76,35584
77,35520
78,34944
79,34304
80,34048
81,34304
82,34688
83,34496
84,34176
85,34048
86,34112
87,34240
88,34496
89,34752
90,34944
91,34752
92,34304
93,33920
94,33856
95,33792
96,33920
97,34048
98,33600
99,33344
100,32832
101,32640
102,32768
103,32640
104,32384
105,32320
106,32512
107,32832
108,33024
109,33088
110,33216
111,33216
112,33280
113,33408
114,33600
115,33600
116,33408
117,33280
118,33408
119,33408
120,33280
121,33216
122,33088
123,33088
124,33024
125,33088
126,33152
127,33280
128,33344
129,33344
130,33472
131,33600
132,33728
133,33856
134,33856
135,33792
136,33536
137,33408
138,33280
139,33024
140,32832
141,32768
142,32768
143,32896
144,33024
145,33152
146,33280
147,33344
148,33472
149,33472
150,33408
151,33472
152,33536
153,33408
154,33216
155,33152
156,33152
157,33216
158,33216
159,33216
160,33216
161,33280
162,33344
163,33408
164,33600
165,33728
166,33664
167,33536
168,33408
169,33408
170,33472
171,33472
172,33408
173,33408
174,33344
175,33344
176,33408
177,33536
178,33536
179,33536
180,33536
181,33472
182,33344
183,33280
184,33344
185,33472
186,33664
187,33728
188,33856
189,33984
190,33856
191,33728
192,33792
193,33856
194,33984
195,34112
196,34176
197,34240
198,34304
199,34304
200,34368
201,34432
202,34432
203,34432
204,34432
205,34368
206,34304
207,34048
208,33728
209,33536
210,33472
211,33472
212,33536
213,33472
214,33408
215,33472
216,33600
217,33600
218,33472
219,33152
220,32960
221,32896
222,33024
223,33216
224,33536
225,33664
226,33536
227,33664
228,33984
229,33856
230,33600
231,33472
232,33344
233,33600
234,34560
235,36288
236,38720
237,41216
238,42304
239,41920
240,39744
241,36480
242,33408
243,31296
244,30272
245,29824
246,29696
247,30080
248,30784
249,31488
250,32192
251,32768
252,33280
253,33664
254,33856
255,34048
256,34112
257,34048
258,33984
259,33984
260,34112
261,34112
262,33984
263,33856
264,33920
265,33984
266,33984
267,33984
268,33984
269,33856
270,33600
271,33536
272,33600
273,33792
274,33984
275,34240
276,34496
277,34688
278,34752
279,34560
280,34304
281,34176
282,34176
283,34304
284,34432
285,34432
286,34496
287,34560
288,34496
289,34368
290,34368
291,34304
292,34304
293,34432
294,34496
295,34624
296,34816
297,35072
298,35456
299,35648
300,35456
301,35200
302,35008
303,34944
304,34880
305,34944
306,35072
307,35200
308,35264
309,35200
310,35200
311,35136
312,34944
313,34624
314,34368
315,34240
316,33984
317,33664
318,33472
319,33280
320,33024
321,32832
322,32832
323,32896
324,32832
325,32768
326,32896
327,33088
328,33280
329,33216
330,33152
331,33088
332,33088
333,33088
334,33152
335,33408
336,33472
337,33344
338,33216
339,33216
340,33280
341,33344
342,33344
343,33408
344,33536
345,33536
346,33344
347,33088
348,32960
349,32896
350,32896
351,32960
352,33088
353,33152
354,33088
355,33152
356,33216
357,33152
358,33088
359,33088
360,33088
361,33152
362,33280
363,33280
364,33280
365,33216
366,33088
367,33088
368,33088
369,33024
370,33024
371,33088
372,33152
373,33216
374,33216
375,33152
376,33216
377,33216
378,33280
379,33344
380,33344
381,33280
382,33152
383,33088
384,33088
385,33152
386,33216
387,33280
388,33344
389,33344
390,33472
391,33472
392,33472
393,33472
394,33472
395,33472
396,33408
397,33472
398,33472
399,33472
400,33472
401,33536
402,33664
403,33536
404,33472
405,33536
406,33600
407,33600
408,33664
409,33664
410,33664
411,33664
412,33664
413,33664
414,33792
415,33792
416,33728
417,33664
418,33600
419,33664
420,33664
421,33664
422,33728
423,33728
424,33728
425,33728
426,33856
427,34112
428,34304
429,34432
430,34368
431,34304
432,34304
433,34432
434,34560
435,34752
436,34752
437,34688
438,34560
439,34368
440,34112
441,33920
442,33728
443,33728
444,33664
445,33472
446,33408
447,33344
448,33280
449,33152
450,33088
451,33152
452,33344
453,33600
454,33856
455,33664
456,33408
457,33216
458,33152
459,33152
460,33280
461,33216
462,33216
463,33216
464,33280
465,33408
466,33600
467,34176
468,35456
469,37248
470,39808
471,41856
472,42368
473,41408
474,38848
475,35584
476,32640
477,30592
478,29504
479,29312
480,29696
481,30400
482,31232
483,32000
484,32576
485,33024
486,33344
487,33600
488,33856
489,34048
490,34112
491,34176
492,34112
493,33920
494,33728
495,33664
496,33536
497,33600
498,33728
499,33792
500,33856
501,33920
502,34048
503,33984
504,33856
505,33792
506,33792
507,33792
508,33856
509,34048
510,34240
511,34304
512,34432
513,34496
514,34304
515,34112
516,34048
517,34176
518,34176
519,34048
520,34048
521,34304
522,34496
523,34560
524,34560
525,34688
526,34688
527,34688
528,34688
529,34752
530,34752
531,34944
532,35072
533,35008
534,34944
535,34944
536,34944
537,35008
538,35072
539,35008
540,35008
541,34944
542,34944
543,34944
544,34944
545,34880
546,34688
547,34496
548,34304
549,34112
550,33920
551,33728
552,33664
553,33472
554,33216
555,33024
556,32896
557,32832
558,32704
559,32704
560,32768
561,32896
562,32960
563,33024
564,33088
565,33152
566,33152
567,33216
568,33280
569,33408
570,33472
571,33408
572,33344
573,33216
574,33280
575,33536
576,33664
577,33408
578,33216
579,33088
580,33088
581,33152
582,33152
583,33088
584,33088
585,33152
586,33280
587,33280
588,33216
589,33280
590,33408
591,33536
592,33472
593,33344
594,33280
595,33152
596,33088
597,33088
598,33280
599,33472
600,33536
601,33472
602,33344
603,33216
604,33088
605,33152
606,33216
607,33152
608,33152
609,33216
610,33280
611,33408
612,33664
613,33728
614,33536
615,33408
616,33280
617,33152
618,33280
619,33472
620,33600
621,33472
622,33344
623,33408
624,33536
625,33536
626,33472
627,33408
628,33344
629,33280
630,33408
631,33536
632,33600
633,33536
634,33408
635,33472
636,33536
637,33600
638,33792
639,33920
640,33920
641,33856
642,33728
643,33600
644,33472
645,33472
646,33536
647,33728
648,33920
649,33920
650,34048
651,34112
652,34176
653,34176
654,34112
655,34112
656,34240
657,34432
658,34624
659,34688
660,34752
661,34688
662,34752
663,34688
664,34432
665,34176
666,33920
667,33792
668,33600
669,33408
670,33216
671,33216
672,33280
673,33408
674,33472
675,33408
676,33280
677,33152
678,33216
679,33280
680,33344
681,33408
682,33536
683,33536
684,33472
685,33472
686,33408
687,33280
688,33216
689,33408
690,33600
691,34048
692,35200
693,37120
694,39680
695,41728
696,42176
697,41152
698,38720
699,35840
700,33216
701,31104
702,29952
703,29568
704,29632
705,30208
706,30976
707,31744
708,32448
709,32960
710,33472
711,33920
712,34112
713,34048
714,33984
715,33856
716,33792
717,33728
718,33728
719,33792
720,33856
721,33920
722,33920
723,33920
724,33920
725,33920
726,33984
727,33984
728,33984
729,33920
730,33920
731,33984
732,34176
733,34176
734,34176
735,34304
736,34176
737,34112
738,34048
739,34112
740,34304
741,34368
742,34368
743,34432
744,34560
745,34560
746,34560
747,34496
748,34560
749,34560
750,34624
751,34688
752,34816
753,34880
754,34944
755,35072
756,35264
757,35328
758,35136
759,34880
760,34752
761,34752
762,34816
763,34880
764,34944
765,35072
766,35200
767,35136
768,34944
769,34752
770,34560
771,34368
772,34176
773,33984
774,33728
775,33408
776,33280
777,33152
778,33088
779,32896
780,32768
781,32704
782,32768
783,32768
784,32768
785,33024
786,33152
787,33024
788,32768
789,32704
790,32768
791,32768
792,32832
793,32896
794,33024
795,33088
796,33088
797,33088
798,33152
799,33152
800,33216
801,33216
802,33280
803,33344
804,33280
805,33216
806,33216
807,33216
808,33152
809,33152
810,33152
811,33152
812,33216
813,33280
814,33280
815,33280
816,33280
817,33216
818,33152
819,33152
820,33280
821,33280
822,33280
823,33408
824,33408
825,33344
826,33280
827,33280
828,33280
829,33152
830,33024
831,32960
832,33024
833,33088
834,33216
835,33280
836,33344
837,33408
838,33472
839,33472
840,33408
841,33280
842,33216
843,33280
844,33408
845,33536
846,33536
847,33472
848,33472
849,33536
850,33536
851,33664
852,33664
853,33536
854,33472
855,33536
856,33472
857,33344
858,33280
859,33216
860,33216
861,33280
862,33344
863,33472
864,33664
865,33664
866,33536
867,33472
868,33408
869,33472
870,33472
871,33472
872,33536
873,33664
874,33728
875,33728
876,33728
877,33792
878,33920
879,34048
880,34048
881,34176
882,34368
883,34368
884,34240
885,34176
886,34176
887,34240
888,34304
889,34432
890,34496
891,34432
892,34432
893,34304
894,34112
895,33920
896,33792
897,33792
898,33728
899,33472
900,33280
901,33216
902,33344
903,33280
904,33216
905,33216
906,33216
907,33216
908,33152
909,33152
910,33152
911,33152
912,33152
913,33152
914,33280
915,33408
916,33536
917,33536
918,33536
919,33664
920,33984
921,34624
922,35904
923,38016
924,40640
925,42176
926,42240
927,40704
928,37760
929,34560
930,32000
931,30336
932,29568
933,29504
934,29952
935,30720
936,31680
937,32384
938,32832
939,33152
940,33536
941,33728
942,33664
943,33664
944,33728
945,33792
946,33792
947,33792
948,33792
949,33856
950,33792
951,33792
952,33792
953,33792
954,33728
955,33728
956,33792
957,33856
958,33920
959,33984
960,34240
961,34432
962,34368
963,34112
964,33984
965,33920
966,33984
967,34112
968,34368
969,34368
970,34240
971,34240
972,34368
973,34432
974,34432
975,34432
976,34560
977,34624
978,34688
979,34816
980,35072
981,35200
982,35200
983,35008
984,34816
985,34752
986,34816
987,35008
988,35200
989,35200
990,35200
991,35200
992,35136
993,35136
994,35200
995,35200
996,35136
997,35136
998,35072
999,35008
1000,35008
1001,34880
1002,34560
1003,34240
1004,34048
1005,33728
1006,33280
1007,32960
1008,32768
1009,32640
1010,32704
1011,32640
1012,32640
1013,32640
1014,32640
1015,32576
1016,32448
1017,32448
1018,32512
1019,32704
1020,32960
1021,33088
1022,33280
1023,33536
1024,33600
1025,33408
1026,33280
1027,33216
1028,33216
1029,33280
1030,33344
1031,33344
1032,33408
1033,33536
1034,33600
1035,33408
1036,33216
1037,33088
1038,33088
1039,33152
1040,33216
1041,33152
1042,33024
1043,33024
1044,33024
1045,33152
1046,33344
1047,33472
1048,33408
1049,33344
1050,33216
1051,33088
1052,33216
1053,33216
1054,33152
1055,33152
1056,33280
1057,33216
1058,33024
1059,32960
1060,33088
1061,33216
1062,33216
1063,33216
1064,33280
1065,33344
1066,33344
1067,33344
1068,33472
1069,33408
1070,33280
1071,33280
1072,33344
1073,33280
1074,33280
1075,33216
1076,33216
1077,33280
1078,33280
1079,33280
1080,33280
1081,33408
1082,33600
1083,33664
1084,33664
1085,33664
1086,33600
1087,33472
1088,33408
1089,33472
1090,33536
1091,33536
1092,33536
1093,33536
1094,33600
1095,33728
1096,33792
1097,33792
1098,33856
1099,33856
1100,33792
1101,33728
1102,33728
1103,33664
1104,33600
1105,33536
1106,33600
1107,33600
1108,33600
1109,33600
1110,33664
1111,33856
1112,33984
1113,34112
1114,34048
1115,33984
1116,33920
1117,33984
1118,34112
1119,34240
1120,34368
1121,34368
1122,34368
1123,34496
1124,34624
1125,34752
1126,34816
1127,34816
1128,34752
1129,34624
1130,34496
1131,34368
1132,34176
1133,33984
1134,33664
1135,33536
1136,33408
1137,33344
1138,33344
1139,33408
1140,33408
1141,33280
1142,33280
1143,33472
1144,33472
1145,33408
1146,33472
1147,33536
1148,33536
1149,33536
1150,33536
1151,33664
1152,33728
1153,33600
1154,33536
1155,33600
1156,33856
1157,34304
1158,35456
1159,36800
1160,39296
1161,41600
1162,42432
1163,41728
1164,39232
1165,36224
1166,33216
1167,30976
1168,29696
1169,29440
1170,29760
1171,30400
1172,31232
1173,32256
1174,32768
1175,33152
1176,33472
1177,33728
1178,33920
1179,33984
1180,34112
1181,34304
1182,34304
1183,34304
1184,34176
1185,33920
1186,33664
1187,33408
1188,33280
1189,33280
1190,33408
1191,33536
1192,33664
1193,33920
1194,34048
1195,33984
1196,33920
1197,33856
1198,33920
1199,34048
1200,34112
1201,34112
1202,34176
1203,34304
1204,34304
1205,34368
1206,34496
1207,34560
1208,34496
1209,34432
1210,34432
1211,34432
1212,34432
1213,34496
1214,34624
1215,34816
1216,34944
1217,34944
1218,34944
1219,35072
1220,35072
1221,35072
1222,34944
1223,34816
1224,34752
1225,34752
1226,34816
1227,35008
1228,35136
1229,35136
1230,35136
1231,35136
1232,35264
1233,35264
1234,35136
1235,34944
1236,34752
1237,34432
1238,34112
1239,33920
1240,33792
1241,33600
1242,33408
1243,33280
1244,33152
1245,33024
1246,32960
1247,32832
1248,32768
1249,32704
1250,32640
1251,32640
1252,32704
1253,32768
1254,32896
1255,32960
1256,33024
1257,33088
1258,33088
1259,33024
1260,33088
1261,33280
1262,33408
1263,33408
1264,33408
1265,33344
1266,33216
1267,33152
1268,33088
1269,33152
1270,33216
1271,33216
1272,33216
1273,33408
1274,33472
1275,33408
1276,33344
1277,33344
1278,33344
1279,33280
1280,33216
1281,33280
1282,33344
1283,33280
1284,33216
1285,33216
1286,33216
1287,33280
1288,33344
1289,33472
1290,33472
1291,33280
1292,33152
1293,33152
1294,33216
1295,33216
1296,33088
1297,33088
1298,33152
1299,33216
1300,33280
1301,33280
1302,33472
1303,33600
1304,33600
1305,33536
1306,33472
1307,33472
1308,33408
1309,33408
1310,33472
1311,33536
1312,33600
1313,33536
1314,33536
1315,33536
1316,33536
1317,33472
1318,33472
1319,33536
1320,33600
1321,33536
1322,33536
1323,33600
1324,33664
1325,33664
1326,33664
1327,33664
1328,33728
1329,33664
1330,33728
1331,33792
1332,33728
1333,33600
1334,33536
1335,33536
1336,33600
1337,33664
1338,33728
1339,33920
1340,33984
1341,33920
1342,33728
1343,33600
1344,33536
1345,33472
1346,33472
1347,33600
1348,33664
1349,33664
1350,33728
1351,33792
1352,33920
1353,34112
1354,34240
1355,34240
1356,34240
1357,34240
1358,34304
1359,34304
1360,34368
1361,34496
1362,34560
1363,34560
1364,34560
1365,34560
1366,34496
1367,34304
1368,33920
1369,33728
1370,33472
1371,33216
1372,33088
1373,33088
1374,33088
1375,33088
1376,33088
1377,33216
1378,33344
1379,33472
1380,33536
1381,33728
1382,33728
1383,33600
1384,33600
1385,33600
1386,33600
1387,33600
1388,33536
1389,33408
1390,33472
1391,33664
1392,33856
1393,34560
1394,36032
1395,38272
1396,40768
1397,42048
1398,41856
1399,40128
1400,37376
1401,34496
1402,32192
1403,30656
1404,29696
1405,29440
1406,29824
1407,30592
1408,31424
1409,32192
1410,32960
1411,33536
1412,33792
1413,33920
1414,33984
1415,34176
1416,34240
1417,34112
1418,33984
1419,33920
1420,33792
1421,33600
1422,33600
1423,33600
1424,33600
1425,33664
1426,33728
1427,33792
1428,33920
1429,33920
1430,33984
1431,34048
1432,34112
1433,34112
1434,34176
1435,34240
1436,34176
1437,34048
1438,33984
1439,33984
1440,33984
1441,34176
1442,34304
1443,34304
1444,34368
1445,34368
1446,34368
1447,34368
1448,34432
1449,34496
1450,34560
1451,34560
1452,34624
1453,34688
1454,34752
1455,34816
1456,34944
1457,35072
1458,35072
1459,35008
1460,35008
1461,34944
1462,34880
1463,34880
1464,34880
1465,34944
1466,34944
1467,35072
1468,35136
1469,35200
1470,35136
1471,34944
1472,34624
1473,34176
1474,34048
1475,33920
1476,33664
1477,33536
1478,33344
1479,33216
1480,33088
1481,32960
1482,32832
1483,32704
1484,32640
1485,32832
1486,32960
1487,32896
1488,32832
1489,32832
1490,32960
1491,33024
1492,32960
1493,32960
1494,33088
1495,33216
1496,33280
1497,33280
1498,33344
1499,33408
1500,33408
1501,33344
1502,33344
1503,33344
1504,33280
1505,33344
1506,33472
1507,33536
1508,33408
1509,33216
1510,33152
1511,33216
1512,33280
1513,33280
1514,33344
1515,33408
1516,33472
1517,33408
1518,33152
1519,33088
1520,33024
1521,32960
1522,33024
1523,33088
1524,33216
1525,33280
1526,33344
1527,33408
1528,33536
1529,33472
1530,33344
1531,33280
1532,33280
1533,33344
1534,33344
1535,33344
1536,33408
1537,33344
1538,33344
1539,33536
1540,33600
1541,33536
1542,33344
1543,33216
1544,33216
1545,33280
1546,33408
1547,33536
1548,33536
1549,33472
1550,33408
1551,33408
1552,33344
1553,33344
1554,33408
1555,33408
1556,33472
1557,33472
1558,33408
1559,33344
1560,33472
1561,33728
1562,33792
1563,33472
1564,33344
1565,33280
1566,33216
1567,33216
1568,33280
1569,33472
1570,33600
1571,33600
1572,33536
1573,33536
1574,33600
1575,33664
1576,33600
1577,33600
1578,33600
1579,33600
1580,33664
1581,33728
1582,33920
1583,34048
1584,34176
1585,34240
1586,34240
1587,34240
1588,34304
1589,34432
1590,34560
1591,34624
1592,34624
1593,34560
1594,34496
1595,34432
1596,34176
1597,33984
1598,33856
1599,33728
1600,33600
1601,33536
1602,33408
1603,33280
1604,33216
1605,33088
1606,33152
1607,33216
1608,33408
1609,33536
1610,33536
1611,33536
1612,33600
1613,33472
1614,33344
1615,33280
1616,33216
1617,33216
1618,33216
1619,33344
1620,33344
1621,33408
1622,33664
1623,34880
1624,35648
1625,37376
1626,39808
1627,41856
1628,42496
1629,41536
1630,38976
1631,35776
1632,32896
1633,30784
1634,29632
1635,29376
1636,29696
1637,30400
1638,31616
1639,32064
1640,32768
1641,33216
1642,33472
1643,33600
1644,33792
1645,33856
1646,33856
1647,33856
1648,33920
1649,34048
1650,33984
1651,33792
1652,33664
1653,33664
1654,33600
1655,33536
1656,33536
1657,33600
1658,33600
1659,33664
1660,33728
1661,33856
1662,33984
1663,34048
1664,34048
1665,34048
1666,33984
1667,34048
1668,34304
1669,34368
1670,34368
1671,34304
1672,34176
1673,34176
1674,34240
1675,34304
1676,34304
1677,34496
1678,34688
1679,34688
1680,34688
1681,34752
1682,34816
1683,34816
1684,34880
1685,34944
1686,35008
1687,35072
1688,35200
1689,35264
1690,35328
1691,35328
1692,35264
1693,35200
1694,35200
1695,35328
1696,35328
1697,35328
1698,35456
1699,35456
1700,35264
1701,35072
1702,34816
1703,34432
1704,34176
1705,33920
1706,33536
1707,33216
1708,33088
1709,33024
1710,32832
1711,32768
1712,32640
1713,32576
1714,32576
1715,32640
1716,32768
1717,32832
1718,32960
1719,33024
1720,33024
1721,32896
1722,32896
1723,32960
1724,33024
1725,33024
1726,33088
1727,33152
1728,33152
1729,33216
1730,33280
1731,33344
1732,33408
1733,33408
1734,33408
1735,33344
1736,33280
1737,33280
1738,33280
1739,33280
1740,33280
1741,33280
1742,33216
1743,33216
1744,33088
1745,33024
1746,32960
1747,32960
1748,33024
1749,33088
1750,33216
1751,33280
1752,33280
1753,33216
1754,33216
1755,33344
1756,33472
1757,33536
1758,33536
1759,33344
1760,33088
1761,33024
1762,33088
1763,33088
1764,32960
1765,32960
1766,32896
1767,32960
1768,33088
1769,33216
1770,33280
1771,33280
1772,33344
1773,33408
1774,33408
1775,33344
1776,33280
1777,33280
1778,33280
1779,33344
1780,33408
1781,33600
1782,33728
1783,33728
1784,33728
1785,33536
1786,33280
1787,33088
1788,33024
1789,33088
1790,33280
1791,33408
1792,33472
1793,33472
1794,33600
1795,33600
1796,33536
1797,33536
1798,33600
1799,33664
1800,33600
1801,33472
1802,33472
1803,33536
1804,33600
1805,33664
1806,33728
1807,33664
1808,33728
1809,33792
1810,33920
1811,33984
1812,33792
1813,33600
1814,33472
1815,33344
1816,33280
1817,33280
1818,33280
1819,33344
1820,33472
1821,33536
1822,33664
1823,33728
1824,33792
1825,33856
1826,33984
1827,34112
1828,34112
1829,34176
1830,34176
1831,34240
1832,34304
1833,34368
1834,34432
1835,34560
1836,34688
1837,34752
1838,34752
1839,34752
1840,34624
1841,34368
1842,34112
1843,33728
1844,33536
1845,33408
1846,33344
1847,33408
1848,33408
1849,33280
1850,33152
1851,33088
1852,33152
1853,33216
1854,33280
1855,33344
1856,33408
1857,33472
1858,33472
1859,33408
1860,33472
1861,33600
1862,33664
1863,33600
1864,33408
1865,33344
1866,33408
1867,33600
1868,34176
1869,35264
1870,37056
1871,39616
1872,41792
1873,42432
1874,41536
1875,38976
1876,35712
1877,32832
1878,30784
1879,29696
1880,29440
1881,29760
1882,30528
1883,31296
1884,32000
1885,32576
1886,32960
1887,33344
1888,33664
1889,33856
1890,33856
1891,33792
1892,33728
1893,33728
1894,33856
1895,33792
1896,33728
1897,33664
1898,33664
1899,33728
1900,33792
1901,33728
1902,33600
1903,33536
1904,33536
1905,33536
1906,33600
1907,33728
1908,33792
1909,33856
1910,33984
1911,34112
1912,34176
1913,34112
1914,34176
1915,34240
1916,34240
1917,34112
1918,34048
1919,34112
1920,34240
1921,34304
1922,34432
1923,34432
1924,34496
1925,34560
1926,34624
1927,34752
1928,34944
1929,34944
1930,34880
1931,35008
1932,34944
1933,34944
1934,35008
1935,35072
1936,35136
1937,35200
1938,35264
1939,35264
1940,35328
1941,35264
1942,35200
1943,35072
1944,34880
1945,34752
1946,34624
1947,34560
1948,34368
1949,34048
1950,33728
1951,33472
1952,33280
1953,33024
1954,32960
1955,32832
1956,32832
1957,32832
1958,32640
1959,32576
1960,32704
1961,32768
1962,32704
1963,32640
1964,32576
1965,32640
1966,32768
1967,32896
1968,32960
1969,33024
1970,33088
1971,33088
1972,33152
1973,33280
1974,33280
1975,33216
1976,33280
1977,33280
1978,33152
1979,33088
1980,33024
1981,33088
1982,33152
1983,33216
1984,33152
1985,33216
1986,33344
1987,33280
1988,33152
1989,33152
1990,33152
1991,33152
1992,33152
1993,33152
1994,33152
1995,33088
1996,32960
1997,32960
1998,33024
1999,33024
2000,33024
2001,33024
2002,33088
2003,33152
2004,33216
2005,33216
2006,33216
2007,33216
2008,33280
2009,33408
2010,33408
2011,33344
2012,33216
2013,33216
2014,33152
2015,33088
2016,33088
2017,33088
2018,33152
2019,33216
2020,33280
2021,33344
2022,33472
2023,33536
2024,33600
2025,33600
2026,33536
2027,33472
2028,33344
2029,33216
2030,33280
2031,33344
2032,33472
2033,33536
2034,33536
2035,33536
2036,33664
2037,33600
2038,33536
2039,33600
2040,33600
2041,33472
2042,33344
2043,33280
2044,33280
2045,33344
2046,33408
2047,33536
2048,33664
2049,33664
2050,33664
2051,33664
2052,33664
2053,33600
2054,33600
2055,33536
2056,33536
2057,33600
2058,33600
2059,33664
2060,33792
2061,33920
2062,33792
2063,33728
2064,33664
2065,33600
2066,33536
2067,33472
2068,33600
2069,33792
2070,33856
2071,33920
2072,33984
2073,34112
2074,34176
2075,34240
2076,34304
2077,34496
2078,34624
2079,34624
2080,34624
2081,34688
2082,34624
2083,34496
2084,34496
2085,34496
2086,34432
2087,34112
2088,33792
2089,33600
2090,33472
2091,33280
2092,33152
2093,33088
2094,33088
2095,33088
2096,33088
2097,33216
2098,33344
2099,33408
2100,33408
2101,33472
2102,33600
2103,33600
2104,33600
2105,33536
2106,33536
2107,33600
2108,33536
2109,33536
2110,33600
2111,33792
2112,34112
2113,35072
2114,36800
2115,39232
2116,41408
2117,42176
2118,41472
2119,39424
2120,36352
2121,33600
2122,31424
2123,30144
2124,29568
2125,29632
2126,30208
2127,30976
2128,31872
2129,32576
2130,33088
2131,33536
2132,33792
2133,34048
2134,34240
2135,34240
2136,33984
2137,33792
2138,33728
2139,33664
2140,33728
2141,33728
2142,33792
2143,33920
2144,33920
2145,33856
2146,33728
2147,33728
2148,33856
2149,34048
2150,34112
2151,33984
2152,33984
2153,34048
2154,33984
2155,33920
2156,33920
2157,33920
2158,33920
2159,33920
2160,33984
2161,34048
2162,34112
2163,34176
2164,34304
2165,34368
2166,34432
2167,34432
2168,34432
2169,34496
2170,34560
2171,34624
2172,34752
2173,34880
2174,34880
2175,35008
2176,35072
2177,34944
2178,34816
2179,34688
2180,34688
2181,34688
2182,34816
2183,34816
2184,34880
2185,34944
2186,35072
2187,35072
2188,34944
2189,34880
2190,34944
2191,34944
2192,34752
2193,34432
2194,34112
2195,33792
2196,33472
2197,33280
2198,33152
2199,33088
2200,32960
2201,32896
2202,32896
2203,32832
2204,32768
2205,32768
2206,32768
2207,32768
2208,32768
2209,32832
2210,32896
2211,32960
2212,33024
2213,33024
2214,33152
2215,33216
2216,33216
2217,33216
2218,33216
2219,33280
2220,33280
2221,33280
2222,33344
2223,33344
2224,33344
2225,33280
2226,33344
2227,33408
2228,33344
2229,33280
2230,33216
2231,33280
2232,33216
2233,33152
2234,33216
2235,33344
2236,33344
2237,33280
2238,33216
2239,33280
2240,33408
2241,33408
2242,33216
2243,33152
2244,33344
2245,33408
2246,33344
2247,33280
2248,33216
2249,33216
2250,33216
2251,33216
2252,33280
2253,33280
2254,33280
2255,33344
2256,33344
2257,33216
2258,33024
2259,32896
2260,32832
2261,32896
2262,32960
2263,33088
2264,33280
2265,33472
2266,33472
2267,33472
2268,33472
2269,33472
2270,33472
2271,33472
2272,33600
2273,33600
2274,33600
2275,33536
2276,33536
2277,33600
2278,33600
2279,33600
2280,33536
2281,33472
2282,33408
2283,33408
2284,33472
2285,33536
2286,33536
2287,33536
2288,33536
2289,33600
2290,33728
2291,33728
2292,33664
2293,33728
2294,33792
2295,33792
2296,33792
2297,33792
2298,33728
2299,33600
2300,33536
2301,33600
2302,33728
2303,33792
2304,33856
2305,34048
2306,34304
2307,34368
2308,34240
2309,34112
2310,34176
2311,34240
2312,34432
2313,34624
2314,34752
2315,34688
2316,34560
2317,34368
2318,34176
2319,33920
2320,33792
2321,33792
2322,33728
2323,33664
2324,33600
2325,33408
2326,33344
2327,33280
2328,33088
2329,32896
2330,32960
2331,33088
2332,33152
2333,33152
2334,33216
2335,33280
2336,33344
2337,33408
2338,33472
2339,33664
2340,33856
2341,33920
2342,33792
2343,33600
2344,33728
2345,34368
2346,35648
2347,37696
2348,40320
2349,42112
2350,42176
2351,40768
2352,37888
2353,34752
2354,32128
2355,30336
2356,29504
2357,29376
2358,29824
2359,30528
2360,31360
2361,32128
2362,32704
2363,33152
2364,33600
2365,33920
2366,34048
2367,34048
2368,34176
2369,34240
2370,34112
2371,33792
2372,33664
2373,33728
2374,33856
2375,33792
2376,33728
2377,33600
2378,33600
2379,33536
2380,33600
2381,33728
2382,33856
2383,33984
2384,33984
2385,34048
2386,34048
2387,34112
2388,34176
2389,34304
2390,34304
2391,34304
2392,34368
2393,34368
2394,34432
2395,34368
2396,34368
2397,34432
2398,34560
2399,34624
2400,34624
2401,34752
2402,34880
2403,35008
2404,35072
2405,35008
2406,34944
2407,34944
2408,34944
2409,35008
2410,35008
2411,35008
2412,35008
2413,35072
2414,35200
2415,35328
2416,35264
2417,35200
2418,35200
2419,35264
2420,35328
2421,35200
2422,35072
2423,34944
2424,34688
2425,34432
2426,34112
2427,33920
2428,33728
2429,33408
2430,33152
2431,32896
2432,32832
2433,32768
2434,32768
2435,32768
2436,32768
2437,32832
2438,32832
2439,32768
2440,32704
2441,32704
2442,32704
2443,32768
2444,32832
2445,33024
2446,33216
2447,33280
2448,33216
2449,33088
2450,33024
2451,33024
2452,33152
2453,33216
2454,33216
2455,33152
2456,33088
2457,33216
2458,33280
2459,33280
2460,33408
2461,33408
2462,33344
2463,33280
2464,33216
2465,33216
2466,33216
2467,33152
2468,33152
2469,33152
2470,33088
2471,33088
2472,33152
2473,33280
2474,33216
2475,33152
2476,33152
2477,33152
2478,33152
2479,33088
2480,33088
2481,33088
2482,33216
2483,33344
2484,33344
2485,33280
2486,33280
2487,33280
2488,33216
2489,33152
2490,33088
2491,33088
2492,33152
2493,33280
2494,33472
2495,33472
2496,33344
2497,33280
2498,33280
2499,33280
2500,33280
2501,33344
2502,33408
2503,33472
2504,33472
2505,33408
2506,33408
2507,33472
2508,33472
2509,33472
2510,33472
2511,33536
2512,33536
2513,33472
2514,33408
2515,33408
2516,33472
2517,33536
2518,33472
2519,33472
2520,33536
2521,33472
2522,33472
2523,33536
2524,33600
2525,33728
2526,33792
2527,33728
2528,33664
2529,33536
2530,33472
2531,33536
2532,33536
2533,33536
2534,33600
2535,33664
2536,33728
2537,33728
2538,33728
2539,33792
2540,33792
2541,33792
2542,33792
2543,33728
2544,33792
2545,33728
2546,33728
2547,33792
2548,33728
2549,33600
2550,33472
2551,33536
2552,33664
2553,33792
2554,33856
2555,33984
2556,34176
2557,34240
2558,34304
2559,34304
2560,34368
2561,34496
2562,34560
2563,34688
2564,34816
2565,34816
2566,34624
2567,34432
2568,34240
2569,34048
2570,33792
2571,33728
2572,33664
2573,33600
2574,33472
2575,33408
2576,33344
2577,33408
2578,33408
2579,33280
2580,33152
2581,33216
2582,33344
2583,33408
2584,33408
2585,33408
2586,33408
2587,33408
2588,33408
2589,33408
2590,33472
2591,33408
2592,33344
2593,33536
2594,33920
2595,34624
2596,35904
2597,37888
2598,40512
2599,42368
2600,42560
2601,41152
2602,38272
2603,34944
2604,32064
2605,30336
2606,29376
2607,29248
2608,29696
2609,30464
2610,31360
2611,32256
2612,32832
2613,33216
2614,33472
2615,33664
2616,33792
2617,33856
2618,33920
2619,33920
2620,33920
2621,33856
2622,33728
2623,33664
2624,33600
2625,33600
2626,33664
2627,33728
2628,33728
2629,33728
2630,33728
2631,33792
2632,33920
2633,34048
2634,34048
2635,33984
2636,33856
2637,33856
2638,33792
2639,33856
2640,33920
2641,33984
2642,34048
2643,34176
2644,34176
2645,34240
2646,34304
2647,34304
2648,34432
2649,34432
2650,34368
2651,34432
2652,34496
2653,34560
2654,34688
2655,34752
2656,34752
2657,34816
2658,34816
2659,34816
2660,34880
2661,34944
2662,35008
2663,35008
2664,35136
2665,35264
2666,35328
2667,35328
2668,35264
2669,35264
2670,35200
2671,35008
2672,34880
2673,34752
2674,34560
2675,34432
2676,34176
2677,33920
2678,33728
2679,33408
2680,33216
2681,33088
2682,33024
2683,32896
2684,32768
2685,32768
2686,32768
2687,32832
2688,32768
2689,32768
2690,32768
2691,32768
2692,32832
2693,32896
2694,32960
2695,33088
2696,33024
2697,33088
2698,33152
2699,33280
2700,33280
2701,33280
2702,33280
2703,33280
2704,33216
2705,33216
2706,33216
2707,33216
2708,33216
2709,33152
2710,33152
2711,33216
2712,33216
2713,33344
2714,33472
2715,33472
2716,33408
2717,33280
2718,33152
2719,33088
2720,33088
2721,33088
2722,33088
2723,33216
2724,33280
2725,33088
2726,33024
2727,33088
2728,33088
2729,33088
2730,33216
2731,33280
2732,33216
2733,33088
2734,33024
2735,33024
2736,33088
2737,33088
2738,33152
2739,33280
2740,33408
2741,33472
2742,33344
2743,33216
2744,33216
2745,33216
2746,33152
2747,33216
2748,33280
2749,33280
2750,33344
2751,33472
2752,33536
2753,33472
2754,33408
2755,33344
2756,33344
2757,33344
2758,33280
2759,33344
2760,33472
2761,33472
2762,33472
2763,33408
2764,33344
2765,33408
2766,33472
2767,33536
2768,33472
2769,33472
2770,33472
2771,33408
2772,33408
2773,33472
2774,33536
2775,33600
2776,33664
2777,33728
2778,33728
2779,33600
2780,33600
2781,33600
2782,33536
2783,33472
2784,33536
2785,33536
2786,33600
2787,33536
2788,33536
2789,33536
2790,33600
2791,33664
2792,33664
2793,33600
2794,33664
2795,33792
2796,33920
2797,34112
2798,34368
2799,34432
2800,34368
2801,34368
2802,34368
2803,34304
2804,34240
2805,34240
2806,34304
2807,34432
2808,34496
2809,34496
2810,34432
2811,34240
2812,34112
2813,33856
2814,33728
2815,33664
2816,33600
2817,33472
2818,33408
2819,33280
2820,33152
2821,33024
2822,33088
2823,33152
2824,33152
2825,33216
2826,33344
2827,33600
2828,33664
2829,33536
2830,33472
2831,33472
2832,33472
2833,33408
2834,33280
2835,33216
2836,33344
2837,33600
2838,34304
2839,35456
2840,37440
2841,40064
2842,42112
2843,42496
2844,41344
2845,38784
2846,35712
2847,33024
2848,31104
2849,29952
2850,29504
2851,29632
2852,30272
2853,31104
2854,31744
2855,32512
2856,33088
2857,33472
2858,33728
2859,33856
2860,33920
2861,33984
2862,33984
2863,33920
2864,33920
2865,33856
2866,33792
2867,33728
2868,33728
2869,33728
2870,33728
2871,33728
2872,33792
2873,33920
2874,33984
2875,33920
2876,33920
2877,33920
2878,33984
2879,34048
2880,34112
2881,34112
2882,34176
2883,34112
2884,34048
2885,34112
2886,34176
2887,34304
2888,34304
2889,34368
2890,34368
2891,34432
2892,34496
2893,34560
2894,34688
2895,34752
2896,34752
2897,34688
2898,34624
2899,34624
2900,34752
2901,34816
2902,34944
2903,35136
2904,35136
2905,35072
2906,35072
2907,35072
2908,35072
2909,35072
2910,35200
2911,35264
2912,35328
2913,35264
2914,35200
2915,35072
2916,34944
2917,34752
2918,34560
2919,34304
2920,34112
2921,33856
2922,33664
2923,33472
2924,33344
2925,33152
2926,32960
2927,32960
2928,33024
2929,33152
2930,33152
2931,33088
2932,32960
2933,32960
2934,32896
2935,32896
2936,32896
2937,32896
2938,32960
2939,33024
2940,33024
2941,32960
2942,32896
2943,32960
2944,33088
2945,33088
2946,33088
2947,33152
2948,33216
2949,33344
2950,33280
2951,33216
2952,33280
2953,33280
2954,33216
2955,33216
2956,33216
2957,33280
2958,33216
2959,33152
2960,33088
2961,33088
2962,33088
2963,33088
2964,33152
2965,33344
2966,33472
2967,33536
2968,33472
2969,33344
2970,33088
2971,32896
2972,32768
2973,32832
2974,32960
2975,33024
2976,33152
2977,33216
2978,33280
2979,33280
2980,33280
2981,33344
2982,33408
2983,33472
2984,33408
2985,33408
2986,33344
2987,33344
2988,33408
2989,33408
2990,33408
2991,33344
2992,33280
2993,33280
2994,33344
2995,33408
2996,33408
2997,33344
2998,33408
2999,33472
3000,33472
3001,33472
3002,33472
3003,33664
3004,33728
3005,33728
3006,33600
3007,33536
3008,33408
3009,33344
3010,33344
3011,33344
3012,33280
3013,33216
3014,33280
3015,33408
3016,33408
3017,33408
3018,33408
3019,33536
3020,33664
3021,33600
3022,33536
3023,33600
3024,33600
3025,33600
3026,33600
3027,33600
3028,33600
3029,33600
3030,33600
3031,33728
3032,33728
3033,33728
3034,33728
3035,33664
3036,33600
3037,33536
3038,33472
3039,33600
3040,33600
3041,33536
3042,33408
3043,33472
3044,33600
3045,33728
3046,33792
3047,33984
3048,34240
3049,34368
3050,34432
3051,34432
3052,34432
3053,34368
3054,34304
3055,34304
3056,34432
3057,34496
3058,34432
3059,34304
3060,34176
3061,34048
3062,33856
3063,33792
3064,33728
3065,33600
3066,33472
3067,33280
3068,33216
3069,33216
3070,33216
3071,33088
3072,33024
3073,33024
3074,33024
3075,33152
3076,33280
3077,33472
3078,33600
3079,33600
3080,33472
3081,33472
3082,33472
3083,33408
3084,33408
3085,33408
3086,33600
3087,34048
3088,35200
3089,37056
3090,39488
3091,41792
3092,42688
3093,41472
3094,39296
3095,36160
3096,33024
3097,30720
3098,29440
3099,29056
3100,29376
3101,30016
3102,30848
3103,31616
3104,32384
3105,32960
3106,33408
3107,33664
3108,33728
3109,33728
3110,33664
3111,33728
3112,33728
3113,33728
3114,33664
3115,33600
3116,33536
3117,33536
3118,33536
3119,33536
3120,33600
3121,33600
3122,33600
3123,33728
3124,33792
3125,33792
3126,33792
3127,33792
3128,33856
3129,33856
3130,33856
3131,33920
3132,33920
3133,33984
3134,33984
3135,34112
3136,34176
3137,34304
3138,34368
3139,34304
3140,34304
3141,34240
3142,34240
3143,34240
3144,34304
3145,34368
3146,34432
3147,34560
3148,34752
3149,34816
3150,34880
3151,34944
3152,35008
3153,35008
3154,35008
3155,34944
3156,35008
3157,35136
3158,35264
3159,35200
3160,35136
3161,35200
3162,35200
3163,35136
3164,35072
3165,34944
3166,34880
3167,34752
3168,34432
3169,34240
3170,33920
3171,33536
3172,33216
3173,33152
3174,33088
3175,32960
3176,32704
3177,32640
3178,32576
3179,32512
3180,32640
3181,32768
3182,32768
3183,32704
3184,32704
3185,32768
3186,32896
3187,33024
3188,32960
3189,33024
3190,33088
3191,33024
3192,33088
3193,33088
3194,33152
3195,33216
3196,33280
3197,33344
3198,33408
3199,33408
3200,33280
3201,33152
3202,33024
3203,33024
3204,33024
3205,33088
3206,33216
3207,33216
3208,33152
3209,33152
3210,33152
3211,33152
3212,33088
3213,33088
3214,33216
3215,33216
3216,33152
3217,33024
3218,32960
3219,32960
3220,32960
3221,33024
3222,33088
3223,33216
3224,33280
3225,33280
3226,33216
3227,33152
3228,33216
3229,33344
3230,33344
3231,33280
3232,33280
3233,33216
3234,33216
3235,33280
3236,33344
3237,33344
3238,33280
3239,33216
3240,33152
3241,33152
3242,33216
3243,33344
3244,33408
3245,33472
3246,33408
3247,33344
3248,33344
3249,33408
3250,33408
3251,33472
3252,33472
3253,33472
3254,33472
3255,33472
3256,33536
3257,33536
3258,33600
3259,33600
3260,33536
3261,33536
3262,33600
3263,33600
3264,33600
3265,33536
3266,33600
3267,33664
3268,33728
3269,33728
3270,33728
3271,33728
3272,33664
3273,33728
3274,33728
3275,33728
3276,33728
3277,33664
3278,33664
3279,33600
3280,33472
3281,33472
3282,33536
3283,33600
3284,33600
3285,33664
3286,33664
3287,33728
3288,33792
3289,33856
3290,33920
3291,33856
3292,33728
3293,33600
3294,33600
3295,33664
3296,33728
3297,33728
3298,33856
3299,33984
3300,34176
3301,34368
3302,34432
3303,34368
3304,34240
3305,34240
3306,34304
3307,34432
3308,34496
3309,34624
3310,34816
3311,34816
3312,34496
3313,34112
3314,33792
3315,33664
3316,33536
3317,33472
3318,33472
3319,33536
3320,33536
3321,33344
3322,33216
3323,33152
3324,33152
3325,33088
3326,33152
3327,33216
3328,33408
3329,33472
3330,33408
3331,33408
3332,33408
3333,33408
3334,33408
3335,33472
3336,33472
3337,33408
3338,33408
3339,33600
3340,34048
3341,35008
3342,36672
3343,39040
3344,41408
3345,42496
3346,42048
3347,39808
3348,35456
3349,33536
3350,31232
3351,29824
3352,29376
3353,29504
3354,30080
3355,30848
3356,31680
3357,32384
3358,32960
3359,33344
3360,33664
3361,33856
3362,33984
3363,34048
3364,33984
3365,34048
3366,33984
3367,33856
3368,33728
3369,33664
3370,33664
3371,33600
3372,33600
3373,33600
3374,33664
3375,33664
3376,33664
3377,33728
3378,33856
3379,33792
3380,33856
3381,34112
3382,34304
3383,34240
3384,34048
3385,33920
3386,33920
3387,33920
3388,33920
3389,34048
3390,34176
3391,34240
3392,34176
3393,34176
3394,34240
3395,34368
3396,34432
3397,34496
3398,34560
3399,34624
3400,34688
3401,34688
3402,34752
3403,34880
3404,34880
3405,34944
3406,35008
3407,35072
3408,35008
3409,35008
3410,34944
3411,35008
3412,35072
3413,35008
3414,35008
3415,35008
3416,35008
3417,34944
3418,34880
3419,34752
3420,34624
3421,34496
3422,34368
3423,34176
3424,33856
3425,33600
3426,33408
3427,33216
3428,33024
3429,32960
3430,33024
3431,32960
3432,32896
3433,32768
3434,32576
3435,32512
3436,32576
3437,32704
3438,32768
3439,32768
3440,32768
3441,32832
3442,32960
3443,33088
3444,33152
3445,33152
3446,33152
3447,33216
3448,33344
3449,33536
3450,33536
3451,33408
3452,33280
3453,33152
3454,33152
3455,33216
3456,33216
3457,33152
3458,33152
3459,33088
3460,33152
3461,33216
3462,33216
3463,33216
3464,33152
3465,33152
3466,33152
3467,33088
3468,33152
3469,33216
3470,33344
3471,33280
3472,33216
3473,33216
3474,33344
3475,33472
3476,33472
3477,33280
3478,33152
3479,33024
3480,32960
3481,32960
3482,33024
3483,33088
3484,33088
3485,33152
3486,33216
3487,33280
3488,33344
3489,33344
3490,33408
3491,33408
3492,33408
3493,33408
3494,33408
3495,33472
3496,33472
3497,33408
3498,33408
3499,33408
3500,33344
3501,33344
3502,33408
3503,33472
3504,33472
3505,33472
3506,33472
3507,33472
3508,33600
3509,33600
3510,33472
3511,33408
3512,33344
3513,33280
3514,33280
3515,33344
3516,33344
3517,33344
3518,33408
3519,33472
3520,33536
3521,33472
3522,33472
3523,33536
3524,33664
3525,33728
3526,33728
3527,33728
3528,33728
3529,33664
3530,33728
3531,33728
3532,33664
3533,33600
3534,33536
3535,33600
3536,33664
3537,33728
3538,33856
3539,34048
3540,34304
3541,34432
3542,34432
3543,34304
3544,34240
3545,34176
3546,34240
3547,34240
3548,34368
3549,34560
3550,34688
3551,34688
3552,34688
3553,34624
3554,34432
3555,34176
3556,33984
3557,33856
3558,33536
3559,33344
3560,33216
3561,33216
3562,33152
3563,33152
3564,33152
3565,33216
3566,33280
3567,33344
3568,33344
3569,33472
3570,33536
3571,33664
3572,33728
3573,33664
3574,33600
3575,33536
3576,33536
3577,33472
3578,33408
3579,33408
3580,33536
3581,33856
3582,34816
3583,36416
3584,38848
3585,41344
3586,42496
3587,42112
3588,38592
3589,36736
3590,33984
3591,31680
3592,30208
3593,29568
3594,29632
3595,30080
3596,30720
3597,31552
3598,32256
3599,32896
3600,33280
3601,33536
3602,33728
3603,33920
3604,34048
3605,34176
3606,34176
3607,34048
3608,33920
3609,33792
3610,33728
3611,33664
3612,33664
3613,33664
3614,33728
3615,33792
3616,33856
3617,33920
3618,33984
3619,33984
3620,33984
3621,34048
3622,34112
3623,34176
3624,34176
3625,34176
3626,34176
3627,34240
3628,34240
3629,34240
3630,34176
3631,34240
3632,34304
3633,34496
3634,34496
3635,34624
3636,34752
3637,34752
3638,34688
3639,34624
3640,34560
3641,34560
3642,34624
3643,34624
3644,34752
3645,34944
3646,35072
3647,35136
3648,35200
3649,35200
3650,35264
3651,35264
3652,35328
3653,35392
3654,35456
3655,35392
3656,35328
3657,35264
3658,35200
3659,35072
3660,34880
3661,34752
3662,34560
3663,34304
3664,33984
3665,33728
3666,33536
3667,33408
3668,33216
3669,33088
3670,33024
3671,32832
3672,32704
3673,32640
3674,32768
3675,32768
3676,32640
3677,32640
3678,32640
3679,32704
3680,32704
3681,32832
3682,33024
3683,33088
3684,33152
3685,33280
3686,33344
3687,33408
3688,33280
3689,33152
3690,33088
3691,33024
3692,33024
3693,33024
3694,33152
3695,33280
3696,33280
3697,33280
3698,33408
3699,33536
3700,33472
3701,33280
3702,33216
3703,33152
3704,33088
3705,33088
3706,33152
3707,33088
3708,33088
3709,33088
3710,33088
3711,33152
3712,33152
3713,33216
3714,33216
3715,33280
3716,33216
3717,33152
3718,33024
3719,33024
3720,33088
3721,33152
3722,33216
3723,33216
3724,33216
3725,33216
3726,33216
3727,33280
3728,33344
3729,33408
3730,33280
3731,33216
3732,33280
3733,33344
3734,33280
3735,33216
3736,33280
3737,33216
3738,33216
3739,33152
3740,33408
3741,33472
3742,33536
3743,33536
3744,33472
3745,33344
3746,33280
3747,33344
3748,33408
3749,33344
3750,33344
3751,33472
3752,33536
3753,33600
3754,33600
3755,33664
3756,33728
3757,33664
3758,33536
3759,33408
3760,33408
3761,33472
3762,33344
3763,33280
3764,33344
3765,33408
3766,33408
3767,33408
3768,33472
3769,33600
3770,33664
3771,33792
3772,33984
3773,33856
3774,33664
3775,33600
3776,33536
3777,33536
3778,33600
3779,33664
3780,33728
3781,33792
3782,33856
3783,33792
3784,33728
3785,33728
3786,33664
3787,33600
3788,33728
3789,33856
3790,33856
3791,34304
3792,34368
3793,34432
3794,34432
3795,34432
3796,34496
3797,34560
3798,34560
3799,34560
3800,34624
3801,34560
3802,34368
3803,34304
3804,34112
3805,33920
3806,33792
3807,33600
3808,33472
3809,33344
3810,33280
3811,33216
3812,33152
3813,33152
3814,33280
3815,33280
3816,33280
3817,33152
3818,33152
3819,33216
3820,33280
3821,33408
3822,33536
3823,33536
3824,33536
3825,33536
3826,33536
3827,33600
3828,33600
3829,33536
3830,34176
3831,35200
3832,36928
3833,39424
3834,41792
3835,42752
3836,42112
3837,39680
3838,36288
3839,33216
3840,31040
3841,29760
3842,29312
3843,29504
3844,29568
3845,30976
3846,31872
3847,32576
3848,33088
3849,33408
3850,33664
3851,33856
3852,33920
3853,33920
3854,33920
3855,33856
3856,33856
3857,33792
3858,33728
3859,33728
3860,33728
3861,33728
3862,33728
3863,33728
3864,33792
3865,33856
3866,33792
3867,33728
3868,33856
3869,33920
3870,33984
3871,34112
3872,33984
3873,33792
3874,33728
3875,33728
3876,33792
3877,33984
3878,34176
3879,34240
3880,34304
3881,34304
3882,34368
3883,34368
3884,34368
3885,34432
3886,34496
3887,34496
3888,34624
3889,34752
3890,34816
3891,34880
3892,34944
3893,35072
3894,35136
3895,35072
3896,34944
3897,34944
3898,35072
3899,35072
3900,35072
3901,35136
3902,35200
3903,35264
3904,35264
3905,35264
3906,35328
3907,35264
3908,35008
3909,34752
3910,34624
3911,34496
3912,34240
3913,33984
3914,33728
3915,33536
3916,33344
3917,33216
3918,33088
3919,32960
3920,32832
3921,32704
3922,32704
3923,32768
3924,32768
3925,32768
3926,32832
3927,32896
3928,32832
3929,32896
3930,32896
3931,32960
3932,33024
3933,33088
3934,33280
3935,33472
3936,33536
3937,33408
3938,33216
3939,33152
3940,33216
3941,33216
3942,33280
3943,33280
3944,33216
3945,33152
3946,33216
3947,33280
3948,33280
3949,33216
3950,33216
3951,33216
3952,33152
3953,33152
3954,33152
3955,33280
3956,33344
3957,33280
3958,33152
3959,33088
3960,33152
3961,33152
3962,33152
3963,33088
3964,33152
3965,33280
3966,33280
3967,33280
3968,33280
3969,33280
3970,33216
3971,33088
3972,33024
3973,33024
3974,33088
3975,33152
3976,33280
3977,33344
3978,33344
3979,33280
3980,33216
3981,33280
3982,33280
3983,33280
3984,33280
3985,33344
3986,33344
3987,33408
3988,33536
3989,33536
3990,33408
3991,33344
3992,33472
3993,33600
3994,33536
3995,33472
3996,33408
3997,33472
3998,33536
3999,33472
4000,33408
4001,33344
4002,33280
4003,33280
4004,33344
4005,33472
4006,33600
4007,33600
4008,33600
4009,33600
4010,33664
4011,33728
4012,33664
4013,33664
4014,33664
4015,33664
4016,33664
4017,33664
4018,33792
4019,33856
4020,33792
4021,33664
4022,33600
4023,33664
4024,33728
4025,33728
4026,33728
4027,33792
4028,33792
4029,33792
4030,33728
4031,33792
4032,33856
4033,33920
4034,33920
4035,33856
4036,33856
4037,33920
4038,34112
4039,34240
4040,34368
4041,34304
4042,34368
4043,34496
4044,34624
4045,34624
4046,34624
4047,34688
4048,34624
4049,34560
4050,34496
4051,34304
4052,34176
4053,33984
4054,33792
4055,33536
4056,33408
4057,33344
4058,33216
4059,33088
4060,33024
4061,33024
4062,33088
4063,33280
4064,33408
4065,33408
4066,33408
4067,33472
4068,33536
4069,33600
4070,33728
4071,33728
4072,33664
4073,33536
4074,33344
4075,33408
4076,33600
4077,33984
4078,34880
4079,36480
4080,38784
4081,41216
4082,42176
4083,41536
4084,39616
4085,36800
4086,34048
4087,31808
4088,30336
4089,29568
4090,29504
4091,29952
4092,30656
4093,31488
4094,32320
4095,33024
4096,33472
4097,33728
4098,33856
4099,33920
4100,33984
4101,34048
4102,34176
4103,34112
4104,33984
4105,33792
4106,33792
4107,33728
4108,33728
4109,33664
4110,33728
4111,33728
4112,33664
4113,33728
4114,33792
4115,33856
4116,33920
4117,33920
4118,33984
4119,34112
4120,34048
4121,34048
4122,34112
4123,34240
4124,34368
4125,34304
4126,34240
4127,34240
4128,34176
4129,34176
4130,34304
4131,34432
4132,34560
4133,34560
4134,34624
4135,34624
4136,34688
4137,34688
4138,34752
4139,34816
4140,34816
4141,34816
4142,34816
4143,34880
4144,34944
4145,35008
4146,35008
4147,35008
4148,35008
4149,35008
4150,35072
4151,35136
4152,35200
4153,35200
4154,35200
4155,35072
4156,34880
4157,34624
4158,34368
4159,34176
4160,34112
4161,33984
4162,33728
4163,33472
4164,33344
4165,33152
4166,32896
4167,32768
4168,32640
4169,32640
4170,32640
4171,32704
4172,32704
4173,32832
4174,32832
4175,32896
4176,33024
4177,33088
4178,33088
4179,33088
4180,33088
4181,33152
4182,33152
4183,33216
4184,33344
4185,33472
4186,33408
4187,33408
4188,33472
4189,33536
4190,33408
4191,33280
4192,33152
4193,33088
4194,33088
4195,33088
4196,33088
4197,33088
4198,33152
4199,33216
4200,33216
4201,33280
4202,33344
4203,33344
4204,33344
4205,33280
4206,33280
4207,33216
4208,33152
4209,33152
4210,33216
4211,33408
4212,33408
4213,33344
4214,33216
4215,33152
4216,33024
4217,32960
4218,32960
4219,33088
4220,33152
4221,33280
4222,33344
4223,33408
4224,33408
4225,33408
4226,33408
4227,33408
4228,33408
4229,33408
4230,33344
4231,33344
4232,33280
4233,33216
4234,33216
4235,33344
4236,33408
4237,33472
4238,33472
4239,33536
4240,33600
4241,33664
4242,33536
4243,33472
4244,33472
4245,33536
4246,33536
4247,33536
4248,33600
4249,33536
4250,33408
4251,33344
4252,33344
4253,33472
4254,33472
4255,33600
4256,33664
4257,33664
4258,33600
4259,33536
4260,33600
4261,33664
4262,33600
4263,33664
4264,33664
4265,33664
4266,33600
4267,33600
4268,33600
4269,33600
4270,33600
4271,33664
4272,33792
4273,34048
4274,34176
4275,34304
4276,34304
4277,34368
4278,34368
4279,34368
4280,34432
4281,34496
4282,34560
4283,34624
4284,34688
4285,34624
4286,34496
4287,34368
4288,34112
4289,33920
4290,33856
4291,33792
4292,33600
4293,33408
4294,33280
4295,33216
4296,33216
4297,33280
4298,33344
4299,33280
4300,33216
4301,33280
4302,33344
4303,33344
4304,33280
4305,33280
4306,33344
4307,33408
4308,33472
4309,33472
4310,33472
4311,33472
4312,33472
4313,33536
4314,33856
4315,34496
4316,35904
4317,38016
4318,40640
4319,42432
4320,42624
4321,41152
4322,38144
4323,34816
4324,32128
4325,30272
4326,29376
4327,29312
4328,29696
4329,30400
4330,31168
4331,32000
4332,32640
4333,33088
4334,33472
4335,33792
4336,33920
4337,33920
4338,33920
4339,33984
4340,33920
4341,33856
4342,33728
4343,33664
4344,33728
4345,33728
4346,33664
4347,33600
4348,33664
4349,33664
4350,33664
4351,33728
4352,33728
4353,33728
4354,33792
4355,33856
4356,34048
4357,34176
4358,34240
4359,34240
4360,34112
4361,33984
4362,33920
4363,33856
4364,33856
4365,33984
4366,34112
4367,34240
4368,34368
4369,34432
4370,34432
4371,34432
4372,34496
4373,34624
4374,34624
4375,34624
4376,34688
4377,34752
4378,34880
4379,34880
4380,34944
4381,35008
4382,35072
4383,35136
4384,35136
4385,35200
4386,35200
4387,35136
4388,35136
4389,35200
4390,35200
4391,35136
4392,35008
4393,34880
4394,34624
4395,34304
4396,34048
4397,33856
4398,33664
4399,33408
4400,33152
4401,32960
4402,32896
4403,32832
4404,32640
4405,32576
4406,32576
4407,32576
4408,32512
4409,32448
4410,32512
4411,32640
4412,32704
4413,32704
4414,32768
4415,32832
4416,32832
4417,32896
4418,33088
4419,33216
4420,33216
4421,33152
4422,33088
4423,33024
4424,33088
4425,33152
4426,33152
4427,33088
4428,32960
4429,32832
4430,32832
4431,32960
4432,32960
4433,32960
4434,33024
4435,33152
4436,33280
4437,33280
4438,33216
4439,33088
4440,33024
4441,33024
4442,33024
4443,33088
4444,33088
4445,33088
4446,33088
4447,33152
4448,33152
4449,33152
4450,33152
4451,33088
4452,33152
4453,33280
4454,33344
4455,33280
4456,33088
4457,33024
4458,32960
4459,32960
4460,33024
4461,33152
4462,33216
4463,33280
4464,33344
4465,33344
4466,33408
4467,33408
4468,33408
4469,33408
4470,33280
4471,33216
4472,33216
4473,33280
4474,33280
4475,33280
4476,33344
4477,33408
4478,33408
4479,33408
4480,33344
4481,33344
4482,33472
4483,33472
4484,33408
4485,33344
4486,33280
4487,33280
4488,33280
4489,33472
4490,33664
4491,33600
4492,33472
4493,33408
4494,33472
4495,33408
4496,33344
4497,33408
4498,33536
4499,33600
4500,33664
4501,33792
4502,33856
4503,33728
4504,33664
4505,33600
4506,33536
4507,33536
4508,33472
4509,33536
4510,33536
4511,33536
4512,33536
4513,33536
4514,33600
4515,33664
4516,33792
4517,33920
4518,34112
4519,34304
4520,34304
4521,34368
4522,34432
4523,34432
4524,34432
4525,34432
4526,34368
4527,34304
4528,34368
4529,34240
4530,34176
4531,34176
4532,34176
4533,33984
4534,33792
4535,33600
4536,33408
4537,33152
4538,33152
4539,33152
4540,33024
4541,32768
4542,32640
4543,32704
4544,32896
4545,33024
4546,33088
4547,33152
4548,33216
4549,33216
4550,33216
4551,33344
4552,33344
4553,33472
4554,33536
4555,33536
4556,33664
4557,33856
4558,34112
4559,34816
4560,36352
4561,38656
4562,41024
4563,42112
4564,41664
4565,39616
4566,36416
4567,33280
4568,31040
4569,29632
4570,29184
4571,29376
4572,30016
4573,30848
4574,31616
4575,32320
4576,32960
4577,33408
4578,33728
4579,33792
4580,33728
4581,33728
4582,33728
4583,33664
4584,33664
4585,33728
4586,33728
4587,33728
4588,33664
4589,33664
4590,33664
4591,33600
4592,33600
4593,33600
4594,33600
4595,33664
4596,33728
4597,33856
4598,33984
4599,33856
4600,33664
4601,33600
4602,33664
4603,33792
4604,33920
4605,33920
4606,34048
4607,34112
4608,34112
4609,34112
4610,34176
4611,34240
4612,34304
4613,34432
4614,34496
4615,34560
4616,34688
4617,34816
4618,34880
4619,35008
4620,34944
4621,34816
4622,34752
4623,34752
4624,34752
4625,34752
4626,34944
4627,35136
4628,35072
4629,35008
4630,35008
4631,35072
4632,35264
4633,35328
4634,35136
4635,34944
4636,34816
4637,34752
4638,34624
4639,34496
4640,34304
4641,34048
4642,33792
4643,33536
4644,33344
4645,33280
4646,33088
4647,32896
4648,32896
4649,32832
4650,32704
4651,32704
4652,32768
4653,32896
4654,32960
4655,32960
4656,32960
4657,33024
4658,33024
4659,33152
4660,33216
4661,33216
4662,33088
4663,33088
4664,33152
4665,33216
4666,33280
4667,33344
4668,33536
4669,33600
4670,33472
4671,33280
4672,33152
4673,33088
4674,33088
4675,33152
4676,33280
4677,33344
4678,33280
4679,33280
4680,33344
4681,33408
4682,33344
4683,33280
4684,33152
4685,33152
4686,33152
4687,33088
4688,33152
4689,33216
4690,33344
4691,33344
4692,33280
4693,33280
4694,33344
4695,33344
4696,33216
4697,33152
4698,33152
4699,33152
4700,33216
4701,33344
4702,33408
4703,33344
4704,33280
4705,33280
4706,33216
4707,33152
4708,33152
4709,33216
4710,33280
4711,33344
4712,33344
4713,33472
4714,33472
4715,33536
4716,33536
4717,33472
4718,33472
4719,33408
4720,33408
4721,33408
4722,33472
4723,33600
4724,33600
4725,33472
4726,33408
4727,33344
4728,33344
4729,33344
4730,33344
4731,33408
4732,33472
4733,33536
4734,33600
4735,33600
4736,33600
4737,33600
4738,33664
4739,33664
4740,33600
4741,33472
4742,33472
4743,33536
4744,33728
4745,33856
4746,33856
4747,33856
4748,33856
4749,33792
4750,33792
4751,33920
4752,33920
4753,33984
4754,34048
4755,34176
4756,34432
4757,34624
4758,34688
4759,34752
4760,34752
4761,34688
4762,34496
4763,34240
4764,34112
4765,33920
4766,33728
4767,33472
4768,33280
4769,33216
4770,33216
4771,33280
4772,33344
4773,33344
4774,33216
4775,33088
4776,33024
4777,33088
4778,33216
4779,33280
4780,33280
4781,33408
4782,33408
4783,33408
4784,33408
4785,33408
4786,33408
4787,33280
4788,33216
4789,33408
4790,33920
4791,34816
4792,36544
4793,38912
4794,41408
4795,42368
4796,41792
4797,39552
4798,36480
4799,33600
4800,31424
4801,30144
4802,29632
4803,29696
4804,30144
4805,30848
4806,31616
4807,32320
4808,32832
4809,33408
4810,33728
4811,33920
4812,33920
4813,33984
4814,34048
4815,34112
4816,33984
4817,33856
4818,33728
4819,33728
4820,33728
4821,33728
4822,33728
4823,33856
4824,33984
4825,34048
4826,34112
4827,33984
4828,33920
4829,33856
4830,33856
4831,33984
4832,34048
4833,34112
4834,34112
4835,34176
4836,34112
4837,34176
4838,34240
4839,34304
4840,34368
4841,34368
4842,34368
4843,34368
4844,34432
4845,34496
4846,34560
4847,34624
4848,34688
4849,34752
4850,34944
4851,34944
4852,34880
4853,34880
4854,34880
4855,34880
4856,35008
4857,35072
4858,35072
4859,35072
4860,35136
4861,35264
4862,35200
4863,35200
4864,35200
4865,35264
4866,35200
4867,35136
4868,35072
4869,34880
4870,34688
4871,34432
4872,34240
4873,34176
4874,34048
4875,33728
4876,33344
4877,33088
4878,32960
4879,32896
4880,32896
4881,32896
4882,32832
4883,32832
4884,32768
4885,32768
4886,32768
4887,32768
4888,32768
4889,32896
4890,33024
4891,33088
4892,33088
4893,33152
4894,33216
4895,33280
4896,33344
4897,33408
4898,33408
4899,33408
4900,33408
4901,33408
4902,33472
4903,33472
4904,33536
4905,33408
4906,33216
4907,33152
4908,33216
4909,33216
4910,33152
4911,33152
4912,33152
4913,33152
4914,33216
4915,33216
4916,33216
4917,33152
4918,33152
4919,33216
4920,33216
4921,33152
4922,33152
4923,33216
4924,33216
4925,33152
4926,33152
4927,33152
4928,33216
4929,33344
4930,33408
4931,33344
4932,33216
4933,33152
4934,33152
4935,33088
4936,33088
4937,33152
4938,33216
4939,33216
4940,33280
4941,33344
4942,33408
4943,33472
4944,33536
4945,33536
4946,33408
4947,33344
4948,33344
4949,33408
4950,33344
4951,33344
4952,33408
4953,33600
4954,33600
4955,33536
4956,33408
4957,33408
4958,33472
4959,33536
4960,33536
4961,33600
4962,33664
4963,33728
4964,33664
4965,33536
4966,33472
4967,33472
4968,33536
4969,33600
4970,33600
4971,33600
4972,33664
4973,33728
4974,33664
4975,33600
4976,33536
4977,33536
4978,33600
4979,33664
4980,33664
4981,33728
4982,33792
4983,33792
4984,33664
4985,33600
4986,33600
4987,33664
4988,33728
4989,33856
4990,34048
4991,34176
4992,34368
4993,34496
4994,34560
4995,34496
4996,34368
4997,34304
4998,34304
4999,34368
5000,34496
5001,34496
5002,34560
5003,34560
5004,34368
5005,34176
5006,34048
5007,33856
5008,33664
5009,33472
5010,33472
5011,33472
5012,33408
5013,33344
5014,33280
5015,33152
5016,33088
5017,33152
5018,33280
5019,33408
5020,33408
5021,33344
5022,33408
5023,33536
5024,33600
5025,33600
5026,33536
5027,33536
5028,33536
5029,33600
5030,33728
5031,34048
5032,34880
5033,36480
5034,38976
5035,41600
5036,42816
5037,42432
5038,40256
5039,36928
5040,33728
5041,31296
5042,29888
5043,29312
5044,29504
5045,30016
5046,30720
5047,31488
5048,32192
5049,32896
5050,33344
5051,33728
5052,33984
5053,33984
5054,33920
5055,33856
5056,33856
5057,33792
5058,33792
5059,33792
5060,33856
5061,33792
5062,33664
5063,33600
5064,33664
5065,33728
5066,33920
5067,34048
5068,34048
5069,33856
5070,33792
5071,33856
5072,33920
5073,33856
5074,33792
5075,33728
5076,33792
5077,33856
5078,33920
5079,33984
5080,34112
5081,34240
5082,34304
5083,34304
5084,34368
5085,34368
5086,34432
5087,34432
5088,34560
5089,34688
5090,34880
5091,34944
5092,34944
5093,34944
5094,35008
5095,35008
5096,34880
5097,34880
5098,35072
5099,35264
5100,35264
5101,35136
5102,35072
5103,35136
5104,35136
5105,35072
5106,35072
5107,35136
5108,35136
5109,35072
5110,34944
5111,34752
5112,34496
5113,34176
5114,33984
5115,33856
5116,33600
5117,33408
5118,33280
5119,33088
5120,32960
5121,32768
5122,32704
5123,32768
5124,32832
5125,32832
5126,32896
5127,32832
5128,32704
5129,32576
5130,32512
5131,32576
5132,32704
5133,32768
5134,32832
5135,33024
5136,33088
5137,33088
5138,33152
5139,33152
5140,33280
5141,33280
5142,33216
5143,33216
5144,33280
5145,33280
5146,33280
5147,33280
5148,33280
5149,33280
5150,33216
5151,33216
5152,33280
5153,33216
5154,33152
5155,33088
5156,33152
5157,33280
5158,33344
5159,33216
5160,33088
5161,32960
5162,32960
5163,32960
5164,33024
5165,33088
5166,33088
5167,33088
5168,33152
5169,33280
5170,33216
5171,33152
5172,33152
5173,33216
5174,33344
5175,33344
5176,33280
5177,33216
5178,33280
5179,33280
5180,33280
5181,33344
5182,33344
5183,33344
5184,33280
5185,33344
5186,33408
5187,33344
5188,33344
5189,33344
5190,33344
5191,33408
5192,33408
5193,33472
5194,33472
5195,33472
5196,33472
5197,33536
5198,33600
5199,33664
5200,33728
5201,33792
5202,33856
5203,33792
5204,33664
5205,33536
5206,33408
5207,33280
5208,33280
5209,33280
5210,33408
5211,33536
5212,33600
5213,33664
5214,33664
5215,33664
5216,33600
5217,33664
5218,33856
5219,34048
5220,33920
5221,33728
5222,33664
5223,33600
5224,33472
5225,33472
5226,33472
5227,33536
5228,33536
5229,33536
5230,33664
5231,33792
5232,33856
5233,33792
5234,33728
5235,33792
5236,33856
5237,33920
5238,34112
5239,34176
5240,34304
5241,34368
5242,34368
5243,34304
5244,34304
5245,34368
5246,34432
5247,34560
5248,34752
5249,34816
5250,34752
5251,34560
5252,34432
5253,34176
5254,33920
5255,33664
5256,33536
5257,33344
5258,33216
5259,33152
5260,33216
5261,33280
5262,33408
5263,33408
5264,33344
5265,33344
5266,33344
5267,33344
5268,33472
5269,33536
5270,33600
5271,33600
5272,33536
5273,33536
5274,33536
5275,33472
5276,33408
5277,33408
5278,33600
5279,33984
5280,34624
5281,35968
5282,37888
5283,40384
5284,42112
5285,42240
5286,40768
5287,37888
5288,34688
5289,32128
5290,30400
5291,29632
5292,29504
5293,29760
5294,30336
5295,31040
5296,31808
5297,32512
5298,33152
5299,33408
5300,33664
5301,33856
5302,33984
5303,33984
5304,33920
5305,33792
5306,33728
5307,33664
5308,33600
5309,33600
5310,33664
5311,33792
5312,33856
5313,33984
5314,34048
5315,33984
5316,33920
5317,33792
5318,33792
5319,33792
5320,33728
5321,33728
5322,33728
5323,33792
5324,33920
5325,33920
5326,33984
5327,34048
5328,34112
5329,34176
5330,34240
5331,34368
5332,34368
5333,34432
5334,34496
5335,34560
5336,34560
5337,34560
5338,34560
5339,34624
5340,34688
5341,34816
5342,34880
5343,34944
5344,34944
5345,34944
5346,35008
5347,35008
5348,35072
5349,35072
5350,35008
5351,35008
5352,35008
5353,35072
5354,35072
5355,35136
5356,35200
5357,35264
5358,35072
5359,34880
5360,34560
5361,34304
5362,33984
5363,33664
5364,33536
5365,33344
5366,33216
5367,33088
5368,33088
5369,33088
5370,33024
5371,32768
5372,32704
5373,32704
5374,32704
5375,32704
5376,32768
5377,32832
5378,32896
5379,32960
5380,33024
5381,33152
5382,33280
5383,33280
5384,33344
5385,33408
5386,33472
5387,33344
5388,33216
5389,33216
5390,33216
5391,33280
5392,33280
5393,33344
5394,33280
5395,33280
5396,33216
5397,33280
5398,33344
5399,33280
5400,33280
5401,33344
5402,33472
5403,33472
5404,33344
5405,33216
5406,33152
5407,33216
5408,33216
5409,33216
5410,33152
5411,33152
5412,33152
5413,33216
5414,33280
5415,33280
5416,33216
5417,33216
5418,33280
5419,33344
5420,33408
5421,33344
5422,33280
5423,33280
5424,33280
5425,33344
5426,33408
5427,33472
5428,33408
5429,33216
5430,33152
5431,33216
5432,33280
5433,33344
5434,33280
5435,33344
5436,33344
5437,33280
5438,33216
5439,33216
5440,33280
5441,33344
5442,33408
5443,33472
5444,33472
5445,33536
5446,33600
5447,33664
5448,33600
5449,33472
5450,33408
5451,33344
5452,33344
5453,33472
5454,33728
5455,33920
5456,33792
5457,33536
5458,33344
5459,33280
5460,33344
5461,33472
5462,33600
5463,33664
5464,33664
5465,33664
5466,33664
5467,33600
5468,33664
5469,33792
5470,33792
5471,33856
5472,33984
5473,34176
5474,34240
5475,34304
5476,34368
5477,34496
5478,34624
5479,34560
5480,34560
5481,34624
5482,34560
5483,34368
5484,34176
5485,34048
5486,33856
5487,33728
5488,33728
5489,33664
5490,33472
5491,33280
5492,33152
5493,33088
5494,33152
5495,33152
5496,33088
5497,33088
5498,33152
5499,33216
5500,33216
5501,33344
5502,33472
5503,33472
5504,33344
5505,33344
5506,33472
5507,33472
5508,33408
5509,33344
5510,33344
5511,33536
5512,34048
5513,35136
5514,36992
5515,39744
5516,41792
5517,42496
5518,41600
5519,39104
5520,35584
5521,32960
5522,30912
5523,29440
5524,29312
5525,29504
5526,30080
5527,30848
5528,31680
5529,32384
5530,32960
5531,33344
5532,33600
5533,33728
5534,33856
5535,33920
5536,33984
5537,33856
5538,33728
5539,33664
5540,33664
5541,33664
5542,33600
5543,33600
5544,33600
5545,33728
5546,33728
5547,33728
5548,33728
5549,33856
5550,33856
5551,33856
5552,33856
5553,33856
5554,33856
5555,33856
5556,34048
5557,34048
5558,34112
5559,34176
5560,34240
5561,34240
5562,34304
5563,34304
5564,34432
5565,34560
5566,34688
5567,34688
5568,34624
5569,34496
5570,34432
5571,34560
5572,34688
5573,34816
5574,34880
5575,34816
5576,35008
5577,35072
5578,35072
5579,35072
5580,35072
5581,35136
5582,35136
5583,35072
5584,35136
5585,35200
5586,35200
5587,35136
5588,35072
5589,34944
5590,34816
5591,34560
5592,34304
5593,34240
5594,33856
5595,33600
5596,33344
5597,33216
5598,33152
5599,32832
5600,32704
5601,32704
5602,32704
5603,32640
5604,32640
5605,32576
5606,32640
5607,32640
5608,32704
5609,32832
5610,33024
5611,33088
5612,33152
5613,33088
5614,33152
5615,33152
5616,33088
5617,33088
5618,33088
5619,33152
5620,33088
5621,33088
5622,33088
5623,33024
5624,33024
5625,32960
5626,33024
5627,33152
5628,33152
5629,33216
5630,33280
5631,33280
5632,33216
5633,33216
5634,33216
5635,33216
5636,33216
5637,33152
5638,33152
5639,33088
5640,33088
5641,33152
5642,33216
5643,33216
5644,33152
5645,33088
5646,33152
5647,33216
5648,33216
5649,33408
5650,33344
5651,33344
5652,33152
5653,33088
5654,33024
5655,33024
5656,33088
5657,33152
5658,33152
5659,33216
5660,33344
5661,33344
5662,33344
5663,33344
5664,33408
5665,33344
5666,33344
5667,33408
5668,33472
5669,33472
5670,33408
5671,33472
5672,33408
5673,33472
5674,33408
5675,33408
5676,33472
5677,33536
5678,33408
5679,33280
5680,33408
5681,33536
5682,33472
5683,33344
5684,33408
5685,33472
5686,33408
5687,33344
5688,33344
5689,33472
5690,33600
5691,33600
5692,33536
5693,33536
5694,33536
5695,33536
5696,33600
5697,33664
5698,33600
5699,33472
5700,33408
5701,33536
5702,33536
5703,33536
5704,33600
5705,33728
5706,33792
5707,33664
5708,33536
5709,33472
5710,33600
5711,33728
5712,33728
5713,33664
5714,33664
5715,33792
5716,33856
5717,34048
5718,34240
5719,34368
5720,34368
5721,34304
5722,34304
5723,34368
5724,34432
5725,34432
5726,34496
5727,34496
5728,34432
5729,34304
5730,34112
5731,33984
5732,33792
5733,33664
5734,33600
5735,33536
5736,33472
5737,33408
5738,33408
5739,33408
5740,33280
5741,33152
5742,33152
5743,33152
5744,33152
5745,33280
5746,33408
5747,33600
5748,33600
5749,33472
5750,33344
5751,33408
5752,33408
5753,33280
5754,33216
5755,33280
5756,33536
5757,33920
5758,34752
5759,36352
5760,38784
5761,41408
5762,42816
5763,42624
5764,40576
5765,37248
5766,33984
5767,31424
5768,29888
5769,29248
5770,29440
5771,30080
5772,30848
5773,31552
5774,32128
5775,32640
5776,33152
5777,33536
5778,33664
5779,33728
5780,33792
5781,33920
5782,33920
5783,33856
5784,33792
5785,33792
5786,33792
5787,33792
5788,33792
5789,33792
5790,33792
5791,33728
5792,33792
5793,33792
5794,33792
5795,33792
5796,33728
5797,33792
5798,33920
5799,33984
5800,34112
5801,34112
5802,34240
5803,34240
5804,34112
5805,33984
5806,33920
5807,33984
5808,34048
5809,34176
5810,34304
5811,34432
5812,34496
5813,34624
5814,34688
5815,34688
5816,34688
5817,34752
5818,34880
5819,34880
5820,34880
5821,34944
5822,35008
5823,35072
5824,35136
5825,35264
5826,35392
5827,35328
5828,35200
5829,35072
5830,35008
5831,35136
5832,35200
5833,35136
5834,35072
5835,35008
5836,34816
5837,34624
5838,34496
5839,34304
5840,34112
5841,33920
5842,33728
5843,33472
5844,33216
5845,33024
5846,32896
5847,32832
5848,32768
5849,32768
5850,32704
5851,32768
5852,32832
5853,32768
5854,32832
5855,32896
5856,32960
5857,33024
5858,33088
5859,33152
5860,33152
5861,33088
5862,33088
5863,33088
5864,33088
5865,33152
5866,33216
5867,33280
5868,33280
5869,33216
5870,33216
5871,33216
5872,33216
5873,33216
5874,33216
5875,33216
5876,33280
5877,33344
5878,33280
5879,33280
5880,33216
5881,33216
5882,33216
5883,33216
5884,33408
5885,33472
5886,33408
5887,33280
5888,33152
5889,33152
5890,33088
5891,33088
5892,33024
5893,33024
5894,33152
5895,33152
5896,33088
5897,33152
5898,33216
5899,33216
5900,33280
5901,33344
5902,33344
5903,33344
5904,33344
5905,33344
5906,33408
5907,33344
5908,33280
5909,33280
5910,33408
5911,33472
5912,33408
5913,33280
5914,33280
5915,33280
5916,33344
5917,33408
5918,33600
5919,33728
5920,33600
5921,33472
5922,33408
5923,33408
5924,33344
5925,33408
5926,33472
5927,33536
5928,33536
5929,33536
5930,33600
5931,33600
5932,33472
5933,33408
5934,33472
5935,33600
5936,33664
5937,33536
5938,33536
5939,33600
5940,33728
5941,33728
5942,33728
5943,33664
5944,33600
5945,33472
5946,33536
5947,33600
5948,33600
5949,33600
5950,33664
5951,33792
5952,33920
5953,33792
5954,33664
5955,33600
5956,33536
5957,33600
5958,33600
5959,33600
5960,33664
5961,33728
5962,33728
5963,33856
5964,33920
5965,33920
5966,33920
5967,34048
5968,34176
5969,34240
5970,34240
5971,34240
5972,34304
5973,34432
5974,34432
5975,34496
5976,34624
5977,34688
5978,34624
5979,34560
5980,34432
5981,34304
5982,34176
5983,33984
5984,33856
5985,33728
5986,33536
5987,33344
5988,33344
5989,33344
5990,33280
5991,33280
5992,33280
5993,33280
5994,33280
5995,33280
5996,33344
5997,33408
5998,33472
5999,33472
6000,33536
6001,33472
6002,33536
6003,33536
6004,33472
6005,33408
6006,33536
6007,33728
6008,34304
6009,35584
6010,37568
6011,40192
6012,41984
6013,42304
6014,41152
6015,38464
6016,35264
6017,32576
6018,30720
6019,29696
6020,29312
6021,29568
6022,30336
6023,31232
6024,32000
6025,32704
6026,33152
6027,33408
6028,33600
6029,33728
6030,33856
6031,33920
6032,33920
6033,33856
6034,33856
6035,33856
6036,33856
6037,33792
6038,33728
6039,33728
6040,33792
6041,33728
6042,33664
6043,33664
6044,33664
6045,33664
6046,33728
6047,33856
6048,33984
6049,33984
6050,34048
6051,34112
6052,34112
6053,34112
6054,34048
6055,34048
6056,34112
6057,34240
6058,34240
6059,34240
6060,34240
6061,34304
6062,34304
6063,34432
6064,34496
6065,34560
6066,34560
6067,34560
6068,34560
6069,34624
6070,34624
6071,34624
6072,34752
6073,34880
6074,34944
6075,34944
6076,34944
6077,34880
6078,34880
6079,34880
6080,34944
6081,35072
6082,35072
6083,35008
6084,34944
6085,34880
6086,34880
6087,34944
6088,34880
6089,34624
6090,34240
6091,33856
6092,33600
6093,33408
6094,33280
6095,33088
6096,32896
6097,32896
6098,32960
6099,32960
6100,32960
6101,32896
6102,32832
6103,32768
6104,32768
6105,32832
6106,32896
6107,33024
6108,33088
6109,33216
6110,33280
6111,33344
6112,33344
6113,33280
6114,33216
6115,33152
6116,33216
6117,33280
6118,33344
6119,33472
6120,33472
6121,33408
6122,33280
6123,33280
6124,33216
6125,33280
6126,33408
6127,33408
6128,33344
6129,33280
6130,33344
6131,33408
6132,33344
6133,33280
6134,33280
6135,33280
6136,33280
6137,33280
6138,33344
6139,33408
6140,33472
6141,33408
6142,33344
6143,33344
6144,33344
6145,33344
6146,33344
6147,33472
6148,33536
6149,33472
6150,33344
6151,33344
6152,33280
6153,33280
6154,33280
6155,33344
6156,33472
6157,33472
6158,33408
6159,33472
6160,33536
6161,33536
6162,33472
6163,33472
6164,33472
6165,33472
6166,33408
6167,33408
6168,33472
6169,33600
6170,33600
6171,33536
6172,33536
6173,33600
6174,33472
6175,33472
6176,33472
6177,33472
6178,33536
6179,33600
6180,33600
6181,33728
6182,33728
6183,33664
6184,33600
6185,33600
6186,33664
6187,33664
6188,33664
6189,33728
6190,33792
6191,33728
6192,33664
6193,33728
6194,33792
6195,33984
6196,34176
6197,34432
6198,34496
6199,34432
6200,34368
6201,34496
6202,34560
6203,34560
6204,34432
6205,34432
6206,34432
6207,34368
6208,34240
6209,34112
6210,34048
6211,33856
6212,33792
6213,33600
6214,33408
6215,33344
6216,33280
6217,33280
6218,33216
6219,33280
6220,33280
6221,33280
6222,33408
6223,33472
6224,33408
6225,33280
6226,33216
6227,33216
6228,33280
6229,33344
6230,33472
6231,33600
6232,33600
6233,33536
6234,33536
6235,33664
6236,34112
6237,34944
6238,36608
6239,39040
6240,41600
6241,42688
6242,42176
6243,40000
6244,36864
6245,33856
6246,31552
6247,30144
6248,29568
6249,29632
6250,30080
6251,30784
6252,31616
6253,32320
6254,32960
6255,33408
6256,33792
6257,33920
6258,34048
6259,34048
6260,33984
6261,33984
6262,33920
6263,33984
6264,34112
6265,34112
6266,33984
6267,33792
6268,33600
6269,33664
6270,33792
6271,33856
6272,33984
6273,34112
6274,33984
6275,33856
6276,33920
6277,33984
6278,34048
6279,34112
6280,34112
6281,34048
6282,33984
6283,33984
6284,34112
6285,34240
6286,34240
6287,34304
6288,34432
6289,34688
6290,34880
6291,34752
6292,34496
6293,34368
6294,34368
6295,34304
6296,34368
6297,34496
6298,34816
6299,35072
6300,35136
6301,35072
6302,35136
6303,35072
6304,35008
6305,35072
6306,35136
6307,35264
6308,35328
6309,35264
6310,35200
6311,35200
6312,35200
6313,35072
6314,34944
6315,34752
6316,34560
6317,34304
6318,34112
6319,33920
6320,33600
6321,33344
6322,33280
6323,33152
6324,32960
6325,32832
6326,32832
6327,32704
6328,32640
6329,32576
6330,32640
6331,32704
6332,32704
6333,32768
6334,32768
6335,32768
6336,32768
6337,32832
6338,32896
6339,33024
6340,33088
6341,33152
6342,33216
6343,33280
6344,33344
6345,33408
6346,33280
6347,33152
6348,33152
6349,33216
6350,33216
6351,33152
6352,33152
6353,33152
6354,33088
6355,33152
6356,33216
6357,33280
6358,33280
6359,33280
6360,33344
6361,33344
6362,33280
6363,33216
6364,33216
6365,33280
6366,33280
6367,33280
6368,33280
6369,33344
6370,33216
6371,33088
6372,33152
6373,33216
6374,33344
6375,33408
6376,33472
6377,33408
6378,33344
6379,33216
6380,33216
6381,33216
6382,33216
6383,33152
6384,33152
6385,33216
6386,33280
6387,33408
6388,33408
6389,33344
6390,33280
6391,33280
6392,33344
6393,33472
6394,33472
6395,33472
6396,33536
6397,33600
6398,33600
6399,33408
6400,33344
6401,33344
6402,33408
6403,33472
6404,33472
6405,33472
6406,33600
6407,33600
6408,33600
6409,33664
6410,33664
6411,33536
6412,33472
6413,33536
6414,33600
6415,33600
6416,33536
6417,33600
6418,33664
6419,33600
6420,33536
6421,33536
6422,33536
6423,33536
6424,33536
6425,33536
6426,33664
6427,33664
6428,33664
6429,33600
6430,33600
6431,33600
6432,33600
6433,33600
6434,33600
6435,33664
6436,33600
6437,33536
6438,33600
6439,33664
6440,33664
6441,33792
6442,33792
6443,33856
6444,34048
6445,34176
6446,34240
6447,34240
6448,34304
6449,34368
6450,34432
6451,34432
6452,34496
6453,34624
6454,34624
6455,34496
6456,34368
6457,34240
6458,34048
6459,33856
6460,33728
6461,33728
6462,33728
6463,33600
6464,33408
6465,33216
6466,33024
6467,32896
6468,32960
6469,33088
6470,33216
6471,33280
6472,33344
6473,33408
6474,33536
6475,33600
6476,33600
6477,33536
6478,33536
6479,33472
6480,33472
6481,33536
6482,33728
6483,33792
6484,33856
6485,34368
6486,35648
6487,37632
6488,40192
6489,42176
6490,42560
6491,41408
6492,38528
6493,35136
6494,32320
6495,30400
6496,29312
6497,29120
6498,29568
6499,30336
6500,31168
6501,31936
6502,32640
6503,33216
6504,33600
6505,33792
6506,33920
6507,33920
6508,33856
6509,33856
6510,33920
6511,33920
6512,33792
6513,33600
6514,33536
6515,33600
6516,33600
6517,33536
6518,33600
6519,33664
6520,33728
6521,33792
6522,33792
6523,33856
6524,33792
6525,33920
6526,33984
6527,33984
6528,33984
6529,33984
6530,33984
6531,33984
6532,34048
6533,34176
6534,34304
6535,34304
6536,34304
6537,34240
6538,34240
6539,34368
6540,34432
6541,34432
6542,34496
6543,34560
6544,34624
6545,34752
6546,34816
6547,34880
6548,34880
6549,34880
6550,34944
6551,35008
6552,35072
6553,35136
6554,35136
6555,35072
6556,35072
6557,35072
6558,35136
6559,35200
6560,35264
6561,35328
6562,35200
6563,35008
6564,34816
6565,34560
6566,34304
6567,34048
6568,33920
6569,33728
6570,33536
6571,33344
6572,33152
6573,33024
6574,32896
6575,32768
6576,32704
6577,32640
6578,32576
6579,32576
6580,32640
6581,32768
6582,32832
6583,32896
6584,33024
6585,33152
6586,33152
6587,33152
6588,33216
6589,33280
6590,33280
6591,33280
6592,33280
6593,33280
6594,33344
6595,33344
6596,33280
6597,33216
6598,33216
6599,33216
6600,33152
6601,33088
6602,33152
6603,33216
6604,33216
6605,33216
6606,33280
6607,33280
6608,33280
6609,33280
6610,33280
6611,33152
6612,33088
6613,33024
6614,33088
6615,33088
6616,33152
6617,33216
6618,33216
6619,33152
6620,33152
6621,33088
6622,33088
6623,33088
6624,33152
6625,33152
6626,33280
6627,33408
6628,33472
6629,33408
6630,33280
6631,33216
6632,33216
6633,33216
6634,33152
6635,33088
6636,33088
6637,33088
6638,33152
6639,33216
6640,33280
6641,33280
6642,33280
6643,33344
6644,33408
6645,33344
6646,33280
6647,33280
6648,33408
6649,33472
6650,33536
6651,33472
6652,33472
6653,33408
6654,33344
6655,33344
6656,33472
6657,33536
6658,33600
6659,33600
6660,33664
6661,33728
6662,33728
6663,33600
6664,33472
6665,33408
6666,33280
6667,33216
6668,33280
6669,33472
6670,33600
6671,33600
6672,33664
6673,33728
6674,33664
6675,33600
6676,33536
6677,33536
6678,33600
6679,33600
6680,33600
6681,33664
6682,33728
6683,33728
6684,33792
6685,33984
6686,34176
6687,34304
6688,34368
6689,34368
6690,34304
6691,34304
6692,34304
6693,34368
6694,34432
6695,34432
6696,34368
6697,34368
6698,34304
6699,34112
6700,33856
6701,33728
6702,33600
6703,33472
6704,33344
6705,33280
6706,33344
6707,33280
6708,33152
6709,33088
6710,33088
6711,33152
6712,33216
6713,33216
6714,33280
6715,33344
6716,33408
6717,33408
6718,33408
6719,33536
6720,33536
6721,33472
6722,33472
6723,33536
6724,33472
6725,33600
6726,34048
6727,35328
6728,37184
6729,39744
6730,41728
6731,42176
6732,41152
6733,38592
6734,35520
6735,32960
6736,31168
6737,30080
6738,29568
6739,29760
6740,30336
6741,31104
6742,31744
6743,32448
6744,33088
6745,33408
6746,33664
6747,33728
6748,33856
6749,33920
6750,33984
6751,34112
6752,34240
6753,34176
6754,33984
6755,33792
6756,33664
6757,33728
6758,33664
6759,33728
6760,33792
6761,33792
6762,33728
6763,33728
6764,33792
6765,33920
6766,34048
6767,34048
6768,33984
6769,34048
6770,34112
6771,34112
6772,34048
6773,33984
6774,34048
6775,34176
6776,34240
6777,34368
6778,34368
6779,34240
6780,34176
6781,34304
6782,34432
6783,34496
6784,34496
6785,34496
6786,34624
6787,34752
6788,34880
6789,35008
6790,35072
6791,34880
6792,34688
6793,34560
6794,34560
6795,34560
6796,34624
6797,34624
6798,34752
6799,34880
6800,35008
6801,35072
6802,35072
6803,34944
6804,34752
6805,34560
6806,34432
6807,34304
6808,34112
6809,33920
6810,33792
6811,33664
6812,33472
6813,33280
6814,33216
6815,33088
6816,32896
6817,32704
6818,32640
6819,32640
6820,32576
6821,32640
6822,32704
6823,32768
6824,32768
6825,32768
6826,32832
6827,32896
6828,32960
6829,33024
6830,33024
6831,33088
6832,33152
6833,33152
6834,33152
6835,33152
6836,33280
6837,33216
6838,33216
6839,33216
6840,33216
6841,33280
6842,33344
6843,33408
6844,33408
6845,33344
6846,33280
6847,33344
6848,33280
6849,33152
6850,33088
6851,33024
6852,33088
6853,33152
6854,33152
6855,33152
6856,33216
6857,33280
6858,33344
6859,33280
6860,33280
6861,33344
6862,33344
6863,33280
6864,33280
6865,33280
6866,33280
6867,33344
6868,33408
6869,33472
6870,33408
6871,33408
6872,33408
6873,33408
6874,33472
6875,33408
6876,33408
6877,33536
6878,33600
6879,33472
6880,33344
6881,33344
6882,33408
6883,33472
6884,33472
6885,33472
6886,33536
6887,33408
6888,33344
6889,33344
6890,33472
6891,33472
6892,33472
6893,33472
6894,33472
6895,33472
6896,33472
6897,33536
6898,33600
6899,33728
6900,33728
6901,33664
6902,33600
6903,33536
6904,33536
6905,33472
6906,33408
6907,33408
6908,33472
6909,33536
6910,33792
6911,34112
6912,34176
6913,34112
6914,34112
6915,34176
6916,34304
6917,34176
6918,34112
6919,34112
6920,34176
6921,34304
6922,34560
6923,34624
6924,34624
6925,34560
6926,34304
6927,34048
6928,33856
6929,33728
6930,33472
6931,33280
6932,33216
6933,33216
6934,33280
6935,33344
6936,33216
6937,33088
6938,33152
6939,33408
6940,33600
6941,33536
6942,33280
6943,33152
6944,33216
6945,33280
6946,33280
6947,33280
6948,33344
6949,33344
6950,33344
6951,33408
6952,33600
6953,34048
6954,35008
6955,36672
6956,39104
6957,41536
6958,42624
6959,42112
6960,39872
6961,36672
6962,33536
6963,30912
6964,29888
6965,29568
6966,29696
6967,30080
6968,30656
6969,31424
6970,32128
6971,32768
6972,33216
6973,33536
6974,33728
6975,33792
6976,33856
6977,33984
6978,34048
6979,33984
6980,33920
6981,33856
6982,33792
6983,33728
6984,33600
6985,33536
6986,33600
6987,33728
6988,33792
6989,33856
6990,33856
6991,33856
6992,33856
6993,33920
6994,33984
6995,34112
6996,34240
6997,34240
6998,34176
6999,34048
7000,33984
7001,33984
7002,34048
7003,34240
7004,34304
7005,34304
7006,34368
7007,34432
7008,34496
7009,34496
7010,34560
7011,34688
7012,34688
7013,34688
7014,34688
7015,34816
7016,34944
7017,35008
7018,35136
7019,35264
7020,35328
7021,35264
7022,35072
7023,34944
7024,35008
7025,35008
7026,35072
7027,35200
7028,35264
7029,35328
7030,35264
7031,35072
7032,34880
7033,34688
7034,34368
7035,34112
7036,33856
7037,33664
7038,33344
7039,33216
7040,33088
7041,32960
7042,32896
7043,32768
7044,32704
7045,32640
7046,32640
7047,32704
7048,32768
7049,32768
7050,32768
7051,32768
7052,32768
7053,32832
7054,32896
7055,32960
7056,33152
7057,33280
7058,33280
7059,33344
7060,33408
7061,33344
7062,33280
7063,33216
7064,33280
7065,33280
7066,33280
7067,33152
7068,33088
7069,33152
7070,33216
7071,33216
7072,33216
7073,33280
7074,33280
7075,33216
7076,33152
7077,33152
7078,33152
7079,33216
7080,33280
7081,33280
7082,33216
7083,33152
7084,33088
7085,33152
7086,33216
7087,33216
7088,33152
7089,33152
7090,33152
7091,33216
7092,33344
7093,33408
7094,33472
7095,33472
7096,33408
7097,33216
7098,33152
7099,33152
7100,33152
7101,33216
7102,33280
7103,33280
7104,33344
7105,33344
7106,33472
7107,33472
7108,33408
7109,33280
7110,33280
7111,33280
7112,33280
7113,33280
7114,33344
7115,33408
7116,33472
7117,33472
7118,33536
7119,33536
7120,33664
7121,33600
7122,33536
7123,33536
7124,33664
7125,33664
7126,33600
7127,33536
7128,33472
7129,33472
7130,33408
7131,33408
7132,33472
7133,33472
7134,33536
7135,33600
7136,33728
7137,33856
7138,33792
7139,33792
7140,33664
7141,33600
7142,33600
7143,33600
7144,33600
7145,33664
7146,33728
7147,33728
7148,33728
7149,33728
7150,33728
7151,33600
7152,33536
7153,33664
7154,33728
7155,33856
7156,34112
7157,34368
7158,34496
7159,34432
7160,34432
7161,34496
7162,34496
7163,34560
7164,34560
7165,34624
7166,34688
7167,34624
7168,34496
7169,34368
7170,34048
7171,33728
7172,33536
7173,33472
7174,33408
7175,33408
7176,33344
7177,33472
7178,33408
7179,33280
7180,33152
7181,33152
7182,33216
7183,33344
7184,33344
7185,33472
7186,33536
7187,33536
7188,33472
7189,33472
7190,33536
7191,33600
7192,33536
7193,33472
7194,33536
7195,33856
7196,34368
7197,35392
7198,37120
7199,39488
7200,41664
7201,42560
7202,41920
7203,38336
7204,35776
7205,32896
7206,30720
7207,29568
7208,29312
7209,29696
7210,30272
7211,31104
7212,31872
7213,32512
7214,33088
7215,33536
7216,33856
7217,33920
7218,33984
7219,33984
7220,33984
7221,33984
7222,34048
7223,33984
7224,33792
7225,33536
7226,33472
7227,33472
7228,33536
7229,33664
7230,33792
7231,33856
7232,33984
7233,34048
7234,33984
7235,33984
7236,33920
7237,33920
7238,33920
7239,33984
7240,34048
7241,34112
7242,34240
7243,34176
7244,34112
7245,34112
7246,34112
7247,34176
7248,34368
7249,34432
7250,34560
7251,34560
7252,34560
7253,34624
7254,34624
7255,34624
7256,34624
7257,34688
7258,34688
7259,34816
7260,34880
7261,34944
7262,35072
7263,35072
7264,35008
7265,34944
7266,35008
7267,35008
7268,35072
7269,35200
7270,35200
7271,35200
7272,35200
7273,35200
7274,35136
7275,34944
7276,34688
7277,34560
7278,34368
7279,34112
7280,33792
7281,33536
7282,33408
7283,33280
7284,33088
7285,32896
7286,32832
7287,32768
7288,32704
7289,32704
7290,32768
7291,32960
7292,33152
7293,33344
7294,33280
7295,33152
7296,32960
7297,32832
7298,32832
7299,32896
7300,33024
7301,33024
7302,33024
7303,33024
7304,33088
7305,33152
7306,33280
7307,33344
7308,33344
7309,33280
7310,33216
7311,33216
7312,33152
7313,33216
7314,33280
7315,33280
7316,33344
7317,33280
7318,33216
7319,33152
7320,33088
7321,33088
7322,33024
7323,33088
7324,33088
7325,33088
7326,32960
7327,32960
7328,33024
7329,33088
7330,33088
7331,33152
7332,33280
7333,33280
7334,33152
7335,33088
7336,33024
7337,33024
7338,33024
7339,33024
7340,33152
7341,33216
7342,33216
7343,33152
7344,33280
7345,33280
7346,33216
7347,33216
7348,33280
7349,33280
7350,33344
7351,33344
7352,33472
7353,33472
7354,33408
7355,33344
7356,33280
7357,33280
7358,33280
7359,33344
7360,33408
7361,33408
7362,33472
7363,33472
7364,33472
7365,33664
7366,33792
7367,33664
7368,33472
7369,33408
7370,33408
7371,33408
7372,33408
7373,33408
7374,33472
7375,33728
7376,33664
7377,33600
7378,33600
7379,33664
7380,33536
7381,33408
7382,33344
7383,33280
7384,33472
7385,33472
7386,33600
7387,33728
7388,33920
7389,33984
7390,33920
7391,33792
7392,33728
7393,33664
7394,33728
7395,33792
7396,33984
7397,34304
7398,34240
7399,34304
7400,34304
7401,34176
7402,34240
7403,34304
7404,34432
7405,34560
7406,34624
7407,34688
7408,34624
7409,34368
7410,34112
7411,33920
7412,33728
7413,33728
7414,33664
7415,33536
7416,33408
7417,33408
7418,33408
7419,33344
7420,33280
7421,33152
7422,33152
7423,33152
7424,33216
7425,33344
7426,33408
7427,33472
7428,33472
7429,33536
7430,33472
7431,33472
7432,33536
7433,33472
7434,33408
7435,33472
7436,33664
7437,34176
7438,35136
7439,36800
7440,39232
7441,41472
7442,42112
7443,41920
7444,41408
7445,36480
7446,33728
7447,31744
7448,30400
7449,29632
7450,29504
7451,29952
7452,30656
7453,31424
7454,32128
7455,32832
7456,33344
7457,33856
7458,33856
7459,34112
7460,34112
7461,34048
7462,33920
7463,33792
7464,33728
7465,33728
7466,33792
7467,33792
7468,33792
7469,33856
7470,33984
7471,34048
7472,33920
7473,33856
7474,33792
7475,33728
7476,33792
7477,33920
7478,33984
7479,34048
7480,34048
7481,34048
7482,34048
7483,33984
7484,33984
7485,34112
7486,34240
7487,34304
7488,34304
7489,34304
7490,34304
7491,34368
7492,34368
7493,34432
7494,34496
7495,34496
7496,34496
7497,34560
7498,34688
7499,34752
7500,34816
7501,34816
7502,34880
7503,34816
7504,35072
7505,35136
7506,35072
7507,35008
7508,34944
7509,34944
7510,35072
7511,35200
7512,35200
7513,35072
7514,35008
7515,34944
7516,34752
7517,34496
7518,34432
7519,34240
7520,34048
7521,33856
7522,33664
7523,33472
7524,33280
7525,33088
7526,32960
7527,32960
7528,32960
7529,33024
7530,32960
7531,32896
7532,32896
7533,33024
7534,33088
7535,33024
7536,32896
7537,32832
7538,32768
7539,32832
7540,33024
7541,33152
7542,33152
7543,33152
7544,33152
7545,33216
7546,33216
7547,33280
7548,33216
7549,33344
7550,33280
7551,33280
7552,33344
7553,33408
7554,33472
7555,33408
7556,33344
7557,33408
7558,33408
7559,33408
7560,33408
7561,33344
7562,33280
7563,33280
7564,33344
7565,33280
7566,33152
7567,33088
7568,33088
7569,33152
7570,33216
7571,33216
7572,33216
7573,33216
7574,33216
7575,33280
7576,33280
7577,33408
7578,33344
7579,33344
7580,33408
7581,33472
7582,33472
7583,33472
7584,33408
7585,33472
7586,33536
7587,33472
7588,33472
7589,33472
7590,33536
7591,33472
7592,33472
7593,33472
7594,33472
7595,33408
7596,33408
7597,33408
7598,33472
7599,33472
7600,33408
7601,33344
7602,33408
7603,33472
7604,33472
7605,33472
7606,33472
7607,33536
7608,33600
7609,33664
7610,33728
7611,33728
7612,33664
7613,33728
7614,33856
7615,33856
7616,33728
7617,33664
7618,33664
7619,33664
7620,33664
7621,33664
7622,33600
7623,33664
7624,33728
7625,33728
7626,33728
7627,33664
7628,33664
7629,33600
7630,33664
7631,33728
7632,33856
7633,34048
7634,34176
7635,34304
7636,34432
7637,34496
7638,34432
7639,34496
7640,34560
7641,34560
7642,34624
7643,34688
7644,34688
7645,34624
7646,34496
7647,34240
7648,34112
7649,33920
7650,33792
7651,33600
7652,33536
7653,33472
7654,33408
7655,33344
7656,33280
7657,33280
7658,33344
7659,33472
7660,33408
7661,33344
7662,33280
7663,33344
7664,33408
7665,33472
7666,33472
7667,33472
7668,33472
7669,33600
7670,33664
7671,33600
7672,33536
7673,33728
7674,34240
7675,35072
7676,36672
7677,39040
7678,41536
7679,42688
7680,42240
7681,40064
7682,36800
7683,33600
7684,31232
7685,29888
7686,29440
7687,29568
7688,30080
7689,30848
7690,31616
7691,32320
7692,32896
7693,33408
7694,33664
7695,33792
7696,33920
7697,33920
7698,33920
7699,33920
7700,33984
7701,34048
7702,33984
7703,33792
7704,33600
7705,33472
7706,33408
7707,33536
7708,33600
7709,33664
7710,33792
7711,33984
7712,33984
7713,33984
7714,34048
7715,34048
7716,33920
7717,33792
7718,33792
7719,33920
7720,34048
7721,34240
7722,34304
7723,34304
7724,34304
7725,34240
7726,34240
7727,34304
7728,34432
7729,34560
7730,34624
7731,34624
7732,34688
7733,34688
7734,34752
7735,34816
7736,34880
7737,35008
7738,35072
7739,35072
7740,35200
7741,35264
7742,35264
7743,35200
7744,35200
7745,35136
7746,35072
7747,35008
7748,35072
7749,35136
7750,35136
7751,35072
7752,35136
7753,35200
7754,35008
7755,34624
7756,34240
7757,33984
7758,33792
7759,33536
7760,33216
7761,33024
7762,32832
7763,32768
7764,32704
7765,32768
7766,32832
7767,32896
7768,32832
7769,32768
7770,32704
7771,32640
7772,32640
7773,32704
7774,32768
7775,32896
7776,33024
7777,33152
7778,33216
7779,33344
7780,33408
7781,33408
7782,33344
7783,33280
7784,33216
7785,33152
7786,33216
7787,33216
7788,33216
7789,33152
7790,33152
7791,33152
7792,33088
7793,33088
7794,33088
7795,33088
7796,33152
7797,33344
7798,33408
7799,33344
7800,33152
7801,33024
7802,32960
7803,33024
7804,33024
7805,33088
7806,33152
7807,33152
7808,33152
7809,33216
7810,33216
7811,33280
7812,33216
7813,33088
7814,33088
7815,33088
7816,33088
7817,33088
7818,33216
7819,33280
7820,33344
7821,33344
7822,33280
7823,33344
7824,33344
7825,33344
7826,33344
7827,33472
7828,33408
7829,33280
7830,33216
7831,33216
7832,33344
7833,33408
7834,33408
7835,33408
7836,33472
7837,33472
7838,33536
7839,33664
7840,33728
7841,33600
7842,33472
7843,33280
7844,33280
7845,33344
7846,33408
7847,33472
7848,33536
7849,33536
7850,33472
7851,33472
7852,33472
7853,33536
7854,33536
7855,33472
7856,33536
7857,33600
7858,33600
7859,33536
7860,33536
7861,33664
7862,33664
7863,33600
7864,33536
7865,33600
7866,33664
7867,33664
7868,33600
7869,33600
7870,33600
7871,33600
7872,33600
7873,33728
7874,33856
7875,33920
7876,33920
7877,33920
7878,33920
7879,33984
7880,33984
7881,34112
7882,34240
7883,34240
7884,34112
7885,34048
7886,34048
7887,34176
7888,34304
7889,34496
7890,34624
7891,34688
7892,34560
7893,34368
7894,34240
7895,34112
7896,33984
7897,33792
7898,33728
7899,33600
7900,33472
7901,33472
7902,33408
7903,33344
7904,33344
7905,33344
7906,33280
7907,33280
7908,33280
7909,33280
7910,33344
7911,33408
7912,33472
7913,33536
7914,33536
7915,33536
7916,33472
7917,33472
7918,33472
7919,33536
7920,33728
7921,34048
7922,34688
7923,36160
7924,38272
7925,40832
7926,42368
7927,42304
7928,40576
7929,37440
7930,34304
7931,31744
7932,30144
7933,29440
7934,29440
7935,29888
7936,30592
7937,31424
7938,32192
7939,32832
7940,33280
7941,33536
7942,33728
7943,33856
7944,33920
7945,33920
7946,33792
7947,33664
7948,33664
7949,33664
7950,33600
7951,33664
7952,33728
7953,33856
7954,33792
7955,33792
7956,33792
7957,33792
7958,33856
7959,33856
7960,33792
7961,33728
7962,33664
7963,33664
7964,33792
7965,33920
7966,33984
7967,33920
7968,33856
7969,33856
7970,33984
7971,34048
7972,34048
7973,34112
7974,34240
7975,34368
7976,34432
7977,34496
7978,34496
7979,34496
7980,34496
7981,34496
7982,34560
7983,34560
7984,34560
7985,34624
7986,34752
7987,34880
7988,34880
7989,34944
7990,34944
7991,34944
7992,34944
7993,34944
7994,35008
7995,35136
7996,35136
7997,35008
7998,35008
7999,35008
8000,34880
8001,34624
8002,34432
8003,34368
8004,34240
8005,33984
8006,33728
8007,33536
8008,33344
8009,33152
8010,33024
8011,32896
8012,32832
8013,32768
8014,32704
8015,32768
8016,32768
8017,32832
8018,32896
8019,32960
8020,33024
8021,33088
8022,33088
8023,32960
8024,33024
8025,33152
8026,33216
8027,33216
8028,33152
8029,33088
8030,33024
8031,33088
8032,33280
8033,33408
8034,33280
8035,33280
8036,33280
8037,33280
8038,33280
8039,33216
8040,33280
8041,33344
8042,33280
8043,33216
8044,33088
8045,33088
8046,33088
8047,33152
8048,33344
8049,33472
8050,33344
8051,33152
8052,33088
8053,33152
8054,33216
8055,33152
8056,33152
8057,33216
8058,33344
8059,33216
8060,33088
8061,33024
8062,33088
8063,33088
8064,33152
8065,33280
8066,33280
8067,33280
8068,33280
8069,33280
8070,33216
8071,33216
8072,33216
8073,33280
8074,33408
8075,33472
8076,33344
8077,33280
8078,33280
8079,33216
8080,33216
8081,33216
8082,33280
8083,33408
8084,33408
8085,33408
8086,33408
8087,33408
8088,33408
8089,33536
8090,33664
8091,33728
8092,33600
8093,33472
8094,33344
8095,33408
8096,33408
8097,33408
8098,33472
8099,33600
8100,33664
8101,33600
8102,33664
8103,33728
8104,33664
8105,33536
8106,33408
8107,33408
8108,33472
8109,33536
8110,33600
8111,33728
8112,33792
8113,33728
8114,33664
8115,33664
8116,33664
8117,33664
8118,33728
8119,33856
8120,34112
8121,34176
8122,34176
8123,34176
8124,34240
8125,34240
8126,34240
8127,34304
8128,34560
8129,34752
8130,34752
8131,34624
8132,34432
8133,34240
8134,33984
8135,33728
8136,33536
8137,33472
8138,33344
8139,33216
8140,33216
8141,33280
8142,33344
8143,33280
8144,33152
8145,33216
8146,33344
8147,33344
8148,33344
8149,33408
8150,33536
8151,33472
8152,33408
8153,33408
8154,33472
8155,33408
8156,33344
8157,33344
8158,33472
8159,33600
8160,34048
8161,35264
8162,37056
8163,39488
8164,41664
8165,42304
8166,41472
8167,39168
8168,36096
8169,33280
8170,31488
8171,30272
8172,29760
8173,29760
8174,30208
8175,30848
8176,31552
8177,32320
8178,33024
8179,33472
8180,33728
8181,33920
8182,33984
8183,33984
8184,33984
8185,33856
8186,33792
8187,33792
8188,33792
8189,33792
8190,33856
8191,33920
8192,33856
8193,33664
8194,33664
8195,33728
8196,33856
8197,33920
8198,33856
8199,33856
8200,33856
8201,33920
8202,33984
8203,34176
8204,34304
8205,34368
8206,34368
8207,34240
8208,34176
8209,34112
8210,34176
8211,34240
8212,34304
8213,34368
8214,34432
8215,34624
8216,34752
8217,34752
8218,34752
8219,34816
8220,34816
8221,34752
8222,34624
8223,34624
8224,34752
8225,34880
8226,34880
8227,34944
8228,35008
8229,35072
8230,35136
8231,35200
8232,35264
8233,35264
8234,35328
8235,35328
8236,35264
8237,35136
8238,35008
8239,34880
8240,34688
8241,34560
8242,34496
8243,34368
8244,34048
8245,33856
8246,33664
8247,33344
8248,33088
8249,32896
8250,32768
8251,32704
8252,32640
8253,32704
8254,32832
8255,32896
8256,32960
8257,32960
8258,32960
8259,32960
8260,32960
8261,33088
8262,33088
8263,33152
8264,33152
8265,33216
8266,33216
8267,33280
8268,33280
8269,33344
8270,33408
8271,33408
8272,33280
8273,33152
8274,33152
8275,33152
8276,33152
8277,33216
8278,33408
8279,33472
8280,33408
8281,33408
8282,33472
8283,33472
8284,33280
8285,33088
8286,33024
8287,33088
8288,33152
8289,33152
8290,33152
8291,33152
8292,33216
8293,33216
8294,33216
8295,33280
8296,33280
8297,33280
8298,33216
8299,33280
8300,33344
8301,33344
8302,33280
8303,33216
8304,33152
8305,33152
8306,33088
8307,33152
8308,33216
8309,33280
8310,33408
8311,33600
8312,33600
8313,33472
8314,33344
8315,33280
8316,33280
8317,33280
8318,33216
8319,33280
8320,33408
8321,33536
8322,33600
8323,33536
8324,33472
8325,33408
8326,33408
8327,33408
8328,33472
8329,33472
8330,33536
8331,33536
8332,33600
8333,33664
8334,33600
8335,33536
8336,33472
8337,33536
8338,33536
8339,33536
8340,33472
8341,33536
8342,33600
8343,33600
8344,33664
8345,33728
8346,33728
8347,33728
8348,33664
8349,33536
8350,33472
8351,33472
8352,33472
8353,33600
8354,33728
8355,33792
8356,33792
8357,33728
8358,33664
8359,33664
8360,33792
8361,33920
8362,34048
8363,34112
8364,34176
8365,34240
8366,34304
8367,34304
8368,34304
8369,34368
8370,34560
8371,34624
8372,34624
8373,34560
8374,34496
8375,34304
8376,34112
8377,33920
8378,33856
8379,33728
8380,33536
8381,33408
8382,33408
8383,33408
8384,33408
8385,33408
8386,33280
8387,33216
8388,33152
8389,33152
8390,33216
8391,33280
8392,33344
8393,33408
8394,33472
8395,33472
8396,33600
8397,33664
8398,33728
8399,33728
8400,33728
8401,33664
8402,33792
8403,34368
8404,35648
8405,37568
8406,40128
8407,42176
8408,42688
8409,41472
8410,38720
8411,35264
8412,32384
8413,30528
8414,29632
8415,29376
8416,29632
8417,30272
8418,31040
8419,31872
8420,32576
8421,33152
8422,33472
8423,33728
8424,33984
8425,34112
8426,34176
8427,34240
8428,34112
8429,33984
8430,33792
8431,33664
8432,33792
8433,33984
8434,33984
8435,33856
8436,33728
8437,33664
8438,33536
8439,33536
8440,33664
8441,33856
8442,33856
8443,33728
8444,33664
8445,33856
8446,34048
8447,34240
8448,34304
8449,34432
8450,34432
8451,34240
8452,34112
8453,34112
8454,34112
8455,34112
8456,34112
8457,34240
8458,34368
8459,34560
8460,34624
8461,34624
8462,34688
8463,34624
8464,34688
8465,34816
8466,34944
8467,35136
8468,35200
8469,35200
8470,35136
8471,35008
8472,34880
8473,34944
8474,35008
8475,35072
8476,35072
8477,35072
8478,35136
8479,35264
8480,35264
8481,35136
8482,35008
8483,34752
8484,34432
8485,34112
8486,33856
8487,33600
8488,33408
8489,33216
8490,33088
8491,33024
8492,33024
8493,32960
8494,32896
8495,32896
8496,32832
8497,32768
8498,32768
8499,32704
8500,32704
8501,32768
8502,32832
8503,32896
8504,33024
8505,33152
8506,33152
8507,33152
8508,33152
8509,33024
8510,32896
8511,32960
8512,33024
8513,33024
8514,33088
8515,33152
8516,33152
8517,33280
8518,33280
8519,33280
8520,33344
8521,33344
8522,33280
8523,33280
8524,33280
8525,33280
8526,33344
8527,33280
8528,33152
8529,33088
8530,33024
8531,32960
8532,32960
8533,33024
8534,33088
8535,33024
8536,33024
8537,33024
8538,33152
8539,33152
8540,33152
8541,33152
8542,33152
8543,33152
8544,33216
8545,33216
8546,33280
8547,33280
8548,33280
8549,33344
8550,33408
8551,33472
8552,33472
8553,33472
8554,33472
8555,33472
8556,33408
8557,33408
8558,33344
8559,33280
8560,33344
8561,33344
8562,33344
8563,33344
8564,33280
8565,33344
8566,33408
8567,33408
8568,33344
8569,33344
8570,33472
8571,33664
8572,33664
8573,33600
8574,33472
8575,33408
8576,33408
8577,33408
8578,33472
8579,33536
8580,33600
8581,33600
8582,33536
8583,33600
8584,33664
8585,33536
8586,33536
8587,33536
8588,33536
8589,33600
8590,33600
8591,33664
8592,33728
8593,33664
8594,33664
8595,33728
8596,33856
8597,33792
8598,33728
8599,33664
8600,33664
8601,33600
8602,33600
8603,33728
8604,33792
8605,33728
8606,33728
8607,33792
8608,33856
8609,33792
8610,33728
8611,33792
8612,33984
8613,34304
8614,34368
8615,34304
8616,34368
8617,34432
8618,34368
8619,34368
8620,34432
8621,34560
8622,34624
8623,34560
8624,34496
8625,34368
8626,34176
8627,34048
8628,33792
8629,33664
8630,33472
8631,33408
8632,33344
8633,33344
8634,33408
8635,33408
8636,33408
8637,33344
8638,33280
8639,33216
8640,33216
8641,33344
8642,33408
8643,33536
8644,33600
8645,33664
8646,33728
8647,33792
8648,33728
8649,33600
8650,33600
8651,33728
8652,34048
8653,34944
8654,36608
8655,38976
8656,41536
8657,42816
8658,42432
8659,40192
8660,36864
8661,33792
8662,31296
8663,29888
8664,29312
8665,29440
8666,30016
8667,30848
8668,31616
8669,32384
8670,33024
8671,33536
8672,33856
8673,33920
8674,33984
8675,33984
8676,33920
8677,33920
8678,33856
8679,33856
8680,33856
8681,33792
8682,33728
8683,33728
8684,33856
8685,33856
8686,33792
8687,33728
8688,33600
8689,33600
8690,33728
8691,33792
8692,33856
8693,33984
8694,34048
8695,34112
8696,34176
8697,34240
8698,34240
8699,34176
8700,34112
8701,34048
8702,34112
8703,34176
8704,34240
8705,34240
8706,34240
8707,34368
8708,34496
8709,34496
8710,34560
8711,34688
8712,34752
8713,34752
8714,34752
8715,34816
8716,34880
8717,34880
8718,34816
8719,34752
8720,34816
8721,35008
8722,35072
8723,35136
8724,35136
8725,35136
8726,35136
8727,35072
8728,35072
8729,35072
8730,35008
8731,34880
8732,34752
8733,34624
8734,34496
8735,34304
8736,33984
8737,33728
8738,33536
8739,33408
8740,33216
8741,33152
8742,33024
8743,33024
8744,32960
8745,32896
8746,32768
8747,32704
8748,32640
8749,32704
8750,32832
8751,32960
8752,32960
8753,33024
8754,33152
8755,33216
8756,33152
8757,33088
8758,33152
8759,33344
8760,33408
8761,33280
8762,33280
8763,33280
8764,33216
8765,33216
8766,33280
8767,33280
8768,33216
8769,33152
8770,33216
8771,33216
8772,33152
8773,33152
8774,33216
8775,33280
8776,33280
8777,33216
8778,33216
8779,33216
8780,33216
8781,33216
8782,33152
8783,33152
8784,33216
8785,33216
8786,33280
8787,33344
8788,33344
8789,33280
8790,33344
8791,33408
8792,33408
8793,33344
8794,33216
8795,33152
8796,33088
8797,33088
8798,33088
8799,33216
8800,33344
8801,33472
8802,33472
8803,33472
8804,33536
8805,33472
8806,33344
8807,33344
8808,33344
8809,33344
8810,33344
8811,33344
8812,33408
8813,33408
8814,33344
8815,33408
8816,33664
8817,33664
8818,33536
8819,33408
8820,33344
8821,33472
8822,33472
8823,33408
8824,33408
8825,33472
8826,33536
8827,33600
8828,33728
8829,33664
8830,33600
8831,33600
8832,33600
8833,33600
8834,33600
8835,33600
8836,33536
8837,33600
8838,33664
8839,33664
8840,33600
8841,33600
8842,33728
8843,33856
8844,33920
8845,33984
8846,33984
8847,33984
8848,33984
8849,33984
8850,33984
8851,34048
8852,34112
8853,34240
8854,34432
8855,34624
8856,34624
8857,34560
8858,34496
8859,34368
8860,34240
8861,34176
8862,34048
8863,33856
8864,33536
8865,33344
8866,33216
8867,33152
8868,32960
8869,32896
8870,32960
8871,33024
8872,33088
8873,33152
8874,33280
8875,33408
8876,33600
8877,33664
8878,33600
8879,33536
8880,33536
8881,33472
8882,33472
8883,33472
8884,33408
8885,33408
8886,33664
8887,34496
8888,35968
8889,38016
8890,40512
8891,41984
8892,41920
8893,40512
8894,37696
8895,34880
8896,32448
8897,30720
8898,29632
8899,29376
8900,29696
8901,30336
8902,31168
8903,32000
8904,32704
8905,33280
8906,33664
8907,33920
8908,34112
8909,34176
8910,34048
8911,33920
8912,33920
8913,33984
8914,33984
8915,33984
8916,33856
8917,33792
8918,33856
8919,33856
8920,33856
8921,33856
8922,33920
8923,33920
8924,33920
8925,34048
8926,34112
8927,34048
8928,33984
8929,33984
8930,34048
8931,34048
8932,34048
8933,34176
8934,34240
8935,34304
8936,34368
8937,34368
8938,34432
8939,34496
8940,34432
8941,34432
8942,34624
8943,34752
8944,34816
8945,34816
8946,34816
8947,34752
8948,34816
8949,34944
8950,35072
8951,35136
8952,34944
8953,34688
8954,34624
8955,34688
8956,34752
8957,34816
8958,34944
8959,35136
8960,35200
8961,35264
8962,35328
8963,35264
8964,35136
8965,35008
8966,34816
8967,34688
8968,34496
8969,34240
8970,34048
8971,33856
8972,33664
8973,33600
8974,33472
8975,33280
8976,33152
8977,33024
8978,32832
8979,32704
8980,32704
8981,32704
8982,32768
8983,32832
8984,32896
8985,32960
8986,32960
8987,33024
8988,33088
8989,33152
8990,33152
8991,33280
8992,33344
8993,33344
8994,33344
8995,33344
8996,33408
8997,33472
8998,33408
8999,33344
9000,33344
9001,33408
9002,33408
9003,33408
9004,33408
9005,33408
9006,33280
9007,33152
9008,33152
9009,33152
9010,33152
9011,33216
9012,33152
9013,33088
9014,33152
9015,33152
9016,33216
9017,33216
9018,33280
9019,33344
9020,33344
9021,33216
9022,33088
9023,33024
9024,33152
9025,33152
9026,33152
9027,33152
9028,33216
9029,33280
9030,33344
9031,33344
9032,33472
9033,33472
9034,33344
9035,33152
9036,33088
9037,33088
9038,33216
9039,33344
9040,33344
9041,33344
9042,33408
9043,33536
9044,33536
9045,33472
9046,33408
9047,33344
9048,33280
9049,33280
9050,33344
9051,33344
9052,33344
9053,33408
9054,33472
9055,33536
9056,33536
9057,33472
9058,33472
9059,33536
9060,33600
9061,33728
9062,33728
9063,33664
9064,33600
9065,33472
9066,33472
9067,33472
9068,33472
9069,33472
9070,33536
9071,33600
9072,33728
9073,33856
9074,33920
9075,33920
9076,33920
9077,33920
9078,33920
9079,33984
9080,34112
9081,34176
9082,34112
9083,34112
9084,34240
9085,34368
9086,34496
9087,34688
9088,34816
9089,34752
9090,34560
9091,34368
9092,34048
9093,33856
9094,33728
9095,33600
9096,33472
9097,33408
9098,33280
9099,33216
9100,33152
9101,33152
9102,33088
9103,33152
9104,33280
9105,33408
9106,33472
9107,33408
9108,33344
9109,33280
9110,33280
9111,33280
9112,33408
9113,33536
9114,33664
9115,33664
9116,33600
9117,33664
9118,33856
9119,34432
9120,35712
9121,37760
9122,40384
9123,42624
9124,42752
9125,41536
9126,38592
9127,35072
9128,32192
9129,30336
9130,29376
9131,29248
9132,29696
9133,30464
9134,31424
9135,32256
9136,32896
9137,33408
9138,33856
9139,33984
9140,34048
9141,34048
9142,33984
9143,33792
9144,33664
9145,33600
9146,33664
9147,33792
9148,33792
9149,33728
9150,33792
9151,33792
9152,33792
9153,33792
9154,33856
9155,33856
9156,33856
9157,33856
9158,33920
9159,34112
9160,34176
9161,34112
9162,34112
9163,34048
9164,33984
9165,33984
9166,34112
9167,34240
9168,34304
9169,34176
9170,34176
9171,34240
9172,34368
9173,34432
9174,34432
9175,34496
9176,34560
9177,34624
9178,34688
9179,34752
9180,34880
9181,34880
9182,34880
9183,34944
9184,35008
9185,35008
9186,35008
9187,35072
9188,35136
9189,35200
9190,35136
9191,35072
9192,35136
9193,35136
9194,35072
9195,34880
9196,34816
9197,34624
9198,34560
9199,34496
9200,34112
9201,33856
9202,33600
9203,33408
9204,33088
9205,32832
9206,32640
9207,32576
9208,32512
9209,32512
9210,32512
9211,32512
9212,32576
9213,32704
9214,32768
9215,32832
9216,32832
9217,32768
9218,32832
9219,32960
9220,33024
9221,33088
9222,33152
9223,33280
9224,33344
9225,33216
9226,33024
9227,32960
9228,32896
9229,33088
9230,33088
9231,33088
9232,33152
9233,33216
9234,33280
9235,33280
9236,33344
9237,33280
9238,33152
9239,33024
9240,33024
9241,33024
9242,33088
9243,33024
9244,33152
9245,33280
9246,33280
9247,33216
9248,33216
9249,33152
9250,33152
9251,33152
9252,33280
9253,33344
9254,33280
9255,33152
9256,33024
9257,32960
9258,32896
9259,33152
9260,33216
9261,33216
9262,33216
9263,33344
9264,33344
9265,33408
9266,33408
9267,33472
9268,33408
9269,33344
9270,33344
9271,33408
9272,33472
9273,33408
9274,33408
9275,33408
9276,33344
9277,33344
9278,33344
9279,33472
9280,33472
9281,33536
9282,33536
9283,33536
9284,33536
9285,33472
9286,33472
9287,33472
9288,33472
9289,33472
9290,33472
9291,33472
9292,33536
9293,33600
9294,33728
9295,33664
9296,33792
9297,33728
9298,33600
9299,33536
9300,33600
9301,33600
9302,33600
9303,33536
9304,33664
9305,33664
9306,33664
9307,33600
9308,33728
9309,33728
9310,33728
9311,33728
9312,33664
9313,33600
9314,33600
9315,33728
9316,33920
9317,34048
9318,34304
9319,34432
9320,34432
9321,34368
9322,34304
9323,34368
9324,34432
9325,34432
9326,34624
9327,34624
9328,34624
9329,34688
9330,34496
9331,34176
9332,33856
9333,33792
9334,33600
9335,33472
9336,33472
9337,33472
9338,33408
9339,33344
9340,33152
9341,33024
9342,33024
9343,33024
9344,33152
9345,33344
9346,33536
9347,33600
9348,33536
9349,33600
9350,33600
9351,33536
9352,33472
9353,33472
9354,33472
9355,33536
9356,33664
9357,34112
9358,35200
9359,37120
9360,39680
9361,41856
9362,42432
9363,42304
9364,39232
9365,35968
9366,33088
9367,30976
9368,29632
9369,29184
9370,29440
9371,30080
9372,30912
9373,31808
9374,32448
9375,32960
9376,33344
9377,33600
9378,33792
9379,33920
9380,33920
9381,33856
9382,33792
9383,33792
9384,33728
9385,33664
9386,33664
9387,33728
9388,33728
9389,33664
9390,33600
9391,33600
9392,33728
9393,33728
9394,33856
9395,33792
9396,33728
9397,33728
9398,33792
9399,33920
9400,33984
9401,33984
9402,33920
9403,33920
9404,33920
9405,33920
9406,33920
9407,33984
9408,34112
9409,34176
9410,34240
9411,34368
9412,34432
9413,34432
9414,34368
9415,34368
9416,34368
9417,34432
9418,34560
9419,34624
9420,34624
9421,34624
9422,34688
9423,34624
9424,34816
9425,34816
9426,34816
9427,34880
9428,35072
9429,35136
9430,35136
9431,35008
9432,34944
9433,34880
9434,34816
9435,34752
9436,34624
9437,34496
9438,34432
9439,34240
9440,33984
9441,33792
9442,33600
9443,33472
9444,33408
9445,33280
9446,33152
9447,32896
9448,32768
9449,32704
9450,32640
9451,32640
9452,32640
9453,32640
9454,32896
9455,33024
9456,33088
9457,33024
9458,33088
9459,33152
9460,33216
9461,33216
9462,33152
9463,33152
9464,33152
9465,33088
9466,33088
9467,33152
9468,33280
9469,33344
9470,33344
9471,33344
9472,33408
9473,33408
9474,33408
9475,33408
9476,33280
9477,33152
9478,33152
9479,33152
9480,33152
9481,33152
9482,33216
9483,33280
9484,33280
9485,33280
9486,33152
9487,33088
9488,33088
9489,33088
9490,33088
9491,33216
9492,33344
9493,33408
9494,33344
9495,33344
9496,33344
9497,33344
9498,33344
9499,33408
9500,33408
9501,33408
9502,33408
9503,33344
9504,33280
9505,33344
9506,33408
9507,33344
9508,33280
9509,33216
9510,33216
9511,33280
9512,33472
9513,33408
9514,33408
9515,33408
9516,33472
9517,33536
9518,33408
9519,33344
9520,33408
9521,33472
9522,33472
9523,33472
9524,33536
9525,33600
9526,33600
9527,33536
9528,33344
9529,33280
9530,33344
9531,33472
9532,33600
9533,33664
9534,33600
9535,33600
9536,33600
9537,33536
9538,33600
9539,33536
9540,33472
9541,33472
9542,33536
9543,33536
9544,33664
9545,33664
9546,33728
9547,33856
9548,33984
9549,34112
9550,34240
9551,34368
9552,34432
9553,34496
9554,34560
9555,34624
9556,34624
9557,34624
9558,34560
9559,34624
9560,34496
9561,34240
9562,33984
9563,33856
9564,33728
9565,33536
9566,33408
9567,33344
9568,33344
9569,33344
9570,33280
9571,33280
9572,33344
9573,33344
9574,33344
9575,33280
9576,33216
9577,33216
9578,33280
9579,33408
9580,33536
9581,33600
9582,33664
9583,33728
9584,33664
9585,33472
9586,33344
9587,33408
9588,33536
9589,34048
9590,35200
9591,37184
9592,39744
9593,41600
9594,41856
9595,40704
9596,38208
9597,35328
9598,32896
9599,31168
9600,30144
9601,29824
9602,29888
9603,30336
9604,31040
9605,31808
9606,32448
9607,33024
9608,33472
9609,33728
9610,33856
9611,33920
9612,33984
9613,34112
9614,34176
9615,34048
9616,33920
9617,33856
9618,33856
9619,33792
9620,33664
9621,33600
9622,33664
9623,33664
9624,33664
9625,33728
9626,33792
9627,33920
9628,34048
9629,34112
9630,34048
9631,33984
9632,33984
9633,34048
9634,34112
9635,34112
9636,34176
9637,34176
9638,34240
9639,34304
9640,34368
9641,34496
9642,34560
9643,34560
9644,34496
9645,34560
9646,34688
9647,34624
9648,34560
9649,34624
9650,34752
9651,34880
9652,34880
9653,34880
9654,34880
9655,34944
9656,34944
9657,35008
9658,35072
9659,35200
9660,35136
9661,35072
9662,35136
9663,35200
9664,35136
9665,35136
9666,35072
9667,34880
9668,34752
9669,34624
9670,34496
9671,34304
9672,34048
9673,33728
9674,33472
9675,33344
9676,33216
9677,32960
9678,32832
9679,32832
9680,32960
9681,32960
9682,33024
9683,32896
9684,32832
9685,32768
9686,32704
9687,32704
9688,32768
9689,32896
9690,32960
9691,33088
9692,33280
9693,33472
9694,33536
9695,33472
9696,33344
9697,33280
9698,33216
9699,33280
9700,33344
9701,33344
9702,33344
9703,33280
9704,33280
9705,33280
9706,33216
9707,33152
9708,33216
9709,33280
9710,33216
9711,33152
9712,33216
9713,33216
9714,33216
9715,33152
9716,33152
9717,33216
9718,33344
9719,33408
9720,33344
9721,33344
9722,33344
9723,33280
9724,33216
9725,33216
9726,33280
9727,33344
9728,33408
9729,33344
9730,33152
9731,33088
9732,33088
9733,33216
9734,33280
9735,33280
9736,33280
9737,33280
9738,33280
9739,33280
9740,33344
9741,33344
9742,33472
9743,33536
9744,33536
9745,33536
9746,33536
9747,33472
9748,33408
9749,33408
9750,33408
9751,33472
9752,33472
9753,33536
9754,33600
9755,33664
9756,33600
9757,33408
9758,33408
9759,33536
9760,33664
9761,33664
9762,33600
9763,33664
9764,33600
9765,33536
9766,33600
9767,33664
9768,33664
9769,33600
9770,33536
9771,33600
9772,33664
9773,33664
9774,33664
9775,33728
9776,33728
9777,33664
9778,33728
9779,33856
9780,34112
9781,34304
9782,34368
9783,34368
9784,34368
9785,34240
9786,34304
9787,34432
9788,34560
9789,34816
9790,34816
9791,34752
9792,34624
9793,34560
9794,34304
9795,34048
9796,33856
9797,33664
9798,33472
9799,33408
9800,33408
9801,33408
9802,33344
9803,33344
9804,33344
9805,33344
9806,33472
9807,33472
9808,33408
9809,33408
9810,33472
9811,33472
9812,33536
9813,33600
9814,33536
9815,33536
9816,33664
9817,33792
9818,33728
9819,33536
9820,33664
9821,33984
9822,34752
9823,36096
9824,38144
9825,40704
9826,42432
9827,42496
9828,40832
9829,37760
9830,34496
9831,31936
9832,30272
9833,29504
9834,29504
9835,30016
9836,30720
9837,31488
9838,32128
9839,32704
9840,33216
9841,33600
9842,33792
9843,33856
9844,33920
9845,34048
9846,33984
9847,33920
9848,33792
9849,33728
9850,33664
9851,33664
9852,33664
9853,33728
9854,33792
9855,33856
9856,33792
9857,33728
9858,33856
9859,33984
9860,33984
9861,33792
9862,33792
9863,33920
9864,34048
9865,34048
9866,33984
9867,33984
9868,34048
9869,34112
9870,34304
9871,34368
9872,34368
9873,34368
9874,34432
9875,34496
9876,34560
9877,34496
9878,34432
9879,34432
9880,34560
9881,34624
9882,34688
9883,34688
9884,34816
9885,35008
9886,35072
9887,35008
9888,35008
9889,35008
9890,35008
9891,35008
9892,35008
9893,35072
9894,35072
9895,35072
9896,35136
9897,35136
9898,35136
9899,35136
9900,35136
9901,34944
9902,34624
9903,34240
9904,33984
9905,33728
9906,33536
9907,33344
9908,33216
9909,33152
9910,33216
9911,33088
9912,32832
9913,32704
9914,32640
9915,32576
9916,32512
9917,32576
9918,32704
9919,32768
9920,32896
9921,33024
9922,32960
9923,32896
9924,32832
9925,32960
9926,33152
9927,33088
9928,33088
9929,33216
9930,33280
9931,33280
9932,33152
9933,33152
9934,33152
9935,33216
9936,33152
9937,33152
9938,33216
9939,33216
9940,33216
9941,33088
9942,33088
9943,33152
9944,33216
9945,33280
9946,33408
9947,33408
9948,33280
9949,33152
9950,33024
9951,32960
9952,32960
9953,32896
9954,32960
9955,33088
9956,33152
9957,33280
9958,33344
9959,33280
9960,33216
9961,33152
9962,33152
9963,33216
9964,33344
9965,33408
9966,33408
9967,33408
9968,33280
9969,33216
9970,33152
9971,33152
9972,33216
9973,33216
9974,33152
9975,33216
9976,33344
9977,33408
9978,33408
9979,33344
9980,33344
9981,33280
9982,33216
9983,33280
9984,33280
9985,33344
9986,33344
9987,33408
9988,33472
9989,33472
9990,33472
9991,33472
9992,33472
9993,33536
9994,33472
9995,33472
9996,33536
9997,33536
9998,33600
9999,33600
10000,33664
10001,33728
10002,33792
10003,33664
10004,33536
10005,33536
10006,33536
10007,33600
10008,33728
10009,33792
10010,33728
10011,33536
10012,33536
10013,33664
10014,33856
10015,34048
10016,34176
10017,34368
10018,34560
10019,34624
10020,34368
10021,34176
10022,34176
10023,34240
10024,34368
10025,34496
10026,34496
10027,34496
10028,34368
10029,34304
10030,34176
10031,33920
10032,33728
10033,33600
10034,33472
10035,33408
10036,33408
10037,33344
10038,33280
10039,33216
10040,33088
10041,33088
10042,33216
10043,33216
10044,33280
10045,33408
10046,33536
10047,33536
10048,33536
10049,33536
10050,33600
10051,33664
10052,33600
10053,33472
10054,33408
10055,33600
10056,34048
10057,34880
10058,36416
10059,38720
10060,41216
10061,42304
10062,41856
10063,39936
10064,36864
10065,33792
10066,31424
10067,30016
10068,29376
10069,29376
10070,29888
10071,30720
10072,31616
10073,32384
10074,33024
10075,33408
10076,33664
10077,33792
10078,33920
10079,33984
10080,33984
10081,33856
10082,33792
10083,33728
10084,33792
10085,33728
10086,33664
10087,33664
10088,33792
10089,33920
10090,33856
10091,33792
10092,33856
10093,33856
10094,33856
10095,33792
10096,33856
10097,33920
10098,34048
10099,34048
10100,34048
10101,33984
10102,33920
10103,33856
10104,33920
10105,34112
10106,34240
10107,34240
10108,34240
10109,34368
10110,34368
10111,34432
10112,34432
10113,34560
10114,34688
10115,34688
10116,34752
10117,34752
10118,34752
10119,34752
10120,34816
10121,34944
10122,35072
10123,35072
10124,35008
10125,35008
10126,35072
10127,35136
10128,35072
10129,35072
10130,35200
10131,35200
10132,35200
10133,35136
10134,35008
10135,34880
10136,34688
10137,34496
10138,34368
10139,34304
10140,34112
10141,33728
10142,33472
10143,33344
10144,33088
10145,32896
10146,32768
10147,32704
10148,32640
10149,32704
10150,32896
10151,32960
10152,32960
10153,32896
10154,32960
10155,32960
10156,33024
10157,33088
10158,33216
10159,33344
10160,33472
10161,33472
10162,33408
10163,33408
10164,33472
10165,33408
10166,33280
10167,33152
10168,33152
10169,33088
10170,33088
10171,33152
10172,33280
10173,33344
10174,33344
10175,33344
10176,33344
10177,33344
10178,33280
10179,33280
10180,33280
10181,33216
10182,33152
10183,33152
10184,33216
10185,33216
10186,33280
10187,33280
10188,33344
10189,33408
10190,33280
10191,33088
10192,33088
10193,33152
10194,33152
10195,33088
10196,33088
10197,33088
10198,33088
10199,33088
10200,33216
10201,33344
10202,33344
10203,33344
10204,33408
10205,33472
10206,33408
10207,33280
10208,33280
10209,33344
10210,33408
10211,33344
10212,33344
10213,33344
10214,33344
10215,33344
10216,33408
10217,33408
10218,33536
10219,33664
10220,33536
10221,33408
10222,33344
10223,33344
10224,33344
10225,33472
10226,33536
10227,33536
10228,33472
10229,33472
10230,33600
10231,33664
10232,33664
10233,33600
10234,33600
10235,33600
10236,33600
10237,33600
10238,33728
10239,33856
10240,34048
10241,34112
10242,34176
10243,34176
10244,34112
10245,34048
10246,34112
10247,34304
10248,34560
10249,34624
10250,34624
10251,34624
10252,34560
10253,34432
10254,34240
10255,34176
10256,34112
10257,34048
10258,33920
10259,33600
10260,33280
10261,33088
10262,32960
10263,32960
10264,33024
10265,33088
10266,33088
10267,33216
10268,33344
10269,33536
10270,33600
10271,33664
10272,33600
10273,33536
10274,33408
10275,33408
10276,33408
10277,33472
10278,33408
10279,33408
10280,33472
10281,33600
10282,34048
10283,35200
10284,37120
10285,39872
10286,41728
10287,42176
10288,41216
10289,38784
10290,35712
10291,33024
10292,31104
10293,29952
10294,29632
10295,29760
10296,30336
10297,31232
10298,32064
10299,32704
10300,33152
10301,33472
10302,33728
10303,33856
10304,33856
10305,33920
10306,33920
10307,33984
10308,33984
10309,33920
10310,33856
10311,33792
10312,33792
10313,33792
10314,33856
10315,33792
10316,33728
10317,33792
10318,33920
10319,33920
10320,33856
10321,33920
10322,33984
10323,34048
10324,34048
10325,34176
10326,34304
10327,34368
10328,34304
10329,34304
10330,34304
10331,34304
10332,34304
10333,34368
10334,34496
10335,34496
10336,34496
10337,34496
10338,34496
10339,34560
10340,34624
10341,34624
10342,34688
10343,34752
10344,34880
10345,35008
10346,35136
10347,35200
10348,35136
10349,35072
10350,35008
10351,35008
10352,35008
10353,35072
10354,35136
10355,35200
10356,35136
10357,35072
10358,35136
10359,35136
10360,35072
10361,34816
10362,34560
10363,34304
10364,34112
10365,33920
10366,33664
10367,33472
10368,33344
10369,33152
10370,32896
10371,32704
10372,32704
10373,32704
10374,32704
10375,32768
10376,32832
10377,32832
10378,32768
10379,32704
10380,32768
10381,32832
10382,32960
10383,33152
10384,33216
10385,33152
10386,33088
10387,33088
10388,33216
10389,33344
10390,33344
10391,33216
10392,33088
10393,33088
10394,33088
10395,33152
10396,33216
10397,33344
10398,33280
10399,33088
10400,32960
10401,32960
10402,33024
10403,33088
10404,33152
10405,33152
10406,33216
10407,33280
10408,33344
10409,33280
10410,33216
10411,33152
10412,33152
10413,33216
10414,33280
10415,33216
10416,33216
10417,33216
10418,33216
10419,33216
10420,33216
10421,33216
10422,33280
10423,33344
10424,33344
10425,33280
10426,33216
10427,33152
10428,33152
10429,33216
10430,33344
10431,33408
10432,33472
10433,33472
10434,33472
10435,33472
10436,33344
10437,33280
10438,33280
10439,33344
10440,33344
10441,33408
10442,33472
10443,33536
10444,33408
10445,33344
10446,33408
10447,33472
10448,33536
10449,33472
10450,33408
10451,33408
10452,33472
10453,33536
10454,33600
10455,33600
10456,33664
10457,33664
10458,33536
10459,33536
10460,33536
10461,33600
10462,33728
10463,33856
10464,33792
10465,33728
10466,33664
10467,33664
10468,33664
10469,33536
10470,33472
10471,33408
10472,33536
10473,33600
10474,33664
10475,33664
10476,33728
10477,33856
10478,33984
10479,34048
10480,34176
10481,34240
10482,34240
10483,34240
10484,34304
10485,34432
10486,34560
10487,34560
10488,34624
10489,34688
10490,34624
10491,34496
10492,34432
10493,34368
10494,34176
10495,33856
10496,33664
10497,33600
10498,33472
10499,33344
10500,33216
10501,33280
10502,33344
10503,33280
10504,33216
10505,33216
10506,33216
10507,33216
10508,33216
10509,33344
10510,33472
10511,33536
10512,33536
10513,33536
10514,33536
10515,33536
10516,33472
10517,33472
10518,33600
10519,33920
10520,34560
10521,35776
10522,37632
10523,40256
10524,42176
10525,42560
10526,41344
10527,38464
10528,35264
10529,32384
10530,30400
10531,29440
10532,29312
10533,29696
10534,30400
10535,31296
10536,32064
10537,32640
10538,33088
10539,33472
10540,33728
10541,33792
10542,33920
10543,34048
10544,34112
10545,34112
10546,34112
10547,34048
10548,33920
10549,33728
10550,33600
10551,33600
10552,33600
10553,33600
10554,33600
10555,33664
10556,33728
10557,33728
10558,33728
10559,33792
10560,33920
10561,34048
10562,34112
10563,34176
10564,34176
10565,34176
10566,34048
10567,34112
10568,34240
10569,34304
10570,34176
10571,34112
10572,34112
10573,34240
10574,34240
10575,34304
10576,34432
10577,34560
10578,34688
10579,34752
10580,34816
10581,34944
10582,35008
10583,34880
10584,34880
10585,34880
10586,34880
10587,35008
10588,35072
10589,35008
10590,34944
10591,34944
10592,35008
10593,35072
10594,35136
10595,35200
10596,35200
10597,35072
10598,34944
10599,34880
10600,34560
10601,34304
10602,34048
10603,33920
10604,33792
10605,33600
10606,33408
10607,33216
10608,33024
10609,32896
10610,32832
10611,32832
10612,32704
10613,32640
10614,32704
10615,32768
10616,32832
10617,32960
10618,33024
10619,33024
10620,32960
10621,32960
10622,33024
10623,33088
10624,33024
10625,33024
10626,33152
10627,33280
10628,33280
10629,33344
10630,33408
10631,33344
10632,33280
10633,33216
10634,33216
10635,33280
10636,33280
10637,33344
10638,33408
10639,33344
10640,33216
10641,33088
10642,33152
10643,33216
10644,33152
10645,33088
10646,33088
10647,33088
10648,33024
10649,33088
10650,33152
10651,33152
10652,33152
10653,33088
10654,33024
10655,33088
10656,33152
10657,33152
10658,33152
10659,33152
10660,33280
10661,33280
10662,33216
10663,33216
10664,33280
10665,33216
10666,33152
10667,33088
10668,33152
10669,33280
10670,33280
10671,33280
10672,33344
10673,33344
10674,33344
10675,33408
10676,33408
10677,33408
10678,33216
10679,33152
10680,33152
10681,33280
10682,33408
10683,33536
10684,33536
10685,33536
10686,33472
10687,33408
10688,33280
10689,33216
10690,33216
10691,33344
10692,33472
10693,33536
10694,33664
10695,33600
10696,33472
10697,33472
10698,33472
10699,33408
10700,33344
10701,33344
10702,33408
10703,33536
10704,33664
10705,33664
10706,33600
10707,33472
10708,33344
10709,33408
10710,33472
10711,33536
10712,33536
10713,33536
10714,33664
10715,33728
10716,33664
10717,33600
10718,33664
10719,33664
10720,33664
10721,33728
10722,33856
10723,34048
10724,34112
10725,34048
10726,34048
10727,34176
10728,34112
10729,34112
10730,34112
10731,34176
10732,34176
10733,34240
10734,34432
10735,34496
10736,34560
10737,34624
10738,34560
10739,34496
10740,34368
10741,34240
10742,34048
10743,33984
10744,33856
10745,33664
10746,33472
10747,33408
10748,33408
10749,33344
10750,33216
10751,33216
10752,33280
10753,33344
10754,33344
10755,33344
10756,33408
10757,33600
10758,33728
10759,33664
10760,33600
10761,33600
10762,33536
10763,33344
10764,33280
10765,33280
10766,33344
10767,33664
10768,34240
10769,35456
10770,37312
10771,39872
10772,41856
10773,42368
10774,41344
10775,38656
10776,35392
10777,32640
10778,30656
10779,29632
10780,29440
10781,29824
10782,30464
10783,31232
10784,32064
10785,32768
10786,33216
10787,33472
10788,33728
10789,33920
10790,33920
10791,33920
10792,33920
10793,33792
10794,33728
10795,33664
10796,33664
10797,33664
10798,33600
10799,33600
10800,33600
10801,33664
10802,33728
10803,33728
10804,33728
10805,33792
10806,33792
10807,33856
10808,33920
10809,33984
10810,34048
10811,34112
10812,33984
10813,33920
10814,33856
10815,33792
10816,33856
10817,33984
10818,33984
10819,34048
10820,34112
10821,34176
10822,34240
10823,34304
10824,34368
10825,34496
10826,34624
10827,34752
10828,34688
10829,34624
10830,34560
10831,34688
10832,34816
10833,34880
10834,34880
10835,34880
10836,34816
10837,34752
10838,34752
10839,34752
10840,34816
10841,34816
10842,34816
10843,34880
10844,34880
10845,34880
10846,34816
10847,34688
10848,34560
10849,34368
10850,34048
10851,33856
10852,33728
10853,33600
10854,33600
10855,33536
10856,33280
10857,32960
10858,32768
10859,32704
10860,32704
10861,32640
10862,32640
10863,32768
10864,32832
10865,32768
10866,32704
10867,32768
10868,32896
10869,33088
10870,33152
10871,33216
10872,33280
10873,33344
10874,33344
10875,33344
10876,33408
10877,33472
10878,33408
10879,33280
10880,33152
10881,33088
10882,33088
10883,33152
10884,33216
10885,33280
10886,33216
10887,33152
10888,33152
10889,33152
10890,33216
10891,33216
10892,33152
10893,33152
10894,33216
10895,33216
10896,33088
10897,33088
10898,33152
10899,33152
10900,33216
10901,33216
10902,33216
10903,33280
10904,33472
10905,33472
10906,33408
10907,33280
10908,33152
10909,33088
10910,33152
10911,33216
10912,33152
10913,33088
10914,33216
10915,33280
10916,33344
10917,33408
10918,33472
10919,33536
10920,33600
10921,33600
10922,33472
10923,33408
10924,33344
