,ECG
0,52224
1,52864
2,53504
3,54080
4,54464
5,54464
6,54016
7,53120
8,51712
9,49600
10,47040
11,44288
12,41472
13,38848
14,36608
15,34816
16,33408
17,32448
18,32256
19,32960
20,34240
21,35584
22,36672
23,37760
24,38784
25,39488
26,39872
27,39872
28,39552
29,39040
30,38336
31,37632
32,37120
33,36928
34,37184
35,37440
36,37760
37,38272
38,38848
39,39232
40,39616
41,39872
42,40128
43,40128
44,39680
45,38528
46,36928
47,35328
48,33728
49,32256
50,30912
51,29696
52,28672
53,28160
54,28160
55,28608
56,29888
57,32320
58,35456
59,38720
60,41536
61,43456
62,43712
63,42496
64,40384
65,38656
66,37440
67,37056
68,37248
69,37568
70,38016
71,38592
72,39232
73,40128
74,41024
75,41792
76,42624
77,43392
78,44032
79,44736
80,45248
81,45568
82,45696
83,45248
84,44160
85,42816
86,41408
87,39680
88,38016
89,36480
90,35264
91,34624
92,34368
93,34624
94,35200
95,35904
96,36544
97,37184
98,37952
99,38656
100,39232
101,39680
102,40064
103,40256
104,40192
105,39936
106,39616
107,39360
108,39232
109,39232
110,39296
111,38976
112,38464
113,38144
114,38144
115,38272
116,38464
117,38656
118,39040
119,39488
120,39872
121,40192
122,40384
123,40384
124,40320
125,40128
126,40000
127,39808
128,40000
129,40512
130,41088
131,41472
132,41664
133,41664
134,41664
135,41600
136,41664
137,41792
138,41792
139,41728
140,41792
141,42112
142,42432
143,42560
144,42560
145,42496
146,42432
147,42304
148,41920
149,41536
150,41024
151,40512
152,39872
153,39360
154,39104
155,39104
156,39232
157,38912
158,38400
159,37952
160,37568
161,37184
162,36864
163,36544
164,36160
165,35648
166,35072
167,34368
168,33792
169,33536
170,33600
171,33792
172,33920
173,33856
174,33728
175,33536
176,33472
177,33728
178,34112
179,34240
180,34112
181,33984
182,33856
183,33728
184,33600
185,33408
186,33408
187,33408
188,33408
189,33344
190,33216
191,33216
192,33152
193,33216
194,33536
195,33920
196,34304
197,34560
198,34816
199,35072
200,35200
201,35200
202,35008
203,34944
204,34944
205,35136
206,35200
207,35072
208,34880
209,34560
210,34240
211,33984
212,33664
213,33408
214,33152
215,33152
216,33280
217,33472
218,33600
219,33792
220,33856
221,33792
222,33600
223,33344
224,33152
225,32960
226,32896
227,32960
228,32896
229,32832
230,32896
231,33344
232,34048
233,34624
234,35648
235,37504
236,39936
237,42304
238,43392
239,42880
240,40448
241,36864
242,32768
243,29440
244,26944
245,25920
246,25536
247,25984
248,27072
249,28160
250,28864
251,29120
252,29632
253,30464
254,31360
255,32256
256,33024
257,33664
258,34112
259,34624
260,35008
261,35264
262,35328
263,35072
264,34624
265,34048
266,33600
267,33280
268,33152
269,33280
270,33344
271,33536
272,33600
273,33408
274,32960
275,32576
276,32128
277,31616
278,31360
279,31424
280,31488
281,31616
282,31616
283,31616
284,31616
285,31552
286,31488
287,31744
288,32320
289,32832
290,32960
291,32896
292,32832
293,32960
294,33344
295,33664
296,33408
297,32704
298,31872
299,31168
300,30720
301,30528
302,30528
303,30784
304,31040
305,31296
306,31360
307,31360
308,31360
309,31424
310,31296
311,31168
312,31168
313,31232
314,31488
315,31936
316,32576
317,33024
318,33216
319,33600
320,33984
321,34432
322,34752
323,35136
324,35328
325,35328
326,34880
327,34112
328,33088
329,31872
330,30656
331,29504
332,28608
333,28032
334,27648
335,27648
336,28032
337,28672
338,29312
339,29888
340,30464
341,30976
342,31360
343,31488
344,31424
345,31232
346,30912
347,30528
348,30336
349,30272
350,30208
351,29952
352,29504
353,28928
354,28224
355,27392
356,26688
357,26112
358,25792
359,25600
360,25856
361,26496
362,27328
363,28288
364,29376
365,30528
366,31680
367,32768
368,33728
369,34368
370,34688
371,34944
372,35264
373,35712
374,36224
375,36736
376,37312
377,37760
378,38144
379,38336
380,38400
381,38464
382,38592
383,38656
384,38528
385,38208
386,37568
387,36544
388,35392
389,34496
390,33920
391,33856
392,34112
393,34688
394,35648
395,36288
396,36992
397,37696
398,38208
399,38656
400,38976
401,39104
402,39232
403,39360
404,39680
405,40192
406,41152
407,42688
408,44800
409,47168
410,48448
411,48576
412,46912
413,43776
414,39808
415,36032
416,33152
417,31296
418,30464
419,30272
420,30400
421,30720
422,31232
423,31936
424,33088
425,33856
426,34624
427,35392
428,36096
429,36672
430,37056
431,37248
432,37312
433,37184
434,36928
435,36608
436,36096
437,35584
438,35008
439,34304
440,33856
441,33472
442,33216
443,33152
444,33408
445,33792
446,34240
447,34496
448,34752
449,34944
450,35136
451,35200
452,35328
453,35520
454,35840
455,36032
456,36224
457,36416
458,36480
459,36416
460,36352
461,36416
462,36608
463,36864
464,37184
465,37632
466,38144
467,38656
468,39040
469,39360
470,39552
471,39616
472,39488
473,39360
474,39040
475,38528
476,37824
477,37184
478,36608
479,36096
480,35648
481,35328
482,35200
483,35200
484,35264
485,35264
486,35456
487,35712
488,35968
489,36160
490,36352
491,36480
492,36416
493,36288
494,36096
495,35968
496,35840
497,35648
498,35520
499,35392
500,35264
501,35072
502,34944
503,34816
504,34816
505,34752
506,34816
507,34816
508,34816
509,34880
510,34944
511,35072
512,35136
513,35200
514,35264
515,35328
516,35456
517,35520
518,35456
519,35520
520,35584
521,35648
522,35584
523,35520
524,35520
525,35520
526,35456
527,35328
528,35264
529,35264
530,35200
531,35136
532,35136
533,35008
534,34816
535,34496
536,34304
537,34240
538,34176
539,34240
540,34368
541,34496
542,34560
543,34496
544,34496
545,34624
546,34688
547,34624
548,34688
549,34880
550,34944
551,34880
552,34688
553,34496
554,34368
555,34304
556,34176
557,34048
558,33920
559,33792
560,33664
561,33664
562,33728
563,33664
564,33664
565,33664
566,33728
567,33792
568,33728
569,33728
570,33792
571,33728
572,33600
573,33472
574,33344
575,33344
576,33472
577,33856
578,34688
579,36224
580,38400
581,41024
582,43456
583,44736
584,44544
585,42496
586,39296
587,35584
588,32256
589,29696
590,28224
591,27584
592,27648
593,28096
594,28864
595,29888
596,30784
597,31488
598,32064
599,32640
600,33088
601,33344
602,33536
603,33600
604,33664
605,33600
606,33472
607,33408
608,33344
609,33216
610,33024
611,32960
612,32960
613,33024
614,33024
615,33024
616,33088
617,33152
618,33152
619,33152
620,33216
621,33216
622,33280
623,33408
624,33600
625,33728
626,33728
627,33792
628,33920
629,34048
630,34112
631,34112
632,34304
633,34368
634,34368
635,34368
636,34304
637,34304
638,34304
639,34304
640,34240
641,34304
642,34368
643,34368
644,34432
645,34560
646,34624
647,34624
648,34624
649,34688
650,34688
651,34688
652,34560
653,34496
654,34496
655,34496
656,34432
657,34432
658,34432
659,34368
660,34240
661,34304
662,34304
663,34304
664,34240
665,34240
666,34368
667,34496
668,34560
669,34560
670,34624
671,34688
672,34688
673,34688
674,34816
675,34880
676,34816
677,34816
678,34752
679,34816
680,34752
681,34752
682,34816
683,34816
684,34816
685,34688
686,34688
687,34752
688,34880
689,34880
690,34880
691,34944
692,34944
693,34816
694,34688
695,34624
696,34432
697,34240
698,34048
699,33984
700,33920
701,33984
702,34112
703,34368
704,34688
705,34944
706,35200
707,35456
708,35648
709,35648
710,35712
711,35840
712,36032
713,36160
714,36224
715,36160
716,35968
717,35520
718,34880
719,34176
720,33536
721,32832
722,32256
723,31936
724,31872
725,31808
726,32000
727,32320
728,32320
729,33024
730,33280
731,33472
732,33600
733,33536
734,33408
735,33344
736,33152
737,32960
738,32704
739,32640
740,32640
741,33088
742,33472
743,34048
744,34880
745,35712
746,36224
747,36544
748,36928
749,37440
750,38080
751,38848
752,40000
753,42432
754,42752
755,44096
756,47936
757,48128
758,46656
759,43648
760,39872
761,36096
762,32960
763,30848
764,29760
765,29568
766,30016
767,30848
768,32000
769,32000
770,32384
771,33280
772,33280
773,33152
774,32832
775,32384
776,32000
777,31744
778,31552
779,31360
780,31168
781,31040
782,30976
783,30976
784,30848
785,30720
786,30720
787,30720
788,30720
789,30784
790,30848
791,30976
792,31104
793,31360
794,31680
795,32000
796,32384
797,32832
798,33344
799,33344
800,33728
801,34240
802,34496
803,34688
804,34816
805,34880
806,34944
807,35072
808,35136
809,35200
810,35328
811,35456
812,35456
813,35392
814,35328
815,35328
816,35456
817,35456
818,35456
819,35584
820,35712
821,35648
822,35456
823,35328
824,35136
825,35008
826,34752
827,34496
828,34176
829,34112
830,33664
831,33408
832,33216
833,33024
834,32832
835,32704
836,32576
837,32448
838,32384
839,32384
840,32384
841,32320
842,32256
843,32384
844,32320
845,32384
846,32640
847,32704
848,32832
849,33088
850,33216
851,33344
852,33344
853,33408
854,33408
855,33408
856,33408
857,33536
858,33600
859,33600
860,33728
861,33856
862,33920
863,33920
864,33984
865,34112
866,34112
867,34112
868,34048
869,33984
870,33856
871,33728
872,33728
873,33728
874,33664
875,33664
876,33600
877,33536
878,33472
879,33472
880,33472
881,33472
882,33536
883,33472
884,33408
885,33408
886,33472
887,33600
888,33728
889,33728
890,33856
891,33920
892,33920
893,33984
894,34048
895,34176
896,34240
897,34240
898,34368
899,34496
900,34560
901,34560
902,34432
903,34304
904,34240
905,33984
906,33792
907,33664
908,33472
909,33280
910,33216
911,33152
912,33152
913,33216
914,33216
915,33344
916,33472
917,33600
918,33728
919,33728
920,33920
921,33984
922,33984
923,33984
924,33920
925,33856
926,33920
927,34432
928,35136
929,36288
930,38080
931,40512
932,43072
933,44672
934,44928
935,43584
936,40960
937,37440
938,33920
939,31168
940,29440
941,28544
942,28352
943,28800
944,29568
945,30400
946,31232
947,32000
948,32768
949,33280
950,33728
951,34048
952,34304
953,34496
954,34560
955,34496
956,34368
957,34304
958,34176
959,34048
960,33984
961,34048
962,33984
963,33920
964,33920
965,33920
966,34112
967,34240
968,34304
969,34368
970,34432
971,34368
972,34304
973,34368
974,34432
975,34432
976,34432
977,34496
978,34688
979,34624
980,34688
981,34752
982,34880
983,34944
984,34816
985,34752
986,34688
987,34688
988,34560
989,34432
990,34432
991,34368
992,34304
993,34304
994,34304
995,34368
996,34432
997,34432
998,34432
999,34496
1000,34432
1001,34304
1002,34240
1003,34240
1004,34240
1005,34176
1006,34112
1007,34176
1008,34176
1009,34112
1010,34176
1011,34240
1012,34304
1013,34240
1014,34240
1015,34240
1016,34304
1017,34240
1018,34240
1019,34304
1020,34368
1021,34368
1022,34368
1023,34432
1024,34368
1025,34368
1026,34368
1027,34368
1028,34496
1029,34496
1030,34432
1031,34432
1032,34432
1033,34432
1034,34368
1035,34432
1036,34496
1037,34496
1038,34560
1039,34560
1040,34560
1041,34496
1042,34432
1043,34368
1044,34368
1045,34304
1046,34240
1047,34176
1048,34240
1049,34304
1050,34176
1051,34048
1052,33984
1053,33984
1054,33920
1055,33920
1056,33920
1057,33984
1058,34048
1059,34048
1060,34048
1061,34176
1062,34240
1063,34304
1064,34368
1065,34432
1066,34496
1067,34496
1068,34496
1069,34496
1070,34688
1071,34752
1072,34816
1073,34816
1074,34880
1075,34880
1076,34880
1077,34880
1078,34816
1079,34816
1080,34880
1081,34880
1082,34880
1083,34752
1084,34688
1085,34560
1086,34496
1087,34368
1088,34176
1089,33920
1090,33728
1091,33600
1092,33472
1093,33408
1094,33472
1095,33600
1096,33664
1097,33728
1098,33920
1099,33984
1100,34112
1101,34176
1102,34112
1103,34048
1104,33984
1105,33792
1106,33856
1107,34176
1108,34752
1109,35648
1110,37120
1111,39168
1112,41728
1113,44288
1114,45376
1115,45184
1116,43136
1117,39936
1118,36160
1119,32832
1120,30464
1121,29056
1122,28480
1123,28672
1124,29312
1125,30144
1126,30976
1127,31744
1128,32960
1129,32896
1130,33536
1131,33920
1132,34240
1133,34432
1134,34496
1135,34496
1136,34496
1137,34432
1138,34368
1139,34240
1140,34240
1141,34240
1142,34048
1143,33984
1144,33984
1145,33984
1146,33984
1147,33984
1148,34048
1149,34112
1150,34240
1151,34240
1152,34304
1153,34368
1154,34432
1155,34432
1156,34496
1157,34496
1158,34432
1159,34304
1160,34240
1161,34240
1162,34304
1163,34240
1164,34240
1165,34240
1166,34240
1167,34176
1168,34048
1169,34048
1170,34112
1171,34048
1172,34112
1173,34112
1174,34240
1175,34240
1176,34240
1177,34304
1178,34432
1179,34496
1180,34432
1181,34368
1182,34304
1183,34240
1184,34176
1185,34112
1186,34112
1187,34112
1188,34112
1189,34176
1190,34176
1191,34176
1192,34112
1193,34048
1194,34048
1195,34112
1196,34112
1197,34048
1198,34048
1199,34176
1200,34176
1201,34176
1202,34176
1203,34176
1204,34240
1205,34176
1206,34240
1207,34304
1208,34304
1209,34240
1210,34240
1211,34368
1212,34496
1213,34496
1214,34496
1215,34432
1216,34432
1217,34432
1218,34368
1219,34304
1220,34368
1221,34368
1222,34304
1223,34304
1224,34304
1225,34304
1226,34240
1227,34176
1228,34176
1229,34176
1230,34048
1231,34048
1232,34048
1233,33984
1234,33984
1235,33984
1236,34048
1237,34048
1238,33984
1239,33984
1240,33984
1241,34048
1242,34048
1243,33984
1244,33984
1245,34048
1246,34048
1247,34112
1248,34112
1249,34176
1250,34176
1251,34176
1252,34240
1253,34240
1254,34176
1255,34112
1256,34048
1257,34176
1258,34304
1259,34304
1260,34368
1261,34368
1262,34368
1263,34368
1264,34304
1265,34304
1266,34304
1267,34240
1268,34176
1269,34112
1270,34112
1271,34176
1272,34304
1273,34432
1274,34688
1275,34752
1276,34624
1277,34624
1278,34624
1279,34624
1280,34624
1281,34688
1282,34688
1283,34688
1284,34496
1285,34368
1286,34240
1287,34176
1288,34048
1289,33920
1290,33856
1291,33728
1292,33536
1293,33472
1294,33472
1295,33600
1296,33664
1297,33728
1298,33856
1299,34048
1300,34112
1301,34176
1302,34176
1303,34176
1304,34112
1305,33984
1306,33920
1307,34112
1308,34560
1309,35264
1310,36544
1311,38464
1312,40896
1313,43456
1314,44992
1315,45248
1316,43712
1317,40768
1318,36992
1319,33408
1320,30720
1321,28992
1322,28224
1323,28224
1324,28800
1325,29632
1326,30528
1327,31424
1328,32192
1329,32896
1330,33408
1331,33792
1332,34112
1333,34304
1334,34368
1335,34432
1336,34432
1337,34368
1338,34176
1339,33984
1340,33920
1341,33856
1342,33728
1343,33664
1344,33664
1345,33792
1346,33856
1347,33856
1348,33920
1349,33920
1350,33920
1351,33920
1352,33984
1353,34048
1354,34048
1355,33984
1356,33920
1357,33984
1358,34048
1359,34048
1360,34048
1361,34048
1362,34048
1363,34048
1364,34048
1365,34048
1366,34048
1367,34048
1368,33984
1369,33984
1370,33920
1371,33920
1372,33984
1373,34112
1374,34240
1375,34240
1376,34176
1377,34176
1378,34304
1379,34240
1380,34176
1381,34048
1382,33984
1383,33920
1384,33856
1385,33792
1386,33728
1387,33664
1388,33664
1389,33664
1390,33728
1391,33792
1392,33792
1393,33728
1394,33792
1395,33856
1396,33920
1397,33856
1398,33920
1399,34048
1400,34112
1401,34176
1402,34176
1403,34176
1404,34112
1405,33984
1406,33920
1407,33984
1408,34048
1409,33984
1410,33984
1411,34112
1412,34240
1413,34240
1414,34304
1415,34368
1416,34368
1417,34368
1418,34240
1419,34240
1420,34240
1421,34176
1422,34112
1423,34048
1424,33920
1425,33856
1426,33792
1427,33856
1428,34048
1429,34176
1430,34240
1431,34240
1432,34240
1433,34304
1434,34304
1435,34304
1436,34304
1437,34240
1438,34112
1439,34048
1440,33984
1441,33920
1442,33856
1443,33792
1444,33856
1445,33984
1446,34112
1447,34176
1448,34304
1449,34496
1450,34560
1451,34560
1452,34624
1453,34624
1454,34624
1455,34496
1456,34368
1457,34368
1458,34368
1459,34304
1460,34304
1461,34432
1462,34560
1463,34560
1464,34624
1465,34688
1466,34752
1467,34816
1468,34688
1469,34560
1470,34560
1471,34496
1472,34432
1473,34496
1474,34496
1475,34560
1476,34624
1477,34624
1478,34688
1479,34624
1480,34560
1481,34496
1482,34560
1483,34560
1484,34560
1485,34560
1486,34624
1487,34816
1488,34944
1489,35008
1490,35200
1491,35264
1492,35392
1493,35328
1494,35392
1495,35456
1496,35456
1497,35456
1498,35456
1499,35392
1500,35328
1501,35136
1502,35008
1503,34880
1504,34752
1505,34496
1506,34304
1507,34240
1508,34240
1509,34176
1510,34240
1511,34368
1512,34560
1513,34624
1514,34624
1515,34624
1516,34624
1517,34560
1518,34496
1519,34496
1520,34560
1521,34624
1522,34752
1523,35136
1524,35904
1525,37184
1526,39104
1527,41600
1528,44160
1529,45568
1530,45632
1531,43968
1532,40960
1533,37248
1534,33600
1535,31104
1536,29568
1537,28928
1538,28928
1539,29440
1540,30272
1541,31168
1542,32000
1543,32768
1544,33472
1545,34048
1546,34368
1547,34624
1548,34752
1549,34880
1550,34880
1551,34816
1552,34752
1553,34688
1554,34560
1555,34432
1556,34368
1557,34176
1558,34112
1559,33984
1560,33984
1561,33984
1562,34048
1563,34112
1564,34176
1565,34304
1566,34432
1567,34432
1568,34432
1569,34496
1570,34496
1571,34368
1572,34304
1573,34368
1574,34432
1575,34496
1576,34496
1577,34368
1578,34368
1579,34368
1580,34304
1581,34240
1582,34176
1583,34176
1584,34176
1585,34176
1586,34240
1587,34304
1588,34240
1589,34240
1590,34240
1591,34368
1592,34368
1593,34368
1594,34304
1595,34368
1596,34304
1597,34112
1598,33984
1599,33984
1600,33984
1601,33984
1602,33984
1603,33984
1604,33920
1605,33792
1606,33728
1607,33728
1608,33728
1609,33728
1610,33728
1611,33792
1612,33920
1613,33920
1614,33856
1615,33856
1616,33920
1617,33920
1618,33920
1619,33920
1620,33984
1621,33984
1622,33984
1623,33984
1624,34048
1625,34112
1626,34048
1627,33984
1628,33984
1629,33984
1630,33984
1631,33920
1632,33984
1633,33984
1634,34112
1635,34112
1636,34176
1637,34240
1638,34176
1639,34112
1640,34112
1641,34112
1642,34112
1643,33984
1644,34048
1645,34112
1646,34176
1647,34112
1648,34048
1649,34048
1650,33984
1651,33920
1652,33920
1653,33984
1654,33984
1655,33984
1656,33920
1657,33920
1658,33984
1659,34048
1660,34048
1661,34112
1662,34176
1663,34112
1664,34112
1665,34112
1666,34112
1667,34048
1668,33984
1669,33984
1670,34112
1671,34176
1672,34176
1673,34176
1674,34176
1675,34176
1676,34112
1677,34048
1678,34048
1679,34048
1680,34048
1681,34048
1682,34112
1683,34112
1684,34048
1685,33984
1686,33984
1687,34048
1688,33984
1689,33920
1690,33856
1691,33856
1692,33856
1693,33856
1694,33984
1695,34112
1696,34112
1697,34048
1698,34048
1699,34048
1700,34048
1701,34048
1702,34048
1703,34048
1704,34048
1705,34048
1706,33984
1707,34048
1708,34112
1709,34240
1710,34432
1711,34624
1712,34688
1713,34688
1714,34624
1715,34624
1716,34752
1717,34752
1718,34688
1719,34688
1720,34752
1721,34816
1722,34688
1723,34496
1724,34368
1725,34240
1726,34048
1727,33920
1728,33792
1729,33728
1730,33600
1731,33472
1732,33536
1733,33600
1734,33664
1735,33728
1736,33920
1737,34048
1738,34112
1739,34048
1740,34048
1741,34048
1742,34048
1743,33984
1744,34176
1745,34496
1746,35072
1747,36032
1748,37632
1749,39936
1750,42560
1751,44544
1752,45312
1753,44416
1754,41984
1755,38400
1756,34688
1757,31680
1758,29696
1759,28672
1760,28480
1761,28800
1762,29504
1763,30400
1764,31232
1765,32000
1766,32768
1767,33408
1768,33856
1769,34176
1770,34368
1771,34496
1772,34560
1773,34560
1774,34624
1775,34624
1776,34432
1777,34240
1778,34112
1779,34112
1780,34048
1781,34048
1782,34048
1783,34176
1784,34176
1785,34176
1786,34240
1787,34368
1788,34368
1789,34368
1790,34368
1791,34432
1792,34496
1793,34368
1794,34304
1795,34368
1796,34304
1797,34112
1798,33984
1799,33984
1800,34048
1801,33984
1802,34048
1803,34112
1804,34176
1805,34112
1806,34112
1807,34112
1808,34112
1809,34048
1810,33920
1811,33920
1812,33984
1813,34048
1814,34048
1815,34112
1816,34240
1817,34176
1818,34048
1819,33856
1820,33792
1821,33728
1822,33664
1823,33536
1824,33536
1825,33600
1826,33536
1827,33472
1828,33472
1829,33536
1830,33472
1831,33408
1832,33408
1833,33472
1834,33536
1835,33408
1836,33344
1837,33280
1838,33152
1839,33024
1840,32960
1841,33024
1842,33088
1843,33280
1844,33408
1845,33600
1846,33728
1847,33856
1848,33856
1849,33856
1850,33856
1851,33728
1852,33472
1853,33216
1854,33088
1855,33024
1856,33024
1857,33280
1858,33472
1859,33600
1860,33600
1861,33600
1862,33600
1863,33408
1864,33088
1865,32960
1866,32960
1867,32960
1868,32896
1869,32960
1870,33088
1871,33280
1872,33344
1873,33344
1874,33344
1875,33408
1876,33408
1877,33408
1878,33664
1879,33856
1880,33920
1881,33984
1882,34176
1883,34368
1884,34432
1885,34432
1886,34432
1887,34304
1888,34112
1889,33920
1890,33792
1891,33728
1892,33664
1893,33536
1894,33472
1895,33536
1896,33600
1897,33664
1898,33600
1899,33600
1900,33600
1901,33600
1902,33536
1903,33664
1904,33792
1905,33984
1906,34240
1907,34560
1908,34752
1909,34880
1910,34816
1911,34624
1912,34304
1913,33920
1914,33472
1915,33216
1916,32960
1917,32768
1918,32640
1919,32640
1920,32832
1921,33152
1922,33344
1923,33536
1924,33664
1925,33664
1926,33536
1927,33344
1928,33216
1929,33216
1930,33152
1931,33152
1932,33216
1933,33280
1934,33280
1935,33152
1936,33024
1937,32960
1938,32896
1939,32896
1940,32832
1941,32768
1942,32640
1943,32448
1944,32256
1945,32128
1946,31872
1947,31616
1948,31552
1949,31872
1950,32320
1951,32704
1952,32960
1953,33152
1954,33216
1955,33280
1956,33280
1957,33344
1958,33344
1959,33408
1960,33408
1961,33280
1962,33024
1963,32832
1964,33024
1965,33856
1966,35584
1967,37952
1968,40512
1969,42560
1970,43136
1971,42432
1972,40128
1973,36800
1974,33344
1975,30528
1976,28608
1977,27648
1978,27520
1979,27968
1980,28736
1981,29632
1982,30528
1983,31424
1984,32192
1985,32832
1986,33216
1987,33536
1988,33600
1989,33536
1990,33472
1991,33536
1992,33664
1993,33728
1994,33856
1995,33984
1996,34368
1997,34688
1998,34944
1999,35136
2000,35328
2001,35520
2002,35648
2003,35712
2004,35584
2005,35456
2006,35456
2007,35648
2008,35840
2009,36096
2010,36352
2011,36736
2012,37056
2013,37248
2014,37440
2015,37568
2016,37696
2017,37888
2018,37824
2019,37824
2020,37888
2021,38016
2022,38016
2023,38016
2024,37952
2025,37760
2026,37376
2027,36992
2028,36928
2029,36928
2030,36800
2031,36672
2032,36480
2033,36416
2034,36288
2035,36160
2036,36096
2037,35968
2038,35840
2039,35776
2040,35904
2041,36032
2042,36032
2043,35968
2044,35904
2045,35904
2046,35904
2047,35840
2048,35840
2049,35840
2050,35648
2051,35328
2052,35008
2053,34688
2054,34432
2055,34176
2056,34048
2057,34112
2058,34368
2059,34624
2060,34816
2061,35072
2062,35328
2063,35392
2064,35328
2065,35264
2066,35264
2067,35200
2068,35072
2069,34880
2070,34816
2071,34624
2072,34368
2073,34240
2074,34176
2075,34176
2076,34112
2077,34112
2078,34176
2079,34240
2080,34240
2081,34240
2082,34240
2083,34240
2084,34112
2085,33984
2086,33920
2087,33920
2088,33984
2089,34048
2090,34176
2091,34240
2092,34368
2093,34432
2094,34496
2095,34496
2096,34432
2097,34368
2098,34432
2099,34496
2100,34560
2101,34560
2102,34432
2103,34432
2104,34432
2105,34368
2106,34304
2107,34240
2108,34240
2109,34176
2110,34112
2111,34176
2112,34176
2113,34112
2114,34048
2115,33984
2116,33920
2117,33856
2118,33792
2119,33920
2120,33984
2121,34048
2122,34048
2123,34048
2124,34112
2125,34176
2126,34176
2127,34112
2128,34240
2129,34368
2130,34304
2131,34112
2132,34048
2133,33984
2134,33792
2135,33664
2136,33536
2137,33344
2138,33216
2139,33024
2140,32896
2141,32896
2142,32960
2143,33024
2144,33088
2145,33216
2146,33344
2147,33536
2148,33664
2149,33856
2150,33984
2151,34048
2152,34048
2153,33984
2154,33920
2155,33984
2156,34240
2157,34816
2158,35968
2159,37696
2160,40000
2161,42432
2162,43840
2163,43904
2164,42368
2165,39936
2166,36608
2167,33408
2168,30848
2169,29248
2170,28416
2171,28352
2172,28672
2173,29376
2174,30208
2175,31040
2176,31744
2177,32384
2178,32896
2179,33408
2180,33664
2181,33856
2182,34048
2183,34176
2184,34240
2185,34176
2186,34048
2187,33920
2188,33728
2189,33536
2190,33344
2191,33280
2192,33216
2193,33216
2194,33280
2195,33344
2196,33472
2197,33536
2198,33600
2199,33664
2200,33728
2201,33664
2202,33600
2203,33600
2204,33600
2205,33472
2206,33280
2207,33152
2208,33088
2209,33024
2210,33024
2211,33088
2212,33216
2213,33344
2214,33536
2215,33856
2216,34176
2217,34432
2218,34432
2219,34368
2220,34304
2221,34176
2222,33984
2223,33856
2224,33792
2225,33792
2226,33792
2227,33856
2228,33984
2229,34112
2230,34112
2231,34112
2232,34112
2233,34112
2234,34048
2235,33920
2236,33856
2237,33856
2238,33856
2239,33728
2240,33664
2241,33728
2242,33856
2243,33856
2244,33856
2245,33856
2246,33856
2247,33856
2248,33856
2249,33984
2250,34048
2251,33984
2252,33984
2253,34048
2254,34048
2255,34048
2256,34048
2257,34048
2258,34112
2259,34176
2260,34176
2261,34176
2262,34240
2263,34176
2264,34048
2265,33920
2266,33920
2267,33984
2268,33984
2269,33984
2270,34048
2271,34112
2272,34048
2273,34048
2274,34176
2275,34176
2276,34112
2277,34048
2278,34048
2279,33984
2280,33920
2281,33856
2282,33920
2283,33984
2284,33920
2285,33856
2286,33856
2287,33856
2288,33792
2289,33792
2290,33856
2291,33920
2292,33920
2293,33920
2294,33920
2295,33984
2296,34112
2297,34176
2298,34112
2299,34112
2300,34176
2301,34176
2302,34176
2303,34304
2304,34496
2305,34496
2306,34496
2307,34560
2308,34688
2309,34688
2310,34624
2311,34752
2312,34944
2313,35008
2314,34944
2315,34880
2316,34752
2317,34624
2318,34432
2319,34176
2320,33984
2321,33728
2322,33536
2323,33408
2324,33408
2325,33536
2326,33600
2327,33664
2328,33728
2329,33856
2330,33920
2331,33984
2332,33984
2333,34048
2334,34048
2335,33984
2336,34048
2337,34048
2338,34048
2339,34176
2340,34496
2341,35200
2342,36480
2343,38464
2344,41792
2345,43392
2346,44608
2347,44480
2348,42752
2349,39872
2350,36416
2351,33280
2352,30848
2353,29440
2354,28800
2355,28672
2356,29056
2357,29824
2358,30720
2359,31552
2360,32320
2361,32960
2362,33600
2363,34048
2364,34240
2365,34432
2366,34560
2367,34560
2368,34432
2369,34304
2370,34240
2371,34176
2372,33984
2373,33920
2374,33920
2375,33920
2376,33920
2377,33920
2378,33984
2379,34048
2380,34048
2381,34112
2382,34112
2383,34176
2384,34240
2385,34176
2386,34112
2387,34176
2388,34176
2389,34112
2390,34112
2391,34112
2392,34176
2393,34240
2394,34304
2395,34368
2396,34432
2397,34432
2398,34368
2399,34368
2400,34368
2401,34240
2402,34176
2403,34176
2404,34240
2405,34240
2406,34176
2407,34240
2408,34304
2409,34368
2410,34368
2411,34368
2412,34432
2413,34432
2414,34368
2415,34368
2416,34368
2417,34368
2418,34304
2419,34240
2420,34240
2421,34240
2422,34240
2423,34304
2424,34368
2425,34432
2426,34432
2427,34432
2428,34432
2429,34496
2430,34496
2431,34432
2432,34368
2433,34368
2434,34368
2435,34368
2436,34304
2437,34368
2438,34432
2439,34432
2440,34496
2441,34496
2442,34432
2443,34432
2444,34432
2445,34496
2446,34560
2447,34560
2448,34496
2449,34496
2450,34496
2451,34496
2452,34432
2453,34496
2454,34560
2455,34624
2456,34624
2457,34624
2458,34624
2459,34624
2460,34560
2461,34432
2462,34432
2463,34432
2464,34304
2465,34240
2466,34240
2467,34112
2468,33984
2469,33920
2470,33984
2471,33984
2472,34048
2473,34048
2474,34176
2475,34240
2476,34240
2477,34240
2478,34304
2479,34368
2480,34368
2481,34368
2482,34368
2483,34496
2484,34560
2485,34624
2486,34752
2487,34944
2488,35072
2489,35008
2490,35008
2491,34944
2492,34944
2493,34880
2494,34944
2495,34944
2496,35072
2497,35072
2498,34944
2499,34944
2500,34880
2501,34752
2502,34624
2503,34432
2504,34240
2505,34048
2506,33856
2507,33728
2508,33792
2509,33792
2510,33856
2511,33984
2512,34112
2513,34112
2514,34048
2515,34048
2516,34112
2517,34176
2518,34176
2519,34112
2520,34112
2521,34112
2522,34240
2523,34496
2524,35392
2525,36160
2526,37440
2527,39488
2528,42112
2529,44352
2530,45312
2531,44736
2532,42624
2533,39360
2534,35712
2535,32448
2536,30208
2537,29056
2538,28544
2539,28672
2540,29184
2541,29952
2542,31744
2543,32448
2544,33088
2545,33664
2546,34048
2547,34368
2548,34560
2549,34688
2550,34688
2551,34560
2552,34496
2553,34432
2554,34368
2555,34176
2556,34176
2557,34176
2558,34112
2559,34048
2560,33984
2561,33920
2562,33984
2563,33984
2564,33984
2565,34048
2566,34112
2567,34112
2568,34048
2569,34176
2570,34240
2571,34240
2572,34240
2573,34304
2574,34368
2575,34368
2576,34304
2577,34368
2578,34368
2579,34368
2580,34304
2581,34304
2582,34368
2583,34368
2584,34304
2585,34304
2586,34304
2587,34304
2588,34304
2589,34240
2590,34304
2591,34304
2592,34368
2593,34432
2594,34496
2595,34432
2596,34496
2597,34368
2598,34304
2599,34240
2600,34176
2601,34048
2602,34048
2603,33984
2604,33920
2605,33792
2606,33792
2607,33856
2608,33984
2609,34048
2610,34112
2611,34112
2612,34304
2613,34240
2614,34112
2615,34176
2616,34176
2617,34112
2618,34048
2619,34112
2620,34176
2621,34240
2622,34240
2623,34304
2624,34368
2625,34368
2626,34304
2627,34304
2628,34368
2629,34368
2630,34368
2631,34304
2632,34432
2633,34432
2634,34432
2635,34432
2636,34432
2637,34496
2638,34496
2639,34432
2640,34432
2641,34368
2642,34368
2643,34304
2644,34304
2645,34304
2646,34304
2647,34240
2648,34112
2649,34112
2650,34112
2651,34112
2652,34176
2653,34304
2654,34240
2655,34112
2656,34048
2657,34048
2658,34112
2659,34176
2660,34240
2661,34368
2662,34432
2663,34368
2664,34304
2665,34304
2666,34240
2667,34240
2668,34176
2669,34176
2670,34304
2671,34240
2672,34048
2673,33984
2674,33984
2675,34048
2676,34048
2677,34176
2678,34368
2679,34560
2680,34752
2681,34880
2682,35008
2683,35136
2684,35136
2685,35072
2686,35136
2687,35072
2688,35008
2689,35072
2690,35072
2691,35008
2692,34816
2693,34560
2694,34368
2695,34240
2696,33984
2697,33792
2698,33664
2699,33664
2700,33600
2701,33600
2702,33728
2703,33856
2704,33920
2705,33984
2706,34112
2707,34240
2708,34304
2709,34240
2710,34176
2711,34112
2712,34048
2713,33920
2714,33984
2715,34368
2716,34944
2717,35712
2718,37184
2719,39104
2720,41600
2721,43904
2722,45120
2723,44800
2724,42880
2725,39616
2726,35840
2727,32448
2728,30016
2729,28800
2730,28288
2731,28544
2732,29248
2733,30144
2734,30912
2735,31744
2736,32448
2737,33152
2738,33728
2739,34048
2740,34368
2741,34624
2742,34688
2743,34688
2744,34752
2745,34752
2746,34624
2747,34432
2748,34240
2749,34112
2750,33984
2751,33920
2752,33856
2753,33792
2754,33728
2755,33664
2756,33728
2757,33856
2758,33984
2759,34048
2760,34112
2761,34240
2762,34304
2763,34304
2764,34304
2765,34368
2766,34368
2767,34304
2768,34304
2769,34304
2770,34368
2771,34304
2772,34240
2773,34112
2774,34048
2775,33984
2776,33920
2777,33984
2778,34112
2779,34112
2780,34112
2781,34112
2782,34240
2783,34304
2784,34240
2785,34240
2786,34240
2787,34240
2788,34176
2789,34112
2790,34112
2791,34112
2792,34048
2793,33856
2794,33792
2795,33728
2796,33600
2797,33536
2798,33536
2799,33600
2800,33600
2801,33600
2802,33664
2803,33792
2804,33792
2805,33792
2806,33856
2807,33920
2808,33856
2809,33792
2810,33792
2811,33856
2812,33856
2813,33856
2814,33792
2815,33856
2816,33920
2817,33920
2818,33984
2819,33984
2820,34048
2821,34048
2822,34048
2823,34176
2824,34240
2825,34240
2826,34176
2827,34112
2828,34112
2829,34112
2830,34112
2831,34176
2832,34176
2833,34240
2834,34176
2835,34112
2836,34112
2837,34112
2838,34048
2839,34048
2840,34048
2841,34048
2842,33984
2843,33920
2844,33920
2845,33984
2846,33984
2847,33920
2848,33984
2849,33984
2850,33984
2851,34048
2852,34048
2853,34112
2854,34176
2855,34112
2856,34112
2857,34176
2858,34112
2859,34112
2860,34112
2861,34176
2862,34240
2863,34240
2864,34240
2865,34368
2866,34496
2867,34432
2868,34368
2869,34496
2870,34560
2871,34496
2872,34432
2873,34496
2874,34496
2875,34432
2876,34432
2877,34496
2878,34688
2879,34880
2880,34944
2881,35008
2882,35136
2883,35072
2884,35008
2885,34880
2886,34816
2887,34816
2888,34816
2889,34688
2890,34560
2891,34432
2892,34240
2893,34048
2894,33984
2895,33984
2896,33920
2897,33728
2898,33664
2899,33600
2900,33536
2901,33408
2902,33408
2903,33472
2904,33536
2905,33600
2906,33728
2907,33984
2908,34176
2909,34240
2910,34304
2911,34368
2912,34368
2913,34432
2914,34560
2915,34944
2916,35712
2917,36928
2918,38848
2919,41408
2920,43904
2921,45312
2922,45312
2923,43520
2924,40000
2925,36608
2926,33024
2927,30400
2928,28864
2929,28160
2930,28160
2931,28608
2932,29376
2933,30208
2934,30976
2935,31744
2936,32448
2937,33024
2938,33408
2939,33728
2940,33920
2941,34048
2942,34112
2943,34112
2944,34176
2945,34176
2946,34112
2947,33984
2948,33920
2949,33984
2950,33984
2951,33984
2952,34048
2953,34176
2954,34304
2955,34304
2956,34304
2957,34432
2958,34432
2959,34432
2960,34368
2961,34432
2962,34368
2963,34304
2964,34240
2965,34240
2966,34112
2967,33984
2968,33920
2969,33920
2970,33984
2971,34048
2972,34048
2973,34048
2974,34112
2975,34112
2976,34048
2977,34112
2978,34176
2979,34176
2980,34176
2981,34176
2982,34304
2983,34432
2984,34432
2985,34304
2986,34176
2987,34112
2988,33984
2989,33856
2990,33792
2991,33728
2992,33664
2993,33600
2994,33664
2995,33728
2996,33728
2997,33664
2998,33664
2999,33728
3000,33728
3001,33728
3002,33664
3003,33728
3004,33728
3005,33728
3006,33728
3007,33792
3008,33920
3009,33856
3010,33728
3011,33728
3012,33664
3013,33664
3014,33664
3015,33856
3016,33984
3017,34048
3018,34048
3019,34112
3020,34112
3021,34112
3022,34112
3023,34112
3024,34176
3025,34240
3026,34112
3027,34112
3028,34176
3029,34112
3030,34048
3031,33984
3032,34048
3033,34112
3034,34048
3035,34048
3036,33984
3037,33984
3038,33984
3039,33920
3040,33984
3041,34048
3042,33984
3043,33920
3044,33920
3045,34048
3046,34112
3047,34048
3048,34048
3049,34048
3050,33984
3051,33984
3052,33920
3053,33984
3054,33984
3055,33984
3056,34048
3057,34112
3058,34048
3059,33920
3060,33920
3061,33984
3062,34048
3063,34048
3064,34048
3065,34112
3066,34112
3067,34112
3068,34048
3069,34048
3070,34112
3071,34112
3072,34112
3073,34112
3074,34176
3075,34176
3076,34240
3077,34240
3078,34240
3079,34112
3080,33984
3081,33984
3082,34048
3083,34112
3084,34048
3085,33984
3086,34048
3087,34048
3088,33984
3089,33920
3090,33920
3091,33984
3092,33920
3093,33920
3094,34048
3095,34112
3096,34240
3097,34368
3098,34496
3099,34688
3100,34752
3101,34688
3102,34688
3103,34688
3104,34624
3105,34560
3106,34624
3107,34752
3108,34752
3109,34624
3110,34496
3111,34368
3112,34240
3113,33984
3114,33856
3115,33728
3116,33600
3117,33472
3118,33408
3119,33472
3120,33600
3121,33664
3122,33664
3123,33728
3124,33856
3125,33920
3126,33920
3127,33984
3128,34048
3129,33984
3130,33856
3131,33792
3132,33920
3133,34304
3134,34944
3135,35968
3136,37760
3137,40128
3138,42752
3139,44672
3140,45248
3141,44160
3142,41408
3143,37760
3144,34112
3145,31168
3146,29312
3147,28352
3148,28224
3149,28736
3150,29504
3151,30272
3152,31104
3153,31936
3154,32704
3155,33280
3156,33664
3157,34048
3158,34304
3159,34368
3160,34368
3161,34368
3162,34368
3163,34240
3164,34048
3165,33984
3166,33920
3167,33792
3168,33728
3169,33792
3170,33856
3171,33792
3172,33728
3173,33792
3174,33920
3175,34048
3176,34048
3177,34176
3178,34240
3179,34240
3180,34176
3181,34112
3182,34112
3183,34112
3184,33984
3185,33920
3186,33920
3187,33920
3188,33920
3189,33920
3190,33984
3191,34048
3192,34048
3193,34048
3194,34048
3195,34112
3196,34112
3197,34112
3198,34176
3199,34240
3200,34240
3201,34240
3202,34304
3203,34368
3204,34304
3205,34176
3206,34112
3207,34048
3208,33984
3209,33856
3210,33728
3211,33664
3212,33600
3213,33536
3214,33536
3215,33664
3216,33728
3217,33792
3218,33728
3219,33664
3220,33728
3221,33728
3222,33728
3223,33728
3224,33792
3225,33856
3226,33920
3227,33920
3228,33920
3229,33920
3230,33856
3231,33792
3232,33792
3233,33856
3234,33792
3235,33792
3236,33920
3237,34048
3238,34112
3239,34048
3240,34048
3241,34048
3242,33984
3243,33920
3244,33984
3245,34112
3246,34112
3247,34048
3248,34048
3249,34048
3250,34048
3251,34048
3252,33984
3253,33984
3254,33984
3255,33920
3256,33856
3257,33920
3258,33920
3259,33920
3260,33984
3261,34048
3262,34112
3263,34048
3264,33984
3265,33984
3266,33920
3267,33856
3268,33792
3269,33856
3270,33920
3271,33920
3272,33920
3273,33920
3274,34048
3275,34048
3276,33984
3277,33920
3278,33920
3279,33856
3280,33856
3281,33856
3282,33920
3283,33984
3284,34048
3285,34112
3286,34176
3287,34176
3288,34176
3289,34112
3290,34048
3291,34048
3292,33984
3293,33984
3294,34048
3295,34048
3296,34048
3297,34048
3298,34048
3299,34112
3300,34112
3301,34112
3302,34048
3303,34048
3304,33984
3305,33984
3306,34048
3307,34048
3308,34112
3309,34048
3310,33984
3311,33984
3312,33984
3313,33984
3314,33984
3315,33984
3316,34048
3317,34112
3318,34176
3319,34240
3320,34432
3321,34560
3322,34560
3323,34624
3324,34624
3325,34624
3326,34560
3327,34560
3328,34688
3329,34688
3330,34688
3331,34624
3332,34560
3333,34432
3334,34240
3335,34112
3336,33984
3337,33920
3338,33856
3339,33664
3340,33600
3341,33600
3342,33600
3343,33536
3344,33664
3345,33728
3346,33856
3347,33920
3348,33920
3349,33920
3350,33920
3351,33856
3352,33856
3353,33920
3354,33920
3355,34048
3356,34496
3357,35264
3358,36544
3359,38464
3360,40896
3361,43392
3362,44992
3363,45120
3364,43520
3365,40448
3366,36928
3367,33408
3368,30656
3369,28992
3370,28352
3371,28288
3372,28736
3373,29568
3374,30464
3375,31296
3376,32064
3377,32704
3378,33344
3379,33728
3380,34048
3381,34304
3382,34496
3383,34560
3384,34432
3385,34304
3386,34176
3387,33984
3388,33856
3389,33728
3390,33664
3391,33728
3392,33728
3393,33664
3394,33728
3395,33856
3396,33920
3397,33984
3398,34112
3399,34176
3400,34176
3401,34112
3402,34112
3403,34112
3404,34112
3405,33984
3406,33856
3407,33856
3408,33792
3409,33792
3410,33792
3411,33920
3412,33984
3413,34112
3414,34176
3415,34176
3416,34176
3417,34112
3418,34112
3419,34112
3420,34176
3421,34112
3422,34112
3423,34112
3424,34240
3425,34304
3426,34240
3427,34176
3428,34176
3429,34048
3430,33920
3431,33792
3432,33728
3433,33728
3434,33664
3435,33600
3436,33600
3437,33600
3438,33600
3439,33600
3440,33664
3441,33728
3442,33664
3443,33600
3444,33600
3445,33664
3446,33664
3447,33600
3448,33600
3449,33728
3450,33728
3451,33728
3452,33664
3453,33792
3454,33920
3455,33984
3456,33920
3457,33920
3458,33920
3459,33920
3460,33856
3461,33920
3462,33984
3463,33984
3464,33984
3465,33984
3466,34048
3467,34048
3468,33984
3469,33984
3470,34112
3471,34176
3472,34176
3473,34112
3474,34048
3475,33984
3476,33920
3477,33920
3478,33920
3479,33920
3480,33856
3481,33856
3482,33984
3483,34048
3484,34048
3485,34048
3486,34048
3487,34048
3488,33984
3489,33920
3490,33920
3491,34048
3492,33984
3493,33920
3494,33984
3495,34048
3496,34112
3497,34048
3498,34048
3499,34112
3500,34112
3501,34048
3502,34048
3503,34112
3504,34112
3505,34048
3506,33984
3507,34048
3508,34112
3509,34048
3510,34048
3511,34112
3512,34112
3513,34112
3514,34048
3515,34048
3516,34176
3517,34112
3518,34048
3519,34048
3520,34112
3521,34112
3522,34112
3523,34112
3524,34112
3525,34112
3526,34048
3527,34048
3528,34048
3529,34048
3530,33984
3531,33920
3532,33984
3533,34048
3534,33984
3535,34048
3536,34176
3537,34112
3538,34048
3539,33984
3540,34048
3541,34112
3542,34112
3543,34112
3544,34112
3545,34176
3546,34176
3547,34112
3548,34112
3549,34240
3550,34304
3551,34240
3552,34176
3553,34240
3554,34176
3555,34112
3556,34112
3557,34240
3558,34304
3559,34368
3560,34496
3561,34624
3562,34752
3563,34752
3564,34752
3565,34752
3566,34816
3567,34816
3568,34816
3569,34816
3570,34752
3571,34624
3572,34368
3573,34176
3574,34112
3575,34048
3576,33920
3577,33856
3578,33792
3579,33728
3580,33600
3581,33536
3582,33600
3583,33664
3584,33792
3585,33856
3586,33920
3587,33984
3588,33984
3589,33984
3590,33984
3591,33984
3592,33984
3593,34176
3594,34688
3595,35648
3596,37184
3597,39360
3598,42048
3599,44352
3600,45376
3601,44864
3602,42560
3603,39232
3604,35392
3605,32064
3606,29760
3607,28544
3608,28096
3609,28288
3610,28928
3611,29824
3612,30784
3613,31616
3614,32320
3615,32960
3616,33536
3617,33984
3618,34304
3619,34496
3620,34560
3621,34496
3622,34304
3623,34176
3624,34112
3625,33984
3626,33856
3627,33792
3628,33792
3629,33856
3630,33792
3631,33728
3632,33728
3633,33792
3634,33856
3635,33920
3636,33984
3637,34048
3638,34112
3639,34112
3640,34112
3641,34112
3642,33984
3643,33856
3644,33792
3645,33792
3646,33792
3647,33856
3648,33920
3649,34048
3650,34112
3651,34176
3652,34176
3653,34304
3654,34304
3655,34176
3656,34112
3657,34112
3658,34112
3659,34112
3660,34112
3661,34112
3662,34176
3663,34176
3664,34176
3665,34176
3666,34176
3667,34112
3668,33984
3669,33920
3670,33856
3671,33728
3672,33536
3673,33536
3674,33536
3675,33536
3676,33536
3677,33472
3678,33600
3679,33728
3680,33728
3681,33664
3682,33664
3683,33664
3684,33600
3685,33600
3686,33664
3687,33728
3688,33728
3689,33664
3690,33664
3691,33792
3692,33792
3693,33792
3694,33792
3695,33920
3696,33920
3697,33920
3698,33920
3699,34048
3700,34048
3701,34048
3702,34048
3703,34048
3704,34048
3705,33984
3706,33920
3707,33984
3708,33984
3709,33920
3710,33920
3711,33984
3712,34048
3713,33984
3714,33920
3715,33920
3716,33984
3717,33984
3718,33984
3719,34048
3720,34112
3721,34048
3722,34048
3723,34048
3724,34048
3725,34112
3726,33984
3727,33920
3728,33920
3729,33920
3730,33856
3731,33856
3732,33920
3733,34048
3734,33984
3735,33920
3736,33920
3737,33984
3738,33984
3739,33920
3740,33984
3741,33984
3742,33920
3743,33856
3744,33920
3745,33984
3746,34048
3747,34112
3748,34112
3749,34240
3750,34176
3751,34048
3752,33984
3753,34048
3754,34112
3755,34048
3756,33984
3757,33984
3758,33984
3759,33984
3760,33984
3761,34048
3762,34112
3763,34112
3764,34112
3765,34112
3766,34112
3767,33984
3768,33920
3769,33856
3770,33856
3771,33920
3772,33920
3773,33984
3774,33984
3775,34048
3776,33984
3777,33984
3778,34048
3779,34048
3780,33984
3781,33856
3782,33920
3783,33984
3784,33984
3785,34048
3786,34048
3787,34048
3788,33984
3789,33920
3790,33920
3791,33984
3792,33984
3793,33920
3794,33984
3795,34048
3796,34176
3797,34112
3798,34176
3799,34304
3800,34432
3801,34432
3802,34432
3803,34432
3804,34432
3805,34496
3806,34560
3807,34688
3808,34752
3809,34688
3810,34496
3811,34368
3812,34240
3813,34048
3814,33856
3815,33728
3816,33600
3817,33472
3818,33472
3819,33472
3820,33536
3821,33536
3822,33472
3823,33536
3824,33664
3825,33728
3826,33792
3827,33856
3828,33984
3829,34048
3830,33920
3831,33856
3832,33984
3833,34368
3834,35008
3835,36096
3836,37952
3837,40320
3838,42816
3839,44288
3840,44544
3841,43264
3842,40576
3843,37056
3844,33600
3845,30336
3846,29184
3847,28288
3848,28224
3849,28736
3850,29440
3851,30272
3852,31104
3853,31936
3854,32576
3855,33152
3856,33600
3857,33984
3858,34240
3859,34304
3860,34304
3861,34304
3862,34368
3863,34240
3864,34048
3865,33856
3866,33792
3867,33664
3868,33536
3869,33472
3870,33472
3871,33472
3872,33472
3873,33536
3874,33664
3875,33792
3876,33856
3877,33920
3878,33920
3879,33856
3880,33856
3881,33920
3882,33856
3883,33792
3884,33728
3885,33728
3886,33792
3887,33792
3888,33856
3889,33856
3890,34048
3891,34112
3892,34176
3893,34240
3894,34240
3895,34304
3896,34304
3897,34176
3898,34112
3899,34048
3900,33984
3901,33920
3902,33984
3903,34112
3904,34240
3905,34176
3906,34048
3907,34048
3908,34112
3909,34048
3910,33984
3911,33856
3912,33856
3913,33856
3914,33792
3915,33792
3916,33792
3917,33728
3918,33728
3919,33792
3920,33856
3921,33856
3922,33856
3923,33920
3924,33984
3925,34048
3926,33984
3927,33920
3928,33920
3929,33984
3930,33920
3931,33856
3932,33856
3933,33920
3934,33984
3935,34048
3936,34176
3937,34240
3938,34176
3939,34048
3940,33984
3941,33984
3942,33920
3943,33920
3944,33984
3945,34048
3946,34048
3947,33920
3948,33984
3949,34112
3950,34240
3951,34176
3952,34112
3953,34112
3954,34176
3955,34112
3956,34048
3957,34048
3958,34048
3959,33984
3960,33920
3961,33920
3962,33984
3963,33984
3964,33984
3965,34048
3966,33984
3967,33984
3968,33920
3969,33856
3970,33920
3971,33984
3972,33984
3973,34048
3974,34048
3975,34048
3976,33984
3977,33920
3978,33920
3979,33984
3980,33984
3981,33984
3982,34048
3983,34112
3984,34176
3985,34112
3986,34112
3987,34176
3988,34176
3989,34112
3990,34112
3991,34112
3992,34048
3993,33984
3994,33984
3995,34048
3996,34112
3997,34048
3998,34048
3999,33984
4000,33920
4001,33792
4002,33792
4003,33856
4004,33792
4005,33792
4006,33792
4007,33856
4008,33984
4009,33984
4010,34048
4011,34176
4012,34368
4013,34432
4014,34560
4015,34624
4016,34624
4017,34560
4018,34496
4019,34368
4020,34432
4021,34496
4022,34560
4023,34624
4024,34624
4025,34624
4026,34496
4027,34368
4028,34176
4029,34048
4030,33920
4031,33792
4032,33664
4033,33536
4034,33408
4035,33344
4036,33344
4037,33472
4038,33536
4039,33600
4040,33792
4041,33920
4042,33984
4043,33984
4044,33984
4045,33984
4046,33920
4047,33728
4048,33664
4049,33920
4050,34496
4051,35392
4052,36800
4053,38912
4054,41472
4055,44096
4056,44416
4057,44096
4058,42176
4059,38976
4060,35456
4061,32384
4062,30272
4063,28992
4064,28480
4065,28672
4066,29248
4067,30080
4068,30912
4069,31744
4070,32768
4071,33088
4072,33536
4073,33920
4074,34240
4075,34432
4076,34496
4077,34496
4078,34560
4079,34496
4080,34304
4081,34112
4082,33984
4083,33920
4084,33792
4085,33792
4086,33856
4087,33920
4088,33984
4089,33920
4090,33920
4091,33984
4092,33984
4093,33984
4094,33984
4095,33984
4096,33984
4097,33856
4098,33792
4099,33856
4100,33984
4101,33920
4102,33984
4103,34048
4104,34176
4105,34176
4106,34112
4107,34176
4108,34304
4109,34304
4110,34304
4111,34304
4112,34368
4113,34368
4114,34304
4115,34304
4116,34240
4117,34240
4118,34176
4119,34240
4120,34304
4121,34368
4122,34368
4123,34304
4124,34304
4125,34304
4126,34176
4127,34112
4128,34112
4129,34112
4130,33984
4131,33984
4132,34048
4133,34112
4134,34176
4135,34176
4136,34176
4137,34176
4138,34112
4139,33984
4140,33920
4141,33856
4142,33856
4143,33792
4144,33856
4145,33920
4146,33920
4147,33920
4148,34048
4149,34176
4150,34176
4151,34048
4152,33920
4153,33984
4154,34112
4155,34048
4156,33984
4157,33984
4158,33984
4159,33984
4160,33920
4161,33920
4162,34048
4163,34048
4164,34048
4165,34048
4166,34112
4167,34112
4168,34176
4169,34240
4170,34240
4171,34304
4172,34304
4173,34304
4174,34240
4175,34112
4176,34048
4177,33920
4178,33984
4179,34048
4180,33920
4181,33856
4182,33856
4183,33920
4184,33984
4185,33984
4186,34048
4187,34240
4188,34304
4189,34240
4190,34304
4191,34368
4192,34432
4193,34432
4194,34432
4195,34560
4196,34624
4197,34560
4198,34624
4199,34688
4200,34688
4201,34560
4202,34496
4203,34496
4204,34432
4205,34240
4206,34176
4207,34112
4208,34176
4209,34176
4210,34176
4211,34304
4212,34432
4213,34496
4214,34432
4215,34432
4216,34496
4217,34560
4218,34496
4219,34496
4220,34496
4221,34624
4222,34624
4223,34624
4224,34624
4225,34560
4226,34432
4227,34240
4228,34112
4229,34048
4230,33920
4231,33728
4232,33664
4233,33664
4234,33664
4235,33728
4236,33728
4237,33856
4238,33984
4239,33984
4240,34112
4241,34176
4242,34240
4243,34176
4244,34048
4245,33984
4246,33856
4247,33856
4248,33984
4249,34368
4250,35200
4251,36416
4252,38400
4253,41024
4254,43648
4255,44928
4256,44864
4257,43200
4258,40256
4259,36544
4260,33152
4261,30656
4262,29184
4263,28416
4264,28416
4265,29312
4266,29760
4267,30592
4268,31424
4269,32256
4270,32960
4271,33536
4272,33856
4273,34112
4274,34368
4275,34496
4276,34496
4277,34432
4278,34496
4279,34496
4280,34368
4281,34240
4282,34176
4283,34176
4284,34112
4285,34048
4286,34048
4287,34048
4288,34048
4289,34048
4290,33984
4291,34048
4292,34176
4293,34176
4294,34240
4295,34176
4296,34176
4297,34176
4298,34240
4299,34304
4300,34304
4301,34240
4302,34240
4303,34240
4304,34304
4305,34304
4306,34368
4307,34496
4308,34560
4309,34624
4310,34624
4311,34624
4312,34624
4313,34560
4314,34496
4315,34496
4316,34496
4317,34496
4318,34432
4319,34432
4320,34432
4321,34496
4322,34432
4323,34304
4324,34240
4325,34176
4326,34112
4327,34048
4328,34048
4329,34048
4330,34048
4331,33984
4332,34048
4333,34112
4334,34112
4335,34112
4336,34112
4337,34112
4338,34112
4339,34112
4340,34048
4341,34176
4342,34176
4343,34240
4344,34240
4345,34304
4346,34368
4347,34240
4348,34176
4349,34176
4350,34112
4351,34176
4352,34240
4353,34304
4354,34432
4355,34432
4356,34368
4357,34368
4358,34432
4359,34368
4360,34240
4361,34176
4362,34368
4363,34368
4364,34432
4365,34560
4366,34624
4367,34624
4368,34560
4369,34560
4370,34496
4371,34368
4372,34304
4373,34304
4374,34240
4375,34240
4376,34112
4377,34240
4378,34304
4379,34368
4380,34368
4381,34368
4382,34240
4383,34176
4384,34048
4385,34112
4386,34176
4387,34240
4388,34240
4389,34240
4390,34304
4391,34304
4392,34240
4393,34240
4394,34304
4395,34304
4396,34240
4397,34240
4398,34240
4399,34240
4400,34176
4401,34112
4402,34176
4403,34240
4404,34176
4405,34240
4406,34240
4407,34304
4408,34240
4409,34176
4410,34176
4411,34240
4412,34176
4413,34112
4414,34112
4415,34240
4416,34240
4417,34496
4418,34688
4419,34624
4420,34880
4421,34880
4422,34880
4423,34944
4424,35008
4425,34944
4426,34944
4427,35008
4428,35072
4429,35008
4430,34816
4431,34752
4432,34560
4433,34304
4434,34240
4435,33984
4436,33920
4437,33856
4438,33728
4439,33728
4440,33792
4441,33856
4442,33920
4443,33984
4444,34048
4445,34112
4446,34112
4447,34112
4448,34176
4449,34112
4450,34112
4451,33984
4452,33984
4453,34240
4454,34688
4455,35456
4456,36736
4457,38720
4458,41088
4459,43584
4460,45184
4461,45568
4462,44032
4463,40832
4464,40384
4465,33664
4466,30912
4467,29184
4468,28352
4469,28352
4470,28864
4471,29632
4472,30464
4473,31424
4474,32320
4475,33024
4476,33152
4477,34048
4478,34304
4479,34496
4480,34560
4481,34688
4482,34688
4483,34496
4484,34368
4485,34240
4486,34176
4487,34048
4488,33920
4489,33856
4490,33920
4491,33856
4492,33920
4493,33920
4494,33920
4495,34112
4496,34240
4497,34368
4498,34432
4499,34432
4500,34368
4501,34304
4502,34432
4503,34432
4504,34368
4505,34304
4506,34304
4507,34368
4508,34368
4509,34368
4510,34432
4511,34496
4512,34560
4513,34560
4514,34560
4515,34624
4516,34624
4517,34560
4518,34624
4519,34688
4520,34816
4521,34816
4522,34752
4523,34752
4524,34688
4525,34560
4526,34432
4527,34368
4528,34304
4529,34176
4530,34048
4531,34048
4532,33984
4533,33920
4534,33856
4535,33792
4536,33792
4537,33792
4538,33728
4539,33728
4540,33792
4541,33920
4542,33920
4543,33920
4544,33984
4545,33984
4546,33984
4547,33920
4548,33984
4549,33984
4550,33984
4551,33984
4552,34048
4553,34112
4554,34112
4555,34048
4556,34112
4557,34240
4558,34240
4559,34240
4560,34240
4561,34240
4562,34240
4563,34176
4564,34112
4565,34176
4566,34240
4567,34176
4568,34112
4569,34112
4570,34176
4571,34176
4572,34240
4573,34368
4574,34368
4575,34304
4576,34176
4577,34176
4578,34240
4579,34240
4580,34112
4581,34112
4582,34112
4583,34112
4584,34112
4585,34176
4586,34240
4587,34304
4588,34240
4589,34176
4590,34176
4591,34240
4592,34240
4593,34176
4594,34176
4595,34176
4596,34176
4597,34176
4598,34176
4599,34240
4600,34240
4601,34176
4602,34176
4603,34240
4604,34176
4605,34176
4606,34240
4607,34304
4608,34304
4609,34176
4610,34176
4611,34176
4612,34176
4613,34176
4614,34240
4615,34304
4616,34304
4617,34240
4618,34240
4619,34240
4620,34240
4621,34304
4622,34304
4623,34368
4624,34432
4625,34368
4626,34304
4627,34304
4628,34368
4629,34304
4630,34240
4631,34240
4632,34368
4633,34432
4634,34432
4635,34432
4636,34368
4637,34304
4638,34176
4639,34176
4640,34304
4641,34432
4642,34560
4643,34688
4644,34816
4645,34816
4646,34880
4647,34816
4648,34816
4649,34816
4650,34880
4651,34816
4652,34880
4653,34816
4654,34688
4655,34496
4656,34432
4657,34368
4658,34176
4659,33984
4660,33792
4661,33664
4662,33600
4663,33600
4664,33664
4665,33792
4666,33856
4667,33856
4668,33920
4669,33984
4670,34112
4671,34048
4672,34048
4673,34112
4674,34176
4675,34112
4676,34112
4677,34368
4678,35008
4679,35904
4680,37376
4681,39488
4682,42112
4683,44416
4684,45504
4685,44992
4686,42944
4687,39552
4688,35648
4689,31936
4690,29952
4691,28672
4692,28224
4693,28480
4694,29248
4695,30144
4696,31040
4697,31808
4698,32576
4699,33216
4700,33664
4701,34048
4702,34304
4703,34432
4704,34496
4705,34368
4706,34368
4707,34368
4708,34304
4709,34176
4710,34112
4711,34048
4712,34048
4713,34048
4714,33984
4715,33984
4716,33984
4717,33984
4718,33984
4719,34112
4720,34176
4721,34240
4722,34304
4723,34368
4724,34432
4725,34432
4726,34432
4727,34368
4728,34368
4729,34304
4730,34304
4731,34368
4732,34496
4733,34496
4734,34496
4735,34496
4736,34560
4737,34560
4738,34496
4739,34496
4740,34560
4741,34560
4742,34560
4743,34560
4744,34560
4745,34560
4746,34496
4747,34432
4748,34432
4749,34432
4750,34368
4751,34240
4752,34240
4753,34176
4754,34112
4755,33984
4756,33856
4757,33792
4758,33792
4759,33728
4760,33728
4761,33856
4762,33920
4763,33920
4764,33920
4765,33920
4766,33920
4767,33856
4768,33792
4769,33856
4770,33856
4771,33920
4772,33856
4773,33920
4774,33984
4775,33984
4776,33920
4777,33984
4778,34048
4779,34048
4780,33984
4781,33984
4782,34112
4783,34112
4784,34048
4785,34048
4786,34048
4787,34112
4788,34048
4789,34048
4790,34112
4791,34112
4792,33984
4793,33984
4794,34048
4795,34112
4796,34048
4797,34048
4798,34112
4799,34112
4800,34112
4801,33984
4802,33920
4803,33920
4804,33856
4805,33792
4806,33856
4807,33920
4808,33920
4809,33792
4810,33728
4811,33792
4812,33792
4813,33728
4814,33792
4815,33920
4816,34048
4817,34048
4818,34176
4819,34368
4820,34432
4821,34432
4822,34368
4823,34368
4824,34368
4825,34240
4826,34048
4827,33856
4828,33792
4829,33728
4830,33664
4831,33664
4832,33728
4833,33792
4834,33792
4835,33856
4836,33984
4837,34048
4838,34112
4839,34112
4840,34240
4841,34304
4842,34304
4843,34368
4844,34432
4845,34432
4846,34368
4847,34304
4848,34368
4849,34368
4850,34304
4851,34240
4852,34240
4853,34304
4854,34304
4855,34368
4856,34624
4857,34816
4858,34944
4859,34944
4860,35072
4861,35136
4862,35136
4863,35072
4864,35008
4865,35072
4866,35072
4867,35008
4868,34880
4869,34688
4870,34432
4871,34176
4872,33984
4873,33856
4874,33728
4875,33536
4876,33472
4877,33472
4878,33472
4879,33536
4880,33600
4881,33728
4882,33856
4883,33984
4884,34112
4885,34240
4886,34240
4887,34304
4888,34304
4889,34240
4890,34240
4891,34304
4892,34560
4893,35136
4894,36224
4895,37952
4896,40192
4897,42688
4898,44608
4899,45312
4900,44288
4901,41600
4902,38080
4903,34496
4904,31424
4905,29440
4906,28416
4907,28224
4908,28672
4909,29376
4910,30144
4911,30976
4912,31808
4913,32512
4914,33152
4915,33664
4916,34048
4917,34304
4918,34432
4919,34560
4920,34624
4921,34624
4922,34624
4923,34496
4924,34304
4925,34112
4926,33856
4927,33856
4928,33856
4929,33792
4930,33728
4931,33728
4932,33728
4933,33856
4934,33920
4935,33984
4936,34112
4937,34176
4938,34240
4939,34368
4940,34368
4941,34304
4942,34176
4943,34112
4944,34048
4945,34048
4946,34048
4947,33984
4948,34048
4949,34112
4950,34112
4951,34112
4952,34176
4953,34240
4954,34176
4955,34112
4956,34048
4957,34048
4958,33984
4959,33984
4960,33984
4961,34112
4962,34176
4963,34112
4964,34112
4965,34112
4966,34112
4967,34048
4968,33984
4969,33920
4970,33792
4971,33728
4972,33664
4973,33728
4974,33728
4975,33728
4976,33664
4977,33728
4978,33792
4979,33792
4980,33728
4981,33664
4982,33728
4983,33728
4984,33600
4985,33536
4986,33600
4987,33600
4988,33600
4989,33536
4990,33664
4991,33728
4992,33728
4993,33664
4994,33792
4995,33920
4996,33984
4997,33984
4998,34048
4999,34112
5000,34176
5001,34112
5002,34176
5003,34240
5004,34240
5005,34176
5006,34240
5007,34240
5008,34240
5009,34176
5010,34176
5011,34176
5012,34176
5013,34112
5014,34112
5015,34176
5016,34176
5017,34176
5018,34112
5019,34048
5020,34112
5021,34048
5022,33984
5023,34048
5024,34112
5025,34048
5026,33920
5027,33984
5028,33984
5029,33984
5030,33920
5031,33920
5032,33984
5033,34048
5034,33984
5035,33984
5036,34112
5037,34112
5038,34112
5039,34176
5040,34176
5041,34112
5042,33920
5043,33856
5044,33920
5045,33984
5046,34048
5047,34240
5048,34432
5049,34624
5050,34752
5051,34816
5052,34944
5053,35008
5054,35008
5055,35008
5056,35072
5057,35136
5058,35136
5059,35072
5060,34880
5061,34688
5062,34560
5063,34304
5064,34112
5065,33920
5066,33728
5067,33536
5068,33408
5069,33408
5070,33536
5071,33600
5072,33664
5073,33728
5074,33792
5075,33856
5076,33856
5077,33856
5078,33792
5079,33856
5080,33856
5081,33792
5082,33728
5083,33728
5084,33920
5085,34432
5086,35456
5087,36992
5088,39104
5089,41600
5090,43904
5091,45056
5092,44608
5093,42496
5094,39040
5095,35520
5096,32192
5097,29888
5098,28608
5099,28288
5100,28480
5101,28992
5102,29824
5103,30656
5104,31424
5105,32064
5106,32640
5107,33216
5108,33664
5109,33920
5110,34176
5111,34304
5112,34304
5113,34176
5114,34112
5115,34048
5116,33920
5117,33792
5118,33728
5119,33728
5120,33728
5121,33728
5122,33728
5123,33728
5124,33728
5125,33728
5126,33792
5127,33920
5128,34048
5129,34112
5130,34112
5131,34176
5132,34304
5133,34304
5134,34240
5135,34176
5136,34240
5137,34240
5138,34176
5139,34112
5140,34176
5141,34304
5142,34432
5143,34496
5144,34496
5145,34496
5146,34368
5147,34368
5148,34304
5149,34304
5150,34240
5151,34240
5152,34304
5153,34432
5154,34432
5155,34368
5156,34368
5157,34368
5158,34304
5159,34112
5160,33984
5161,33920
5162,33856
5163,33728
5164,33600
5165,33664
5166,33664
5167,33600
5168,33600
5169,33728
5170,33920
5171,33920
5172,33792
5173,33792
5174,33792
5175,33792
5176,33792
5177,33792
5178,33856
5179,33856
5180,33856
5181,33920
5182,33984
5183,33984
5184,33920
5185,33920
5186,33984
5187,34048
5188,33984
5189,33984
5190,34048
5191,34112
5192,34112
5193,34048
5194,34048
5195,34048
5196,33984
5197,33984
5198,34048
5199,34112
5200,34112
5201,34048
5202,34112
5203,34176
5204,34112
5205,33984
5206,33984
5207,33984
5208,33984
5209,33920
5210,33920
5211,33984
5212,34112
5213,34048
5214,33984
5215,34048
5216,34048
5217,33984
5218,33856
5219,33856
5220,33856
5221,33856
5222,33856
5223,33856
5224,33984
5225,33984
5226,33984
5227,33984
5228,33984
5229,34048
5230,34112
5231,34112
5232,34112
5233,34048
5234,34048
5235,34048
5236,34176
5237,34176
5238,34112
5239,34112
5240,34304
5241,34560
5242,34560
5243,34496
5244,34496
5245,34560
5246,34560
5247,34560
5248,34688
5249,34752
5250,34816
5251,34688
5252,34560
5253,34432
5254,34304
5255,34112
5256,33920
5257,33728
5258,33600
5259,33344
5260,33152
5261,33152
5262,33216
5263,33280
5264,33344
5265,33472
5266,33600
5267,33664
5268,33728
5269,33856
5270,33920
5271,33856
5272,33792
5273,33856
5274,33856
5275,33792
5276,33856
5277,34240
5278,34944
5279,35968
5280,37504
5281,39680
5282,42240
5283,44288
5284,45056
5285,44032
5286,41664
5287,38144
5288,34496
5289,31552
5290,29696
5291,28672
5292,28416
5293,28672
5294,29440
5295,30336
5296,31168
5297,31936
5298,32640
5299,33280
5300,33728
5301,34048
5302,34240
5303,34368
5304,34432
5305,34432
5306,34368
5307,34368
5308,34240
5309,34048
5310,33920
5311,33920
5312,33920
5313,33920
5314,33856
5315,33920
5316,33920
5317,33920
5318,33920
5319,33856
5320,33856
5321,33920
5322,33920
5323,34048
5324,34176
5325,34176
5326,34176
5327,34240
5328,34304
5329,34304
5330,34240
5331,34240
5332,34240
5333,34240
5334,34112
5335,34048
5336,34048
5337,34112
5338,34176
5339,34240
5340,34304
5341,34368
5342,34304
5343,34304
5344,34368
5345,34432
5346,34432
5347,34368
5348,34368
5349,34432
5350,34304
5351,34240
5352,34176
5353,34176
5354,34048
5355,33920
5356,33856
5357,33856
5358,33856
5359,33856
5360,33856
5361,33920
5362,33856
5363,33792
5364,33856
5365,33920
5366,34048
5367,34048
5368,34048
5369,34048
5370,34112
5371,34048
5372,34048
5373,33984
5374,33984
5375,33920
5376,33856
5377,33792
5378,33792
5379,33728
5380,33664
5381,33664
5382,33728
5383,33728
5384,33664
5385,33664
5386,33728
5387,33792
5388,33792
5389,33792
5390,33856
5391,33920
5392,33984
5393,34048
5394,34112
5395,34112
5396,34112
5397,34048
5398,33984
5399,34048
5400,34048
5401,34048
5402,34112
5403,34176
5404,34112
5405,33984
5406,33920
5407,33984
5408,33920
5409,33920
5410,34048
5411,34112
5412,33984
5413,33792
5414,33728
5415,33792
5416,33856
5417,33856
5418,33856
5419,33856
5420,33856
5421,33728
5422,33664
5423,33664
5424,33728
5425,33664
5426,33664
5427,33664
5428,33792
5429,33920
5430,34048
5431,34304
5432,34560
5433,34688
5434,34624
5435,34688
5436,34688
5437,34688
5438,34688
5439,34752
5440,34816
5441,34688
5442,34496
5443,34304
5444,34176
5445,34048
5446,33920
5447,33728
5448,33600
5449,33472
5450,33408
5451,33280
5452,33216
5453,33280
5454,33280
5455,33344
5456,33472
5457,33600
5458,33664
5459,33728
5460,33728
5461,33728
5462,33792
5463,33792
5464,33728
5465,33600
5466,33408
5467,33472
5468,33792
5469,34496
5470,35520
5471,37248
5472,39552
5473,42240
5474,43968
5475,44352
5476,43328
5477,40896
5478,37632
5479,34304
5480,31232
5481,29696
5482,28736
5483,28480
5484,28736
5485,29440
5486,30336
5487,31232
5488,31936
5489,32640
5490,33216
5491,33664
5492,33984
5493,34112
5494,34240
5495,34304
5496,34304
5497,34304
5498,34240
5499,34176
5500,34048
5501,33920
5502,33920
5503,33920
5504,33984
5505,33920
5506,33856
5507,33792
5508,33792
5509,33792
5510,33792
5511,33856
5512,33984
5513,33984
5514,33984
5515,34112
5516,34112
5517,34112
5518,34048
5519,34048
5520,34048
5521,33920
5522,33856
5523,33856
5524,33856
5525,33920
5526,33984
5527,34112
5528,34240
5529,34240
5530,34176
5531,34176
5532,34240
5533,34304
5534,34304
5535,34240
5536,34176
5537,34176
5538,34240
5539,34176
5540,34176
5541,34240
5542,34240
5543,34240
5544,34304
5545,34240
5546,34176
5547,33984
5548,33920
5549,33920
5550,33856
5551,33792
5552,33792
5553,33920
5554,33984
5555,33984
5556,33984
5557,34048
5558,33984
5559,33984
5560,33984
5561,33984
5562,33984
5563,33984
5564,33984
5565,34048
5566,34176
5567,34176
5568,34112
5569,34112
5570,34304
5571,34304
5572,34240
5573,34176
5574,34176
5575,34240
5576,34176
5577,34176
5578,34240
5579,34304
5580,34240
5581,34240
5582,34304
5583,34368
5584,34368
5585,34304
5586,34368
5587,34432
5588,34432
5589,34304
5590,34176
5591,34112
5592,33984
5593,33920
5594,33856
5595,33856
5596,33792
5597,33856
5598,33984
5599,34048
5600,34048
5601,33984
5602,33920
5603,33984
5604,33984
5605,33984
5606,33984
5607,34048
5608,34048
5609,34048
5610,34048
5611,34112
5612,34112
5613,34112
5614,34112
5615,34112
5616,34112
5617,34112
5618,34112
5619,34240
5620,34304
5621,34368
5622,34496
5623,34624
5624,34624
5625,34496
5626,34368
5627,34368
5628,34432
5629,34496
5630,34624
5631,34624
5632,34624
5633,34624
5634,34432
5635,34240
5636,34048
5637,33920
5638,33728
5639,33600
5640,33472
5641,33344
5642,33280
5643,33280
5644,33344
5645,33536
5646,33600
5647,33728
5648,33792
5649,33856
5650,33856
5651,33920
5652,33920
5653,33856
5654,33792
5655,33664
5656,33664
5657,33856
5658,34112
5659,34560
5660,35392
5661,36992
5662,39296
5663,41984
5664,43968
5665,44736
5666,44032
5667,41664
5668,38336
5669,34880
5670,31936
5671,29952
5672,28736
5673,28352
5674,28608
5675,29376
5676,29952
5677,30784
5678,31680
5679,32448
5680,33088
5681,33600
5682,33984
5683,34176
5684,34240
5685,34304
5686,34368
5687,34368
5688,34304
5689,34240
5690,34112
5691,33984
5692,33920
5693,33792
5694,33856
5695,33920
5696,33856
5697,33792
5698,33792
5699,33856
5700,33920
5701,33920
5702,33920
5703,33984
5704,33984
5705,33920
5706,33920
5707,33984
5708,33920
5709,33920
5710,33984
5711,34048
5712,34048
5713,34112
5714,34176
5715,34240
5716,34368
5717,34368
5718,34240
5719,33984
5720,33792
5721,33728
5722,33664
5723,33792
5724,33984
5725,34176
5726,34368
5727,34496
5728,34624
5729,34688
5730,34624
5731,34496
5732,34496
5733,34368
5734,34240
5735,34112
5736,34048
5737,33984
5738,33920
5739,33792
5740,33728
5741,33792
5742,33856
5743,33856
5744,33920
5745,33984
5746,33984
5747,33920
5748,33920
5749,33984
5750,33984
5751,33920
5752,33984
5753,34048
5754,34112
5755,34048
5756,34048
5757,34112
5758,34176
5759,34176
5760,34176
5761,34304
5762,34304
5763,34240
5764,34176
5765,34112
5766,34112
5767,34176
5768,34176
5769,34240
5770,34240
5771,34240
5772,34240
5773,34240
5774,34304
5775,34304
5776,34240
5777,34304
5778,34304
5779,34368
5780,34304
5781,34304
5782,34304
5783,34240
5784,34112
5785,34048
5786,34048
5787,34048
5788,33984
5789,33920
5790,33920
5791,33920
5792,33984
5793,33984
5794,34048
5795,34112
5796,33984
5797,33920
5798,33984
5799,34112
5800,34176
5801,34176
5802,34176
5803,34304
5804,34240
5805,34240
5806,34304
5807,34432
5808,34624
5809,34752
5810,34752
5811,34752
5812,34816
5813,34816
5814,34816
5815,34816
5816,34752
5817,34816
5818,34816
5819,34880
5820,34880
5821,34816
5822,34688
5823,34624
5824,34496
5825,34304
5826,34112
5827,33984
5828,33856
5829,33728
5830,33664
5831,33664
5832,33728
5833,33728
5834,33792
5835,33792
5836,33856
5837,33984
5838,34048
5839,34048
5840,34048
5841,34048
5842,34048
5843,34048
5844,34048
5845,34048
5846,34240
5847,34688
5848,35456
5849,36736
5850,38528
5851,40896
5852,43392
5853,44928
5854,45184
5855,42816
5856,40576
5857,37056
5858,33600
5859,30784
5860,29056
5861,28224
5862,28224
5863,28736
5864,29568
5865,30464
5866,31424
5867,32192
5868,32832
5869,33472
5870,33920
5871,34304
5872,34496
5873,34560
5874,34624
5875,34496
5876,34432
5877,34368
5878,34304
5879,34176
5880,34048
5881,33984
5882,33920
5883,33920
5884,33856
5885,33856
5886,33920
5887,33984
5888,34048
5889,34048
5890,34112
5891,34112
5892,34112
5893,34048
5894,34176
5895,34240
5896,34240
5897,34240
5898,34240
5899,34304
5900,34368
5901,34368
5902,34432
5903,34496
5904,34496
5905,34496
5906,34496
5907,34496
5908,34496
5909,34496
5910,34496
5911,34496
5912,34560
5913,34560
5914,34560
5915,34560
5916,34624
5917,34560
5918,34560
5919,34496
5920,34496
5921,34368
5922,34240
5923,34176
5924,34176
5925,34112
5926,33984
5927,33920
5928,33920
5929,33920
5930,33856
5931,33856
5932,33984
5933,34048
5934,34048
5935,34112
5936,34176
5937,34176
5938,34112
5939,34112
5940,34112
5941,34176
5942,34176
5943,34240
5944,34304
5945,34368
5946,34304
5947,34240
5948,34240
5949,34304
5950,34368
5951,34304
5952,34240
5953,34176
5954,34176
5955,34176
5956,34240
5957,34368
5958,34368
5959,34368
5960,34432
5961,34432
5962,34496
5963,34496
5964,34496
5965,34432
5966,34496
5967,34432
5968,34304
5969,34240
5970,34176
5971,34112
5972,34048
5973,33920
5974,33920
5975,33984
5976,34048
5977,34112
5978,34176
5979,34176
5980,34112
5981,34048
5982,34112
5983,34176
5984,34176
5985,34176
5986,34176
5987,34176
5988,34112
5989,34112
5990,34112
5991,34240
5992,34240
5993,34240
5994,34176
5995,34112
5996,34048
5997,33984
5998,33984
5999,34048
6000,34048
6001,34112
6002,34112
6003,34176
6004,34240
6005,34176
6006,34176
6007,34176
6008,34176
6009,34112
6010,34112
6011,34176
6012,34240
6013,34240
6014,34304
6015,34496
6016,34688
6017,34816
6018,34880
6019,34880
6020,34880
6021,34816
6022,34688
6023,34624
6024,34688
6025,34816
6026,34816
6027,34752
6028,34624
6029,34496
6030,34240
6031,34048
6032,33920
6033,33856
6034,33728
6035,33600
6036,33600
6037,33664
6038,33664
6039,33664
6040,33728
6041,33856
6042,33920
6043,33984
6044,34048
6045,34176
6046,34176
6047,34112
6048,34112
6049,34176
6050,34176
6051,34240
6052,34560
6053,35200
6054,36224
6055,37824
6056,40000
6057,42624
6058,44672
6059,45504
6060,44608
6061,42048
6062,38528
6063,34752
6064,31616
6065,29056
6066,28544
6067,28352
6068,28608
6069,29376
6070,30272
6071,31104
6072,31872
6073,32576
6074,33152
6075,33600
6076,33856
6077,34048
6078,34240
6079,34368
6080,34368
6081,34368
6082,34368
6083,34240
6084,34048
6085,33920
6086,33920
6087,33920
6088,33856
6089,33920
6090,33984
6091,33984
6092,34048
6093,33984
6094,34048
6095,34176
6096,34176
6097,34176
6098,34240
6099,34368
6100,34368
6101,34304
6102,34304
6103,34304
6104,34304
6105,34304
6106,34304
6107,34304
6108,34304
6109,34240
6110,34368
6111,34432
6112,34560
6113,34560
6114,34432
6115,34368
6116,34368
6117,34368
6118,34432
6119,34432
6120,34496
6121,34496
6122,34496
6123,34496
6124,34496
6125,34432
6126,34304
6127,34176
6128,34048
6129,33984
6130,33920
6131,33856
6132,33856
6133,33856
6134,33792
6135,33856
6136,33920
6137,33984
6138,33984
6139,33984
6140,33984
6141,33920
6142,33856
6143,33856
6144,33792
6145,33856
6146,33856
6147,33856
6148,33856
6149,33920
6150,34048
6151,34048
6152,34048
6153,34112
6154,34112
6155,34112
6156,34112
6157,34240
6158,34304
6159,34304
6160,34176
6161,34112
6162,34112
6163,34112
6164,34048
6165,34048
6166,34112
6167,34112
6168,34112
6169,34112
6170,34112
6171,34112
6172,34112
6173,34112
6174,34176
6175,34176
6176,34112
6177,34112
6178,34112
6179,34112
6180,34112
6181,34112
6182,34112
6183,34112
6184,34176
6185,34112
6186,34112
6187,34048
6188,33984
6189,33984
6190,33984
6191,33984
6192,34048
6193,34048
6194,34112
6195,34112
6196,34112
6197,34048
6198,34112
6199,34112
6200,34048
6201,34048
6202,34176
6203,34176
6204,34112
6205,34112
6206,34112
6207,34176
6208,34176
6209,34176
6210,34240
6211,34240
6212,34176
6213,34176
6214,34240
6215,34240
6216,34240
6217,34112
6218,34048
6219,34048
6220,33984
6221,34048
6222,34048
6223,34048
6224,34112
6225,34112
6226,34112
6227,34176
6228,34176
6229,34240
6230,34176
6231,34240
6232,34176
6233,34112
6234,34048
6235,34112
6236,34176
6237,34176
6238,34176
6239,34240
6240,34240
6241,34176
6242,34112
6243,34176
6244,34240
6245,34304
6246,34240
6247,34176
6248,34176
6249,34304
6250,34496
6251,34624
6252,34752
6253,34816
6254,34816
6255,34816
6256,34816
6257,34816
6258,34752
6259,34752
6260,34816
6261,34752
6262,34560
6263,34368
6264,34240
6265,34240
6266,34176
6267,34048
6268,33920
6269,33856
6270,33856
6271,33792
6272,33792
6273,33856
6274,33856
6275,33856
6276,33920
6277,33984
6278,34112
6279,34048
6280,33984
6281,34112
6282,34112
6283,34048
6284,33984
6285,34368
6286,35072
6287,36160
6288,37824
6289,40128
6290,42816
6291,44672
6292,45248
6293,44096
6294,41344
6295,37952
6296,34176
6297,31168
6298,29312
6299,28352
6300,28160
6301,28544
6302,29248
6303,30144
6304,30976
6305,31808
6306,32512
6307,33152
6308,33664
6309,33920
6310,34176
6311,34368
6312,34432
6313,34368
6314,34240
6315,34176
6316,34048
6317,33856
6318,33792
6319,33792
6320,33728
6321,33664
6322,33728
6323,33792
6324,33856
6325,33792
6326,33920
6327,33984
6328,34048
6329,34112
6330,34112
6331,34176
6332,34112
6333,34112
6334,34112
6335,34112
6336,34048
6337,33984
6338,33984
6339,34048
6340,34176
6341,34240
6342,34240
6343,34304
6344,34368
6345,34368
6346,34304
6347,34240
6348,34304
6349,34304
6350,34240
6351,34176
6352,34240
6353,34240
6354,34240
6355,34176
6356,34304
6357,34304
6358,34240
6359,34176
6360,34112
6361,34048
6362,33920
6363,33792
6364,33664
6365,33600
6366,33600
6367,33536
6368,33600
6369,33664
6370,33728
6371,33664
6372,33728
6373,33792
6374,33792
6375,33728
6376,33728
6377,33728
6378,33792
6379,33856
6380,33920
6381,33920
6382,33920
6383,33920
6384,33920
6385,33920
6386,33984
6387,33984
6388,34048
6389,34048
6390,34048
6391,33984
6392,33920
6393,33856
6394,33792
6395,33792
6396,33728
6397,33664
6398,33664
6399,33728
6400,33664
6401,33856
6402,33984
6403,34048
6404,34048
6405,34048
6406,33984
6407,33920
6408,33856
6409,33792
6410,33856
6411,33856
6412,33856
6413,33856
6414,33984
6415,33920
6416,34240
6417,34304
6418,34368
6419,34432
6420,34496
6421,34432
6422,34368
6423,34304
6424,34240
6425,34240
6426,34240
6427,34240
6428,34176
6429,34112
6430,34112
6431,34240
6432,34176
6433,34112
6434,33984
6435,33984
6436,34048
6437,34048
6438,33984
6439,33984
6440,34048
6441,34112
6442,34048
6443,34048
6444,34048
6445,34048
6446,34112
6447,34176
6448,34240
6449,34240
6450,34240
6451,34240
6452,34304
6453,34304
6454,34240
6455,34176
6456,34112
6457,34048
6458,34048
6459,34048
6460,33984
6461,34048
6462,34048
6463,34048
6464,34048
6465,34112
6466,34112
6467,34048
6468,34048
6469,34112
6470,34048
6471,34048
6472,34048
6473,34112
6474,34112
6475,34048
6476,34176
6477,34176
6478,34176
6479,34112
6480,33984
6481,33984
6482,33920
6483,33856
6484,33792
6485,33856
6486,33920
6487,33920
6488,33984
6489,34112
6490,34368
6491,34432
6492,34496
6493,34496
6494,34496
6495,34496
6496,34496
6497,34560
6498,34624
6499,34688
6500,34752
6501,34688
6502,34624
6503,34496
6504,34496
6505,34496
6506,34432
6507,34304
6508,34112
6509,34048
6510,33984
6511,34112
6512,34112
6513,34176
6514,34240
6515,34368
6516,34432
6517,34432
6518,34432
6519,34368
6520,34368
6521,34240
6522,34176
6523,34240
6524,34560
6525,35200
6526,36288
6527,38080
6528,40384
6529,43008
6530,44672
6531,45056
6532,43648
6533,40704
6534,36992
6535,33344
6536,30592
6537,28864
6538,28096
6539,28032
6540,28544
6541,29312
6542,30144
6543,31040
6544,31936
6545,32576
6546,33152
6547,33536
6548,33856
6549,34048
6550,34176
6551,34304
6552,34368
6553,34368
6554,34304
6555,34176
6556,34048
6557,33984
6558,33856
6559,33728
6560,33600
6561,33536
6562,33536
6563,33536
6564,33600
6565,33600
6566,33536
6567,33536
6568,33600
6569,33728
6570,33856
6571,33920
6572,33984
6573,33984
6574,33920
6575,33856
6576,33856
6577,33920
6578,33984
6579,33984
6580,34048
6581,34176
6582,34304
6583,34240
6584,34112
6585,34112
6586,34176
6587,34240
6588,34240
6589,34304
6590,34432
6591,34496
6592,34688
6593,34880
6594,35072
6595,35264
6596,35264
6597,35264
6598,35136
6599,35008
6600,34816
6601,34688
6602,34496
6603,34368
6604,34112
6605,33920
6606,33792
6607,33664
6608,33472
6609,33280
6610,33216
6611,33280
6612,33280
6613,33280
6614,33280
6615,33344
6616,33408
6617,33408
6618,33536
6619,33664
6620,33856
6621,33920
6622,33984
6623,34048
6624,34176
6625,34240
6626,34176
6627,34112
6628,34112
6629,34112
6630,34112
6631,34112
6632,34240
6633,34304
6634,34240
6635,34176
6636,34176
6637,34176
6638,34176
6639,34176
6640,34240
6641,34240
6642,34240
6643,34304
6644,34432
6645,34496
6646,34432
6647,34368
6648,34432
6649,34560
6650,34624
6651,34624
6652,34688
6653,34752
6654,34752
6655,34752
6656,34752
6657,34624
6658,34368
6659,34240
6660,34176
6661,34112
6662,33920
6663,33728
6664,33600
6665,33664
6666,33728
6667,33728
6668,33728
6669,33728
6670,33856
6671,33920
6672,33984
6673,34112
6674,34176
6675,34240
6676,34304
6677,34368
6678,34432
6679,34496
6680,34496
6681,34560
6682,34560
6683,34560
6684,34496
6685,34432
6686,34496
6687,34432
6688,34432
6689,34432
6690,34432
6691,34496
6692,34496
6693,34560
6694,34624
6695,34688
6696,34688
6697,34752
6698,34880
6699,34944
6700,34944
6701,34944
6702,34944
6703,35008
6704,35008
6705,34944
6706,35008
6707,35072
6708,35008
6709,34880
6710,34752
6711,34688
6712,34688
6713,34624
6714,34560
6715,34624
6716,34560
6717,34496
6718,34496
6719,34496
6720,34368
6721,34240
6722,34176
6723,34112
6724,34048
6725,33984
6726,33856
6727,33856
6728,33792
6729,33792
6730,33728
6731,33856
6732,33920
6733,33920
6734,33856
6735,33984
6736,34048
6737,34048
6738,34048
6739,34112
6740,34176
6741,34240
6742,34176
6743,34048
6744,33856
6745,33728
6746,33536
6747,33408
6748,33408
6749,33280
6750,33088
6751,32960
6752,32896
6753,32960
6754,32960
6755,33024
6756,33024
6757,33088
6758,33216
6759,33216
6760,33280
6761,33344
6762,33344
6763,33280
6764,33216
6765,33216
6766,33344
6767,33600
6768,34240
6769,35456
6770,37184
6771,39488
6772,42112
6773,43968
6774,44608
6775,43520
6776,40832
6777,37248
6778,33600
6779,30720
6780,28864
6781,28032
6782,28032
6783,28480
6784,29248
6785,30208
6786,31104
6787,31936
6788,32640
6789,33152
6790,33600
6791,33984
6792,34176
6793,34304
6794,34496
6795,34624
6796,34560
6797,34432
6798,34368
6799,34240
6800,34176
6801,34112
6802,34048
6803,34112
6804,34112
6805,34112
6806,34176
6807,34304
6808,34368
6809,34368
6810,34432
6811,34496
6812,34496
6813,34496
6814,34496
6815,34496
6816,34496
6817,34432
6818,34368
6819,34304
6820,34304
6821,34304
6822,34304
6823,34432
6824,34496
6825,34496
6826,34432
6827,34496
6828,34560
6829,34560
6830,34560
6831,34624
6832,34624
6833,34560
6834,34560
6835,34560
6836,34688
6837,34624
6838,34560
6839,34560
6840,34560
6841,34560
6842,34496
6843,34432
6844,34432
6845,34304
6846,34112
6847,33984
6848,33984
6849,33984
6850,33984
6851,34048
6852,34048
6853,34112
6854,34112
6855,34112
6856,34112
6857,34176
6858,34176
6859,34240
6860,34304
6861,34368
6862,34304
6863,34304
6864,34304
6865,34304
6866,34304
6867,34240
6868,34304
6869,34304
6870,34240
6871,34112
6872,34048
6873,33984
6874,33920
6875,33792
6876,33728
6877,33728
6878,33728
6879,33600
6880,33600
6881,33664
6882,33792
6883,33792
6884,33664
6885,33664
6886,33728
6887,33792
6888,33856
6889,33920
6890,33984
6891,33984
6892,33920
6893,33856
6894,33856
6895,33920
6896,33856
6897,33792
6898,33728
6899,33728
6900,33728
6901,33728
6902,33856
6903,33984
6904,33984
6905,33920
6906,33920
6907,33920
6908,33920
6909,33984
6910,33984
6911,33984
6912,33984
6913,33984
6914,34048
6915,34176
6916,34304
6917,34304
6918,34368
6919,34368
6920,34432
6921,34368
6922,34368
6923,34432
6924,34496
6925,34432
6926,34368
6927,34368
6928,34432
6929,34432
6930,34304
6931,34240
6932,34112
6933,34048
6934,33920
6935,33856
6936,33856
6937,33792
6938,33792
6939,33728
6940,33792
6941,33792
6942,33792
6943,33792
6944,33856
6945,33920
6946,33920
6947,33856
6948,33856
6949,33856
6950,33792
6951,33728
6952,33728
6953,33792
6954,33792
6955,33728
6956,33728
6957,33728
6958,33792
6959,33856
6960,33984
6961,34048
6962,34048
6963,34176
6964,34368
6965,34560
6966,34624
6967,34624
6968,34688
6969,34752
6970,34816
6971,34752
6972,34752
6973,34816
6974,34752
6975,34560
6976,34368
6977,34176
6978,34112
6979,34048
6980,33984
6981,33920
6982,33856
6983,33728
6984,33600
6985,33536
6986,33600
6987,33664
6988,33728
6989,33856
6990,33984
6991,34048
6992,34048
6993,34048
6994,34112
6995,34112
6996,34048
6997,34048
6998,34176
6999,34560
7000,35200
7001,36416
7002,38400
7003,40832
7004,43264
7005,44608
7006,44736
7007,43328
7008,40512
7009,36928
7010,33344
7011,31040
7012,29440
7013,28608
7014,28544
7015,28992
7016,29696
7017,30528
7018,31360
7019,32128
7020,32832
7021,33344
7022,33792
7023,34112
7024,34368
7025,34496
7026,34560
7027,34560
7028,34496
7029,34368
7030,34240
7031,34112
7032,34048
7033,33920
7034,33856
7035,33856
7036,33856
7037,33792
7038,33728
7039,33792
7040,33984
7041,34112
7042,34176
7043,34176
7044,34304
7045,34432
7046,34368
7047,34368
7048,34368
7049,34368
7050,34304
7051,34240
7052,34176
7053,34240
7054,34112
7055,33984
7056,33920
7057,34048
7058,34112
7059,34176
7060,34304
7061,34432
7062,34432
7063,34496
7064,34496
7065,34560
7066,34560
7067,34560
7068,34560
7069,34560
7070,34496
7071,34368
7072,34304
7073,34368
7074,34304
7075,34240
7076,34176
7077,34112
7078,34048
7079,33984
7080,33920
7081,33920
7082,33984
7083,33984
7084,33920
7085,33792
7086,33856
7087,33984
7088,33984
7089,33920
7090,33920
7091,34048
7092,34112
7093,34240
7094,34304
7095,34432
7096,34432
7097,34432
7098,34432
7099,34432
7100,34432
7101,34368
7102,34368
7103,34368
7104,34368
7105,34432
7106,34432
7107,34432
7108,34432
7109,34368
7110,34304
7111,34304
7112,34304
7113,34304
7114,34240
7115,34240
7116,34176
7117,34112
7118,34112
7119,34240
7120,34304
7121,34240
7122,34240
7123,34240
7124,34176
7125,34048
7126,33920
7127,33792
7128,33792
7129,33792
7130,33920
7131,33920
7132,33920
7133,33856
7134,33792
7135,33728
7136,33792
7137,33792
7138,33792
7139,33856
7140,33920
7141,33984
7142,34048
7143,34048
7144,34112
7145,34176
7146,34176
7147,34176
7148,34240
7149,34304
7150,34304
7151,34240
7152,34304
7153,34368
7154,34368
7155,34304
7156,34304
7157,34368
7158,34368
7159,34368
7160,34368
7161,34432
7162,34368
7163,34304
7164,34368
7165,34304
7166,34240
7167,34176
7168,34048
7169,33984
7170,33920
7171,33792
7172,33728
7173,33792
7174,33984
7175,34240
7176,34368
7177,34496
7178,34688
7179,34752
7180,34816
7181,34880
7182,35072
7183,35136
7184,35200
7185,35200
7186,35200
7187,34944
7188,34624
7189,34368
7190,34240
7191,34112
7192,34048
7193,33920
7194,33664
7195,33280
7196,33088
7197,33024
7198,33152
7199,33344
7200,33472
7201,33664
7202,33856
7203,34112
7204,34432
7205,34560
7206,34688
7207,34816
7208,34816
7209,34688
7210,34560
7211,34688
7212,35008
7213,35648
7214,36928
7215,38848
7216,41280
7217,43264
7218,44032
7219,43584
7220,41536
7221,38464
7222,35200
7223,32512
7224,30784
7225,29824
7226,29376
7227,29440
7228,29888
7229,30528
7230,31360
7231,32128
7232,32576
7233,32960
7234,33280
7235,33536
7236,33856
7237,34176
7238,34432
7239,34624
7240,34816
7241,34880
7242,34688
7243,34432
7244,34304
7245,34240
7246,34368
7247,34560
7248,34496
7249,34176
7250,34048
7251,34048
7252,33984
7253,33856
7254,33920
7255,34048
7256,34176
7257,34048
7258,33856
7259,33600
7260,33536
7261,33536
7262,33792
7263,34240
7264,34688
7265,35008
7266,35008
7267,34816
7268,34496
7269,34112
7270,33920
7271,33856
7272,33856
7273,33856
7274,33984
7275,34048
7276,33984
7277,33920
7278,33984
7279,33984
7280,33984
7281,33920
7282,33792
7283,33728
7284,33664
7285,33536
7286,33344
7287,33024
7288,32896
7289,32640
7290,32448
7291,32384
7292,32448
7293,32512
7294,32384
7295,32384
7296,32384
7297,32384
7298,32512
7299,32704
7300,32896
7301,32960
7302,32896
7303,32768
7304,32512
7305,32256
7306,32064
7307,32128
7308,32384
7309,32640
7310,32896
7311,33024
7312,33088
7313,33088
7314,32960
7315,32832
7316,32768
7317,32640
7318,32512
7319,32640
7320,32768
7321,32768
7322,32704
7323,32704
7324,32896
7325,32960
7326,33024
7327,33024
7328,33024
7329,32896
7330,32576
7331,32192
7332,32064
7333,32192
7334,32576
7335,32960
7336,33408
7337,33792
7338,34112
7339,34304
7340,34432
7341,34496
7342,34496
7343,34496
7344,34624
7345,34752
7346,34816
7347,34816
7348,34944
7349,35072
7350,35008
7351,35008
7352,35008
7353,35072
7354,35136
7355,35072
7356,35136
7357,35136
7358,35136
7359,35136
7360,35072
7361,35008
7362,34944
7363,34880
7364,35008
7365,35264
7366,35456
7367,35584
7368,35776
7369,35968
7370,36096
7371,36224
7372,36416
7373,36608
7374,36800
7375,36992
7376,37120
7377,37248
7378,37376
7379,37312
7380,37184
7381,37056
7382,37056
7383,36992
7384,36992
7385,36992
7386,36928
7387,36800
7388,36608
7389,36480
7390,36416
7391,36160
7392,35904
7393,35712
7394,35776
7395,35776
7396,35648
7397,35520
7398,35392
7399,35072
7400,34816
7401,34688
7402,34944
7403,35584
7404,36992
7405,38784
7406,40832
7407,42176
7408,42368
7409,41344
7410,39040
7411,35968
7412,32960
7413,30400
7414,28608
7415,27456
7416,26944
7417,26944
7418,27264
7419,27904
7420,28416
7421,29056
7422,29760
7423,30592
7424,31424
7425,32320
7426,33216
7427,34112
7428,35072
7429,36032
7430,37056
7431,37760
7432,38272
7433,38656
7434,38720
7435,38464
7436,38016
7437,37376
7438,36672
7439,36160
7440,35584
7441,34944
7442,34368
7443,33984
7444,33664
7445,33408
7446,33152
7447,33024
7448,32960
7449,32832
7450,32832
7451,32768
7452,32960
7453,33216
7454,33280
7455,33280
7456,33408
7457,33472
7458,33408
7459,33344
7460,33408
7461,33472
7462,33472
7463,33600
7464,33664
7465,33792
7466,33984
7467,33984
7468,33984
7469,34048
7470,34176
7471,34176
7472,34112
7473,33984
7474,33856
7475,33728
7476,33600
7477,33472
7478,33472
7479,33408
7480,33344
7481,33344
7482,33344
7483,33216
7484,33216
7485,33408
7486,33664
7487,33728
7488,33792
7489,33856
7490,33920
7491,33984
7492,33984
7493,34048
7494,34048
7495,34048
7496,33984
7497,33920
7498,33856
7499,33792
7500,33664
7501,33600
7502,33600
7503,33664
7504,33664
7505,33664
7506,33792
7507,33856
7508,33920
7509,33920
7510,33792
7511,33856
7512,33920
7513,34048
7514,34240
7515,34304
7516,34368
7517,34240
7518,34112
7519,34112
7520,34176
7521,34176
7522,34176
7523,34176
7524,34176
7525,34112
7526,34048
7527,33920
7528,33856
7529,33856
7530,33856
7531,33920
7532,34048
7533,34048
7534,34048
7535,34048
7536,34112
7537,34112
7538,34176
7539,34176
7540,34176
7541,34240
7542,34240
7543,34368
7544,34496
7545,34560
7546,34560
7547,34560
7548,34496
7549,34496
7550,34496
7551,34496
7552,34624
7553,34752
7554,34752
7555,34688
7556,34560
7557,34496
7558,34432
7559,34304
7560,34176
7561,34112
7562,33920
7563,33792
7564,33728
7565,33664
7566,33664
7567,33664
7568,33664
7569,33856
7570,33984
7571,34048
7572,34048
7573,34112
7574,34176
7575,34240
7576,34240
7577,34240
7578,34240
7579,34304
7580,34624
7581,35072
7582,35840
7583,37248
7584,39360
7585,41664
7586,43840
7587,44992
7588,44608
7589,42688
7590,39616
7591,36160
7592,33024
7593,30784
7594,29440
7595,28864
7596,28928
7597,29440
7598,30272
7599,31104
7600,31872
7601,32576
7602,33152
7603,33600
7604,33984
7605,34240
7606,34432
7607,34688
7608,34752
7609,34688
7610,34560
7611,34496
7612,34432
7613,34304
7614,34176
7615,34176
7616,34176
7617,34176
7618,34176
7619,34176
7620,34176
7621,34176
7622,34112
7623,34112
7624,34112
7625,34112
7626,34048
7627,34112
7628,34176
7629,34240
7630,34240
7631,34304
7632,34304
7633,34368
7634,34368
7635,34496
7636,34688
7637,34816
7638,34816
7639,34752
7640,34624
7641,34560
7642,34432
7643,34304
7644,34240
7645,34240
7646,34240
7647,34240
7648,34368
7649,34432
7650,34432
7651,34304
7652,34304
7653,34304
7654,34240
7655,34176
7656,34112
7657,34048
7658,33984
7659,33920
7660,33920
7661,33920
7662,33984
7663,33856
7664,33728
7665,33664
7666,33664
7667,33664
7668,33728
7669,33920
7670,34176
7671,34240
7672,34368
7673,34432
7674,34496
7675,34368
7676,34176
7677,34048
7678,34048
7679,34048
7680,34112
7681,34240
7682,34432
7683,34432
7684,34432
7685,34496
7686,34496
7687,34496
7688,34432
7689,34368
7690,34432
7691,34432
7692,34368
7693,34304
7694,34176
7695,34112
7696,34112
7697,34112
7698,34176
7699,34176
7700,34112
7701,34048
7702,33984
7703,33984
7704,33920
7705,33856
7706,33920
7707,33984
7708,33984
7709,34048
7710,34048
7711,34176
7712,34176
7713,34112
7714,34048
7715,34048
7716,33920
7717,33728
7718,33536
7719,33536
7720,33536
7721,33472
7722,33472
7723,33536
7724,33600
7725,33664
7726,33728
7727,33856
7728,34048
7729,34176
7730,34304
7731,34432
7732,34496
7733,34432
7734,34240
7735,34176
7736,34112
7737,33984
7738,33920
7739,33984
7740,34112
7741,34240
7742,34240
7743,34240
7744,34240
7745,34112
7746,33920
7747,33728
7748,33600
7749,33472
7750,33344
7751,33280
7752,33216
7753,33280
7754,33344
7755,33344
7756,33408
7757,33536
7758,33600
7759,33728
7760,33856
7761,33920
7762,33920
7763,33856
7764,33792
7765,33792
7766,33856
7767,34048
7768,34496
7769,35200
7770,36352
7771,38016
7772,40320
7773,42880
7774,44736
7775,45248
7776,44288
7777,41600
7778,37952
7779,34240
7780,31040
7781,28992
7782,28096
7783,27968
7784,28416
7785,29376
7786,30400
7787,31296
7788,32064
7789,32768
7790,33600
7791,33920
7792,34240
7793,34368
7794,34432
7795,34496
7796,34496
7797,34432
7798,34304
7799,34240
7800,34048
7801,33920
7802,33856
7803,33728
7804,33664
7805,33536
7806,33472
7807,33536
7808,33664
7809,33792
7810,33920
7811,33984
7812,33984
7813,33984
7814,33984
7815,34048
7816,34048
7817,33920
7818,33728
7819,33664
7820,33664
7821,33664
7822,33664
7823,33792
7824,33984
7825,34176
7826,34304
7827,34432
7828,34624
7829,34752
7830,34816
7831,34816
7832,34944
7833,35008
7834,35072
7835,35136
7836,35136
7837,35136
7838,35136
7839,35072
7840,35072
7841,35008
7842,34880
7843,34752
7844,34688
7845,34688
7846,34624
7847,34560
7848,34560
7849,34560
7850,34496
7851,34432
7852,34496
7853,34560
7854,34560
7855,34688
7856,34816
7857,34944
7858,35072
7859,35072
7860,35136
7861,35200
7862,35264
7863,35200
7864,35264
7865,35264
7866,35200
7867,35072
7868,34944
7869,34944
7870,35008
7871,34944
7872,34816
7873,34816
7874,34880
7875,34880
7876,34880
7877,34944
7878,35072
7879,35072
7880,34944
7881,34880
7882,34944
7883,34880
7884,34816
7885,34816
7886,34752
7887,34688
7888,34624
7889,34560
7890,34496
7891,34432
7892,34240
7893,34112
7894,34176
7895,34176
7896,34112
7897,34048
7898,34048
7899,34048
7900,34112
7901,34112
7902,34112
7903,34240
7904,34304
7905,34240
7906,34240
7907,34176
7908,34176
7909,34112
7910,34112
7911,34112
7912,34112
7913,34048
7914,34048
7915,34112
7916,34112
7917,34048
7918,34048
7919,34112
7920,34176
7921,34240
7922,34176
7923,34176
7924,34240
7925,34240
7926,34176
7927,34176
7928,34240
7929,34176
7930,34176
7931,34176
7932,34240
7933,34240
7934,34176
7935,34112
7936,34176
7937,34368
7938,34560
7939,34752
7940,35008
7941,35008
7942,35072
7943,35072
7944,35072
7945,35072
7946,35008
7947,35008
7948,35072
7949,35200
7950,35264
7951,35136
7952,34944
7953,34816
7954,34688
7955,34368
7956,34304
7957,34176
7958,34112
7959,33920
7960,33728
7961,33664
7962,33664
7963,33792
7964,33856
7965,33920
7966,34048
7967,34176
7968,34240
7969,34304
7970,34368
7971,34304
7972,34176
7973,34176
7974,34240
7975,34496
7976,34880
7977,35584
7978,36736
7979,38528
7980,40832
7981,43456
7982,45376
7983,46080
7984,44800
7985,40576
7986,38144
7987,34560
7988,31552
7989,29632
7990,28800
7991,28736
7992,29120
7993,29824
7994,30656
7995,31488
7996,32192
7997,32960
7998,33536
7999,33984
8000,34368
8001,34432
8002,34816
8003,34880
8004,34816
8005,34752
8006,34560
8007,34560
8008,34432
8009,34368
8010,34432
8011,34432
8012,34368
8013,34240
8014,34240
8015,34176
8016,34176
8017,34112
8018,34176
8019,34112
8020,34240
8021,34240
8022,34240
8023,34240
8024,34240
8025,34048
8026,33984
8027,33920
8028,33792
8029,33600
8030,33536
8031,33472
8032,33472
8033,33408
8034,33344
8035,33408
8036,33792
8037,33920
8038,33984
8039,34176
8040,34176
8041,34048
8042,33792
8043,33664
8044,33408
8045,33344
8046,33216
8047,33280
8048,33408
8049,33536
8050,33472
8051,33856
8052,33984
8053,34048
8054,34048
8055,34048
8056,34112
8057,34240
8058,34176
8059,34176
8060,34112
8061,34112
8062,34048
8063,33984
8064,33920
8065,33920
8066,33792
8067,33792
8068,33728
8069,33856
8070,33920
8071,33920
8072,33920
8073,33984
8074,33984
8075,33920
8076,33728
8077,33728
8078,33728
8079,33664
8080,33600
8081,33664
8082,33664
8083,33728
8084,33728
8085,33856
8086,33792
8087,33728
8088,33664
8089,33664
8090,33664
8091,33664
8092,33536
8093,33408
8094,33408
8095,33472
8096,33472
8097,33536
8098,33728
8099,33920
8100,33984
8101,34048
8102,34176
8103,34240
8104,34304
8105,34240
8106,34368
8107,34432
8108,34496
8109,34560
8110,34560
8111,34624
8112,34560
8113,34560
8114,34688
8115,34752
8116,34752
8117,34688
8118,34688
8119,34688
8120,34624
8121,34560
8122,34432
8123,34368
8124,34432
8125,34368
8126,34304
8127,34240
8128,34176
8129,34048
8130,34048
8131,34048
8132,34112
8133,34048
8134,33984
8135,33920
8136,34048
8137,34112
8138,34048
8139,34112
8140,34048
8141,34112
8142,34112
8143,34048
8144,34112
8145,34048
8146,34048
8147,34112
8148,34240
8149,34304
8150,34240
8151,34368
8152,34432
8153,34624
8154,34816
8155,34752
8156,35136
8157,35264
8158,35328
8159,35328
8160,35392
8161,35456
8162,35456
8163,35456
8164,35392
8165,35328
8166,35200
8167,34944
8168,34752
8169,34624
8170,34432
8171,34176
8172,33984
8173,33856
8174,33792
8175,33664
8176,33536
8177,33536
8178,33600
8179,33664
8180,33600
8181,33856
8182,33984
8183,33920
8184,33920
8185,33856
8186,33920
8187,33920
8188,34048
8189,34432
8190,35008
8191,36032
8192,37632
8193,39936
8194,43840
8195,44032
8196,45440
8197,44608
8198,42048
8199,38400
8200,34624
8201,31488
8202,29504
8203,28544
8204,28352
8205,28736
8206,29504
8207,30400
8208,31296
8209,32064
8210,32832
8211,33536
8212,33984
8213,34368
8214,34624
8215,34560
8216,34752
8217,34752
8218,34688
8219,34624
8220,34496
8221,34368
8222,34176
8223,34112
8224,33984
8225,33792
8226,33728
8227,33664
8228,33728
8229,33664
8230,33664
8231,33792
8232,33856
8233,33984
8234,34048
8235,34176
8236,34240
8237,34112
8238,34112
8239,34112
8240,34112
8241,34048
8242,33984
8243,33984
8244,33984
8245,34048
8246,33984
8247,34048
8248,34176
8249,34176
8250,34112
8251,34112
8252,34112
8253,34176
8254,34176
8255,34112
8256,34112
8257,34112
8258,34048
8259,34048
8260,34112
8261,34176
8262,34112
8263,34048
8264,33984
8265,33984
8266,33920
8267,33792
8268,33728
8269,33728
8270,33664
8271,33536
8272,33472
8273,33472
8274,33408
8275,33344
8276,33408
8277,33344
8278,33344
8279,33344
8280,33344
8281,33408
8282,33472
8283,33536
8284,33536
8285,33664
8286,33792
8287,33856
8288,33984
8289,34048
8290,34176
8291,34176
8292,34048
8293,34048
8294,33984
8295,33856
8296,33728
8297,33664
8298,33728
8299,33792
8300,33728
8301,33664
8302,33664
8303,33792
8304,33792
8305,33856
8306,33920
8307,33984
8308,33984
8309,33984
8310,34048
8311,34240
8312,34240
8313,34048
8314,33920
8315,33920
8316,33920
8317,33920
8318,33920
8319,34048
8320,34112
8321,34176
8322,34176
8323,34240
8324,34112
8325,34048
8326,33984
8327,33920
8328,33792
8329,33728
8330,33664
8331,33600
8332,33536
8333,33472
8334,33408
8335,33408
8336,33472
8337,33472
8338,33664
8339,33856
8340,34112
8341,34240
8342,34304
8343,34176
8344,34048
8345,33792
8346,33536
8347,33280
8348,33088
8349,32960
8350,32896
8351,32832
8352,32960
8353,33088
8354,33280
8355,33664
8356,34112
8357,34432
8358,34624
8359,34752
8360,34944
8361,35072
8362,35136
8363,35136
8364,35136
8365,35136
8366,35072
8367,34880
8368,34688
8369,34624
8370,34432
8371,34240
8372,34112
8373,33984
8374,33792
8375,33600
8376,33536
8377,33536
8378,33536
8379,33536
8380,33600
8381,33728
8382,33856
8383,33920
8384,34048
8385,34176
8386,34368
8387,34496
8388,34496
8389,34560
8390,34560
8391,34624
8392,34880
8393,35392
8394,36352
8395,37824
8396,39936
8397,42432
8398,44672
8399,45632
8400,44864
8401,42496
8402,38976
8403,35008
8404,31552
8405,28992
8406,27776
8407,27456
8408,27776
8409,28416
8410,29312
8411,30272
8412,31040
8413,31744
8414,32448
8415,33088
8416,33536
8417,33792
8418,34048
8419,34176
8420,34240
8421,34176
8422,34048
8423,34048
8424,33984
8425,33792
8426,33600
8427,33600
8428,33600
8429,33664
8430,33664
8431,33792
8432,33984
8433,34176
8434,34368
8435,34624
8436,34880
8437,35008
8438,35072
8439,35136
8440,35200
8441,35200
8442,35136
8443,35136
8444,35072
8445,35072
8446,35008
8447,34880
8448,34880
8449,34944
8450,34944
8451,34944
8452,34944
8453,34944
8454,34944
8455,34944
8456,34944
8457,34880
8458,34816
8459,34752
8460,34688
8461,34560
8462,34432
8463,34368
8464,34304
8465,34304
8466,34304
8467,34240
8468,34176
8469,34176
8470,34176
8471,34112
8472,33984
8473,33856
8474,33856
8475,33856
8476,33856
8477,33984
8478,34048
8479,33984
8480,33984
8481,34048
8482,34112
8483,34112
8484,34048
8485,34048
8486,34112
8487,34176
8488,34176
8489,34176
8490,34176
8491,34176
8492,34176
8493,34112
8494,34112
8495,34112
8496,34048
8497,33984
8498,33984
8499,34048
8500,34048
8501,34048
8502,34112
8503,34176
8504,34112
8505,34112
8506,34176
8507,34240
8508,34304
8509,34176
8510,34112
8511,34176
8512,34176
8513,34048
8514,34048
8515,34048
8516,34048
8517,34048
8518,34176
8519,34304
8520,34304
8521,34240
8522,34112
8523,34112
8524,34112
8525,34112
8526,34112
8527,34112
8528,34112
8529,34112
8530,33984
8531,33984
8532,33984
8533,33984
8534,33984
8535,34048
8536,34176
8537,34176
8538,34176
8539,34176
8540,34176
8541,34112
8542,33984
8543,33856
8544,33856
8545,33792
8546,33728
8547,33792
8548,33856
8549,33920
8550,33920
8551,33920
8552,33984
8553,34048
8554,34112
8555,34048
8556,34048
8557,34048
8558,34048
8559,34048
8560,33984
8561,34048
8562,33920
8563,33856
8564,33984
8565,34112
8566,34304
8567,34368
8568,34368
8569,34432
8570,34496
8571,34496
8572,34432
8573,34496
8574,34496
8575,34560
8576,34560
8577,34560
8578,34496
8579,34368
8580,34112
8581,33920
8582,33792
8583,33600
8584,33472
8585,33408
8586,33344
8587,33344
8588,33344
8589,33408
8590,33536
8591,33600
8592,33600
8593,33728
8594,33920
8595,33920
8596,33856
8597,33792
8598,33728
8599,33792
8600,33728
8601,33920
8602,34432
8603,35264
8604,36608
8605,38400
8606,40832
8607,43392
8608,44928
8609,44992
8610,43328
8611,40256
8612,36480
8613,32832
8614,30272
8615,28672
8616,28096
8617,28096
8618,28608
8619,29376
8620,30272
8621,31168
8622,31936
8623,32640
8624,33216
8625,33600
8626,33792
8627,34048
8628,34240
8629,34240
8630,34112
8631,34048
8632,33984
8633,33856
8634,33728
8635,33664
8636,33664
8637,33600
8638,33472
8639,33408
8640,33472
8641,33600
8642,33664
8643,33664
8644,33728
8645,33792
8646,33856
8647,33984
8648,34112
8649,34240
8650,34176
8651,34112
8652,33984
8653,33984
8654,33984
8655,33984
8656,33984
8657,34112
8658,34176
8659,34176
8660,34240
8661,34432
8662,34496
8663,34432
8664,34432
8665,34432
8666,34368
8667,34304
8668,34240
8669,34304
8670,34368
8671,34304
8672,34304
8673,34240
8674,34240
8675,34176
8676,34112
8677,34176
8678,34112
8679,33984
8680,33792
8681,33664
8682,33664
8683,33600
8684,33600
8685,33664
8686,33728
8687,33664
8688,33664
8689,33664
8690,33728
8691,33792
8692,33728
8693,33728
8694,33728
8695,33856
8696,33920
8697,33920
8698,33920
8699,33984
8700,33984
8701,33984
8702,34048
8703,34112
8704,34048
8705,33984
8706,33984
8707,34112
8708,34048
8709,33984
8710,33920
8711,33984
8712,34112
8713,34112
8714,34112
8715,34176
8716,34176
8717,34112
8718,34112
8719,34112
8720,34176
8721,34112
8722,34112
8723,34048
8724,34048
8725,33984
8726,33984
8727,33984
8728,34048
8729,34112
8730,34112
8731,34112
8732,34112
8733,33984
8734,33920
8735,33920
8736,33984
8737,34048
8738,34048
8739,33984
8740,34048
8741,34048
8742,33984
8743,33920
8744,33920
8745,33984
8746,33920
8747,33920
8748,34048
8749,34176
8750,34112
8751,34048
8752,34048
8753,34048
8754,34048
8755,34048
8756,34048
8757,34112
8758,34176
8759,34176
8760,34176
8761,34304
8762,34304
8763,34240
8764,34240
8765,34240
8766,34240
8767,34112
8768,34048
8769,34112
8770,34176
8771,34112
8772,34048
8773,34112
8774,34112
8775,34048
8776,34048
8777,34048
8778,34176
8779,34240
8780,34304
8781,34304
8782,34240
8783,34176
8784,34112
8785,34112
8786,34176
8787,34240
8788,34304
8789,34432
8790,34624
8791,34752
8792,34688
8793,34688
8794,34816
8795,34816
8796,34688
8797,34624
8798,34752
8799,34880
8800,34880
8801,34752
8802,34560
8803,34496
8804,34304
8805,34176
8806,34048
8807,33920
8808,33792
8809,33600
8810,33600
8811,33600
8812,33664
8813,33664
8814,33664
8815,33792
8816,33920
8817,33920
8818,33984
8819,34048
8820,34112
8821,34048
8822,33984
8823,33984
8824,34112
8825,34432
8826,35072
8827,36160
8828,37888
8829,40192
8830,42752
8831,44672
8832,45376
8833,44288
8834,41600
8835,38016
8836,34432
8837,31424
8838,29440
8839,28416
8840,28288
8841,28736
8842,29440
8843,30272
8844,31168
8845,31936
8846,32640
8847,33152
8848,33600
8849,33984
8850,34176
8851,34432
8852,34496
8853,34496
8854,34368
8855,34176
8856,34112
8857,34048
8858,33920
8859,33792
8860,33728
8861,33728
8862,33792
8863,33792
8864,33856
8865,33920
8866,33984
8867,34048
8868,34048
8869,34176
8870,34304
8871,34240
8872,34176
8873,34176
8874,34240
8875,34240
8876,34240
8877,34176
8878,34240
8879,34240
8880,34304
8881,34368
8882,34368
8883,34432
8884,34432
8885,34432
8886,34496
8887,34496
8888,34368
8889,34304
8890,34304
8891,34368
8892,34368
8893,34368
8894,34432
8895,34496
8896,34560
8897,34496
8898,34496
8899,34432
8900,34368
8901,34176
8902,34112
8903,34048
8904,33984
8905,33856
8906,33728
8907,33664
8908,33664
8909,33600
8910,33600
8911,33600
8912,33664
8913,33728
8914,33664
8915,33664
8916,33664
8917,33728
8918,33728
8919,33792
8920,33728
8921,33728
8922,33728
8923,33792
8924,33856
8925,33856
8926,33856
8927,33856
8928,33920
8929,33920
8930,33856
8931,33792
8932,33792
8933,33856
8934,33856
8935,33856
8936,33920
8937,33984
8938,34048
8939,33984
8940,34048
8941,34048
8942,34048
8943,34048
8944,34048
8945,34112
8946,34112
8947,34048
8948,34112
8949,34176
8950,34112
8951,33984
8952,33920
8953,33984
8954,33984
8955,33920
8956,33920
8957,33984
8958,34048
8959,33984
8960,33856
8961,33792
8962,33792
8963,33792
8964,33792
8965,33792
8966,33920
8967,33920
8968,33856
8969,33920
8970,33984
8971,34048
8972,33984
8973,33920
8974,33984
8975,33984
8976,33984
8977,33984
8978,34048
8979,34048
8980,34048
8981,34048
8982,34176
8983,34112
8984,34048
8985,33984
8986,33984
8987,34048
8988,34048
8989,34112
8990,34112
8991,34048
8992,33984
8993,33920
8994,33984
8995,34112
8996,34112
8997,34048
8998,34048
8999,34048
9000,34176
9001,34176
9002,34176
9003,34240
9004,34304
9005,34240
9006,34176
9007,34176
9008,34240
9009,34176
9010,34112
9011,34176
9012,34240
9013,34240
9014,34240
9015,34176
9016,34112
9017,34048
9018,34048
9019,34112
9020,34304
9021,34496
9022,34688
9023,34752
9024,34816
9025,34816
9026,34816
9027,34752
9028,34816
9029,34816
9030,34752
9031,34688
9032,34688
9033,34624
9034,34560
9035,34304
9036,34112
9037,34048
9038,33920
9039,33728
9040,33664
9041,33664
9042,33664
9043,33664
9044,33728
9045,33856
9046,33984
9047,33984
9048,34112
9049,34112
9050,34112
9051,34048
9052,34048
9053,34048
9054,33984
9055,34048
9056,34432
9057,35264
9058,36544
9059,38400
9060,40768
9061,43264
9062,44928
9063,45184
9064,43712
9065,40704
9066,37184
9067,33664
9068,30848
9069,29184
9070,28544
9071,28480
9072,28928
9073,29632
9074,30464
9075,31360
9076,32064
9077,32704
9078,33280
9079,33728
9080,34048
9081,34240
9082,34368
9083,34432
9084,34432
9085,34368
9086,34304
9087,34240
9088,34048
9089,33856
9090,33728
9091,33728
9092,33728
9093,33728
9094,33792
9095,33856
9096,33856
9097,33856
9098,33920
9099,34048
9100,34176
9101,34240
9102,34304
9103,34368
9104,34304
9105,34240
9106,34176
9107,34240
9108,34304
9109,34240
9110,34176
9111,34240
9112,34368
9113,34432
9114,34432
9115,34432
9116,34560
9117,34560
9118,34496
9119,34432
9120,34432
9121,34432
9122,34432
9123,34368
9124,34496
9125,34560
9126,34496
9127,34432
9128,34496
9129,34496
9130,34368
9131,34304
9132,34240
9133,34112
9134,33984
9135,33856
9136,33728
9137,33728
9138,33728
9139,33664
9140,33728
9141,33792
9142,33856
9143,33856
9144,33920
9145,33920
9146,33920
9147,33856
9148,33856
9149,33920
9150,33984
9151,33984
9152,33984
9153,33984
9154,34048
9155,34048
9156,34048
9157,34048
9158,34112
9159,34048
9160,33984
9161,34048
9162,34112
9163,34176
9164,34112
9165,34112
9166,34176
9167,34112
9168,34112
9169,34048
9170,34112
9171,34176
9172,34176
9173,34176
9174,34112
9175,34112
9176,34048
9177,33984
9178,33984
9179,33984
9180,34048
9181,34048
9182,34176
9183,34176
9184,34048
9185,34048
9186,34112
9187,34112
9188,34048
9189,33984
9190,33984
9191,33984
9192,33920
9193,33856
9194,33792
9195,33856
9196,33984
9197,33920
9198,33856
9199,33920
9200,33920
9201,33920
9202,33984
9203,34048
9204,34112
9205,34112
9206,34176
9207,34304
9208,34368
9209,34304
9210,34176
9211,34112
9212,34176
9213,34176
9214,34176
9215,34240
9216,34304
9217,34240
9218,34240
9219,34240
9220,34304
9221,34240
9222,34176
9223,34176
9224,34240
9225,34368
9226,34368
9227,34240
9228,34240
9229,34176
9230,34176
9231,34112
9232,34176
9233,34176
9234,34240
9235,34240
9236,34240
9237,34304
9238,34304
9239,34304
9240,34368
9241,34432
9242,34432
9243,34304
9244,34240
9245,34368
9246,34496
9247,34432
9248,34560
9249,34688
9250,34816
9251,34816
9252,34816
9253,34816
9254,34880
9255,34944
9256,34944
9257,35008
9258,35136
9259,35008
9260,34752
9261,34560
9262,34432
9263,34304
9264,34112
9265,33920
9266,33856
9267,33792
9268,33728
9269,33728
9270,33792
9271,33792
9272,33856
9273,33920
9274,34112
9275,34176
9276,34240
9277,34240
9278,34240
9279,34304
9280,34240
9281,34176
9282,34176
9283,34496
9284,35008
9285,35904
9286,37376
9287,39616
9288,42240
9289,44480
9290,45568
9291,45056
9292,42816
9293,39424
9294,35520
9295,32384
9296,30208
9297,28992
9298,28544
9299,28800
9300,29440
9301,30272
9302,31168
9303,32000
9304,32832
9305,33536
9306,33920
9307,34240
9308,34496
9309,34624
9310,34688
9311,34752
9312,34752
9313,34688
9314,34560
9315,34432
9316,34368
9317,34304
9318,34176
9319,34048
9320,34048
9321,34112
9322,34048
9323,34048
9324,34176
9325,34240
9326,34240
9327,34176
9328,34240
9329,34368
9330,34368
9331,34368
9332,34304
9333,34240
9334,34176
9335,34240
9336,34368
9337,34432
9338,34432
9339,34432
9340,34368
9341,34368
9342,34432
9343,34368
9344,34368
9345,34432
9346,34496
9347,34432
9348,34432
9349,34432
9350,34496
9351,34496
9352,34560
9353,34624
9354,34624
9355,34560
9356,34496
9357,34496
9358,34560
9359,34560
9360,34432
9361,34304
9362,34240
9363,34048
9364,33920
9365,33856
9366,33856
9367,33920
9368,33920
9369,33920
9370,33920
9371,33856
9372,33792
9373,33792
9374,33792
9375,33920
9376,33920
9377,33792
9378,33792
9379,33792
9380,33728
9381,33728
9382,33792
9383,33856
9384,33920
9385,33920
9386,33856
9387,33792
9388,33792
9389,33792
9390,33856
9391,33920
9392,33920
9393,33792
9394,33728
9395,33792
9396,33792
9397,33728
9398,33728
9399,33728
9400,33792
9401,33792
9402,33728
9403,33728
9404,33792
9405,33856
9406,33856
9407,33920
9408,33920
9409,33920
9410,33856
9411,33856
9412,33856
9413,33856
9414,33728
9415,33664
9416,33728
9417,33792
9418,33792
9419,33728
9420,33664
9421,33664
9422,33600
9423,33536
9424,33536
9425,33472
9426,33472
9427,33408
9428,33408
9429,33472
9430,33600
9431,33664
9432,33728
9433,33792
9434,33792
9435,33792
9436,33792
9437,33856
9438,33984
9439,33984
9440,33984
9441,33920
9442,33920
9443,33984
9444,33920
9445,33856
9446,33792
9447,33792
9448,33792
9449,33856
9450,33856
9451,33792
9452,33728
9453,33728
9454,33856
9455,33984
9456,33984
9457,34048
9458,34112
9459,34048
9460,34048
9461,34240
9462,34304
9463,34048
9464,33920
9465,33984
9466,34048
9467,34176
9468,34304
9469,34432
9470,34560
9471,34624
9472,34688
9473,34752
9474,34816
9475,34944
9476,34880
9477,34624
9478,34432
9479,34240
9480,34112
9481,33920
9482,33792
9483,33664
9484,33600
9485,33408
9486,33280
9487,33280
9488,33344
9489,33280
9490,33280
9491,33344
9492,33472
9493,33600
9494,33664
9495,33600
9496,33472
9497,33344
9498,33216
9499,33216
9500,33536
9501,34176
9502,35072
9503,36608
9504,38720
9505,41344
9506,43520
9507,44544
9508,44096
9509,41920
9510,38656
9511,34944
9512,31808
9513,29696
9514,28480
9515,28160
9516,28544
9517,29248
9518,30080
9519,30912
9520,31808
9521,32576
9522,33088
9523,33472
9524,33728
9525,33920
9526,34048
9527,34112
9528,34176
9529,34176
9530,34176
9531,34112
9532,33984
9533,33984
9534,33856
9535,33664
9536,33600
9537,33600
9538,33664
9539,33664
9540,33664
9541,33664
9542,33728
9543,33792
9544,33856
9545,33984
9546,34048
9547,33984
9548,33984
9549,33984
9550,33984
9551,33920
9552,33856
9553,33856
9554,33920
9555,33984
9556,33920
9557,33984
9558,34112
9559,34112
9560,34048
9561,34048
9562,34176
9563,34240
9564,34240
9565,34176
9566,34176
9567,34176
9568,34112
9569,34048
9570,34176
9571,34240
9572,34240
9573,34176
9574,34112
9575,34112
9576,34048
9577,33984
9578,33856
9579,33856
9580,33728
9581,33600
9582,33600
9583,33728
9584,33728
9585,33728
9586,33664
9587,33728
9588,33792
9589,33792
9590,33792
9591,33856
9592,33920
9593,33920
9594,33984
9595,34048
9596,34048
9597,33920
9598,33856
9599,33856
9600,33920
9601,33984
9602,33856
9603,33856
9604,33920
9605,33984
9606,33920
9607,33920
9608,34048
9609,34176
9610,34176
9611,34176
9612,34176
9613,34240
9614,34304
9615,34304
9616,34304
9617,34368
9618,34304
9619,34176
9620,34176
9621,34112
9622,34048
9623,34048
9624,34048
9625,33984
9626,33920
9627,33792
9628,33728
9629,33792
9630,33792
9631,33792
9632,33792
9633,33856
9634,33920
9635,33920
9636,33920
9637,33984
9638,33984
9639,33984
9640,33984
9641,34048
9642,34048
9643,33856
9644,33792
9645,33792
9646,33920
9647,33984
9648,34048
9649,34048
9650,34048
9651,34048
9652,33920
9653,33792
9654,33856
9655,33920
9656,33920
9657,34048
9658,34176
9659,34368
9660,34432
9661,34432
9662,34496
9663,34560
9664,34560
9665,34560
9666,34560
9667,34688
9668,34752
9669,34688
9670,34624
9671,34560
9672,34496
9673,34304
9674,34112
9675,33984
9676,33728
9677,33408
9678,33216
9679,33216
9680,33280
9681,33344
9682,33408
9683,33536
9684,33664
9685,33664
9686,33728
9687,33792
9688,33920
9689,33920
9690,33920
9691,33920
9692,33920
9693,33856
9694,33792
9695,33984
9696,34432
9697,35136
9698,36416
9699,38656
9700,41024
9701,43264
9702,44288
9703,43968
9704,42112
9705,39168
9706,35904
9707,32896
9708,30720
9709,29376
9710,28672
9711,28608
9712,29056
9713,29824
9714,30656
9715,31424
9716,32192
9717,32896
9718,33472
9719,33920
9720,34176
9721,34496
9722,34688
9723,34688
9724,34624
9725,34496
9726,34368
9727,34176
9728,34048
9729,33984
9730,33984
9731,33920
9732,33856
9733,33792
9734,33792
9735,33792
9736,33856
9737,33920
9738,34048
9739,34112
9740,34048
9741,34112
9742,34240
9743,34304
9744,34240
9745,34240
9746,34176
9747,34112
9748,34048
9749,34048
9750,34048
9751,34112
9752,34176
9753,34240
9754,34304
9755,34496
9756,34560
9757,34496
9758,34496
9759,34560
9760,34432
9761,34304
9762,34240
9763,34240
9764,34304
9765,34240
9766,34240
9767,34240
9768,34304
9769,34240
9770,34048
9771,34048
9772,34048
9773,34048
9774,33920
9775,33792
9776,33664
9777,33600
9778,33600
9779,33728
9780,33792
9781,33856
9782,33856
9783,33920
9784,33984
9785,34048
9786,34048
9787,34048
9788,34112
9789,33984
9790,33856
9791,33856
9792,33856
9793,33856
9794,33856
9795,33856
9796,33920
9797,34048
9798,33984
9799,34048
9800,34112
9801,34176
9802,34176
9803,34112
9804,34112
9805,34240
9806,34368
9807,34304
9808,34176
9809,34176
9810,34112
9811,33984
9812,33984
9813,33984
9814,33984
9815,33984
9816,33920
9817,33920
9818,33920
9819,33856
9820,33856
9821,33792
9822,33728
9823,33728
9824,33792
9825,33792
9826,33792
9827,33728
9828,33728
9829,33792
9830,33728
9831,33728
9832,33792
9833,33792
9834,33856
9835,33792
9836,33728
9837,33792
9838,33856
9839,33920
9840,33984
9841,33984
9842,34048
9843,33984
9844,34048
9845,34048
9846,34240
9847,34240
9848,34304
9849,34432
9850,34624
9851,34624
9852,34624
9853,34624
9854,34688
9855,34624
9856,34560
9857,34560
9858,34688
9859,34816
9860,34624
9861,34432
9862,34176
9863,34112
9864,33984
9865,33920
9866,33536
9867,33344
9868,33216
9869,33088
9870,33152
9871,33216
9872,33280
9873,33280
9874,33536
9875,33472
9876,33728
9877,33792
9878,33920
9879,34112
9880,34048
9881,34176
9882,34048
9883,33920
9884,33792
9885,33856
9886,34176
9887,34688
9888,35648
9889,37888
9890,38144
9891,41984
9892,44096
9893,44928
9894,44032
9895,43840
9896,38848
9897,35392
9898,32384
9899,30336
9900,29248
9901,28800
9902,29056
9903,29760
9904,30976
9905,31040
9906,32192
9907,32832
9908,33408
9909,33856
9910,34112
9911,34368
9912,34496
9913,34624
9914,34560
9915,34560
9916,34496
9917,34432
9918,34240
9919,34112
9920,33984
9921,33984
9922,33856
9923,33792
9924,33792
9925,33728
9926,33792
9927,33792
9928,33920
9929,33984
9930,33984
9931,33984
9932,33984
9933,34112
9934,34240
9935,34176
9936,34048
9937,33984
9938,33984
9939,33984
9940,33984
9941,34112
9942,34176
9943,34240
9944,34368
9945,34432
9946,34496
9947,34624
9948,34624
9949,34560
9950,34496
9951,34560
9952,34560
9953,34624
9954,34624
9955,34624
9956,34560
9957,34496
9958,34496
9959,34432
9960,34368
9961,34304
9962,34240
9963,34176
9964,34112
9965,33984
9966,33920
9967,33984
9968,33984
9969,33984
9970,33984
9971,34048
9972,34112
9973,34048
9974,33984
9975,34048
9976,34112
9977,34112
9978,34112
9979,34176
9980,34176
9981,34112
9982,34048
9983,34048
9984,34048
9985,33984
9986,34048
9987,34112
9988,34176
9989,34112
9990,34112
9991,34176
9992,34240
9993,34240
9994,34240
9995,34176
9996,34240
9997,34304
9998,34240
9999,34240
10000,34240
10001,34240
10002,34240
10003,34240
10004,34240
10005,34176
10006,34048
10007,33984
10008,34048
10009,34112
10010,34048
10011,34048
10012,34048
10013,34048
10014,33920
10015,33856
10016,33856
10017,33792
10018,33728
10019,33728
10020,33792
10021,33856
10022,33920
10023,33920
10024,33856
10025,33856
10026,33792
10027,33728
10028,33728
10029,33920
10030,33984
10031,33984
10032,33920
10033,33984
10034,34112
10035,34048
10036,34048
10037,34048
10038,34048
10039,34112
10040,34112
10041,34368
10042,34560
10043,34688
10044,34752
10045,34816
10046,34944
10047,35008
10048,34944
10049,34944
10050,34944
10051,34944
10052,34944
10053,34880
10054,34816
10055,34752
10056,34432
10057,34176
10058,33984
10059,33856
10060,33728
10061,33600
10062,33536
10063,33536
10064,33472
10065,33536
10066,33600
10067,33728
10068,33920
10069,34048
10070,34048
10071,34112
10072,34112
10073,34048
10074,34048
10075,34048
10076,33984
10077,33856
10078,33792
10079,33984
10080,34432
10081,35136
10082,36288
10083,38016
10084,41728
10085,41984
10086,45120
10087,45824
10088,44736
10089,41920
10090,38144
10091,34304
10092,31168
10093,29056
10094,27904
10095,27776
10096,28352
10097,29248
10098,30080
10099,31360
10100,31488
10101,32576
10102,33152
10103,33600
10104,33984
10105,34240
10106,34432
10107,34496
10108,34496
10109,34432
10110,34368
10111,34176
10112,34048
10113,33984
10114,33792
10115,33728
10116,33792
10117,33856
10118,33920
10119,33856
10120,33856
10121,33920
10122,33856
10123,33856
10124,33920
10125,34048
10126,34176
10127,34176
10128,34240
10129,34368
10130,34368
10131,34368
10132,34304
10133,34304
10134,34304
10135,34240
10136,34176
10137,34240
10138,34304
10139,34368
10140,34368
10141,34432
10142,34368
10143,34368
10144,34304
10145,34304
10146,34368
10147,34368
10148,34368
10149,34368
10150,34432
10151,34432
10152,34368
10153,34240
10154,34240
10155,34240
10156,34112
10157,34048
10158,34048
10159,33984
10160,33920
10161,33920
10162,33920
10163,34048
10164,34048
10165,33984
10166,33984
10167,33984
10168,33920
10169,33792
10170,33728
10171,33664
10172,33600
10173,33472
10174,33408
10175,33472
10176,33536
10177,33600
10178,33600
10179,33600
10180,33600
10181,33536
10182,33536
10183,33600
10184,33728
10185,33664
10186,33664
10187,33728
10188,33792
10189,33792
10190,33728
10191,33728
10192,33792
10193,33920
10194,33920
10195,33984
10196,33984
10197,33984
10198,33920
10199,33792
10200,33728
10201,33728
10202,33664
10203,33664
10204,33856
10205,33984
10206,33984
10207,33920
10208,33920
10209,33920
10210,33920
10211,33920
10212,33984
10213,33984
10214,33984
10215,33920
10216,33920
10217,33984
10218,33984
10219,33856
10220,33856
10221,33792
10222,33792
10223,33728
10224,33728
10225,33728
10226,33792
10227,33792
10228,33856
10229,33856
10230,33856
10231,33792
10232,33792
10233,33792
10234,33856
10235,33856
10236,33792
10237,33920
10238,34112
10239,34240
10240,34304
10241,34496
10242,34624
10243,34688
10244,34688
10245,34816
10246,34816
10247,34752
10248,34688
10249,34688
10250,34752
10251,34752
10252,34560
10253,34432
10254,34240
10255,34176
10256,34048
10257,33856
10258,33792
10259,33792
10260,33664
10261,33536
10262,33472
10263,33536
10264,33600
10265,33664
10266,33728
10267,33792
10268,33984
10269,33984
10270,34048
10271,34048
10272,33984
10273,33856
10274,33792
10275,33792
10276,33792
10277,33984
10278,34368
10279,35136
10280,36416
10281,38272
10282,40640
10283,43072
10284,44608
10285,44736
10286,43200
10287,40256
10288,36672
10289,33280
10290,30720
10291,29184
10292,28544
10293,28544
10294,28992
10295,29824
10296,30656
10297,31488
10298,32192
10299,32832
10300,33408
10301,33856
10302,34112
10303,34304
10304,34432
10305,34560
10306,34624
10307,34560
10308,34496
10309,34304
10310,33984
10311,33792
10312,33664
10313,33600
10314,33536
10315,33536
10316,33600
10317,33664
10318,33728
10319,33792
10320,33856
10321,33984
10322,34112
10323,34176
10324,34176
10325,34176
10326,34112
10327,33984
10328,33920
10329,33984
10330,34112
10331,34112
10332,34048
10333,34048
10334,34176
10335,34240
10336,34304
10337,34304
10338,34368
10339,34432
10340,34432
10341,34368
10342,34368
10343,34368
10344,34240
10345,34240
10346,34304
10347,34304
10348,34304
10349,34176
10350,34240
10351,34304
10352,34176
10353,34112
10354,34048
10355,34048
10356,33920
10357,33792
10358,33664
10359,33728
10360,33792
10361,33792
10362,33856
10363,33920
10364,33984
10365,33984
10366,33984
10367,34048
10368,34048
10369,33984
10370,33920
10371,33920
10372,33984
10373,34048
10374,33984
10375,34112
10376,34176
10377,34112
10378,34112
10379,34112
10380,34112
10381,34112
10382,34112
10383,34112
10384,34176
10385,34240
10386,34240
10387,34240
10388,34368
10389,34304
10390,34240
10391,34240
10392,34240
10393,34304
10394,34304
10395,34240
10396,34304
10397,34304
10398,34368
10399,34368
10400,34368
10401,34368
10402,34304
10403,34240
10404,34240
10405,34304
10406,34240
10407,34176
10408,34112
10409,34048
10410,34048
10411,33920
10412,33920
10413,33984
10414,33984
10415,33920
10416,33856
10417,33856
10418,33920
10419,33920
10420,33984
10421,34048
10422,34176
10423,34240
10424,34240
10425,34240
10426,34304
10427,34368
10428,34304
10429,34304
10430,34304
10431,34432
10432,34432
10433,34304
10434,34304
10435,34240
10436,34176
10437,34240
10438,34368
10439,34368
10440,34304
10441,34240
10442,34240
10443,34304
10444,34304
10445,34304
10446,34304
10447,34368
10448,34304
10449,34240
10450,34304
10451,34432
10452,34432
10453,34368
10454,34368
10455,34560
10456,34688
10457,34752
10458,34752
10459,34944
10460,34944
10461,34880
10462,34816
10463,34816
10464,34880
10465,34944
10466,35008
10467,35008
10468,34880
10469,34560
10470,34304
10471,34240
10472,34176
10473,34048
10474,33856
10475,33792
10476,33792
10477,33792
10478,33728
10479,33792
10480,33920
10481,33920
10482,33920
10483,33984
10484,34048
10485,34112
10486,34176
10487,34176
10488,34176
10489,34112
10490,33984
10491,34048
10492,34304
10493,34816
10494,35776
10495,37056
10496,39168
10497,41792
10498,44160
10499,45312
10500,44864
10501,42816
10502,39488
10503,35712
10504,32448
10505,30080
10506,28864
10507,28416
10508,28608
10509,29312
10510,30144
10511,30976
10512,31808
10513,32512
10514,33152
10515,33600
10516,33920
10517,34176
10518,34368
10519,34432
10520,34432
10521,34368
10522,34304
10523,34240
10524,34112
10525,34048
10526,34048
10527,34048
10528,33984
10529,33984
10530,33984
10531,33984
10532,33920
10533,33920
10534,34048
10535,34112
10536,34112
10537,34112
10538,34240
10539,34368
10540,34368
10541,34240
10542,34240
10543,34240
10544,34240
10545,34240
10546,34240
10547,34240
10548,34304
10549,34304
10550,34368
10551,34496
10552,34560
10553,34560
10554,34560
10555,34560
10556,34624
10557,34560
10558,34560
10559,34560
10560,34624
10561,34624
10562,34624
10563,34624
10564,34688
10565,34624
10566,34560
10567,34496
10568,34432
10569,34368
10570,34240
10571,34176
10572,34112
10573,33984
10574,33856
10575,33728
10576,33728
10577,33728
10578,33728
10579,33792
10580,33984
10581,34048
10582,34048
10583,33984
10584,33984
10585,33920
10586,33920
10587,33984
10588,34048
10589,34112
10590,34112
10591,34112
10592,34240
10593,34240
10594,34240
10595,34240
10596,34304
10597,34368
10598,34368
10599,34304
10600,34240
10601,34240
10602,34240
10603,34112
10604,33984
10605,33984
10606,33984
10607,33984
10608,33984
10609,34112
10610,34176
10611,34176
10612,34112
10613,34048
10614,34048
10615,34048
10616,33984
10617,33984
10618,33984
10619,34048
10620,33984
10621,34048
10622,34048
10623,34048
10624,33984
10625,33984
10626,33984
10627,33984
10628,33984
10629,33984
10630,34048
10631,34112
10632,34112
10633,34048
10634,34112
10635,34112
10636,34112
10637,34112
10638,34112
10639,34112
10640,34112
10641,34112
10642,34112
10643,34112
10644,34112
10645,34112
10646,34112
10647,34176
10648,34176
10649,34112
10650,34048
10651,34112
10652,34176
10653,34240
10654,34176
10655,34176
10656,34176
10657,34176
10658,34176
10659,34176
10660,34240
10661,34176
10662,34112
10663,34048
10664,34048
10665,33984
10666,33920
10667,33984
10668,34048
10669,34048
10670,34048
10671,34112
10672,34176
10673,34304
10674,34368
10675,34496
10676,34624
10677,34752
10678,34752
10679,34752
10680,34752
10681,34816
10682,34816
10683,34752
10684,34816
10685,34944
10686,34944
10687,34816
10688,34624
10689,34496
10690,34368
10691,34112
10692,33984
10693,33856
10694,33728
10695,33536
10696,33600
10697,33664
10698,33664
10699,33600
10700,33536
10701,33600
10702,33664
10703,33856
10704,34048
10705,34112
10706,34176
10707,34112
10708,34048
10709,33984
10710,34048
10711,34240
10712,34688
10713,35584
10714,37056
10715,39168
10716,41728
10717,44096
10718,45312
10719,44928
10720,42752
10721,39296
10722,35456
10723,32192
10724,29824
10725,28544
10726,28160
10727,28480
10728,29056
10729,29952
10730,30912
10731,31744
10732,32384
10733,32960
10734,33408
10735,33792
10736,34048
10737,34176
10738,34304
10739,34368
10740,34368
10741,34304
10742,34240
10743,34176
10744,33984
10745,33856
10746,33792
10747,33856
10748,33856
10749,33664
10750,33536
10751,33536
10752,33600
10753,33664
10754,33728
10755,33856
10756,33984
10757,33984
10758,33920
10759,34048
10760,34112
10761,34112
10762,34112
10763,34112
10764,34176
10765,34176
10766,34112
10767,34176
10768,34240
10769,34304
10770,34304
10771,34304
10772,34432
10773,34432
10774,34432
10775,34368
10776,34432
10777,34496
10778,34496
10779,34432
10780,34432
10781,34432
10782,34368
10783,34240
10784,34240
10785,34176
10786,34112
10787,33984
10788,33920
10789,33856
10790,33728
10791,33472
10792,33408
10793,33408
10794,33408
10795,33344
10796,33280
10797,33280
10798,33280
10799,33216
10800,33152
10801,33152
10802,33152
10803,33152
10804,33152
10805,33152
10806,33280
10807,33216
10808,33152
10809,33216
10810,33344
10811,33408
10812,33408
10813,33472
10814,33536
10815,33600
10816,33600
10817,33664
10818,33728
10819,33664
10820,33536
10821,33536
10822,33600
10823,33664
10824,33664
10825,33664
10826,33728
10827,33728
10828,33728
10829,33664
10830,33664
10831,33728
10832,33728
10833,33728
10834,33728
10835,33792
10836,33856
10837,33792
10838,33856
10839,33792
10840,33664
10841,33472
10842,33408
10843,33472
10844,33536
10845,33600
10846,33664
10847,33728
10848,33792
10849,33792
10850,33856
10851,33856
10852,33856
10853,33792
10854,33728
10855,33856
10856,33984
10857,34048
10858,34112
10859,34176
10860,34368
10861,34368
10862,34304
10863,34304
10864,34368
10865,34368
10866,34368
10867,34304
10868,34432
10869,34496
10870,34560
10871,34496
10872,34496
10873,34496
10874,34432
10875,34432
10876,34496
10877,34560
10878,34496
10879,34496
10880,34496
10881,34624
10882,34624
10883,34496
10884,34496
10885,34496
10886,34496
10887,34560
10888,34688
10889,34880
10890,35072
10891,35072
10892,35136
10893,35200
10894,35328
10895,35328
10896,35264
10897,35264
10898,35200
10899,35200
10900,35072
10901,34880
10902,34752
10903,34560
10904,34368
10905,34240
10906,34112
10907,33984
10908,33792
10909,33792
10910,33728
10911,33664
10912,33728
10913,33792
10914,33920
10915,33984
10916,34112
10917,34304
10918,34432
10919,34368
10920,34304
10921,34240
10922,34176
10923,34112
10924,34048
