,ECG
0,34304
1,34176
2,34176
3,34240
4,34304
5,34304
6,34368
7,34368
8,34432
9,34368
10,34368
11,34368
12,34432
13,34368
14,34304
15,34240
16,34176
17,34112
18,33984
19,33920
20,33984
21,33984
22,33984
23,34048
24,34240
25,34368
26,34432
27,34368
28,34432
29,34496
30,34432
31,34368
32,34304
33,34304
34,34304
35,34240
36,34176
37,34048
38,33920
39,33792
40,33792
41,33728
42,33664
43,33536
44,33600
45,33792
46,33920
47,34112
48,34240
49,34432
50,34496
51,34432
52,34304
53,34176
54,34048
55,33856
56,33728
57,33792
58,33856
59,33920
60,33856
61,33920
62,33920
63,33984
64,34048
65,34176
66,34496
67,34688
68,34752
69,34688
70,34752
71,34816
72,34688
73,34688
74,34816
75,34816
76,34816
77,34688
78,34624
79,34496
80,34304
81,34112
82,33984
83,33792
84,33600
85,33472
86,33344
87,33280
88,33280
89,33216
90,33280
91,33408
92,33472
93,33536
94,33600
95,33664
96,33600
97,33600
98,33536
99,33536
100,33856
101,34432
102,35456
103,37184
104,39552
105,42368
106,44800
107,45632
108,44800
109,41984
110,38016
111,34048
112,30528
113,28800
114,27712
115,27392
116,27712
117,28288
118,29056
119,29888
120,30720
121,31488
122,32128
123,32704
124,33280
125,33792
126,34176
127,34496
128,34624
129,34688
130,34688
131,34624
132,34560
133,34368
134,34112
135,33856
136,33664
137,33664
138,33664
139,33664
140,33664
141,33728
142,33856
143,33920
144,34112
145,34240
146,34304
147,34304
148,34368
149,34496
150,34496
151,34496
152,34560
153,34688
154,34688
155,34688
156,34688
157,34752
158,34688
159,34624
160,34624
161,34752
162,34880
163,35072
164,35072
165,35008
166,35072
167,35136
168,35136
169,35072
170,34944
171,34880
172,34752
173,34752
174,34752
175,34688
176,34560
177,34368
178,34240
179,34176
180,34112
181,34048
182,33984
183,34048
184,34048
185,34048
186,34112
187,34176
188,34176
189,34240
190,34368
191,34496
192,34560
193,34560
194,34560
195,34560
196,34496
197,34432
198,34432
199,34432
200,34432
201,34432
202,34496
203,34496
204,34496
205,34432
206,34368
207,34432
208,34432
209,34368
210,34240
211,34176
212,34112
213,34048
214,34048
215,34112
216,34112
217,34048
218,33920
219,33856
220,33792
221,33792
222,33856
223,33920
224,34048
225,34048
226,34048
227,34048
228,34176
229,34240
230,34240
231,34304
232,34496
233,34688
234,34688
235,34688
236,34752
237,34944
238,34880
239,34752
240,34624
241,34560
242,34624
243,34752
244,34880
245,35008
246,35136
247,35136
248,35200
249,35200
250,35136
251,35072
252,34944
253,34816
254,34624
255,34432
256,34176
257,34112
258,33920
259,33344
260,32768
261,32320
262,32064
263,31872
264,31744
265,31616
266,31680
267,31680
268,31680
269,31680
270,31808
271,31808
272,31808
273,31936
274,32128
275,32384
276,32896
277,34176
278,35200
279,36928
280,39424
281,42368
282,45056
283,46464
284,46016
285,43584
286,39744
287,35392
288,32384
289,30016
290,28800
291,28416
292,28800
293,29312
294,30016
295,30848
296,31616
297,32320
298,33024
299,33664
300,34112
301,34368
302,34560
303,34752
304,34752
305,34624
306,34560
307,34560
308,34432
309,34176
310,34048
311,33984
312,33920
313,33792
314,33664
315,33600
316,33600
317,33536
318,33472
319,33536
320,33536
321,33600
322,33600
323,33728
324,33856
325,33984
326,34048
327,34176
328,34304
329,34368
330,34432
331,34432
332,34496
333,34432
334,34304
335,34176
336,34240
337,34304
338,34240
339,34176
340,34240
341,34432
342,34560
343,34688
344,34624
345,34688
346,34752
347,34752
348,34752
349,34816
350,34816
351,34688
352,34560
353,34432
354,34240
355,34048
356,33920
357,33920
358,33920
359,33728
360,33600
361,33472
362,33472
363,33344
364,33280
365,33344
366,33472
367,33536
368,33600
369,33792
370,33856
371,33920
372,33920
373,33920
374,33984
375,33984
376,33984
377,34112
378,34240
379,34368
380,34304
381,34304
382,34368
383,34304
384,34304
385,34304
386,34368
387,34368
388,34432
389,34432
390,34432
391,34560
392,34496
393,34432
394,34432
395,34496
396,34496
397,34496
398,34432
399,34432
400,34304
401,34176
402,34112
403,34112
404,34048
405,34048
406,34048
407,34048
408,34048
409,34112
410,34112
411,34304
412,34432
413,34496
414,34496
415,34560
416,34752
417,34752
418,34752
419,34816
420,34880
421,34880
422,34816
423,34688
424,34496
425,34240
426,33984
427,33792
428,33728
429,33664
430,33536
431,33472
432,33472
433,33600
434,33664
435,33792
436,33920
437,33984
438,33920
439,33920
440,33984
441,34048
442,33920
443,33792
444,33728
445,33920
446,34432
447,35264
448,36736
449,38976
450,41728
451,44160
452,45184
453,44480
454,42112
455,38528
456,34816
457,31360
458,29824
459,28672
460,28352
461,28672
462,29312
463,30080
464,30976
465,31872
466,32704
467,33216
468,33664
469,33984
470,34240
471,34368
472,34432
473,34432
474,34432
475,34304
476,34176
477,33984
478,33920
479,33920
480,33856
481,33792
482,33856
483,33984
484,34048
485,33920
486,33856
487,33856
488,33792
489,33792
490,33856
491,33856
492,33856
493,33856
494,33856
495,33920
496,33984
497,34048
498,34112
499,34240
500,34240
501,34240
502,34240
503,34240
504,34304
505,34368
506,34432
507,34624
508,34752
509,34688
510,34560
511,34496
512,34560
513,34560
514,34560
515,34624
516,34624
517,34624
518,34560
519,34368
520,34240
521,34176
522,34112
523,34112
524,34112
525,33984
526,33920
527,33856
528,33856
529,33856
530,33856
531,33856
532,33984
533,33984
534,33920
535,33920
536,34112
537,34240
538,34304
539,34240
540,34240
541,34240
542,34112
543,33984
544,33920
545,33920
546,33984
547,34112
548,34112
549,34112
550,34112
551,34048
552,34112
553,34368
554,34432
555,34432
556,34240
557,34048
558,33920
559,33728
560,33600
561,33536
562,33664
563,33664
564,33856
565,34176
566,34560
567,34816
568,34816
569,34880
570,34944
571,35008
572,35008
573,34880
574,34816
575,34816
576,34880
577,34752
578,34624
579,34432
580,34240
581,33984
582,33920
583,33792
584,33472
585,33088
586,32832
587,32704
588,32704
589,32704
590,32896
591,33088
592,33344
593,33472
594,33600
595,33728
596,33728
597,33728
598,33536
599,33408
600,33408
601,33728
602,33728
603,35776
604,35968
605,40256
606,43712
607,43840
608,44288
609,42304
610,39104
611,35328
612,31936
613,29504
614,28096
615,27520
616,27584
617,28160
618,28992
619,30016
620,30784
621,31552
622,32192
623,32768
624,33152
625,33408
626,33600
627,33792
628,33856
629,33856
630,33856
631,33856
632,33856
633,33856
634,33728
635,33600
636,33600
637,33536
638,33472
639,33536
640,33536
641,33536
642,33536
643,33536
644,33664
645,33664
646,33664
647,33600
648,33856
649,33920
650,33984
651,33984
652,33920
653,34048
654,34048
655,34112
656,34176
657,34240
658,34176
659,34240
660,34240
661,34240
662,34176
663,34176
664,34240
665,34368
666,34432
667,34368
668,34432
669,34496
670,34624
671,34688
672,34688
673,34688
674,34688
675,34624
676,34496
677,34432
678,34304
679,34176
680,34048
681,34048
682,33984
683,33856
684,33792
685,33856
686,33856
687,33856
688,33856
689,33920
690,34048
691,34048
692,34048
693,34048
694,34176
695,34176
696,34240
697,34240
698,34432
699,34496
700,34432
701,34368
702,34368
703,34432
704,34368
705,34368
706,34368
707,34304
708,34240
709,34112
710,34176
711,34176
712,34176
713,34304
714,34368
715,34432
716,34368
717,34304
718,34176
719,34240
720,34240
721,34368
722,34560
723,34624
724,34624
725,34560
726,34560
727,34624
728,34688
729,34688
730,34688
731,34752
732,34880
733,34816
734,34752
735,34688
736,34560
737,34368
738,34176
739,33920
740,33728
741,33408
742,33344
743,33216
744,33280
745,33344
746,33408
747,33472
748,33600
749,33728
750,33728
751,33728
752,33856
753,33856
754,33792
755,33664
756,33600
757,33600
758,33856
759,34432
760,35648
761,37504
762,39872
763,42688
764,44928
765,45888
766,44864
767,41984
768,38080
769,34176
770,31168
771,28608
772,28480
773,28160
774,28544
775,29248
776,30144
777,31040
778,31808
779,32320
780,32832
781,33344
782,33664
783,33920
784,34112
785,34176
786,34176
787,34112
788,34112
789,34048
790,34048
791,33984
792,33920
793,33856
794,33920
795,33920
796,33920
797,33856
798,33920
799,33920
800,33792
801,33792
802,33920
803,33856
804,33792
805,33728
806,33856
807,33984
808,33984
809,33920
810,33856
811,33728
812,33728
813,33728
814,33792
815,33792
816,33856
817,33792
818,33920
819,33984
820,34176
821,34368
822,34560
823,34688
824,34752
825,34880
826,34944
827,35008
828,34880
829,34816
830,34752
831,34688
832,34496
833,34304
834,34176
835,34112
836,34112
837,33920
838,33728
839,33600
840,33600
841,33664
842,33728
843,33856
844,34048
845,34176
846,34304
847,34240
848,34432
849,34560
850,34752
851,34880
852,35008
853,35072
854,35072
855,35008
856,34880
857,34752
858,34688
859,34560
860,34624
861,34624
862,34560
863,34368
864,34304
865,34368
866,34496
867,34560
868,34496
869,34304
870,34240
871,34112
872,34048
873,34048
874,34176
875,34304
876,34432
877,34624
878,34880
879,35008
880,35072
881,35136
882,35264
883,35328
884,34880
885,34496
886,34304
887,34176
888,33920
889,33600
890,33408
891,33344
892,33280
893,33216
894,33088
895,33024
896,33024
897,33088
898,33088
899,33152
900,33344
901,33600
902,33856
903,33920
904,33792
905,33536
906,33472
907,33216
908,32896
909,32704
910,32640
911,32704
912,33024
913,33536
914,34688
915,36480
916,38848
917,41472
918,43840
919,45056
920,44544
921,42048
922,38272
923,34432
924,31232
925,29120
926,28032
927,27840
928,28352
929,29312
930,30336
931,31232
932,32128
933,32704
934,33152
935,33664
936,34176
937,34560
938,34944
939,35328
940,35392
941,35328
942,35264
943,35264
944,35328
945,35392
946,35392
947,35392
948,35392
949,35264
950,35200
951,35072
952,35072
953,35072
954,35072
955,35072
956,35264
957,35456
958,35456
959,35328
960,35264
961,35136
962,35072
963,35008
964,35072
965,35200
966,35200
967,35136
968,35264
969,35392
970,35456
971,35520
972,35712
973,35904
974,35840
975,35648
976,35520
977,35456
978,35392
979,35456
980,35456
981,35392
982,35328
983,35136
984,35008
985,34944
986,34944
987,34880
988,34688
989,34432
990,34304
991,33984
992,33728
993,33664
994,33600
995,33472
996,33408
997,33344
998,33152
999,33024
1000,32960
1001,32960
1002,33152
1003,33280
1004,33408
1005,33408
1006,33536
1007,33664
1008,33728
1009,33856
1010,33984
1011,34048
1012,33920
1013,33728
1014,33728
1015,33792
1016,33728
1017,33664
1018,33536
1019,33408
1020,33344
1021,33280
1022,33216
1023,33280
1024,33344
1025,33408
1026,33344
1027,33216
1028,33280
1029,33408
1030,33664
1031,33920
1032,34176
1033,34304
1034,34304
1035,34304
1036,34368
1037,34432
1038,34432
1039,34496
1040,34624
1041,34624
1042,34560
1043,34560
1044,34560
1045,34496
1046,34368
1047,34304
1048,34304
1049,34240
1050,34048
1051,33792
1052,33664
1053,33536
1054,33344
1055,33216
1056,33280
1057,33472
1058,33536
1059,33664
1060,33984
1061,34240
1062,34240
1063,33920
1064,33600
1065,33472
1066,33664
1067,34240
1068,35392
1069,37120
1070,39488
1071,42240
1072,44672
1073,45504
1074,44736
1075,42112
1076,38336
1077,34496
1078,31360
1079,29440
1080,28608
1081,28608
1082,29056
1083,29760
1084,30656
1085,31552
1086,32320
1087,32896
1088,33280
1089,33728
1090,34112
1091,34368
1092,34432
1093,34496
1094,34368
1095,34112
1096,33920
1097,33728
1098,33728
1099,33728
1100,33728
1101,33792
1102,33856
1103,33856
1104,33792
1105,33856
1106,33984
1107,33984
1108,33920
1109,33920
1110,34176
1111,34112
1112,33984
1113,33920
1114,33920
1115,33984
1116,34112
1117,34176
1118,34176
1119,34176
1120,34112
1121,34048
1122,34112
1123,34304
1124,34368
1125,34304
1126,34176
1127,34112
1128,34112
1129,33984
1130,34048
1131,34176
1132,34304
1133,34368
1134,34432
1135,34688
1136,34944
1137,35008
1138,34944
1139,35008
1140,35136
1141,34944
1142,34624
1143,34368
1144,34176
1145,33920
1146,33664
1147,33408
1148,33408
1149,33472
1150,33472
1151,33472
1152,33472
1153,33472
1154,33472
1155,33472
1156,33600
1157,33664
1158,33728
1159,33856
1160,33984
1161,34112
1162,34176
1163,34240
1164,34304
1165,34432
1166,34368
1167,34048
1168,33728
1169,33600
1170,33536
1171,33472
1172,33408
1173,33472
1174,33472
1175,33408
1176,33472
1177,33536
1178,33600
1179,33664
1180,33728
1181,33984
1182,34240
1183,34560
1184,34752
1185,35008
1186,35200
1187,35200
1188,35200
1189,35264
1190,35456
1191,35520
1192,35392
1193,35136
1194,34816
1195,34432
1196,34112
1197,33920
1198,33664
1199,33408
1200,33152
1201,33152
1202,33280
1203,33408
1204,33536
1205,33664
1206,33728
1207,33856
1208,34048
1209,34176
1210,34304
1211,34496
1212,34496
1213,34304
1214,34112
1215,34048
1216,34048
1217,34112
1218,34496
1219,35328
1220,36800
1221,38976
1222,41536
1223,43904
1224,44864
1225,43968
1226,41216
1227,37376
1228,33472
1229,30336
1230,28288
1231,27264
1232,27136
1233,27648
1234,28480
1235,29504
1236,30592
1237,31488
1238,32320
1239,32896
1240,33152
1241,33280
1242,33408
1243,33536
1244,33664
1245,33728
1246,33664
1247,33664
1248,33856
1249,33984
1250,33920
1251,33856
1252,33984
1253,33984
1254,33920
1255,33792
1256,33856
1257,33920
1258,33728
1259,33536
1260,33344
1261,33344
1262,33344
1263,33280
1264,33280
1265,33408
1266,33472
1267,33408
1268,33536
1269,33920
1270,34176
1271,34368
1272,34496
1273,34560
1274,34368
1275,34112
1276,33984
1277,33920
1278,33984
1279,33984
1280,34048
1281,34112
1282,34112
1283,34048
1284,34112
1285,34304
1286,34496
1287,34560
1288,34496
1289,34560
1290,34496
1291,34432
1292,34304
1293,34176
1294,34112
1295,34048
1296,33920
1297,33856
1298,33856
1299,33920
1300,33856
1301,33984
1302,34112
1303,34240
1304,34368
1305,34496
1306,34752
1307,34880
1308,34880
1309,34816
1310,34816
1311,34880
1312,34944
1313,34944
1314,35008
1315,35136
1316,35072
1317,34944
1318,34816
1319,34752
1320,34624
1321,34496
1322,34624
1323,34816
1324,34944
1325,34944
1326,34880
1327,34880
1328,35072
1329,35200
1330,35328
1331,35520
1332,35584
1333,35520
1334,35520
1335,35584
1336,35712
1337,35776
1338,35584
1339,35328
1340,35072
1341,34880
1342,34752
1343,34688
1344,34624
1345,34496
1346,34304
1347,34368
1348,34560
1349,34688
1350,34624
1351,34560
1352,34624
1353,34752
1354,34880
1355,34816
1356,34816
1357,34880
1358,34880
1359,34752
1360,34624
1361,34496
1362,34496
1363,34752
1364,35328
1365,36544
1366,38656
1367,41152
1368,43776
1369,45312
1370,45184
1371,43392
1372,40256
1373,36800
1374,33472
1375,30848
1376,29248
1377,28416
1378,28416
1379,28928
1380,29760
1381,30720
1382,31680
1383,32448
1384,32960
1385,33472
1386,33984
1387,34304
1388,34560
1389,34816
1390,34944
1391,35008
1392,34944
1393,34880
1394,34752
1395,34560
1396,34304
1397,34112
1398,33920
1399,33664
1400,33344
1401,33216
1402,33216
1403,33344
1404,33216
1405,33152
1406,33280
1407,33344
1408,33344
1409,33344
1410,33408
1411,33536
1412,33664
1413,33728
1414,33728
1415,33856
1416,33920
1417,33856
1418,33856
1419,33920
1420,34048
1421,34048
1422,34048
1423,34048
1424,34112
1425,34048
1426,33920
1427,33856
1428,33920
1429,33984
1430,34176
1431,34368
1432,34368
1433,34176
1434,33984
1435,33984
1436,34176
1437,34240
1438,34176
1439,33984
1440,33856
1441,33728
1442,33664
1443,33664
1444,33792
1445,33792
1446,33792
1447,33792
1448,33856
1449,33856
1450,33792
1451,33856
1452,33984
1453,34304
1454,34624
1455,34560
1456,34240
1457,34048
1458,33920
1459,33792
1460,33728
1461,33664
1462,33728
1463,33728
1464,33728
1465,33792
1466,33792
1467,33856
1468,34048
1469,34304
1470,34496
1471,34560
1472,34624
1473,34816
1474,34816
1475,34688
1476,34624
1477,34560
1478,34432
1479,34304
1480,34304
1481,34368
1482,34496
1483,34496
1484,34304
1485,34176
1486,34048
1487,33856
1488,33600
1489,33472
1490,33472
1491,33408
1492,33344
1493,33344
1494,33344
1495,33344
1496,33280
1497,33280
1498,33408
1499,33600
1500,33728
1501,33792
1502,33856
1503,33792
1504,33792
1505,33728
1506,33792
1507,33984
1508,34496
1509,35520
1510,37376
1511,39872
1512,42624
1513,44608
1514,45120
1515,43904
1516,40960
1517,37056
1518,33408
1519,30528
1520,28672
1521,27648
1522,27584
1523,28096
1524,28864
1525,29632
1526,30400
1527,31232
1528,31872
1529,32384
1530,32768
1531,33088
1532,33344
1533,33536
1534,33728
1535,33920
1536,33984
1537,33920
1538,33792
1539,33728
1540,33728
1541,33728
1542,33728
1543,33856
1544,33792
1545,33728
1546,33536
1547,33408
1548,33344
1549,33472
1550,33536
1551,33536
1552,33792
1553,33856
1554,33600
1555,33408
1556,33408
1557,33472
1558,33536
1559,33472
1560,33408
1561,33344
1562,33344
1563,33280
1564,33408
1565,33600
1566,33728
1567,33792
1568,33792
1569,33920
1570,34048
1571,34048
1572,34112
1573,34176
1574,34240
1575,33984
1576,33856
1577,33792
1578,33728
1579,33600
1580,33600
1581,33664
1582,33664
1583,33600
1584,33472
1585,33472
1586,33472
1587,33472
1588,33472
1589,33536
1590,33600
1591,33600
1592,33472
1593,33472
1594,33600
1595,33728
1596,33792
1597,33792
1598,33920
1599,34048
1600,34048
1601,34048
1602,34176
1603,34304
1604,34304
1605,34304
1606,34304
1607,34432
1608,34496
1609,34496
1610,34560
1611,34624
1612,34560
1613,34432
1614,34432
1615,34496
1616,34624
1617,34816
1618,35008
1619,35072
1620,35008
1621,34816
1622,34688
1623,34752
1624,34816
1625,34816
1626,34880
1627,34944
1628,34944
1629,34880
1630,34688
1631,34560
1632,34624
1633,34624
1634,34496
1635,34240
1636,34112
1637,33984
1638,33856
1639,33856
1640,33984
1641,34240
1642,34432
1643,34688
1644,34944
1645,35136
1646,35136
1647,35200
1648,35200
1649,35264
1650,35200
1651,35008
1652,34944
1653,35072
1654,35456
1655,36352
1656,37952
1657,40512
1658,43264
1659,45184
1660,46016
1661,44928
1662,42048
1663,38080
1664,34240
1665,31232
1666,29440
1667,28544
1668,28480
1669,28992
1670,29824
1671,30656
1672,31488
1673,32320
1674,33088
1675,33600
1676,33856
1677,34048
1678,34304
1679,34432
1680,34432
1681,34496
1682,34688
1683,34688
1684,34688
1685,34688
1686,34880
1687,34880
1688,34688
1689,34816
1690,34944
1691,34880
1692,34752
1693,34624
1694,34560
1695,34496
1696,34368
1697,34240
1698,34176
1699,34112
1700,34112
1701,34112
1702,33984
1703,33920
1704,33856
1705,33856
1706,33984
1707,34048
1708,33920
1709,33856
1710,33920
1711,34048
1712,34240
1713,34368
1714,34560
1715,34624
1716,34496
1717,34432
1718,34496
1719,34560
1720,34752
1721,34944
1722,35072
1723,35072
1724,35136
1725,35136
1726,35136
1727,35200
1728,35392
1729,35456
1730,35328
1731,35264
1732,35264
1733,35136
1734,35008
1735,34944
1736,34944
1737,34816
1738,34688
1739,34688
1740,34688
1741,34624
1742,34560
1743,34560
1744,34688
1745,34752
1746,34816
1747,34816
1748,34816
1749,34752
1750,34752
1751,34752
1752,34880
1753,34944
1754,35008
1755,35072
1756,35200
1757,35328
1758,35328
1759,35136
1760,34944
1761,34752
1762,34560
1763,34496
1764,34624
1765,34688
1766,34560
1767,34496
1768,34432
1769,34496
1770,34560
1771,34560
1772,34560
1773,34816
1774,35072
1775,35136
1776,35264
1777,35264
1778,35200
1779,35072
1780,35008
1781,34944
1782,34944
1783,34880
1784,34752
1785,34624
1786,34432
1787,34240
1788,34048
1789,33984
1790,34048
1791,33984
1792,33728
1793,33472
1794,33280
1795,33088
1796,33024
1797,33216
1798,33472
1799,33600
1800,33536
1801,33472
1802,33600
1803,33664
1804,33536
1805,33344
1806,33280
1807,32960
1808,32832
1809,33024
1810,33728
1811,34944
1812,36864
1813,39232
1814,41984
1815,43904
1816,44288
1817,43072
1818,40384
1819,36416
1820,32448
1821,29568
1822,27968
1823,27456
1824,27648
1825,28352
1826,29248
1827,30144
1828,31104
1829,31872
1830,32512
1831,33152
1832,33728
1833,34112
1834,34368
1835,34432
1836,34496
1837,34432
1838,34304
1839,34176
1840,34112
1841,34048
1842,33984
1843,33856
1844,33664
1845,33472
1846,33216
1847,33088
1848,33152
1849,33216
1850,33152
1851,33088
1852,33152
1853,33216
1854,33216
1855,33344
1856,33536
1857,33600
1858,33600
1859,33536
1860,33664
1861,33920
1862,33984
1863,33792
1864,33728
1865,33792
1866,33920
1867,33856
1868,33792
1869,33856
1870,33984
1871,34112
1872,34176
1873,34304
1874,34496
1875,34624
1876,34752
1877,34944
1878,35072
1879,35008
1880,34752
1881,34496
1882,34304
1883,34240
1884,34112
1885,34112
1886,34176
1887,34112
1888,33984
1889,34048
1890,34112
1891,34048
1892,33856
1893,33856
1894,33920
1895,33984
1896,33920
1897,33856
1898,33920
1899,34112
1900,34176
1901,34112
1902,34048
1903,33920
1904,33856
1905,33728
1906,33728
1907,33920
1908,34112
1909,34112
1910,33984
1911,33984
1912,34048
1913,34112
1914,34176
1915,34240
1916,34304
1917,34240
1918,34240
1919,34240
1920,34240
1921,34240
1922,34240
1923,34304
1924,34368
1925,34368
1926,34240
1927,34176
1928,34176
1929,34176
1930,34176
1931,34176
1932,34176
1933,34240
1934,34112
1935,33856
1936,33664
1937,33664
1938,33728
1939,33792
1940,33984
1941,34112
1942,34240
1943,34304
1944,34368
1945,34432
1946,34496
1947,34368
1948,34368
1949,34496
1950,34560
1951,34624
1952,34496
1953,34368
1954,34240
1955,34048
1956,33984
1957,33856
1958,33600
1959,33280
1960,33088
1961,33152
1962,33216
1963,33280
1964,33280
1965,33408
1966,33536
1967,33728
1968,33856
1969,33920
1970,33984
1971,33920
1972,33856
1973,33792
1974,33856
1975,34112
1976,34688
1977,35904
1978,37952
1979,40576
1980,43200
1981,44800
1982,44928
1983,43200
1984,40064
1985,36352
1986,32960
1987,30400
1988,28800
1989,28032
1990,28096
1991,28736
1992,29504
1993,30208
1994,30976
1995,31808
1996,32448
1997,32960
1998,33280
1999,33664
2000,33856
2001,33920
2002,34048
2003,34112
2004,34112
2005,34048
2006,34048
2007,34048
2008,33920
2009,33728
2010,33600
2011,33536
2012,33472
2013,33344
2014,33344
2015,33408
2016,33472
2017,33472
2018,33536
2019,33600
2020,33664
2021,33664
2022,33728
2023,33792
2024,33920
2025,33856
2026,33664
2027,33536
2028,33600
2029,33792
2030,33920
2031,33856
2032,33920
2033,33856
2034,33920
2035,33920
2036,33920
2037,33920
2038,33856
2039,33856
2040,33856
2041,33920
2042,33984
2043,34176
2044,34304
2045,34304
2046,34240
2047,34112
2048,34048
2049,34112
2050,34112
2051,34048
2052,33984
2053,34048
2054,33984
2055,33920
2056,33856
2057,33792
2058,33792
2059,33664
2060,33600
2061,33728
2062,33856
2063,33920
2064,33856
2065,33664
2066,33536
2067,33536
2068,33600
2069,33792
2070,34048
2071,34112
2072,34048
2073,34112
2074,34240
2075,34112
2076,33920
2077,33792
2078,33856
2079,33920
2080,33920
2081,34048
2082,34048
2083,34112
2084,34112
2085,34048
2086,34240
2087,34304
2088,34240
2089,34112
2090,33984
2091,33984
2092,33920
2093,33920
2094,33984
2095,34112
2096,34112
2097,34112
2098,34304
2099,34432
2100,34432
2101,34304
2102,34304
2103,34432
2104,34560
2105,34560
2106,34688
2107,34944
2108,35072
2109,35072
2110,35008
2111,34752
2112,34496
2113,34240
2114,34176
2115,34112
2116,33920
2117,33728
2118,33536
2119,33472
2120,33536
2121,33664
2122,33856
2123,33920
2124,33920
2125,33792
2126,33664
2127,33728
2128,33856
2129,33856
2130,33856
2131,33728
2132,33920
2133,34368
2134,35008
2135,35968
2136,37632
2137,40448
2138,42752
2139,44928
2140,45888
2141,44736
2142,41792
2143,37824
2144,34048
2145,31104
2146,29056
2147,28160
2148,28032
2149,28480
2150,29376
2151,30272
2152,31104
2153,31872
2154,32576
2155,33088
2156,33536
2157,33920
2158,34112
2159,34240
2160,34304
2161,34368
2162,34368
2163,34368
2164,34240
2165,34048
2166,33984
2167,33984
2168,34048
2169,33984
2170,33792
2171,33600
2172,33472
2173,33600
2174,33728
2175,33792
2176,33792
2177,33920
2178,34112
2179,34176
2180,34176
2181,34112
2182,34112
2183,34112
2184,34176
2185,34368
2186,34560
2187,34432
2188,34112
2189,33984
2190,33984
2191,34048
2192,34112
2193,34112
2194,34112
2195,34176
2196,34240
2197,34240
2198,34368
2199,34432
2200,34496
2201,34560
2202,34688
2203,34752
2204,34624
2205,34432
2206,34368
2207,34432
2208,34304
2209,34048
2210,33856
2211,33792
2212,33728
2213,33600
2214,33600
2215,33664
2216,33728
2217,33728
2218,33664
2219,33728
2220,33856
2221,33728
2222,33600
2223,33536
2224,33600
2225,33600
2226,33536
2227,33536
2228,33600
2229,33792
2230,33984
2231,33984
2232,33920
2233,33920
2234,33920
2235,33920
2236,33984
2237,33984
2238,33984
2239,33920
2240,33984
2241,33984
2242,33920
2243,33792
2244,33728
2245,33792
2246,33856
2247,33792
2248,33792
2249,33856
2250,33920
2251,33920
2252,33856
2253,33856
2254,33856
2255,33792
2256,33728
2257,33728
2258,33728
2259,33664
2260,33728
2261,33792
2262,33856
2263,33856
2264,34048
2265,34240
2266,34240
2267,34112
2268,33984
2269,33920
2270,34048
2271,34112
2272,34240
2273,34368
2274,34560
2275,34688
2276,34816
2277,34944
2278,35008
2279,35072
2280,35072
2281,35008
2282,34944
2283,34944
2284,34944
2285,34880
2286,34880
2287,34816
2288,34688
2289,34432
2290,34304
2291,34368
2292,34496
2293,34304
2294,34048
2295,33920
2296,33792
2297,33664
2298,33664
2299,33856
2300,33984
2301,34048
2302,34048
2303,34048
2304,34048
2305,33984
2306,33920
2307,34048
2308,34176
2309,34432
2310,35072
2311,36160
2312,38080
2313,40128
2314,42816
2315,45056
2316,46080
2317,45312
2318,42688
2319,38912
2320,35008
2321,31872
2322,29824
2323,28672
2324,28352
2325,28544
2326,29056
2327,29888
2328,30848
2329,31808
2330,32576
2331,33216
2332,33984
2333,34240
2334,34432
2335,34560
2336,34688
2337,34880
2338,34944
2339,34944
2340,34816
2341,34816
2342,34688
2343,34432
2344,34240
2345,34240
2346,34176
2347,34048
2348,34048
2349,34112
2350,33984
2351,33856
2352,33856
2353,34048
2354,34304
2355,34496
2356,34496
2357,34496
2358,34432
2359,34432
2360,34560
2361,34752
2362,34880
2363,34944
2364,34752
2365,34624
2366,34624
2367,34432
2368,34304
2369,34368
2370,34432
2371,34624
2372,34816
2373,34944
2374,35072
2375,35072
2376,34880
2377,34688
2378,34560
2379,34368
2380,34176
2381,34048
2382,34048
2383,33984
2384,33664
2385,33216
2386,32832
2387,32640
2388,32512
2389,32448
2390,32256
2391,32000
2392,31808
2393,31744
2394,31744
2395,31872
2396,32000
2397,32128
2398,32320
2399,32512
2400,32576
2401,32640
2402,32768
2403,32960
2404,33024
2405,32960
2406,32896
2407,33024
2408,33024
2409,32960
2410,32896
2411,32896
2412,32896
2413,32960
2414,33024
2415,33216
2416,33344
2417,33472
2418,33792
2419,33984
2420,33984
2421,33792
2422,33728
2423,33728
2424,33664
2425,33472
2426,33344
2427,33280
2428,33280
2429,33344
2430,33344
2431,33344
2432,33280
2433,33536
2434,33600
2435,33728
2436,34048
2437,33984
2438,34176
2439,34304
2440,34368
2441,34368
2442,34368
2443,34304
2444,34432
2445,34496
2446,34560
2447,34560
2448,34688
2449,34816
2450,34880
2451,34944
2452,35072
2453,35200
2454,35136
2455,34944
2456,34816
2457,34816
2458,34688
2459,34304
2460,33984
2461,33792
2462,33728
2463,33728
2464,33856
2465,33984
2466,34112
2467,34112
2468,34112
2469,34176
2470,34176
2471,34304
2472,34368
2473,34304
2474,34176
2475,34112
2476,34368
2477,35008
2478,36032
2479,37632
2480,39936
2481,43840
2482,44032
2483,45952
2484,45312
2485,42944
2486,39424
2487,35584
2488,32448
2489,30400
2490,29248
2491,28800
2492,28800
2493,29632
2494,30464
2495,31296
2496,32320
2497,32384
2498,33472
2499,33920
2500,34240
2501,34496
2502,34688
2503,34816
2504,34816
2505,34752
2506,34624
2507,34496
2508,34304
2509,34112
2510,34048
2511,33984
2512,33920
2513,33728
2514,33664
2515,33728
2516,33728
2517,33728
2518,33792
2519,34048
2520,34240
2521,34240
2522,34176
2523,34176
2524,34176
2525,34176
2526,34176
2527,34112
2528,34112
2529,33984
2530,33920
2531,33792
2532,33600
2533,33600
2534,33728
2535,33856
2536,34048
2537,34240
2538,34432
2539,34368
2540,34048
2541,34112
2542,34560
2543,35072
2544,35584
2545,35904
2546,35968
2547,35776
2548,35584
2549,35520
2550,35648
2551,35968
2552,35840
2553,35584
2554,35392
2555,35520
2556,36352
2557,36288
2558,35712
2559,35200
2560,34688
2561,34304
2562,34112
2563,34048
2564,34048
2565,33920
2566,33792
2567,33728
2568,33728
2569,33408
2570,32768
2571,32128
2572,31616
2573,31424
2574,31552
2575,31680
2576,32000
2577,32576
2578,32896
2579,32896
2580,32576
2581,31936
2582,31040
2583,29824
2584,28544
2585,27328
2586,26112
2587,25984
2588,25088
2589,24896
2590,25216
2591,25728
2592,25984
2593,25920
2594,25472
2595,24832
2596,23872
2597,22976
2598,22464
2599,22592
2600,23232
2601,24384
2602,24448
2603,26752
2604,28288
2605,30016
2606,31360
2607,32128
2608,32192
2609,31872
2610,31168
2611,30336
2612,29696
2613,29312
2614,29376
2615,29888
2616,30400
2617,30656
2618,30848
2619,31232
2620,31744
2621,32256
2622,32640
2623,32896
2624,33088
2625,33216
2626,33536
2627,33984
2628,34560
2629,35328
2630,36096
2631,36992
2632,36992
2633,37312
2634,37376
2635,37312
2636,37184
2637,37312
2638,37568
2639,38016
2640,38720
2641,39424
2642,39680
2643,39616
2644,40128
2645,40960
2646,42432
2647,42560
2648,45248
2649,46976
2650,48512
2651,49792
2652,50816
2653,51968
2654,52864
2655,52864
2656,51200
2657,48256
2658,44480
2659,40192
2660,35840
2661,31872
2662,31744
2663,31232
2664,32128
2665,33408
2666,34880
2667,36096
2668,37696
2669,39040
2670,40000
2671,40448
2672,40640
2673,40704
2674,40384
2675,39680
2676,38976
2677,38720
2678,38272
2679,37760
2680,37120
2681,36416
2682,35776
2683,35008
2684,34368
2685,34048
2686,33792
2687,33600
2688,33280
2689,33152
2690,33344
2691,33600
2692,33792
2693,34048
2694,34752
2695,35328
2696,35584
2697,35776
2698,36032
2699,36544
2700,36864
2701,36992
2702,37056
2703,36992
2704,36800
2705,36992
2706,37504
2707,37504
2708,37120
2709,36736
2710,36480
2711,36352
2712,36288
2713,35968
2714,35968
2715,35968
2716,35968
2717,35520
2718,35200
2719,35200
2720,34944
2721,34560
2722,34368
2723,34304
2724,34240
2725,34304
2726,34304
2727,34176
2728,34112
2729,34176
2730,34368
2731,34560
2732,34688
2733,34752
2734,34688
2735,34688
2736,34944
2737,34944
2738,35008
2739,34944
2740,35008
2741,34752
2742,34368
2743,34176
2744,34240
2745,34176
2746,34176
2747,33856
2748,33664
2749,33536
2750,33344
2751,33152
2752,33152
2753,33536
2754,33664
2755,33728
2756,33856
2757,33664
2758,33344
2759,33152
2760,33344
2761,33792
2762,33984
2763,33920
2764,33856
2765,33920
2766,33920
2767,34048
2768,34304
2769,34368
2770,34368
2771,34240
2772,34240
2773,34432
2774,34560
2775,34368
2776,34112
2777,33856
2778,33728
2779,33728
2780,33792
2781,33856
2782,33984
2783,34368
2784,34688
2785,34816
2786,34688
2787,34560
2788,34368
2789,34496
2790,34624
2791,34688
2792,34688
2793,34624
2794,34432
2795,34432
2796,34176
2797,34048
2798,33920
2799,33856
2800,33664
2801,33344
2802,33280
2803,33600
2804,33728
2805,33472
2806,33280
2807,33280
2808,33216
2809,33088
2810,33152
2811,33216
2812,33216
2813,33344
2814,33472
2815,33664
2816,33792
2817,33728
2818,34304
2819,35776
2820,37632
2821,39936
2822,42752
2823,45056
2824,46016
2825,44864
2826,41472
2827,37888
2828,34048
2829,31040
2830,29312
2831,28608
2832,28608
2833,29184
2834,30272
2835,31168
2836,32000
2837,32640
2838,33024
2839,33536
2840,34176
2841,34752
2842,35136
2843,35456
2844,35776
2845,36160
2846,36416
2847,36608
2848,36672
2849,36928
2850,37376
2851,37568
2852,37696
2853,37888
2854,37952
2855,37952
2856,37952
2857,38144
2858,38208
2859,38080
2860,38080
2861,38208
2862,38464
2863,38656
2864,38976
2865,39424
2866,39936
2867,40320
2868,40640
2869,40960
2870,41344
2871,41600
2872,41600
2873,41472
2874,41472
2875,41408
2876,41280
2877,41408
2878,41472
2879,41344
2880,40896
2881,40192
2882,39104
2883,37568
2884,36096
2885,35072
2886,34432
2887,34048
2888,34112
2889,34432
2890,34560
2891,34688
2892,34944
2893,35264
2894,35904
2895,36544
2896,37184
2897,37888
2898,38464
2899,38592
2900,38272
2901,37632
2902,36992
2903,36544
2904,36288
2905,36288
2906,36608
2907,37184
2908,38080
2909,39040
2910,40192
2911,41408
2912,42368
2913,43072
2914,43584
2915,43712
2916,43392
2917,42560
2918,41536
2919,40640
2920,39680
2921,38720
2922,37696
2923,36480
2924,35520
2925,34240
2926,33152
2927,32384
2928,32064
2929,31936
2930,31936
2931,32000
2932,31872
2933,31552
2934,31040
2935,30528
2936,30016
2937,29376
2938,28800
2939,28224
2940,27776
2941,27520
2942,27520
2943,27456
2944,27648
2945,28032
2946,28544
2947,29248
2948,30016
2949,30784
2950,31488
2951,32128
2952,32640
2953,32896
2954,32832
2955,32640
2956,32384
2957,32192
2958,31936
2959,31488
2960,31104
2961,30848
2962,30656
2963,30528
2964,30464
2965,30592
2966,30848
2967,30912
2968,30848
2969,30848
2970,30976
2971,31104
2972,31040
2973,30912
2974,30784
2975,30592
2976,30400
2977,30528
2978,30976
2979,32064
2980,33920
2981,36416
2982,39040
2983,40896
2984,41408
2985,40384
2986,37952
2987,34496
2988,30848
2989,28096
2990,26304
2991,25408
2992,25088
2993,25344
2994,26048
2995,26944
2996,27776
2997,28608
2998,29440
2999,30208
3000,30784
3001,30976
3002,31168
3003,31360
3004,31552
3005,31488
3006,31360
3007,31232
3008,31104
3009,30976
3010,31040
3011,31168
3012,31360
3013,31488
3014,31680
3015,31872
3016,31872
3017,31872
3018,31680
3019,31488
3020,31296
3021,31168
3022,31040
3023,30976
3024,31104
3025,31104
3026,31104
3027,31104
3028,31296
3029,31424
3030,31616
3031,31808
3032,32064
3033,32256
3034,32448
3035,32448
3036,32384
3037,32320
3038,32256
3039,32192
3040,32192
3041,32256
3042,32192
3043,32192
3044,32320
3045,32384
3046,32384
3047,32384
3048,32512
3049,32640
3050,32704
3051,32832
3052,32832
3053,32832
3054,32832
3055,32832
3056,32896
3057,33088
3058,33216
3059,33280
3060,33344
3061,33344
3062,33408
3063,33280
3064,33024
3065,32896
3066,32832
3067,32832
3068,32896
3069,33088
3070,33344
3071,33408
3072,33408
3073,33408
3074,33344
3075,33280
3076,33280
3077,33408
3078,33664
3079,33792
3080,33856
3081,33920
3082,34048
3083,34240
3084,34304
3085,34240
3086,34112
3087,33920
3088,33728
3089,33664
3090,33728
3091,33664
3092,33536
3093,33344
3094,33216
3095,33152
3096,33152
3097,33280
3098,33472
3099,33600
3100,33600
3101,33536
3102,33536
3103,33728
3104,33920
3105,34048
3106,34240
3107,34496
3108,34560
3109,34560
3110,34496
3111,34496
3112,34368
3113,34176
3114,33984
3115,33856
3116,33792
3117,33664
3118,33600
3119,33600
3120,33600
3121,33664
3122,33728
3123,33856
3124,33856
3125,33792
3126,33728
3127,33728
3128,33856
3129,33856
3130,33664
3131,33536
3132,33408
3133,33472
3134,33664
3135,34240
3136,35200
3137,36736
3138,38976
3139,41728
3140,44224
3141,45568
3142,45248
3143,43008
3144,39488
3145,35648
3146,32320
3147,29952
3148,28608
3149,28096
3150,28288
3151,28864
3152,29632
3153,30592
3154,31488
3155,32320
3156,33024
3157,33600
3158,34048
3159,34368
3160,34624
3161,34752
3162,34816
3163,34816
3164,34816
3165,34752
3166,34688
3167,34624
3168,34560
3169,34560
3170,34560
3171,34496
3172,34432
3173,34432
3174,34496
3175,34496
3176,34496
3177,34688
3178,34752
3179,34624
3180,34432
3181,34432
3182,34496
3183,34560
3184,34496
3185,34368
3186,34368
3187,34304
3188,34176
3189,34112
3190,34112
3191,34304
3192,34368
3193,34432
3194,34496
3195,34624
3196,34688
3197,34752
3198,34944
3199,35008
3200,34880
3201,34816
3202,34880
3203,34944
3204,34880
3205,34752
3206,34688
3207,34688
3208,34688
3209,34560
3210,34368
3211,34304
3212,34240
3213,34176
3214,34112
3215,34048
3216,34048
3217,34112
3218,34048
3219,33856
3220,33728
3221,33664
3222,33536
3223,33536
3224,33664
3225,33792
3226,33920
3227,34112
3228,34240
3229,34240
3230,34176
3231,34112
3232,34176
3233,34368
3234,34304
3235,34176
3236,34112
3237,34112
3238,33984
3239,33920
3240,33856
3241,33920
3242,33984
3243,33984
3244,34048
3245,34112
3246,34048
3247,33920
3248,33920
3249,33984
3250,33984
3251,33984
3252,34048
3253,34304
3254,34560
3255,34624
3256,34560
3257,34496
3258,34496
3259,34432
3260,34432
3261,34368
3262,34368
3263,34432
3264,34496
3265,34496
3266,34432
3267,34240
3268,33984
3269,33856
3270,33856
3271,33728
3272,33536
3273,33344
3274,33216
3275,33152
3276,33216
3277,33344
3278,33536
3279,33728
3280,33792
3281,33792
3282,33792
3283,33792
3284,33792
3285,33792
3286,33792
3287,33728
3288,33664
3289,33728
3290,34112
3291,34816
3292,36032
3293,37632
3294,40064
3295,42816
3296,44992
3297,45888
3298,44864
3299,42176
3300,38336
3301,34432
3302,31232
3303,29184
3304,28096
3305,27968
3306,28352
3307,29184
3308,30080
3309,30912
3310,31680
3311,32576
3312,33408
3313,33792
3314,33920
3315,34176
3316,34304
3317,34304
3318,34240
3319,34304
3320,34304
3321,34240
3322,34176
3323,34112
3324,33984
3325,33920
3326,33856
3327,33792
3328,33792
3329,33856
3330,33856
3331,33792
3332,33856
3333,33920
3334,33984
3335,34048
3336,34112
3337,34176
3338,34176
3339,34112
3340,34176
3341,34176
3342,34112
3343,33984
3344,33920
3345,33856
3346,33856
3347,33856
3348,33920
3349,34112
3350,34176
3351,34112
3352,34112
3353,34240
3354,34432
3355,34496
3356,34560
3357,34624
3358,34624
3359,34496
3360,34368
3361,34368
3362,34432
3363,34432
3364,34368
3365,34368
3366,34368
3367,34304
3368,34240
3369,34176
3370,34176
3371,34112
3372,33984
3373,33920
3374,33920
3375,33920
3376,33856
3377,33856
3378,33920
3379,34048
3380,34048
3381,34048
3382,34176
3383,34240
3384,34240
3385,34240
3386,34304
3387,34368
3388,34368
3389,34368
3390,34304
3391,34240
3392,34240
3393,34176
3394,34240
3395,34304
3396,34304
3397,34240
3398,34176
3399,34240
3400,34240
3401,34176
3402,34176
3403,34176
3404,34112
3405,34048
3406,33984
3407,33984
3408,33984
3409,33984
3410,33920
3411,33920
3412,34048
3413,34176
3414,34304
3415,34496
3416,34752
3417,34880
3418,34816
3419,34752
3420,34688
3421,34688
3422,34560
3423,34560
3424,34560
3425,34496
3426,34368
3427,34240
3428,34112
3429,33984
3430,33856
3431,33728
3432,33664
3433,33536
3434,33344
3435,33280
3436,33344
3437,33472
3438,33600
3439,33728
3440,33792
3441,33856
3442,33920
3443,33856
3444,33856
3445,33856
3446,33792
3447,33600
3448,33600
3449,33984
3450,34624
3451,35840
3452,37696
3453,40192
3454,43072
3455,45120
3456,45696
3457,44416
3458,41536
3459,37696
3460,33856
3461,30912
3462,29120
3463,28288
3464,28160
3465,28608
3466,29504
3467,30464
3468,31296
3469,32128
3470,32832
3471,33408
3472,33728
3473,33984
3474,34176
3475,34432
3476,34496
3477,34560
3478,34560
3479,34560
3480,34304
3481,34112
3482,33856
3483,33792
3484,33728
3485,33664
3486,33536
3487,33536
3488,33536
3489,33472
3490,33408
3491,33536
3492,33600
3493,33728
3494,33856
3495,34048
3496,34176
3497,34304
3498,34304
3499,34304
3500,34368
3501,34368
3502,34176
3503,34176
3504,34048
3505,33984
3506,33856
3507,33984
3508,34112
3509,34240
3510,34304
3511,34432
3512,34496
3513,34496
3514,34496
3515,34624
3516,34752
3517,34880
3518,34816
3519,34816
3520,34880
3521,34880
3522,34688
3523,34560
3524,34560
3525,34432
3526,34240
3527,34048
3528,33920
3529,33856
3530,33856
3531,33984
3532,34112
3533,34176
3534,34176
3535,34176
3536,34176
3537,34112
3538,33984
3539,33920
3540,33984
3541,34112
3542,34176
3543,34240
3544,34240
3545,34368
3546,34432
3547,34368
3548,34368
3549,34432
3550,34560
3551,34624
3552,34624
3553,34624
3554,34688
3555,34560
3556,34432
3557,34304
3558,34304
3559,34240
3560,34240
3561,34368
3562,34560
3563,34624
3564,34496
3565,34432
3566,34432
3567,34432
3568,34368
3569,34368
3570,34432
3571,34496
3572,34560
3573,34432
3574,34304
3575,34240
3576,34368
3577,34496
3578,34560
3579,34560
3580,34560
3581,34496
3582,34496
3583,34496
3584,34496
3585,34560
3586,34624
3587,34560
3588,34432
3589,34304
3590,34240
3591,34176
3592,34112
3593,33920
3594,33792
3595,33856
3596,33856
3597,33664
3598,33536
3599,33600
3600,33664
3601,33728
3602,33728
3603,33792
3604,33920
3605,33920
3606,33792
3607,33792
3608,33792
3609,33664
3610,33728
3611,34112
3612,34880
3613,36160
3614,38144
3615,40768
3616,43392
3617,44800
3618,44672
3619,42752
3620,39680
3621,36032
3622,32768
3623,30272
3624,28672
3625,27840
3626,27776
3627,28352
3628,29248
3629,30272
3630,31232
3631,32000
3632,32640
3633,33152
3634,33472
3635,33728
3636,33920
3637,34048
3638,34176
3639,34112
3640,34112
3641,34112
3642,34048
3643,33856
3644,33664
3645,33664
3646,33664
3647,33600
3648,33600
3649,33536
3650,33472
3651,33344
3652,33280
3653,33280
3654,33472
3655,33536
3656,33472
3657,33536
3658,33536
3659,33536
3660,33472
3661,33536
3662,33664
3663,33664
3664,33536
3665,33472
3666,33472
3667,33536
3668,33600
3669,33664
3670,33792
3671,33920
3672,33856
3673,33792
3674,33792
3675,33792
3676,33792
3677,33792
3678,33920
3679,33920
3680,33792
3681,33792
3682,33856
3683,34048
3684,34176
3685,34112
3686,34112
3687,34112
3688,34112
3689,34048
3690,34048
3691,34048
3692,33984
3693,33856
3694,33728
3695,33664
3696,33664
3697,33664
3698,33728
3699,33856
3700,33920
3701,34048
3702,34112
3703,34048
3704,34048
3705,34048
3706,33984
3707,34048
3708,34240
3709,34240
3710,34240
3711,34304
3712,34304
3713,34240
3714,34176
3715,34112
3716,34112
3717,34112
3718,34112
3719,34112
3720,34048
3721,34048
3722,33984
3723,33984
3724,34112
3725,34304
3726,34112
3727,33920
3728,33856
3729,33920
3730,34112
3731,34304
3732,34560
3733,34816
3734,35008
3735,35008
3736,35008
3737,35072
3738,35072
3739,35072
3740,35072
3741,35200
3742,35136
3743,34880
3744,34624
3745,34368
3746,34112
3747,33856
3748,33728
3749,33664
3750,33472
3751,33152
3752,32896
3753,32832
3754,32960
3755,33152
3756,33216
3757,33344
3758,33472
3759,33536
3760,33536
3761,33600
3762,33792
3763,33920
3764,33920
3765,33920
3766,34048
3767,34432
3768,35072
3769,36224
3770,38144
3771,40704
3772,43456
3773,45312
3774,45760
3775,44416
3776,41408
3777,37504
3778,33792
3779,30912
3780,29120
3781,28224
3782,28096
3783,28544
3784,29312
3785,30080
3786,30848
3787,31680
3788,32448
3789,33024
3790,33408
3791,33792
3792,34048
3793,34240
3794,34304
3795,34432
3796,34496
3797,34432
3798,34368
3799,34304
3800,34304
3801,34240
3802,34048
3803,33792
3804,33600
3805,33408
3806,33344
3807,33344
3808,33472
3809,33664
3810,33856
3811,33984
3812,34112
3813,34176
3814,34240
3815,34240
3816,34304
3817,34368
3818,34176
3819,34048
3820,33984
3821,33984
3822,34048
3823,34176
3824,34240
3825,34176
3826,34048
3827,33984
3828,34048
3829,34176
3830,34240
3831,34176
3832,34112
3833,34176
3834,34240
3835,34304
3836,34368
3837,34432
3838,34560
3839,34560
3840,34560
3841,34432
3842,34368
3843,34176
3844,34048
3845,34048
3846,34048
3847,33984
3848,33920
3849,33984
3850,33920
3851,33792
3852,33664
3853,33664
3854,33728
3855,33792
3856,33792
3857,33856
3858,33920
3859,33920
3860,33984
3861,34048
3862,34112
3863,34176
3864,34176
3865,34176
3866,34240
3867,34240
3868,34176
3869,34176
3870,34240
3871,34240
3872,34112
3873,34048
3874,33984
3875,34048
3876,34112
3877,34048
3878,33984
3879,33984
3880,34048
3881,34112
3882,34176
3883,34240
3884,34304
3885,34368
3886,34368
3887,34560
3888,34688
3889,34816
3890,34880
3891,34880
3892,34944
3893,35072
3894,35136
3895,35136
3896,35200
3897,35136
3898,35072
3899,35072
3900,34880
3901,34560
3902,34304
3903,34112
3904,33984
3905,33920
3906,33792
3907,33728
3908,33792
3909,33792
3910,33664
3911,33600
3912,33728
3913,33920
3914,33984
3915,33920
3916,33920
3917,33920
3918,33856
3919,33792
3920,33792
3921,33792
3922,33856
3923,34112
3924,34560
3925,35456
3926,36928
3927,39104
3928,41856
3929,44416
3930,45824
3931,45248
3932,43008
3933,39360
3934,35392
3935,31936
3936,29696
3937,28544
3938,28160
3939,28352
3940,29056
3941,29952
3942,30848
3943,31616
3944,32256
3945,32896
3946,33408
3947,33856
3948,34112
3949,34368
3950,34560
3951,34624
3952,34560
3953,34432
3954,34304
3955,34112
3956,33920
3957,33792
3958,33792
3959,33728
3960,33664
3961,33600
3962,33664
3963,33664
3964,33664
3965,33792
3966,33920
3967,34048
3968,34048
3969,34048
3970,34048
3971,34176
3972,34240
3973,34112
3974,34048
3975,34048
3976,33984
3977,33920
3978,33856
3979,33856
3980,33920
3981,34048
3982,34112
3983,34176
3984,34112
3985,34048
3986,34048
3987,34112
3988,34240
3989,34368
3990,34496
3991,34624
3992,34624
3993,34560
3994,34624
3995,34624
3996,34496
3997,34304
3998,34112
3999,34048
4000,34048
4001,34048
4002,33984
4003,33920
4004,33984
4005,34112
4006,34176
4007,34176
4008,34176
4009,33984
4010,33920
4011,33920
4012,34048
4013,34112
4014,34112
4015,34048
4016,34112
4017,34240
4018,34304
4019,34304
4020,34368
4021,34496
4022,34560
4023,34560
4024,34624
4025,34624
4026,34560
4027,34496
4028,34496
4029,34432
4030,34368
4031,34304
4032,34304
4033,34304
4034,34176
4035,34112
4036,33984
4037,34048
4038,34112
4039,34112
4040,33984
4041,33984
4042,34048
4043,34176
4044,34304
4045,34432
4046,34560
4047,34624
4048,34752
4049,34752
4050,34816
4051,34880
4052,34944
4053,35008
4054,35008
4055,35008
4056,34752
4057,34560
4058,34496
4059,34368
4060,34176
4061,34112
4062,33984
4063,33728
4064,33472
4065,33216
4066,33152
4067,33280
4068,33408
4069,33536
4070,33664
4071,33856
4072,33984
4073,34048
4074,34112
4075,34176
4076,34240
4077,34112
4078,34048
4079,34112
4080,34304
4081,34688
4082,35456
4083,36928
4084,39104
4085,41792
4086,44352
4087,45760
4088,45632
4089,43456
4090,39872
4091,35776
4092,32320
4093,29888
4094,28544
4095,28096
4096,28352
4097,29248
4098,29888
4099,30784
4100,31680
4101,32448
4102,33088
4103,33472
4104,33856
4105,34176
4106,34368
4107,34368
4108,34368
4109,34368
4110,34240
4111,34240
4112,34112
4113,33984
4114,33856
4115,33664
4116,33664
4117,33792
4118,33792
4119,33664
4120,33664
4121,33728
4122,33792
4123,33920
4124,33920
4125,33984
4126,34048
4127,33984
4128,33984
4129,33984
4130,34048
4131,33984
4132,33920
4133,33920
4134,33984
4135,34048
4136,33984
4137,33984
4138,33920
4139,33792
4140,33728
4141,33856
4142,34048
4143,34048
4144,33856
4145,33856
4146,33984
4147,34112
4148,34240
4149,34304
4150,34432
4151,34496
4152,34432
4153,34432
4154,34432
4155,34368
4156,34240
4157,34112
4158,34112
4159,34112
4160,33920
4161,33792
4162,33856
4163,33920
4164,33984
4165,33920
4166,33856
4167,33920
4168,33920
4169,33920
4170,34048
4171,34240
4172,34304
4173,34240
4174,34240
4175,34368
4176,34560
4177,34560
4178,34496
4179,34432
4180,34368
4181,34304
4182,34240
4183,34304
4184,34304
4185,34304
4186,34304
4187,34368
4188,34368
4189,34240
4190,34176
4191,34240
4192,34304
4193,34240
4194,34112
4195,34048
4196,34112
4197,34304
4198,34368
4199,34496
4200,34688
4201,34752
4202,34688
4203,34624
4204,34752
4205,34944
4206,34816
4207,34752
4208,34816
4209,34944
4210,34944
4211,34816
4212,34688
4213,34560
4214,34368
4215,34176
4216,34112
4217,33984
4218,33664
4219,33344
4220,33280
4221,33344
4222,33600
4223,33664
4224,33728
4225,33984
4226,34176
4227,34112
4228,34048
4229,33984
4230,33984
4231,34048
4232,33984
4233,33920
4234,33984
4235,34432
4236,35264
4237,38528
4238,41152
4239,43776
4240,45248
4241,45312
4242,43456
4243,40000
4244,36032
4245,32576
4246,30144
4247,28672
4248,28160
4249,28416
4250,29056
4251,29952
4252,30848
4253,30976
4254,32512
4255,32960
4256,33344
4257,33728
4258,34176
4259,34432
4260,34560
4261,34560
4262,34432
4263,34240
4264,34112
4265,34112
4266,34176
4267,34112
4268,34112
4269,33920
4270,33792
4271,33792
4272,33728
4273,33664
4274,33728
4275,33792
4276,33792
4277,33856
4278,33920
4279,34048
4280,34240
4281,34304
4282,34240
4283,34240
4284,34112
4285,33984
4286,33984
4287,33984
4288,33984
4289,33984
4290,33984
4291,33920
4292,33856
4293,33728
4294,33728
4295,33792
4296,33984
4297,34112
4298,34176
4299,34304
4300,34368
4301,34368
4302,34432
4303,34496
4304,34560
4305,34496
4306,34304
4307,34240
4308,34176
4309,34048
4310,33984
4311,33984
4312,33920
4313,33856
4314,33728
4315,33728
4316,33728
4317,33792
4318,33856
4319,33984
4320,34048
4321,33984
4322,33984
4323,34112
4324,34304
4325,34368
4326,34368
4327,34368
4328,34240
4329,34176
4330,34176
4331,34240
4332,34240
4333,34176
4334,34112
4335,34048
4336,34112
4337,34176
4338,34240
4339,34304
4340,34432
4341,34368
4342,34304
4343,34240
4344,34176
4345,34368
4346,34560
4347,34560
4348,34560
4349,34496
4350,34496
4351,34560
4352,34624
4353,34624
4354,34688
4355,34624
4356,34560
4357,34560
4358,34496
4359,34368
4360,34240
4361,34112
4362,33920
4363,33664
4364,33408
4365,33216
4366,33152
4367,33216
4368,33280
4369,33216
4370,33280
4371,33344
4372,33280
4373,33408
4374,33600
4375,33728
4376,33728
4377,33728
4378,33664
4379,33728
4380,33728
4381,33728
4382,33984
4383,34496
4384,35520
4385,37120
4386,39744
4387,42496
4388,44352
4389,44800
4390,43584
4391,41152
4392,37696
4393,34176
4394,31232
4395,29440
4396,28480
4397,28096
4398,28352
4399,29056
4400,29888
4401,30912
4402,30976
4403,32320
4404,32896
4405,33472
4406,33856
4407,34176
4408,34432
4409,34496
4410,34432
4411,34304
4412,34176
4413,34176
4414,34048
4415,33856
4416,33600
4417,33536
4418,33408
4419,33280
4420,33152
4421,33152
4422,33152
4423,33216
4424,33344
4425,33472
4426,33472
4427,33472
4428,33536
4429,33600
4430,33600
4431,33664
4432,33664
4433,33664
4434,33536
4435,33344
4436,33280
4437,33344
4438,33472
4439,33472
4440,33664
4441,33792
4442,33792
4443,33664
4444,33536
4445,33536
4446,33728
4447,33664
4448,33920
4449,34048
4450,33984
4451,33920
4452,33920
4453,34048
4454,34176
4455,34304
4456,34304
4457,34304
4458,34432
4459,34368
4460,34176
4461,33984
4462,33984
4463,33984
4464,33856
4465,33792
4466,33856
4467,33984
4468,33984
4469,33984
4470,34112
4471,34176
4472,34176
4473,34176
4474,34240
4475,34304
4476,34304
4477,34176
4478,34240
4479,34368
4480,34368
4481,34432
4482,34432
4483,34496
4484,34432
4485,34368
4486,34368
4487,34432
4488,34432
4489,34304
4490,34240
4491,34304
4492,34240
4493,34368
4494,34304
4495,34432
4496,34560
4497,34560
4498,34560
4499,34560
4500,34560
4501,34560
4502,34560
4503,34560
4504,34624
4505,34688
4506,34496
4507,34240
4508,34176
4509,34112
4510,33856
4511,33664
4512,33472
4513,33344
4514,33280
4515,33344
4516,33536
4517,33600
4518,33472
4519,33472
4520,33600
4521,33664
4522,33600
4523,33664
4524,33792
4525,33920
4526,33856
4527,33664
4528,33536
4529,33536
4530,33856
4531,34432
4532,35392
4533,37120
4534,39552
4535,42368
4536,44928
4537,44864
4538,44544
4539,41856
4540,38144
4541,34368
4542,31360
4543,29312
4544,28224
4545,28032
4546,28416
4547,29056
4548,29888
4549,30784
4550,31552
4551,32192
4552,32768
4553,33280
4554,33664
4555,33920
4556,34112
4557,34176
4558,34240
4559,34240
4560,34112
4561,33984
4562,33920
4563,33856
4564,33728
4565,33536
4566,33472
4567,33472
4568,33344
4569,33216
4570,33280
4571,33408
4572,33472
4573,33600
4574,33792
4575,33920
4576,33920
4577,33984
4578,33984
4579,33984
4580,33984
4581,33920
4582,33856
4583,33984
4584,33920
4585,33856
4586,33792
4587,33856
4588,33856
4589,33792
4590,33728
4591,33792
4592,33856
4593,33984
4594,34048
4595,34176
4596,34368
4597,34304
4598,34368
4599,34368
4600,34432
4601,34496
4602,34496
4603,34496
4604,34496
4605,34368
4606,34240
4607,34112
4608,34112
4609,34048
4610,34112
4611,34112
4612,34176
4613,34176
4614,34048
4615,33920
4616,33920
4617,33920
4618,33920
4619,33920
4620,34112
4621,34240
4622,34304
4623,34304
4624,34304
4625,34368
4626,34432
4627,34368
4628,34368
4629,34432
4630,34304
4631,34240
4632,34176
4633,34304
4634,34368
4635,34368
4636,34368
4637,34432
4638,34496
4639,34432
4640,34432
4641,34624
4642,34560
4643,34688
4644,34688
4645,34688
4646,34752
4647,34752
4648,34688
4649,34752
4650,34880
4651,35008
4652,34944
4653,34688
4654,34496
4655,34240
4656,33984
4657,33920
4658,33792
4659,33728
4660,33600
4661,33472
4662,33408
4663,33408
4664,33472
4665,33600
4666,33728
4667,33856
4668,33920
4669,33920
4670,34048
4671,34176
4672,34176
4673,34112
4674,34048
4675,34048
4676,34048
4677,34240
4678,34816
4679,35904
4680,37504
4681,39936
4682,42496
4683,44800
4684,45760
4685,44928
4686,41216
4687,40960
4688,34624
4689,31552
4690,29440
4691,28352
4692,28160
4693,28480
4694,29184
4695,30016
4696,31040
4697,31808
4698,32512
4699,33152
4700,33600
4701,33984
4702,33920
4703,34176
4704,34240
4705,34240
4706,34240
4707,34176
4708,34176
4709,34048
4710,33920
4711,33792
4712,33792
4713,33728
4714,33664
4715,33664
4716,33792
4717,33792
4718,33792
4719,33856
4720,33984
4721,34112
4722,34176
4723,34176
4724,34176
4725,34240
4726,34240
4727,34240
4728,34176
4729,34112
4730,33984
4731,33792
4732,33728
4733,33792
4734,33920
4735,33984
4736,34176
4737,34304
4738,34304
4739,34112
4740,33984
4741,34048
4742,34176
4743,34240
4744,34368
4745,34432
4746,34560
4747,34496
4748,34432
4749,34432
4750,34432
4751,34432
4752,34368
4753,34240
4754,34240
4755,34240
4756,34240
4757,34176
4758,34112
4759,34112
4760,34048
4761,34048
4762,33984
4763,34112
4764,33984
4765,33984
4766,34048
4767,34176
4768,34368
4769,34496
4770,34496
4771,34496
4772,34304
4773,34176
4774,34176
4775,34368
4776,34432
4777,34368
4778,34304
4779,34432
4780,34496
4781,34496
4782,34496
4783,34496
4784,34432
4785,34304
4786,34240
4787,34240
4788,34240
4789,34240
4790,34240
4791,34560
4792,34496
4793,34752
4794,34688
4795,34688
4796,34752
4797,34816
4798,34816
4799,34880
4800,34944
4801,35072
4802,35072
4803,35008
4804,34880
4805,34752
4806,34560
4807,34432
4808,34240
4809,34112
4810,33920
4811,33856
4812,33728
4813,33600
4814,33472
4815,33472
4816,33536
4817,33728
4818,33856
4819,33984
4820,34048
4821,34112
4822,34176
4823,34176
4824,34176
4825,34112
4826,34048
4827,34112
4828,34496
4829,35328
4830,36864
4831,39104
4832,41792
4833,44352
4834,45696
4835,45248
4836,42944
4837,39424
4838,35520
4839,32192
4840,29888
4841,28672
4842,28352
4843,28544
4844,29120
4845,29952
4846,30912
4847,31744
4848,32512
4849,33152
4850,33728
4851,34176
4852,34304
4853,34240
4854,34304
4855,34304
4856,34240
4857,34240
4858,34240
4859,34176
4860,34048
4861,33920
4862,33856
4863,33920
4864,33792
4865,33792
4866,33792
4867,33856
4868,33792
4869,33728
4870,33792
4871,33920
4872,33984
4873,34048
4874,34048
4875,34176
4876,34176
4877,34048
4878,33984
4879,33984
4880,33984
4881,33920
4882,33920
4883,33984
4884,34048
4885,34048
4886,34176
4887,34240
4888,34304
4889,34368
4890,34240
4891,34176
4892,34176
4893,34240
4894,34176
4895,34240
4896,34368
4897,34432
4898,34240
4899,34176
4900,34240
4901,34304
4902,34240
4903,34304
4904,34368
4905,34432
4906,34304
4907,34240
4908,34176
4909,34112
4910,34048
4911,34048
4912,34112
4913,34112
4914,34048
4915,33984
4916,34048
4917,34240
4918,34240
4919,34240
4920,34176
4921,34240
4922,34304
4923,34240
4924,34304
4925,34496
4926,34496
4927,34368
4928,34304
4929,34368
4930,34432
4931,34432
4932,34304
4933,34176
4934,34176
4935,34176
4936,34048
4937,33984
4938,33984
4939,33984
4940,33856
4941,33792
4942,33856
4943,33920
4944,33984
4945,33984
4946,34112
4947,34240
4948,34304
4949,34368
4950,34496
4951,34624
4952,34624
4953,34624
4954,34688
4955,34752
4956,34752
4957,34880
4958,34944
4959,34752
4960,34432
4961,34112
4962,33920
4963,33856
4964,33792
4965,33600
4966,33472
4967,33472
4968,33536
4969,33728
4970,33792
4971,33856
4972,33856
4973,33856
4974,33920
4975,34048
4976,34176
4977,34304
4978,34304
4979,34240
4980,34048
4981,33984
4982,34240
4983,34880
4984,35968
4985,37696
4986,40000
4987,42688
4988,44736
4989,45376
4990,44160
4991,41344
4992,37632
4993,33984
4994,31104
4995,29376
4996,28480
4997,28352
4998,28800
4999,29568
5000,30464
5001,31232
5002,31872
5003,32448
5004,33024
5005,33600
5006,33920
5007,34112
5008,34368
5009,34624
5010,34624
5011,34432
5012,34304
5013,34176
5014,34112
5015,33984
5016,33920
5017,33920
5018,33792
5019,33664
5020,33600
5021,33600
5022,33664
5023,33664
5024,33664
5025,33728
5026,33792
5027,33792
5028,33792
5029,33920
5030,34048
5031,34048
5032,33984
5033,33984
5034,33920
5035,33856
5036,33792
5037,33792
5038,33792
5039,33856
5040,33920
5041,33920
5042,34048
5043,34176
5044,34176
5045,34176
5046,34240
5047,34240
5048,34240
5049,34304
5050,34368
5051,34368
5052,34368
5053,34368
5054,34368
5055,34368
5056,34368
5057,34368
5058,34368
5059,34368
5060,34304
5061,34176
5062,34112
5063,34112
5064,34112
5065,33984
5066,33984
5067,33984
5068,34112
5069,34112
5070,34048
5071,33984
5072,34048
5073,33984
5074,34048
5075,34176
5076,34368
5077,34304
5078,34176
5079,34240
5080,34304
5081,34368
5082,34432
5083,34560
5084,34560
5085,34432
5086,34368
5087,34368
5088,34368
5089,34240
5090,34048
5091,33984
5092,34048
5093,34240
5094,34368
5095,34496
5096,34624
5097,34752
5098,34752
5099,34752
5100,34816
5101,34816
5102,34816
5103,34816
5104,34880
5105,34944
5106,34752
5107,34496
5108,34240
5109,34112
5110,33984
5111,33792
5112,33728
5113,33728
5114,33600
5115,33472
5116,33408
5117,33536
5118,33600
5119,33600
5120,33600
5121,33728
5122,33792
5123,33728
5124,33664
5125,33728
5126,33728
5127,33664
5128,33792
5129,34176
5130,34944
5131,36288
5132,38336
5133,41088
5134,43648
5135,44928
5136,44608
5137,42752
5138,39808
5139,36160
5140,32832
5141,30464
5142,29056
5143,28352
5144,28352
5145,28736
5146,29568
5147,30528
5148,31296
5149,32064
5150,32768
5151,33344
5152,33664
5153,33984
5154,34240
5155,34368
5156,34304
5157,34240
5158,34240
5159,34304
5160,34176
5161,34112
5162,33984
5163,33792
5164,33600
5165,33408
5166,33344
5167,33280
5168,33344
5169,33344
5170,33472
5171,33600
5172,33600
5173,33600
5174,33600
5175,33664
5176,33664
5177,33728
5178,33728
5179,33728
5180,33728
5181,33664
5182,33728
5183,33920
5184,34048
5185,34048
5186,33984
5187,33920
5188,33856
5189,33856
5190,33792
5191,33728
5192,33792
5193,33856
5194,33920
5195,33920
5196,33920
5197,33984
5198,34048
5199,34112
5200,34112
5201,34112
5202,34112
5203,34112
5204,34176
5205,34240
5206,34112
5207,33920
5208,33792
5209,33792
5210,33856
5211,33920
5212,33920
5213,33984
5214,33920
5215,33792
5216,33792
5217,33920
5218,34048
5219,33984
5220,33920
5221,33984
5222,34048
5223,33984
5224,33920
5225,34048
5226,34112
5227,34112
5228,34048
5229,34112
5230,34176
5231,34240
5232,34240
5233,34240
5234,34368
5235,34432
5236,34432
5237,34368
5238,34496
5239,34624
5240,34560
5241,34496
5242,34496
5243,34496
5244,34432
5245,34496
5246,34560
5247,34560
5248,34624
5249,34624
5250,34624
5251,34560
5252,34368
5253,34240
5254,34176
5255,34112
5256,34048
5257,33792
5258,33664
5259,33664
5260,33600
5261,33472
5262,33408
5263,33408
5264,33536
5265,33600
5266,33728
5267,33856
5268,33792
5269,33664
5270,33600
5271,33664
5272,33728
5273,33728
5274,33920
5275,34432
5276,35264
5277,36608
5278,38720
5279,41472
5280,44032
5281,45376
5282,44992
5283,42880
5284,39616
5285,35904
5286,32512
5287,30080
5288,28736
5289,28160
5290,28160
5291,28736
5292,29632
5293,30656
5294,31488
5295,32128
5296,32768
5297,33344
5298,33728
5299,34048
5300,34304
5301,34496
5302,34432
5303,34304
5304,34176
5305,34112
5306,34048
5307,33984
5308,33856
5309,33728
5310,33536
5311,33472
5312,33408
5313,33472
5314,33536
5315,33600
5316,33600
5317,33728
5318,33856
5319,33920
5320,33856
5321,33792
5322,33856
5323,33856
5324,33728
5325,33664
5326,33728
5327,33664
5328,33728
5329,33792
5330,33920
5331,34048
5332,34176
5333,34240
5334,34176
5335,34048
5336,33984
5337,34048
5338,34112
5339,34112
5340,34112
5341,34048
5342,34176
5343,34240
5344,34304
5345,34304
5346,34496
5347,34560
5348,34496
5349,34368
5350,34368
5351,34432
5352,34496
5353,34496
5354,34432
5355,34240
5356,34048
5357,33856
5358,33856
5359,33920
5360,33984
5361,33920
5362,33984
5363,34176
5364,34304
5365,34304
5366,34304
5367,34368
5368,34432
5369,34496
5370,34560
5371,34560
5372,34560
5373,34496
5374,34432
5375,34432
5376,34496
5377,34432
5378,34368
5379,34240
5380,34240
5381,34368
5382,34368
5383,34432
5384,34496
5385,34624
5386,34688
5387,34752
5388,34688
5389,34752
5390,34816
5391,34880
5392,34880
5393,34816
5394,34816
5395,34816
5396,34880
5397,34944
5398,34816
5399,34624
5400,34432
5401,34240
5402,34112
5403,33856
5404,33728
5405,33664
5406,33600
5407,33472
5408,33472
5409,33600
5410,33792
5411,33920
5412,33984
5413,34048
5414,34112
5415,34176
5416,34240
5417,34368
5418,34304
5419,34304
5420,34304
5421,34560
5422,35328
5423,36736
5424,38912
5425,41536
5426,44096
5427,45440
5428,45056
5429,42880
5430,39424
5431,35392
5432,32192
5433,29824
5434,28544
5435,28160
5436,28288
5437,28864
5438,29760
5439,30656
5440,31552
5441,32320
5442,32832
5443,33280
5444,33664
5445,33856
5446,33984
5447,34048
5448,33984
5449,33984
5450,33920
5451,33920
5452,33792
5453,33600
5454,33472
5455,33408
5456,33344
5457,33344
5458,33344
5459,33472
5460,33536
5461,33600
5462,33664
5463,33664
5464,33600
5465,33536
5466,33408
5467,33408
5468,33472
5469,33408
5470,33408
5471,33408
5472,33344
5473,33216
5474,33152
5475,33152
5476,33216
5477,33344
5478,33408
5479,33536
5480,33728
5481,33856
5482,33920
5483,33856
5484,33856
5485,33856
5486,33920
5487,33920
5488,34048
5489,34176
5490,34304
5491,34432
5492,34496
5493,34432
5494,34368
5495,34304
5496,34240
5497,34240
5498,34112
5499,33984
5500,33984
5501,34112
5502,34112
5503,34048
5504,34048
5505,34112
5506,34176
5507,34176
5508,34304
5509,34432
5510,34560
5511,34624
5512,34624
5513,34688
5514,34752
5515,34816
5516,34880
5517,34880
5518,34944
5519,34944
5520,34880
5521,34880
5522,34880
5523,34816
5524,34752
5525,34688
5526,34688
5527,34688
5528,34688
5529,34624
5530,34752
5531,34944
5532,35072
5533,35008
5534,35008
5535,35008
5536,35008
5537,35072
5538,35136
5539,35264
5540,35264
5541,35328
5542,35456
5543,35520
5544,35328
5545,35072
5546,34816
5547,34560
5548,34432
5549,34176
5550,33984
5551,33920
5552,33920
5553,33856
5554,33920
5555,33984
5556,34240
5557,34368
5558,34432
5559,34432
5560,34368
5561,34304
5562,34112
5563,34048
5564,34048
5565,33984
5566,33984
5567,34176
5568,34624
5569,35456
5570,36800
5571,38848
5572,41600
5573,44352
5574,45952
5575,46016
5576,44224
5577,40896
5578,36864
5579,33088
5580,30400
5581,28672
5582,28160
5583,28288
5584,28928
5585,29760
5586,30656
5587,31488
5588,32192
5589,32768
5590,33280
5591,33600
5592,33856
5593,34112
5594,34176
5595,34240
5596,34304
5597,34368
5598,34304
5599,34176
5600,34176
5601,34176
5602,34048
5603,33920
5604,33856
5605,33856
5606,33920
5607,33920
5608,33920
5609,33984
5610,34112
5611,34176
5612,34176
5613,34112
5614,33984
5615,33856
5616,33856
5617,33856
5618,33920
5619,33984
5620,33920
5621,33984
5622,34176
5623,34304
5624,34304
5625,34240
5626,34176
5627,34176
5628,34112
5629,34112
5630,34112
5631,34176
5632,34176
5633,34304
5634,34368
5635,34368
5636,34368
5637,34368
5638,34368
5639,34368
5640,34240
5641,34176
5642,34112
5643,34240
5644,34304
5645,34240
5646,34240
5647,34240
5648,34176
5649,34112
5650,34176
5651,34304
5652,34304
5653,34240
5654,34176
5655,34176
5656,34240
5657,34240
5658,34304
5659,34496
5660,34624
5661,34624
5662,34368
5663,34304
5664,34304
5665,34368
5666,34432
5667,34496
5668,34496
5669,34496
5670,34432
5671,34496
5672,34560
5673,34560
5674,34496
5675,34432
5676,34496
5677,34496
5678,34496
5679,34368
5680,34368
5681,34496
5682,34624
5683,34816
5684,34944
5685,35008
5686,34880
5687,34880
5688,34944
5689,35008
5690,35072
5691,35136
5692,35136
5693,35072
5694,34880
5695,34624
5696,34560
5697,34368
5698,34176
5699,34048
5700,33920
5701,33728
5702,33664
5703,33536
5704,33536
5705,33664
5706,33856
5707,33792
5708,33728
5709,33664
5710,33728
5711,33728
5712,33792
5713,33856
5714,33984
5715,33984
5716,34112
5717,34368
5718,35072
5719,36160
5720,37952
5721,40384
5722,43200
5723,45120
5724,45760
5725,44480
5726,41600
5727,37568
5728,33728
5729,30592
5730,28992
5731,28288
5732,28224
5733,28608
5734,29312
5735,30144
5736,31040
5737,31936
5738,32640
5739,33216
5740,33664
5741,33984
5742,34240
5743,34496
5744,34688
5745,34624
5746,34432
5747,34176
5748,34112
5749,34048
5750,33856
5751,33664
5752,33600
5753,33536
5754,33600
5755,33664
5756,33728
5757,33664
5758,33664
5759,33728
5760,33792
5761,33856
5762,33856
5763,33792
5764,33856
5765,33920
5766,33920
5767,33920
5768,33856
5769,33856
5770,33792
5771,33792
5772,33856
5773,33856
5774,33856
5775,33856
5776,33920
5777,33920
5778,33856
5779,33856
5780,33856
5781,33920
5782,33984
5783,34048
5784,33984
5785,34112
5786,34240
5787,34304
5788,34304
5789,34368
5790,34368
5791,34304
5792,34240
5793,34240
5794,34176
5795,34112
5796,34048
5797,34112
5798,34176
5799,34112
5800,34048
5801,34048
5802,34048
5803,33984
5804,33984
5805,34048
5806,34176
5807,34304
5808,34304
5809,34176
5810,34112
5811,33984
5812,33920
5813,34048
5814,34240
5815,34240
5816,34048
5817,33984
5818,34112
5819,34176
5820,34048
5821,33984
5822,34048
5823,34112
5824,34176
5825,34368
5826,34496
5827,34560
5828,34624
5829,34624
5830,34496
5831,34560
5832,34560
5833,34496
5834,34560
5835,34752
5836,34880
5837,34752
5838,34496
5839,34240
5840,34048
5841,33856
5842,33664
5843,33536
5844,33408
5845,33280
5846,33088
5847,33088
5848,33216
5849,33216
5850,33216
5851,33280
5852,33408
5853,33408
5854,33344
5855,33408
5856,33536
5857,33600
5858,33664
5859,33664
5860,33600
5861,33664
5862,34048
5863,35008
5864,36736
5865,39168
5866,41984
5867,44288
5868,45312
5869,44544
5870,42112
5871,38528
5872,34880
5873,31808
5874,29760
5875,28608
5876,28288
5877,28544
5878,29184
5879,30080
5880,31040
5881,31936
5882,32768
5883,33216
5884,33664
5885,34112
5886,34368
5887,34624
5888,34624
5889,34624
5890,34496
5891,34432
5892,34368
5893,34368
5894,34368
5895,34304
5896,34240
5897,34176
5898,34112
5899,33984
5900,33792
5901,33792
5902,33856
5903,33856
5904,33920
5905,33920
5906,34048
5907,34048
5908,34112
5909,34240
5910,34240
5911,34240
5912,34112
5913,34176
5914,34240
5915,34240
5916,33984
5917,33856
5918,33920
5919,34176
5920,34304
5921,34240
5922,34112
5923,33984
5924,33920
5925,33856
5926,33920
5927,34048
5928,34176
5929,34240
5930,34368
5931,34432
5932,34496
5933,34560
5934,34624
5935,34496
5936,34304
5937,34176
5938,34176
5939,34240
5940,34240
5941,34240
5942,34240
5943,34368
5944,34496
5945,34496
5946,34496
5947,34496
5948,34496
5949,34432
5950,34304
5951,34304
5952,34432
5953,34432
5954,34368
5955,34368
5956,34368
5957,34368
5958,34368
5959,34432
5960,34496
5961,34368
5962,34304
5963,34240
5964,34304
5965,34432
5966,34496
5967,34496
5968,34624
5969,34624
5970,34688
5971,34816
5972,34944
5973,35008
5974,35008
5975,34944
5976,34880
5977,34816
5978,34688
5979,34752
5980,34880
5981,34816
5982,34624
5983,34304
5984,34048
5985,33920
5986,33792
5987,33600
5988,33408
5989,33344
5990,33344
5991,33280
5992,33472
5993,33600
5994,33664
5995,33728
5996,33792
5997,33856
5998,33920
5999,33856
6000,33792
6001,33728
6002,33728
6003,33664
6004,33728
6005,34048
6006,34688
6007,35776
6008,37504
6009,39936
6010,42752
6011,44544
6012,44864
6013,43584
6014,40896
6015,37248
6016,33536
6017,30656
6018,28864
6019,28096
6020,27968
6021,28416
6022,29248
6023,30144
6024,31040
6025,31872
6026,32576
6027,33152
6028,33664
6029,33984
6030,34176
6031,34304
6032,34240
6033,34176
6034,34048
6035,33920
6036,33856
6037,33664
6038,33600
6039,33664
6040,33664
6041,33664
6042,33536
6043,33472
6044,33472
6045,33472
6046,33536
6047,33536
6048,33600
6049,33600
6050,33600
6051,33664
6052,33728
6053,33792
6054,33920
6055,33984
6056,34176
6057,34112
6058,34176
6059,34240
6060,34112
6061,33920
6062,33856
6063,33728
6064,33728
6065,33792
6066,33856
6067,33856
6068,34112
6069,34112
6070,34112
6071,34112
6072,34176
6073,34176
6074,34240
6075,34240
6076,34240
6077,34176
6078,34176
6079,34112
6080,34240
6081,34368
6082,34304
6083,34176
6084,34112
6085,33984
6086,33856
6087,33792
6088,33920
6089,34048
6090,34176
6091,34240
6092,34176
6093,34304
6094,34368
6095,34368
6096,34432
6097,34432
6098,34240
6099,34048
6100,34048
6101,34176
6102,34176
6103,34240
6104,34176
6105,34112
6106,34112
6107,34048
6108,34048
6109,34176
6110,34240
6111,34176
6112,34112
6113,34304
6114,34496
6115,34560
6116,34496
6117,34624
6118,34688
6119,34752
6120,34816
6121,34880
6122,34880
6123,35072
6124,35136
6125,35072
6126,34880
6127,34816
6128,34368
6129,34304
6130,34112
6131,33792
6132,33472
6133,33344
6134,33408
6135,33344
6136,33280
6137,33344
6138,33472
6139,33600
6140,33664
6141,33728
6142,33856
6143,33984
6144,34048
6145,34176
6146,34176
6147,33984
6148,33728
6149,33664
6150,34048
6151,35008
6152,35136
6153,38592
6154,41280
6155,43904
6156,45376
6157,45248
6158,42944
6159,39552
6160,35648
6161,32192
6162,29824
6163,28544
6164,28160
6165,28480
6166,29312
6167,29376
6168,30784
6169,31424
6170,32000
6171,32576
6172,33152
6173,33472
6174,33664
6175,33792
6176,33984
6177,34048
6178,34048
6179,34112
6180,34176
6181,34176
6182,34112
6183,34112
6184,34112
6185,34048
6186,33984
6187,33920
6188,33920
6189,33856
6190,33856
6191,33856
6192,33920
6193,33920
6194,33792
6195,33728
6196,33728
6197,33792
6198,33856
6199,33920
6200,33984
6201,34112
6202,34048
6203,34112
6204,34112
6205,34112
6206,34048
6207,34048
6208,33984
6209,33920
6210,33920
6211,33856
6212,33984
6213,34176
6214,34240
6215,34176
6216,34112
6217,34048
6218,34176
6219,34176
6220,34176
6221,34240
6222,34368
6223,34368
6224,34368
6225,34240
6226,34240
6227,34176
6228,34176
6229,34112
6230,34112
6231,34176
6232,34176
6233,34176
6234,34176
6235,34176
6236,34240
6237,34176
6238,34176
6239,34240
6240,34304
6241,34304
6242,34304
6243,34368
6244,34432
6245,34496
6246,34560
6247,34560
6248,34560
6249,34560
6250,34560
6251,34560
6252,34432
6253,34368
6254,34304
6255,34368
6256,34432
6257,34496
6258,34624
6259,34752
6260,34752
6261,34688
6262,34624
6263,34752
6264,34944
6265,34944
6266,34880
6267,34880
6268,35008
6269,35008
6270,34944
6271,34816
6272,34624
6273,34432
6274,34240
6275,34112
6276,33856
6277,33792
6278,33664
6279,33600
6280,33728
6281,33856
6282,33792
6283,33664
6284,33728
6285,33920
6286,34048
6287,34112
6288,34112
6289,34176
6290,34176
6291,33984
6292,33920
6293,34112
6294,34624
6295,35392
6296,36736
6297,38912
6298,41600
6299,44160
6300,45632
6301,45632
6302,43584
6303,40064
6304,36032
6305,32512
6306,29760
6307,29632
6308,28160
6309,28352
6310,28992
6311,29760
6312,30592
6313,31488
6314,32320
6315,32832
6316,33216
6317,33600
6318,33920
6319,34176
6320,34304
6321,34368
6322,34368
6323,34304
6324,34176
6325,34048
6326,34048
6327,33984
6328,33920
6329,33728
6330,33664
6331,33600
6332,33600
6333,33536
6334,33600
6335,33728
6336,33792
6337,33728
6338,33664
6339,33728
6340,33792
6341,33856
6342,33920
6343,33984
6344,33920
6345,33792
6346,33728
6347,33792
6348,33920
6349,33984
6350,33984
6351,33984
6352,33920
6353,33856
6354,33728
6355,33792
6356,33920
6357,33984
6358,33984
6359,34048
6360,34112
6361,34112
6362,34112
6363,34240
6364,34432
6365,34496
6366,34368
6367,34304
6368,34304
6369,34304
6370,34304
6371,34304
6372,34304
6373,34176
6374,34112
6375,34112
6376,34176
6377,34176
6378,34176
6379,34240
6380,34304
6381,34432
6382,34368
6383,34432
6384,34368
6385,34368
6386,34368
6387,34304
6388,34432
6389,34624
6390,34624
6391,34368
6392,34240
6393,34176
6394,34240
6395,34304
6396,34304
6397,34368
6398,34368
6399,34368
6400,34304
6401,34304
6402,34368
6403,34432
6404,34560
6405,34752
6406,34944
6407,35008
6408,35008
6409,35008
6410,34944
6411,34880
6412,34816
6413,34880
6414,34880
6415,34752
6416,34624
6417,34496
6418,34368
6419,34176
6420,33984
6421,33728
6422,33600
6423,33472
6424,33344
6425,33408
6426,33664
6427,33600
6428,33792
6429,33728
6430,33664
6431,33792
6432,33920
6433,33920
6434,33920
6435,34048
6436,34048
6437,33920
6438,33920
6439,34240
6440,34816
6441,36288
6442,36416
6443,39872
6444,42752
6445,44928
6446,45632
6447,44544
6448,41792
6449,38080
6450,34240
6451,31296
6452,29376
6453,28352
6454,28160
6455,28544
6456,29376
6457,30208
6458,31040
6459,31808
6460,32512
6461,33088
6462,33472
6463,33920
6464,34240
6465,34496
6466,34560
6467,34432
6468,34368
6469,34368
6470,34240
6471,34048
6472,33984
6473,33856
6474,33728
6475,33728
6476,33728
6477,33664
6478,33664
6479,33728
6480,33792
6481,33920
6482,33984
6483,33920
6484,33856
6485,33728
6486,33664
6487,33664
6488,33728
6489,33856
6490,33984
6491,33856
6492,33792
6493,33728
6494,33728
6495,33664
6496,33728
6497,33920
6498,34048
6499,33920
6500,33792
6501,33792
6502,33856
6503,33984
6504,33920
6505,33920
6506,34048
6507,34048
6508,34112
6509,34176
6510,34240
6511,34240
6512,34112
6513,34112
6514,34240
6515,34176
6516,34176
6517,34112
6518,34176
6519,34112
6520,34176
6521,34240
6522,34304
6523,34304
6524,34240
6525,34176
6526,34176
6527,34176
6528,34112
6529,34176
6530,34304
6531,34304
6532,34240
6533,34240
6534,34240
6535,34304
6536,34240
6537,34176
6538,34176
6539,34240
6540,34304
6541,34240
6542,34176
6543,34176
6544,34176
6545,34176
6546,34240
6547,34368
6548,34496
6549,34496
6550,34496
6551,34560
6552,34752
6553,34816
6554,34816
6555,34752
6556,34752
6557,34752
6558,34816
6559,34944
6560,34944
6561,34752
6562,34688
6563,34432
6564,34176
6565,33856
6566,33472
6567,33344
6568,33280
6569,33280
6570,33408
6571,33472
6572,33536
6573,33728
6574,33856
6575,33792
6576,33856
6577,33856
6578,33792
6579,33728
6580,33792
6581,33920
6582,33920
6583,33984
6584,34304
6585,35008
6586,36224
6587,38208
6588,40960
6589,43584
6590,44928
6591,44352
6592,44160
6593,39872
6594,36160
6595,32704
6596,30208
6597,28800
6598,28224
6599,28288
6600,28800
6601,29632
6602,30656
6603,31488
6604,32256
6605,32832
6606,33344
6607,33664
6608,33856
6609,34048
6610,34304
6611,34432
6612,34432
6613,34304
6614,34176
6615,34048
6616,33856
6617,33600
6618,33536
6619,33600
6620,33600
6621,33664
6622,33728
6623,33664
6624,33536
6625,33408
6626,33408
6627,33536
6628,33664
6629,33664
6630,33664
6631,33792
6632,33728
6633,33728
6634,33792
6635,33984
6636,33856
6637,33792
6638,33664
6639,33728
6640,33856
6641,33856
6642,33728
6643,33664
6644,33664
6645,33664
6646,33728
6647,33856
6648,33792
6649,33728
6650,33792
6651,33920
6652,33920
6653,34048
6654,34176
6655,34240
6656,34240
6657,34240
6658,34176
6659,34240
6660,34368
6661,34304
6662,34112
6663,33984
6664,33984
6665,34048
6666,34112
6667,34112
6668,34112
6669,34112
6670,34112
6671,34176
6672,34304
6673,34304
6674,34176
6675,34112
6676,34112
6677,34112
6678,34048
6679,33984
6680,34048
6681,34304
6682,34240
6683,34304
6684,34240
6685,34240
6686,34176
6687,34112
6688,34112
6689,34240
6690,34176
6691,34112
6692,34112
6693,34240
6694,34368
6695,34432
6696,34432
6697,34432
6698,34496
6699,34496
6700,34496
6701,34496
6702,34624
6703,34688
6704,34752
6705,34816
6706,34880
6707,34688
6708,34496
6709,34368
6710,34304
6711,34112
6712,34048
6713,33920
6714,33856
6715,33728
6716,33600
6717,33536
6718,33472
6719,33472
6720,33536
6721,33664
6722,33856
6723,34112
6724,34176
6725,34112
6726,34112
6727,34112
6728,34112
6729,34048
6730,34368
6731,34944
6732,35776
6733,37248
6734,39488
6735,42240
6736,44672
6737,45504
6738,44928
6739,42688
6740,39232
6741,34112
6742,33920
6743,29952
6744,28672
6745,28160
6746,28224
6747,28800
6748,29632
6749,30464
6750,31232
6751,31936
6752,32576
6753,33088
6754,33408
6755,33664
6756,33984
6757,34112
6758,34112
6759,34048
6760,34048
6761,34048
6762,33920
6763,33728
6764,33600
6765,33600
6766,33600
6767,33472
6768,33344
6769,33280
6770,33152
6771,33024
6772,33088
6773,33152
6774,33280
6775,33408
6776,33472
6777,33600
6778,33728
6779,33664
6780,33600
6781,33664
6782,33728
6783,33792
6784,33792
6785,33792
6786,33728
6787,33664
6788,33664
6789,33792
6790,33984
6791,34176
6792,34240
6793,34112
6794,34048
6795,34112
6796,34048
6797,34112
6798,34176
6799,34240
6800,34368
6801,34368
6802,34304
6803,34304
6804,34304
6805,34368
6806,34368
6807,34432
6808,34368
6809,34240
6810,34176
6811,34112
6812,34048
6813,34176
6814,34240
6815,34176
6816,34112
6817,34176
6818,34240
6819,34240
6820,34176
6821,34176
6822,34240
6823,34368
6824,34368
6825,34304
6826,34304
6827,34368
6828,34368
6829,34304
6830,34304
6831,34368
6832,34368
6833,34368
6834,34368
6835,34432
6836,34432
6837,34304
6838,34240
6839,34432
6840,34688
6841,34688
6842,34560
6843,34560
6844,34624
6845,34624
6846,34624
6847,34688
6848,34880
6849,35008
6850,35072
6851,35008
6852,35008
6853,34816
6854,34560
6855,34368
6856,34304
6857,34176
6858,33984
6859,33728
6860,33600
6861,33600
6862,33600
6863,33600
6864,33664
6865,33728
6866,33856
6867,33920
6868,33984
6869,34112
6870,34112
6871,34048
6872,34048
6873,34048
6874,34048
6875,34240
6876,34688
6877,35520
6878,36992
6879,39104
6880,41728
6881,44288
6882,45696
6883,45440
6884,43264
6885,39808
6886,35840
6887,32320
6888,29824
6889,28544
6890,28096
6891,28288
6892,28928
6893,29824
6894,30720
6895,31616
6896,32384
6897,33024
6898,33536
6899,33792
6900,33984
6901,34176
6902,34304
6903,34368
6904,34304
6905,34304
6906,34304
6907,34240
6908,34112
6909,33984
6910,33984
6911,33920
6912,33792
6913,33728
6914,33856
6915,33856
6916,33664
6917,33664
6918,33728
6919,33792
6920,33792
6921,33792
6922,33920
6923,34048
6924,33984
6925,33792
6926,33792
6927,33856
6928,33920
6929,33920
6930,33856
6931,33920
6932,33920
6933,33920
6934,33984
6935,34048
6936,34112
6937,34112
6938,34112
6939,34112
6940,34048
6941,33920
6942,33920
6943,34048
6944,34176
6945,34304
6946,34432
6947,34368
6948,34304
6949,34240
6950,34176
6951,34112
6952,34176
6953,34112
6954,34112
6955,34112
6956,34176
6957,34240
6958,34304
6959,34368
6960,34368
6961,34304
6962,34176
6963,34176
6964,34240
6965,34432
6966,34560
6967,34560
6968,34496
6969,34368
6970,34368
6971,34368
6972,34368
6973,34368
6974,34368
6975,34432
6976,34496
6977,34496
6978,34432
6979,34304
6980,34304
6981,34304
6982,34432
6983,34432
6984,34432
6985,34560
6986,34752
6987,34944
6988,34944
6989,34944
6990,35008
6991,35008
6992,34944
6993,34944
6994,34944
6995,34944
6996,34816
6997,34752
6998,34624
6999,34432
7000,34240
7001,34048
7002,33920
7003,33728
7004,33600
7005,33472
7006,33472
7007,33472
7008,33536
7009,33600
7010,33728
7011,33856
7012,33984
7013,34048
7014,34176
7015,34304
7016,34176
7017,33920
7018,33792
7019,33984
7020,34368
7021,35008
7022,36224
7023,38144
7024,40640
7025,43328
7026,45248
7027,45760
7028,44288
7029,41216
7030,37248
7031,33536
7032,30784
7033,29056
7034,28288
7035,28352
7036,28992
7037,29696
7038,30464
7039,31296
7040,32064
7041,32704
7042,33152
7043,33536
7044,33920
7045,34112
7046,34176
7047,34304
7048,34368
7049,34432
7050,34368
7051,34240
7052,34112
7053,34048
7054,33920
7055,33792
7056,33792
7057,33792
7058,33856
7059,33984
7060,33984
7061,33856
7062,33728
7063,33664
7064,33664
7065,33664
7066,33664
7067,33664
7068,33792
7069,33856
7070,33856
7071,33856
7072,33984
7073,34112
7074,34048
7075,33920
7076,33856
7077,33984
7078,34048
7079,34048
7080,34112
7081,34112
7082,34048
7083,33920
7084,33856
7085,33792
7086,33856
7087,33856
7088,33920
7089,33984
7090,34112
7091,34176
7092,34240
7093,34240
7094,34304
7095,34304
7096,34240
7097,34240
7098,34368
7099,34432
7100,34368
7101,34176
7102,34048
7103,34048
7104,33984
7105,33984
7106,34048
7107,34176
7108,34304
7109,34432
7110,34496
7111,34496
7112,34368
7113,34240
7114,34240
7115,34368
7116,34432
7117,34432
7118,34496
7119,34560
7120,34496
7121,34432
7122,34432
7123,34496
7124,34496
7125,34432
7126,34496
7127,34560
7128,34624
7129,34688
7130,34816
7131,35008
7132,35072
7133,35008
7134,34944
7135,34944
7136,35008
7137,35072
7138,35008
7139,34880
7140,34752
7141,34688
7142,34560
7143,34368
7144,34176
7145,33984
7146,33792
7147,33664
7148,33600
7149,33536
7150,33536
7151,33600
7152,33728
7153,33728
7154,33664
7155,33664
7156,33728
7157,33856
7158,33792
7159,33728
7160,33792
7161,33856
7162,34112
7163,34496
7164,35264
7165,36608
7166,38592
7167,41280
7168,43968
7169,45504
7170,45632
7171,43840
7172,40384
7173,36800
7174,33088
7175,30400
7176,28800
7177,28224
7178,28352
7179,28864
7180,29696
7181,30656
7182,31488
7183,32128
7184,32704
7185,33216
7186,33600
7187,33856
7188,33984
7189,34112
7190,34240
7191,34368
7192,34368
7193,34304
7194,34176
7195,33984
7196,33856
7197,33856
7198,33920
7199,33984
7200,33984
7201,34048
7202,34048
7203,33984
7204,33920
7205,33920
7206,33920
7207,33792
7208,33600
7209,33536
7210,33536
7211,33600
7212,33664
7213,33664
7214,33728
7215,33792
7216,33792
7217,33856
7218,33856
7219,33984
7220,34048
7221,34048
7222,34048
7223,34048
7224,33984
7225,33920
7226,33856
7227,33856
7228,33920
7229,33856
7230,33856
7231,34048
7232,34240
7233,34304
7234,34368
7235,34432
7236,34368
7237,34240
7238,34048
7239,34112
7240,34240
7241,34304
7242,34176
7243,34176
7244,34176
7245,34112
7246,34048
7247,34112
7248,34176
7249,34304
7250,34304
7251,34304
7252,34304
7253,34368
7254,34304
7255,34304
7256,34432
7257,34432
7258,34368
7259,34432
7260,34496
7261,34496
7262,34496
7263,34368
7264,34304
7265,34304
7266,34368
7267,34432
7268,34624
7269,34816
7270,34880
7271,34816
7272,34752
7273,34944
7274,35008
7275,35008
7276,35008
7277,35200
7278,35200
7279,34944
7280,34624
7281,34496
7282,34304
7283,34112
7284,33984
7285,33920
7286,33792
7287,33472
7288,33280
7289,33408
7290,33536
7291,33536
7292,33536
7293,33600
7294,33792
7295,33984
7296,33984
7297,33984
7298,34048
7299,34112
7300,34112
7301,34176
7302,34432
7303,34944
7304,35968
7305,37696
7306,40320
7307,42880
7308,44800
7309,45376
7310,44288
7311,41536
7312,37632
7313,33984
7314,31232
7315,29440
7316,28480
7317,28288
7318,28736
7319,29440
7320,30272
7321,31168
7322,31936
7323,32576
7324,33216
7325,33664
7326,33984
7327,34240
7328,34368
7329,34368
7330,34240
7331,34240
7332,34176
7333,34112
7334,34048
7335,34048
7336,34112
7337,33984
7338,33728
7339,33600
7340,33600
7341,33472
7342,33472
7343,33472
7344,33600
7345,33536
7346,33536
7347,33600
7348,33664
7349,33728
7350,33664
7351,33664
7352,33792
7353,33856
7354,33728
7355,33600
7356,33600
7357,33600
7358,33536
7359,33536
7360,33472
7361,33472
7362,33472
7363,33536
7364,33600
7365,33664
7366,33664
7367,33728
7368,33856
7369,33984
7370,33984
7371,33920
7372,33920
7373,34048
7374,34176
7375,34176
7376,34176
7377,34176
7378,34176
7379,34112
7380,34112
7381,34176
7382,34112
7383,34048
7384,34048
7385,34112
7386,34240
7387,34304
7388,34240
7389,34112
7390,34112
7391,34112
7392,34112
7393,34304
7394,34368
7395,34304
7396,34112
7397,34112
7398,34240
7399,34368
7400,34496
7401,34560
7402,34624
7403,34688
7404,34688
7405,34688
7406,34816
7407,34944
7408,34880
7409,34816
7410,34880
7411,34944
7412,34880
7413,34688
7414,34560
7415,34432
7416,34176
7417,33920
7418,33792
7419,33728
7420,33600
7421,33472
7422,33408
7423,33344
7424,33280
7425,33280
7426,33344
7427,33536
7428,33728
7429,33920
7430,34048
7431,34048
7432,33984
7433,33920
7434,33856
7435,33792
7436,33984
7437,34240
7438,34944
7439,36352
7440,38656
7441,41472
7442,43840
7443,44928
7444,44544
7445,42304
7446,39040
7447,35520
7448,32384
7449,30208
7450,28992
7451,28416
7452,28544
7453,29120
7454,29952
7455,30784
7456,31552
7457,32256
7458,32832
7459,33408
7460,33792
7461,34112
7462,34240
7463,34240
7464,34368
7465,34432
7466,34368
7467,34176
7468,34112
7469,34112
7470,34112
7471,33856
7472,33664
7473,33664
7474,33600
7475,33472
7476,33408
7477,33472
7478,33600
7479,33664
7480,33728
7481,33728
7482,33792
7483,33728
7484,33664
7485,33664
7486,33600
7487,33472
7488,33408
7489,33344
7490,33472
7491,33536
7492,33408
7493,33344
7494,33408
7495,33472
7496,33472
7497,33472
7498,33472
7499,33408
7500,33408
7501,33536
7502,33536
7503,33536
7504,33600
7505,33664
7506,33792
7507,33920
7508,33920
7509,33984
7510,34176
7511,34240
7512,34176
7513,34112
7514,34112
7515,34304
7516,34240
7517,34048
7518,33920
7519,33984
7520,34048
7521,34112
7522,34112
7523,34176
7524,34176
7525,34176
7526,34240
7527,34240
7528,34240
7529,34240
7530,34304
7531,34304
7532,34432
7533,34432
7534,34432
7535,34496
7536,34688
7537,34816
7538,34752
7539,34688
7540,34752
7541,34816
7542,34816
7543,34880
7544,35008
7545,35072
7546,35200
7547,35200
7548,35136
7549,35008
7550,34816
7551,34624
7552,34560
7553,34432
7554,34048
7555,33664
7556,33472
7557,33408
7558,33408
7559,33408
7560,33536
7561,33664
7562,33792
7563,33984
7564,33984
7565,34048
7566,33984
7567,33920
7568,33920
7569,34048
7570,34048
7571,34112
7572,34304
7573,34688
7574,35520
7575,37056
7576,39424
7577,42752
7578,44736
7579,45696
7580,45056
7581,42688
7582,39168
7583,35328
7584,32064
7585,29888
7586,28736
7587,28352
7588,28608
7589,29248
7590,30208
7591,31040
7592,31872
7593,32448
7594,33152
7595,33792
7596,34048
7597,34240
7598,34368
7599,34368
7600,34368
7601,34304
7602,34304
7603,34304
7604,34240
7605,34048
7606,33984
7607,33920
7608,33792
7609,33728
7610,33728
7611,33792
7612,33792
7613,33728
7614,33792
7615,33920
7616,33984
7617,33984
7618,34048
7619,33984
7620,33984
7621,33984
7622,33920
7623,33920
7624,33856
7625,33728
7626,33728
7627,33792
7628,33856
7629,33792
7630,33792
7631,33856
7632,33920
7633,33984
7634,33920
7635,33920
7636,34048
7637,34048
7638,34048
7639,34112
7640,34176
7641,34176
7642,34176
7643,34176
7644,34176
7645,34240
7646,34304
7647,34368
7648,34368
7649,34304
7650,34112
7651,34048
7652,34112
7653,34176
7654,34240
7655,34240
7656,34240
7657,34304
7658,34368
7659,34304
7660,34304
7661,34432
7662,34560
7663,34496
7664,34432
7665,34496
7666,34496
7667,34496
7668,34496
7669,34560
7670,34496
7671,34432
7672,34368
7673,34368
7674,34368
7675,34432
7676,34496
7677,34688
7678,34816
7679,34880
7680,34880
7681,35008
7682,35136
7683,35136
7684,35136
7685,35200
7686,35328
7687,35200
7688,35008
7689,34816
7690,34624
7691,34368
7692,33984
7693,33792
7694,33600
7695,33536
7696,33472
7697,33472
7698,33472
7699,33472
7700,33472
7701,33600
7702,33792
7703,33920
7704,33984
7705,33920
7706,33920
7707,34048
7708,34112
7709,34048
7710,34048
7711,34176
7712,34432
7713,35072
7714,36352
7715,38464
7716,41024
7717,43648
7718,45248
7719,45440
7720,43712
7721,40512
7722,36544
7723,33024
7724,30464
7725,28864
7726,28160
7727,28288
7728,28864
7729,29696
7730,30528
7731,31488
7732,32320
7733,32896
7734,33344
7735,33728
7736,34112
7737,34304
7738,34368
7739,34304
7740,34304
7741,34240
7742,34112
7743,34112
7744,34112
7745,34048
7746,33856
7747,33856
7748,33920
7749,33920
7750,33792
7751,33664
7752,33664
7753,33792
7754,33856
7755,33792
7756,33792
7757,33920
7758,33920
7759,33920
7760,34048
7761,34112
7762,34112
7763,34048
7764,33984
7765,33984
7766,33856
7767,33728
7768,33728
7769,33792
7770,33792
7771,33792
7772,33664
7773,33728
7774,33792
7775,33856
7776,33920
7777,33984
7778,34048
7779,34112
7780,34112
7781,34176
7782,34304
7783,34368
7784,34432
7785,34368
7786,34368
7787,34176
7788,33984
7789,33984
7790,34048
7791,34048
7792,34048
7793,34112
7794,34240
7795,34240
7796,34176
7797,34176
7798,34240
7799,34304
7800,34432
7801,34432
7802,34496
7803,34560
7804,34624
7805,34496
7806,34368
7807,34368
7808,34240
7809,34176
7810,34240
7811,34304
7812,34304
7813,34304
7814,34304
7815,34432
7816,34496
7817,34624
7818,34688
7819,34752
7820,34752
7821,34752
7822,34880
7823,34944
7824,35008
7825,34944
7826,34944
7827,34880
7828,34816
7829,34688
7830,34496
7831,34368
7832,34240
7833,34112
7834,33920
7835,33728
7836,33600
7837,33472
7838,33408
7839,33408
7840,33472
7841,33536
7842,33728
7843,33856
7844,33920
7845,34048
7846,34048
7847,33984
7848,33984
7849,33920
7850,33792
7851,33984
7852,34432
7853,35200
7854,36544
7855,38656
7856,41408
7857,43968
7858,45312
7859,45120
7860,43072
7861,39808
7862,35968
7863,32512
7864,30016
7865,28736
7866,28224
7867,28352
7868,28864
7869,29760
7870,30720
7871,31552
7872,32192
7873,32704
7874,33280
7875,33920
7876,34176
7877,34176
7878,34432
7879,34240
7880,34176
7881,34112
7882,33920
7883,33728
7884,33600
7885,33600
7886,33600
7887,33472
7888,33344
7889,33344
7890,33472
7891,33600
7892,33536
7893,33856
7894,33792
7895,33728
7896,33664
7897,33728
7898,33664
7899,33664
7900,33728
7901,33728
7902,33728
7903,33664
7904,33600
7905,33664
7906,33728
7907,33664
7908,33600
7909,33600
7910,33728
7911,33856
7912,33856
7913,33920
7914,33920
7915,33920
7916,33920
7917,33984
7918,33984
7919,33984
7920,33984
7921,34048
7922,34048
7923,34112
7924,34048
7925,33984
7926,33984
7927,34176
7928,34304
7929,34176
7930,34048
7931,34048
7932,33984
7933,33984
7934,33984
7935,34112
7936,34240
7937,34304
7938,34240
7939,34240
7940,34304
7941,34304
7942,34240
7943,34176
7944,34176
7945,34112
7946,34112
7947,34240
7948,34368
7949,34368
7950,34496
7951,34688
7952,34816
7953,34752
7954,34560
7955,34560
7956,34752
7957,34880
7958,34816
7959,34752
7960,34752
7961,34880
7962,34944
7963,34944
7964,34816
7965,34560
7966,34432
7967,34112
7968,33920
7969,33792
7970,33600
7971,33536
7972,33408
7973,33344
7974,33280
7975,33280
7976,33408
7977,33536
7978,33664
7979,33792
7980,33920
7981,33984
7982,33984
7983,33856
7984,33728
7985,33728
7986,33920
7987,33920
7988,34816
7989,35904
7990,37760
7991,40320
7992,43008
7993,44672
7994,45120
7995,43712
7996,40704
7997,37312
7998,33792
7999,30912
8000,29056
8001,28160
8002,28160
8003,28544
8004,29248
8005,30080
8006,31040
8007,31936
8008,32576
8009,33088
8010,33472
8011,33920
8012,34176
8013,34368
8014,34496
8015,34432
8016,34240
8017,34048
8018,33984
8019,33920
8020,33792
8021,33728
8022,33664
8023,33536
8024,33408
8025,33280
8026,33280
8027,33472
8028,33600
8029,33728
8030,33856
8031,33856
8032,33728
8033,33600
8034,33600
8035,33664
8036,33792
8037,33856
8038,33984
8039,34112
8040,33984
8041,33664
8042,33472
8043,33472
8044,33472
8045,33408
8046,33408
8047,33344
8048,33664
8049,33728
8050,33728
8051,33728
8052,33856
8053,33920
8054,33920
8055,33984
8056,34048
8057,34176
8058,34240
8059,34240
8060,34304
8061,34304
8062,34304
8063,34176
8064,34240
8065,34240
8066,34240
8067,34112
8068,34048
8069,34048
8070,33984
8071,33856
8072,33984
8073,34112
8074,34112
8075,34112
8076,34112
8077,34176
8078,34240
8079,34176
8080,34240
8081,34368
8082,34496
8083,34432
8084,34432
8085,34496
8086,34496
8087,34432
8088,34368
8089,34432
8090,34560
8091,34688
8092,34688
8093,34752
8094,34816
8095,34880
8096,34816
8097,34944
8098,35072
8099,35136
8100,35008
8101,34944
8102,34816
8103,34624
8104,34432
8105,34240
8106,34048
8107,33984
8108,33728
8109,33536
8110,33472
8111,33536
8112,33472
8113,33472
8114,33536
8115,33792
8116,33984
8117,34112
8118,34240
8119,34176
8120,34112
8121,34048
8122,33984
8123,34176
8124,34368
8125,34816
8126,35776
8127,37440
8128,39872
8129,42560
8130,44480
8131,45120
8132,44160
8133,41600
8134,38080
8135,34496
8136,31488
8137,29440
8138,28352
8139,28160
8140,28608
8141,29312
8142,30208
8143,31104
8144,31872
8145,32512
8146,33024
8147,33536
8148,33920
8149,34176
8150,34304
8151,34432
8152,34496
8153,34560
8154,34496
8155,34432
8156,34368
8157,34240
8158,33920
8159,33664
8160,33664
8161,33728
8162,33536
8163,33344
8164,33344
8165,33408
8166,33472
8167,33536
8168,33664
8169,33792
8170,33792
8171,33728
8172,33792
8173,33920
8174,33856
8175,33856
8176,33920
8177,33984
8178,34048
8179,33792
8180,33600
8181,33536
8182,33664
8183,33792
8184,33856
8185,33920
8186,33920
8187,33792
8188,33728
8189,33728
8190,33792
8191,33920
8192,33984
8193,34048
8194,34112
8195,34112
8196,34240
8197,34240
8198,34304
8199,34304
8200,34368
8201,34368
8202,34304
8203,34176
8204,34176
8205,34112
8206,34048
8207,33984
8208,33856
8209,33792
8210,33792
8211,33920
8212,33920
8213,34048
8214,34240
8215,34368
8216,34432
8217,34368
8218,34368
8219,34368
8220,34432
8221,34368
8222,34368
8223,34496
8224,34624
8225,34752
8226,34816
8227,34816
8228,34688
8229,34560
8230,34496
8231,34624
8232,34752
8233,34880
8234,35008
8235,35200
8236,35136
8237,34880
8238,34688
8239,34496
8240,34304
8241,34048
8242,33920
8243,33792
8244,33664
8245,33600
8246,33600
8247,33536
8248,33472
8249,33472
8250,33536
8251,33728
8252,33920
8253,34048
8254,33984
8255,33920
8256,33856
8257,33856
8258,33792
8259,33856
8260,34176
8261,34624
8262,35648
8263,37248
8264,39616
8265,42368
8266,44672
8267,45568
8268,44864
8269,42560
8270,38976
8271,34176
8272,33664
8273,29824
8274,28736
8275,28288
8276,28480
8277,29056
8278,29824
8279,30656
8280,31488
8281,32320
8282,33024
8283,33600
8284,33984
8285,34304
8286,34560
8287,34688
8288,34816
8289,34816
8290,34752
8291,34560
8292,34368
8293,34240
8294,34176
8295,34112
8296,33984
8297,33920
8298,33984
8299,33920
8300,33920
8301,33920
8302,33984
8303,34112
8304,33984
8305,33792
8306,33664
8307,33600
8308,33408
8309,33344
8310,33536
8311,33664
8312,33792
8313,33792
8314,33792
8315,33856
8316,33856
8317,33920
8318,33984
8319,34048
8320,34112
8321,34240
8322,34304
8323,34240
8324,34048
8325,33856
8326,33792
8327,33856
8328,33920
8329,33984
8330,34112
8331,34176
8332,34112
8333,34112
8334,34176
8335,34304
8336,34432
8337,34560
8338,34624
8339,34752
8340,34752
8341,34560
8342,34432
8343,34304
8344,34176
8345,34112
8346,34048
8347,33984
8348,34048
8349,34112
8350,34112
8351,34304
8352,34496
8353,34560
8354,34496
8355,34496
8356,34496
8357,34368
8358,34240
8359,34240
8360,34368
8361,34752
8362,34752
8363,35136
8364,35328
8365,35392
8366,35264
8367,35136
8368,35136
8369,35200
8370,35136
8371,35136
8372,35136
8373,35008
8374,34752
8375,34432
8376,34240
8377,34176
8378,33984
8379,33664
8380,33344
8381,33088
8382,32960
8383,32832
8384,32768
8385,32768
8386,32832
8387,32896
8388,33088
8389,33152
8390,33280
8391,33408
8392,33408
8393,33536
8394,33600
8395,33664
8396,33792
8397,34176
8398,35072
8399,36416
8400,38720
8401,41152
8402,43840
8403,45696
8404,46016
8405,44160
8406,39040
8407,38592
8408,32896
8409,30208
8410,28736
8411,28160
8412,28288
8413,28928
8414,29760
8415,30720
8416,31552
8417,32192
8418,32832
8419,33408
8420,33728
8421,34112
8422,34112
8423,34496
8424,34496
8425,34496
8426,34432
8427,34432
8428,34304
8429,34048
8430,33792
8431,33600
8432,33536
8433,33536
8434,33600
8435,33536
8436,33472
8437,33472
8438,33536
8439,33728
8440,33920
8441,33984
8442,33984
8443,33984
8444,34112
8445,34304
8446,34368
8447,34432
8448,34496
8449,34496
8450,34496
8451,34560
8452,34624
8453,34624
8454,34688
8455,34752
8456,34944
8457,35008
8458,35008
8459,35072
8460,35136
8461,35200
8462,35200
8463,35072
8464,35072
8465,35072
8466,35072
8467,35136
8468,35328
8469,35520
8470,35648
8471,35712
8472,35648
8473,35520
8474,35328
8475,35136
8476,35072
8477,35072
8478,34944
8479,34816
8480,34688
8481,34560
8482,34496
8483,34496
8484,34560
8485,34752
8486,34880
8487,34816
8488,34752
8489,34816
8490,34944
8491,35072
8492,35200
8493,35520
8494,35776
8495,35904
8496,35840
8497,35776
8498,35776
8499,35776
8500,35712
8501,35584
8502,35584
8503,35584
8504,35520
8505,35328
8506,35328
8507,35520
8508,35648
8509,35648
8510,35584
8511,35392
8512,35328
8513,35328
8514,35264
8515,35264
8516,35136
8517,35008
8518,34944
8519,34944
8520,35008
8521,35072
8522,35200
8523,35328
8524,35456
8525,35520
8526,35584
8527,35520
8528,35456
8529,35328
8530,35328
8531,35392
8532,35520
8533,35968
8534,36992
8535,38784
8536,41472
8537,44224
8538,46528
8539,47680
8540,47168
8541,43520
8542,40640
8543,36416
8544,32960
8545,30528
8546,29184
8547,28928
8548,29376
8549,30144
8550,30784
8551,31488
8552,32256
8553,33024
8554,33600
8555,33920
8556,34176
8557,34304
8558,34368
8559,34432
8560,34432
8561,34240
8562,34048
8563,33792
8564,33664
8565,33600
8566,33536
8567,33344
8568,33152
8569,33088
8570,33024
8571,32896
8572,32832
8573,32832
8574,32832
8575,32832
8576,32832
8577,32960
8578,33216
8579,33408
8580,33536
8581,33472
8582,33408
8583,33472
8584,33408
8585,33344
8586,33152
8587,33088
8588,33088
8589,32960
8590,32896
8591,32960
8592,32960
8593,33088
8594,33280
8595,33408
8596,33472
8597,33536
8598,33600
8599,33728
8600,33856
8601,34048
8602,34240
8603,34240
8604,33984
8605,33856
8606,33792
8607,33856
8608,33856
8609,33856
8610,33792
8611,33728
8612,33600
8613,33536
8614,33536
8615,33536
8616,33536
8617,33472
8618,33728
8619,33856
8620,34048
8621,33984
8622,33792
8623,33600
8624,33472
8625,33344
8626,33152
8627,33216
8628,33408
8629,33728
8630,34176
8631,34816
8632,34816
8633,35008
8634,35008
8635,35136
8636,35200
8637,35136
8638,34944
8639,34688
8640,34496
8641,34368
8642,34304
8643,34112
8644,33984
8645,33920
8646,33792
8647,33728
8648,33664
8649,33472
8650,33280
8651,33216
8652,33216
8653,33280
8654,33408
8655,33536
8656,33728
8657,33984
8658,34112
8659,34112
8660,34176
8661,34240
8662,34176
8663,33920
8664,33536
8665,33344
8666,33536
8667,34048
8668,34944
8669,36480
8670,38720
8671,41600
8672,44224
8673,45632
8674,45376
8675,43200
8676,37760
8677,37120
8678,32064
8679,29632
8680,28416
8681,28032
8682,28352
8683,28992
8684,29696
8685,30592
8686,31552
8687,32320
8688,32960
8689,33408
8690,33856
8691,34240
8692,34304
8693,34432
8694,34624
8695,34688
8696,34560
8697,34432
8698,34304
8699,34368
8700,34432
8701,34368
8702,34368
8703,34304
8704,34048
8705,33920
8706,33856
8707,33856
8708,33856
8709,33792
8710,33856
8711,33984
8712,34112
8713,34176
8714,34176
8715,34240
8716,34304
8717,34368
8718,34368
8719,34496
8720,34496
8721,34368
8722,34240
8723,34048
8724,33920
8725,33920
8726,33984
8727,34112
8728,34112
8729,34112
8730,34112
8731,34048
8732,34048
8733,33984
8734,34048
8735,34112
8736,34112
8737,33984
8738,33984
8739,34048
8740,34176
8741,34240
8742,34240
8743,34176
8744,34048
8745,33920
8746,33920
8747,33920
8748,34112
8749,34112
8750,33984
8751,33792
8752,33856
8753,33984
8754,33856
8755,33664
8756,33472
8757,33472
8758,33408
8759,33472
8760,33600
8761,33792
8762,33920
8763,34112
8764,34368
8765,34560
8766,34560
8767,34560
8768,34560
8769,34496
8770,34496
8771,34432
8772,34432
8773,34432
8774,34368
8775,34176
8776,33984
8777,33856
8778,33792
8779,33600
8780,33472
8781,33408
8782,33216
8783,32896
8784,32640
8785,32512
8786,32576
8787,32768
8788,33024
8789,33280
8790,33536
8791,33536
8792,33408
8793,33280
8794,33280
8795,33344
8796,33472
8797,33664
8798,34112
8799,34816
8800,35776
8801,37312
8802,39680
8803,42240
8804,43904
8805,44224
8806,42944
8807,40128
8808,36288
8809,32512
8810,29760
8811,28032
8812,27328
8813,27392
8814,28032
8815,28800
8816,29632
8817,30336
8818,31168
8819,31936
8820,32640
8821,33088
8822,33152
8823,33408
8824,33664
8825,33728
8826,33728
8827,33984
8828,34112
8829,34048
8830,33984
8831,34112
8832,34048
8833,33792
8834,33536
8835,33536
8836,33408
8837,33280
8838,33152
8839,33088
8840,33088
8841,33024
8842,33024
8843,33152
8844,33408
8845,33600
8846,33664
8847,33600
8848,33536
8849,33472
8850,33600
8851,33600
8852,33600
8853,33728
8854,33728
8855,33792
8856,33856
8857,33984
8858,34048
8859,34240
8860,34432
8861,34624
8862,34688
8863,34688
8864,34752
8865,34880
8866,34944
8867,34752
8868,34560
8869,34496
8870,34560
8871,34560
8872,34560
8873,34496
8874,34496
8875,34496
8876,34496
8877,34432
8878,34432
8879,34368
8880,34112
8881,33984
8882,34048
8883,34112
8884,34240
8885,34368
8886,34560
8887,34688
8888,34752
8889,34816
8890,34816
8891,34816
8892,34752
8893,34816
8894,35008
8895,35264
8896,35456
8897,35520
8898,35584
8899,35648
8900,35712
8901,35712
8902,35648
8903,35648
8904,35712
8905,35712
8906,35776
8907,35904
8908,35840
8909,35648
8910,35392
8911,35264
8912,35136
8913,34880
8914,34624
8915,34432
8916,34240
8917,34048
8918,33920
8919,33792
8920,33728
8921,33600
8922,33472
8923,33536
8924,33536
8925,33280
8926,33152
8927,33152
8928,33408
8929,33856
8930,34496
8931,35392
8932,37056
8933,39040
8934,41600
8935,43840
8936,45056
8937,44544
8938,42304
8939,38848
8940,35072
8941,31616
8942,29312
8943,27968
8944,27584
8945,27776
8946,28288
8947,29056
8948,30144
8949,31168
8950,31744
8951,32064
8952,32384
8953,32768
8954,33152
8955,33344
8956,33536
8957,33728
8958,33920
8959,34048
8960,33984
8961,34048
8962,34112
8963,34112
8964,34176
8965,34176
8966,34048
8967,33920
8968,33728
8969,33664
8970,33600
8971,33600
8972,33728
8973,33728
8974,33728
8975,33664
8976,33536
8977,33536
8978,33600
8979,33664
8980,33664
8981,33600
8982,33408
8983,33216
8984,33152
8985,33280
8986,33472
8987,33600
8988,33792
8989,33920
8990,34048
8991,34048
8992,34048
8993,34112
8994,34240
8995,34496
8996,34816
8997,34752
8998,34432
8999,34176
9000,34048
9001,34048
9002,34048
9003,34048
9004,33984
9005,33920
9006,33856
9007,33920
9008,33856
9009,33600
9010,33344
9011,33280
9012,33280
9013,33280
9014,33344
9015,33280
9016,33280
9017,33280
9018,33472
9019,33600
9020,33728
9021,33664
9022,33600
9023,33536
9024,33600
9025,33792
9026,33984
9027,34048
9028,33984
9029,33920
9030,33984
9031,34176
9032,34368
9033,34432
9034,34432
9035,34496
9036,34624
9037,34624
9038,34560
9039,34560
9040,34432
9041,34176
9042,33792
9043,33472
9044,33280
9045,33152
9046,33088
9047,33024
9048,33088
9049,33152
9050,33280
9051,33472
9052,33664
9053,33984
9054,34240
9055,34304
9056,34240
9057,34112
9058,33984
9059,33856
9060,33920
9061,34240
9062,34688
9063,35456
9064,37184
9065,39680
9066,42688
9067,45184
9068,46208
9069,45504
9070,42880
9071,38976
9072,34688
9073,31040
9074,28544
9075,27200
9076,26880
9077,27200
9078,27968
9079,28928
9080,29888
9081,30784
9082,31552
9083,32128
9084,32576
9085,32960
9086,33216
9087,33344
9088,33280
9089,33280
9090,33216
9091,33152
9092,33088
9093,33024
9094,33024
9095,32960
9096,32768
9097,32640
9098,32576
9099,32576
9100,32576
9101,32576
9102,32640
9103,32768
9104,32832
9105,32704
9106,32576
9107,32576
9108,32704
9109,32768
9110,32960
9111,33216
9112,33344
9113,33344
9114,33472
9115,33664
9116,33856
9117,34112
9118,34240
9119,34432
9120,34560
9121,34624
9122,34688
9123,34880
9124,35008
9125,35008
9126,34880
9127,34752
9128,34624
9129,34432
9130,34304
9131,34368
9132,34560
9133,34560
9134,34496
9135,34432
9136,34368
9137,34368
9138,34496
9139,34560
9140,34560
9141,34432
9142,34304
9143,34304
9144,34432
9145,34496
9146,34432
9147,34304
9148,34368
9149,34560
9150,34624
9151,34560
9152,34432
9153,34304
9154,34240
9155,34240
9156,34368
9157,34560
9158,34624
9159,34560
9160,34496
9161,34496
9162,34624
9163,34624
9164,34560
9165,34496
9166,34432
9167,34368
9168,34432
9169,34432
9170,34368
9171,34240
9172,34048
9173,33984
9174,33984
9175,33920
9176,33664
9177,33344
9178,33152
9179,33024
9180,32960
9181,33088
9182,33344
9183,33664
9184,33856
9185,34112
9186,34304
9187,34304
9188,34240
9189,34304
9190,34432
9191,34688
9192,35136
9193,35712
9194,36672
9195,38272
9196,40512
9197,43520
9198,45824
9199,47104
9200,46720
9201,44288
9202,40576
9203,36352
9204,32512
9205,29632
9206,27648
9207,26560
9208,26496
9209,27072
9210,28160
9211,29376
9212,30592
9213,31744
9214,32896
9215,33920
9216,34432
9217,34624
9218,34752
9219,34880
9220,34944
9221,35008
9222,35136
9223,35264
9224,35200
9225,34880
9226,34432
9227,34240
9228,34176
9229,34048
9230,33856
9231,33600
9232,33408
9233,33088
9234,32832
9235,32640
9236,32704
9237,32768
9238,32896
9239,33152
9240,33408
9241,33536
9242,33664
9243,33728
9244,33728
9245,33664
9246,33600
9247,33600
9248,33664
9249,33728
9250,33728
9251,33728
9252,33856
9253,33856
9254,33728
9255,33728
9256,33728
9257,33728
9258,33664
9259,33664
9260,33856
9261,34048
9262,34176
9263,34176
9264,34176
9265,34240
9266,34304
9267,34368
9268,34624
9269,34752
9270,34752
9271,34752
9272,34816
9273,34880
9274,35008
9275,35136
9276,35136
9277,35008
9278,34944
9279,35008
9280,35136
9281,35328
9282,35584
9283,35712
9284,35776
9285,35904
9286,35968
9287,35904
9288,35776
9289,35712
9290,35648
9291,35520
9292,35456
9293,35328
9294,35200
9295,35264
9296,35392
9297,35584
9298,35648
9299,35648
9300,35520
9301,35328
9302,35072
9303,34752
9304,34368
9305,33920
9306,33472
9307,33280
9308,33216
9309,33152
9310,33216
9311,33280
9312,33344
9313,33472
9314,33600
9315,33792
9316,33856
9317,33856
9318,33856
9319,33856
9320,34048
9321,34496
9322,35072
9323,36096
9324,37696
9325,39936
9326,42816
9327,45632
9328,47296
9329,47232
9330,45120
9331,41664
9332,37440
9333,33536
9334,30592
9335,28928
9336,28416
9337,28544
9338,29056
9339,29824
9340,30592
9341,31360
9342,32000
9343,32576
9344,33088
9345,33600
9346,33920
9347,34240
9348,34560
9349,34816
9350,34944
9351,34880
9352,34752
9353,34688
9354,34560
9355,34368
9356,34304
9357,34176
9358,34048
9359,33920
9360,33856
9361,33984
9362,34048
9363,34048
9364,34112
9365,34112
9366,33984
9367,33728
9368,33536
9369,33344
9370,33152
9371,32896
9372,32704
9373,32576
9374,32384
9375,32256
9376,32256
9377,32320
9378,32512
9379,32768
9380,32960
9381,33152
9382,33344
9383,33600
9384,33728
9385,34048
9386,34368
9387,34688
9388,34816
9389,35008
9390,35200
9391,35392
9392,35392
9393,35328
9394,35200
9395,35264
9396,35456
9397,35712
9398,35904
9399,35968
9400,35776
9401,35456
9402,35200
9403,34944
9404,34624
9405,34368
9406,34240
9407,34112
9408,34112
9409,34240
9410,34432
9411,34816
9412,35200
9413,35584
9414,36032
9415,36416
9416,36672
9417,36736
9418,36800
9419,36928
9420,36992
9421,36928
9422,36736
9423,36480
9424,36224
9425,36032
9426,35712
9427,35392
9428,35136
9429,34880
9430,34688
9431,34432
9432,34304
9433,33984
9434,33664
9435,33216
9436,32960
9437,32768
9438,32512
9439,32320
9440,32256
9441,32320
9442,32576
9443,32896
9444,33152
9445,33280
9446,33344
9447,33472
9448,33600
9449,33728
9450,34048
9451,34496
9452,35392
9453,36736
9454,38848
9455,41408
9456,43776
9457,44928
9458,44352
9459,41856
9460,38016
9461,33728
9462,30080
9463,27584
9464,26240
9465,25920
9466,26368
9467,26944
9468,27776
9469,28800
9470,29632
9471,30272
9472,30912
9473,31488
9474,31744
9475,31680
9476,31680
9477,31616
9478,31552
9479,31424
9480,31360
9481,31488
9482,31616
9483,31680
9484,31616
9485,31360
9486,31040
9487,30912
9488,30912
9489,31040
9490,31424
9491,31680
9492,31808
9493,31808
9494,31936
9495,32128
9496,32384
9497,32640
9498,32832
9499,32832
9500,32704
9501,32640
9502,32512
9503,32320
9504,32384
9505,32320
9506,32064
9507,31680
9508,31424
9509,31232
9510,31360
9511,31744
9512,32256
9513,32640
9514,33024
9515,33280
9516,33472
9517,33600
9518,33728
9519,33856
9520,33920
9521,33856
9522,33728
9523,33536
9524,33408
9525,33344
9526,33344
9527,33280
9528,33600
9529,33856
9530,33536
9531,32960
9532,32640
9533,32448
9534,32448
9535,32512
9536,32768
9537,32960
9538,32960
9539,33024
9540,33216
9541,33344
9542,33472
9543,33728
9544,34048
9545,34368
9546,34688
9547,35008
9548,35328
9549,35520
9550,35456
9551,35136
9552,34752
9553,34496
9554,34112
9555,33728
9556,33344
9557,32896
9558,32640
9559,32576
9560,32512
9561,32448
9562,32448
9563,32512
9564,32640
9565,32704
9566,32832
9567,33024
9568,33408
9569,33600
9570,33600
9571,33536
9572,33536
9573,33664
9574,33920
9575,34112
9576,34304
9577,34624
9578,35200
9579,35840
9580,36864
9581,38592
9582,41024
9583,44032
9584,46592
9585,47808
9586,46848
9587,43968
9588,39936
9589,35904
9590,32640
9591,30528
9592,29504
9593,29312
9594,29760
9595,30528
9596,31360
9597,32192
9598,32960
9599,33600
9600,34112
9601,34624
9602,35072
9603,35328
9604,35456
9605,35584
9606,35712
9607,35648
9608,35584
9609,35392
9610,35264
9611,35200
9612,35072
9613,34880
9614,34752
9615,34816
9616,34880
9617,34816
9618,34816
9619,34944
9620,34944
9621,34880
9622,34816
9623,34880
9624,34944
9625,34944
9626,34880
9627,34944
9628,35072
9629,35136
9630,35136
9631,35264
9632,35136
9633,34880
9634,34880
9635,34944
9636,35072
9637,35136
9638,35200
9639,35136
9640,35008
9641,34944
9642,34944
9643,35008
9644,35136
9645,35264
9646,35200
9647,35136
9648,35200
9649,35200
9650,35136
9651,35072
9652,35008
9653,35072
9654,35072
9655,35136
9656,35072
9657,35008
9658,34816
9659,34624
9660,34496
9661,34496
9662,34240
9663,34048
9664,33984
9665,34048
9666,34240
9667,34368
9668,34496
9669,34752
9670,35008
9671,35072
9672,35200
9673,35200
9674,35264
9675,35328
9676,35200
9677,35072
9678,35136
9679,35136
9680,35136
9681,34944
9682,34752
9683,34496
9684,34304
9685,34112
9686,33920
9687,33792
9688,33728
9689,33728
9690,33600
9691,33472
9692,33344
9693,33472
9694,33664
9695,33600
9696,33472
9697,33536
9698,33600
9699,33664
9700,33728
9701,33920
9702,34304
9703,34688
9704,35328
9705,36672
9706,38912
9707,41728
9708,44160
9709,45248
9710,44800
9711,42624
9712,39232
9713,35456
9714,32192
9715,29888
9716,28416
9717,27712
9718,27776
9719,28416
9720,29120
9721,29952
9722,30720
9723,31552
9724,32192
9725,32704
9726,33152
9727,33408
9728,33536
9729,33600
9730,33792
9731,34048
9732,34176
9733,34048
9734,33792
9735,33664
9736,33536
9737,33408
9738,33280
9739,33216
9740,33088
9741,33088
9742,32960
9743,32832
9744,32832
9745,32768
9746,32832
9747,33024
9748,33088
9749,33024
9750,33024
9751,33152
9752,33408
9753,33536
9754,33472
9755,33408
9756,33408
9757,33408
9758,33408
9759,33408
9760,33472
9761,33408
9762,33408
9763,33408
9764,33408
9765,33408
9766,33344
9767,33344
9768,33472
9769,33536
9770,33536
9771,33600
9772,33600
9773,33856
9774,33856
9775,33792
9776,33792
9777,33792
9778,33728
9779,33600
9780,33600
9781,33728
9782,33792
9783,33856
9784,33856
9785,33920
9786,33984
9787,34048
9788,34112
9789,34240
9790,34368
9791,34368
9792,34432
9793,34496
9794,34624
9795,34688
9796,34752
9797,34688
9798,34752
9799,34688
9800,34560
9801,34560
9802,34624
9803,34816
9804,34816
9805,34688
9806,34496
9807,34112
9808,33664
9809,33344
9810,33152
9811,33024
9812,32768
9813,32576
9814,32576
9815,32640
9816,32832
9817,32832
9818,33024
9819,33408
9820,33536
9821,33664
9822,33728
9823,33920
9824,34048
9825,34176
9826,34304
9827,34624
9828,35200
9829,36096
9830,37568
9831,40000
9832,40320
9833,45696
9834,47744
9835,48000
9836,46080
9837,42496
9838,38016
9839,33472
9840,29824
9841,27392
9842,26112
9843,25792
9844,26176
9845,27008
9846,28032
9847,29056
9848,30144
9849,31040
9850,31872
9851,32640
9852,33408
9853,33984
9854,34368
9855,34496
9856,34624
9857,34560
9858,34496
9859,34432
9860,34240
9861,34048
9862,33856
9863,33856
9864,34048
9865,34240
9866,34304
9867,34304
9868,34304
9869,34496
9870,34496
9871,34496
9872,34624
9873,34688
9874,34560
9875,34496
9876,34496
9877,34240
9878,33984
9879,33792
9880,33600
9881,33536
9882,33536
9883,33472
9884,33472
9885,33536
9886,33728
9887,33664
9888,33664
9889,33664
9890,33664
9891,33600
9892,33600
9893,33792
9894,33856
9895,33856
9896,33856
9897,33920
9898,34112
9899,34304
9900,34112
9901,33856
9902,33792
9903,33856
9904,33856
9905,33856
9906,33920
9907,33984
9908,33920
9909,33920
9910,34112
9911,34240
9912,34368
9913,34496
9914,34624
9915,34816
9916,34944
9917,35008
9918,35200
9919,35392
9920,35328
9921,35136
9922,35072
9923,35264
9924,35328
9925,35328
9926,35264
9927,35264
9928,35264
9929,35200
9930,35136
9931,35072
9932,34880
9933,34624
9934,34304
9935,34048
9936,33792
9937,33600
9938,33472
9939,33472
9940,33536
9941,33472
9942,33408
9943,33472
9944,33728
9945,33792
9946,33728
9947,33728
9948,33728
9949,33792
9950,33856
9951,33792
9952,33728
9953,33920
9954,34368
9955,35136
9956,36608
9957,38848
9958,41600
9959,44096
9960,45504
9961,45440
9962,43456
9963,40128
9964,35968
9965,32768
9966,30144
9967,28544
9968,27968
9969,28096
9970,28672
9971,29376
9972,30272
9973,31168
9974,31936
9975,32512
9976,32960
9977,33408
9978,33728
9979,33920
9980,34048
9981,34304
9982,34304
9983,34432
9984,34112
9985,33856
9986,33664
9987,33600
9988,33536
9989,33536
9990,33536
9991,33536
9992,33536
9993,33536
9994,33600
9995,33536
9996,33408
9997,33472
9998,33536
9999,33600
10000,33600
10001,33536
10002,33600
10003,33664
10004,33728
10005,33664
10006,33664
10007,33600
10008,33536
10009,33536
10010,33600
10011,33664
10012,33664
10013,33728
10014,33792
10015,33856
10016,33792
10017,33792
10018,33920
10019,34048
10020,34048
10021,33984
10022,33984
10023,34048
10024,34112
10025,34176
10026,34240
10027,34176
10028,34112
10029,33920
10030,33920
10031,33920
10032,33984
10033,33920
10034,33920
10035,34048
10036,34112
10037,34048
10038,34048
10039,34176
10040,34304
10041,34176
10042,34112
10043,34176
10044,34368
10045,34496
10046,34624
10047,34752
10048,34816
10049,34880
10050,34944
10051,35072
10052,35136
10053,35200
10054,35200
10055,35200
10056,35200
10057,35072
10058,34816
10059,34560
10060,34432
10061,34368
10062,34304
10063,33984
10064,33664
10065,33536
10066,33408
10067,33344
10068,33472
10069,33664
10070,33792
10071,33728
10072,33792
10073,33920
10074,33920
10075,33856
10076,33728
10077,33664
10078,33728
10079,33920
10080,34368
10081,35136
10082,36608
10083,38784
10084,41536
10085,44224
10086,46080
10087,45824
10088,43840
10089,40384
10090,36480
10091,32768
10092,30016
10093,28416
10094,27840
10095,27968
10096,28544
10097,29440
10098,30464
10099,31360
10100,32128
10101,32832
10102,33280
10103,33792
10104,34176
10105,34368
10106,34496
10107,34496
10108,34368
10109,34304
10110,34240
10111,34112
10112,33920
10113,33856
10114,33920
10115,33920
10116,33856
10117,33792
10118,33728
10119,33728
10120,33728
10121,33600
10122,33472
10123,33472
10124,33536
10125,33472
10126,33536
10127,33664
10128,33728
10129,33728
10130,33728
10131,33856
10132,33984
10133,33984
10134,34048
10135,34112
10136,34240
10137,34176
10138,34112
10139,34048
10140,34048
10141,33984
10142,34048
10143,34176
10144,34240
10145,34176
10146,33920
10147,33920
10148,33984
10149,34112
10150,34240
10151,34304
10152,34368
10153,34432
10154,34304
10155,34176
10156,34176
10157,34240
10158,34240
10159,34176
10160,34240
10161,34368
10162,34368
10163,34304
10164,34432
10165,34560
10166,34496
10167,34368
10168,34432
10169,34496
10170,34560
10171,34624
10172,34880
10173,35200
10174,35200
10175,35072
10176,35072
10177,35136
10178,35200
10179,35200
10180,35200
10181,35264
10182,35392
10183,35328
10184,35136
10185,34880
10186,34688
10187,34496
10188,34240
10189,34112
10190,33984
10191,33856
10192,33792
10193,33664
10194,33600
10195,33408
10196,33280
10197,33344
10198,33536
10199,33728
10200,33856
10201,33920
10202,33920
10203,33920
10204,33920
10205,33984
10206,34432
10207,34880
10208,35648
10209,37184
10210,39360
10211,42112
10212,44608
10213,45888
10214,45632
10215,43392
10216,39616
10217,35584
10218,32064
10219,29696
10220,28288
10221,27776
10222,28032
10223,28736
10224,29632
10225,30528
10226,31424
10227,32192
10228,32896
10229,33408
10230,33728
10231,33984
10232,34304
10233,34496
10234,34432
10235,34304
10236,34176
10237,34112
10238,33920
10239,33792
10240,33664
10241,33664
10242,33728
10243,33728
10244,33728
10245,33600
10246,33536
10247,33536
10248,33472
10249,33408
10250,33344
10251,33344
10252,33472
10253,33536
10254,33536
10255,33472
10256,33536
10257,33600
10258,33536
10259,33536
10260,33536
10261,33600
10262,33664
10263,33664
10264,33728
10265,33856
10266,33856
10267,33792
10268,33664
10269,33600
10270,33600
10271,33664
10272,33728
10273,33920
10274,34240
10275,34304
10276,34240
10277,34240
10278,34240
10279,34176
10280,34176
10281,34304
10282,34432
10283,34368
10284,34240
10285,34240
10286,34240
10287,34304
10288,34240
10289,34176
10290,34176
10291,34112
10292,33984
10293,34048
10294,34176
10295,34240
10296,34304
10297,34368
10298,34496
10299,34560
10300,34624
10301,34816
10302,34880
10303,34880
10304,34944
10305,35008
10306,35072
10307,35136
10308,35008
10309,34816
10310,34752
10311,34752
10312,34688
10313,34432
10314,34176
10315,33984
10316,33792
10317,33536
10318,33280
10319,33152
10320,33088
10321,33152
10322,33216
10323,33216
10324,33344
10325,33536
10326,33792
10327,34176
10328,34560
10329,34752
10330,34880
10331,34944
10332,34944
10333,34944
10334,34944
10335,35008
10336,35264
10337,36032
10338,37632
10339,40128
10340,42816
10341,44992
10342,44992
10343,43392
10344,40320
10345,36416
10346,32704
10347,30144
10348,28672
10349,27968
10350,28032
10351,28672
10352,29568
10353,30528
10354,31360
10355,32064
10356,32896
10357,33152
10358,33472
10359,33664
10360,33792
10361,33856
10362,33728
10363,33664
10364,33664
10365,33664
10366,33728
10367,33664
10368,33664
10369,33792
10370,33856
10371,33856
10372,33856
10373,33984
10374,34048
10375,34048
10376,34112
10377,34176
10378,34240
10379,34240
10380,34304
10381,34432
10382,34560
10383,34560
10384,34560
10385,34560
10386,34560
10387,34432
10388,34176
10389,33920
10390,33664
10391,33344
10392,33024
10393,32896
10394,32832
10395,32768
10396,32832
10397,32896
10398,33088
10399,33408
10400,33728
10401,34048
10402,34304
10403,34496
10404,34560
10405,34560
10406,34624
10407,34688
10408,34688
10409,34624
10410,34688
10411,34688
10412,34624
10413,34496
10414,34432
10415,34368
10416,34304
10417,34240
10418,34112
10419,34176
10420,34176
10421,34176
10422,34176
10423,34240
10424,34304
10425,34304
10426,34304
10427,34368
10428,34432
10429,34432
10430,34432
10431,34624
10432,34624
10433,34688
10434,34688
10435,34816
10436,34944
10437,35008
10438,35072
10439,35136
10440,35264
10441,35264
10442,35072
10443,34944
10444,34880
10445,34816
10446,34560
10447,34304
10448,34048
10449,33792
10450,33600
10451,33472
10452,33536
10453,33536
10454,33536
10455,33600
10456,33792
10457,33920
10458,33920
10459,33856
10460,33920
10461,34112
10462,34048
10463,33984
10464,33984
10465,34304
10466,34944
10467,36032
10468,37888
10469,40384
10470,43072
10471,44992
10472,45376
10473,44032
10474,40960
10475,36992
10476,33088
10477,30336
10478,28608
10479,27840
10480,27904
10481,28416
10482,29184
10483,30080
10484,30912
10485,31616
10486,32256
10487,32768
10488,33088
10489,33344
10490,33536
10491,33792
10492,33856
10493,33856
10494,33856
10495,33984
10496,33920
10497,33856
10498,33728
10499,33664
10500,33792
10501,33856
10502,33856
10503,33920
10504,33920
10505,33984
10506,34048
10507,34048
10508,34176
10509,34240
10510,34240
10511,34304
10512,34240
10513,34240
10514,34304
10515,34432
10516,34432
10517,34368
10518,34432
10519,34560
10520,34560
10521,34432
10522,34304
10523,34304
10524,34240
10525,34176
10526,34048
10527,34048
10528,33984
10529,33920
10530,33856
10531,33984
10532,34176
10533,34240
10534,34240
10535,34240
10536,34304
10537,34304
10538,34304
10539,34368
10540,34432
10541,34496
10542,34496
10543,34496
10544,34560
10545,34560
10546,34432
10547,34368
10548,34368
10549,34432
10550,34304
10551,34176
10552,34176
10553,34240
10554,34176
10555,34112
10556,34176
10557,34304
10558,34432
10559,34624
10560,34816
10561,34944
10562,34944
10563,34944
10564,35008
10565,35200
10566,35136
10567,34944
10568,34816
10569,34816
10570,34816
10571,34816
10572,34688
10573,34496
10574,34368
10575,34240
10576,34048
10577,33984
10578,33984
10579,33984
10580,33984
10581,34048
10582,33984
10583,33920
10584,33856
10585,33920
10586,34112
10587,34304
10588,34368
10589,34496
10590,34560
10591,34560
10592,34560
10593,34432
10594,34432
10595,34688
10596,35200
10597,35840
10598,37184
10599,39168
10600,41728
10601,44096
10602,45440
10603,45184
10604,42944
10605,39488
10606,35136
10607,32128
10608,29696
10609,28352
10610,27968
10611,28288
10612,28928
10613,29824
10614,30720
10615,31744
10616,32576
10617,33280
10618,33856
10619,34368
10620,34752
10621,35072
10622,35264
10623,35328
10624,35328
10625,35200
10626,34944
10627,34880
10628,34816
10629,34624
10630,34368
10631,34176
10632,33984
10633,33728
10634,33600
10635,33536
10636,33536
10637,33600
10638,33664
10639,33792
10640,33920
10641,33984
10642,34048
10643,34112
10644,34176
10645,34176
10646,34112
10647,34048
10648,33920
10649,33792
10650,33728
10651,33664
10652,33728
10653,33728
10654,33664
10655,33728
10656,33792
10657,33856
10658,33792
10659,33792
10660,33856
10661,33856
10662,33856
10663,33856
10664,33984
10665,34176
10666,34240
10667,34304
10668,34304
10669,34368
10670,34432
10671,34368
10672,34368
10673,34496
10674,34624
10675,34496
10676,34368
10677,34304
10678,34432
10679,34560
10680,34560
10681,34624
10682,34624
10683,34496
10684,34432
10685,34432
10686,34496
10687,34496
10688,34496
10689,34624
10690,34752
10691,34880
10692,34944
10693,34944
10694,34944
10695,34816
10696,34752
10697,34816
10698,34944
10699,34944
10700,34944
10701,35008
10702,35008
10703,34816
10704,34560
10705,34432
10706,34304
10707,34240
10708,34112
10709,33984
10710,33920
10711,33728
10712,33536
10713,33472
10714,33536
10715,33728
10716,33856
10717,33856
10718,33856
10719,33920
10720,33920
10721,33920
10722,33856
10723,33920
10724,33984
10725,34304
10726,35008
10727,36224
10728,38208
10729,40832
10730,43520
10731,45248
10732,45504
10733,43776
10734,40576
10735,36672
10736,33152
10737,30464
10738,28800
10739,27968
10740,27904
10741,28416
10742,29248
10743,30144
10744,31104
10745,31936
10746,32512
10747,33024
10748,33472
10749,33856
10750,34112
10751,34368
10752,34496
10753,34560
10754,34560
10755,34496
10756,34240
10757,34048
10758,33856
10759,33664
10760,33600
10761,33536
10762,33600
10763,33600
10764,33600
10765,33664
10766,33600
10767,33600
10768,33536
10769,33536
10770,33600
10771,33600
10772,33536
10773,33536
10774,33536
10775,33536
10776,33600
10777,33600
10778,33536
10779,33472
10780,33472
10781,33472
10782,33536
10783,33472
10784,33536
10785,33728
10786,33856
10787,33856
10788,33792
10789,33856
10790,33920
10791,33984
10792,34048
10793,34176
10794,34240
10795,34176
10796,34048
10797,33920
10798,33984
10799,34048
10800,34048
10801,33984
10802,34112
10803,34240
10804,34176
10805,34048
10806,34048
10807,34176
10808,34240
10809,34240
10810,34240
10811,34240
10812,34240
10813,34112
10814,34048
10815,33984
10816,33984
10817,33984
10818,34048
10819,34176
10820,34240
10821,34304
10822,34368
10823,34560
10824,34752
10825,34816
10826,34816
10827,34880
10828,34816
10829,34688
10830,34624
10831,34688
10832,34752
10833,34816
10834,34688
10835,34496
10836,34304
10837,33984
10838,33792
10839,33728
10840,33728
10841,33664
10842,33472
10843,33408
10844,33472
10845,33536
10846,33536
10847,33664
10848,33792
10849,33856
10850,33920
10851,33920
10852,33984
10853,33984
10854,33792
10855,33664
10856,33856
10857,34304
10858,35136
10859,36544
10860,38720
10861,41792
10862,44032
10863,45312
10864,45184
10865,43264
10866,40000
10867,36096
10868,32576
10869,30080
10870,28608
10871,27968
10872,28032
10873,28672
10874,29504
10875,30400
10876,31296
10877,32000
10878,32704
10879,33344
10880,33728
10881,34112
10882,34368
10883,34496
10884,34624
10885,34688
10886,34752
10887,34624
10888,34304
10889,33920
10890,33600
10891,33408
10892,33280
10893,33216
10894,33344
10895,33472
10896,33472
10897,33472
10898,33536
10899,33600
10900,33600
10901,33600
10902,33664
10903,33728
10904,33728
10905,33728
10906,33728
10907,33856
10908,33728
10909,33664
10910,33664
10911,33664
10912,33792
10913,33792
10914,33792
10915,33856
10916,33792
10917,33728
10918,33600
10919,33536
10920,33600
10921,33664
10922,33728
10923,33856
10924,34048
