,ECG
0,35712
1,35648
2,35712
3,35776
4,35968
5,36096
6,36480
7,36672
8,36608
9,36544
10,36288
11,36160
12,36288
13,36288
14,36160
15,35904
16,35904
17,36224
18,36352
19,36288
20,36224
21,35840
22,35264
23,35008
24,35072
25,35008
26,34752
27,34688
28,34688
29,34816
30,34752
31,34688
32,34688
33,34560
34,34240
35,34176
36,34304
37,34048
38,33728
39,33664
40,33920
41,34176
42,34240
43,34496
44,34688
45,34496
46,33984
47,33728
48,33664
49,33536
50,33600
51,33408
52,33024
53,32960
54,32960
55,32896
56,32704
57,32512
58,32192
59,31872
60,31680
61,31744
62,31808
63,31488
64,31232
65,31296
66,31552
67,31616
68,31296
69,31104
70,31232
71,31488
72,31552
73,31616
74,31808
75,31872
76,32128
77,32640
78,32896
79,32960
80,33216
81,33408
82,33472
83,33536
84,33472
85,33344
86,33344
87,33472
88,33152
89,32768
90,32448
91,32064
92,31616
93,31232
94,30912
95,30336
96,29696
97,29376
98,29376
99,29568
100,29824
101,30016
102,30336
103,30912
104,31808
105,32384
106,33088
107,33728
108,34624
109,35392
110,35840
111,36032
112,36160
113,36160
114,35904
115,35584
116,35200
117,34688
118,34240
119,33792
120,33408
121,33024
122,32640
123,32320
124,31744
125,30976
126,30144
127,29568
128,28928
129,28288
130,27968
131,27840
132,27712
133,27712
134,27840
135,28032
136,28288
137,28672
138,28992
139,29312
140,29568
141,29824
142,30080
143,30528
144,31040
145,31232
146,31168
147,31232
148,31232
149,31424
150,32000
151,33280
152,35520
153,38400
154,40832
155,42112
156,42112
157,40320
158,37120
159,33472
160,30592
161,28672
162,27776
163,27712
164,28224
165,28928
166,29632
167,30208
168,30848
169,31488
170,32000
171,32448
172,32832
173,33408
174,33920
175,34176
176,34432
177,34752
178,35008
179,35136
180,35200
181,35456
182,35712
183,36096
184,36416
185,36736
186,37120
187,37568
188,38080
189,38720
190,39168
191,39360
192,39616
193,39616
194,39488
195,39488
196,39616
197,39872
198,40000
199,40448
200,41216
201,41728
202,41792
203,42112
204,42624
205,42432
206,41984
207,41728
208,41600
209,41152
210,40640
211,40192
212,40064
213,39936
214,39808
215,39744
216,39616
217,39616
218,40064
219,41152
220,41728
221,41792
222,41664
223,41856
224,42240
225,42432
226,42752
227,42560
228,42304
229,41728
230,40832
231,40128
232,39552
233,39168
234,38784
235,38656
236,38528
237,38208
238,37888
239,37568
240,37376
241,37248
242,37248
243,37376
244,37312
245,37312
246,37440
247,37504
248,37376
249,37248
250,37056
251,36992
252,37312
253,37248
254,36864
255,36608
256,36416
257,36032
258,35712
259,35392
260,35136
261,34944
262,34816
263,34752
264,34496
265,34240
266,34048
267,33728
268,33408
269,33216
270,33024
271,32832
272,32768
273,32832
274,32896
275,33088
276,33344
277,33536
278,33664
279,33408
280,32896
281,32704
282,32576
283,31872
284,31168
285,30912
286,30912
287,30976
288,30720
289,30784
290,30784
291,30272
292,30144
293,30144
294,30144
295,30464
296,30912
297,31488
298,32256
299,32896
300,32896
301,32896
302,33216
303,33344
304,32960
305,32576
306,32384
307,32192
308,31872
309,31424
310,30848
311,30528
312,30208
313,29504
314,28736
315,28352
316,28224
317,27904
318,27904
319,28096
320,28096
321,28096
322,28416
323,29056
324,29376
325,30208
326,31552
327,33856
328,36864
329,39936
330,41664
331,41856
332,39680
333,36224
334,32064
335,28544
336,26432
337,25536
338,25344
339,25408
340,25920
341,26816
342,27840
343,28800
344,30080
345,30720
346,31232
347,31936
348,32256
349,32512
350,32256
351,32064
352,32000
353,32384
354,32512
355,31680
356,31168
357,31104
358,31104
359,31168
360,31424
361,31616
362,31744
363,31872
364,31872
365,31936
366,32256
367,32768
368,33472
369,33536
370,33600
371,33856
372,34240
373,34496
374,34752
375,35264
376,35648
377,35456
378,35200
379,35008
380,35264
381,35584
382,35712
383,35904
384,35968
385,36224
386,36672
387,36928
388,36928
389,36608
390,36224
391,35904
392,35712
393,35328
394,35072
395,35008
396,34816
397,34880
398,34752
399,34496
400,34176
401,34112
402,34048
403,34304
404,34560
405,34880
406,35008
407,35136
408,35392
409,35392
410,35648
411,35904
412,36288
413,36288
414,36288
415,36160
416,35904
417,35584
418,35200
419,34944
420,34432
421,33920
422,33472
423,33088
424,32832
425,32768
426,32640
427,32576
428,32320
429,32064
430,31872
431,31936
432,32064
433,32000
434,31424
435,31040
436,30592
437,30272
438,29888
439,29568
440,28992
441,28224
442,27456
443,26944
444,26496
445,26368
446,25792
447,24960
448,24832
449,25152
450,24576
451,23680
452,23232
453,23616
454,24064
455,24640
456,25728
457,27072
458,28416
459,29632
460,30592
461,31680
462,32640
463,33280
464,33600
465,33856
466,33856
467,33728
468,33600
469,33408
470,33024
471,32768
472,32448
473,32128
474,31936
475,31936
476,32192
477,32448
478,33024
479,33280
480,33408
481,33664
482,34048
483,34496
484,35072
485,35264
486,35456
487,35584
488,36160
489,36288
490,36160
491,36032
492,36416
493,37312
494,37376
495,39552
496,41600
497,43968
498,45696
499,46016
500,44352
501,40704
502,39872
503,32512
504,29568
505,27712
506,26816
507,26496
508,26880
509,26880
510,28416
511,29120
512,29952
513,30592
514,31232
515,31616
516,31872
517,32000
518,32192
519,32448
520,32640
521,32832
522,32896
523,32960
524,32960
525,33024
526,33216
527,33600
528,33856
529,33600
530,33472
531,33216
532,32768
533,32256
534,31872
535,31680
536,31552
537,31744
538,31744
539,32320
540,33536
541,33984
542,34560
543,35200
544,35712
545,36288
546,36224
547,36096
548,36096
549,36352
550,36864
551,36992
552,36864
553,36608
554,36544
555,36416
556,36288
557,36160
558,36160
559,36160
560,36032
561,36160
562,36352
563,36416
564,36800
565,37056
566,37184
567,37120
568,37248
569,37376
570,37184
571,36992
572,36992
573,36864
574,36672
575,36480
576,36096
577,35776
578,35456
579,35008
580,34560
581,34240
582,33856
583,33472
584,33408
585,32768
586,32512
587,32128
588,31808
589,31552
590,31488
591,31488
592,31104
593,30336
594,29824
595,29568
596,29440
597,29376
598,29504
599,29824
600,30208
601,30720
602,31168
603,31616
604,32064
605,32576
606,33024
607,33536
608,33984
609,34304
610,34624
611,34944
612,35136
613,35520
614,35520
615,36352
616,36608
617,36800
618,36800
619,36672
620,36608
621,36608
622,36544
623,36416
624,36352
625,36224
626,36096
627,36032
628,35904
629,35776
630,35648
631,35456
632,35264
633,35136
634,35136
635,35328
636,35072
637,34752
638,34688
639,34880
640,35072
641,35328
642,35264
643,35264
644,35200
645,35136
646,35072
647,35072
648,35200
649,35328
650,35392
651,35648
652,35520
653,35776
654,36480
655,37888
656,40192
657,43008
658,45376
659,46336
660,45760
661,43072
662,39104
663,34816
664,31296
665,28864
666,27584
667,27328
668,27648
669,28416
670,29248
671,29952
672,30784
673,31552
674,32256
675,32704
676,32832
677,33024
678,33216
679,33088
680,32768
681,32576
682,32448
683,32448
684,32448
685,32576
686,32640
687,32640
688,32640
689,32640
690,32960
691,33152
692,33472
693,33600
694,33600
695,33536
696,33408
697,33344
698,33024
699,32896
700,32960
701,33088
702,33344
703,33536
704,33536
705,33728
706,33664
707,33600
708,33536
709,33664
710,33792
711,33792
712,33664
713,33664
714,33792
715,33856
716,33728
717,33472
718,33472
719,33408
720,32768
721,32448
722,32384
723,32512
724,32704
725,32768
726,32832
727,32896
728,32960
729,32896
730,32896
731,32960
732,32960
733,32960
734,32960
735,33088
736,32896
737,32512
738,32256
739,32320
740,32256
741,31872
742,31872
743,32128
744,32128
745,32064
746,32064
747,32256
748,32640
749,32640
750,33664
751,34304
752,34880
753,35392
754,35904
755,36608
756,37056
757,37184
758,37120
759,36928
760,36672
761,36160
762,35584
763,35008
764,34560
765,34240
766,34048
767,33664
768,33216
769,32896
770,32576
771,32512
772,32832
773,33088
774,33152
775,33216
776,32960
777,32896
778,32960
779,32896
780,33216
781,33536
782,33664
783,33728
784,33728
785,33920
786,34176
787,34560
788,35264
789,36032
790,36416
791,36672
792,36928
793,37504
794,37504
795,38144
796,38336
797,38336
798,37824
799,37248
800,36672
801,36224
802,35840
803,35648
804,35520
805,35008
806,34560
807,34240
808,34048
809,33984
810,34048
811,34176
812,34304
813,34432
814,34624
815,34688
816,34496
817,34112
818,33728
819,33152
820,32640
821,32320
822,32192
823,32384
824,33024
825,34176
826,35840
827,38208
828,41152
829,43968
830,45440
831,45440
832,43456
833,39808
834,35520
835,31744
836,29056
837,27648
838,27264
839,27328
840,28544
841,29696
842,30848
843,31936
844,32832
845,33536
846,34176
847,34624
848,34816
849,34816
850,34688
851,34560
852,34496
853,34048
854,33920
855,33536
856,33408
857,33024
858,32384
859,32000
860,31808
861,31744
862,31680
863,31616
864,31808
865,32128
866,32576
867,33088
868,33536
869,33472
870,33536
871,33536
872,33664
873,33792
874,34112
875,34432
876,34240
877,33984
878,33664
879,33472
880,33536
881,33792
882,34240
883,34432
884,34560
885,34752
886,34752
887,34816
888,34880
889,34816
890,34688
891,34560
892,34496
893,34432
894,34624
895,34496
896,34176
897,33984
898,33792
899,33600
900,33472
901,33472
902,33600
903,33536
904,33408
905,33600
906,33792
907,33920
908,34176
909,34560
910,34752
911,34752
912,34752
913,34944
914,34880
915,34944
916,34944
917,35008
918,35136
919,35072
920,35008
921,34880
922,34880
923,34816
924,34880
925,34944
926,34688
927,34432
928,34368
929,34304
930,34240
931,34240
932,34048
933,33920
934,34048
935,34368
936,34496
937,34496
938,34432
939,34368
940,34240
941,34176
942,34176
943,34176
944,33920
945,33600
946,33408
947,33280
948,33216
949,33152
950,33088
951,32960
952,32768
953,32768
954,32704
955,32512
956,32576
957,32704
958,32768
959,33024
960,33344
961,33216
962,33088
963,33024
964,32896
965,32640
966,32256
967,32000
968,31808
969,31808
970,32000
971,32064
972,32064
973,31936
974,31872
975,31744
976,31936
977,32256
978,32448
979,32640
980,32704
981,32704
982,32640
983,32704
984,32896
985,33344
986,33792
987,34368
988,34880
989,35456
990,36416
991,37056
992,38080
993,39808
994,41984
995,44672
996,47680
997,49344
998,49792
999,47872
1000,44416
1001,40064
1002,35840
1003,31616
1004,31488
1005,29952
1006,29952
1007,30528
1008,31424
1009,32448
1010,33408
1011,34432
1012,35136
1013,35712
1014,36288
1015,36736
1016,37120
1017,37440
1018,37696
1019,37632
1020,37504
1021,37312
1022,37120
1023,36736
1024,36288
1025,36160
1026,36160
1027,36032
1028,35776
1029,35584
1030,35328
1031,35200
1032,35136
1033,35072
1034,35008
1035,35328
1036,35776
1037,36288
1038,36736
1039,37184
1040,37440
1041,37504
1042,37696
1043,38016
1044,38208
1045,38400
1046,38656
1047,38784
1048,38784
1049,38720
1050,38656
1051,38528
1052,38400
1053,38272
1054,38272
1055,38336
1056,38336
1057,38208
1058,38144
1059,38144
1060,38144
1061,38016
1062,37952
1063,38016
1064,38208
1065,38272
1066,38208
1067,38144
1068,38336
1069,38208
1070,37824
1071,37632
1072,37632
1073,37440
1074,37312
1075,37504
1076,37824
1077,37760
1078,37376
1079,36928
1080,36800
1081,36864
1082,36928
1083,36928
1084,36928
1085,36800
1086,36672
1087,36544
1088,36608
1089,36672
1090,36672
1091,36416
1092,36288
1093,36224
1094,35840
1095,35392
1096,35008
1097,34944
1098,34944
1099,35136
1100,35200
1101,35136
1102,35200
1103,35328
1104,35328
1105,35200
1106,35008
1107,35072
1108,35328
1109,35200
1110,34944
1111,34816
1112,34944
1113,35008
1114,35072
1115,35072
1116,35136
1117,35264
1118,35328
1119,34944
1120,34368
1121,33856
1122,33280
1123,32640
1124,32000
1125,31424
1126,30848
1127,30080
1128,29184
1129,28608
1130,28288
1131,28352
1132,28608
1133,28928
1134,29184
1135,29504
1136,29696
1137,30016
1138,30400
1139,30528
1140,30272
1141,30144
1142,30336
1143,30784
1144,30912
1145,30848
1146,30784
1147,30848
1148,31040
1149,31104
1150,30912
1151,30720
1152,30464
1153,30080
1154,29760
1155,29632
1156,29632
1157,29824
1158,30080
1159,30016
1160,29824
1161,29632
1162,29376
1163,29248
1164,29632
1165,30208
1166,31104
1167,32768
1168,35136
1169,38016
1170,40512
1171,41664
1172,41088
1173,38528
1174,34624
1175,30592
1176,27456
1177,25280
1178,23872
1179,23488
1180,23872
1181,24640
1182,25728
1183,26624
1184,27520
1185,28416
1186,29120
1187,29440
1188,30016
1189,30592
1190,30720
1191,30848
1192,31104
1193,31296
1194,31232
1195,31104
1196,31168
1197,31168
1198,31168
1199,31040
1200,31104
1201,31360
1202,31360
1203,31232
1204,31232
1205,31232
1206,31040
1207,30976
1208,31168
1209,31168
1210,31104
1211,31232
1212,31424
1213,31552
1214,31808
1215,32000
1216,32128
1217,32384
1218,32512
1219,32320
1220,31872
1221,31616
1222,31616
1223,31296
1224,30976
1225,30720
1226,30528
1227,30400
1228,30592
1229,30976
1230,31360
1231,31680
1232,31616
1233,31488
1234,31744
1235,32128
1236,32192
1237,32320
1238,32384
1239,32448
1240,32448
1241,32256
1242,32128
1243,32256
1244,32128
1245,31808
1246,31488
1247,31360
1248,31232
1249,31424
1250,31872
1251,32384
1252,32640
1253,32576
1254,32448
1255,32512
1256,32704
1257,33088
1258,33280
1259,33216
1260,33216
1261,33472
1262,33728
1263,33920
1264,33984
1265,34048
1266,33856
1267,33728
1268,33792
1269,33792
1270,33792
1271,33920
1272,34112
1273,34368
1274,34368
1275,34240
1276,34176
1277,34176
1278,33856
1279,33664
1280,33856
1281,33984
1282,33920
1283,33792
1284,33792
1285,33600
1286,33472
1287,33600
1288,33856
1289,34240
1290,34560
1291,34560
1292,34432
1293,34304
1294,34432
1295,34560
1296,34624
1297,34816
1298,34880
1299,34880
1300,34944
1301,35072
1302,35136
1303,35136
1304,35200
1305,35200
1306,34816
1307,34304
1308,34176
1309,34304
1310,34112
1311,33920
1312,34048
1313,34432
1314,34432
1315,34240
1316,33984
1317,33856
1318,33792
1319,33408
1320,33344
1321,33600
1322,33856
1323,33984
1324,34048
1325,34048
1326,34240
1327,34368
1328,34496
1329,34624
1330,34816
1331,35264
1332,35136
1333,34944
1334,35008
1335,35264
1336,35968
1337,37248
1338,39232
1339,41920
1340,45120
1341,47744
1342,48960
1343,48448
1344,45888
1345,41920
1346,37760
1347,34560
1348,32640
1349,32064
1350,32384
1351,32960
1352,33600
1353,34240
1354,34816
1355,35456
1356,36160
1357,36800
1358,37440
1359,38016
1360,38336
1361,38464
1362,38464
1363,38336
1364,38400
1365,38336
1366,38208
1367,38144
1368,38272
1369,38016
1370,37760
1371,37376
1372,37120
1373,36928
1374,36672
1375,36544
1376,36416
1377,36544
1378,36480
1379,36352
1380,36416
1381,36352
1382,36032
1383,35712
1384,35584
1385,35520
1386,35584
1387,35648
1388,35776
1389,35968
1390,35904
1391,35712
1392,35776
1393,35904
1394,35968
1395,35840
1396,35584
1397,35584
1398,35712
1399,35520
1400,35200
1401,35136
1402,34880
1403,34688
1404,34624
1405,34624
1406,34816
1407,35072
1408,34688
1409,34304
1410,33984
1411,33664
1412,33472
1413,33216
1414,32960
1415,32832
1416,32512
1417,32192
1418,32064
1419,31872
1420,31552
1421,31488
1422,31552
1423,31424
1424,31296
1425,31168
1426,31168
1427,31232
1428,31296
1429,31296
1430,31296
1431,31232
1432,31168
1433,31232
1434,31488
1435,31360
1436,31168
1437,31040
1438,31040
1439,31104
1440,31168
1441,31168
1442,31040
1443,30912
1444,31040
1445,30912
1446,30656
1447,30720
1448,30784
1449,30784
1450,30848
1451,30976
1452,30976
1453,30912
1454,30720
1455,30784
1456,31104
1457,31168
1458,31104
1459,31104
1460,31360
1461,31680
1462,31936
1463,32384
1464,32832
1465,33088
1466,33152
1467,33280
1468,33536
1469,33664
1470,33728
1471,33920
1472,34112
1473,34048
1474,33984
1475,33984
1476,33984
1477,33984
1478,33984
1479,33728
1480,33472
1481,33408
1482,33344
1483,33216
1484,33280
1485,33344
1486,33024
1487,32832
1488,32832
1489,32832
1490,32768
1491,32768
1492,32768
1493,32768
1494,32704
1495,32576
1496,32640
1497,32768
1498,32960
1499,33408
1500,34176
1501,35584
1502,37760
1503,40576
1504,43456
1505,45056
1506,44800
1507,42624
1508,38912
1509,34432
1510,30848
1511,28352
1512,26816
1513,26304
1514,26624
1515,27328
1516,28352
1517,29248
1518,30272
1519,31104
1520,31744
1521,32384
1522,33152
1523,33600
1524,33792
1525,33792
1526,33920
1527,33984
1528,33920
1529,33728
1530,33408
1531,33088
1532,32768
1533,32640
1534,32768
1535,32960
1536,33024
1537,33088
1538,33152
1539,33152
1540,32960
1541,32832
1542,32832
1543,33024
1544,33152
1545,33216
1546,33216
1547,33216
1548,33344
1549,33536
1550,33856
1551,34048
1552,34176
1553,34368
1554,34368
1555,34240
1556,34112
1557,34048
1558,34048
1559,34240
1560,34496
1561,34624
1562,34560
1563,34688
1564,34816
1565,34752
1566,34816
1567,34944
1568,34944
1569,34624
1570,34304
1571,34176
1572,34176
1573,34240
1574,34240
1575,34240
1576,34240
1577,34176
1578,34176
1579,34240
1580,34304
1581,34432
1582,34496
1583,34496
1584,34624
1585,34752
1586,34816
1587,34624
1588,34432
1589,34304
1590,33984
1591,33728
1592,33600
1593,33536
1594,33600
1595,33728
1596,33728
1597,33920
1598,34240
1599,34432
1600,34496
1601,34624
1602,34752
1603,34752
1604,34944
1605,35072
1606,35136
1607,35136
1608,35136
1609,35200
1610,35456
1611,35392
1612,35200
1613,35136
1614,35136
1615,35200
1616,35264
1617,35136
1618,35008
1619,34944
1620,34880
1621,34880
1622,34944
1623,35008
1624,34944
1625,34880
1626,34880
1627,34880
1628,34816
1629,34816
1630,35008
1631,35136
1632,35264
1633,35200
1634,35136
1635,35008
1636,34944
1637,34880
1638,34752
1639,34560
1640,34176
1641,33856
1642,33728
1643,33792
1644,33792
1645,33728
1646,33664
1647,33728
1648,33728
1649,33728
1650,33792
1651,33920
1652,34048
1653,34048
1654,34112
1655,34176
1656,34048
1657,33856
1658,33856
1659,34112
1660,34688
1661,35712
1662,37440
1663,39872
1664,42880
1665,44928
1666,45632
1667,44608
1668,41728
1669,37824
1670,33920
1671,30720
1672,29120
1673,28224
1674,28160
1675,28544
1676,29376
1677,30336
1678,31296
1679,32256
1680,32896
1681,33344
1682,33600
1683,33792
1684,34048
1685,34368
1686,34496
1687,34432
1688,34496
1689,34560
1690,34496
1691,34304
1692,34368
1693,34496
1694,34560
1695,34432
1696,34368
1697,34432
1698,34304
1699,34176
1700,34048
1701,34112
1702,34112
1703,34112
1704,34304
1705,34368
1706,34368
1707,34304
1708,34304
1709,34240
1710,34176
1711,33920
1712,33728
1713,33728
1714,33728
1715,33600
1716,33472
1717,33600
1718,33728
1719,33728
1720,33728
1721,33792
1722,33984
1723,34048
1724,34048
1725,33984
1726,34112
1727,34048
1728,33984
1729,33792
1730,33792
1731,33664
1732,33600
1733,33536
1734,33600
1735,33536
1736,33408
1737,33280
1738,33280
1739,33344
1740,33344
1741,33408
1742,33600
1743,33792
1744,33856
1745,33856
1746,33792
1747,33792
1748,33664
1749,33536
1750,33472
1751,33472
1752,33472
1753,33344
1754,33216
1755,33280
1756,33408
1757,33408
1758,33344
1759,33344
1760,33408
1761,33408
1762,33472
1763,33600
1764,33728
1765,33856
1766,33856
1767,33856
1768,33920
1769,33856
1770,33792
1771,33792
1772,33856
1773,33792
1774,33664
1775,33600
1776,33728
1777,33856
1778,33856
1779,33984
1780,34176
1781,34368
1782,34304
1783,34368
1784,34496
1785,34560
1786,34496
1787,34432
1788,34496
1789,34688
1790,34752
1791,34752
1792,34688
1793,34688
1794,34624
1795,34560
1796,34560
1797,34560
1798,34432
1799,34304
1800,34176
1801,34048
1802,33856
1803,33664
1804,33600
1805,33664
1806,33664
1807,33472
1808,33408
1809,33408
1810,33472
1811,33472
1812,33408
1813,33472
1814,33600
1815,33600
1816,33600
1817,33728
1818,33792
1819,33792
1820,33664
1821,33664
1822,33728
1823,33664
1824,33472
1825,33728
1826,34368
1827,35456
1828,36992
1829,39296
1830,42112
1831,44544
1832,45696
1833,45184
1834,42752
1835,38976
1836,34752
1837,31360
1838,28992
1839,27712
1840,27264
1841,27520
1842,28352
1843,29312
1844,30272
1845,31104
1846,31872
1847,32576
1848,33216
1849,33536
1850,33664
1851,33856
1852,33920
1853,33856
1854,33728
1855,33664
1856,33600
1857,33408
1858,33344
1859,33408
1860,33344
1861,33216
1862,33152
1863,33152
1864,33152
1865,33152
1866,33088
1867,33152
1868,33152
1869,33216
1870,33280
1871,33344
1872,33408
1873,33472
1874,33408
1875,33344
1876,33344
1877,33408
1878,33408
1879,33472
1880,33536
1881,33600
1882,33472
1883,33472
1884,33536
1885,33536
1886,33536
1887,33536
1888,33664
1889,33792
1890,33856
1891,33920
1892,34048
1893,34048
1894,33984
1895,33920
1896,33984
1897,34112
1898,34112
1899,33920
1900,33792
1901,33792
1902,33728
1903,33664
1904,33536
1905,33408
1906,33280
1907,33152
1908,33088
1909,33088
1910,33088
1911,33024
1912,33024
1913,33152
1914,33216
1915,33216
1916,33216
1917,33280
1918,33472
1919,33536
1920,33536
1921,33728
1922,33856
1923,33792
1924,33600
1925,33600
1926,33600
1927,33600
1928,33600
1929,33600
1930,33664
1931,33664
1932,33664
1933,33664
1934,33728
1935,33792
1936,33728
1937,33664
1938,33600
1939,33600
1940,33536
1941,33536
1942,33472
1943,33472
1944,33472
1945,33472
1946,33472
1947,33536
1948,33600
1949,33664
1950,33600
1951,33664
1952,33728
1953,33664
1954,33536
1955,33536
1956,33728
1957,33984
1958,34112
1959,34304
1960,34368
1961,34368
1962,34368
1963,34368
1964,34368
1965,34304
1966,34240
1967,34176
1968,34048
1969,33920
1970,33728
1971,33600
1972,33536
1973,33472
1974,33344
1975,33216
1976,33216
1977,33088
1978,32960
1979,32896
1980,32896
1981,32896
1982,32896
1983,32960
1984,33152
1985,33280
1986,33280
1987,33344
1988,33536
1989,33664
1990,33728
1991,33600
1992,33536
1993,33728
1994,34112
1995,34880
1996,36352
1997,38656
1998,41408
1999,43840
2000,45056
2001,44672
2002,42432
2003,38848
2004,34880
2005,31616
2006,29248
2007,27904
2008,27456
2009,27776
2010,28480
2011,29312
2012,30208
2013,31168
2014,31936
2015,32512
2016,33024
2017,33408
2018,33664
2019,33856
2020,33920
2021,33920
2022,33920
2023,33792
2024,33664
2025,33664
2026,33792
2027,33728
2028,33728
2029,33792
2030,33792
2031,33792
2032,33728
2033,33600
2034,33536
2035,33536
2036,33472
2037,33344
2038,33280
2039,33280
2040,33280
2041,33344
2042,33472
2043,33536
2044,33536
2045,33536
2046,33600
2047,33728
2048,33664
2049,33600
2050,33600
2051,33728
2052,33728
2053,33792
2054,33856
2055,33920
2056,33728
2057,33664
2058,33600
2059,33728
2060,33920
2061,33984
2062,33920
2063,33984
2064,34048
2065,34112
2066,33920
2067,33856
2068,33728
2069,33664
2070,33664
2071,33600
2072,33536
2073,33344
2074,33216
2075,33280
2076,33408
2077,33472
2078,33472
2079,33472
2080,33472
2081,33536
2082,33536
2083,33536
2084,33728
2085,33792
2086,33920
2087,34048
2088,34176
2089,34176
2090,34176
2091,34176
2092,34240
2093,34240
2094,34176
2095,34112
2096,34048
2097,34048
2098,33984
2099,33856
2100,33856
2101,33856
2102,33856
2103,33792
2104,33792
2105,33984
2106,34176
2107,34112
2108,34176
2109,34240
2110,34240
2111,34240
2112,34176
2113,34240
2114,34304
2115,34112
2116,33984
2117,34112
2118,34240
2119,34176
2120,34112
2121,34240
2122,34304
2123,34304
2124,34176
2125,34176
2126,34176
2127,34176
2128,34176
2129,34176
2130,34432
2131,34560
2132,34624
2133,34624
2134,34752
2135,34816
2136,34944
2137,34880
2138,34816
2139,34816
2140,34752
2141,34688
2142,34496
2143,34368
2144,34112
2145,33792
2146,33536
2147,33536
2148,33472
2149,33216
2150,33088
2151,33152
2152,33152
2153,33152
2154,33280
2155,33408
2156,33472
2157,33472
2158,33536
2159,33664
2160,33664
2161,33664
2162,33728
2163,33600
2164,33408
2165,33280
2166,33536
2167,34176
2168,35328
2169,36992
2170,39360
2171,42176
2172,44544
2173,45504
2174,44480
2175,41984
2176,38400
2177,34304
2178,30912
2179,28736
2180,27776
2181,27584
2182,27968
2183,28672
2184,29632
2185,30656
2186,31488
2187,32320
2188,32960
2189,33472
2190,33728
2191,33984
2192,34304
2193,34560
2194,34624
2195,34560
2196,34496
2197,34368
2198,34176
2199,34048
2200,33984
2201,34048
2202,33984
2203,33984
2204,33984
2205,33920
2206,33856
2207,33728
2208,33664
2209,33728
2210,33728
2211,33600
2212,33600
2213,33728
2214,33856
2215,33856
2216,33792
2217,33856
2218,33984
2219,34048
2220,34048
2221,34048
2222,34112
2223,34112
2224,34112
2225,34240
2226,34240
2227,34304
2228,34368
2229,34496
2230,34560
2231,34560
2232,34368
2233,34240
2234,34240
2235,34304
2236,34304
2237,34240
2238,34176
2239,34176
2240,34048
2241,33984
2242,34048
2243,34112
2244,34112
2245,33984
2246,33920
2247,33920
2248,33920
2249,33856
2250,33920
2251,33984
2252,33984
2253,33920
2254,33856
2255,33920
2256,33920
2257,33728
2258,33664
2259,33792
2260,33856
2261,33856
2262,33920
2263,33984
2264,33984
2265,33984
2266,33984
2267,33984
2268,33920
2269,33920
2270,33920
2271,33920
2272,33920
2273,33856
2274,33792
2275,33920
2276,33984
2277,33856
2278,33728
2279,33664
2280,33664
2281,33664
2282,33600
2283,33600
2284,33664
2285,33536
2286,33472
2287,33408
2288,33472
2289,33600
2290,33664
2291,33728
2292,33856
2293,33920
2294,33920
2295,33920
2296,34112
2297,34176
2298,34048
2299,33984
2300,34176
2301,34368
2302,34432
2303,34432
2304,34496
2305,34496
2306,34432
2307,34368
2308,34688
2309,34624
2310,34688
2311,34560
2312,34432
2313,34304
2314,34048
2315,33920
2316,33856
2317,33792
2318,33600
2319,33408
2320,33408
2321,33408
2322,33280
2323,33216
2324,33152
2325,33472
2326,33472
2327,33536
2328,33600
2329,33728
2330,33664
2331,33664
2332,33600
2333,33664
2334,33600
2335,33600
2336,33984
2337,34752
2338,36096
2339,36096
2340,40320
2341,43136
2342,45120
2343,45632
2344,44096
2345,41024
2346,37056
2347,33216
2348,30208
2349,28544
2350,27840
2351,27904
2352,28480
2353,29376
2354,30464
2355,31424
2356,32128
2357,32768
2358,33344
2359,33792
2360,34112
2361,34240
2362,34368
2363,34496
2364,34496
2365,34368
2366,34240
2367,34112
2368,34048
2369,33984
2370,34048
2371,34112
2372,34112
2373,34048
2374,34112
2375,34240
2376,34112
2377,33984
2378,33920
2379,33920
2380,33920
2381,33856
2382,33792
2383,33856
2384,33856
2385,33792
2386,33792
2387,33792
2388,33792
2389,33728
2390,33728
2391,33792
2392,33856
2393,33856
2394,33856
2395,33984
2396,34112
2397,34048
2398,34048
2399,34048
2400,34048
2401,34048
2402,33920
2403,33984
2404,34048
2405,33984
2406,33984
2407,33984
2408,34112
2409,34176
2410,34112
2411,34048
2412,34112
2413,34048
2414,33984
2415,33856
2416,33856
2417,33856
2418,33856
2419,33920
2420,33984
2421,33984
2422,33920
2423,33920
2424,33920
2425,33920
2426,33856
2427,33664
2428,33664
2429,33600
2430,33728
2431,33600
2432,33600
2433,33664
2434,33728
2435,33728
2436,33664
2437,33664
2438,33728
2439,33792
2440,33920
2441,34048
2442,34112
2443,34048
2444,33984
2445,33984
2446,34048
2447,34048
2448,33984
2449,33920
2450,33856
2451,33856
2452,33792
2453,33792
2454,33728
2455,33600
2456,33472
2457,33472
2458,33472
2459,33408
2460,33280
2461,33216
2462,33344
2463,33472
2464,33536
2465,33664
2466,33792
2467,33920
2468,33920
2469,33984
2470,34048
2471,34112
2472,33984
2473,33856
2474,33792
2475,33984
2476,33920
2477,33792
2478,33792
2479,33984
2480,34112
2481,34048
2482,33856
2483,33792
2484,33728
2485,33600
2486,33472
2487,33472
2488,33408
2489,33344
2490,33216
2491,33152
2492,33088
2493,33024
2494,33088
2495,33152
2496,33152
2497,33024
2498,33024
2499,33152
2500,33280
2501,33216
2502,33216
2503,33216
2504,33152
2505,33344
2506,33728
2507,34496
2508,35712
2509,37696
2510,40192
2511,42624
2512,44160
2513,44352
2514,42688
2515,39488
2516,35712
2517,32192
2518,29504
2519,27968
2520,27328
2521,27392
2522,27840
2523,28608
2524,29632
2525,30528
2526,31296
2527,31936
2528,32576
2529,33088
2530,33408
2531,33664
2532,33920
2533,34112
2534,34048
2535,33984
2536,33856
2537,33856
2538,33792
2539,33728
2540,33472
2541,33280
2542,33152
2543,33024
2544,32896
2545,32832
2546,32896
2547,32832
2548,32768
2549,32768
2550,32896
2551,33024
2552,33152
2553,33280
2554,33344
2555,33216
2556,33152
2557,33280
2558,33472
2559,33600
2560,33664
2561,33792
2562,33920
2563,33984
2564,33920
2565,33856
2566,33984
2567,34048
2568,34048
2569,34112
2570,34112
2571,34048
2572,34048
2573,33984
2574,33856
2575,33792
2576,33728
2577,33664
2578,33664
2579,33600
2580,33600
2581,33536
2582,33472
2583,33536
2584,33472
2585,33408
2586,33408
2587,33472
2588,33472
2589,33536
2590,33600
2591,33600
2592,33600
2593,33472
2594,33344
2595,33344
2596,33472
2597,33472
2598,33408
2599,33408
2600,33472
2601,33600
2602,33600
2603,33664
2604,33664
2605,33664
2606,33728
2607,33792
2608,33856
2609,33856
2610,33728
2611,33792
2612,33920
2613,33984
2614,33920
2615,33856
2616,33856
2617,33856
2618,33792
2619,33728
2620,33792
2621,33792
2622,33728
2623,33664
2624,33728
2625,33856
2626,33792
2627,33920
2628,34112
2629,34368
2630,34496
2631,34432
2632,34496
2633,34496
2634,34496
2635,34496
2636,34496
2637,34624
2638,34624
2639,34560
2640,34304
2641,34176
2642,34048
2643,33856
2644,33664
2645,33536
2646,33472
2647,33408
2648,33280
2649,33216
2650,33216
2651,33216
2652,33280
2653,33472
2654,33408
2655,33664
2656,33728
2657,33856
2658,33984
2659,33984
2660,33792
2661,33728
2662,33728
2663,33664
2664,33664
2665,33984
2666,34624
2667,35648
2668,37248
2669,39616
2670,42496
2671,44608
2672,45440
2673,44288
2674,41536
2675,37760
2676,33664
2677,30656
2678,28672
2679,27776
2680,27648
2681,28096
2682,28864
2683,29760
2684,30720
2685,31488
2686,32320
2687,33024
2688,33472
2689,33728
2690,33920
2691,34176
2692,34304
2693,34304
2694,34304
2695,34368
2696,34304
2697,34176
2698,34112
2699,34048
2700,33920
2701,33728
2702,33600
2703,33536
2704,33536
2705,33472
2706,33408
2707,33344
2708,33408
2709,33344
2710,33344
2711,33408
2712,33536
2713,33536
2714,33536
2715,33664
2716,33792
2717,33856
2718,33984
2719,33984
2720,34048
2721,34176
2722,34304
2723,34432
2724,34432
2725,34368
2726,34176
2727,34048
2728,34112
2729,34112
2730,34048
2731,33984
2732,33984
2733,34048
2734,33984
2735,33792
2736,33856
2737,33856
2738,33920
2739,33984
2740,33984
2741,33920
2742,33728
2743,33728
2744,33664
2745,33792
2746,33728
2747,33664
2748,33664
2749,33792
2750,33920
2751,33920
2752,33920
2753,33920
2754,33920
2755,33920
2756,33920
2757,33984
2758,33984
2759,33920
2760,33984
2761,33984
2762,33984
2763,33984
2764,34048
2765,34112
2766,34176
2767,34112
2768,34048
2769,34048
2770,34176
2771,34176
2772,34240
2773,34304
2774,34432
2775,34432
2776,34304
2777,34304
2778,34304
2779,34240
2780,34240
2781,34240
2782,34304
2783,34304
2784,34240
2785,34112
2786,34048
2787,34112
2788,34304
2789,34240
2790,34432
2791,34560
2792,34560
2793,34560
2794,34624
2795,34752
2796,34880
2797,34816
2798,34816
2799,34880
2800,35008
2801,35072
2802,34880
2803,34624
2804,34560
2805,34368
2806,34112
2807,33920
2808,33792
2809,33664
2810,33600
2811,33536
2812,33536
2813,33536
2814,33536
2815,33536
2816,33536
2817,33600
2818,33536
2819,33600
2820,33664
2821,33664
2822,33536
2823,33536
2824,33600
2825,33664
2826,33856
2827,34368
2828,35328
2829,36736
2830,38848
2831,41536
2832,44288
2833,46016
2834,45696
2835,43392
2836,39680
2837,35520
2838,31872
2839,29248
2840,27776
2841,27200
2842,27392
2843,27968
2844,28928
2845,29888
2846,30848
2847,31616
2848,32640
2849,32704
2850,33536
2851,33728
2852,33920
2853,34112
2854,34240
2855,34240
2856,34176
2857,34176
2858,34176
2859,34176
2860,34112
2861,33920
2862,33792
2863,33600
2864,33536
2865,33472
2866,33408
2867,33408
2868,33344
2869,33408
2870,33472
2871,33536
2872,33408
2873,33344
2874,33408
2875,33408
2876,33408
2877,33472
2878,33600
2879,33664
2880,33728
2881,33856
2882,33984
2883,34048
2884,34048
2885,33984
2886,34112
2887,34176
2888,34176
2889,34112
2890,34112
2891,34048
2892,33984
2893,33792
2894,33792
2895,33920
2896,33856
2897,33856
2898,33792
2899,33856
2900,33920
2901,33792
2902,33728
2903,33728
2904,33792
2905,33792
2906,33728
2907,33728
2908,33728
2909,33728
2910,33664
2911,33664
2912,33728
2913,33728
2914,33728
2915,33728
2916,33664
2917,33664
2918,33728
2919,33792
2920,33856
2921,33792
2922,33728
2923,33728
2924,33664
2925,33856
2926,33856
2927,33920
2928,34048
2929,34112
2930,34048
2931,34112
2932,34240
2933,34240
2934,34240
2935,34176
2936,34240
2937,34240
2938,34176
2939,34112
2940,34048
2941,34048
2942,34048
2943,34048
2944,34048
2945,34048
2946,34048
2947,33984
2948,33920
2949,33920
2950,33984
2951,33984
2952,33984
2953,34112
2954,34048
2955,34304
2956,34368
2957,34560
2958,34688
2959,34688
2960,34688
2961,34816
2962,34880
2963,34880
2964,34816
2965,34752
2966,34688
2967,34496
2968,34240
2969,34048
2970,33856
2971,33728
2972,33664
2973,33600
2974,33536
2975,33408
2976,33280
2977,33280
2978,33344
2979,33472
2980,33600
2981,33728
2982,33856
2983,33856
2984,33856
2985,33728
2986,33792
2987,33792
2988,33664
2989,33600
2990,33856
2991,34368
2992,35136
2993,36544
2994,38656
2995,41472
2996,44096
2997,45632
2998,44480
2999,44032
3000,39680
3001,35648
3002,32128
3003,29632
3004,28096
3005,27520
3006,27712
3007,28352
3008,29248
3009,30144
3010,31040
3011,31936
3012,32704
3013,33216
3014,33472
3015,33792
3016,34112
3017,34304
3018,34304
3019,34304
3020,34304
3021,34240
3022,34176
3023,33984
3024,33856
3025,33664
3026,33536
3027,33536
3028,33664
3029,33664
3030,33536
3031,33536
3032,33600
3033,33472
3034,33280
3035,33088
3036,33088
3037,33216
3038,33344
3039,33408
3040,33536
3041,33600
3042,33728
3043,33792
3044,33920
3045,34048
3046,34112
3047,34240
3048,34432
3049,34560
3050,34688
3051,34688
3052,34496
3053,34368
3054,34176
3055,34112
3056,34048
3057,34048
3058,33984
3059,33856
3060,33728
3061,33792
3062,33920
3063,33984
3064,33984
3065,34048
3066,33984
3067,33920
3068,33792
3069,33728
3070,33792
3071,33856
3072,33728
3073,33600
3074,33664
3075,33728
3076,33664
3077,33728
3078,33728
3079,33792
3080,33792
3081,33728
3082,33728
3083,33728
3084,33600
3085,33536
3086,33600
3087,33664
3088,33536
3089,33536
3090,33536
3091,33472
3092,33472
3093,33408
3094,33472
3095,33536
3096,33600
3097,33600
3098,33600
3099,33536
3100,33536
3101,33536
3102,33600
3103,33664
3104,33792
3105,33792
3106,33856
3107,33984
3108,34048
3109,33920
3110,33856
3111,33920
3112,33984
3113,34048
3114,34048
3115,34112
3116,34240
3117,34368
3118,34368
3119,34432
3120,34368
3121,34112
3122,33856
3123,33664
3124,33600
3125,33536
3126,33344
3127,33152
3128,33088
3129,33024
3130,33088
3131,33152
3132,33216
3133,33408
3134,33472
3135,33472
3136,33600
3137,33664
3138,33792
3139,33920
3140,33856
3141,33792
3142,33664
3143,33664
3144,33920
3145,34432
3146,35456
3147,37312
3148,39552
3149,42432
3150,44544
3151,45376
3152,44416
3153,41792
3154,38016
3155,34048
3156,30720
3157,28416
3158,27456
3159,27136
3160,27456
3161,28224
3162,29120
3163,30080
3164,31040
3165,31872
3166,32576
3167,33216
3168,33600
3169,33856
3170,34048
3171,34176
3172,34240
3173,34240
3174,34240
3175,34112
3176,33920
3177,33856
3178,33792
3179,33728
3180,33664
3181,33600
3182,33600
3183,33472
3184,33408
3185,33344
3186,33344
3187,33408
3188,33472
3189,33472
3190,33600
3191,33728
3192,33792
3193,33856
3194,33920
3195,34112
3196,34240
3197,34304
3198,34368
3199,34432
3200,34496
3201,34560
3202,34560
3203,34624
3204,34688
3205,34688
3206,34560
3207,34368
3208,34240
3209,34176
3210,34112
3211,34112
3212,34176
3213,34112
3214,33984
3215,33984
3216,33984
3217,33984
3218,33920
3219,33984
3220,33920
3221,33856
3222,33856
3223,33920
3224,33856
3225,33792
3226,33792
3227,33792
3228,33856
3229,33856
3230,33920
3231,33856
3232,33792
3233,33792
3234,33728
3235,33728
3236,33856
3237,33856
3238,33792
3239,33920
3240,34048
3241,34112
3242,34176
3243,34240
3244,34240
3245,34304
3246,34240
3247,34176
3248,34240
3249,34304
3250,34240
3251,34240
3252,34176
3253,34176
3254,34112
3255,34048
3256,34048
3257,34112
3258,34112
3259,34048
3260,34048
3261,34048
3262,34112
3263,34176
3264,34240
3265,34304
3266,34368
3267,34368
3268,34368
3269,34368
3270,34432
3271,34432
3272,34432
3273,34560
3274,34688
3275,34624
3276,34368
3277,34176
3278,34112
3279,33984
3280,33792
3281,33664
3282,33536
3283,33408
3284,33280
3285,33152
3286,33152
3287,33216
3288,33280
3289,33280
3290,33280
3291,33408
3292,33536
3293,33728
3294,33792
3295,33856
3296,33856
3297,33856
3298,33856
3299,33920
3300,34112
3301,34560
3302,35584
3303,37184
3304,39488
3305,42240
3306,44672
3307,45632
3308,44864
3309,42176
3310,38400
3311,34432
3312,31104
3313,28928
3314,27776
3315,27648
3316,28032
3317,28736
3318,29568
3319,30528
3320,31424
3321,32320
3322,32960
3323,33344
3324,33664
3325,33920
3326,34048
3327,34048
3328,34048
3329,34048
3330,33984
3331,33920
3332,33984
3333,33984
3334,33920
3335,33856
3336,33792
3337,33664
3338,33536
3339,33472
3340,33472
3341,33408
3342,33344
3343,33280
3344,33344
3345,33344
3346,33280
3347,33216
3348,33216
3349,33344
3350,33408
3351,33408
3352,33472
3353,33600
3354,33664
3355,33728
3356,33792
3357,33984
3358,34048
3359,34048
3360,34048
3361,34176
3362,34176
3363,34048
3364,33920
3365,33856
3366,33920
3367,33856
3368,33792
3369,33728
3370,33856
3371,33856
3372,33856
3373,33856
3374,33920
3375,33984
3376,33920
3377,33792
3378,33728
3379,33792
3380,33792
3381,33728
3382,33792
3383,33792
3384,33728
3385,33728
3386,33856
3387,33920
3388,33920
3389,33856
3390,33856
3391,33792
3392,33664
3393,33472
3394,33600
3395,33728
3396,33792
3397,33792
3398,33920
3399,34048
3400,34112
3401,34176
3402,34240
3403,34496
3404,34624
3405,34496
3406,34432
3407,34368
3408,34304
3409,34048
3410,33984
3411,34048
3412,34112
3413,34112
3414,34048
3415,33984
3416,33984
3417,33920
3418,33792
3419,33728
3420,33664
3421,33600
3422,33600
3423,33664
3424,33856
3425,33984
3426,34048
3427,34112
3428,34240
3429,34304
3430,34176
3431,34112
3432,34048
3433,33984
3434,33856
3435,33856
3436,33984
3437,34240
3438,34368
3439,34368
3440,34432
3441,34560
3442,34560
3443,34496
3444,34432
3445,34496
3446,34496
3447,34432
3448,34432
3449,34368
3450,34176
3451,33920
3452,33792
3453,33792
3454,33792
3455,33664
3456,33600
3457,33664
3458,33600
3459,33472
3460,33344
3461,33408
3462,33600
3463,33600
3464,33664
3465,33792
3466,33856
3467,33792
3468,33664
3469,33728
3470,33728
3471,33728
3472,33984
3473,34560
3474,35520
3475,36928
3476,38976
3477,41600
3478,44160
3479,45632
3480,45248
3481,42944
3482,39424
3483,35392
3484,31744
3485,29184
3486,27840
3487,27392
3488,27648
3489,28352
3490,29376
3491,30336
3492,31168
3493,31872
3494,32576
3495,33152
3496,33408
3497,33600
3498,33792
3499,33920
3500,33984
3501,33920
3502,33984
3503,33920
3504,33856
3505,33728
3506,33664
3507,33664
3508,33664
3509,33600
3510,33536
3511,33472
3512,33472
3513,33408
3514,33408
3515,33344
3516,33280
3517,33280
3518,33216
3519,33280
3520,33344
3521,33408
3522,33344
3523,33408
3524,33536
3525,33472
3526,33472
3527,33600
3528,33792
3529,33920
3530,33920
3531,33920
3532,33984
3533,34048
3534,34112
3535,34176
3536,34240
3537,34176
3538,34048
3539,33920
3540,33984
3541,34048
3542,34112
3543,34112
3544,34048
3545,34048
3546,33984
3547,33856
3548,33856
3549,33856
3550,33856
3551,33792
3552,33728
3553,33792
3554,33856
3555,33792
3556,33728
3557,33792
3558,33792
3559,33728
3560,33664
3561,33728
3562,33728
3563,33728
3564,33728
3565,33728
3566,33792
3567,33792
3568,33792
3569,33792
3570,33856
3571,33920
3572,33920
3573,33984
3574,34048
3575,34112
3576,34048
3577,34112
3578,34240
3579,34176
3580,34112
3581,34112
3582,34240
3583,34240
3584,34112
3585,34112
3586,34112
3587,34048
3588,34048
3589,34048
3590,34048
3591,34048
3592,33984
3593,33920
3594,33920
3595,33984
3596,33920
3597,33920
3598,33984
3599,34048
3600,34048
3601,33920
3602,33856
3603,33856
3604,33856
3605,33792
3606,33792
3607,33792
3608,33728
3609,33728
3610,33792
3611,33856
3612,34048
3613,34048
3614,34176
3615,34304
3616,34432
3617,34432
3618,34432
3619,34560
3620,34688
3621,34752
3622,34624
3623,34496
3624,34304
3625,34048
3626,33792
3627,33664
3628,33664
3629,33600
3630,33344
3631,33216
3632,33280
3633,33344
3634,33280
3635,33344
3636,33536
3637,33664
3638,33792
3639,33792
3640,33920
3641,33920
3642,33920
3643,33920
3644,33856
3645,33920
3646,34240
3647,34944
3648,36224
3649,38272
3650,40768
3651,43392
3652,45184
3653,45632
3654,43904
3655,40576
3656,36288
3657,32768
3658,29888
3659,28096
3660,27328
3661,27392
3662,28032
3663,28864
3664,29888
3665,30912
3666,31744
3667,32320
3668,32896
3669,33472
3670,33856
3671,34112
3672,34112
3673,34112
3674,34048
3675,33984
3676,33792
3677,33792
3678,33920
3679,33920
3680,33792
3681,33728
3682,33664
3683,33664
3684,33600
3685,33536
3686,33536
3687,33472
3688,33408
3689,33472
3690,33600
3691,33600
3692,33536
3693,33472
3694,33472
3695,33600
3696,33664
3697,33728
3698,33792
3699,33920
3700,33984
3701,33920
3702,34048
3703,34176
3704,34240
3705,34240
3706,34304
3707,34368
3708,34368
3709,34304
3710,34304
3711,34368
3712,34368
3713,34368
3714,34432
3715,34368
3716,34368
3717,34304
3718,34240
3719,34240
3720,34240
3721,34176
3722,34176
3723,34112
3724,34112
3725,33984
3726,33920
3727,33920
3728,33920
3729,33856
3730,33728
3731,33728
3732,33792
3733,33728
3734,33600
3735,33600
3736,33536
3737,33536
3738,33536
3739,33600
3740,33728
3741,33920
3742,33920
3743,33920
3744,33984
3745,34112
3746,34112
3747,34112
3748,34176
3749,34240
3750,34240
3751,34176
3752,34176
3753,34240
3754,34240
3755,34112
3756,34112
3757,34176
3758,34304
3759,34368
3760,34304
3761,34368
3762,34304
3763,34304
3764,34240
3765,34304
3766,34240
3767,34112
3768,33984
3769,33984
3770,33920
3771,33920
3772,33792
3773,33792
3774,33792
3775,33728
3776,33664
3777,33664
3778,33792
3779,33856
3780,33792
3781,33792
3782,33920
3783,33920
3784,33856
3785,33792
3786,33984
3787,34112
3788,34176
3789,34240
3790,34368
3791,34496
3792,34496
3793,34496
3794,34496
3795,34496
3796,34368
3797,34368
3798,34496
3799,34560
3800,34368
3801,34176
3802,34048
3803,33920
3804,33792
3805,33792
3806,33728
3807,33728
3808,33728
3809,33728
3810,33792
3811,33920
3812,33984
3813,34048
3814,34112
3815,34176
3816,34240
3817,34176
3818,34112
3819,34048
3820,33984
3821,33856
3822,33920
3823,34304
3824,35008
3825,36160
3826,37952
3827,40512
3828,43392
3829,45248
3830,45696
3831,44160
3832,40896
3833,37056
3834,33216
3835,30336
3836,28544
3837,27776
3838,27840
3839,28416
3840,29376
3841,30336
3842,31168
3843,32000
3844,32832
3845,33408
3846,33792
3847,34048
3848,34240
3849,34368
3850,34368
3851,34304
3852,34240
3853,34240
3854,34240
3855,34176
3856,34112
3857,34112
3858,34112
3859,33920
3860,33728
3861,33664
3862,33664
3863,33600
3864,33472
3865,33408
3866,33344
3867,33280
3868,33344
3869,33536
3870,33600
3871,33536
3872,33472
3873,33536
3874,33536
3875,33536
3876,33536
3877,33600
3878,33728
3879,33728
3880,33728
3881,33792
3882,34048
3883,34112
3884,34048
3885,33984
3886,33920
3887,33920
3888,33920
3889,33920
3890,33984
3891,33984
3892,33920
3893,33920
3894,33984
3895,34048
3896,34048
3897,33920
3898,33856
3899,33792
3900,33792
3901,33728
3902,33792
3903,33856
3904,33728
3905,33536
3906,33472
3907,33472
3908,33408
3909,33344
3910,33408
3911,33472
3912,33472
3913,33408
3914,33472
3915,33664
3916,33792
3917,33792
3918,33792
3919,33920
3920,33984
3921,33856
3922,33728
3923,33792
3924,33920
3925,33984
3926,33920
3927,33984
3928,33920
3929,33792
3930,33728
3931,33728
3932,33792
3933,33792
3934,33792
3935,33792
3936,33856
3937,33792
3938,33728
3939,33664
3940,33728
3941,33728
3942,33728
3943,33728
3944,33728
3945,33792
3946,33728
3947,33728
3948,33792
3949,33856
3950,33792
3951,33600
3952,33536
3953,33600
3954,33664
3955,33728
3956,33792
3957,33920
3958,33856
3959,33728
3960,33856
3961,33920
3962,33792
3963,33728
3964,33728
3965,33792
3966,33792
3967,33792
3968,33728
3969,33728
3970,33856
3971,33984
3972,34176
3973,34240
3974,34304
3975,34240
3976,34176
3977,34304
3978,34368
3979,34432
3980,34368
3981,34432
3982,34496
3983,34368
3984,34176
3985,34048
3986,33920
3987,33792
3988,33536
3989,33408
3990,33408
3991,33344
3992,33152
3993,33024
3994,33088
3995,33216
3996,33216
3997,33216
3998,33344
3999,33536
4000,33600
4001,33472
4002,33536
4003,33600
4004,33664
4005,33600
4006,33664
4007,34048
4008,34688
4009,35904
4010,37888
4011,40448
4012,43072
4013,44608
4014,44928
4015,43456
4016,40448
4017,36480
4018,32832
4019,30144
4020,28416
4021,27584
4022,27520
4023,28096
4024,28992
4025,30080
4026,31040
4027,31872
4028,32576
4029,33152
4030,33536
4031,33920
4032,34112
4033,34176
4034,34112
4035,34112
4036,34112
4037,34048
4038,33920
4039,33856
4040,33856
4041,33856
4042,33728
4043,33536
4044,33536
4045,33600
4046,33536
4047,33472
4048,33472
4049,33472
4050,33408
4051,33344
4052,33408
4053,33472
4054,33472
4055,33408
4056,33536
4057,33664
4058,33664
4059,33664
4060,33728
4061,33728
4062,33728
4063,33664
4064,33664
4065,33728
4066,33792
4067,33792
4068,33728
4069,33792
4070,33856
4071,33792
4072,33856
4073,33920
4074,33984
4075,34048
4076,33984
4077,34048
4078,34048
4079,34048
4080,33984
4081,34048
4082,34048
4083,33920
4084,33792
4085,33728
4086,33664
4087,33600
4088,33536
4089,33536
4090,33600
4091,33600
4092,33472
4093,33472
4094,33600
4095,33664
4096,33600
4097,33600
4098,33664
4099,33792
4100,33728
4101,33728
4102,33856
4103,33984
4104,33984
4105,33920
4106,33856
4107,33856
4108,33856
4109,33792
4110,33856
4111,33984
4112,33984
4113,34048
4114,34112
4115,34112
4116,34176
4117,34112
4118,33984
4119,33984
4120,33984
4121,33856
4122,33856
4123,33856
4124,33856
4125,33728
4126,33792
4127,33856
4128,33856
4129,33792
4130,33856
4131,33856
4132,33792
4133,33728
4134,33792
4135,33792
4136,33728
4137,33664
4138,33728
4139,33728
4140,33664
4141,33536
4142,33600
4143,33664
4144,33728
4145,33728
4146,33728
4147,33728
4148,33984
4149,34112
4150,34304
4151,34496
4152,34624
4153,34624
4154,34624
4155,34624
4156,34624
4157,34560
4158,34496
4159,34496
4160,34560
4161,34432
4162,34368
4163,34112
4164,34048
4165,33984
4166,33856
4167,33728
4168,33728
4169,33728
4170,33664
4171,33600
4172,33600
4173,33536
4174,33408
4175,33344
4176,33408
4177,33536
4178,33664
4179,33600
4180,33664
4181,33728
4182,33664
4183,33664
4184,33600
4185,33856
4186,34816
4187,35904
4188,37760
4189,40320
4190,43072
4191,44928
4192,45504
4193,45440
4194,41280
4195,37184
4196,33280
4197,30272
4198,28416
4199,27584
4200,27584
4201,28096
4202,28928
4203,29824
4204,30656
4205,31488
4206,32192
4207,32704
4208,33024
4209,33344
4210,33664
4211,33792
4212,33792
4213,33856
4214,33792
4215,33792
4216,33664
4217,33664
4218,33664
4219,33664
4220,33728
4221,33728
4222,33728
4223,33600
4224,33408
4225,33344
4226,33408
4227,33472
4228,33344
4229,33280
4230,33280
4231,33408
4232,33536
4233,33600
4234,33792
4235,33920
4236,34048
4237,34112
4238,34112
4239,34240
4240,34240
4241,34240
4242,34240
4243,34368
4244,34368
4245,34304
4246,34304
4247,34368
4248,34368
4249,34304
4250,34240
4251,34304
4252,34432
4253,34496
4254,34432
4255,34368
4256,34368
4257,34304
4258,34176
4259,34112
4260,34176
4261,34048
4262,33920
4263,33920
4264,33856
4265,33856
4266,33728
4267,33792
4268,33856
4269,33920
4270,33792
4271,33728
4272,33664
4273,33664
4274,33664
4275,33664
4276,33792
4277,33920
4278,33984
4279,33920
4280,34048
4281,34048
4282,33984
4283,33856
4284,33984
4285,34112
4286,34112
4287,33984
4288,34048
4289,34176
4290,34176
4291,34176
4292,34112
4293,34112
4294,33984
4295,33920
4296,33856
4297,33984
4298,34048
4299,34112
4300,34112
4301,34112
4302,34176
4303,34048
4304,33920
4305,33856
4306,33856
4307,33792
4308,33792
4309,33856
4310,33920
4311,33856
4312,33728
4313,33792
4314,33856
4315,33792
4316,33728
4317,33792
4318,33792
4319,33792
4320,33728
4321,33728
4322,33792
4323,33856
4324,33984
4325,33984
4326,34048
4327,34048
4328,34048
4329,34112
4330,34112
4331,34112
4332,34112
4333,34176
4334,34304
4335,34240
4336,34112
4337,33984
4338,33920
4339,33856
4340,33728
4341,33472
4342,33344
4343,33344
4344,33280
4345,33280
4346,33344
4347,33536
4348,33664
4349,33600
4350,33664
4351,33792
4352,33856
4353,33856
4354,33856
4355,33920
4356,33856
4357,33856
4358,33984
4359,34368
4360,35200
4361,36224
4362,37760
4363,40640
4364,40896
4365,45120
4366,46016
4367,45184
4368,42496
4369,38592
4370,34432
4371,30912
4372,28736
4373,27584
4374,27264
4375,27648
4376,28608
4377,29632
4378,30656
4379,31424
4380,32320
4381,32896
4382,33344
4383,33728
4384,34112
4385,34304
4386,34368
4387,34368
4388,34304
4389,34176
4390,34112
4391,33984
4392,33984
4393,33984
4394,33920
4395,33856
4396,33728
4397,33728
4398,33728
4399,33536
4400,33472
4401,33472
4402,33408
4403,33408
4404,33344
4405,33280
4406,33344
4407,33408
4408,33536
4409,33536
4410,33728
4411,33728
4412,33792
4413,33856
4414,33856
4415,33792
4416,33792
4417,33856
4418,33920
4419,33920
4420,33984
4421,34048
4422,34176
4423,34304
4424,34240
4425,34112
4426,33984
4427,33920
4428,33792
4429,33664
4430,33664
4431,33728
4432,33664
4433,33600
4434,33600
4435,33600
4436,33472
4437,33408
4438,33472
4439,33536
4440,33600
4441,33600
4442,33600
4443,33664
4444,33728
4445,33728
4446,33664
4447,33664
4448,33728
4449,33728
4450,33792
4451,33920
4452,33920
4453,33856
4454,33792
4455,33792
4456,33792
4457,33728
4458,33664
4459,33664
4460,33728
4461,33792
4462,33856
4463,33984
4464,34112
4465,34176
4466,34176
4467,34240
4468,34304
4469,34304
4470,34240
4471,34304
4472,34432
4473,34368
4474,34240
4475,34176
4476,34240
4477,34176
4478,33984
4479,33920
4480,33920
4481,33856
4482,33792
4483,33728
4484,33664
4485,33856
4486,33728
4487,33664
4488,33728
4489,33728
4490,33664
4491,33664
4492,33792
4493,33920
4494,33920
4495,33856
4496,33792
4497,33920
4498,34048
4499,33984
4500,34048
4501,34048
4502,34048
4503,34048
4504,34048
4505,34176
4506,34176
4507,34176
4508,34240
4509,34432
4510,34624
4511,34624
4512,34560
4513,34560
4514,34560
4515,34496
4516,34432
4517,34496
4518,34560
4519,34432
4520,34240
4521,34112
4522,34048
4523,33920
4524,33792
4525,33600
4526,33600
4527,33536
4528,33472
4529,33472
4530,33536
4531,33536
4532,33536
4533,33536
4534,33728
4535,33856
4536,33856
4537,33856
4538,33856
4539,33920
4540,33728
4541,33600
4542,33728
4543,34368
4544,34368
4545,35840
4546,37632
4547,40064
4548,42880
4549,44928
4550,45696
4551,44608
4552,41728
4553,37760
4554,33664
4555,30464
4556,28480
4557,27520
4558,27392
4559,27968
4560,28864
4561,29760
4562,30720
4563,31616
4564,32384
4565,32960
4566,33408
4567,33792
4568,34048
4569,34176
4570,34240
4571,34176
4572,34176
4573,34112
4574,34112
4575,34112
4576,34112
4577,34112
4578,33920
4579,33856
4580,33792
4581,33664
4582,33536
4583,33472
4584,33536
4585,33472
4586,33472
4587,33408
4588,33472
4589,33472
4590,33472
4591,33600
4592,33600
4593,33600
4594,33600
4595,33600
4596,33664
4597,33792
4598,33920
4599,33984
4600,33984
4601,33984
4602,34048
4603,33984
4604,33920
4605,33920
4606,33920
4607,33856
4608,33856
4609,33920
4610,34048
4611,33984
4612,33984
4613,34048
4614,34112
4615,34048
4616,34048
4617,34048
4618,34112
4619,33984
4620,33856
4621,33856
4622,33856
4623,33920
4624,33856
4625,33856
4626,33856
4627,33728
4628,33664
4629,33664
4630,33664
4631,33664
4632,33664
4633,33664
4634,33664
4635,33856
4636,33792
4637,33728
4638,33792
4639,33920
4640,33920
4641,33920
4642,33984
4643,34112
4644,34240
4645,34304
4646,34304
4647,34368
4648,34368
4649,34304
4650,34176
4651,34112
4652,34112
4653,34048
4654,34048
4655,34048
4656,33984
4657,33920
4658,33920
4659,33984
4660,33984
4661,33920
4662,33856
4663,33856
4664,33920
4665,33920
4666,33920
4667,34048
4668,34048
4669,34048
4670,33984
4671,33920
4672,33920
4673,33920
4674,33856
4675,33856
4676,33920
4677,33920
4678,33920
4679,33984
4680,33984
4681,33984
4682,33984
4683,33984
4684,33984
4685,33856
4686,33664
4687,33600
4688,33664
4689,33664
4690,33536
4691,33408
4692,33472
4693,33408
4694,33408
4695,33472
4696,33664
4697,33920
4698,34112
4699,34240
4700,34368
4701,34496
4702,34496
4703,34496
4704,34496
4705,34560
4706,34496
4707,34432
4708,34432
4709,34368
4710,34304
4711,34048
4712,33856
4713,33792
4714,33664
4715,33472
4716,33344
4717,33344
4718,33344
4719,33280
4720,33280
4721,33472
4722,33600
4723,33664
4724,33664
4725,33664
4726,33728
4727,33792
4728,33728
4729,33728
4730,33792
4731,33792
4732,33792
4733,34112
4734,34688
4735,35712
4736,37248
4737,39488
4738,43008
4739,44480
4740,45376
4741,44672
4742,42240
4743,38464
4744,34368
4745,30912
4746,28672
4747,27648
4748,27456
4749,27712
4750,28480
4751,29440
4752,30336
4753,31104
4754,31872
4755,32640
4756,33152
4757,33536
4758,33792
4759,34112
4760,34240
4761,34112
4762,33984
4763,33984
4764,33984
4765,33856
4766,33792
4767,33728
4768,33728
4769,33664
4770,33408
4771,33344
4772,33344
4773,33216
4774,33088
4775,33152
4776,33216
4777,33152
4778,33152
4779,33280
4780,33472
4781,33472
4782,33472
4783,33664
4784,33600
4785,33856
4786,33856
4787,33856
4788,33984
4789,34112
4790,34112
4791,34112
4792,34176
4793,34240
4794,34176
4795,34048
4796,34048
4797,34048
4798,34048
4799,33920
4800,33856
4801,33920
4802,33920
4803,33984
4804,34048
4805,34112
4806,34048
4807,33984
4808,33984
4809,34048
4810,34112
4811,34048
4812,33984
4813,34048
4814,34112
4815,33984
4816,33792
4817,33728
4818,33792
4819,33728
4820,33728
4821,33792
4822,33856
4823,33792
4824,33728
4825,33856
4826,33920
4827,33920
4828,33792
4829,33728
4830,33728
4831,33728
4832,33664
4833,33600
4834,33728
4835,33792
4836,33728
4837,33728
4838,33792
4839,33856
4840,33856
4841,33856
4842,33920
4843,33856
4844,33856
4845,33728
4846,33856
4847,33920
4848,33984
4849,33984
4850,33920
4851,33920
4852,33984
4853,33984
4854,34048
4855,34048
4856,33984
4857,33920
4858,33984
4859,33920
4860,34048
4861,33856
4862,33664
4863,33728
4864,33792
4865,33664
4866,33536
4867,33536
4868,33536
4869,33472
4870,33408
4871,33408
4872,33472
4873,33536
4874,33600
4875,33856
4876,34112
4877,34240
4878,34304
4879,34368
4880,34432
4881,34368
4882,34240
4883,34176
4884,34304
4885,34432
4886,34432
4887,34368
4888,34240
4889,34176
4890,34048
4891,33984
4892,33856
4893,33664
4894,33344
4895,33280
4896,33280
4897,33216
4898,33216
4899,33216
4900,33152
4901,33216
4902,33280
4903,33280
4904,33408
4905,33472
4906,33536
4907,33472
4908,33472
4909,33472
4910,33536
4911,33536
4912,33664
4913,34048
4914,34688
4915,35904
4916,37888
4917,40512
4918,44352
4919,44480
4920,45120
4921,43520
4922,40384
4923,36416
4924,32704
4925,29952
4926,28352
4927,27648
4928,27584
4929,28160
4930,29056
4931,30144
4932,31104
4933,32000
4934,32704
4935,33280
4936,33728
4937,34048
4938,34304
4939,34432
4940,34368
4941,34240
4942,34240
4943,34304
4944,34240
4945,34112
4946,34112
4947,34112
4948,33792
4949,33728
4950,33664
4951,33728
4952,33600
4953,33472
4954,33408
4955,33408
4956,33344
4957,33280
4958,33344
4959,33408
4960,33472
4961,33408
4962,33472
4963,33664
4964,33664
4965,33664
4966,33664
4967,33856
4968,33920
4969,33920
4970,33984
4971,34112
4972,34240
4973,34176
4974,34112
4975,34176
4976,34112
4977,34112
4978,33984
4979,33920
4980,33920
4981,33920
4982,33920
4983,34048
4984,34112
4985,34240
4986,34240
4987,34240
4988,34240
4989,34176
4990,34112
4991,33984
4992,33984
4993,33920
4994,33728
4995,33664
4996,33664
4997,33536
4998,33408
4999,33344
5000,33408
5001,33472
5002,33472
5003,33408
5004,33472
5005,33600
5006,33664
5007,33664
5008,33792
5009,33856
5010,33856
5011,33856
5012,33856
5013,33984
5014,34112
5015,34112
5016,34112
5017,34112
5018,34112
5019,34048
5020,34112
5021,34176
5022,34176
5023,34112
5024,34112
5025,34112
5026,34112
5027,34048
5028,34048
5029,34112
5030,34176
5031,34112
5032,34112
5033,34176
5034,34240
5035,34304
5036,34240
5037,34304
5038,34304
5039,34240
5040,34112
5041,34048
5042,34048
5043,33984
5044,33792
5045,33664
5046,33600
5047,33600
5048,33600
5049,33600
5050,33664
5051,33664
5052,33728
5053,33664
5054,33728
5055,33792
5056,33792
5057,33728
5058,33792
5059,33920
5060,34048
5061,34176
5062,34240
5063,34432
5064,34560
5065,34560
5066,34496
5067,34560
5068,34624
5069,34624
5070,34560
5071,34624
5072,34688
5073,34496
5074,34240
5075,34048
5076,33920
5077,33664
5078,33408
5079,33280
5080,33280
5081,33216
5082,33152
5083,33152
5084,33344
5085,33472
5086,33536
5087,33600
5088,33728
5089,33792
5090,33792
5091,33856
5092,33920
5093,33856
5094,33728
5095,33728
5096,33984
5097,34432
5098,35136
5099,36416
5100,38528
5101,41280
5102,43968
5103,45568
5104,45760
5105,43840
5106,40320
5107,36096
5108,32576
5109,29888
5110,28352
5111,27776
5112,28032
5113,28800
5114,29824
5115,30720
5116,31552
5117,32320
5118,33088
5119,33600
5120,33984
5121,34304
5122,34432
5123,34432
5124,34368
5125,34432
5126,34368
5127,34240
5128,34048
5129,34048
5130,33920
5131,33856
5132,33728
5133,33728
5134,33728
5135,33728
5136,33664
5137,33664
5138,33728
5139,33728
5140,33664
5141,33600
5142,33536
5143,33536
5144,33600
5145,33664
5146,33728
5147,33792
5148,33856
5149,33856
5150,33920
5151,34048
5152,34112
5153,34176
5154,34240
5155,34304
5156,34240
5157,34112
5158,34048
5159,34112
5160,34112
5161,34112
5162,34048
5163,34112
5164,34112
5165,33984
5166,34048
5167,34112
5168,34176
5169,34176
5170,34048
5171,34048
5172,34048
5173,34048
5174,33984
5175,33984
5176,33984
5177,33984
5178,34048
5179,33984
5180,33920
5181,33856
5182,33728
5183,33664
5184,33664
5185,33664
5186,33600
5187,33664
5188,33792
5189,33920
5190,33856
5191,33728
5192,33792
5193,33728
5194,33664
5195,33664
5196,33792
5197,33920
5198,33856
5199,33856
5200,34048
5201,34304
5202,34304
5203,34112
5204,34112
5205,34240
5206,34240
5207,34176
5208,34112
5209,34112
5210,33984
5211,33856
5212,33856
5213,33920
5214,33920
5215,33856
5216,33856
5217,33920
5218,33920
5219,33856
5220,33856
5221,34048
5222,34112
5223,33984
5224,33920
5225,33920
5226,33920
5227,33920
5228,33856
5229,33920
5230,34048
5231,34048
5232,33920
5233,33920
5234,33984
5235,34048
5236,33984
5237,33984
5238,34048
5239,34048
5240,33920
5241,33792
5242,33856
5243,33920
5244,33984
5245,34048
5246,34048
5247,33984
5248,33856
5249,33856
5250,33856
5251,33920
5252,33920
5253,33984
5254,34240
5255,34432
5256,34560
5257,34624
5258,34688
5259,34816
5260,34880
5261,34752
5262,34688
5263,34688
5264,34688
5265,34624
5266,34496
5267,34432
5268,34240
5269,33920
5270,33728
5271,33600
5272,33472
5273,33344
5274,33216
5275,33216
5276,33216
5277,33280
5278,33344
5279,33472
5280,33600
5281,33728
5282,33792
5283,33856
5284,33920
5285,33920
5286,33792
5287,33728
5288,33792
5289,33920
5290,34368
5291,35200
5292,36544
5293,38592
5294,41152
5295,43712
5296,45376
5297,45632
5298,43776
5299,40320
5300,36160
5301,32320
5302,29440
5303,27840
5304,27200
5305,27456
5306,28096
5307,28992
5308,29952
5309,30976
5310,31872
5311,32512
5312,33088
5313,33600
5314,33920
5315,34112
5316,34176
5317,34304
5318,34304
5319,34304
5320,34176
5321,34048
5322,33920
5323,33664
5324,33600
5325,33664
5326,33600
5327,33472
5328,33408
5329,33472
5330,33472
5331,33408
5332,33344
5333,33344
5334,33472
5335,33472
5336,33408
5337,33472
5338,33536
5339,33536
5340,33600
5341,33664
5342,33792
5343,33856
5344,33920
5345,33984
5346,34176
5347,34240
5348,34240
5349,34240
5350,34240
5351,34176
5352,34048
5353,33984
5354,33984
5355,33984
5356,33920
5357,33856
5358,33856
5359,33856
5360,33792
5361,33728
5362,33792
5363,33984
5364,34048
5365,33984
5366,33920
5367,33984
5368,33984
5369,33984
5370,34048
5371,34112
5372,34048
5373,33920
5374,33728
5375,33792
5376,33856
5377,33792
5378,33728
5379,33792
5380,33920
5381,33920
5382,33792
5383,33792
5384,33856
5385,33856
5386,33856
5387,34048
5388,34176
5389,34240
5390,34240
5391,34368
5392,34496
5393,34688
5394,34688
5395,34624
5396,34560
5397,34560
5398,34432
5399,34496
5400,34560
5401,34496
5402,34240
5403,34048
5404,34048
5405,34048
5406,33984
5407,33856
5408,33856
5409,33920
5410,33920
5411,33856
5412,33856
5413,33920
5414,33984
5415,33984
5416,33984
5417,34048
5418,34176
5419,34176
5420,34112
5421,34048
5422,34048
5423,34048
5424,33984
5425,33984
5426,34048
5427,33984
5428,33984
5429,34048
5430,34112
5431,34048
5432,34048
5433,34176
5434,34368
5435,34496
5436,34432
5437,34432
5438,34496
5439,34560
5440,34496
5441,34432
5442,34432
5443,34496
5444,34432
5445,34432
5446,34432
5447,34240
5448,33984
5449,33728
5450,33600
5451,33472
5452,33344
5453,33152
5454,33088
5455,33024
5456,33024
5457,32960
5458,33024
5459,33152
5460,33344
5461,33408
5462,33408
5463,33536
5464,33600
5465,33600
5466,33600
5467,33536
5468,33536
5469,33728
5470,34176
5471,35072
5472,36416
5473,38464
5474,40960
5475,43520
5476,44928
5477,44672
5478,42496
5479,38976
5480,34880
5481,31232
5482,28672
5483,27392
5484,27008
5485,27328
5486,27968
5487,28992
5488,30080
5489,30976
5490,31808
5491,32512
5492,33152
5493,33600
5494,33856
5495,34048
5496,34176
5497,34176
5498,33984
5499,33920
5500,33984
5501,33984
5502,33920
5503,33920
5504,33984
5505,33920
5506,33728
5507,33664
5508,33728
5509,33792
5510,33792
5511,33792
5512,33856
5513,33920
5514,33920
5515,33856
5516,33728
5517,33728
5518,33728
5519,33664
5520,33664
5521,33792
5522,33920
5523,33984
5524,33920
5525,33984
5526,34048
5527,34048
5528,33984
5529,34112
5530,34176
5531,34048
5532,33920
5533,33984
5534,33984
5535,33920
5536,33920
5537,33984
5538,33984
5539,33984
5540,33920
5541,33984
5542,33984
5543,34048
5544,34048
5545,33984
5546,33984
5547,33984
5548,33856
5549,33856
5550,33856
5551,33856
5552,33856
5553,33664
5554,33664
5555,33728
5556,33664
5557,33600
5558,33664
5559,33856
5560,33984
5561,33984
5562,33984
5563,34048
5564,34112
5565,34048
5566,34048
5567,34112
5568,34112
5569,34112
5570,34112
5571,34176
5572,34240
5573,34304
5574,34304
5575,34304
5576,34240
5577,34240
5578,34176
5579,34240
5580,34304
5581,34240
5582,34176
5583,34176
5584,34176
5585,34176
5586,34048
5587,34048
5588,34048
5589,33984
5590,33984
5591,34048
5592,34304
5593,34432
5594,34496
5595,34560
5596,34752
5597,34816
5598,34816
5599,34816
5600,34880
5601,34944
5602,34816
5603,34816
5604,34944
5605,34944
5606,34752
5607,34496
5608,34368
5609,34304
5610,34112
5611,33920
5612,33792
5613,33728
5614,33600
5615,33472
5616,33472
5617,33600
5618,33664
5619,33600
5620,33536
5621,33664
5622,33792
5623,33856
5624,33728
5625,33728
5626,33792
5627,33728
5628,33600
5629,33664
5630,33792
5631,34048
5632,34752
5633,36032
5634,38016
5635,40576
5636,43136
5637,44800
5638,45056
5639,43328
5640,40064
5641,36224
5642,32640
5643,30016
5644,28288
5645,27584
5646,27648
5647,28288
5648,29056
5649,30016
5650,30976
5651,31808
5652,32576
5653,33152
5654,33600
5655,33920
5656,34048
5657,34176
5658,34176
5659,34048
5660,33856
5661,33792
5662,33728
5663,33728
5664,33664
5665,33600
5666,33600
5667,33600
5668,33536
5669,33472
5670,33408
5671,33344
5672,33280
5673,33216
5674,33280
5675,33280
5676,33216
5677,33152
5678,33280
5679,33280
5680,33344
5681,33344
5682,33472
5683,33600
5684,33664
5685,33664
5686,33600
5687,33664
5688,33728
5689,33728
5690,33664
5691,33728
5692,33856
5693,33856
5694,33728
5695,33792
5696,33856
5697,33856
5698,33792
5699,33792
5700,33792
5701,33728
5702,33728
5703,33792
5704,33856
5705,33792
5706,33664
5707,33472
5708,33408
5709,33408
5710,33408
5711,33344
5712,33408
5713,33472
5714,33472
5715,33408
5716,33408
5717,33536
5718,33536
5719,33408
5720,33408
5721,33536
5722,33600
5723,33600
5724,33536
5725,33600
5726,33600
5727,33664
5728,33664
5729,33856
5730,33920
5731,33856
5732,33728
5733,33792
5734,33792
5735,33792
5736,33920
5737,33920
5738,33920
5739,33856
5740,33728
5741,33728
5742,33728
5743,33728
5744,33792
5745,33856
5746,34048
5747,34048
5748,33792
5749,33664
5750,33728
5751,33728
5752,33792
5753,33920
5754,34112
5755,34304
5756,34240
5757,34240
5758,34304
5759,34432
5760,34496
5761,34432
5762,34368
5763,34496
5764,34496
5765,34368
5766,34240
5767,34176
5768,33984
5769,33728
5770,33536
5771,33408
5772,33280
5773,33088
5774,33024
5775,33088
5776,33152
5777,33152
5778,33344
5779,33472
5780,33600
5781,33728
5782,33728
5783,33792
5784,33856
5785,33856
5786,33792
5787,33728
5788,33664
5789,33536
5790,33600
5791,33984
5792,34624
5793,35776
5794,37696
5795,40192
5796,43008
5797,44928
5798,45376
5799,43904
5800,40960
5801,37120
5802,33280
5803,30336
5804,28480
5805,27584
5806,27456
5807,27904
5808,28736
5809,29760
5810,30848
5811,31680
5812,32448
5813,33024
5814,33472
5815,33856
5816,34048
5817,34176
5818,34176
5819,34112
5820,34112
5821,34112
5822,34048
5823,33984
5824,33856
5825,33728
5826,33728
5827,33664
5828,33600
5829,33536
5830,33408
5831,33344
5832,33344
5833,33472
5834,33472
5835,33472
5836,33472
5837,33536
5838,33600
5839,33600
5840,33664
5841,33728
5842,33728
5843,33792
5844,33728
5845,33792
5846,33920
5847,33920
5848,33920
5849,34048
5850,34176
5851,34176
5852,34048
5853,33984
5854,33984
5855,34048
5856,33984
5857,33920
5858,33920
5859,34048
5860,34112
5861,34112
5862,34112
5863,34176
5864,34176
5865,34048
5866,33984
5867,34048
5868,34048
5869,33920
5870,33856
5871,33856
5872,33856
5873,33792
5874,33728
5875,33792
5876,33728
5877,33664
5878,33536
5879,33536
5880,33600
5881,33600
5882,33664
5883,33664
5884,33728
5885,33792
5886,33856
5887,34048
5888,34112
5889,34176
5890,34176
5891,34240
5892,34368
5893,34368
5894,34304
5895,34368
5896,34432
5897,34496
5898,34368
5899,34176
5900,34176
5901,34112
5902,34048
5903,33984
5904,33984
5905,33920
5906,33920
5907,33920
5908,33920
5909,33984
5910,33984
5911,34112
5912,34176
5913,34176
5914,34048
5915,33984
5916,34048
5917,34176
5918,34176
5919,34048
5920,33984
5921,33984
5922,33984
5923,33920
5924,33984
5925,34048
5926,34048
5927,34048
5928,34176
5929,34304
5930,34368
5931,34368
5932,34432
5933,34560
5934,34624
5935,34624
5936,34624
5937,34688
5938,34752
5939,34688
5940,34432
5941,34304
5942,34176
5943,34048
5944,33792
5945,33728
5946,33664
5947,33600
5948,33472
5949,33536
5950,33536
5951,33472
5952,33536
5953,33664
5954,33728
5955,33792
5956,33856
5957,33920
5958,33984
5959,33920
5960,33792
5961,33792
5962,33792
5963,33728
5964,34432
5965,35328
5966,36864
5967,39040
5968,42048
5969,42304
5970,44352
5971,45440
5972,43008
5973,39360
5974,35200
5975,31552
5976,29184
5977,27840
5978,27392
5979,27584
5980,28352
5981,29248
5982,30208
5983,31232
5984,32000
5985,32576
5986,33216
5987,33600
5988,33856
5989,33984
5990,34048
5991,34176
5992,34112
5993,33984
5994,33856
5995,33728
5996,33664
5997,33664
5998,33792
5999,33792
6000,33792
6001,33664
6002,33600
6003,33600
6004,33600
6005,33472
6006,33344
6007,33344
6008,33408
6009,33280
6010,33216
6011,33280
6012,33408
6013,33344
6014,33344
6015,33472
6016,33600
6017,33664
6018,33728
6019,33856
6020,33920
6021,33984
6022,34048
6023,34048
6024,34112
6025,34240
6026,34176
6027,34048
6028,34048
6029,34048
6030,33984
6031,33984
6032,34048
6033,34176
6034,34240
6035,34176
6036,34112
6037,34112
6038,34048
6039,34048
6040,34176
6041,34240
6042,34176
6043,34176
6044,34112
6045,34176
6046,34176
6047,34048
6048,34048
6049,33920
6050,33920
6051,33920
6052,33920
6053,33920
6054,33920
6055,33856
6056,33728
6057,33664
6058,33664
6059,33792
6060,34048
6061,34112
6062,34240
6063,34304
6064,34368
6065,34432
6066,34432
6067,34304
6068,34176
6069,34240
6070,34304
6071,34240
6072,34112
6073,34048
6074,33920
6075,33856
6076,33856
6077,33984
6078,34112
6079,34112
6080,34240
6081,34240
6082,34240
6083,34112
6084,33920
6085,33856
6086,33920
6087,34112
6088,34240
6089,34240
6090,34240
6091,34304
6092,34304
6093,34176
6094,34176
6095,34176
6096,34240
6097,34240
6098,34304
6099,34304
6100,34304
6101,34368
6102,34496
6103,34624
6104,34688
6105,34624
6106,34560
6107,34560
6108,34624
6109,34624
6110,34624
6111,34688
6112,34688
6113,34560
6114,34304
6115,34048
6116,33856
6117,33664
6118,33472
6119,33408
6120,33344
6121,33280
6122,33152
6123,33088
6124,33088
6125,33216
6126,33280
6127,33472
6128,33664
6129,33664
6130,33664
6131,33728
6132,33728
6133,33664
6134,33728
6135,33472
6136,33408
6137,33536
6138,33984
6139,34816
6140,36288
6141,38592
6142,41152
6143,43520
6144,44736
6145,44480
6146,42368
6147,38912
6148,34624
6149,34112
6150,29056
6151,27520
6152,26880
6153,27072
6154,27648
6155,28480
6156,29440
6157,30336
6158,31168
6159,31808
6160,32320
6161,32832
6162,33216
6163,33344
6164,33472
6165,33600
6166,33664
6167,33664
6168,33600
6169,33600
6170,33728
6171,33728
6172,33664
6173,33728
6174,33792
6175,33728
6176,33600
6177,33600
6178,33600
6179,33536
6180,33344
6181,33152
6182,33088
6183,33024
6184,33024
6185,32960
6186,32896
6187,32896
6188,32896
6189,32896
6190,32896
6191,32896
6192,32768
6193,32832
6194,32768
6195,32896
6196,32960
6197,32960
6198,33088
6199,33216
6200,33408
6201,33408
6202,33536
6203,33728
6204,33920
6205,34112
6206,34368
6207,34624
6208,34688
6209,34624
6210,34496
6211,34432
6212,34368
6213,34240
6214,34112
6215,33984
6216,33792
6217,33600
6218,33472
6219,33472
6220,33536
6221,33664
6222,33536
6223,33408
6224,33344
6225,33408
6226,33536
6227,33664
6228,33728
6229,33856
6230,33984
6231,34048
6232,34112
6233,34240
6234,34304
6235,34368
6236,34560
6237,34624
6238,34496
6239,34368
6240,34240
6241,34240
6242,34240
6243,34240
6244,34240
6245,34176
6246,34048
6247,33984
6248,33920
6249,34048
6250,34112
6251,33984
6252,33856
6253,33920
6254,34048
6255,33984
6256,33920
6257,33920
6258,33920
6259,33856
6260,33664
6261,33600
6262,33664
6263,33664
6264,33728
6265,33984
6266,34112
6267,34176
6268,34240
6269,34240
6270,34432
6271,34432
6272,34368
6273,34496
6274,34560
6275,34560
6276,34368
6277,34176
6278,34048
6279,33920
6280,33856
6281,33728
6282,33664
6283,33408
6284,33344
6285,33216
6286,33280
6287,33408
6288,33472
6289,33536
6290,33600
6291,33728
6292,33792
6293,33792
6294,33984
6295,34176
6296,34176
6297,34048
6298,33856
6299,33728
6300,33664
6301,33856
6302,34304
6303,35264
6304,36736
6305,38848
6306,41664
6307,44096
6308,45632
6309,45376
6310,43072
6311,39488
6312,35392
6313,31424
6314,29120
6315,27648
6316,27200
6317,27328
6318,27968
6319,28928
6320,29952
6321,30912
6322,31744
6323,32384
6324,32896
6325,33280
6326,33536
6327,33856
6328,33920
6329,33728
6330,33536
6331,33472
6332,33472
6333,33472
6334,33408
6335,33472
6336,33536
6337,33600
6338,33600
6339,33536
6340,33600
6341,33664
6342,33600
6343,33600
6344,33536
6345,33792
6346,33856
6347,33728
6348,33728
6349,33856
6350,33920
6351,33856
6352,33856
6353,33856
6354,33856
6355,33792
6356,33920
6357,34048
6358,33984
6359,33920
6360,33984
6361,34112
6362,34240
6363,34304
6364,34304
6365,34368
6366,34432
6367,34368
6368,34304
6369,34496
6370,34624
6371,34688
6372,34560
6373,34624
6374,34624
6375,34560
6376,34496
6377,34496
6378,34560
6379,34496
6380,34304
6381,34304
6382,34304
6383,34304
6384,34240
6385,34176
6386,34112
6387,34112
6388,34112
6389,33920
6390,33792
6391,33728
6392,33600
6393,33472
6394,33536
6395,33664
6396,33664
6397,33664
6398,33664
6399,33728
6400,33792
6401,33856
6402,33984
6403,34240
6404,34304
6405,34048
6406,33984
6407,34048
6408,34112
6409,34112
6410,34176
6411,34240
6412,34176
6413,34112
6414,34176
6415,34240
6416,34112
6417,34048
6418,33984
6419,33920
6420,34048
6421,33984
6422,33856
6423,33728
6424,33728
6425,33792
6426,33920
6427,33984
6428,34112
6429,34240
6430,34304
6431,34560
6432,34752
6433,34752
6434,34624
6435,34688
6436,34816
6437,34880
6438,34880
6439,34944
6440,35008
6441,34880
6442,34688
6443,34496
6444,34304
6445,34048
6446,33856
6447,33664
6448,33536
6449,33472
6450,33344
6451,33280
6452,33408
6453,33536
6454,33600
6455,33664
6456,33792
6457,33856
6458,33920
6459,33856
6460,33920
6461,33984
6462,33984
6463,33792
6464,33728
6465,33664
6466,33728
6467,33920
6468,34496
6469,35648
6470,37248
6471,39680
6472,42176
6473,44544
6474,45760
6475,45120
6476,42496
6477,38656
6478,34688
6479,31232
6480,28864
6481,27648
6482,27392
6483,27776
6484,28544
6485,29504
6486,30528
6487,31424
6488,32128
6489,32832
6490,33408
6491,33728
6492,33984
6493,34112
6494,34048
6495,34240
6496,34176
6497,34048
6498,34112
6499,34240
6500,34240
6501,34112
6502,34048
6503,34048
6504,34048
6505,33984
6506,33856
6507,33856
6508,33792
6509,33728
6510,33600
6511,33600
6512,33600
6513,33536
6514,33472
6515,33472
6516,33536
6517,33600
6518,33600
6519,33728
6520,33920
6521,33984
6522,34048
6523,34176
6524,34176
6525,34240
6526,34112
6527,34048
6528,34048
6529,33984
6530,33920
6531,33920
6532,33920
6533,33920
6534,33792
6535,33792
6536,33920
6537,33920
6538,33792
6539,33856
6540,33920
6541,33984
6542,33920
6543,33920
6544,33984
6545,33984
6546,33920
6547,33856
6548,33856
6549,33792
6550,33728
6551,33664
6552,33664
6553,33728
6554,33600
6555,33472
6556,33536
6557,33600
6558,33600
6559,33600
6560,33664
6561,33792
6562,33856
6563,33792
6564,33856
6565,33984
6566,34112
6567,34112
6568,34240
6569,34176
6570,34240
6571,34112
6572,34048
6573,34112
6574,34176
6575,34112
6576,34112
6577,34176
6578,34240
6579,34240
6580,34112
6581,34112
6582,34112
6583,34048
6584,34048
6585,34048
6586,34112
6587,34112
6588,34048
6589,33984
6590,33920
6591,33920
6592,33792
6593,33728
6594,33728
6595,33728
6596,33728
6597,33664
6598,33792
6599,33856
6600,33856
6601,33856
6602,33856
6603,33856
6604,33920
6605,33984
6606,33984
6607,34112
6608,34240
6609,34368
6610,34496
6611,34752
6612,34816
6613,34816
6614,34688
6615,34688
6616,34752
6617,34688
6618,34560
6619,34496
6620,34496
6621,34496
6622,34304
6623,34176
6624,33984
6625,33792
6626,33664
6627,33664
6628,33664
6629,33472
6630,33152
6631,33152
6632,33216
6633,33152
6634,33088
6635,33088
6636,33280
6637,33408
6638,33472
6639,33536
6640,33664
6641,33728
6642,33728
6643,33664
6644,33600
6645,33728
6646,33984
6647,34496
6648,35328
6649,36800
6650,38976
6651,41664
6652,44160
6653,45568
6654,45248
6655,42880
6656,39232
6657,35136
6658,31552
6659,29056
6660,27776
6661,27392
6662,27712
6663,28416
6664,29312
6665,30336
6666,31296
6667,32128
6668,32704
6669,33344
6670,33792
6671,33984
6672,34176
6673,34368
6674,34432
6675,34368
6676,34240
6677,34176
6678,34112
6679,34048
6680,33920
6681,33920
6682,33984
6683,33984
6684,33792
6685,33600
6686,33600
6687,33472
6688,33280
6689,33280
6690,33344
6691,33472
6692,33408
6693,33408
6694,33408
6695,33472
6696,33472
6697,33536
6698,33728
6699,33920
6700,34048
6701,34112
6702,34176
6703,34176
6704,34112
6705,34112
6706,34240
6707,34432
6708,34432
6709,34304
6710,34240
6711,34304
6712,34240
6713,34112
6714,34048
6715,34176
6716,34240
6717,34176
6718,34240
6719,34240
6720,34304
6721,34240
6722,34176
6723,34240
6724,34240
6725,34176
6726,34112
6727,34112
6728,34112
6729,33984
6730,33856
6731,33856
6732,33856
6733,33792
6734,33728
6735,33792
6736,33920
6737,33920
6738,33984
6739,34048
6740,34112
6741,34176
6742,34112
6743,34112
6744,34112
6745,34176
6746,34240
6747,34304
6748,34432
6749,34432
6750,34368
6751,34368
6752,34432
6753,34496
6754,34432
6755,34368
6756,34432
6757,34560
6758,34624
6759,34560
6760,34560
6761,34560
6762,34560
6763,34432
6764,34368
6765,34368
6766,34368
6767,34304
6768,34176
6769,34240
6770,34304
6771,34240
6772,34176
6773,34240
6774,34368
6775,34304
6776,34112
6777,34048
6778,34112
6779,34048
6780,34112
6781,34112
6782,34176
6783,34112
6784,34048
6785,34112
6786,34304
6787,34368
6788,34304
6789,34432
6790,34560
6791,34624
6792,34560
6793,34560
6794,34560
6795,34560
6796,34560
6797,34560
6798,34560
6799,34496
6800,34240
6801,33984
6802,33920
6803,33856
6804,33728
6805,33536
6806,33408
6807,33280
6808,33088
6809,33088
6810,33280
6811,33472
6812,33600
6813,33600
6814,33728
6815,33920
6816,33920
6817,33728
6818,33536
6819,33472
6820,33472
6821,33408
6822,33472
6823,33920
6824,34560
6825,35584
6826,37184
6827,39488
6828,42240
6829,44288
6830,45056
6831,44096
6832,41408
6833,37696
6834,33856
6835,30720
6836,28736
6837,27776
6838,27648
6839,28032
6840,28800
6841,29632
6842,30528
6843,31360
6844,32192
6845,32768
6846,33152
6847,33472
6848,33728
6849,33920
6850,34048
6851,34048
6852,34112
6853,34048
6854,33920
6855,33792
6856,33728
6857,33792
6858,33664
6859,33472
6860,33408
6861,33344
6862,33280
6863,33280
6864,33280
6865,33344
6866,33344
6867,33280
6868,33344
6869,33344
6870,33472
6871,33472
6872,33536
6873,33664
6874,33792
6875,33728
6876,33664
6877,33664
6878,33728
6879,33728
6880,33728
6881,33856
6882,33920
6883,33856
6884,33728
6885,33728
6886,33792
6887,33728
6888,33664
6889,33664
6890,33728
6891,33664
6892,33664
6893,33600
6894,33728
6895,33728
6896,33600
6897,33472
6898,33536
6899,33472
6900,33408
6901,33408
6902,33472
6903,33536
6904,33536
6905,33536
6906,33536
6907,33600
6908,33600
6909,33536
6910,33536
6911,33536
6912,33536
6913,33536
6914,33472
6915,33600
6916,33664
6917,33600
6918,33600
6919,33664
6920,33728
6921,33792
6922,33856
6923,33920
6924,33856
6925,33792
6926,33792
6927,33856
6928,33920
6929,33920
6930,33792
6931,33728
6932,33792
6933,33856
6934,33856
6935,33920
6936,33984
6937,33984
6938,33984
6939,33920
6940,33920
6941,33984
6942,33920
6943,33920
6944,33920
6945,33920
6946,33856
6947,33856
6948,33792
6949,33792
6950,33728
6951,33728
6952,33792
6953,33856
6954,33920
6955,33920
6956,34048
6957,34176
6958,34240
6959,34304
6960,34368
6961,34432
6962,34432
6963,34432
6964,34496
6965,34560
6966,34432
6967,34240
6968,34048
6969,33920
6970,33728
6971,33408
6972,33152
6973,33024
6974,32960
6975,32768
6976,32704
6977,32960
6978,33152
6979,33216
6980,33216
6981,33344
6982,33664
6983,33792
6984,33792
6985,33792
6986,33792
6987,33792
6988,33664
6989,33728
6990,33856
6991,34112
6992,34432
6993,35328
6994,36992
6995,39360
6996,42048
6997,44416
6998,45248
6999,44736
7000,42368
7001,38784
7002,34880
7003,31616
7004,29056
7005,27840
7006,27520
7007,27840
7008,28544
7009,29376
7010,30336
7011,31232
7012,32000
7013,32576
7014,33152
7015,33536
7016,33856
7017,33984
7018,34112
7019,34240
7020,34304
7021,34240
7022,34112
7023,34112
7024,34112
7025,34112
7026,33984
7027,33920
7028,33792
7029,33664
7030,33600
7031,33600
7032,33600
7033,33600
7034,33536
7035,33600
7036,33664
7037,33600
7038,33536
7039,33600
7040,33728
7041,33728
7042,33728
7043,33728
7044,33920
7045,33984
7046,33984
7047,33984
7048,34048
7049,34176
7050,34112
7051,33984
7052,34048
7053,34112
7054,34112
7055,34048
7056,33920
7057,33920
7058,33920
7059,33856
7060,33920
7061,34048
7062,34048
7063,33984
7064,34048
7065,34048
7066,33920
7067,33728
7068,33664
7069,33664
7070,33664
7071,33664
7072,33536
7073,33600
7074,33664
7075,33664
7076,33600
7077,33664
7078,33728
7079,33728
7080,33728
7081,33728
7082,33856
7083,33984
7084,33984
7085,34048
7086,34240
7087,34304
7088,34176
7089,34176
7090,34176
7091,34240
7092,34176
7093,34176
7094,34304
7095,34368
7096,34304
7097,34304
7098,34304
7099,34304
7100,34176
7101,34176
7102,34176
7103,34112
7104,33984
7105,33920
7106,33856
7107,33920
7108,33856
7109,33728
7110,33728
7111,33856
7112,33920
7113,33856
7114,33792
7115,33856
7116,33920
7117,33984
7118,33984
7119,33984
7120,33856
7121,33792
7122,33792
7123,33792
7124,33792
7125,33792
7126,33728
7127,33664
7128,33664
7129,33664
7130,33664
7131,33728
7132,33856
7133,33984
7134,34112
7135,34240
7136,34496
7137,34624
7138,34624
7139,34560
7140,34560
7141,34560
7142,34496
7143,34496
7144,34560
7145,34496
7146,34368
7147,34112
7148,33920
7149,33792
7150,33728
7151,33664
7152,33600
7153,33536
7154,33408
7155,33344
7156,33472
7157,33600
7158,33600
7159,33536
7160,33600
7161,33728
7162,33856
7163,33920
7164,33920
7165,33984
7166,33920
7167,33856
7168,33920
7169,34240
7170,34752
7171,35520
7172,37120
7173,39488
7174,42304
7175,44608
7176,45760
7177,45248
7178,42752
7179,38976
7180,34816
7181,31360
7182,29056
7183,27776
7184,27328
7185,27648
7186,28480
7187,29440
7188,30400
7189,31360
7190,32192
7191,32832
7192,33280
7193,33664
7194,33984
7195,34048
7196,34048
7197,34112
7198,34176
7199,34176
7200,34048
7201,33856
7202,33792
7203,33728
7204,33664
7205,33600
7206,33536
7207,33600
7208,33600
7209,33472
7210,33536
7211,33472
7212,33408
7213,33408
7214,33472
7215,33472
7216,33472
7217,33472
7218,33600
7219,33664
7220,33664
7221,33728
7222,33792
7223,33856
7224,33920
7225,33984
7226,34048
7227,34048
7228,34112
7229,34112
7230,34112
7231,34112
7232,34176
7233,34176
7234,34176
7235,34176
7236,34176
7237,34176
7238,34176
7239,34304
7240,34304
7241,34240
7242,34240
7243,34176
7244,34176
7245,34176
7246,34112
7247,34048
7248,33984
7249,33984
7250,33856
7251,33792
7252,33792
7253,33792
7254,33728
7255,33792
7256,33792
7257,33856
7258,33920
7259,33920
7260,33856
7261,33920
7262,33984
7263,34048
7264,33984
7265,33984
7266,34048
7267,34048
7268,33984
7269,33920
7270,33856
7271,33856
7272,33920
7273,33984
7274,34112
7275,34048
7276,33984
7277,33984
7278,33984
7279,33920
7280,33920
7281,33984
7282,33984
7283,33984
7284,33856
7285,33856
7286,33920
7287,33920
7288,33920
7289,33920
7290,33920
7291,33920
7292,33856
7293,33792
7294,33792
7295,33856
7296,33792
7297,33728
7298,33728
7299,33664
7300,33600
7301,33600
7302,33600
7303,33600
7304,33664
7305,33728
7306,33856
7307,33984
7308,34112
7309,34304
7310,34432
7311,34624
7312,34688
7313,34624
7314,34560
7315,34560
7316,34496
7317,34432
7318,34496
7319,34496
7320,34432
7321,34240
7322,34112
7323,33984
7324,33856
7325,33664
7326,33472
7327,33408
7328,33408
7329,33344
7330,33280
7331,33344
7332,33472
7333,33600
7334,33728
7335,33856
7336,34048
7337,34112
7338,34048
7339,34048
7340,34048
7341,33920
7342,33792
7343,33984
7344,34368
7345,34944
7346,35904
7347,37568
7348,39936
7349,42688
7350,44864
7351,45760
7352,44864
7353,42176
7354,38208
7355,34048
7356,30656
7357,28544
7358,27456
7359,27200
7360,27712
7361,28608
7362,29568
7363,30528
7364,31424
7365,32192
7366,32832
7367,33280
7368,33728
7369,34048
7370,34240
7371,34304
7372,34304
7373,34304
7374,34304
7375,34176
7376,33984
7377,33920
7378,33856
7379,33728
7380,33600
7381,33536
7382,33472
7383,33408
7384,33408
7385,33472
7386,33536
7387,33472
7388,33472
7389,33472
7390,33600
7391,33664
7392,33728
7393,33792
7394,33856
7395,33856
7396,33920
7397,34048
7398,34112
7399,34176
7400,34176
7401,34112
7402,34112
7403,34112
7404,34048
7405,33984
7406,33984
7407,33984
7408,33920
7409,33792
7410,33792
7411,33792
7412,33792
7413,33856
7414,33920
7415,34048
7416,34112
7417,34176
7418,34304
7419,34368
7420,34304
7421,34176
7422,34048
7423,34112
7424,34048
7425,33920
7426,33920
7427,33920
7428,33792
7429,33664
7430,33600
7431,33600
7432,33664
7433,33600
7434,33600
7435,33664
7436,33728
7437,33728
7438,33792
7439,33920
7440,33984
7441,33984
7442,33920
7443,33920
7444,34048
7445,34112
7446,34112
7447,34112
7448,34176
7449,34304
7450,34240
7451,34176
7452,34176
7453,34176
7454,34176
7455,34112
7456,34112
7457,34112
7458,34048
7459,33984
7460,33984
7461,33984
7462,33856
7463,33728
7464,33728
7465,33664
7466,33600
7467,33600
7468,33664
7469,33792
7470,33792
7471,33728
7472,33728
7473,33728
7474,33792
7475,33792
7476,33856
7477,33920
7478,33984
7479,33984
7480,33984
7481,34048
7482,34112
7483,34176
7484,34176
7485,34176
7486,34304
7487,34432
7488,34560
7489,34688
7490,34816
7491,34752
7492,34688
7493,34624
7494,34688
7495,34624
7496,34560
7497,34496
7498,34560
7499,34560
7500,34432
7501,34304
7502,34176
7503,33984
7504,33792
7505,33664
7506,33600
7507,33536
7508,33408
7509,33344
7510,33408
7511,33536
7512,33600
7513,33600
7514,33600
7515,33728
7516,33792
7517,33856
7518,33920
7519,33984
7520,33984
7521,33920
7522,33792
7523,33856
7524,34176
7525,34624
7526,35520
7527,37056
7528,39360
7529,42240
7530,44352
7531,45504
7532,44992
7533,42496
7534,38720
7535,34752
7536,31424
7537,29184
7538,27904
7539,27520
7540,27776
7541,28480
7542,29440
7543,30336
7544,31296
7545,32064
7546,32704
7547,33280
7548,33728
7549,34048
7550,34176
7551,34240
7552,34240
7553,34240
7554,34176
7555,34048
7556,34048
7557,33984
7558,33856
7559,33728
7560,33728
7561,33728
7562,33664
7563,33536
7564,33472
7565,33472
7566,33408
7567,33280
7568,33344
7569,33408
7570,33408
7571,33280
7572,33344
7573,33536
7574,33600
7575,33728
7576,33856
7577,33856
7578,33856
7579,33856
7580,33856
7581,33984
7582,33984
7583,33984
7584,33920
7585,33984
7586,34048
7587,34048
7588,33920
7589,33856
7590,33856
7591,33856
7592,33856
7593,33920
7594,33920
7595,33984
7596,34048
7597,33984
7598,33984
7599,33984
7600,33856
7601,33792
7602,33728
7603,33664
7604,33600
7605,33536
7606,33600
7607,33536
7608,33472
7609,33472
7610,33472
7611,33536
7612,33472
7613,33472
7614,33536
7615,33664
7616,33728
7617,33728
7618,33792
7619,33792
7620,33792
7621,33920
7622,33984
7623,33984
7624,33920
7625,33920
7626,33984
7627,34112
7628,34112
7629,34112
7630,34048
7631,34048
7632,34048
7633,33920
7634,33792
7635,33856
7636,33856
7637,33920
7638,33856
7639,33856
7640,33856
7641,33856
7642,33856
7643,33856
7644,33856
7645,33856
7646,33728
7647,33728
7648,33792
7649,33856
7650,33856
7651,33920
7652,33920
7653,33856
7654,33728
7655,33600
7656,33600
7657,33664
7658,33664
7659,33536
7660,33600
7661,33600
7662,33536
7663,33536
7664,33536
7665,33536
7666,33600
7667,33600
7668,33664
7669,33856
7670,33984
7671,34176
7672,34240
7673,34368
7674,34496
7675,34432
7676,34432
7677,34496
7678,34432
7679,34240
7680,34176
7681,34304
7682,34432
7683,34304
7684,34048
7685,33920
7686,33856
7687,33664
7688,33472
7689,33472
7690,33472
7691,33344
7692,33280
7693,33216
7694,33216
7695,33216
7696,33216
7697,33344
7698,33600
7699,33664
7700,33728
7701,33792
7702,33856
7703,33920
7704,33920
7705,33856
7706,33856
7707,34048
7708,34432
7709,35072
7710,36224
7711,38272
7712,40832
7713,43264
7714,44736
7715,44864
7716,43136
7717,40000
7718,36352
7719,32896
7720,30208
7721,28544
7722,27712
7723,27776
7724,28288
7725,29120
7726,30080
7727,30976
7728,31744
7729,32384
7730,32960
7731,33472
7732,33856
7733,33984
7734,34112
7735,34176
7736,34176
7737,34112
7738,34048
7739,33984
7740,33856
7741,33728
7742,33664
7743,33600
7744,33536
7745,33344
7746,33216
7747,33152
7748,33216
7749,33344
7750,33344
7751,33408
7752,33472
7753,33536
7754,33536
7755,33664
7756,33728
7757,33728
7758,33664
7759,33600
7760,33536
7761,33600
7762,33600
7763,33600
7764,33664
7765,33728
7766,33728
7767,33728
7768,33792
7769,33856
7770,33856
7771,33856
7772,33920
7773,33856
7774,33920
7775,33920
7776,33920
7777,33984
7778,33984
7779,33984
7780,34048
7781,33984
7782,33920
7783,33856
7784,33920
7785,33920
7786,33856
7787,33792
7788,33856
7789,33920
7790,33856
7791,33792
7792,33856
7793,33856
7794,33856
7795,33792
7796,33856
7797,33920
7798,33856
7799,33792
7800,33984
7801,34048
7802,33984
7803,33984
7804,34048
7805,34176
7806,34048
7807,33984
7808,33984
7809,34048
7810,34112
7811,34048
7812,34048
7813,33984
7814,34048
7815,34048
7816,33984
7817,34048
7818,34048
7819,34048
7820,33984
7821,33856
7822,33856
7823,33920
7824,33856
7825,33856
7826,33984
7827,34048
7828,34112
7829,34048
7830,34112
7831,34112
7832,34112
7833,34176
7834,34240
7835,34368
7836,34432
7837,34432
7838,34624
7839,34752
7840,34688
7841,34624
7842,34624
7843,34752
7844,34688
7845,34752
7846,34560
7847,34432
7848,34304
7849,34176
7850,33984
7851,33792
7852,33600
7853,33408
7854,33344
7855,33344
7856,33472
7857,33472
7858,33536
7859,33536
7860,33792
7861,33856
7862,33920
7863,33920
7864,33920
7865,33920
7866,33920
7867,33920
7868,33856
7869,33792
7870,33984
7871,34368
7872,35072
7873,36288
7874,38208
7875,40768
7876,43456
7877,45184
7878,45440
7879,43712
7880,40512
7881,36288
7882,32704
7883,29888
7884,28288
7885,27584
7886,27712
7887,28288
7888,29120
7889,30144
7890,31104
7891,31872
7892,32512
7893,33024
7894,33408
7895,33792
7896,33984
7897,34112
7898,34112
7899,34048
7900,33920
7901,33856
7902,33728
7903,33728
7904,33664
7905,33728
7906,33728
7907,33664
7908,33600
7909,33536
7910,33536
7911,33536
7912,33536
7913,33600
7914,33600
7915,33600
7916,33600
7917,33664
7918,33728
7919,33664
7920,33600
7921,33600
7922,33728
7923,33792
7924,33728
7925,33728
7926,33792
7927,33856
7928,33856
7929,33856
7930,33920
7931,33856
7932,33792
7933,33792
7934,33792
7935,33856
7936,33792
7937,33792
7938,33792
7939,33856
7940,33792
7941,33728
7942,33728
7943,33728
7944,33728
7945,33728
7946,33728
7947,33728
7948,33792
7949,33792
7950,33792
7951,33856
7952,33920
7953,33984
7954,33984
7955,33984
7956,33856
7957,33856
7958,33856
7959,33856
7960,33984
7961,33984
7962,33984
7963,33984
7964,33984
7965,33856
7966,33792
7967,33856
7968,34048
7969,34112
7970,34112
7971,34112
7972,34176
7973,34112
7974,34112
7975,34176
7976,34240
7977,34304
7978,34304
7979,34240
7980,34240
7981,34240
7982,34112
7983,34048
7984,34048
7985,34112
7986,34112
7987,34112
7988,34048
7989,33984
7990,33984
7991,33984
7992,33984
7993,33920
7994,33920
7995,33920
7996,33984
7997,34048
7998,34048
7999,34112
8000,34112
8001,34176
8002,34304
8003,34496
8004,34560
8005,34624
8006,34688
8007,34688
8008,34752
8009,34688
8010,34688
8011,34688
8012,34688
8013,34688
8014,34624
8015,34624
8016,34432
8017,34240
8018,33984
8019,33792
8020,33664
8021,33536
8022,33472
8023,33472
8024,33472
8025,33536
8026,33728
8027,33664
8028,33664
8029,33664
8030,33792
8031,33920
8032,33920
8033,33984
8034,34048
8035,33984
8036,33792
8037,33664
8038,33792
8039,34112
8040,34752
8041,35776
8042,37632
8043,40000
8044,42816
8045,44928
8046,45824
8047,44864
8048,42048
8049,38080
8050,34048
8051,30784
8052,28736
8053,27648
8054,27584
8055,28160
8056,29056
8057,29952
8058,30848
8059,31744
8060,32448
8061,32960
8062,33408
8063,33792
8064,34112
8065,34240
8066,34304
8067,34304
8068,34304
8069,34240
8070,34112
8071,34048
8072,34048
8073,33984
8074,33920
8075,33792
8076,33664
8077,33664
8078,33600
8079,33536
8080,33536
8081,33536
8082,33472
8083,33536
8084,33536
8085,33536
8086,33664
8087,33728
8088,33856
8089,33856
8090,33856
8091,33856
8092,33920
8093,33984
8094,34048
8095,34112
8096,34176
8097,34304
8098,34304
8099,34176
8100,34176
8101,34176
8102,34176
8103,34176
8104,34176
8105,34176
8106,34112
8107,34112
8108,34112
8109,34112
8110,34112
8111,34048
8112,33984
8113,33984
8114,34048
8115,34048
8116,33984
8117,33984
8118,33920
8119,33984
8120,33920
8121,33856
8122,33920
8123,33856
8124,33728
8125,33728
8126,33792
8127,33792
8128,33728
8129,33664
8130,33728
8131,33728
8132,33728
8133,33792
8134,33856
8135,33920
8136,33920
8137,33984
8138,34112
8139,34112
8140,34048
8141,34048
8142,34112
8143,34176
8144,34176
8145,34112
8146,34112
8147,34112
8148,34112
8149,34112
8150,34112
8151,34048
8152,34048
8153,34048
8154,33984
8155,33984
8156,33920
8157,33856
8158,33792
8159,33856
8160,33920
8161,33856
8162,33792
8163,33856
8164,33920
8165,33984
8166,33984
8167,33984
8168,34048
8169,34048
8170,33984
8171,33984
8172,34112
8173,34176
8174,34112
8175,34048
8176,34048
8177,33984
8178,33920
8179,33856
8180,33792
8181,33856
8182,33920
8183,34048
8184,34240
8185,34368
8186,34304
8187,34304
8188,34304
8189,34368
8190,34368
8191,34304
8192,34368
8193,34496
8194,34496
8195,34432
8196,34368
8197,34240
8198,34048
8199,33792
8200,33536
8201,33408
8202,33280
8203,33088
8204,33088
8205,33088
8206,33152
8207,33216
8208,33280
8209,33408
8210,33536
8211,33536
8212,33600
8213,33792
8214,33856
8215,33856
8216,33728
8217,33600
8218,33728
8219,33920
8220,34496
8221,35392
8222,36864
8223,39040
8224,41728
8225,44160
8226,45504
8227,45184
8228,42816
8229,39168
8230,35072
8231,31552
8232,29120
8233,27776
8234,27456
8235,27840
8236,28480
8237,29376
8238,30400
8239,31360
8240,32192
8241,32896
8242,33408
8243,33792
8244,33984
8245,34112
8246,34176
8247,34304
8248,34304
8249,34176
8250,34176
8251,34048
8252,33920
8253,33856
8254,33728
8255,33664
8256,33472
8257,33344
8258,33280
8259,33344
8260,33408
8261,33408
8262,33408
8263,33472
8264,33600
8265,33600
8266,33536
8267,33536
8268,33600
8269,33664
8270,33600
8271,33664
8272,33728
8273,33728
8274,33728
8275,33856
8276,33920
8277,33984
8278,33984
8279,33984
8280,33984
8281,33984
8282,33984
8283,33984
8284,34048
8285,34048
8286,33984
8287,33920
8288,33920
8289,34048
8290,34048
8291,34112
8292,34112
8293,34176
8294,34176
8295,34176
8296,34176
8297,34112
8298,34048
8299,33920
8300,33920
8301,34048
8302,34048
8303,33920
8304,33856
8305,33856
8306,33856
8307,33728
8308,33728
8309,33792
8310,33792
8311,33856
8312,33920
8313,34048
8314,34048
8315,33984
8316,34048
8317,34112
8318,34176
8319,34176
8320,34112
8321,34176
8322,34304
8323,34368
8324,34304
8325,34304
8326,34240
8327,34176
8328,34176
8329,34176
8330,34240
8331,34304
8332,34304
8333,34240
8334,34240
8335,34240
8336,34176
8337,34176
8338,34112
8339,34112
8340,33984
8341,33920
8342,33920
8343,33856
8344,33792
8345,33792
8346,33728
8347,33728
8348,33728
8349,33728
8350,33792
8351,33792
8352,33856
8353,33856
8354,33856
8355,33984
8356,34112
8357,34240
8358,34304
8359,34432
8360,34560
8361,34560
8362,34496
8363,34560
8364,34560
8365,34496
8366,34368
8367,34432
8368,34496
8369,34496
8370,34432
8371,34368
8372,34240
8373,34112
8374,34048
8375,33984
8376,33920
8377,33792
8378,33664
8379,33664
8380,33664
8381,33728
8382,33728
8383,33792
8384,33792
8385,33920
8386,33920
8387,33920
8388,33984
8389,33984
8390,33920
8391,33856
8392,33728
8393,33664
8394,33856
8395,34304
8396,35200
8397,36672
8398,38784
8399,41408
8400,43904
8401,45248
8402,45056
8403,42880
8404,39488
8405,35520
8406,31936
8407,29440
8408,28096
8409,27648
8410,27840
8411,28544
8412,29376
8413,30592
8414,31424
8415,32192
8416,32832
8417,33408
8418,33856
8419,34176
8420,34368
8421,34496
8422,34496
8423,34368
8424,34240
8425,34176
8426,34112
8427,34048
8428,33984
8429,33920
8430,33792
8431,33728
8432,33664
8433,33664
8434,33664
8435,33600
8436,33600
8437,33472
8438,33472
8439,33408
8440,33344
8441,33344
8442,33408
8443,33472
8444,33472
8445,33536
8446,33600
8447,33728
8448,33792
8449,33920
8450,34048
8451,34112
8452,34112
8453,34048
8454,34048
8455,34048
8456,34048
8457,33920
8458,33856
8459,33920
8460,33920
8461,33856
8462,33856
8463,33856
8464,33920
8465,33856
8466,33920
8467,33920
8468,33920
8469,33920
8470,33920
8471,33856
8472,33856
8473,33792
8474,33792
8475,33856
8476,33856
8477,33792
8478,33664
8479,33664
8480,33728
8481,33664
8482,33600
8483,33600
8484,33664
8485,33664
8486,33728
8487,33728
8488,33792
8489,33920
8490,33920
8491,33920
8492,33984
8493,34048
8494,34048
8495,33984
8496,34048
8497,34112
8498,34112
8499,34048
8500,33984
8501,33984
8502,33920
8503,33856
8504,33920
8505,33920
8506,33920
8507,33856
8508,33856
8509,33920
8510,33856
8511,33728
8512,33856
8513,33920
8514,33920
8515,33920
8516,33856
8517,33856
8518,33920
8519,33856
8520,33792
8521,33792
8522,33792
8523,33728
8524,33728
8525,33600
8526,33600
8527,33664
8528,33600
8529,33664
8530,33856
8531,33920
8532,33920
8533,33984
8534,34048
8535,34240
8536,34304
8537,34368
8538,34432
8539,34432
8540,34432
8541,34560
8542,34624
8543,34496
8544,34304
8545,34112
8546,34048
8547,33984
8548,33792
8549,33600
8550,33408
8551,33280
8552,33152
8553,33088
8554,33152
8555,33216
8556,33280
8557,33472
8558,33536
8559,33536
8560,33472
8561,33472
8562,33600
8563,33664
8564,33664
8565,33664
8566,33600
8567,33664
8568,33664
8569,33856
8570,34368
8571,35392
8572,36992
8573,39296
8574,41984
8575,44032
8576,44928
8577,44224
8578,40384
8579,37952
8580,34432
8581,31168
8582,28928
8583,27776
8584,27520
8585,27776
8586,28416
8587,29376
8588,30272
8589,31296
8590,32064
8591,32704
8592,33216
8593,33728
8594,33856
8595,33984
8596,34048
8597,33984
8598,34048
8599,33984
8600,33920
8601,33792
8602,33728
8603,33600
8604,33536
8605,33536
8606,33408
8607,33344
8608,33280
8609,33344
8610,33408
8611,33280
8612,33280
8613,33408
8614,33408
8615,33344
8616,33408
8617,33536
8618,33600
8619,33600
8620,33664
8621,33728
8622,33792
8623,33792
8624,33792
8625,33856
8626,33920
8627,33920
8628,33856
8629,33856
8630,33856
8631,33792
8632,33792
8633,33728
8634,33728
8635,33728
8636,33728
8637,33728
8638,33856
8639,33856
8640,33856
8641,33856
8642,33856
8643,33856
8644,33856
8645,33792
8646,33728
8647,33728
8648,33664
8649,33536
8650,33536
8651,33536
8652,33472
8653,33408
8654,33408
8655,33472
8656,33472
8657,33408
8658,33344
8659,33408
8660,33472
8661,33408
8662,33472
8663,33600
8664,33664
8665,33664
8666,33600
8667,33600
8668,33728
8669,33728
8670,33664
8671,33600
8672,33664
8673,33664
8674,33664
8675,33600
8676,33600
8677,33600
8678,33664
8679,33728
8680,33728
8681,33728
8682,33728
8683,33792
8684,33792
8685,33792
8686,33728
8687,33792
8688,33920
8689,33984
8690,33984
8691,33920
8692,33984
8693,34048
8694,33984
8695,33984
8696,33984
8697,34048
8698,33856
8699,33728
8700,33728
8701,33792
8702,33792
8703,33664
8704,33664
8705,33664
8706,33728
8707,33792
8708,33920
8709,34176
8710,34368
8711,34560
8712,34624
8713,34624
8714,34688
8715,34688
8716,34560
8717,34560
8718,34624
8719,34624
8720,34560
8721,34432
8722,34368
8723,34176
8724,33984
8725,33856
8726,33728
8727,33536
8728,33472
8729,33408
8730,33408
8731,33344
8732,33280
8733,33344
8734,33536
8735,33600
8736,33728
8737,33792
8738,33792
8739,33792
8740,33792
8741,33664
8742,33664
8743,33664
8744,33600
8745,33728
8746,34176
8747,34944
8748,36032
8749,37888
8750,40448
8751,43264
8752,45184
8753,45696
8754,44224
8755,41152
8756,37056
8757,33152
8758,30016
8759,28288
8760,27392
8761,27392
8762,27968
8763,28736
8764,29696
8765,30656
8766,31552
8767,32448
8768,33024
8769,33408
8770,33728
8771,33984
8772,34176
8773,34240
8774,34240
8775,34176
8776,34112
8777,33984
8778,33920
8779,33856
8780,33792
8781,33728
8782,33536
8783,33472
8784,33472
8785,33408
8786,33280
8787,33280
8788,33344
8789,33344
8790,33280
8791,33216
8792,33280
8793,33408
8794,33472
8795,33472
8796,33472
8797,33600
8798,33664
8799,33728
8800,33792
8801,33856
8802,33856
8803,33856
8804,33856
8805,33856
8806,33792
8807,33792
8808,33792
8809,33792
8810,33792
8811,33728
8812,33664
8813,33664
8814,33728
8815,33728
8816,33664
8817,33664
8818,33728
8819,33728
8820,33728
8821,33728
8822,33728
8823,33664
8824,33600
8825,33600
8826,33664
8827,33600
8828,33472
8829,33408
8830,33344
8831,33344
8832,33344
8833,33344
8834,33280
8835,33344
8836,33344
8837,33408
8838,33536
8839,33536
8840,33600
8841,33664
8842,33792
8843,33856
8844,33856
8845,33856
8846,33920
8847,33984
8848,33984
8849,33984
8850,34048
8851,34112
8852,34176
8853,34112
8854,33984
8855,33920
8856,33920
8857,33792
8858,33792
8859,33856
8860,33792
8861,33728
8862,33728
8863,33728
8864,33792
8865,33792
8866,33792
8867,33856
8868,33984
8869,33984
8870,33984
8871,33984
8872,33920
8873,33792
8874,33664
8875,33600
8876,33664
8877,33664
8878,33728
8879,33728
8880,33792
8881,33920
8882,33856
8883,33792
8884,33856
8885,33984
8886,33984
8887,33984
8888,34048
8889,34112
8890,34176
8891,34176
8892,34240
8893,34304
8894,34240
8895,34304
8896,34304
8897,34304
8898,34240
8899,34304
8900,34368
8901,34368
8902,34240
8903,34048
8904,33920
8905,33856
8906,33792
8907,33600
8908,33472
8909,33408
8910,33344
8911,33280
8912,33216
8913,33280
8914,33344
8915,33344
8916,33344
8917,33472
8918,33600
8919,33600
8920,33600
8921,33600
8922,33664
8923,33600
8924,33536
8925,33664
8926,34176
8927,34752
8928,35776
8929,37504
8930,39808
8931,42624
8932,44672
8933,45568
8934,44736
8935,42112
8936,38208
8937,34176
8938,30848
8939,28608
8940,27648
8941,27456
8942,27968
8943,28864
8944,29760
8945,30656
8946,31488
8947,32256
8948,32960
8949,33472
8950,33920
8951,34240
8952,34304
8953,34304
8954,34304
8955,34304
8956,34304
8957,34240
8958,34112
8959,34048
8960,33920
8961,33792
8962,33728
8963,33728
8964,33728
8965,33664
8966,33472
8967,33408
8968,33408
8969,33344
8970,33280
8971,33344
8972,33472
8973,33600
8974,33536
8975,33472
8976,33536
8977,33600
8978,33600
8979,33664
8980,33664
8981,33728
8982,33728
8983,33664
8984,33792
8985,33920
8986,33856
8987,33792
8988,33856
8989,33920
8990,33792
8991,33728
8992,33792
8993,33856
8994,33792
8995,33792
8996,33920
8997,34112
8998,34048
8999,33856
9000,33728
9001,33792
9002,33728
9003,33664
9004,33728
9005,33664
9006,33664
9007,33600
9008,33664
9009,33664
9010,33600
9011,33536
9012,33536
9013,33536
9014,33536
9015,33536
9016,33536
9017,33664
9018,33728
9019,33792
9020,33792
9021,33920
9022,33984
9023,33920
9024,33856
9025,33984
9026,34112
9027,34112
9028,34176
9029,34176
9030,34240
9031,34240
9032,34176
9033,34176
9034,34304
9035,34304
9036,34240
9037,34112
9038,34112
9039,34176
9040,34112
9041,33920
9042,33792
9043,33792
9044,33856
9045,33792
9046,33792
9047,33856
9048,33856
9049,33792
9050,33792
9051,33920
9052,33920
9053,33920
9054,33920
9055,33920
9056,33920
9057,33920
9058,33920
9059,33920
9060,33984
9061,33984
9062,33920
9063,33920
9064,33920
9065,33856
9066,33856
9067,33920
9068,34048
9069,34176
9070,34304
9071,34496
9072,34624
9073,34624
9074,34560
9075,34560
9076,34624
9077,34688
9078,34624
9079,34688
9080,34752
9081,34816
9082,34688
9083,34432
9084,34304
9085,34176
9086,34048
9087,33856
9088,33728
9089,33600
9090,33472
9091,33344
9092,33344
9093,33408
9094,33536
9095,33664
9096,33792
9097,33792
9098,33920
9099,33920
9100,33920
9101,34048
9102,34112
9103,33984
9104,33920
9105,33984
9106,34304
9107,34880
9108,35840
9109,37312
9110,39552
9111,42240
9112,44544
9113,45696
9114,45056
9115,42496
9116,38784
9117,34816
9118,31552
9119,29184
9120,28032
9121,27648
9122,28096
9123,28864
9124,29696
9125,30592
9126,31552
9127,32384
9128,33024
9129,33472
9130,33856
9131,34176
9132,34240
9133,34176
9134,34048
9135,33984
9136,33920
9137,33856
9138,33984
9139,33984
9140,33920
9141,33792
9142,33728
9143,33728
9144,33664
9145,33536
9146,33472
9147,33408
9148,33344
9149,33344
9150,33344
9151,33344
9152,33344
9153,33344
9154,33472
9155,33600
9156,33664
9157,33664
9158,33728
9159,33728
9160,33792
9161,33856
9162,33920
9163,34048
9164,34112
9165,34112
9166,33984
9167,33984
9168,33984
9169,34048
9170,34048
9171,33984
9172,33984
9173,34048
9174,34048
9175,34048
9176,33984
9177,33984
9178,33984
9179,33984
9180,34048
9181,33856
9182,33728
9183,33728
9184,33856
9185,33792
9186,33664
9187,33600
9188,33536
9189,33472
9190,33472
9191,33408
9192,33536
9193,33600
9194,33600
9195,33600
9196,33536
9197,33600
9198,33664
9199,33664
9200,33728
9201,33792
9202,33792
9203,33728
9204,33664
9205,33728
9206,33856
9207,33920
9208,33920
9209,33920
9210,33984
9211,34048
9212,33920
9213,33984
9214,33984
9215,33984
9216,33920
9217,33984
9218,34048
9219,34048
9220,33984
9221,33984
9222,33920
9223,33984
9224,33920
9225,33920
9226,33984
9227,33984
9228,33984
9229,33984
9230,33920
9231,33856
9232,33856
9233,33792
9234,33728
9235,33728
9236,33728
9237,33728
9238,33728
9239,33728
9240,33792
9241,33792
9242,33984
9243,34176
9244,34240
9245,34240
9246,34304
9247,34368
9248,34432
9249,34432
9250,34496
9251,34688
9252,34816
9253,34752
9254,34560
9255,34368
9256,34176
9257,33984
9258,33856
9259,33792
9260,33728
9261,33408
9262,33216
9263,33216
9264,33280
9265,33216
9266,33216
9267,33280
9268,33280
9269,33408
9270,33472
9271,33600
9272,33792
9273,33792
9274,33728
9275,33664
9276,33728
9277,33728
9278,33664
9279,33920
9280,34432
9281,35328
9282,36864
9283,39168
9284,41984
9285,44224
9286,45056
9287,44352
9288,41984
9289,38464
9290,34624
9291,31360
9292,29120
9293,28032
9294,27648
9295,27904
9296,28608
9297,29440
9298,30336
9299,31168
9300,32000
9301,32640
9302,33152
9303,33536
9304,33984
9305,34112
9306,34176
9307,34176
9308,34112
9309,34112
9310,33984
9311,33920
9312,33792
9313,33728
9314,33664
9315,33600
9316,33600
9317,33600
9318,33536
9319,33408
9320,33344
9321,33280
9322,33216
9323,33280
9324,33280
9325,33344
9326,33408
9327,33472
9328,33536
9329,33536
9330,33600
9331,33664
9332,33728
9333,33792
9334,33920
9335,33984
9336,33920
9337,33920
9338,33984
9339,33984
9340,33984
9341,33984
9342,33984
9343,33920
9344,33792
9345,33728
9346,33728
9347,33728
9348,33728
9349,33792
9350,33984
9351,34176
9352,34176
9353,34112
9354,34048
9355,34112
9356,34048
9357,33920
9358,33792
9359,33792
9360,33792
9361,33728
9362,33728
9363,33664
9364,33600
9365,33600
9366,33600
9367,33664
9368,33664
9369,33664
9370,33664
9371,33728
9372,33856
9373,33984
9374,34048
9375,34048
9376,34112
9377,34176
9378,34176
9379,34240
9380,34240
9381,34176
9382,34048
9383,34048
9384,34048
9385,34112
9386,34048
9387,34048
9388,34112
9389,34176
9390,34176
9391,34048
9392,34048
9393,34048
9394,33984
9395,33984
9396,33984
9397,34112
9398,34048
9399,33984
9400,34048
9401,34176
9402,34112
9403,34048
9404,33984
9405,33984
9406,33984
9407,33920
9408,33856
9409,33920
9410,33920
9411,33792
9412,33728
9413,33792
9414,33856
9415,33856
9416,33920
9417,34048
9418,34048
9419,34048
9420,34112
9421,34176
9422,34304
9423,34368
9424,34368
9425,34496
9426,34624
9427,34624
9428,34560
9429,34560
9430,34624
9431,34624
9432,34560
9433,34560
9434,34624
9435,34560
9436,34368
9437,34176
9438,34048
9439,33920
9440,33792
9441,33792
9442,33664
9443,33536
9444,33472
9445,33344
9446,33408
9447,33536
9448,33600
9449,33600
9450,33728
9451,33856
9452,33920
9453,33920
9454,33920
9455,33920
9456,33920
9457,33856
9458,33920
9459,34176
9460,34688
9461,35456
9462,36800
9463,38912
9464,41600
9465,44096
9466,45504
9467,45504
9468,43584
9469,40064
9470,35904
9471,32192
9472,29568
9473,28032
9474,27520
9475,27776
9476,28480
9477,29440
9478,30464
9479,31424
9480,32320
9481,32960
9482,33472
9483,33792
9484,34048
9485,34112
9486,34112
9487,34112
9488,34176
9489,34176
9490,34112
9491,33984
9492,33920
9493,34048
9494,34048
9495,33856
9496,33664
9497,33600
9498,33472
9499,33408
9500,33472
9501,33600
9502,33600
9503,33472
9504,33408
9505,33472
9506,33472
9507,33408
9508,33472
9509,33600
9510,33600
9511,33664
9512,33728
9513,33856
9514,33920
9515,33984
9516,33984
9517,33984
9518,34048
9519,34048
9520,33984
9521,33984
9522,34176
9523,34112
9524,33984
9525,33984
9526,33984
9527,33984
9528,33984
9529,34112
9530,34240
9531,34304
9532,34240
9533,34240
9534,34240
9535,34176
9536,34112
9537,33984
9538,33984
9539,33920
9540,33792
9541,33728
9542,33792
9543,33792
9544,33728
9545,33728
9546,33728
9547,33728
9548,33728
9549,33664
9550,33728
9551,33856
9552,33920
9553,33984
9554,33984
9555,33984
9556,33984
9557,34048
9558,34048
9559,34176
9560,34240
9561,34176
9562,34176
9563,34240
9564,34240
9565,34112
9566,34048
9567,34048
9568,34048
9569,33920
9570,33856
9571,33856
9572,33920
9573,33920
9574,33920
9575,33984
9576,34048
9577,34048
9578,33984
9579,33920
9580,33984
9581,34048
9582,33984
9583,33920
9584,33984
9585,33856
9586,33792
9587,33856
9588,33856
9589,33792
9590,33728
9591,33728
9592,33792
9593,33728
9594,33600
9595,33600
9596,33728
9597,33792
9598,33728
9599,33664
9600,33856
9601,33920
9602,33984
9603,34176
9604,34304
9605,34432
9606,34432
9607,34368
9608,34432
9609,34432
9610,34368
9611,34304
9612,34432
9613,34496
9614,34496
9615,34304
9616,34240
9617,34176
9618,33984
9619,33856
9620,33792
9621,33728
9622,33664
9623,33408
9624,33344
9625,33408
9626,33472
9627,33472
9628,33536
9629,33664
9630,33728
9631,33664
9632,33664
9633,33792
9634,33856
9635,33792
9636,33792
9637,33728
9638,33984
9639,34304
9640,34880
9641,35968
9642,37760
9643,40192
9644,42944
9645,45056
9646,45888
9647,44800
9648,41856
9649,37888
9650,33856
9651,30592
9652,28480
9653,27520
9654,27456
9655,27968
9656,28864
9657,29824
9658,30784
9659,31616
9660,32384
9661,33024
9662,33600
9663,34048
9664,34240
9665,34368
9666,34368
9667,34368
9668,34304
9669,34112
9670,34112
9671,34112
9672,34048
9673,33984
9674,33920
9675,33920
9676,33728
9677,33600
9678,33536
9679,33472
9680,33472
9681,33408
9682,33408
9683,33408
9684,33472
9685,33472
9686,33472
9687,33472
9688,33536
9689,33536
9690,33600
9691,33664
9692,33728
9693,33856
9694,33920
9695,34048
9696,34176
9697,34304
9698,34240
9699,34240
9700,34368
9701,34304
9702,34240
9703,34176
9704,34176
9705,34176
9706,34112
9707,34112
9708,34176
9709,34176
9710,34112
9711,34048
9712,34048
9713,34048
9714,33984
9715,33856
9716,33856
9717,33856
9718,33856
9719,33856
9720,33856
9721,33856
9722,33792
9723,33664
9724,33728
9725,33856
9726,33856
9727,33856
9728,33792
9729,33728
9730,33728
9731,33792
9732,33856
9733,33920
9734,34048
9735,34112
9736,34048
9737,34048
9738,34112
9739,34048
9740,34048
9741,34048
9742,34112
9743,34112
9744,34176
9745,34240
9746,34304
9747,34240
9748,34176
9749,34240
9750,34240
9751,34112
9752,33984
9753,33920
9754,33920
9755,33984
9756,33984
9757,33984
9758,33984
9759,33920
9760,33920
9761,33920
9762,33984
9763,34048
9764,34048
9765,34048
9766,34048
9767,33984
9768,33920
9769,33856
9770,33920
9771,34112
9772,34048
9773,33920
9774,33856
9775,33856
9776,33920
9777,33920
9778,33920
9779,33920
9780,33920
9781,33920
9782,34112
9783,34304
9784,34432
9785,34432
9786,34432
9787,34496
9788,34496
9789,34496
9790,34496
9791,34496
9792,34496
9793,34496
9794,34496
9795,34496
9796,34432
9797,34176
9798,33920
9799,33856
9800,33792
9801,33664
9802,33536
9803,33472
9804,33408
9805,33408
9806,33472
9807,33536
9808,33664
9809,33664
9810,33728
9811,33728
9812,33728
9813,33792
9814,33792
9815,33792
9816,33856
9817,33920
9818,33984
9819,34112
9820,34560
9821,35520
9822,37120
9823,39616
9824,42112
9825,44288
9826,45312
9827,44672
9828,42240
9829,38592
9830,34624
9831,31232
9832,29056
9833,27840
9834,27584
9835,27904
9836,28608
9837,29568
9838,30592
9839,31360
9840,32064
9841,32704
9842,33280
9843,33664
9844,33920
9845,34176
9846,34240
9847,34176
9848,34112
9849,33984
9850,33984
9851,33920
9852,33792
9853,33728
9854,33664
9855,33536
9856,33472
9857,33408
9858,33472
9859,33472
9860,33408
9861,33280
9862,33280
9863,33280
9864,33216
9865,33216
9866,33344
9867,33472
9868,33536
9869,33536
9870,33664
9871,33792
9872,33856
9873,33920
9874,33984
9875,33984
9876,33920
9877,33856
9878,33920
9879,33920
9880,33984
9881,33920
9882,33984
9883,33984
9884,33920
9885,33856
9886,33856
9887,33856
9888,33920
9889,33984
9890,33984
9891,34112
9892,34176
9893,34048
9894,33920
9895,33856
9896,33792
9897,33728
9898,33664
9899,33664
9900,33664
9901,33600
9902,33536
9903,33536
9904,33536
9905,33536
9906,33472
9907,33472
9908,33600
9909,33600
9910,33600
9911,33600
9912,33664
9913,33664
9914,33664
9915,33664
9916,33856
9917,33984
9918,33984
9919,33984
9920,34048
9921,34176
9922,34176
9923,33984
9924,33984
9925,34048
9926,34048
9927,33984
9928,33984
9929,34048
9930,33984
9931,33920
9932,33920
9933,33920
9934,33856
9935,33792
9936,33728
9937,33792
9938,33856
9939,33728
9940,33792
9941,33856
9942,33856
9943,33856
9944,33792
9945,33728
9946,33664
9947,33664
9948,33664
9949,33728
9950,33920
9951,34048
9952,34112
9953,34240
9954,34368
9955,34368
9956,34368
9957,34432
9958,34496
9959,34496
9960,34368
9961,34304
9962,34432
9963,34496
9964,34368
9965,34240
9966,34112
9967,34112
9968,33920
9969,33664
9970,33536
9971,33472
9972,33280
9973,33280
9974,33344
9975,33344
9976,33344
9977,33344
9978,33408
9979,33600
9980,33728
9981,33792
9982,33792
9983,33856
9984,33728
9985,33664
9986,33600
9987,33664
9988,33664
9989,33728
9990,34112
9991,34816
9992,36160
9993,38080
9994,40576
9995,43264
9996,44928
9997,45120
9998,43456
9999,40512
10000,36800
10001,33152
10002,30272
10003,28544
10004,27776
10005,27712
10006,28224
10007,29056
10008,29952
10009,30912
10010,31744
10011,32448
10012,33088
10013,33600
10014,33920
10015,34176
10016,34304
10017,34304
10018,34240
10019,34176
10020,34176
10021,34112
10022,34048
10023,33920
10024,33792
10025,33792
10026,33728
10027,33536
10028,33472
10029,33472
10030,33472
10031,33344
10032,33344
10033,33408
10034,33472
10035,33472
10036,33472
10037,33728
10038,33856
10039,33856
10040,33792
10041,33856
10042,33920
10043,33984
10044,33984
10045,33984
10046,33920
10047,33856
10048,33856
10049,33856
10050,33984
10051,33984
10052,33920
10053,33856
10054,33856
10055,33856
10056,33856
10057,33920
10058,34048
10059,34112
10060,34112
10061,34112
10062,34176
10063,34176
10064,34048
10065,34048
10066,34048
10067,33984
10068,33792
10069,33728
10070,33728
10071,33600
10072,33536
10073,33472
10074,33536
10075,33600
10076,33600
10077,33600
10078,33728
10079,33792
10080,33728
10081,33664
10082,33728
10083,33920
10084,33920
10085,33984
10086,33920
10087,33984
10088,34048
10089,33984
10090,33984
10091,34112
10092,34176
10093,34112
10094,34048
10095,34112
10096,34112
10097,34048
10098,34048
10099,34048
10100,34112
10101,34112
10102,33984
10103,33984
10104,34112
10105,34112
10106,34112
10107,33984
10108,33984
10109,33920
10110,33920
10111,33920
10112,33920
10113,33920
10114,33920
10115,33856
10116,33856
10117,33920
10118,33920
10119,33856
10120,33984
10121,34048
10122,33984
10123,33856
10124,33920
10125,34048
10126,34176
10127,34304
10128,34368
10129,34432
10130,34432
10131,34432
10132,34496
10133,34560
10134,34624
10135,34624
10136,34624
10137,34624
10138,34560
10139,34432
10140,34240
10141,34176
10142,34112
10143,33856
10144,33536
10145,33472
10146,33536
10147,33408
10148,33280
10149,33408
10150,33536
10151,33600
10152,33664
10153,33728
10154,33856
10155,33856
10156,33856
10157,33856
10158,33856
10159,33856
10160,33792
10161,33728
10162,33856
10163,34112
10164,34496
10165,35200
10166,36544
10167,38720
10168,41408
10169,43968
10170,45568
10171,45632
10172,43648
10173,40128
10174,35968
10175,32320
10176,29568
10177,27968
10178,27328
10179,27584
10180,28352
10181,29312
10182,30336
10183,31360
10184,32256
10185,32896
10186,33344
10187,33792
10188,34048
10189,34112
10190,34176
10191,34240
10192,34304
10193,34304
10194,34112
10195,33984
10196,33984
10197,33920
10198,33792
10199,33792
10200,33792
10201,33792
10202,33792
10203,33792
10204,33792
10205,33728
10206,33664
10207,33664
10208,33728
10209,33792
10210,33728
10211,33728
10212,33792
10213,33792
10214,33792
10215,33792
10216,33856
10217,33856
10218,33856
10219,33920
10220,33984
10221,34112
10222,34048
10223,33984
10224,34112
10225,34304
10226,34304
10227,34240
10228,34240
10229,34240
10230,34176
10231,34048
10232,34048
10233,34112
10234,34176
10235,34176
10236,34176
10237,34240
10238,34176
10239,34048
10240,33856
10241,33856
10242,33856
10243,33728
10244,33664
10245,33664
10246,33664
10247,33600
10248,33472
10249,33536
10250,33536
10251,33664
10252,33664
10253,33792
10254,33856
10255,33856
10256,33792
10257,33856
10258,33984
10259,34048
10260,34048
10261,34048
10262,34176
10263,34176
10264,34112
10265,34048
10266,34176
10267,34240
10268,34112
10269,34048
10270,34112
10271,34176
10272,34112
10273,33984
10274,33984
10275,34112
10276,34176
10277,34112
10278,34112
10279,34112
10280,34112
10281,34048
10282,34048
10283,34112
10284,34176
10285,34176
10286,34112
10287,34112
10288,34112
10289,33984
10290,33856
10291,33856
10292,33920
10293,33920
10294,33856
10295,33920
10296,33984
10297,33920
10298,33856
10299,33856
10300,33920
10301,33856
10302,33856
10303,33920
10304,34112
10305,34240
10306,34304
10307,34432
10308,34560
10309,34560
10310,34368
10311,34304
10312,34304
10313,34304
10314,34304
10315,34368
10316,34432
10317,34368
10318,34176
10319,34048
10320,33920
10321,33792
10322,33664
10323,33536
10324,33472
10325,33408
10326,33472
10327,33472
10328,33536
10329,33664
10330,33600
10331,33536
10332,33600
10333,33728
10334,33856
10335,33856
10336,33856
10337,33856
10338,33856
10339,33728
10340,33728
10341,34048
10342,34624
10343,35584
10344,37184
10345,39424
10346,42240
10347,44544
10348,45824
10349,45184
10350,42880
10351,39104
10352,34944
10353,31424
10354,29056
10355,27776
10356,27328
10357,27712
10358,28544
10359,29504
10360,30464
10361,31424
10362,32256
10363,33088
10364,33472
10365,33792
10366,34112
10367,34240
10368,34304
10369,34240
10370,34304
10371,34304
10372,34304
10373,34240
10374,34112
10375,34112
10376,33984
10377,33856
10378,33728
10379,33728
10380,33600
10381,33408
10382,33344
10383,33408
10384,33408
10385,33344
10386,33344
10387,33472
10388,33536
10389,33536
10390,33536
10391,33664
10392,33792
10393,33792
10394,33856
10395,33920
10396,34048
10397,34048
10398,34048
10399,34112
10400,34112
10401,34112
10402,34048
10403,34048
10404,34112
10405,34048
10406,33984
10407,33920
10408,33984
10409,34048
10410,34048
10411,34112
10412,34240
10413,34240
10414,34112
10415,34048
10416,34112
10417,33984
10418,33920
10419,33920
10420,33920
10421,33920
10422,33856
10423,33792
10424,33792
10425,33728
10426,33792
10427,33792
10428,33792
10429,33792
10430,33792
10431,33728
10432,33664
10433,33728
10434,33792
10435,33856
10436,33984
10437,34112
10438,34112
10439,34112
10440,34112
10441,34176
10442,34240
10443,34240
10444,34240
10445,34240
10446,34304
10447,34240
10448,34304
10449,34304
10450,34368
10451,34304
10452,34240
10453,34304
10454,34304
10455,34304
10456,34304
10457,34176
10458,34176
10459,34112
10460,34112
10461,34048
10462,34112
10463,34112
10464,34048
10465,34048
10466,34112
10467,34048
10468,33984
10469,33984
10470,34048
10471,34048
10472,34048
10473,33984
10474,34112
10475,34112
10476,34112
10477,34048
10478,33984
10479,33984
10480,34048
10481,33984
10482,34048
10483,34112
10484,34304
10485,34432
10486,34368
10487,34432
10488,34560
10489,34560
10490,34560
10491,34624
10492,34688
10493,34688
10494,34624
10495,34496
10496,34432
10497,34304
10498,34176
10499,34048
10500,33984
10501,33792
10502,33664
10503,33536
10504,33472
10505,33472
10506,33472
10507,33536
10508,33728
10509,33792
10510,33792
10511,33792
10512,33920
10513,33984
10514,33920
10515,33792
10516,33728
10517,33664
10518,33664
10519,33920
10520,34368
10521,35200
10522,36736
10523,38784
10524,41472
10525,43968
10526,45248
10527,45120
10528,42112
10529,39744
10530,35776
10531,32128
10532,29632
10533,28160
10534,27648
10535,27840
10536,28544
10537,29504
10538,30400
10539,31232
10540,32064
10541,32704
10542,33216
10543,33600
10544,33856
10545,34112
10546,34240
10547,34240
10548,34112
10549,34112
10550,34112
10551,34048
10552,33856
10553,33664
10554,33664
10555,33600
10556,33600
10557,33536
10558,33536
10559,33472
10560,33408
10561,33408
10562,33408
10563,33408
10564,33408
10565,33344
10566,33344
10567,33280
10568,33344
10569,33472
10570,33600
10571,33664
10572,33792
10573,33856
10574,33856
10575,33984
10576,34048
10577,33984
10578,33984
10579,34048
10580,34048
10581,33984
10582,33984
10583,33984
10584,33984
10585,33856
10586,33856
10587,33856
10588,33920
10589,33920
10590,33984
10591,34048
10592,33984
10593,33920
10594,33920
10595,33984
10596,33984
10597,33920
10598,33856
10599,33792
10600,33792
10601,33792
10602,33728
10603,33728
10604,33792
10605,33728
10606,33600
10607,33536
10608,33536
10609,33472
10610,33472
10611,33536
10612,33728
10613,33728
10614,33728
10615,33792
10616,33856
10617,33920
10618,33984
10619,33920
10620,33920
10621,34048
10622,34048
10623,33984
10624,34112
10625,34176
10626,34048
10627,33984
10628,34048
10629,34048
10630,33984
10631,33984
10632,33984
10633,33920
10634,33920
10635,33920
10636,33856
10637,33920
10638,33920
10639,33856
10640,33792
10641,33792
10642,33856
10643,33856
10644,33856
10645,33856
10646,33920
10647,33984
10648,33920
10649,33920
10650,33920
10651,33984
10652,33984
10653,33920
10654,33792
10655,33728
10656,33728
10657,33792
10658,33792
10659,33728
10660,33792
10661,33792
10662,33856
10663,33984
10664,34048
10665,34240
10666,34432
10667,34496
10668,34368
10669,34240
10670,34304
10671,34432
10672,34368
10673,34304
10674,34432
10675,34560
10676,34432
10677,34240
10678,34112
10679,33984
10680,33856
10681,33728
10682,33728
10683,33664
10684,33536
10685,33408
10686,33408
10687,33472
10688,33472
10689,33408
10690,33472
10691,33600
10692,33664
10693,33664
10694,33664
10695,33664
10696,33600
10697,33600
10698,33600
10699,33792
10700,34112
10701,34624
10702,35392
10703,36608
10704,38656
10705,41344
10706,43840
10707,45312
10708,45376
10709,43520
10710,40320
10711,36352
10712,32704
10713,29952
10714,28224
10715,27520
10716,27712
10717,28352
10718,29248
10719,30208
10720,31104
10721,32064
10722,32832
10723,33600
10724,33792
10725,34048
10726,34240
10727,34304
10728,34304
10729,34240
10730,34176
10731,34112
10732,33984
10733,33920
10734,33920
10735,33792
10736,33664
10737,33664
10738,33600
10739,33536
10740,33472
10741,33472
10742,33472
10743,33472
10744,33472
10745,33472
10746,33536
10747,33600
10748,33536
10749,33600
10750,33536
10751,33600
10752,33600
10753,33728
10754,33856
10755,33856
10756,33920
10757,33984
10758,34048
10759,34112
10760,34176
10761,34240
10762,34304
10763,34304
10764,34240
10765,34176
10766,34176
10767,34112
10768,34112
10769,34112
10770,34112
10771,34176
10772,34240
10773,34240
10774,34240
10775,34240
10776,34176
10777,34176
10778,34176
10779,34112
10780,34112
10781,34048
10782,33920
10783,33920
10784,33856
10785,33792
10786,33920
10787,33984
10788,33856
10789,33792
10790,33792
10791,33856
10792,33920
10793,33920
10794,34048
10795,34176
10796,34304
10797,34240
10798,34176
10799,34176
10800,34304
10801,34368
10802,34240
10803,34176
10804,34176
10805,34176
10806,34176
10807,34112
10808,34112
10809,34112
10810,34112
10811,34048
10812,33984
10813,34048
10814,34048
10815,33984
10816,34048
10817,34112
10818,34176
10819,34176
10820,34112
10821,34048
10822,33984
10823,33984
10824,33984
10825,33984
10826,33920
10827,33920
10828,33920
10829,33920
10830,33856
10831,33792
10832,33792
10833,33792
10834,33728
10835,33728
10836,33792
10837,33856
10838,33984
10839,34048
10840,34048
10841,34048
10842,34048
10843,34112
10844,34048
10845,34048
10846,34112
10847,34240
10848,34304
10849,34432
10850,34496
10851,34560
10852,34560
10853,34496
10854,34560
10855,34624
10856,34624
10857,34624
10858,34624
10859,34624
10860,34560
10861,34496
10862,34368
10863,34240
10864,34048
10865,33984
10866,33984
10867,33920
10868,33792
10869,33728
10870,33728
10871,33728
10872,33728
10873,33728
10874,33728
10875,33792
10876,33856
10877,33856
10878,33920
10879,33920
10880,33920
10881,33920
10882,33792
10883,33792
10884,33920
10885,34304
10886,35072
10887,36352
10888,38208
10889,40640
10890,43392
10891,45376
10892,45952
10893,44480
10894,41408
10895,37312
10896,33344
10897,30144
10898,28352
10899,27456
10900,27392
10901,27840
10902,28736
10903,29760
10904,30720
10905,31616
10906,32384
10907,33024
10908,33600
10909,33920
10910,34112
10911,34304
10912,34432
10913,34432
10914,34304
10915,34240
10916,34240
10917,34112
10918,33984
10919,33856
10920,33728
10921,33664
10922,33664
10923,33600
10924,33664
