,ECG
0,33472
1,33408
2,33536
3,33664
4,33792
5,33984
6,33984
7,33984
8,33920
9,33792
10,33792
11,33792
12,33920
13,34112
14,34304
15,34368
16,34368
17,34304
18,34240
19,34176
20,34176
21,34176
22,34112
23,34112
24,34112
25,34112
26,34112
27,34112
28,34112
29,34112
30,34048
31,33856
32,33664
33,33472
34,33408
35,33280
36,33216
37,33216
38,33216
39,33088
40,33024
41,33024
42,33088
43,33152
44,33216
45,33280
46,33344
47,33344
48,33344
49,33344
50,33472
51,33536
52,33472
53,33536
54,33600
55,33664
56,33536
57,33472
58,33472
59,33472
60,33472
61,33472
62,33536
63,33536
64,33472
65,33472
66,33408
67,33408
68,33472
69,33472
70,33472
71,33536
72,33536
73,33472
74,33536
75,33664
76,33856
77,34112
78,34304
79,34112
80,33920
81,33728
82,33664
83,33664
84,33664
85,33600
86,33472
87,33408
88,33408
89,33408
90,33472
91,33472
92,33408
93,33344
94,33280
95,33280
96,33280
97,33216
98,33216
99,33216
100,33216
101,33216
102,33152
103,33216
104,33344
105,33472
106,33472
107,33472
108,33472
109,33280
110,33024
111,32768
112,32960
113,33536
114,34624
115,36160
116,38080
117,39936
118,41344
119,41344
120,39552
121,36800
122,33792
123,31296
124,29760
125,29120
126,29376
127,29440
128,30464
129,31296
130,31936
131,32448
132,32896
133,33280
134,33600
135,33856
136,34112
137,34176
138,34240
139,34176
140,34112
141,34112
142,34176
143,34176
144,34112
145,33920
146,33728
147,33600
148,33536
149,33536
150,33536
151,33600
152,33728
153,33856
154,33920
155,33856
156,33792
157,33728
158,33856
159,33984
160,34112
161,34176
162,34176
163,34240
164,34304
165,34368
166,34368
167,34304
168,34304
169,34432
170,34560
171,34560
172,34496
173,34368
174,34368
175,34368
176,34240
177,34176
178,34240
179,34304
180,34304
181,34176
182,34176
183,34176
184,34048
185,33984
186,33920
187,33792
188,33536
189,33280
190,33216
191,33152
192,33152
193,33216
194,33344
195,33472
196,33728
197,33664
198,33536
199,33472
200,33472
201,33536
202,33664
203,33664
204,33600
205,33664
206,33664
207,33728
208,33792
209,33792
210,33856
211,33920
212,33984
213,33984
214,33920
215,33920
216,33984
217,33920
218,33856
219,33792
220,33792
221,33792
222,33792
223,33792
224,33856
225,33984
226,33984
227,33920
228,34048
229,34240
230,34368
231,34304
232,34240
233,34048
234,33920
235,33792
236,33664
237,33664
238,33664
239,33664
240,33600
241,33536
242,33472
243,33408
244,33408
245,33408
246,33408
247,33344
248,33472
249,33536
250,33600
251,33728
252,33792
253,33664
254,33600
255,33600
256,33600
257,33472
258,33344
259,33088
260,33024
261,33600
262,33536
263,35456
264,37120
265,38976
266,40768
267,41728
268,41088
269,38720
270,35520
271,32384
272,30336
273,29184
274,29056
275,29760
276,30848
277,30848
278,31744
279,32256
280,32768
281,33344
282,33280
283,33856
284,34048
285,34048
286,34112
287,34048
288,34048
289,34048
290,34112
291,34176
292,34112
293,33984
294,33856
295,33856
296,33920
297,33920
298,33920
299,33920
300,33792
301,33664
302,33664
303,33664
304,33792
305,33856
306,33856
307,33920
308,34048
309,34048
310,33984
311,33984
312,34112
313,34240
314,34240
315,34304
316,34368
317,34496
318,34432
319,34368
320,34304
321,34240
322,34240
323,34304
324,34304
325,34176
326,34112
327,34048
328,34048
329,34048
330,34048
331,33984
332,33856
333,33792
334,33664
335,33536
336,33472
337,33408
338,33280
339,33152
340,33088
341,33024
342,33024
343,32960
344,32960
345,33024
346,33216
347,33280
348,33280
349,33280
350,33344
351,33408
352,33408
353,33472
354,33600
355,33664
356,33728
357,33728
358,33728
359,33664
360,33600
361,33536
362,33536
363,33472
364,33472
365,33536
366,33600
367,33600
368,33600
369,33664
370,33728
371,33664
372,33472
373,33472
374,33536
375,33600
376,33664
377,33728
378,33792
379,33920
380,33920
381,33856
382,33728
383,33600
384,33536
385,33472
386,33344
387,33280
388,33280
389,33472
390,33536
391,33408
392,33152
393,33024
394,32896
395,32896
396,32960
397,33024
398,33088
399,33216
400,33344
401,33280
402,33280
403,33280
404,33344
405,33344
406,33216
407,32960
408,32768
409,32704
410,33024
411,33984
412,35392
413,37120
414,38912
415,40640
416,41408
417,40384
418,37888
419,34688
420,31808
421,29760
422,28736
423,28544
424,29056
425,29888
426,30720
427,31488
428,32192
429,32768
430,33152
431,33344
432,33600
433,33856
434,34048
435,34048
436,33920
437,33792
438,33600
439,33536
440,33600
441,33792
442,33728
443,33472
444,33216
445,33216
446,33344
447,33472
448,33536
449,33536
450,33472
451,33472
452,33472
453,33600
454,33664
455,33664
456,33728
457,33856
458,33920
459,34048
460,34112
461,34048
462,33984
463,33920
464,33920
465,33984
466,33920
467,33856
468,33792
469,33856
470,34048
471,34176
472,34176
473,34240
474,34240
475,34176
476,34176
477,34048
478,33984
479,33984
480,33984
481,33856
482,33600
483,33408
484,33216
485,33024
486,32960
487,32896
488,33024
489,33216
490,33280
491,33152
492,33024
493,32960
494,33024
495,33152
496,33280
497,33344
498,33216
499,33152
500,33152
501,33216
502,33280
503,33344
504,33472
505,33536
506,33600
507,33664
508,33728
509,33664
510,33536
511,33536
512,33600
513,33728
514,33664
515,33472
516,33536
517,33536
518,33472
519,33344
520,33280
521,33280
522,33280
523,33344
524,33600
525,33920
526,33920
527,33728
528,33728
529,33728
530,33856
531,33856
532,33728
533,33728
534,33728
535,33664
536,33472
537,33280
538,33152
539,33088
540,33024
541,32960
542,33024
543,33024
544,33024
545,33088
546,33152
547,33280
548,33344
549,33472
550,33536
551,33472
552,33344
553,33280
554,33344
555,33408
556,33536
557,33408
558,33152
559,32896
560,32704
561,32896
562,33664
563,35008
564,36736
565,38720
566,40320
567,41408
568,40704
569,38400
570,35456
571,32576
572,30400
573,29184
574,28928
575,29248
576,29952
577,30656
578,31424
579,32064
580,32640
581,33024
582,33344
583,33664
584,33856
585,34048
586,33984
587,33920
588,33728
589,33600
590,33536
591,33600
592,33728
593,33728
594,33600
595,33472
596,33408
597,33472
598,33472
599,33600
600,33728
601,33728
602,33728
603,33664
604,33664
605,33664
606,33728
607,33856
608,33984
609,33984
610,33920
611,33856
612,33856
613,33920
614,33920
615,33984
616,33984
617,34112
618,34176
619,34176
620,34176
621,34240
622,34304
623,34368
624,34432
625,34432
626,34432
627,34304
628,34304
629,34304
630,34176
631,33920
632,33728
633,33664
634,33600
635,33408
636,33152
637,33088
638,33088
639,33088
640,33024
641,33088
642,33216
643,33280
644,33280
645,33216
646,33216
647,33344
648,33472
649,33536
650,33600
651,33664
652,33600
653,33536
654,33664
655,33856
656,33920
657,33856
658,33792
659,33664
660,33600
661,33728
662,33856
663,33728
664,33600
665,33472
666,33536
667,33600
668,33664
669,33792
670,33792
671,33728
672,33728
673,33728
674,33792
675,33856
676,33920
677,33920
678,33984
679,34048
680,34176
681,34176
682,34176
683,34240
684,34112
685,33856
686,33600
687,33536
688,33408
689,33216
690,33152
691,33216
692,33216
693,33216
694,33216
695,33280
696,33408
697,33536
698,33536
699,33536
700,33664
701,33792
702,33792
703,33664
704,33728
705,33792
706,33792
707,33536
708,33216
709,32960
710,32960
711,33408
712,34304
713,35648
714,37376
715,39232
716,40896
717,41536
718,40448
719,37824
720,34816
721,32128
722,30272
723,29376
724,29376
725,29824
726,30528
727,31232
728,31936
729,32512
730,33024
731,33280
732,33536
733,33792
734,33984
735,34112
736,34112
737,34048
738,33984
739,33920
740,33856
741,33856
742,33920
743,33984
744,33920
745,33920
746,33856
747,33856
748,33856
749,33792
750,33792
751,33792
752,33856
753,33792
754,33856
755,33856
756,33920
757,33920
758,33920
759,34048
760,34048
761,34112
762,34176
763,34240
764,34304
765,34304
766,34368
767,34432
768,34496
769,34496
770,34432
771,34368
772,34432
773,34432
774,34432
775,34432
776,34368
777,34240
778,34176
779,34112
780,34048
781,33984
782,33920
783,33856
784,33728
785,33536
786,33408
787,33280
788,33280
789,33408
790,33472
791,33408
792,33280
793,33280
794,33280
795,33408
796,33408
797,33408
798,33408
799,33472
800,33600
801,33664
802,33728
803,33856
804,33856
805,33856
806,33792
807,33728
808,33664
809,33728
810,33728
811,33728
812,33728
813,33792
814,33856
815,33920
816,33856
817,33856
818,33792
819,33792
820,33792
821,33856
822,33984
823,34048
824,34048
825,33984
826,33984
827,33984
828,33920
829,33856
830,33856
831,33792
832,33792
833,33728
834,33728
835,33664
836,33600
837,33536
838,33472
839,33408
840,33280
841,33280
842,33280
843,33280
844,33280
845,33280
846,33344
847,33472
848,33600
849,33664
850,33728
851,33664
852,33600
853,33536
854,33536
855,33344
856,33024
857,32768
858,32832
859,33344
860,34432
861,36096
862,37632
863,39424
864,40896
865,41344
866,39872
867,37184
868,34048
869,31360
870,29568
871,28864
872,29056
873,29696
874,30464
875,31296
876,32128
877,32576
878,33024
879,33408
880,33728
881,33920
882,34176
883,34240
884,34112
885,33984
886,33856
887,33728
888,33728
889,33664
890,33600
891,33664
892,33664
893,33600
894,33600
895,33664
896,33664
897,33600
898,33472
899,33472
900,33536
901,33600
902,33664
903,33664
904,33728
905,33792
906,33856
907,33856
908,33920
909,33984
910,34048
911,34176
912,34368
913,34496
914,34432
915,34240
916,34048
917,33984
918,33984
919,34048
920,33984
921,33920
922,33856
923,33856
924,33856
925,33984
926,34176
927,34240
928,34176
929,33984
930,33792
931,33600
932,33344
933,33280
934,33280
935,33152
936,33152
937,33216
938,33152
939,32960
940,32768
941,32704
942,32832
943,32896
944,33088
945,33216
946,33344
947,33344
948,33280
949,33280
950,33344
951,33472
952,33536
953,33664
954,33728
955,33792
956,33792
957,33728
958,33600
959,33536
960,33472
961,33472
962,33408
963,33344
964,33344
965,33344
966,33216
967,33280
968,33408
969,33472
970,33600
971,33792
972,33920
973,33984
974,33920
975,33856
976,33728
977,33728
978,33792
979,33856
980,33792
981,33664
982,33472
983,33344
984,33344
985,33344
986,33408
987,33344
988,33408
989,33408
990,33344
991,33216
992,33152
993,33088
994,32960
995,32896
996,33024
997,33152
998,33216
999,33280
1000,33344
1001,33344
1002,33280
1003,33280
1004,33408
1005,33536
1006,33536
1007,33344
1008,33216
1009,33216
1010,33216
1011,33984
1012,35136
1013,36864
1014,38720
1015,40384
1016,41152
1017,40128
1018,37632
1019,34560
1020,31808
1021,29952
1022,29056
1023,28992
1024,29504
1025,30272
1026,31168
1027,31680
1028,32256
1029,32832
1030,33344
1031,33728
1032,33856
1033,33920
1034,33920
1035,33856
1036,33856
1037,33920
1038,33856
1039,33728
1040,33600
1041,33472
1042,33472
1043,33472
1044,33472
1045,33472
1046,33536
1047,33600
1048,33600
1049,33600
1050,33664
1051,33792
1052,33920
1053,34048
1054,34048
1055,33792
1056,33664
1057,33664
1058,33792
1059,33792
1060,33856
1061,33920
1062,34048
1063,34176
1064,34240
1065,34304
1066,34304
1067,34240
1068,34176
1069,34112
1070,34112
1071,34176
1072,34240
1073,34240
1074,34176
1075,34240
1076,34304
1077,34240
1078,34176
1079,34176
1080,34112
1081,33920
1082,33728
1083,33536
1084,33408
1085,33280
1086,33216
1087,33152
1088,33152
1089,33152
1090,33216
1091,33280
1092,33344
1093,33344
1094,33408
1095,33472
1096,33600
1097,33728
1098,33728
1099,33728
1100,33728
1101,33664
1102,33600
1103,33600
1104,33664
1105,33728
1106,33728
1107,33664
1108,33728
1109,33792
1110,33792
1111,33728
1112,33664
1113,33664
1114,33664
1115,33664
1116,33792
1117,33856
1118,33856
1119,33920
1120,33920
1121,33920
1122,33984
1123,34048
1124,34176
1125,34240
1126,34176
1127,33984
1128,33856
1129,33856
1130,33920
1131,33920
1132,33856
1133,33792
1134,33728
1135,33664
1136,33600
1137,33536
1138,33536
1139,33600
1140,33664
1141,33536
1142,33472
1143,33536
1144,33600
1145,33536
1146,33536
1147,33536
1148,33472
1149,33408
1150,33408
1151,33472
1152,33536
1153,33600
1154,33600
1155,33600
1156,33472
1157,33216
1158,33024
1159,33280
1160,33856
1161,34816
1162,36224
1163,37952
1164,39616
1165,41024
1166,41472
1167,40064
1168,37312
1169,34240
1170,31552
1171,29888
1172,29184
1173,29184
1174,29760
1175,30528
1176,31424
1177,32000
1178,32576
1179,33088
1180,33536
1181,33856
1182,34048
1183,34176
1184,34240
1185,34240
1186,34240
1187,34240
1188,34240
1189,34176
1190,34048
1191,33984
1192,33984
1193,33920
1194,33856
1195,33792
1196,33792
1197,33728
1198,33728
1199,33792
1200,33792
1201,33856
1202,33856
1203,33856
1204,33920
1205,33984
1206,34048
1207,34048
1208,34112
1209,34176
1210,34240
1211,34304
1212,34368
1213,34368
1214,34304
1215,34240
1216,34240
1217,34304
1218,34368
1219,34432
1220,34624
1221,34624
1222,34432
1223,34304
1224,34176
1225,34176
1226,34240
1227,34240
1228,34304
1229,34240
1230,34176
1231,33984
1232,33792
1233,33664
1234,33536
1235,33472
1236,33408
1237,33344
1238,33280
1239,33280
1240,33216
1241,33344
1242,33472
1243,33472
1244,33472
1245,33472
1246,33472
1247,33472
1248,33472
1249,33472
1250,33536
1251,33664
1252,33664
1253,33728
1254,33792
1255,33792
1256,33792
1257,33728
1258,33728
1259,33856
1260,33920
1261,33920
1262,33856
1263,33856
1264,33792
1265,33664
1266,33664
1267,33664
1268,33664
1269,33728
1270,33792
1271,33856
1272,33984
1273,34048
1274,34112
1275,34112
1276,34048
1277,33984
1278,33920
1279,33920
1280,33856
1281,33792
1282,33792
1283,33728
1284,33728
1285,33664
1286,33536
1287,33408
1288,33280
1289,33216
1290,33152
1291,33152
1292,33152
1293,33216
1294,33216
1295,33344
1296,33408
1297,33536
1298,33536
1299,33600
1300,33664
1301,33728
1302,33664
1303,33472
1304,33344
1305,33152
1306,32960
1307,32704
1308,32640
1309,33024
1310,33856
1311,35136
1312,36736
1313,38592
1314,40320
1315,41344
1316,40576
1317,38272
1318,35200
1319,32192
1320,30144
1321,29120
1322,29056
1323,29440
1324,30144
1325,30912
1326,31872
1327,32256
1328,32704
1329,33088
1330,33472
1331,33664
1332,33728
1333,33856
1334,33984
1335,33856
1336,33664
1337,33536
1338,33600
1339,33600
1340,33536
1341,33472
1342,33472
1343,33536
1344,33536
1345,33472
1346,33536
1347,33600
1348,33664
1349,33536
1350,33472
1351,33536
1352,33664
1353,33792
1354,34048
1355,34048
1356,33856
1357,33728
1358,33664
1359,33664
1360,33600
1361,33664
1362,33728
1363,33856
1364,34048
1365,34240
1366,34368
1367,34304
1368,34112
1369,33984
1370,34048
1371,34304
1372,34432
1373,34304
1374,34176
1375,34048
1376,33920
1377,33856
1378,33792
1379,33792
1380,33728
1381,33600
1382,33408
1383,33216
1384,33152
1385,33088
1386,32960
1387,32896
1388,32896
1389,32960
1390,32960
1391,32960
1392,32960
1393,33088
1394,33152
1395,33280
1396,33408
1397,33536
1398,33600
1399,33600
1400,33408
1401,33280
1402,33280
1403,33344
1404,33472
1405,33472
1406,33344
1407,33280
1408,33280
1409,33344
1410,33408
1411,33472
1412,33472
1413,33472
1414,33536
1415,33600
1416,33664
1417,33600
1418,33472
1419,33408
1420,33408
1421,33536
1422,33536
1423,33472
1424,33408
1425,33472
1426,33600
1427,33728
1428,33728
1429,33728
1430,33728
1431,33728
1432,33792
1433,33856
1434,33856
1435,33728
1436,33536
1437,33408
1438,33280
1439,33280
1440,33280
1441,33344
1442,33280
1443,33152
1444,33088
1445,33088
1446,33088
1447,33024
1448,33024
1449,33024
1450,33088
1451,33152
1452,33280
1453,33344
1454,33408
1455,33536
1456,33472
1457,33408
1458,33280
1459,33216
1460,33088
1461,32768
1462,32768
1463,33024
1464,33792
1465,35008
1466,36672
1467,38464
1468,40192
1469,41280
1470,40768
1471,38528
1472,35584
1473,32640
1474,30528
1475,29312
1476,29056
1477,29440
1478,30208
1479,30976
1480,31488
1481,32000
1482,32448
1483,32832
1484,33280
1485,33536
1486,33664
1487,33792
1488,33920
1489,33984
1490,33856
1491,33792
1492,33728
1493,33664
1494,33600
1495,33664
1496,33792
1497,33728
1498,33600
1499,33536
1500,33600
1501,33664
1502,33728
1503,33728
1504,33728
1505,33728
1506,33664
1507,33664
1508,33664
1509,33664
1510,33728
1511,33728
1512,33792
1513,33856
1514,33856
1515,33856
1516,33984
1517,34176
1518,34304
1519,34304
1520,34368
1521,34368
1522,34304
1523,34240
1524,34240
1525,34240
1526,34176
1527,34112
1528,34048
1529,34048
1530,34048
1531,34048
1532,34048
1533,33984
1534,33920
1535,33792
1536,33600
1537,33536
1538,33408
1539,33280
1540,33152
1541,33088
1542,33024
1543,33088
1544,33088
1545,33024
1546,33024
1547,33088
1548,33152
1549,33280
1550,33344
1551,33344
1552,33344
1553,33344
1554,33472
1555,33600
1556,33664
1557,33664
1558,33664
1559,33728
1560,33664
1561,33600
1562,33600
1563,33600
1564,33600
1565,33600
1566,33600
1567,33664
1568,33728
1569,33664
1570,33600
1571,33600
1572,33664
1573,33600
1574,33600
1575,33536
1576,33472
1577,33408
1578,33408
1579,33536
1580,33792
1581,33856
1582,33792
1583,33792
1584,33792
1585,33856
1586,33856
1587,33856
1588,33984
1589,34112
1590,34176
1591,34176
1592,34112
1593,33920
1594,33728
1595,33600
1596,33472
1597,33408
1598,33408
1599,33344
1600,33408
1601,33472
1602,33344
1603,33216
1604,33152
1605,33280
1606,33344
1607,33280
1608,33344
1609,33472
1610,33536
1611,33600
1612,33536
1613,33600
1614,33664
1615,33728
1616,33600
1617,33408
1618,33152
1619,33024
1620,33344
1621,34176
1622,35456
1623,36992
1624,38720
1625,41728
1626,41664
1627,38784
1628,35712
1629,32768
1630,30464
1631,30208
1632,29184
1633,29696
1634,30400
1635,31040
1636,31680
1637,32384
1638,32960
1639,33408
1640,33728
1641,33728
1642,34112
1643,34176
1644,34176
1645,34176
1646,34112
1647,34240
1648,34240
1649,34240
1650,34240
1651,34112
1652,33984
1653,33920
1654,33856
1655,33856
1656,33792
1657,33728
1658,33856
1659,33920
1660,33920
1661,33856
1662,34048
1663,34176
1664,34240
1665,34240
1666,34304
1667,34368
1668,34432
1669,34304
1670,34240
1671,34176
1672,34240
1673,34368
1674,34368
1675,34496
1676,34624
1677,34560
1678,34432
1679,34368
1680,34368
1681,34432
1682,34496
1683,34560
1684,34560
1685,34560
1686,34496
1687,34432
1688,34368
1689,34304
1690,34240
1691,34240
1692,34112
1693,33984
1694,33728
1695,33536
1696,33408
1697,33344
1698,33280
1699,33344
1700,33536
1701,33472
1702,33472
1703,33536
1704,33600
1705,33664
1706,33728
1707,33856
1708,33920
1709,33984
1710,33920
1711,33856
1712,33856
1713,33856
1714,33792
1715,33920
1716,33856
1717,33856
1718,33792
1719,33792
1720,33856
1721,33856
1722,33856
1723,33792
1724,33856
1725,33920
1726,33984
1727,34048
1728,34048
1729,33920
1730,33920
1731,33920
1732,34048
1733,34112
1734,34048
1735,33984
1736,33920
1737,33984
1738,33984
1739,34048
1740,34048
1741,33984
1742,33856
1743,33728
1744,33600
1745,33536
1746,33472
1747,33536
1748,33536
1749,33472
1750,33408
1751,33344
1752,33216
1753,33152
1754,33280
1755,33344
1756,33344
1757,33344
1758,33472
1759,33664
1760,33728
1761,33728
1762,33664
1763,33664
1764,33600
1765,33472
1766,33280
1767,33024
1768,32896
1769,33152
1770,33920
1771,35264
1772,36928
1773,38720
1774,40384
1775,41472
1776,40640
1777,38336
1778,35264
1779,32384
1780,30400
1781,29376
1782,29184
1783,29696
1784,30464
1785,31104
1786,31616
1787,32128
1788,32640
1789,33088
1790,33408
1791,33664
1792,33856
1793,33984
1794,34048
1795,34048
1796,33984
1797,33920
1798,33856
1799,33920
1800,33920
1801,33856
1802,33792
1803,33792
1804,33728
1805,33664
1806,33664
1807,33664
1808,33728
1809,33920
1810,33984
1811,33920
1812,33792
1813,33728
1814,33664
1815,33664
1816,33728
1817,33856
1818,33920
1819,34048
1820,34048
1821,34048
1822,34048
1823,34048
1824,34112
1825,34240
1826,34304
1827,34304
1828,34368
1829,34432
1830,34560
1831,34624
1832,34496
1833,34432
1834,34368
1835,34176
1836,34048
1837,33984
1838,33920
1839,33856
1840,33728
1841,33600
1842,33536
1843,33408
1844,33280
1845,33280
1846,33216
1847,33216
1848,33152
1849,33152
1850,33216
1851,33280
1852,33216
1853,33152
1854,33152
1855,33216
1856,33344
1857,33472
1858,33536
1859,33600
1860,33600
1861,33600
1862,33664
1863,33792
1864,33728
1865,33728
1866,33792
1867,33856
1868,33792
1869,33600
1870,33536
1871,33472
1872,33472
1873,33536
1874,33600
1875,33600
1876,33600
1877,33664
1878,33856
1879,34112
1880,34304
1881,34176
1882,34048
1883,33792
1884,33600
1885,33472
1886,33408
1887,33408
1888,33536
1889,33728
1890,33792
1891,33920
1892,33984
1893,33984
1894,33856
1895,33856
1896,33856
1897,33856
1898,33856
1899,33856
1900,33664
1901,33216
1902,32832
1903,32576
1904,32512
1905,32576
1906,32704
1907,32960
1908,33216
1909,33344
1910,33472
1911,33536
1912,33536
1913,33600
1914,33728
1915,33728
1916,33664
1917,33408
1918,32960
1919,32640
1920,32832
1921,33536
1922,34752
1923,36352
1924,38144
1925,40000
1926,41408
1927,41216
1928,39296
1929,36416
1930,33408
1931,30912
1932,29440
1933,29056
1934,29376
1935,30144
1936,30976
1937,31744
1938,32192
1939,32448
1940,32704
1941,33024
1942,33344
1943,33600
1944,33728
1945,33792
1946,33792
1947,33792
1948,33728
1949,33728
1950,33792
1951,33728
1952,33664
1953,33664
1954,33728
1955,33664
1956,33664
1957,33728
1958,33792
1959,33856
1960,33856
1961,33728
1962,33600
1963,33472
1964,33472
1965,33472
1966,33600
1967,33792
1968,33920
1969,33920
1970,33984
1971,34112
1972,34240
1973,34176
1974,34112
1975,34112
1976,34048
1977,34048
1978,34048
1979,34112
1980,34176
1981,34240
1982,34368
1983,34368
1984,34432
1985,34368
1986,34176
1987,34112
1988,34048
1989,33984
1990,33920
1991,33856
1992,33728
1993,33536
1994,33344
1995,33280
1996,33216
1997,33152
1998,33088
1999,33152
2000,33280
2001,33408
2002,33344
2003,33280
2004,33216
2005,33216
2006,33280
2007,33280
2008,33216
2009,33216
2010,33344
2011,33408
2012,33472
2013,33472
2014,33344
2015,33344
2016,33408
2017,33472
2018,33600
2019,33664
2020,33792
2021,33728
2022,33600
2023,33536
2024,33536
2025,33600
2026,33664
2027,33792
2028,33920
2029,33856
2030,33600
2031,33280
2032,33216
2033,33344
2034,33536
2035,33664
2036,33856
2037,33984
2038,33984
2039,33920
2040,33856
2041,33920
2042,33984
2043,34048
2044,33920
2045,33728
2046,33600
2047,33472
2048,33408
2049,33344
2050,33472
2051,33536
2052,33536
2053,33472
2054,33344
2055,33088
2056,32960
2057,32896
2058,32960
2059,33024
2060,33152
2061,33280
2062,33408
2063,33472
2064,33536
2065,33536
2066,33536
2067,33472
2068,33280
2069,32960
2070,32704
2071,32768
2072,33216
2073,34048
2074,35392
2075,37120
2076,38976
2077,40704
2078,41600
2079,40832
2080,38464
2081,35264
2082,32256
2083,30208
2084,29312
2085,29248
2086,29568
2087,30144
2088,30784
2089,31360
2090,31936
2091,32512
2092,33024
2093,33344
2094,33536
2095,33728
2096,33920
2097,33856
2098,33920
2099,33920
2100,33920
2101,33984
2102,34048
2103,34048
2104,34048
2105,33984
2106,33792
2107,33600
2108,33472
2109,33472
2110,33472
2111,33408
2112,33536
2113,33664
2114,33664
2115,33728
2116,33792
2117,33856
2118,33792
2119,33792
2120,33920
2121,33984
2122,34112
2123,34176
2124,34176
2125,34112
2126,34112
2127,34240
2128,34304
2129,34240
2130,34176
2131,34176
2132,34240
2133,34368
2134,34304
2135,34176
2136,34048
2137,34112
2138,34176
2139,34176
2140,34176
2141,34112
2142,34176
2143,34112
2144,33920
2145,33664
2146,33408
2147,33280
2148,33152
2149,33088
2150,33024
2151,32960
2152,32960
2153,33024
2154,33152
2155,33216
2156,33280
2157,33408
2158,33536
2159,33600
2160,33600
2161,33664
2162,33664
2163,33664
2164,33600
2165,33600
2166,33536
2167,33600
2168,33664
2169,33728
2170,33792
2171,33856
2172,33920
2173,33728
2174,33536
2175,33344
2176,33280
2177,33280
2178,33344
2179,33472
2180,33600
2181,33600
2182,33536
2183,33536
2184,33600
2185,33728
2186,33728
2187,33664
2188,33664
2189,33728
2190,33728
2191,33728
2192,33664
2193,33664
2194,33664
2195,33792
2196,33984
2197,34112
2198,34048
2199,33856
2200,33728
2201,33792
2202,33792
2203,33792
2204,33792
2205,33728
2206,33728
2207,33664
2208,33728
2209,33664
2210,33536
2211,33472
2212,33472
2213,33408
2214,33280
2215,33152
2216,33088
2217,33088
2218,33152
2219,33216
2220,33280
2221,33408
2222,33472
2223,33472
2224,33472
2225,33472
2226,33536
2227,33472
2228,33344
2229,33152
2230,32896
2231,32832
2232,33152
2233,34112
2234,35520
2235,37248
2236,39104
2237,40832
2238,41728
2239,40768
2240,37952
2241,34880
2242,32000
2243,30016
2244,29056
2245,29120
2246,29632
2247,30336
2248,30976
2249,31680
2250,32256
2251,32768
2252,33152
2253,33536
2254,33920
2255,34112
2256,33984
2257,33920
2258,33920
2259,34048
2260,34176
2261,34112
2262,33856
2263,33664
2264,33600
2265,33536
2266,33408
2267,33344
2268,33408
2269,33536
2270,33920
2271,34304
2272,34240
2273,33856
2274,33728
2275,33792
2276,33792
2277,33728
2278,33664
2279,33536
2280,33408
2281,33344
2282,33408
2283,33600
2284,33792
2285,33984
2286,34240
2287,34368
2288,34304
2289,34176
2290,34176
2291,34240
2292,34432
2293,34560
2294,34496
2295,34368
2296,34304
2297,34240
2298,34176
2299,34176
2300,34112
2301,34048
2302,33984
2303,33920
2304,33920
2305,33856
2306,33728
2307,33472
2308,33280
2309,33216
2310,33344
2311,33280
2312,33216
2313,33152
2314,33152
2315,33280
2316,33344
2317,33280
2318,33216
2319,33280
2320,33408
2321,33536
2322,33536
2323,33536
2324,33536
2325,33664
2326,33728
2327,33728
2328,33728
2329,33728
2330,33664
2331,33472
2332,33408
2333,33472
2334,33600
2335,33664
2336,33728
2337,33728
2338,33728
2339,33600
2340,33600
2341,33664
2342,33728
2343,33664
2344,33600
2345,33536
2346,33536
2347,33472
2348,33472
2349,33536
2350,33664
2351,33728
2352,33792
2353,33856
2354,33920
2355,33984
2356,33920
2357,33920
2358,33984
2359,34048
2360,34048
2361,34048
2362,33920
2363,33856
2364,33664
2365,33536
2366,33536
2367,33408
2368,33152
2369,32896
2370,32896
2371,32896
2372,32896
2373,32960
2374,33088
2375,33280
2376,33408
2377,33536
2378,33664
2379,33792
2380,33664
2381,33472
2382,33472
2383,33536
2384,33472
2385,33216
2386,32832
2387,32704
2388,32896
2389,33600
2390,34752
2391,36288
2392,38208
2393,39936
2394,41344
2395,41216
2396,39168
2397,36224
2398,33216
2399,30848
2400,29632
2401,29248
2402,29504
2403,30016
2404,30656
2405,31296
2406,31936
2407,32448
2408,32896
2409,33408
2410,33664
2411,33792
2412,33792
2413,33728
2414,33664
2415,33664
2416,33664
2417,33792
2418,33920
2419,33856
2420,33792
2421,33792
2422,33728
2423,33728
2424,33600
2425,33600
2426,33664
2427,33664
2428,33600
2429,33536
2430,33600
2431,33664
2432,33728
2433,33856
2434,33920
2435,33920
2436,33856
2437,33856
2438,33920
2439,33920
2440,33920
2441,33984
2442,33984
2443,34048
2444,34048
2445,34112
2446,34240
2447,34240
2448,34240
2449,34240
2450,34240
2451,34240
2452,34176
2453,34240
2454,34368
2455,34368
2456,34240
2457,34112
2458,34048
2459,34048
2460,33856
2461,33600
2462,33408
2463,33344
2464,33216
2465,33152
2466,33088
2467,33088
2468,33088
2469,33088
2470,33152
2471,33216
2472,33280
2473,33280
2474,33280
2475,33344
2476,33408
2477,33344
2478,33344
2479,33344
2480,33472
2481,33536
2482,33536
2483,33600
2484,33600
2485,33536
2486,33536
2487,33664
2488,33728
2489,33664
2490,33536
2491,33472
2492,33408
2493,33408
2494,33408
2495,33408
2496,33600
2497,33728
2498,33792
2499,33664
2500,33600
2501,33536
2502,33536
2503,33600
2504,33664
2505,33792
2506,33984
2507,34048
2508,34112
2509,33984
2510,33792
2511,33728
2512,33792
2513,33920
2514,33920
2515,33920
2516,33856
2517,33920
2518,33856
2519,33792
2520,33664
2521,33600
2522,33408
2523,33280
2524,33216
2525,33216
2526,33216
2527,33280
2528,33344
2529,33408
2530,33536
2531,33600
2532,33856
2533,33984
2534,34048
2535,33920
2536,33728
2537,33600
2538,33408
2539,33088
2540,32768
2541,32576
2542,32768
2543,33472
2544,34688
2545,36352
2546,38208
2547,40128
2548,41472
2549,41536
2550,39808
2551,36928
2552,33920
2553,31488
2554,30016
2555,29504
2556,29696
2557,30336
2558,30976
2559,31616
2560,32192
2561,32640
2562,33088
2563,33472
2564,33856
2565,34048
2566,34176
2567,34176
2568,34176
2569,34112
2570,34048
2571,34048
2572,33984
2573,33984
2574,33984
2575,34048
2576,34048
2577,33984
2578,33920
2579,33984
2580,33984
2581,33984
2582,34176
2583,34368
2584,34432
2585,34304
2586,34048
2587,33920
2588,33920
2589,33920
2590,33984
2591,33984
2592,34048
2593,34176
2594,34176
2595,34240
2596,34240
2597,34304
2598,34304
2599,34304
2600,34432
2601,34496
2602,34560
2603,34624
2604,34624
2605,34688
2606,34624
2607,34496
2608,34432
2609,34368
2610,34240
2611,34112
2612,33984
2613,33984
2614,33920
2615,33856
2616,33856
2617,33792
2618,33600
2619,33408
2620,33280
2621,33216
2622,33088
2623,33024
2624,33088
2625,33216
2626,33280
2627,33344
2628,33408
2629,33472
2630,33536
2631,33600
2632,33728
2633,33856
2634,33920
2635,33920
2636,33856
2637,33792
2638,33792
2639,33728
2640,33728
2641,33792
2642,33792
2643,33728
2644,33728
2645,33728
2646,33856
2647,33984
2648,34048
2649,33984
2650,33984
2651,33920
2652,33856
2653,33792
2654,33984
2655,34048
2656,33920
2657,33728
2658,33664
2659,33664
2660,33728
2661,33856
2662,33984
2663,34112
2664,34112
2665,34048
2666,33920
2667,33856
2668,33728
2669,33664
2670,33600
2671,33536
2672,33472
2673,33344
2674,33344
2675,33344
2676,33344
2677,33344
2678,33216
2679,33280
2680,33344
2681,33344
2682,33280
2683,33280
2684,33344
2685,33408
2686,33472
2687,33536
2688,33536
2689,33408
2690,33216
2691,32960
2692,32768
2693,32896
2694,33664
2695,35008
2696,36736
2697,38464
2698,40128
2699,41280
2700,40896
2701,38720
2702,35712
2703,32768
2704,30592
2705,29440
2706,29184
2707,29504
2708,30144
2709,30848
2710,31552
2711,32128
2712,32704
2713,33216
2714,33472
2715,33600
2716,33664
2717,33792
2718,33856
2719,33792
2720,33792
2721,33856
2722,33856
2723,33792
2724,33856
2725,33856
2726,33792
2727,33728
2728,33728
2729,33728
2730,33664
2731,33600
2732,33536
2733,33600
2734,33600
2735,33600
2736,33664
2737,33728
2738,33792
2739,33920
2740,33984
2741,34112
2742,34112
2743,34048
2744,34048
2745,33984
2746,33984
2747,33984
2748,34048
2749,34112
2750,34176
2751,34240
2752,34240
2753,34240
2754,34240
2755,34304
2756,34304
2757,34304
2758,34368
2759,34304
2760,34240
2761,34176
2762,34176
2763,34112
2764,33984
2765,33728
2766,33600
2767,33472
2768,33280
2769,33152
2770,33152
2771,33152
2772,33088
2773,33152
2774,33280
2775,33408
2776,33408
2777,33280
2778,33152
2779,33152
2780,33216
2781,33280
2782,33280
2783,33408
2784,33472
2785,33536
2786,33600
2787,33728
2788,33920
2789,33984
2790,33856
2791,33728
2792,33600
2793,33600
2794,33536
2795,33536
2796,33600
2797,33600
2798,33536
2799,33536
2800,33600
2801,33600
2802,33600
2803,33600
2804,33728
2805,33856
2806,33856
2807,33920
2808,33984
2809,33984
2810,33920
2811,33856
2812,33856
2813,33984
2814,34048
2815,34048
2816,33920
2817,33728
2818,33536
2819,33344
2820,33280
2821,33344
2822,33344
2823,33280
2824,33216
2825,33280
2826,33344
2827,33344
2828,33280
2829,33280
2830,33344
2831,33408
2832,33408
2833,33344
2834,33344
2835,33280
2836,33344
2837,33344
2838,33344
2839,33152
2840,32960
2841,32960
2842,33216
2843,33920
2844,35200
2845,36928
2846,38784
2847,40512
2848,41408
2849,40512
2850,38080
2851,35008
2852,32192
2853,30272
2854,29312
2855,29184
2856,29568
2857,30272
2858,31040
2859,31808
2860,32256
2861,32576
2862,32896
2863,33216
2864,33600
2865,33856
2866,34048
2867,34048
2868,33920
2869,33856
2870,33728
2871,33792
2872,33856
2873,33856
2874,33792
2875,33792
2876,33728
2877,33728
2878,33664
2879,33600
2880,33600
2881,33600
2882,33728
2883,33792
2884,33792
2885,33728
2886,33600
2887,33664
2888,33792
2889,33792
2890,33856
2891,33920
2892,34048
2893,34112
2894,34048
2895,34048
2896,34112
2897,34112
2898,34240
2899,34368
2900,34432
2901,34432
2902,34432
2903,34368
2904,34240
2905,34240
2906,34176
2907,34176
2908,34240
2909,34304
2910,34240
2911,34112
2912,34048
2913,33984
2914,33792
2915,33600
2916,33408
2917,33280
2918,33152
2919,33024
2920,33024
2921,33024
2922,33024
2923,33088
2924,33152
2925,33280
2926,33472
2927,33536
2928,33536
2929,33536
2930,33600
2931,33664
2932,33728
2933,33728
2934,33600
2935,33536
2936,33472
2937,33472
2938,33408
2939,33472
2940,33536
2941,33600
2942,33728
2943,33728
2944,33600
2945,33600
2946,33664
2947,33728
2948,33792
2949,33792
2950,33728
2951,33664
2952,33664
2953,33664
2954,33600
2955,33600
2956,33600
2957,33600
2958,33664
2959,33856
2960,33984
2961,34048
2962,33984
2963,33920
2964,33856
2965,33856
2966,33856
2967,33856
2968,33920
2969,33984
2970,33984
2971,33856
2972,33728
2973,33536
2974,33472
2975,33408
2976,33344
2977,33280
2978,33152
2979,33088
2980,33088
2981,33088
2982,33152
2983,33216
2984,33280
2985,33408
2986,33408
2987,33536
2988,33536
2989,33600
2990,33536
2991,33536
2992,33472
2993,33280
2994,32960
2995,32896
2996,33152
2997,33920
2998,35200
2999,36928
3000,38848
3001,40640
3002,41536
3003,40640
3004,38208
3005,35072
3006,32192
3007,30144
3008,29120
3009,28992
3010,29504
3011,30208
3012,31040
3013,31680
3014,32256
3015,32768
3016,33216
3017,33536
3018,33664
3019,33792
3020,33856
3021,33920
3022,33984
3023,33984
3024,33920
3025,33920
3026,33856
3027,33856
3028,33792
3029,33792
3030,33856
3031,33920
3032,33856
3033,33792
3034,33664
3035,33600
3036,33600
3037,33600
3038,33600
3039,33664
3040,33728
3041,33728
3042,33792
3043,33792
3044,33856
3045,33920
3046,33984
3047,34048
3048,34048
3049,34048
3050,34176
3051,34240
3052,34368
3053,34368
3054,34304
3055,34176
3056,34048
3057,33984
3058,34048
3059,34048
3060,34112
3061,34112
3062,34176
3063,34240
3064,34240
3065,34176
3066,34048
3067,33856
3068,33664
3069,33472
3070,33408
3071,33408
3072,33344
3073,33216
3074,33216
3075,33152
3076,33024
3077,32896
3078,32896
3079,33024
3080,33152
3081,33216
3082,33216
3083,33280
3084,33408
3085,33472
3086,33472
3087,33536
3088,33536
3089,33536
3090,33600
3091,33664
3092,33664
3093,33600
3094,33600
3095,33664
3096,33664
3097,33536
3098,33472
3099,33472
3100,33472
3101,33408
3102,33408
3103,33408
3104,33472
3105,33536
3106,33536
3107,33536
3108,33472
3109,33536
3110,33472
3111,33472
3112,33536
3113,33600
3114,33664
3115,33728
3116,33792
3117,33792
3118,33792
3119,33792
3120,33856
3121,33920
3122,33920
3123,33856
3124,33792
3125,33728
3126,33600
3127,33408
3128,33216
3129,33088
3130,33024
3131,32960
3132,32896
3133,32960
3134,33024
3135,33152
3136,33152
3137,33152
3138,33216
3139,33344
3140,33344
3141,33408
3142,33536
3143,33536
3144,33536
3145,33664
3146,33728
3147,33408
3148,32896
3149,32512
3150,32512
3151,32960
3152,33920
3153,35392
3154,37248
3155,39232
3156,40896
3157,41472
3158,40128
3159,37440
3160,34368
3161,31616
3162,29824
3163,29056
3164,29056
3165,29632
3166,30400
3167,31104
3168,31808
3169,32320
3170,32768
3171,33152
3172,33472
3173,33728
3174,33856
3175,33920
3176,33920
3177,33856
3178,33728
3179,33728
3180,33728
3181,33728
3182,33664
3183,33600
3184,33664
3185,33664
3186,33664
3187,33664
3188,33664
3189,33664
3190,33600
3191,33728
3192,33792
3193,33792
3194,33728
3195,33792
3196,33856
3197,33856
3198,33856
3199,33856
3200,33856
3201,33856
3202,33984
3203,34176
3204,34304
3205,34304
3206,34240
3207,34240
3208,34240
3209,34304
3210,34304
3211,34240
3212,34240
3213,34240
3214,34240
3215,34176
3216,34176
3217,34240
3218,34240
3219,34112
3220,34048
3221,33984
3222,33920
3223,33792
3224,33728
3225,33728
3226,33664
3227,33472
3228,33280
3229,33216
3230,33280
3231,33216
3232,33152
3233,33088
3234,33152
3235,33216
3236,33216
3237,33344
3238,33472
3239,33600
3240,33664
3241,33600
3242,33600
3243,33664
3244,33728
3245,33792
3246,33856
3247,33792
3248,33792
3249,33728
3250,33792
3251,33856
3252,33920
3253,33920
3254,33920
3255,33856
3256,33728
3257,33600
3258,33600
3259,33600
3260,33600
3261,33536
3262,33600
3263,33664
3264,33728
3265,33792
3266,33856
3267,33856
3268,33856
3269,33856
3270,33984
3271,34048
3272,34048
3273,33984
3274,34048
3275,34176
3276,34176
3277,34112
3278,33984
3279,33984
3280,33856
3281,33728
3282,33664
3283,33664
3284,33728
3285,33664
3286,33408
3287,33280
3288,33280
3289,33344
3290,33344
3291,33408
3292,33536
3293,33600
3294,33600
3295,33600
3296,33664
3297,33664
3298,33600
3299,33664
3300,33792
3301,33856
3302,33600
3303,33280
3304,33024
3305,33152
3306,33664
3307,34752
3308,36288
3309,38016
3310,39808
3311,41280
3312,41600
3313,40000
3314,37056
3315,33920
3316,31232
3317,29568
3318,28992
3319,29120
3320,29824
3321,30656
3322,31488
3323,32128
3324,32704
3325,33152
3326,33472
3327,33792
3328,33984
3329,34176
3330,34304
3331,34176
3332,34112
3333,34048
3334,33984
3335,33920
3336,33920
3337,33920
3338,33856
3339,33728
3340,33664
3341,33664
3342,33600
3343,33664
3344,33664
3345,33792
3346,33856
3347,33920
3348,33920
3349,33984
3350,34048
3351,34048
3352,34048
3353,33920
3354,33792
3355,33728
3356,33792
3357,33856
3358,33984
3359,34048
3360,34112
3361,34176
3362,34240
3363,34304
3364,34304
3365,34368
3366,34368
3367,34432
3368,34368
3369,34304
3370,34240
3371,34304
3372,34304
3373,34176
3374,34048
3375,33920
3376,33856
3377,33728
3378,33600
3379,33536
3380,33408
3381,33280
3382,33216
3383,33152
3384,33152
3385,33152
3386,33024
3387,33024
3388,33088
3389,33152
3390,33152
3391,33216
3392,33280
3393,33408
3394,33408
3395,33472
3396,33600
3397,33728
3398,33728
3399,33728
3400,33664
3401,33664
3402,33600
3403,33600
3404,33600
3405,33600
3406,33536
3407,33472
3408,33536
3409,33664
3410,33728
3411,33920
3412,33920
3413,33728
3414,33472
3415,33344
3416,33344
3417,33408
3418,33472
3419,33408
3420,33408
3421,33472
3422,33472
3423,33472
3424,33536
3425,33600
3426,33664
3427,33728
3428,33792
3429,33792
3430,33792
3431,33792
3432,33792
3433,33792
3434,33856
3435,33920
3436,33984
3437,34112
3438,34112
3439,33984
3440,33792
3441,33728
3442,33536
3443,33280
3444,33088
3445,33024
3446,33024
3447,33024
3448,33088
3449,33216
3450,33280
3451,33344
3452,33344
3453,33408
3454,33408
3455,33408
3456,33344
3457,33472
3458,33536
3459,33600
3460,33536
3461,33344
3462,33088
3463,32960
3464,33152
3465,33856
3466,35200
3467,37056
3468,37184
3469,40384
3470,41408
3471,40704
3472,38400
3473,35328
3474,32320
3475,30208
3476,29120
3477,28992
3478,29504
3479,30272
3480,31040
3481,31744
3482,32320
3483,32832
3484,33280
3485,33600
3486,33856
3487,33984
3488,33984
3489,33984
3490,34048
3491,34048
3492,33920
3493,33792
3494,33728
3495,33728
3496,33728
3497,33664
3498,33600
3499,33600
3500,33600
3501,33600
3502,33600
3503,33664
3504,33664
3505,33664
3506,33664
3507,33728
3508,33792
3509,33856
3510,33856
3511,33920
3512,33920
3513,33984
3514,33984
3515,34048
3516,34112
3517,34112
3518,34048
3519,34048
3520,34048
3521,34112
3522,34176
3523,34304
3524,34432
3525,34368
3526,34240
3527,34112
3528,34112
3529,34112
3530,34176
3531,34112
3532,34112
3533,34048
3534,33984
3535,33856
3536,33728
3537,33664
3538,33536
3539,33408
3540,33280
3541,33152
3542,33024
3543,32960
3544,32960
3545,33152
3546,33216
3547,33152
3548,33088
3549,33152
3550,33216
3551,33280
3552,33344
3553,33408
3554,33472
3555,33536
3556,33536
3557,33536
3558,33600
3559,33664
3560,33792
3561,33920
3562,33920
3563,33792
3564,33664
3565,33600
3566,33536
3567,33472
3568,33536
3569,33472
3570,33472
3571,33600
3572,33600
3573,33600
3574,33536
3575,33408
3576,33344
3577,33280
3578,33344
3579,33472
3580,33472
3581,33536
3582,33536
3583,33536
3584,33600
3585,33600
3586,33664
3587,33728
3588,33728
3589,33664
3590,33600
3591,33536
3592,33536
3593,33536
3594,33600
3595,33664
3596,33728
3597,33664
3598,33728
3599,33856
3600,33856
3601,33792
3602,33792
3603,33856
3604,33856
3605,33792
3606,33728
3607,33664
3608,33728
3609,33664
3610,33536
3611,33536
3612,33536
3613,33408
3614,33216
3615,33088
3616,33088
3617,33152
3618,33280
3619,33408
3620,33472
3621,33536
3622,33472
3623,33472
3624,33472
3625,33536
3626,33536
3627,33536
3628,33408
3629,33216
3630,32896
3631,32768
3632,33152
3633,34112
3634,35520
3635,37248
3636,39104
3637,40896
3638,41664
3639,40640
3640,38144
3641,35136
3642,32192
3643,30144
3644,29120
3645,29056
3646,29632
3647,30272
3648,30976
3649,31680
3650,32384
3651,32832
3652,33216
3653,33472
3654,33664
3655,33792
3656,33856
3657,33920
3658,33920
3659,33920
3660,33856
3661,33856
3662,33856
3663,33856
3664,33856
3665,33920
3666,33920
3667,33856
3668,33728
3669,33728
3670,33792
3671,33792
3672,33664
3673,33600
3674,33536
3675,33536
3676,33600
3677,33664
3678,33728
3679,33856
3680,33920
3681,33984
3682,34048
3683,34112
3684,34112
3685,34112
3686,34240
3687,34304
3688,34240
3689,34304
3690,34432
3691,34496
3692,34368
3693,34240
3694,34112
3695,34112
3696,34112
3697,34112
3698,34176
3699,34240
3700,34240
3701,34112
3702,33984
3703,33920
3704,33792
3705,33664
3706,33536
3707,33408
3708,33280
3709,33216
3710,33088
3711,33024
3712,33088
3713,33152
3714,33152
3715,33216
3716,33280
3717,33344
3718,33344
3719,33408
3720,33408
3721,33408
3722,33472
3723,33536
3724,33536
3725,33472
3726,33472
3727,33472
3728,33536
3729,33536
3730,33600
3731,33664
3732,33728
3733,33728
3734,33728
3735,33664
3736,33600
3737,33600
3738,33600
3739,33472
3740,33536
3741,33600
3742,33536
3743,33472
3744,33408
3745,33408
3746,33472
3747,33536
3748,33600
3749,33600
3750,33600
3751,33536
3752,33472
3753,33536
3754,33536
3755,33472
3756,33344
3757,33344
3758,33408
3759,33536
3760,33600
3761,33664
3762,33600
3763,33536
3764,33408
3765,33408
3766,33536
3767,33600
3768,33664
3769,33728
3770,33856
3771,33984
3772,34048
3773,34048
3774,33920
3775,33856
3776,33728
3777,33536
3778,33408
3779,33344
3780,33216
3781,33088
3782,33024
3783,33024
3784,33088
3785,33152
3786,33216
3787,33280
3788,33344
3789,33344
3790,33344
3791,33408
3792,33536
3793,33600
3794,33664
3795,33600
3796,33536
3797,33280
3798,32896
3799,32640
3800,32768
3801,33152
3802,34176
3803,35648
3804,37440
3805,39360
3806,41088
3807,41728
3808,40448
3809,37696
3810,34560
3811,31808
3812,29952
3813,29056
3814,28928
3815,29376
3816,30080
3817,30784
3818,31424
3819,32128
3820,32768
3821,33280
3822,33536
3823,33792
3824,33984
3825,34176
3826,34112
3827,33856
3828,33728
3829,33728
3830,33664
3831,33728
3832,33792
3833,33792
3834,33792
3835,33728
3836,33664
3837,33600
3838,33472
3839,33408
3840,33472
3841,33536
3842,33664
3843,33664
3844,33728
3845,33792
3846,33856
3847,33856
3848,33856
3849,33792
3850,33792
3851,33856
3852,33856
3853,33984
3854,34112
3855,34112
3856,34112
3857,34112
3858,34112
3859,34112
3860,34112
3861,34176
3862,34240
3863,34240
3864,34240
3865,34240
3866,34304
3867,34304
3868,34240
3869,34112
3870,33984
3871,33856
3872,33728
3873,33664
3874,33536
3875,33536
3876,33536
3877,33472
3878,33280
3879,33152
3880,33088
3881,32960
3882,32960
3883,33088
3884,33152
3885,33152
3886,33216
3887,33280
3888,33344
3889,33408
3890,33472
3891,33472
3892,33536
3893,33472
3894,33472
3895,33600
3896,33664
3897,33664
3898,33600
3899,33600
3900,33600
3901,33472
3902,33408
3903,33472
3904,33600
3905,33664
3906,33728
3907,33856
3908,33920
3909,33792
3910,33536
3911,33472
3912,33472
3913,33472
3914,33472
3915,33536
3916,33472
3917,33408
3918,33408
3919,33472
3920,33536
3921,33536
3922,33600
3923,33600
3924,33664
3925,33664
3926,33664
3927,33536
3928,33472
3929,33408
3930,33408
3931,33472
3932,33536
3933,33600
3934,33536
3935,33664
3936,33728
3937,33728
3938,33664
3939,33536
3940,33408
3941,33344
3942,33408
3943,33472
3944,33536
3945,33664
3946,33792
3947,33792
3948,33856
3949,34048
3950,34240
3951,34368
3952,34304
3953,34048
3954,33856
3955,33664
3956,33536
3957,33472
3958,33536
3959,33472
3960,33344
3961,33216
3962,33024
3963,32960
3964,32896
3965,32960
3966,33088
3967,33216
3968,33280
3969,33408
3970,33536
3971,33600
3972,33664
3973,33664
3974,33664
3975,33536
3976,33216
3977,32896
3978,32896
3979,33408
3980,34496
3981,36032
3982,37952
3983,39936
3984,41536
3985,41792
3986,40128
3987,37440
3988,34496
3989,32000
3990,30272
3991,29184
3992,28992
3993,29440
3994,30208
3995,31104
3996,31680
3997,32256
3998,32576
3999,32896
4000,33216
4001,33472
4002,33536
4003,33600
4004,33728
4005,33792
4006,33856
4007,33920
4008,33920
4009,33856
4010,33792
4011,33792
4012,33792
4013,33856
4014,33856
4015,33920
4016,33856
4017,33792
4018,33792
4019,33856
4020,33984
4021,33984
4022,33856
4023,33792
4024,33728
4025,33728
4026,33728
4027,33728
4028,33856
4029,33920
4030,33984
4031,33984
4032,33984
4033,34048
4034,34112
4035,34304
4036,34496
4037,34496
4038,34432
4039,34304
4040,34176
4041,34176
4042,34176
4043,34240
4044,34240
4045,34368
4046,34432
4047,34304
4048,34240
4049,34048
4050,33984
4051,33920
4052,33792
4053,33600
4054,33472
4055,33344
4056,33216
4057,33152
4058,33088
4059,32960
4060,32960
4061,32960
4062,33088
4063,33152
4064,33216
4065,33344
4066,33536
4067,33664
4068,33728
4069,33728
4070,33664
4071,33600
4072,33664
4073,33664
4074,33536
4075,33344
4076,33280
4077,33216
4078,33280
4079,33280
4080,33344
4081,33344
4082,33472
4083,33600
4084,33728
4085,33792
4086,33856
4087,33856
4088,33728
4089,33728
4090,33856
4091,33984
4092,33920
4093,33728
4094,33472
4095,33472
4096,33472
4097,33472
4098,33344
4099,33280
4100,33216
4101,33152
4102,33216
4103,33408
4104,33600
4105,33728
4106,33728
4107,33728
4108,33792
4109,33856
4110,33856
4111,33792
4112,33728
4113,33728
4114,33728
4115,33728
4116,33920
4117,33984
4118,34048
4119,34048
4120,34112
4121,34048
4122,33856
4123,33728
4124,33664
4125,33728
4126,33728
4127,33600
4128,33344
4129,33152
4130,33024
4131,33152
4132,33344
4133,33472
4134,33536
4135,33536
4136,33536
4137,33600
4138,33600
4139,33664
4140,33920
4141,34112
4142,34112
4143,33856
4144,33344
4145,32896
4146,32832
4147,33216
4148,34304
4149,35904
4150,37824
4151,39872
4152,41536
4153,42048
4154,40640
4155,37888
4156,34624
4157,31808
4158,29952
4159,29120
4160,29184
4161,29888
4162,30656
4163,31488
4164,32128
4165,32704
4166,33088
4167,33408
4168,33600
4169,33920
4170,34112
4171,34240
4172,34176
4173,34176
4174,34176
4175,34048
4176,33984
4177,33984
4178,34048
4179,34048
4180,33984
4181,33856
4182,33856
4183,33920
4184,33984
4185,33984
4186,34048
4187,33984
4188,33984
4189,34048
4190,34176
4191,34176
4192,34176
4193,34112
4194,34112
4195,34048
4196,33984
4197,34048
4198,34112
4199,34176
4200,34240
4201,34240
4202,34304
4203,34432
4204,34560
4205,34560
4206,34496
4207,34496
4208,34560
4209,34560
4210,34560
4211,34688
4212,34752
4213,34688
4214,34496
4215,34304
4216,34304
4217,34368
4218,34240
4219,33984
4220,33792
4221,33728
4222,33664
4223,33600
4224,33472
4225,33408
4226,33472
4227,33664
4228,33600
4229,33408
4230,33280
4231,33216
4232,33344
4233,33536
4234,33792
4235,33856
4236,33792
4237,33792
4238,33728
4239,33664
4240,33792
4241,34176
4242,34432
4243,34304
4244,34112
4245,34176
4246,34048
4247,33856
4248,33728
4249,33856
4250,34048
4251,34048
4252,33984
4253,33984
4254,33984
4255,34048
4256,33984
4257,33984
4258,33920
4259,33856
4260,33856
4261,33920
4262,33984
4263,33984
4264,34048
4265,34112
4266,34112
4267,34112
4268,34112
4269,34048
4270,34240
4271,34432
4272,34304
4273,34112
4274,34176
4275,34368
4276,34304
4277,34048
4278,33920
4279,33856
4280,33856
4281,33856
4282,33792
4283,33792
4284,33856
4285,33856
4286,33728
4287,33600
4288,33472
4289,33472
4290,33472
4291,33600
4292,33600
4293,33472
4294,33408
4295,33536
4296,33728
4297,33856
4298,34112
4299,34304
4300,34304
4301,33920
4302,33216
4303,32704
4304,32640
4305,33088
4306,34304
4307,35904
4308,37760
4309,39680
4310,41280
4311,41536
4312,39744
4313,36800
4314,33664
4315,31168
4316,29696
4317,29184
4318,29440
4319,30080
4320,30784
4321,31488
4322,32128
4323,32704
4324,33280
4325,33664
4326,33856
4327,33856
4328,33856
4329,33856
4330,33856
4331,33856
4332,33920
4333,33920
4334,33856
4335,33792
4336,33728
4337,33728
4338,33792
4339,33856
4340,33856
4341,33792
4342,33728
4343,33792
4344,33920
4345,33856
4346,33728
4347,33664
4348,33664
4349,33664
4350,33728
4351,33856
4352,34048
4353,34048
4354,34048
4355,33920
4356,33984
4357,34048
4358,34176
4359,34240
4360,34176
4361,34112
4362,34112
4363,34176
4364,34240
4365,34240
4366,34240
4367,34240
4368,34240
4369,34304
4370,34368
4371,34368
4372,34304
4373,34176
4374,34112
4375,34048
4376,33920
4377,33856
4378,33664
4379,33344
4380,33152
4381,33088
4382,33088
4383,33088
4384,33024
4385,33024
4386,33024
4387,33024
4388,32960
4389,32896
4390,32960
4391,33088
4392,33280
4393,33344
4394,33408
4395,33472
4396,33600
4397,33664
4398,33792
4399,33984
4400,33984
4401,33728
4402,33536
4403,33408
4404,33344
4405,33280
4406,33280
4407,33344
4408,33472
4409,33536
4410,33600
4411,33664
4412,33664
4413,33600
4414,33536
4415,33536
4416,33408
4417,33472
4418,33536
4419,33664
4420,33728
4421,33664
4422,33472
4423,33408
4424,33472
4425,33472
4426,33344
4427,33408
4428,33600
4429,33664
4430,33600
4431,33472
4432,33536
4433,33536
4434,33472
4435,33536
4436,33792
4437,34048
4438,34240
4439,34176
4440,34048
4441,33728
4442,33472
4443,33280
4444,33280
4445,33344
4446,33216
4447,33088
4448,32960
4449,32960
4450,33088
4451,33152
4452,33088
4453,33088
4454,33280
4455,33408
4456,33472
4457,33408
4458,33408
4459,33472
4460,33600
4461,33792
4462,33600
4463,33088
4464,32576
4465,32512
4466,32896
4467,33856
4468,35328
4469,36992
4470,38912
4471,40768
4472,41600
4473,40704
4474,38208
4475,35264
4476,32256
4477,30144
4478,29056
4479,28800
4480,29120
4481,29696
4482,30400
4483,31168
4484,31936
4485,32512
4486,33024
4487,33408
4488,33728
4489,33856
4490,33920
4491,33920
4492,33984
4493,34048
4494,33984
4495,33856
4496,33792
4497,33664
4498,33536
4499,33344
4500,33216
4501,33216
4502,33280
4503,33408
4504,33664
4505,33728
4506,33664
4507,33600
4508,33600
4509,33600
4510,33600
4511,33728
4512,33856
4513,33920
4514,33920
4515,33920
4516,33920
4517,33920
4518,33792
4519,33856
4520,33984
4521,33984
4522,33984
4523,33984
4524,34048
4525,34112
4526,34240
4527,34240
4528,34112
4529,34112
4530,34176
4531,34176
4532,34176
4533,34176
4534,34112
4535,34048
4536,33984
4537,33856
4538,33728
4539,33664
4540,33472
4541,33216
4542,33024
4543,32896
4544,32896
4545,33024
4546,32896
4547,32704
4548,32704
4549,32768
4550,32960
4551,33088
4552,33024
4553,33088
4554,33216
4555,33088
4556,32768
4557,32512
4558,32448
4559,32448
4560,32576
4561,32896
4562,33472
4563,34048
4564,34752
4565,35520
4566,36160
4567,36736
4568,37184
4569,37568
4570,37760
4571,37504
4572,37056
4573,36416
4574,35712
4575,34752
4576,33856
4577,33472
4578,33664
4579,34112
4580,34624
4581,34944
4582,34880
4583,34496
4584,34112
4585,34048
4586,34112
4587,34240
4588,34368
4589,34496
4590,34432
4591,34368
4592,34240
4593,34048
4594,33920
4595,34048
4596,34176
4597,34112
4598,33792
4599,33536
4600,33280
4601,33216
4602,33088
4603,33088
4604,33216
4605,33344
4606,33344
4607,33472
4608,33472
4609,33408
4610,33280
4611,33152
4612,33024
4613,32832
4614,32704
4615,32640
4616,32768
4617,32896
4618,33088
4619,33152
4620,33216
4621,33216
4622,33216
4623,33216
4624,33152
4625,33088
4626,32960
4627,32896
4628,32896
4629,32832
4630,32576
4631,32384
4632,32576
4633,33280
4634,34560
4635,36288
4636,38208
4637,40128
4638,41472
4639,41088
4640,38848
4641,35776
4642,32704
4643,30272
4644,28992
4645,28608
4646,28864
4647,29440
4648,30144
4649,30848
4650,31552
4651,32064
4652,32576
4653,32960
4654,33280
4655,33472
4656,33536
4657,33664
4658,33792
4659,33856
4660,33792
4661,33664
4662,33472
4663,33344
4664,33216
4665,33152
4666,33344
4667,33536
4668,33536
4669,33408
4670,33216
4671,33152
4672,33088
4673,33152
4674,33344
4675,33536
4676,33664
4677,33600
4678,33472
4679,33280
4680,33280
4681,33280
4682,33344
4683,33408
4684,33664
4685,33728
4686,33600
4687,33536
4688,33600
4689,33728
4690,33792
4691,33856
4692,33920
4693,33920
4694,33728
4695,33536
4696,33344
4697,33216
4698,33152
4699,33088
4700,33088
4701,32960
4702,32832
4703,32768
4704,32704
4705,32640
4706,32512
4707,32384
4708,32320
4709,32320
4710,32256
4711,32128
4712,32128
4713,32256
4714,32384
4715,32640
4716,32832
4717,33024
4718,33152
4719,33280
4720,33344
4721,33408
4722,33408
4723,33344
4724,33344
4725,33408
4726,33600
4727,33728
4728,33728
4729,33600
4730,33536
4731,33472
4732,33472
4733,33472
4734,33472
4735,33600
4736,33728
4737,33728
4738,33600
4739,33536
4740,33536
4741,33664
4742,33664
4743,33664
4744,33600
4745,33600
4746,33536
4747,33536
4748,33600
4749,33728
4750,33792
4751,33792
4752,33600
4753,33536
4754,33536
4755,33600
4756,33664
4757,33664
4758,33792
4759,33920
4760,33984
4761,33984
4762,33920
4763,33856
4764,33984
4765,34112
4766,34240
4767,34368
4768,34176
4769,33856
4770,33600
4771,33536
4772,33472
4773,33536
4774,33600
4775,33664
4776,33600
4777,33600
4778,33600
4779,33600
4780,33472
4781,33472
4782,33536
4783,33600
4784,33664
4785,33728
4786,33600
4787,33600
4788,33664
4789,33664
4790,33664
4791,33664
4792,33472
4793,33152
4794,33024
4795,33344
4796,34240
4797,35584
4798,37248
4799,39040
4800,40832
4801,41856
4802,41024
4803,38528
4804,35392
4805,32512
4806,30528
4807,29376
4808,29120
4809,29504
4810,30144
4811,30912
4812,31680
4813,32384
4814,33024
4815,33536
4816,33792
4817,33984
4818,34112
4819,34112
4820,34112
4821,34112
4822,34112
4823,34048
4824,34048
4825,33984
4826,34048
4827,34048
4828,33920
4829,33856
4830,33856
4831,33792
4832,33792
4833,33792
4834,33920
4835,33984
4836,33856
4837,33856
4838,33856
4839,33792
4840,33856
4841,34048
4842,34048
4843,33984
4844,33920
4845,33920
4846,34048
4847,34112
4848,34112
4849,34240
4850,34368
4851,34368
4852,34368
4853,34432
4854,34496
4855,34496
4856,34496
4857,34560
4858,34560
4859,34496
4860,34368
4861,34304
4862,34240
4863,34048
4864,33856
4865,33728
4866,33600
4867,33408
4868,33280
4869,33152
4870,33088
4871,33088
4872,33088
4873,33152
4874,33152
4875,33216
4876,33344
4877,33280
4878,33280
4879,33280
4880,33408
4881,33600
4882,33728
4883,33664
4884,33536
4885,33472
4886,33408
4887,33472
4888,33600
4889,33664
4890,33536
4891,33472
4892,33536
4893,33600
4894,33664
4895,33664
4896,33664
4897,33664
4898,33664
4899,33792
4900,33920
4901,33792
4902,33664
4903,33600
4904,33600
4905,33600
4906,33664
4907,33664
4908,33664
4909,33792
4910,33728
4911,33600
4912,33664
4913,33664
4914,33664
4915,33600
4916,33600
4917,33600
4918,33664
4919,33664
4920,33600
4921,33600
4922,33536
4923,33536
4924,33664
4925,33856
4926,34048
4927,33920
4928,33920
4929,33984
4930,34048
4931,34048
4932,33984
4933,33920
4934,33792
4935,33664
4936,33600
4937,33600
4938,33472
4939,33472
4940,33472
4941,33472
4942,33408
4943,33344
4944,33280
4945,33152
4946,33216
4947,33280
4948,33408
4949,33536
4950,33536
4951,33472
4952,33472
4953,33472
4954,33600
4955,33664
4956,33472
4957,33216
4958,33024
4959,33088
4960,33536
4961,34560
4962,36160
4963,38016
4964,39872
4965,41408
4966,41600
4967,39680
4968,36928
4969,33664
4970,30976
4971,29376
4972,28864
4973,28992
4974,29632
4975,30464
4976,31232
4977,31872
4978,32384
4979,32896
4980,33408
4981,33664
4982,33920
4983,33984
4984,34048
4985,34112
4986,34048
4987,34048
4988,34048
4989,33920
4990,33856
4991,33792
4992,33792
4993,33664
4994,33600
4995,33600
4996,33600
4997,33600
4998,33600
4999,33664
5000,33792
5001,33856
5002,33792
5003,33664
5004,33600
5005,33600
5006,33600
5007,33664
5008,33792
5009,33856
5010,33984
5011,34048
5012,34176
5013,34240
5014,34304
5015,34432
5016,34624
5017,34688
5018,34560
5019,34432
5020,34432
5021,34432
5022,34368
5023,34240
5024,34112
5025,34112
5026,34048
5027,33984
5028,33984
5029,33984
5030,34048
5031,33984
5032,33856
5033,33728
5034,33536
5035,33344
5036,33216
5037,33280
5038,33280
5039,33344
5040,33280
5041,33216
5042,33088
5043,32960
5044,32960
5045,33024
5046,33216
5047,33280
5048,33408
5049,33536
5050,33664
5051,33728
5052,33728
5053,33664
5054,33728
5055,33792
5056,33792
5057,33792
5058,33856
5059,33856
5060,33728
5061,33792
5062,33792
5063,33664
5064,33536
5065,33536
5066,33536
5067,33536
5068,33472
5069,33472
5070,33536
5071,33600
5072,33536
5073,33536
5074,33664
5075,33728
5076,33728
5077,33664
5078,33600
5079,33536
5080,33472
5081,33472
5082,33472
5083,33536
5084,33536
5085,33536
5086,33600
5087,33728
5088,33792
5089,33856
5090,33792
5091,33792
5092,33920
5093,34112
5094,34176
5095,34048
5096,33920
5097,33856
5098,33792
5099,33664
5100,33664
5101,33600
5102,33536
5103,33536
5104,33600
5105,33600
5106,33600
5107,33408
5108,33152
5109,33024
5110,33024
5111,32960
5112,33088
5113,33216
5114,33280
5115,33408
5116,33536
5117,33600
5118,33664
5119,33664
5120,33792
5121,33728
5122,33536
5123,33216
5124,32896
5125,32704
5126,32832
5127,33344
5128,34496
5129,36096
5130,37952
5131,39744
5132,41216
5133,41408
5134,39680
5135,36864
5136,33856
5137,31360
5138,29696
5139,28928
5140,28992
5141,29568
5142,30336
5143,31104
5144,31744
5145,32512
5146,33088
5147,33472
5148,33664
5149,33664
5150,33664
5151,33664
5152,33664
5153,33664
5154,33728
5155,33792
5156,33792
5157,33792
5158,33792
5159,33792
5160,33792
5161,33728
5162,33728
5163,33792
5164,33920
5165,33856
5166,33728
5167,33600
5168,33472
5169,33408
5170,33408
5171,33536
5172,33664
5173,33728
5174,33728
5175,33792
5176,33856
5177,33856
5178,33920
5179,33920
5180,33984
5181,33984
5182,33984
5183,34048
5184,34112
5185,34112
5186,34112
5187,34176
5188,34304
5189,34304
5190,34176
5191,34112
5192,34112
5193,34048
5194,33984
5195,33984
5196,33984
5197,33856
5198,33664
5199,33600
5200,33600
5201,33600
5202,33472
5203,33216
5204,33024
5205,32896
5206,32960
5207,33152
5208,33344
5209,33280
5210,33088
5211,32960
5212,33088
5213,33152
5214,33088
5215,33088
5216,33216
5217,33344
5218,33408
5219,33472
5220,33600
5221,33664
5222,33664
5223,33664
5224,33728
5225,33856
5226,33920
5227,33792
5228,33728
5229,33728
5230,33728
5231,33600
5232,33536
5233,33536
5234,33600
5235,33664
5236,33600
5237,33536
5238,33536
5239,33536
5240,33536
5241,33600
5242,33664
5243,33600
5244,33600
5245,33664
5246,33728
5247,33792
5248,33728
5249,33664
5250,33664
5251,33664
5252,33536
5253,33600
5254,33856
5255,34048
5256,34048
5257,33920
5258,33920
5259,33920
5260,33856
5261,33984
5262,34176
5263,34240
5264,34112
5265,34048
5266,34048
5267,33984
5268,33792
5269,33600
5270,33536
5271,33472
5272,33344
5273,33216
5274,33216
5275,33280
5276,33344
5277,33472
5278,33728
5279,33920
5280,33984
5281,33920
5282,33856
5283,33792
5284,33920
5285,33792
5286,33728
5287,33536
5288,33216
5289,33024
5290,33152
5291,33792
5292,35008
5293,36672
5294,38592
5295,40448
5296,41792
5297,41664
5298,39680
5299,36672
5300,33536
5301,30912
5302,29376
5303,28864
5304,29120
5305,29888
5306,30784
5307,31616
5308,32320
5309,32896
5310,33408
5311,33792
5312,34048
5313,34112
5314,34240
5315,34304
5316,34304
5317,34368
5318,34240
5319,34176
5320,34112
5321,34048
5322,33920
5323,33856
5324,33856
5325,33792
5326,33792
5327,33792
5328,33792
5329,33792
5330,33792
5331,33856
5332,33920
5333,33984
5334,33984
5335,33984
5336,34048
5337,34048
5338,34048
5339,34176
5340,34368
5341,34496
5342,34432
5343,34368
5344,34368
5345,34304
5346,34176
5347,34048
5348,34048
5349,34048
5350,34112
5351,34176
5352,34240
5353,34368
5354,34496
5355,34560
5356,34624
5357,34688
5358,34688
5359,34688
5360,34496
5361,34176
5362,33792
5363,33536
5364,33536
5365,33536
5366,33408
5367,33344
5368,33280
5369,33152
5370,33216
5371,33344
5372,33536
5373,33536
5374,33472
5375,33344
5376,33280
5377,33280
5378,33344
5379,33408
5380,33536
5381,33728
5382,33856
5383,33792
5384,33792
5385,33920
5386,34048
5387,33984
5388,33856
5389,33792
5390,33728
5391,33728
5392,33792
5393,33792
5394,33728
5395,33664
5396,33600
5397,33664
5398,33728
5399,33792
5400,33856
5401,33920
5402,33856
5403,33920
5404,33856
5405,33856
5406,33856
5407,33856
5408,33920
5409,33920
5410,33856
5411,33792
5412,33728
5413,33728
5414,33792
5415,33920
5416,34176
5417,34112
5418,34176
5419,34240
5420,34240
5421,34176
5422,34176
5423,34048
5424,33984
5425,33792
5426,33536
5427,33344
5428,33344
5429,33344
5430,33280
5431,33216
5432,33216
5433,33280
5434,33344
5435,33408
5436,33536
5437,33664
5438,33728
5439,33664
5440,33664
5441,33664
5442,33600
5443,33600
5444,33664
5445,33600
5446,33408
5447,33216
5448,33152
5449,33536
5450,34432
5451,35584
5452,37184
5453,38912
5454,40640
5455,41664
5456,40576
5457,40320
5458,35072
5459,32064
5460,30016
5461,29056
5462,29056
5463,29568
5464,30336
5465,31168
5466,31872
5467,32512
5468,33024
5469,33472
5470,33792
5471,33856
5472,33792
5473,33920
5474,33984
5475,34048
5476,34048
5477,33984
5478,33920
5479,33920
5480,33856
5481,33792
5482,33856
5483,33792
5484,33728
5485,33792
5486,34048
5487,34112
5488,33920
5489,33728
5490,33600
5491,33600
5492,33536
5493,33664
5494,33728
5495,33856
5496,33984
5497,34112
5498,34176
5499,34304
5500,34496
5501,34496
5502,34304
5503,34112
5504,34112
5505,34240
5506,34240
5507,34240
5508,34240
5509,34240
5510,34240
5511,34304
5512,34368
5513,34432
5514,34432
5515,34432
5516,34496
5517,34496
5518,34368
5519,34240
5520,34112
5521,34048
5522,33792
5523,33536
5524,33344
5525,33152
5526,33024
5527,32960
5528,32960
5529,32960
5530,32960
5531,33088
5532,33216
5533,33344
5534,33472
5535,33536
5536,33664
5537,33856
5538,33920
5539,33856
5540,33856
5541,33728
5542,33664
5543,33536
5544,33600
5545,33600
5546,33664
5547,33664
5548,33664
5549,33664
5550,33728
5551,33664
5552,33600
5553,33664
5554,33728
5555,33728
5556,33728
5557,33728
5558,33728
5559,33792
5560,33856
5561,33856
5562,33792
5563,33792
5564,33728
5565,33728
5566,33664
5567,33536
5568,33472
5569,33600
5570,33728
5571,33792
5572,33920
5573,33984
5574,33984
5575,33984
5576,33984
5577,34048
5578,34176
5579,34240
5580,34112
5581,33920
5582,33792
5583,33664
5584,33536
5585,33408
5586,33344
5587,33280
5588,33216
5589,33152
5590,33152
5591,33280
5592,33216
5593,33408
5594,33472
5595,33536
5596,33600
5597,33600
5598,33664
5599,33664
5600,33600
5601,33536
5602,33472
5603,33344
5604,33152
5605,32896
5606,32832
5607,33280
5608,34240
5609,35648
5610,37440
5611,39360
5612,40960
5613,41792
5614,40768
5615,37952
5616,34880
5617,32000
5618,30080
5619,29248
5620,29184
5621,29568
5622,30272
5623,31040
5624,31744
5625,32320
5626,32768
5627,33152
5628,33600
5629,33984
5630,34304
5631,34432
5632,34304
5633,34112
5634,33920
5635,33856
5636,33856
5637,33792
5638,33792
5639,33728
5640,33600
5641,33664
5642,33792
5643,34048
5644,34176
5645,34048
5646,33664
5647,33408
5648,33344
5649,33344
5650,33408
5651,33472
5652,33536
5653,33600
5654,33664
5655,33664
5656,33792
5657,33920
5658,34112
5659,34176
5660,34304
5661,34368
5662,34432
5663,34496
5664,34432
5665,34304
5666,34304
5667,34304
5668,34304
5669,34304
5670,34304
5671,34240
5672,34240
5673,34176
5674,34240
5675,34176
5676,33984
5677,33792
5678,33664
5679,33472
5680,33280
5681,33152
5682,33088
5683,33024
5684,32960
5685,32768
5686,32704
5687,32704
5688,32832
5689,33024
5690,33024
5691,32960
5692,32960
5693,33024
5694,33024
5695,33216
5696,33280
5697,33280
5698,33280
5699,33344
5700,33408
5701,33536
5702,33664
5703,33600
5704,33536
5705,33472
5706,33408
5707,33344
5708,33408
5709,33472
5710,33536
5711,33536
5712,33536
5713,33472
5714,33472
5715,33536
5716,33600
5717,33600
5718,33472
5719,33536
5720,33536
5721,33472
5722,33408
5723,33344
5724,33280
5725,33280
5726,33280
5727,33408
5728,33536
5729,33536
5730,33536
5731,33536
5732,33664
5733,33728
5734,33728
5735,33728
5736,33728
5737,33728
5738,33664
5739,33472
5740,33344
5741,33408
5742,33472
5743,33472
5744,33344
5745,33216
5746,33152
5747,33152
5748,33088
5749,33024
5750,33024
5751,33152
5752,33216
5753,33280
5754,33280
5755,33216
5756,33088
5757,33152
5758,33216
5759,33280
5760,33280
5761,33344
5762,33408
5763,33344
5764,33088
5765,32832
5766,32768
5767,33088
5768,33856
5769,35008
5770,36736
5771,38976
5772,39040
5773,41344
5774,40832
5775,38592
5776,35392
5777,32448
5778,30208
5779,28992
5780,28736
5781,29056
5782,29760
5783,30592
5784,31360
5785,32000
5786,32576
5787,33024
5788,33344
5789,33536
5790,33664
5791,33856
5792,33920
5793,33920
5794,33920
5795,33920
5796,33856
5797,33792
5798,33792
5799,33728
5800,33664
5801,33472
5802,33408
5803,33536
5804,33728
5805,33728
5806,33600
5807,33536
5808,33536
5809,33536
5810,33600
5811,33600
5812,33728
5813,33728
5814,33792
5815,33920
5816,33984
5817,33984
5818,33920
5819,33920
5820,33984
5821,34112
5822,34176
5823,34240
5824,34368
5825,34432
5826,34368
5827,34240
5828,34240
5829,34240
5830,34240
5831,34176
5832,34048
5833,33920
5834,33856
5835,33856
5836,33920
5837,33920
5838,33792
5839,33600
5840,33536
5841,33472
5842,33536
5843,33408
5844,33280
5845,33152
5846,33088
5847,33024
5848,33024
5849,33088
5850,33216
5851,33280
5852,33344
5853,33344
5854,33344
5855,33344
5856,33344
5857,33344
5858,33408
5859,33472
5860,33536
5861,33536
5862,33600
5863,33664
5864,33728
5865,33728
5866,33728
5867,33728
5868,33664
5869,33536
5870,33536
5871,33600
5872,33536
5873,33472
5874,33472
5875,33536
5876,33600
5877,33664
5878,33728
5879,33728
5880,33664
5881,33536
5882,33536
5883,33600
5884,33600
5885,33536
5886,33536
5887,33536
5888,33600
5889,33536
5890,33536
5891,33472
5892,33472
5893,33536
5894,33472
5895,33472
5896,33472
5897,33408
5898,33408
5899,33536
5900,33600
5901,33600
5902,33600
5903,33664
5904,33728
5905,33792
5906,33792
5907,33792
5908,33856
5909,33856
5910,33856
5911,33792
5912,33728
5913,33600
5914,33600
5915,33664
5916,33664
5917,33600
5918,33536
5919,33408
5920,33344
5921,33216
5922,33152
5923,33152
5924,33280
5925,33472
5926,33536
5927,33472
5928,33472
5929,33536
5930,33600
5931,33536
5932,33536
5933,33472
5934,33344
5935,33152
5936,32960
5937,32960
5938,33152
5939,33856
5940,35200
5941,36992
5942,38912
5943,40640
5944,41792
5945,41280
5946,38848
5947,35840
5948,32704
5949,30464
5950,29312
5951,29120
5952,29504
5953,30016
5954,30656
5955,31168
5956,31744
5957,32320
5958,32832
5959,33344
5960,33664
5961,33920
5962,34048
5963,34176
5964,34176
5965,34112
5966,33984
5967,33856
5968,33792
5969,33728
5970,33664
5971,33728
5972,33728
5973,33728
5974,33728
5975,33728
5976,33664
5977,33792
5978,33856
5979,33792
5980,33664
5981,33600
5982,33600
5983,33664
5984,33856
5985,33984
5986,34048
5987,34048
5988,34112
5989,34048
5990,34048
5991,34112
5992,34176
5993,34240
5994,34304
5995,34368
5996,34432
5997,34368
5998,34368
5999,34368
6000,34432
6001,34432
6002,34432
6003,34432
6004,34368
6005,34304
6006,34240
6007,34176
6008,34112
6009,33920
6010,33856
6011,33728
6012,33664
6013,33536
6014,33408
6015,33280
6016,33216
6017,33216
6018,33152
6019,33088
6020,33152
6021,33216
6022,33280
6023,33280
6024,33344
6025,33472
6026,33600
6027,33600
6028,33600
6029,33664
6030,33728
6031,33664
6032,33664
6033,33664
6034,33728
6035,33728
6036,33664
6037,33600
6038,33728
6039,33792
6040,33728
6041,33536
6042,33408
6043,33344
6044,33472
6045,33600
6046,33664
6047,33600
6048,33600
6049,33600
6050,33600
6051,33536
6052,33472
6053,33408
6054,33472
6055,33536
6056,33600
6057,33664
6058,33728
6059,33792
6060,33728
6061,33664
6062,33664
6063,33728
6064,33728
6065,33664
6066,33664
6067,33536
6068,33408
6069,33408
6070,33536
6071,33600
6072,33664
6073,33728
6074,33856
6075,33920
6076,33856
6077,33856
6078,33984
6079,34048
6080,33984
6081,33856
6082,33792
6083,33728
6084,33728
6085,33664
6086,33600
6087,33600
6088,33536
6089,33408
6090,33344
6091,33344
6092,33280
6093,33216
6094,33216
6095,33280
6096,33408
6097,33472
6098,33472
6099,33472
6100,33536
6101,33536
6102,33536
6103,33536
6104,33472
6105,33216
6106,32896
6107,32832
6108,33216
6109,34048
6110,35520
6111,37184
6112,39040
6113,40896
6114,41856
6115,41024
6116,38528
6117,35456
6118,32512
6119,30336
6120,29248
6121,29056
6122,29504
6123,30144
6124,30976
6125,31872
6126,32576
6127,33024
6128,33344
6129,33600
6130,33728
6131,33792
6132,33856
6133,33984
6134,33984
6135,34048
6136,34048
6137,34048
6138,34048
6139,33984
6140,33984
6141,33920
6142,33920
6143,33856
6144,33792
6145,33792
6146,33792
6147,33792
6148,33856
6149,33856
6150,33920
6151,33984
6152,34112
6153,34176
6154,34176
6155,34048
6156,33984
6157,33984
6158,34048
6159,34112
6160,34176
6161,34304
6162,34368
6163,34496
6164,34432
6165,34432
6166,34496
6167,34560
6168,34560
6169,34496
6170,34496
6171,34496
6172,34496
6173,34624
6174,34624
6175,34560
6176,34368
6177,34240
6178,34048
6179,33984
6180,33856
6181,33728
6182,33664
6183,33600
6184,33536
6185,33408
6186,33280
6187,33280
6188,33280
6189,33280
6190,33344
6191,33408
6192,33472
6193,33408
6194,33536
6195,33664
6196,33792
6197,33792
6198,33792
6199,33856
6200,33920
6201,33792
6202,33728
6203,33728
6204,33728
6205,33792
6206,33792
6207,33664
6208,33600
6209,33536
6210,33600
6211,33600
6212,33664
6213,33728
6214,33664
6215,33664
6216,33728
6217,33792
6218,33856
6219,33728
6220,33664
6221,33664
6222,33664
6223,33664
6224,33728
6225,33792
6226,33920
6227,33920
6228,33856
6229,33792
6230,33856
6231,33856
6232,33920
6233,33920
6234,34048
6235,34112
6236,34240
6237,34304
6238,34240
6239,34112
6240,33856
6241,33728
6242,33664
6243,33664
6244,33536
6245,33536
6246,33472
6247,33344
6248,33280
6249,33216
6250,33280
6251,33344
6252,33472
6253,33600
6254,33728
6255,33792
6256,33728
6257,33664
6258,33728
6259,33728
6260,33728
6261,33792
6262,33600
6263,33280
6264,32896
6265,32896
6266,33344
6267,34304
6268,35712
6269,37440
6270,39296
6271,40960
6272,41792
6273,40704
6274,38144
6275,35008
6276,32064
6277,30144
6278,29120
6279,29120
6280,29696
6281,30400
6282,31104
6283,31872
6284,32576
6285,33152
6286,33728
6287,34176
6288,34240
6289,34240
6290,34176
6291,34048
6292,33984
6293,33920
6294,33984
6295,34048
6296,34112
6297,34048
6298,33856
6299,33856
6300,33856
6301,33728
6302,33728
6303,33728
6304,33792
6305,33856
6306,33920
6307,34048
6308,34112
6309,34112
6310,34048
6311,33984
6312,33984
6313,34048
6314,34048
6315,34112
6316,34176
6317,34240
6318,34240
6319,34176
6320,34176
6321,34304
6322,34368
6323,34432
6324,34496
6325,34560
6326,34496
6327,34432
6328,34368
6329,34496
6330,34496
6331,34432
6332,34432
6333,34368
6334,34240
6335,34176
6336,34176
6337,34112
6338,33984
6339,33792
6340,33536
6341,33216
6342,33024
6343,32960
6344,33024
6345,33152
6346,33216
6347,33280
6348,33280
6349,33216
6350,33152
6351,33152
6352,33216
6353,33280
6354,33344
6355,33408
6356,33408
6357,33536
6358,33600
6359,33600
6360,33600
6361,33600
6362,33728
6363,33792
6364,33728
6365,33664
6366,33664
6367,33728
6368,33792
6369,33792
6370,33792
6371,33856
6372,33856
6373,33792
6374,33664
6375,33664
6376,33536
6377,33408
6378,33408
6379,33408
6380,33408
6381,33472
6382,33536
6383,33600
6384,33600
6385,33664
6386,33728
6387,33856
6388,33856
6389,33856
6390,33792
6391,33728
6392,33728
6393,33792
6394,33856
6395,33920
6396,33920
6397,33856
6398,33792
6399,33664
6400,33600
6401,33536
6402,33472
6403,33408
6404,33536
6405,33536
6406,33408
6407,33216
6408,33088
6409,33088
6410,33088
6411,33152
6412,33280
6413,33344
6414,33344
6415,33472
6416,33472
6417,33536
6418,33600
6419,33664
6420,33536
6421,33344
6422,33152
6423,32960
6424,33088
6425,33728
6426,34944
6427,36544
6428,38208
6429,39936
6430,41216
6431,40896
6432,38848
6433,35904
6434,32896
6435,30592
6436,29248
6437,28992
6438,29376
6439,30016
6440,30656
6441,31360
6442,32000
6443,32448
6444,32832
6445,33280
6446,33664
6447,33920
6448,33984
6449,34048
6450,34112
6451,34048
6452,33920
6453,33920
6454,33856
6455,33792
6456,33664
6457,33728
6458,33792
6459,33792
6460,33728
6461,33664
6462,33664
6463,33664
6464,33600
6465,33536
6466,33536
6467,33600
6468,33728
6469,33792
6470,33920
6471,34048
6472,34112
6473,34048
6474,33984
6475,33984
6476,33984
6477,33984
6478,33984
6479,34048
6480,34176
6481,34240
6482,34368
6483,34432
6484,34368
6485,34304
6486,34304
6487,34304
6488,34304
6489,34368
6490,34368
6491,34304
6492,34304
6493,34176
6494,34048
6495,33984
6496,33984
6497,33792
6498,33472
6499,33280
6500,33216
6501,33088
6502,32960
6503,32896
6504,32960
6505,33024
6506,33088
6507,33152
6508,33216
6509,33280
6510,33280
6511,33280
6512,33344
6513,33472
6514,33536
6515,33536
6516,33600
6517,33664
6518,33792
6519,33792
6520,33792
6521,33792
6522,33728
6523,33728
6524,33792
6525,33792
6526,33728
6527,33600
6528,33536
6529,33536
6530,33536
6531,33472
6532,33408
6533,33472
6534,33472
6535,33472
6536,33472
6537,33536
6538,33600
6539,33600
6540,33536
6541,33536
6542,33600
6543,33664
6544,33600
6545,33536
6546,33536
6547,33600
6548,33600
6549,33600
6550,33728
6551,33856
6552,33920
6553,33984
6554,33984
6555,33984
6556,33984
6557,33984
6558,33984
6559,33920
6560,33728
6561,33600
6562,33472
6563,33536
6564,33472
6565,33344
6566,33280
6567,33280
6568,33344
6569,33408
6570,33472
6571,33664
6572,33728
6573,33856
6574,33792
6575,33664
6576,33600
6577,33472
6578,33408
6579,33408
6580,33408
6581,33408
6582,33344
6583,33344
6584,33280
6585,33152
6586,32960
6587,33024
6588,33664
6589,35008
6590,36672
6591,38528
6592,40320
6593,41344
6594,40768
6595,38400
6596,35136
6597,32256
6598,30080
6599,28992
6600,28928
6601,29440
6602,30016
6603,30720
6604,31424
6605,32128
6606,32704
6607,33088
6608,33408
6609,33536
6610,33536
6611,33664
6612,33728
6613,33856
6614,33856
6615,33856
6616,33856
6617,33920
6618,33856
6619,33792
6620,33728
6621,33728
6622,33728
6623,33792
6624,33856
6625,33920
6626,33856
6627,33664
6628,33600
6629,33536
6630,33536
6631,33536
6632,33536
6633,33664
6634,33728
6635,33856
6636,33984
6637,34112
6638,34176
6639,34176
6640,34112
6641,34112
6642,34112
6643,34176
6644,34240
6645,34304
6646,34304
6647,34240
6648,34240
6649,34432
6650,34560
6651,34624
6652,34432
6653,34176
6654,34112
6655,34176
6656,34304
6657,34176
6658,33920
6659,33728
6660,33600
6661,33472
6662,33344
6663,33216
6664,33088
6665,33024
6666,33088
6667,33216
6668,33216
6669,33152
6670,33152
6671,33152
6672,33216
6673,33280
6674,33408
6675,33536
6676,33536
6677,33536
6678,33600
6679,33728
6680,33728
6681,33664
6682,33600
6683,33600
6684,33600
6685,33536
6686,33536
6687,33600
6688,33664
6689,33664
6690,33664
6691,33600
6692,33536
6693,33536
6694,33472
6695,33536
6696,33600
6697,33600
6698,33600
6699,33536
6700,33536
6701,33536
6702,33600
6703,33664
6704,33664
6705,33664
6706,33600
6707,33600
6708,33664
6709,33856
6710,33792
6711,33728
6712,33664
6713,33664
6714,33664
6715,33728
6716,33728
6717,33920
6718,34112
6719,34240
6720,34304
6721,34240
6722,33984
6723,33792
6724,33600
6725,33472
6726,33344
6727,33280
6728,33280
6729,33280
6730,33280
6731,33280
6732,33344
6733,33344
6734,33280
6735,33280
6736,33280
6737,33280
6738,33408
6739,33536
6740,33664
6741,33728
6742,33728
6743,33664
6744,33664
6745,33472
6746,33216
6747,32960
6748,32896
6749,33152
6750,33792
6751,35136
6752,36800
6753,38720
6754,40512
6755,41600
6756,41024
6757,38912
6758,35840
6759,32768
6760,30400
6761,29120
6762,28800
6763,29312
6764,30080
6765,30784
6766,31488
6767,32064
6768,32640
6769,33088
6770,33472
6771,33728
6772,33856
6773,33856
6774,33856
6775,33856
6776,33856
6777,33792
6778,33792
6779,33728
6780,33728
6781,33728
6782,33792
6783,33920
6784,33920
6785,33792
6786,33600
6787,33600
6788,33600
6789,33664
6790,33728
6791,33728
6792,33728
6793,33728
6794,33728
6795,33792
6796,33856
6797,33792
6798,33728
6799,33792
6800,33920
6801,34048
6802,34240
6803,34240
6804,34304
6805,34432
6806,34368
6807,34176
6808,34176
6809,34176
6810,34112
6811,34176
6812,34240
6813,34304
6814,34240
6815,34240
6816,34176
6817,34112
6818,34048
6819,34048
6820,33920
6821,33856
6822,33728
6823,33600
6824,33472
6825,33472
6826,33344
6827,33152
6828,33024
6829,32960
6830,32896
6831,32832
6832,32832
6833,33024
6834,33216
6835,33344
6836,33472
6837,33536
6838,33600
6839,33472
6840,33408
6841,33472
6842,33536
6843,33600
6844,33664
6845,33728
6846,33728
6847,33728
6848,33728
6849,33792
6850,33856
6851,33856
6852,33792
6853,33728
6854,33600
6855,33536
6856,33472
6857,33344
6858,33408
6859,33536
6860,33600
6861,33600
6862,33600
6863,33664
6864,33600
6865,33600
6866,33664
6867,33792
6868,33856
6869,33792
6870,33728
6871,33664
6872,33600
6873,33536
6874,33536
6875,33536
6876,33600
6877,33536
6878,33536
6879,33600
6880,33664
6881,33728
6882,33856
6883,33920
6884,33856
6885,33792
6886,33792
6887,33856
6888,34048
6889,34112
6890,34048
6891,33920
6892,33792
6893,33664
6894,33536
6895,33472
6896,33536
6897,33408
6898,33280
6899,33152
6900,33152
6901,33152
6902,33152
6903,33152
6904,33280
6905,33344
6906,33408
6907,33472
6908,33472
6909,33536
6910,33536
6911,33536
6912,33472
6913,33408
6914,33216
6915,32960
6916,32832
6917,33024
6918,33536
6919,34496
6920,35968
6921,37888
6922,39744
6923,41344
6924,41792
6925,40256
6926,37440
6927,34304
6928,31488
6929,29696
6930,28992
6931,29056
6932,29632
6933,30400
6934,31168
6935,31744
6936,32256
6937,32704
6938,33152
6939,33472
6940,33728
6941,33856
6942,33920
6943,33984
6944,34048
6945,33984
6946,33920
6947,33920
6948,33856
6949,33792
6950,33792
6951,33728
6952,33664
6953,33600
6954,33728
6955,33856
6956,33792
6957,33664
6958,33536
6959,33472
6960,33472
6961,33536
6962,33600
6963,33664
6964,33728
6965,33792
6966,33856
6967,33920
6968,34048
6969,34112
6970,34240
6971,34304
6972,34368
6973,34304
6974,34304
6975,34368
6976,34368
6977,34368
6978,34304
6979,34304
6980,34240
6981,34240
6982,34176
6983,34176
6984,34176
6985,34176
6986,34176
6987,34176
6988,34112
6989,33984
6990,33728
6991,33600
6992,33536
6993,33408
6994,33280
6995,33216
6996,33152
6997,33088
6998,33024
6999,33024
7000,33024
7001,33152
7002,33216
7003,33280
7004,33280
7005,33280
7006,33344
7007,33408
7008,33472
7009,33536
7010,33600
7011,33600
7012,33600
7013,33664
7014,33664
7015,33664
7016,33664
7017,33664
7018,33664
7019,33600
7020,33536
7021,33536
7022,33536
7023,33536
7024,33536
7025,33536
7026,33600
7027,33600
7028,33600
7029,33600
7030,33664
7031,33664
7032,33728
7033,33728
7034,33664
7035,33536
7036,33536
7037,33536
7038,33472
7039,33472
7040,33472
7041,33536
7042,33600
7043,33536
7044,33472
7045,33472
7046,33472
7047,33536
7048,33472
7049,33472
7050,33536
7051,33600
7052,33600
7053,33600
7054,33664
7055,33792
7056,33856
7057,33856
7058,33920
7059,34112
7060,34176
7061,34176
7062,34048
7063,33920
7064,33728
7065,33536
7066,33536
7067,33536
7068,33600
7069,33600
7070,33536
7071,33408
7072,33280
7073,33216
7074,33280
7075,33280
7076,33344
7077,33408
7078,33472
7079,33536
7080,33536
7081,33536
7082,33472
7083,33472
7084,33344
7085,33152
7086,32896
7087,32768
7088,32960
7089,33664
7090,35008
7091,36864
7092,38784
7093,40640
7094,41856
7095,41408
7096,41024
7097,39232
7098,32960
7099,30592
7100,29312
7101,28992
7102,29312
7103,29888
7104,30656
7105,31360
7106,32000
7107,32576
7108,32576
7109,33152
7110,33408
7111,33664
7112,33920
7113,33984
7114,34112
7115,34176
7116,34176
7117,33920
7118,33600
7119,33408
7120,33344
7121,33408
7122,33536
7123,33600
7124,33600
7125,33664
7126,33728
7127,33728
7128,33792
7129,33856
7130,33920
7131,33920
7132,33984
7133,34112
7134,34240
7135,34048
7136,33920
7137,33792
7138,33728
7139,33664
7140,33728
7141,33792
7142,33920
7143,34048
7144,34176
7145,34304
7146,34368
7147,34368
7148,34368
7149,34432
7150,34432
7151,34368
7152,34368
7153,34304
7154,34304
7155,34304
7156,34240
7157,34240
7158,34240
7159,34176
7160,33920
7161,33664
7162,33472
7163,33344
7164,33152
7165,33088
7166,33088
7167,33024
7168,33024
7169,33024
7170,33088
7171,33088
7172,33088
7173,33088
7174,33152
7175,33280
7176,33280
7177,33344
7178,33408
7179,33472
7180,33536
7181,33536
7182,33600
7183,33664
7184,33664
7185,33664
7186,33664
7187,33728
7188,33728
7189,33600
7190,33472
7191,33408
7192,33408
7193,33408
7194,33472
7195,33536
7196,33600
7197,33664
7198,33600
7199,33536
7200,33536
7201,33536
7202,33600
7203,33600
7204,33600
7205,33536
7206,33600
7207,33600
7208,33664
7209,33600
7210,33472
7211,33472
7212,33472
7213,33408
7214,33408
7215,33472
7216,33536
7217,33600
7218,33600
7219,33536
7220,33600
7221,33664
7222,33728
7223,33728
7224,33792
7225,33856
7226,33920
7227,33984
7228,34048
7229,34048
7230,33984
7231,33792
7232,33664
7233,33600
7234,33600
7235,33536
7236,33472
7237,33408
7238,33280
7239,33216
7240,33088
7241,33152
7242,33152
7243,33152
7244,33216
7245,33344
7246,33408
7247,33472
7248,33472
7249,33536
7250,33664
7251,33664
7252,33536
7253,33408
7254,33280
7255,32960
7256,32640
7257,32704
7258,33152
7259,34176
7260,35712
7261,37504
7262,39424
7263,41152
7264,41856
7265,40704
7266,38080
7267,34816
7268,31872
7269,29888
7270,28992
7271,28928
7272,29440
7273,30144
7274,30912
7275,31616
7276,32192
7277,32640
7278,33088
7279,33408
7280,33728
7281,33856
7282,33984
7283,33984
7284,33984
7285,33920
7286,33920
7287,33920
7288,33856
7289,33728
7290,33664
7291,33664
7292,33664
7293,33664
7294,33600
7295,33600
7296,33664
7297,33664
7298,33728
7299,33728
7300,33792
7301,33856
7302,33920
7303,33984
7304,33984
7305,33920
7306,33856
7307,33920
7308,33984
7309,34048
7310,34112
7311,34240
7312,34368
7313,34368
7314,34368
7315,34304
7316,34368
7317,34432
7318,34432
7319,34368
7320,34432
7321,34432
7322,34432
7323,34432
7324,34432
7325,34368
7326,34240
7327,34176
7328,34048
7329,33920
7330,33856
7331,33728
7332,33664
7333,33600
7334,33536
7335,33472
7336,33408
7337,33344
7338,33280
7339,33344
7340,33408
7341,33472
7342,33472
7343,33408
7344,33408
7345,33344
7346,33472
7347,33600
7348,33664
7349,33664
7350,33664
7351,33664
7352,33664
7353,33728
7354,33792
7355,33792
7356,33792
7357,33856
7358,33856
7359,33856
7360,33792
7361,33792
7362,33920
7363,33920
7364,33856
7365,33856
7366,33856
7367,33856
7368,33856
7369,33856
7370,33984
7371,34048
7372,33920
7373,33792
7374,33664
7375,33664
7376,33600
7377,33600
7378,33600
7379,33728
7380,33792
7381,33920
7382,34048
7383,34112
7384,34112
7385,34112
7386,34176
7387,34176
7388,34240
7389,34240
7390,34304
7391,34240
7392,34176
7393,34048
7394,33984
7395,33920
7396,33856
7397,33728
7398,33600
7399,33536
7400,33472
7401,33344
7402,33344
7403,33408
7404,33536
7405,33600
7406,33600
7407,33664
7408,33792
7409,33792
7410,33856
7411,33856
7412,33792
7413,33792
7414,33856
7415,33792
7416,33728
7417,33408
7418,33152
7419,33216
7420,33728
7421,34880
7422,36480
7423,38208
7424,40128
7425,41728
7426,41792
7427,39936
7428,36928
7429,33728
7430,31168
7431,29568
7432,28928
7433,29120
7434,29760
7435,30528
7436,31360
7437,32064
7438,32576
7439,32896
7440,33088
7441,33216
7442,33216
7443,33152
7444,33216
7445,33344
7446,33408
7447,33408
7448,33472
7449,33472
7450,33536
7451,33664
7452,33728
7453,33856
7454,33984
7455,34112
7456,34176
7457,34240
7458,34304
7459,34240
7460,34304
7461,34432
7462,34496
7463,34624
7464,34688
7465,34688
7466,34688
7467,34688
7468,34688
7469,34688
7470,34944
7471,35200
7472,35520
7473,35776
7474,35904
7475,36032
7476,36096
7477,36160
7478,36224
7479,36096
7480,35968
7481,35776
7482,35648
7483,35584
7484,35584
7485,35520
7486,35328
7487,35200
7488,34944
7489,34688
7490,34304
7491,33984
7492,33664
7493,33344
7494,33088
7495,32896
7496,32832
7497,32768
7498,32832
7499,32832
7500,32960
7501,32960
7502,32960
7503,33088
7504,33216
7505,33344
7506,33472
7507,33536
7508,33728
7509,33856
7510,33920
7511,33920
7512,33856
7513,33856
7514,33856
7515,33792
7516,33728
7517,33728
7518,33664
7519,33600
7520,33664
7521,33728
7522,33856
7523,33856
7524,33856
7525,33792
7526,33664
7527,33728
7528,33728
7529,33664
7530,33600
7531,33600
7532,33600
7533,33600
7534,33536
7535,33536
7536,33536
7537,33536
7538,33600
7539,33600
7540,33664
7541,33664
7542,33728
7543,33728
7544,33728
7545,33792
7546,33984
7547,33984
7548,33984
7549,33984
7550,33920
7551,33728
7552,33536
7553,33472
7554,33472
7555,33472
7556,33408
7557,33280
7558,33216
7559,33152
7560,33088
7561,33216
7562,33280
7563,33280
7564,33280
7565,33344
7566,33344
7567,33344
7568,33408
7569,33408
7570,33536
7571,33728
7572,33792
7573,33600
7574,33216
7575,32704
7576,32448
7577,32768
7578,33600
7579,35136
7580,36864
7581,38720
7582,40384
7583,41408
7584,40768
7585,38400
7586,35264
7587,32192
7588,30208
7589,29056
7590,28864
7591,29376
7592,30144
7593,30912
7594,31616
7595,32256
7596,32768
7597,33152
7598,33408
7599,33600
7600,33792
7601,33920
7602,33920
7603,33856
7604,33728
7605,33728
7606,33728
7607,33664
7608,33664
7609,33664
7610,33600
7611,33600
7612,33600
7613,33600
7614,33600
7615,33600
7616,33728
7617,33792
7618,33728
7619,33728
7620,33728
7621,33792
7622,33792
7623,33728
7624,33664
7625,33664
7626,33792
7627,33856
7628,33920
7629,33984
7630,34112
7631,34112
7632,34176
7633,34240
7634,34240
7635,34240
7636,34304
7637,34240
7638,34176
7639,34112
7640,34112
7641,34176
7642,34240
7643,34240
7644,34240
7645,34240
7646,34112
7647,33920
7648,33728
7649,33600
7650,33472
7651,33408
7652,33344
7653,33216
7654,33152
7655,33088
7656,32960
7657,32960
7658,32960
7659,33088
7660,33088
7661,33152
7662,33152
7663,33216
7664,33216
7665,33280
7666,33408
7667,33472
7668,33472
7669,33408
7670,33408
7671,33472
7672,33536
7673,33600
7674,33600
7675,33664
7676,33600
7677,33664
7678,33664
7679,33664
7680,33664
7681,33664
7682,33664
7683,33664
7684,33728
7685,33728
7686,33728
7687,33664
7688,33536
7689,33472
7690,33472
7691,33536
7692,33536
7693,33536
7694,33536
7695,33600
7696,33600
7697,33536
7698,33472
7699,33408
7700,33408
7701,33472
7702,33600
7703,33728
7704,33856
7705,33920
7706,33984
7707,34048
7708,34048
7709,34048
7710,33920
7711,33792
7712,33664
7713,33664
7714,33600
7715,33472
7716,33344
7717,33280
7718,33216
7719,33216
7720,33152
7721,33152
7722,33152
7723,33152
7724,33152
7725,33216
7726,33344
7727,33344
7728,33408
7729,33472
7730,33536
7731,33600
7732,33664
7733,33664
7734,33536
7735,33216
7736,32896
7737,32768
7738,33088
7739,33984
7740,35392
7741,37184
7742,39104
7743,40832
7744,41728
7745,40896
7746,38336
7747,35200
7748,32192
7749,30080
7750,29056
7751,28928
7752,29440
7753,30144
7754,30912
7755,31680
7756,32256
7757,32704
7758,33088
7759,33408
7760,33728
7761,33984
7762,34112
7763,34112
7764,34048
7765,34048
7766,33984
7767,33856
7768,33728
7769,33600
7770,33600
7771,33664
7772,33600
7773,33664
7774,33728
7775,33792
7776,33792
7777,33792
7778,33856
7779,33856
7780,33856
7781,33728
7782,33728
7783,33792
7784,33920
7785,33920
7786,33856
7787,33920
7788,33984
7789,33984
7790,34048
7791,34176
7792,34368
7793,34432
7794,34368
7795,34304
7796,34240
7797,34240
7798,34240
7799,34304
7800,34368
7801,34368
7802,34368
7803,34368
7804,34304
7805,34304
7806,34176
7807,34112
7808,34048
7809,33920
7810,33792
7811,33664
7812,33536
7813,33472
7814,33344
7815,33216
7816,33152
7817,33152
7818,33152
7819,33216
7820,33408
7821,33472
7822,33408
7823,33344
7824,33280
7825,33344
7826,33408
7827,33472
7828,33536
7829,33664
7830,33728
7831,33664
7832,33600
7833,33600
7834,33600
7835,33600
7836,33664
7837,33984
7838,34176
7839,34048
7840,33920
7841,33792
7842,33728
7843,33664
7844,33600
7845,33664
7846,33664
7847,33600
7848,33600
7849,33600
7850,33664
7851,33728
7852,33792
7853,33856
7854,33920
7855,34048
7856,34048
7857,33984
7858,33856
7859,33664
7860,33600
7861,33536
7862,33664
7863,33792
7864,33856
7865,33856
7866,33792
7867,33792
7868,33856
7869,33856
7870,33856
7871,33984
7872,34048
7873,34112
7874,34112
7875,34048
7876,33920
7877,33792
7878,33728
7879,33664
7880,33600
7881,33536
7882,33344
7883,33216
7884,33216
7885,33216
7886,33152
7887,33152
7888,33152
7889,33216
7890,33344
7891,33472
7892,33600
7893,33600
7894,33600
7895,33600
7896,33664
7897,33664
7898,33600
7899,33408
7900,33088
7901,32896
7902,33088
7903,33728
7904,35072
7905,36736
7906,38592
7907,40448
7908,41728
7909,41408
7910,39232
7911,36096
7912,32960
7913,30592
7914,29312
7915,28928
7916,29312
7917,30016
7918,30784
7919,31488
7920,32128
7921,32704
7922,33088
7923,33472
7924,33728
7925,33920
7926,34048
7927,33984
7928,34048
7929,34176
7930,34112
7931,33920
7932,33728
7933,33728
7934,33792
7935,33856
7936,33856
7937,33856
7938,33792
7939,33792
7940,33920
7941,33920
7942,33728
7943,33600
7944,33600
7945,33664
7946,33728
7947,33792
7948,33792
7949,33856
7950,33920
7951,33984
7952,34112
7953,34240
7954,34304
7955,34432
7956,34368
7957,34304
7958,34240
7959,34240
7960,34304
7961,34304
7962,34304
7963,34304
7964,34368
7965,34368
7966,34368
7967,34368
7968,34368
7969,34368
7970,34432
7971,34304
7972,34176
7973,34048
7974,33920
7975,33856
7976,33728
7977,33536
7978,33344
7979,33216
7980,33216
7981,33152
7982,33216
7983,33216
7984,33088
7985,33024
7986,32960
7987,33024
7988,33216
7989,33344
7990,33472
7991,33600
7992,33600
7993,33536
7994,33600
7995,33664
7996,33792
7997,33728
7998,33600
7999,33536
8000,33664
8001,33728
8002,33728
8003,33728
8004,33664
8005,33600
8006,33536
8007,33472
8008,33472
8009,33536
8010,33536
8011,33536
8012,33536
8013,33600
8014,33600
8015,33664
8016,33664
8017,33664
8018,33664
8019,33664
8020,33728
8021,33728
8022,33728
8023,33664
8024,33600
8025,33600
8026,33600
8027,33664
8028,33728
8029,33792
8030,33792
8031,33792
8032,33920
8033,34176
8034,34240
8035,34240
8036,34112
8037,33920
8038,33664
8039,33408
8040,33216
8041,33024
8042,32960
8043,32960
8044,33024
8045,32960
8046,32960
8047,32960
8048,33088
8049,33280
8050,33472
8051,33600
8052,33600
8053,33536
8054,33472
8055,33536
8056,33600
8057,33664
8058,33792
8059,33856
8060,33728
8061,33472
8062,32960
8063,32704
8064,32896
8065,33728
8066,35136
8067,36928
8068,38848
8069,40576
8070,41664
8071,40960
8072,38656
8073,35648
8074,32704
8075,30528
8076,29312
8077,29248
8078,29632
8079,30272
8080,30912
8081,31744
8082,32064
8083,32512
8084,33024
8085,33408
8086,33728
8087,33856
8088,33984
8089,33984
8090,33984
8091,33984
8092,33920
8093,33856
8094,33856
8095,33920
8096,33856
8097,33728
8098,33664
8099,33536
8100,33600
8101,33728
8102,33792
8103,33728
8104,33664
8105,33664
8106,33600
8107,33664
8108,33728
8109,33664
8110,33600
8111,33600
8112,33664
8113,33856
8114,33984
8115,34048
8116,34048
8117,34112
8118,34240
8119,34240
8120,34240
8121,34240
8122,34240
8123,34240
8124,34304
8125,34432
8126,34496
8127,34560
8128,34496
8129,34432
8130,34304
8131,34240
8132,34176
8133,34048
8134,33920
8135,33792
8136,33728
8137,33664
8138,33536
8139,33344
8140,33152
8141,33024
8142,32960
8143,32960
8144,33024
8145,33024
8146,33088
8147,33152
8148,33216
8149,33280
8150,33408
8151,33408
8152,33344
8153,33408
8154,33600
8155,33664
8156,33664
8157,33728
8158,33728
8159,33728
8160,33728
8161,33728
8162,33728
8163,33664
8164,33728
8165,33664
8166,33664
8167,33600
8168,33600
8169,33600
8170,33664
8171,33728
8172,33728
8173,33664
8174,33664
8175,33664
8176,33664
8177,33600
8178,33600
8179,33664
8180,33792
8181,33856
8182,33920
8183,33920
8184,33792
8185,33728
8186,33664
8187,33600
8188,33536
8189,33472
8190,33472
8191,33472
8192,33472
8193,33472
8194,33472
8195,33600
8196,33728
8197,33856
8198,33920
8199,34048
8200,34176
8201,34240
8202,34048
8203,33984
8204,34048
8205,34112
8206,34112
8207,33984
8208,33984
8209,33856
8210,33664
8211,33536
8212,33472
8213,33408
8214,33344
8215,33408
8216,33472
8217,33536
8218,33536
8219,33600
8220,33664
8221,33664
8222,33664
8223,33600
8224,33600
8225,33600
8226,33728
8227,33856
8228,33856
8229,33792
8230,33856
8231,33728
8232,33280
8233,32960
8234,33088
8235,33664
8236,35008
8237,36224
8238,38080
8239,40000
8240,41536
8241,41664
8242,39936
8243,37120
8244,34048
8245,31360
8246,30016
8247,29504
8248,29632
8249,30208
8250,31168
8251,32448
8252,32832
8253,33024
8254,33088
8255,33216
8256,33408
8257,33600
8258,33728
8259,33984
8260,34048
8261,34112
8262,34176
8263,34240
8264,34368
8265,34496
8266,34560
8267,34368
8268,34176
8269,34048
8270,33920
8271,33920
8272,33984
8273,33920
8274,33856
8275,33920
8276,33984
8277,33984
8278,33984
8279,33984
8280,34112
8281,34240
8282,34112
8283,34112
8284,34176
8285,34176
8286,34176
8287,34112
8288,34112
8289,34240
8290,34496
8291,34688
8292,34688
8293,34560
8294,34368
8295,34304
8296,34368
8297,34496
8298,34560
8299,34496
8300,34368
8301,34368
8302,34368
8303,34304
8304,34176
8305,34048
8306,34048
8307,33984
8308,33792
8309,33600
8310,33472
8311,33408
8312,33280
8313,33216
8314,33216
8315,33216
8316,33344
8317,33408
8318,33408
8319,33344
8320,33280
8321,33344
8322,33472
8323,33536
8324,33728
8325,33856
8326,33792
8327,33728
8328,33664
8329,33664
8330,33792
8331,33856
8332,33920
8333,34048
8334,34176
8335,34112
8336,34112
8337,34048
8338,33920
8339,33856
8340,33856
8341,34048
8342,34176
8343,34048
8344,33792
8345,33472
8346,33280
8347,33280
8348,33280
8349,33408
8350,33536
8351,33728
8352,33792
8353,33792
8354,33856
8355,33984
8356,33984
8357,33856
8358,33792
8359,33792
8360,33856
8361,33984
8362,34112
8363,34368
8364,34368
8365,34112
8366,33856
8367,33728
8368,33728
8369,33664
8370,33536
8371,33408
8372,33344
8373,33280
8374,33280
8375,33344
8376,33472
8377,33472
8378,33472
8379,33536
8380,33600
8381,33600
8382,33600
8383,33600
8384,33536
8385,33536
8386,33536
8387,33536
8388,33600
8389,33664
8390,33472
8391,33152
8392,32960
8393,32896
8394,33216
8395,34048
8396,35904
8397,37184
8398,38976
8399,40640
8400,41856
8401,41408
8402,38976
8403,35584
8404,32384
8405,30144
8406,29056
8407,28800
8408,29248
8409,29888
8410,30784
8411,31552
8412,32320
8413,32896
8414,33344
8415,33664
8416,33856
8417,33920
8418,34048
8419,34112
8420,34112
8421,34048
8422,34048
8423,33984
8424,33920
8425,33920
8426,33792
8427,33792
8428,33728
8429,33728
8430,33856
8431,33792
8432,33664
8433,33536
8434,33472
8435,33536
8436,33600
8437,33664
8438,33728
8439,33856
8440,34048
8441,34304
8442,34368
8443,34112
8444,33856
8445,33792
8446,33856
8447,33920
8448,33984
8449,34048
8450,34112
8451,34240
8452,34368
8453,34432
8454,34368
8455,34432
8456,34496
8457,34560
8458,34560
8459,34432
8460,34176
8461,34048
8462,33920
8463,33856
8464,33664
8465,33472
8466,33408
8467,33344
8468,33408
8469,33408
8470,33344
8471,33216
8472,33088
8473,33088
8474,33152
8475,33152
8476,33088
8477,32960
8478,32960
8479,33152
8480,33408
8481,33408
8482,33408
8483,33344
8484,33280
8485,33216
8486,33280
8487,33408
8488,33472
8489,33472
8490,33600
8491,33728
8492,33728
8493,33728
8494,33728
8495,33728
8496,33728
8497,33536
8498,33408
8499,33344
8500,33344
8501,33408
8502,33472
8503,33472
8504,33472
8505,33536
8506,33536
8507,33536
8508,33536
8509,33536
8510,33600
8511,33664
8512,33664
8513,33728
8514,33600
8515,33472
8516,33408
8517,33344
8518,33280
8519,33280
8520,33280
8521,33344
8522,33472
8523,33600
8524,33600
8525,33664
8526,33792
8527,33856
8528,33984
8529,33984
8530,33984
8531,33984
8532,33856
8533,33728
8534,33536
8535,33472
8536,33472
8537,33408
8538,33344
8539,33216
8540,33088
8541,32960
8542,32960
8543,33024
8544,33152
8545,33216
8546,33344
8547,33344
8548,33408
8549,33472
8550,33472
8551,33408
8552,33344
8553,33280
8554,33344
8555,33344
8556,33280
8557,33088
8558,32832
8559,32768
8560,33024
8561,33728
8562,34944
8563,36608
8564,38528
8565,40448
8566,41984
8567,41472
8568,39168
8569,35968
8570,32768
8571,30016
8572,28992
8573,28672
8574,29056
8575,29824
8576,30656
8577,31296
8578,31936
8579,32384
8580,32832
8581,33216
8582,33536
8583,33792
8584,33984
8585,33984
8586,33856
8587,33792
8588,33728
8589,33664
8590,33664
8591,33664
8592,33728
8593,33856
8594,33920
8595,33792
8596,33472
8597,33344
8598,33280
8599,33280
8600,33408
8601,33472
8602,33536
8603,33536
8604,33600
8605,33664
8606,33728
8607,33728
8608,33792
8609,33920
8610,34048
8611,34112
8612,34112
8613,34176
8614,34240
8615,34240
8616,34176
8617,34112
8618,34112
8619,34176
8620,34176
8621,34176
8622,34240
8623,34368
8624,34432
8625,34432
8626,34432
8627,34432
8628,34368
8629,34176
8630,33920
8631,33728
8632,33728
8633,33664
8634,33536
8635,33408
8636,33216
8637,33088
8638,33024
8639,32960
8640,32896
8641,33024
8642,33024
8643,33088
8644,33088
8645,33088
8646,33152
8647,33280
8648,33472
8649,33536
8650,33536
8651,33536
8652,33536
8653,33472
8654,33472
8655,33536
8656,33600
8657,33600
8658,33536
8659,33536
8660,33536
8661,33600
8662,33664
8663,33664
8664,33792
8665,33856
8666,33792
8667,33728
8668,33728
8669,33664
8670,33664
8671,33664
8672,33664
8673,33600
8674,33536
8675,33408
8676,33280
8677,33280
8678,33280
8679,33344
8680,33536
8681,33600
8682,33600
8683,33536
8684,33472
8685,33472
8686,33472
8687,33472
8688,33472
8689,33536
8690,33664
8691,33664
8692,33536
8693,33472
8694,33408
8695,33472
8696,33600
8697,33664
8698,33600
8699,33472
8700,33408
8701,33472
8702,33600
8703,33728
8704,33728
8705,33792
8706,33984
8707,34112
8708,34176
8709,34176
8710,34176
8711,34112
8712,34048
8713,33792
8714,33408
8715,33216
8716,33152
8717,33216
8718,33152
8719,33024
8720,32960
8721,32896
8722,33024
8723,33152
8724,33216
8725,33216
8726,33344
8727,33536
8728,33664
8729,33728
8730,33728
8731,33728
8732,33728
8733,33600
8734,33280
8735,32896
8736,32768
8737,33152
8738,34048
8739,35520
8740,37248
8741,39552
8742,40960
8743,41792
8744,40704
8745,38144
8746,33728
8747,32128
8748,30144
8749,29120
8750,28992
8751,29504
8752,30208
8753,30976
8754,31680
8755,32320
8756,32768
8757,33088
8758,33408
8759,33664
8760,33920
8761,34176
8762,34176
8763,34112
8764,34112
8765,33984
8766,33792
8767,33664
8768,33728
8769,33728
8770,33728
8771,33728
8772,33792
8773,33792
8774,33792
8775,33856
8776,33984
8777,33984
8778,33984
8779,33920
8780,33792
8781,33664
8782,33600
8783,33600
8784,33728
8785,33920
8786,34176
8787,34176
8788,34176
8789,34176
8790,34240
8791,34240
8792,34176
8793,34240
8794,34304
8795,34368
8796,34368
8797,34496
8798,34496
8799,34496
8800,34432
8801,34432
8802,34432
8803,34432
8804,34368
8805,34368
8806,34304
8807,34240
8808,34048
8809,33920
8810,33728
8811,33600
8812,33472
8813,33408
8814,33408
8815,33280
8816,33152
8817,33152
8818,33152
8819,33216
8820,33280
8821,33344
8822,33408
8823,33536
8824,33600
8825,33600
8826,33664
8827,33728
8828,33728
8829,33728
8830,33664
8831,33728
8832,33728
8833,33728
8834,33792
8835,33920
8836,33984
8837,33984
8838,33984
8839,33920
8840,33856
8841,33856
8842,33920
8843,33920
8844,33856
8845,33792
8846,33792
8847,33856
8848,33856
8849,33920
8850,33920
8851,33792
8852,33728
8853,33728
8854,33792
8855,33856
8856,33856
8857,33792
8858,33792
8859,33792
8860,33792
8861,33792
8862,33792
8863,33920
8864,33984
8865,33920
8866,33856
8867,33856
8868,33920
8869,33856
8870,33792
8871,33856
8872,33920
8873,33920
8874,33920
8875,34048
8876,34240
8877,34304
8878,34304
8879,34240
8880,34112
8881,34048
8882,33920
8883,33792
8884,33728
8885,33664
8886,33664
8887,33664
8888,33536
8889,33344
8890,33280
8891,33344
8892,33408
8893,33536
8894,33664
8895,33664
8896,33728
8897,33728
8898,33728
8899,33792
8900,33856
8901,33920
8902,33792
8903,33216
8904,33088
8905,33344
8906,34048
8907,35392
8908,37120
8909,39040
8910,40832
8911,41984
8912,41536
8913,39168
8914,35840
8915,32384
8916,32064
8917,29120
8918,28864
8919,29312
8920,30144
8921,30272
8922,30976
8923,32256
8924,32832
8925,33536
8926,33472
8927,33792
8928,34176
8929,34240
8930,34240
8931,34112
8932,34048
8933,34048
8934,33984
8935,33984
8936,33984
8937,33984
8938,34048
8939,34048
8940,33984
8941,34048
8942,33984
8943,33984
8944,34048
8945,34176
8946,34176
8947,33984
8948,33920
8949,33792
8950,33792
8951,33792
8952,33920
8953,34048
8954,34176
8955,34304
8956,34240
8957,34240
8958,34240
8959,34176
8960,34240
8961,34176
8962,34368
8963,34432
8964,34560
8965,34560
8966,34560
8967,34560
8968,34496
8969,34368
8970,34368
8971,34368
8972,34368
8973,34240
8974,34240
8975,34176
8976,34176
8977,34112
8978,34048
8979,33792
8980,33600
8981,33344
8982,33216
8983,33152
8984,33088
8985,33024
8986,33024
8987,33088
8988,33216
8989,33344
8990,33536
8991,33472
8992,33600
8993,33856
8994,33792
8995,33728
8996,33600
8997,33536
8998,33472
8999,33536
9000,33600
9001,33536
9002,33600
9003,33600
9004,33664
9005,33664
9006,33728
9007,33792
9008,33856
9009,33920
9010,33984
9011,33920
9012,33920
9013,33920
9014,33984
9015,34048
9016,34048
9017,33984
9018,33856
9019,33728
9020,33792
9021,33728
9022,33600
9023,33472
9024,33472
9025,33472
9026,33408
9027,33408
9028,33728
9029,33856
9030,33920
9031,33920
9032,33984
9033,34048
9034,34176
9035,34304
9036,34304
9037,34240
9038,34176
9039,33984
9040,33792
9041,33728
9042,33728
9043,33728
9044,33664
9045,33664
9046,33536
9047,33216
9048,32960
9049,32832
9050,32960
9051,33024
9052,33152
9053,33280
9054,33408
9055,33536
9056,33664
9057,33600
9058,33856
9059,33856
9060,33792
9061,33728
9062,33600
9063,33152
9064,32896
9065,33152
9066,33216
9067,34752
9068,36288
9069,38016
9070,39872
9071,41344
9072,41536
9073,39808
9074,36864
9075,33536
9076,31104
9077,29504
9078,28864
9079,29056
9080,29632
9081,30336
9082,31104
9083,31808
9084,32448
9085,33024
9086,33408
9087,33792
9088,34048
9089,34176
9090,34048
9091,34048
9092,33984
9093,33920
9094,33856
9095,33984
9096,33920
9097,33920
9098,33792
9099,33728
9100,33728
9101,33664
9102,33728
9103,33728
9104,33792
9105,33792
9106,33728
9107,33664
9108,33728
9109,33728
9110,33792
9111,33728
9112,33792
9113,33920
9114,33984
9115,34048
9116,34048
9117,34048
9118,34048
9119,34048
9120,34176
9121,34304
9122,34368
9123,34368
9124,34368
9125,34432
9126,34432
9127,34432
9128,34368
9129,34304
9130,34304
9131,34240
9132,34240
9133,34112
9134,34048
9135,33920
9136,33856
9137,33728
9138,33664
9139,33600
9140,33536
9141,33408
9142,33280
9143,33216
9144,33088
9145,33024
9146,33024
9147,33024
9148,33088
9149,33152
9150,33344
9151,33280
9152,33408
9153,33472
9154,33472
9155,33536
9156,33472
9157,33472
9158,33536
9159,33600
9160,33664
9161,33664
9162,33664
9163,33728
9164,33728
9165,33728
9166,33664
9167,33728
9168,33728
9169,33728
9170,33728
9171,33728
9172,33664
9173,33664
9174,33728
9175,33792
9176,33728
9177,33600
9178,33408
9179,33408
9180,33408
9181,33408
9182,33408
9183,33472
9184,33536
9185,33600
9186,33600
9187,33664
9188,33728
9189,33664
9190,33664
9191,33664
9192,33728
9193,33792
9194,33792
9195,33984
9196,33920
9197,34112
9198,34112
9199,34112
9200,33920
9201,33856
9202,33664
9203,33600
9204,33472
9205,33472
9206,33344
9207,33280
9208,33216
9209,33216
9210,33280
9211,33280
9212,33280
9213,33344
9214,33344
9215,33408
9216,33472
9217,33536
9218,33536
9219,33472
9220,33536
9221,33600
9222,33664
9223,33600
9224,33344
9225,33088
9226,32832
9227,32960
9228,33664
9229,34944
9230,36672
9231,38592
9232,40448
9233,41728
9234,41472
9235,39232
9236,36160
9237,33024
9238,30720
9239,29312
9240,28800
9241,29184
9242,29824
9243,30592
9244,31360
9245,32000
9246,32512
9247,32896
9248,33280
9249,33600
9250,33920
9251,34048
9252,34048
9253,34048
9254,34112
9255,34176
9256,34112
9257,33984
9258,33920
9259,33792
9260,33664
9261,33664
9262,33728
9263,33728
9264,33728
9265,33728
9266,33792
9267,33728
9268,33600
9269,33536
9270,33600
9271,33792
9272,33856
9273,33856
9274,33792
9275,33792
9276,33856
9277,33920
9278,34048
9279,34048
9280,34112
9281,34176
9282,34176
9283,34240
9284,34304
9285,34304
9286,34304
9287,34368
9288,34496
9289,34496
9290,34432
9291,34432
9292,34432
9293,34304
9294,34176
9295,34112
9296,34112
9297,34112
9298,34048
9299,33920
9300,33728
9301,33536
9302,33408
9303,33216
9304,33088
9305,32960
9306,32896
9307,32960
9308,33024
9309,33088
9310,33152
9311,33152
9312,33216
9313,33280
9314,33344
9315,33344
9316,33472
9317,33536
9318,33600
9319,33600
9320,33728
9321,33664
9322,33664
9323,33536
9324,33472
9325,33536
9326,33600
9327,33728
9328,33792
9329,33792
9330,33792
9331,33728
9332,33600
9333,33600
9334,33664
9335,33728
9336,33664
9337,33536
9338,33472
9339,33472
9340,33536
9341,33600
9342,33664
9343,33728
9344,33728
9345,33728
9346,33728
9347,33728
9348,33664
9349,33600
9350,33536
9351,33536
9352,33536
9353,33536
9354,33536
9355,33600
9356,33664
9357,33792
9358,33920
9359,34048
9360,34176
9361,34176
9362,34112
9363,33984
9364,33920
9365,33792
9366,33728
9367,33600
9368,33600
9369,33536
9370,33472
9371,33408
9372,33344
9373,33280
9374,33280
9375,33280
9376,33280
9377,33344
9378,33408
9379,33408
9380,33472
9381,33536
9382,33536
9383,33600
9384,33664
9385,33664
9386,33600
9387,33408
9388,33152
9389,32960
9390,33024
9391,33600
9392,34688
9393,36224
9394,38016
9395,39872
9396,41408
9397,41792
9398,40256
9399,37312
9400,34048
9401,31296
9402,29568
9403,28928
9404,29056
9405,29696
9406,30464
9407,31104
9408,31744
9409,32384
9410,32960
9411,33344
9412,33728
9413,33920
9414,34048
9415,34048
9416,34112
9417,34176
9418,34112
9419,34048
9420,33920
9421,33792
9422,33664
9423,33600
9424,33600
9425,33664
9426,33728
9427,33728
9428,33664
9429,33664
9430,33728
9431,33728
9432,33728
9433,33792
9434,33856
9435,33920
9436,33920
9437,33856
9438,33920
9439,33920
9440,33920
9441,33984
9442,34112
9443,34176
9444,34240
9445,34304
9446,34368
9447,34368
9448,34368
9449,34368
9450,34432
9451,34496
9452,34432
9453,34368
9454,34432
9455,34368
9456,34304
9457,34304
9458,34368
9459,34304
9460,34176
9461,34048
9462,33920
9463,33792
9464,33664
9465,33472
9466,33280
9467,33152
9468,33024
9469,33024
9470,33088
9471,33088
9472,33152
9473,33152
9474,33216
9475,33280
9476,33344
9477,33472
9478,33536
9479,33536
9480,33536
9481,33536
9482,33536
9483,33600
9484,33664
9485,33664
9486,33792
9487,33856
9488,33856
9489,33792
9490,33728
9491,33792
9492,33792
9493,33856
9494,33792
9495,33728
9496,33728
9497,33664
9498,33664
9499,33664
9500,33664
9501,33728
9502,33664
9503,33664
9504,33728
9505,33728
9506,33728
9507,33728
9508,33792
9509,33792
9510,33856
9511,33792
9512,33728
9513,33664
9514,33600
9515,33536
9516,33536
9517,33600
9518,33600
9519,33728
9520,33792
9521,33856
9522,33984
9523,34048
9524,34112
9525,34176
9526,34112
9527,34048
9528,33920
9529,33856
9530,33792
9531,33728
9532,33536
9533,33472
9534,33408
9535,33344
9536,33216
9537,33280
9538,33344
9539,33408
9540,33408
9541,33344
9542,33344
9543,33472
9544,33536
9545,33664
9546,33728
9547,33792
9548,33792
9549,33792
9550,33728
9551,33472
9552,33152
9553,32960
9554,33280
9555,34112
9556,35520
9557,37184
9558,39104
9559,40960
9560,41984
9561,41216
9562,38720
9563,35584
9564,32576
9565,30400
9566,29248
9567,29120
9568,29568
9569,30208
9570,31040
9571,31744
9572,32256
9573,32768
9574,33216
9575,33664
9576,33920
9577,34112
9578,34176
9579,34240
9580,34304
9581,34240
9582,34176
9583,34112
9584,34048
9585,34048
9586,33984
9587,33920
9588,33792
9589,33792
9590,33856
9591,33984
9592,33984
9593,33856
9594,33728
9595,33728
9596,33728
9597,33728
9598,33728
9599,33792
9600,33856
9601,33984
9602,34048
9603,34112
9604,34176
9605,34176
9606,34176
9607,34240
9608,34368
9609,34496
9610,34560
9611,34560
9612,34496
9613,34432
9614,34432
9615,34432
9616,34432
9617,34432
9618,34368
9619,34304
9620,34304
9621,34240
9622,34176
9623,34048
9624,34048
9625,33920
9626,33856
9627,33728
9628,33600
9629,33536
9630,33408
9631,33280
9632,33280
9633,33216
9634,33216
9635,33216
9636,33152
9637,33280
9638,33280
9639,33280
9640,33280
9641,33408
9642,33472
9643,33536
9644,33600
9645,33664
9646,33664
9647,33600
9648,33600
9649,33600
9650,33664
9651,33728
9652,33728
9653,33728
9654,33728
9655,33792
9656,33792
9657,33728
9658,33728
9659,33728
9660,33792
9661,33792
9662,33728
9663,33728
9664,33664
9665,33600
9666,33664
9667,33728
9668,33728
9669,33728
9670,33728
9671,33664
9672,33664
9673,33664
9674,33664
9675,33664
9676,33728
9677,33728
9678,33728
9679,33728
9680,33792
9681,33920
9682,34048
9683,34112
9684,34176
9685,34112
9686,33920
9687,33792
9688,33728
9689,33664
9690,33664
9691,33664
9692,33600
9693,33408
9694,33152
9695,33152
9696,33088
9697,33024
9698,33024
9699,33088
9700,33280
9701,33408
9702,33408
9703,33408
9704,33472
9705,33536
9706,33664
9707,33792
9708,33792
9709,33536
9710,33152
9711,32896
9712,33024
9713,33664
9714,34880
9715,36480
9716,38272
9717,40128
9718,41472
9719,41408
9720,39488
9721,36352
9722,33280
9723,30720
9724,29312
9725,28928
9726,29248
9727,29888
9728,30592
9729,31360
9730,32064
9731,32576
9732,33152
9733,33472
9734,33792
9735,33984
9736,33984
9737,33984
9738,33920
9739,33920
9740,33856
9741,33792
9742,33792
9743,33792
9744,33792
9745,33728
9746,33728
9747,33664
9748,33664
9749,33664
9750,33728
9751,33856
9752,33792
9753,33792
9754,33856
9755,33856
9756,33792
9757,33728
9758,33664
9759,33664
9760,33728
9761,33792
9762,33920
9763,33984
9764,34048
9765,34176
9766,34240
9767,34304
9768,34304
9769,34304
9770,34368
9771,34432
9772,34496
9773,34432
9774,34432
9775,34432
9776,34432
9777,34368
9778,34304
9779,34240
9780,34176
9781,34112
9782,33984
9783,33792
9784,33664
9785,33600
9786,33536
9787,33408
9788,33216
9789,33216
9790,33216
9791,33216
9792,33216
9793,33088
9794,33024
9795,33024
9796,33088
9797,33152
9798,33152
9799,33280
9800,33408
9801,33472
9802,33472
9803,33536
9804,33600
9805,33600
9806,33664
9807,33664
9808,33664
9809,33664
9810,33664
9811,33664
9812,33664
9813,33600
9814,33600
9815,33536
9816,33664
9817,33728
9818,33728
9819,33664
9820,33600
9821,33664
9822,33728
9823,33728
9824,33600
9825,33536
9826,33472
9827,33472
9828,33472
9829,33472
9830,33472
9831,33472
9832,33536
9833,33664
9834,33728
9835,33728
9836,33728
9837,33856
9838,33856
9839,33856
9840,33920
9841,33920
9842,33984
9843,33984
9844,33984
9845,33920
9846,33856
9847,33792
9848,33728
9849,33600
9850,33536
9851,33472
9852,33408
9853,33344
9854,33280
9855,33216
9856,33216
9857,33216
9858,33216
9859,33216
9860,33216
9861,33344
9862,33408
9863,33536
9864,33536
9865,33600
9866,33600
9867,33664
9868,33600
9869,33408
9870,33152
9871,32960
9872,32960
9873,33344
9874,34304
9875,35712
9876,37440
9877,39296
9878,41024
9879,41728
9880,40448
9881,37696
9882,33664
9883,31680
9884,29824
9885,28992
9886,28928
9887,29504
9888,30272
9889,31040
9890,31744
9891,32320
9892,32768
9893,33216
9894,33600
9895,33792
9896,33920
9897,33984
9898,33984
9899,33920
9900,33856
9901,33728
9902,33664
9903,33664
9904,33728
9905,33728
9906,33664
9907,33600
9908,33536
9909,33600
9910,33600
9911,33600
9912,33664
9913,33728
9914,33792
9915,33856
9916,33856
9917,33856
9918,33856
9919,33856
9920,33920
9921,33920
9922,33920
9923,33920
9924,33920
9925,33984
9926,34048
9927,34112
9928,34240
9929,34304
9930,34368
9931,34368
9932,34368
9933,34432
9934,34432
9935,34368
9936,34240
9937,34240
9938,34240
9939,34176
9940,34176
9941,34112
9942,33984
9943,33920
9944,33728
9945,33600
9946,33536
9947,33472
9948,33344
9949,33216
9950,33088
9951,32960
9952,32896
9953,32896
9954,32960
9955,33088
9956,33088
9957,33152
9958,33152
9959,33216
9960,33280
9961,33280
9962,33344
9963,33472
9964,33536
9965,33536
9966,33536
9967,33600
9968,33536
9969,33472
9970,33472
9971,33536
9972,33536
9973,33536
9974,33600
9975,33600
9976,33600
9977,33536
9978,33536
9979,33600
9980,33664
9981,33664
9982,33600
9983,33536
9984,33536
9985,33472
9986,33472
9987,33472
9988,33472
9989,33472
9990,33472
9991,33600
9992,33664
9993,33664
9994,33664
9995,33664
9996,33664
9997,33664
9998,33600
9999,33600
10000,33728
10001,33856
10002,33856
10003,33792
10004,33856
10005,33920
10006,34048
10007,34112
10008,34176
10009,34112
10010,33984
10011,33856
10012,33792
10013,33728
10014,33600
10015,33408
10016,33344
10017,33344
10018,33280
10019,33280
10020,33344
10021,33344
10022,33344
10023,33344
10024,33472
10025,33600
10026,33728
10027,33792
10028,33792
10029,33792
10030,33728
10031,33664
10032,33536
10033,33408
10034,33152
10035,32960
10036,33024
10037,33536
10038,34688
10039,36224
10040,38080
10041,40000
10042,41600
10043,41920
10044,40320
10045,37440
10046,34304
10047,30720
10048,29632
10049,28928
10050,29120
10051,29824
10052,30656
10053,31424
10054,32128
10055,32640
10056,33152
10057,33472
10058,33792
10059,33984
10060,34176
10061,34240
10062,34304
10063,34304
10064,34304
10065,34240
10066,34048
10067,33984
10068,33920
10069,33856
10070,33856
10071,33920
10072,33984
10073,33984
10074,33920
10075,33920
10076,33984
10077,33984
10078,33984
10079,33984
10080,33984
10081,33984
10082,33984
10083,34048
10084,34048
10085,34112
10086,34176
10087,34240
10088,34304
10089,34368
10090,34432
10091,34560
10092,34496
10093,34496
10094,34432
10095,34496
10096,34560
10097,34560
10098,34560
10099,34496
10100,34496
10101,34496
10102,34432
10103,34432
10104,34432
10105,34432
10106,34368
10107,34240
10108,34048
10109,33856
10110,33664
10111,33536
10112,33472
10113,33472
10114,33408
10115,33280
10116,33152
10117,33152
10118,33152
10119,33152
10120,33280
10121,33408
10122,33472
10123,33536
10124,33600
10125,33664
10126,33664
10127,33728
10128,33728
10129,33728
10130,33728
10131,33792
10132,33792
10133,33792
10134,33792
10135,33728
10136,33792
10137,33856
10138,33920
10139,33856
10140,33856
10141,33920
10142,33984
10143,33984
10144,33856
10145,33664
10146,33600
10147,33600
10148,33600
10149,33600
10150,33600
10151,33600
10152,33664
10153,33664
10154,33728
10155,33792
10156,33856
10157,33856
10158,33856
10159,33984
10160,33984
10161,33984
10162,33984
10163,33984
10164,34048
10165,34048
10166,33984
10167,33920
10168,33856
10169,33728
10170,33664
10171,33664
10172,33600
10173,33600
10174,33536
10175,33472
10176,33408
10177,33280
10178,33344
10179,33344
10180,33344
10181,33280
10182,33344
10183,33408
10184,33472
10185,33536
10186,33536
10187,33600
10188,33664
10189,33728
10190,33664
10191,33472
10192,33216
10193,32960
10194,33024
10195,33536
10196,34624
10197,36544
10198,37952
10199,39744
10200,41280
10201,41600
10202,40000
10203,37120
10204,33984
10205,31296
10206,29568
10207,28864
10208,29120
10209,29824
10210,30656
10211,31360
10212,32256
10213,32512
10214,32960
10215,33280
10216,33536
10217,33792
10218,33984
10219,34048
10220,34112
10221,34176
10222,34176
10223,34048
10224,33856
10225,33728
10226,33664
10227,33664
10228,33664
10229,33664
10230,33792
10231,33856
10232,33856
10233,33856
10234,33792
10235,33792
10236,33792
10237,33856
10238,33856
10239,33856
10240,33856
10241,33920
10242,33920
10243,33984
10244,33984
10245,33984
10246,33984
10247,33984
10248,33984
10249,34048
10250,34176
10251,34368
10252,34432
10253,34560
10254,34624
10255,34624
10256,34624
10257,34496
10258,34432
10259,34432
10260,34432
10261,34368
10262,34304
10263,34112
10264,33984
10265,33856
10266,33728
10267,33664
10268,33536
10269,33408
10270,33280
10271,33152
10272,33088
10273,32960
10274,32960
10275,33024
10276,33152
10277,33216
10278,33280
10279,33344
10280,33408
10281,33472
10282,33536
10283,33600
10284,33600
10285,33536
10286,33536
10287,33600
10288,33600
10289,33600
10290,33600
10291,33600
10292,33664
10293,33728
10294,33728
10295,33792
10296,33728
10297,33664
10298,33600
10299,33600
10300,33600
10301,33664
10302,33728
10303,33728
10304,33792
10305,33856
10306,33856
10307,33792
10308,33664
10309,33536
10310,33472
10311,33472
10312,33472
10313,33600
10314,33664
10315,33728
10316,33728
10317,33792
10318,33728
10319,33664
10320,33664
10321,33728
10322,33856
10323,33920
10324,33856
10325,33856
10326,33920
10327,33984
10328,34048
10329,34112
10330,34112
10331,34048
10332,33920
10333,33792
10334,33728
10335,33536
10336,33408
10337,33344
10338,33408
10339,33408
10340,33344
10341,33216
10342,33216
10343,33216
10344,33216
10345,33216
10346,33344
10347,33536
10348,33536
10349,33600
10350,33728
10351,33792
10352,33792
10353,33728
10354,33600
10355,33344
10356,33024
10357,32896
10358,33344
10359,34304
10360,35840
10361,37696
10362,40256
10363,41280
10364,41920
10365,40512
10366,37696
10367,34432
10368,31616
10369,29824
10370,28992
10371,29056
10372,29632
10373,30336
10374,31104
10375,31872
10376,32512
10377,33024
10378,33344
10379,33664
10380,33920
10381,34112
10382,34112
10383,34048
10384,33984
10385,33984
10386,33920
10387,33920
10388,33920
10389,33984
10390,33856
10391,33792
10392,33728
10393,33728
10394,33664
10395,33664
10396,33728
10397,33792
10398,33792
10399,33792
10400,33792
10401,33792
10402,33856
10403,33856
10404,33856
10405,33856
10406,33920
10407,33984
10408,33984
10409,33984
10410,34048
10411,34176
10412,34368
10413,34432
10414,34432
10415,34368
10416,34368
10417,34368
10418,34368
10419,34304
10420,34368
10421,34432
10422,34496
10423,34432
10424,34368
10425,34304
10426,34240
10427,34176
10428,33984
10429,33792
10430,33600
10431,33408
10432,33280
10433,33216
10434,33216
10435,33152
10436,33088
10437,33088
10438,33088
10439,33088
10440,33088
10441,33088
10442,33216
10443,33280
10444,33408
10445,33472
10446,33472
10447,33472
10448,33472
10449,33472
10450,33536
10451,33536
10452,33536
10453,33536
10454,33536
10455,33600
10456,33600
10457,33600
10458,33600
10459,33664
10460,33664
10461,33600
10462,33600
10463,33600
10464,33472
10465,33408
10466,33472
10467,33536
10468,33472
10469,33408
10470,33408
10471,33472
10472,33536
10473,33536
10474,33472
10475,33536
10476,33536
10477,33472
10478,33472
10479,33472
10480,33536
10481,33600
10482,33600
10483,33728
10484,33856
10485,33920
10486,33920
10487,33792
10488,33792
10489,33856
10490,33920
10491,33856
10492,33792
10493,33728
10494,33600
10495,33536
10496,33472
10497,33472
10498,33344
10499,33280
10500,33280
10501,33152
10502,33024
10503,32960
10504,33024
10505,33152
10506,33216
10507,33280
10508,33344
10509,33472
10510,33472
10511,33472
10512,33536
10513,33536
10514,33536
10515,33536
10516,33408
10517,33280
10518,32960
10519,32768
10520,32960
10521,33664
10522,35008
10523,36672
10524,38528
10525,40320
10526,41664
10527,41536
10528,39360
10529,36416
10530,33280
10531,30784
10532,29248
10533,28800
10534,29120
10535,29824
10536,30528
10537,31360
10538,32064
10539,32512
10540,32896
10541,33280
10542,33600
10543,33856
10544,33920
10545,33984
10546,33984
10547,33984
10548,33920
10549,33728
10550,33664
10551,33728
10552,33664
10553,33600
10554,33536
10555,33536
10556,33536
10557,33600
10558,33600
10559,33728
10560,33920
10561,33984
10562,33856
10563,33792
10564,33792
10565,33792
10566,33728
10567,33792
10568,33856
10569,33856
10570,33856
10571,33920
10572,33984
10573,33984
10574,33984
10575,34048
10576,34176
10577,34304
10578,34304
10579,34368
10580,34432
10581,34432
10582,34432
10583,34432
10584,34432
10585,34432
10586,34432
10587,34432
10588,34368
10589,34304
10590,34240
10591,34048
10592,33856
10593,33664
10594,33472
10595,33344
10596,33280
10597,33216
10598,33088
10599,32960
10600,32896
10601,32896
10602,32960
10603,33088
10604,33280
10605,33280
10606,33280
10607,33216
10608,33280
10609,33344
10610,33408
10611,33472
10612,33536
10613,33664
10614,33728
10615,33728
10616,33856
10617,33920
10618,33920
10619,33856
10620,33856
10621,33856
10622,33728
10623,33472
10624,33344
10625,33344
10626,33408
10627,33408
10628,33472
10629,33600
10630,33728
10631,33728
10632,33664
10633,33664
10634,33600
10635,33536
10636,33472
10637,33472
10638,33536
10639,33536
10640,33600
10641,33664
10642,33728
10643,33728
10644,33792
10645,33856
10646,33856
10647,33728
10648,33600
10649,33472
10650,33408
10651,33472
10652,33472
10653,33472
10654,33536
10655,33600
10656,33664
10657,33792
10658,33920
10659,33984
10660,33984
10661,33920
10662,33856
10663,33984
10664,34048
10665,33984
10666,33920
10667,33728
10668,33664
10669,33600
10670,33536
10671,33536
10672,33536
10673,33600
10674,33600
10675,33472
10676,33408
10677,33408
10678,33344
10679,33280
10680,33344
10681,33344
10682,33344
10683,33472
10684,33536
10685,33600
10686,33664
10687,33664
10688,33664
10689,33472
10690,33216
10691,32960
10692,32832
10693,33088
10694,33792
10695,35072
10696,36672
10697,38464
10698,40256
10699,41792
10700,41728
10701,39680
10702,36544
10703,33280
10704,30784
10705,29440
10706,29056
10707,29312
10708,29952
10709,30656
10710,31360
10711,32000
10712,32576
10713,32960
10714,33344
10715,33536
10716,33664
10717,33792
10718,33856
10719,33920
10720,33920
10721,33920
10722,33984
10723,33920
10724,33920
10725,33984
10726,33984
10727,33984
10728,33728
10729,33664
10730,33664
10731,33728
10732,33728
10733,33664
10734,33728
10735,33728
10736,33792
10737,33792
10738,33792
10739,33856
10740,33856
10741,33792
10742,33984
10743,34048
10744,34112
10745,34176
10746,34304
10747,34368
10748,34432
10749,34432
10750,34496
10751,34496
10752,34432
10753,34432
10754,34496
10755,34496
10756,34432
10757,34368
10758,34304
10759,34368
10760,34240
10761,34176
10762,34048
10763,33920
10764,33856
10765,33728
10766,33664
10767,33600
10768,33408
10769,33216
10770,33152
10771,33152
10772,33152
10773,33088
10774,33088
10775,33152
10776,33280
10777,33344
10778,33408
10779,33472
10780,33472
10781,33344
10782,33344
10783,33408
10784,33472
10785,33600
10786,33536
10787,33728
10788,33792
10789,33728
10790,33728
10791,33728
10792,33728
10793,33664
10794,33664
10795,33664
10796,33728
10797,33792
10798,33728
10799,33664
10800,33600
10801,33536
10802,33536
10803,33536
10804,33600
10805,33664
10806,33664
10807,33728
10808,33728
10809,33728
10810,33728
10811,33728
10812,33728
10813,33728
10814,33664
10815,33664
10816,33664
10817,33728
10818,33792
10819,33920
10820,33920
10821,33856
10822,33856
10823,33856
10824,33920
10825,33984
10826,34048
10827,34112
10828,34176
10829,34240
10830,34176
10831,33984
10832,33920
10833,33728
10834,33664
10835,33600
10836,33536
10837,33536
10838,33472
10839,33472
10840,33472
10841,33536
10842,33536
10843,33536
10844,33536
10845,33600
10846,33664
10847,33728
10848,33728
10849,33792
10850,33792
10851,33792
10852,33792
10853,33664
10854,33472
10855,33216
10856,33152
10857,33344
10858,34176
10859,35520
10860,37440
10861,37568
10862,40960
10863,41984
10864,41152
10865,38656
10866,35392
10867,32576
10868,30400
10869,29248
10870,29056
10871,29056
10872,30336
10873,31104
10874,31808
10875,32576
10876,32576
10877,33472
10878,33856
10879,34048
10880,34240
10881,34240
10882,34240
10883,34240
10884,34176
10885,34176
10886,34240
10887,34240
10888,34112
10889,34048
10890,33984
10891,33856
10892,33792
10893,33792
10894,33856
10895,33920
10896,34048
10897,34112
10898,34048
10899,34048
10900,34112
10901,34048
10902,33920
10903,33920
10904,33984
10905,34112
10906,34176
10907,34304
10908,34432
10909,34432
10910,34432
10911,34432
10912,34496
10913,34496
10914,34496
10915,34560
10916,34624
10917,34624
10918,34624
10919,34624
10920,34624
10921,34560
10922,34496
10923,34432
10924,34368
