,ECG
0,34368
1,34560
2,34752
3,34944
4,35136
5,35200
6,35072
7,34944
8,34880
9,34624
10,34304
11,34112
12,34176
13,34240
14,34304
15,34432
16,34752
17,35008
18,34816
19,34496
20,34496
21,34624
22,34432
23,34240
24,34240
25,34432
26,34560
27,34752
28,34944
29,35008
30,35008
31,35008
32,35008
33,34944
34,35008
35,35072
36,35072
37,34880
38,34752
39,34688
40,34624
41,34624
42,34624
43,34560
44,34496
45,34432
46,34496
47,34496
48,34368
49,34176
50,33984
51,33792
52,33664
53,33600
54,33472
55,33344
56,33280
57,33280
58,33280
59,33216
60,33280
61,33344
62,33408
63,33472
64,33536
65,33536
66,33536
67,33600
68,33664
69,33792
70,33984
71,34240
72,34240
73,34176
74,34176
75,34176
76,34048
77,34048
78,34048
79,34048
80,34112
81,34048
82,33984
83,34112
84,34176
85,34048
86,33920
87,33792
88,33792
89,33792
90,33856
91,33856
92,33856
93,33920
94,33920
95,33792
96,33792
97,33920
98,34048
99,34112
100,34112
101,34048
102,34112
103,33984
104,33920
105,33792
106,33728
107,33728
108,33792
109,33728
110,33664
111,33536
112,33536
113,33408
114,33216
115,33024
116,32960
117,33024
118,33088
119,33152
120,33280
121,33472
122,33600
123,33536
124,33472
125,33344
126,33152
127,33088
128,33088
129,33024
130,32768
131,32320
132,32192
133,32576
134,33280
135,34560
136,36224
137,38016
138,39872
139,41088
140,40832
141,38976
142,36032
143,32640
144,30528
145,29184
146,28864
147,29248
148,29888
149,30464
150,31168
151,31808
152,32384
153,32832
154,33088
155,33344
156,33408
157,33472
158,33664
159,33664
160,33536
161,33472
162,33408
163,33344
164,33216
165,33088
166,33152
167,33344
168,33408
169,33472
170,33600
171,33664
172,33600
173,33536
174,33664
175,33664
176,33536
177,33408
178,33280
179,33280
180,33344
181,33408
182,33408
183,33536
184,33600
185,33664
186,33792
187,33920
188,34048
189,33984
190,33920
191,33856
192,33984
193,34240
194,34240
195,34304
196,34624
197,34624
198,34368
199,33984
200,33728
201,33792
202,33984
203,34048
204,33984
205,33920
206,33920
207,33600
208,33408
209,33280
210,33152
211,32896
212,32640
213,32704
214,32640
215,32704
216,32832
217,33024
218,33024
219,32896
220,32768
221,32768
222,32832
223,32960
224,33088
225,33216
226,33344
227,33472
228,33600
229,33600
230,33536
231,33536
232,33536
233,33664
234,33728
235,33728
236,33664
237,33536
238,33472
239,33472
240,33472
241,33280
242,33152
243,33152
244,33152
245,33088
246,33152
247,33152
248,33216
249,33216
250,33344
251,33344
252,33280
253,33280
254,33472
255,33728
256,33728
257,33664
258,33664
259,33664
260,33536
261,33408
262,33408
263,33664
264,33728
265,33536
266,33216
267,33024
268,33024
269,33088
270,33344
271,33600
272,33600
273,33536
274,33472
275,33280
276,33152
277,33088
278,33088
279,33024
280,32960
281,33024
282,33088
283,33152
284,33152
285,33216
286,33216
287,33408
288,33536
289,33408
290,33216
291,32960
292,32768
293,32832
294,33472
295,34496
296,36032
297,37824
298,39872
299,41024
300,41408
301,40128
302,37440
303,34176
304,31360
305,29568
306,28864
307,28928
308,29504
309,30272
310,30912
311,31552
312,32128
313,32768
314,33216
315,33600
316,33856
317,33920
318,33984
319,34048
320,34112
321,34112
322,34112
323,34240
324,34368
325,34368
326,34240
327,34048
328,34048
329,34112
330,34112
331,33984
332,33856
333,33664
334,33664
335,33856
336,33920
337,33984
338,33984
339,33984
340,33920
341,34048
342,34176
343,34304
344,34368
345,34368
346,34432
347,34560
348,34752
349,34816
350,34880
351,34944
352,34880
353,34624
354,34304
355,34048
356,33984
357,33920
358,33984
359,34112
360,34112
361,34240
362,34432
363,34560
364,34496
365,34304
366,34048
367,33600
368,33280
369,33088
370,33024
371,33088
372,33344
373,33536
374,33600
375,33344
376,33024
377,32832
378,32960
379,33280
380,33792
381,34304
382,34752
383,34944
384,34880
385,34688
386,34496
387,34368
388,34368
389,34368
390,34432
391,34496
392,34496
393,34432
394,34368
395,34176
396,33984
397,33664
398,33472
399,33536
400,33600
401,33728
402,33792
403,33920
404,33984
405,33984
406,34112
407,34240
408,34304
409,34176
410,34112
411,34048
412,33984
413,33984
414,34112
415,34176
416,34368
417,34496
418,34624
419,34880
420,35072
421,35200
422,35072
423,34880
424,34624
425,34432
426,34368
427,34240
428,34048
429,33792
430,33600
431,33536
432,33536
433,33536
434,33536
435,33600
436,33664
437,33728
438,33920
439,34048
440,34240
441,34304
442,34112
443,33920
444,33792
445,33856
446,33792
447,33472
448,33152
449,33152
450,33600
451,34432
452,35840
453,37504
454,39104
455,40448
456,40960
457,39872
458,37568
459,34560
460,31680
461,29760
462,28928
463,28992
464,29632
465,30400
466,31232
467,31872
468,32448
469,32896
470,33152
471,33344
472,33536
473,33728
474,33792
475,33664
476,33472
477,33344
478,33408
479,33408
480,33280
481,33152
482,33024
483,32960
484,32768
485,32448
486,32256
487,32128
488,32064
489,32064
490,32064
491,31936
492,31680
493,31488
494,31488
495,31808
496,32192
497,32512
498,32832
499,33024
500,33088
501,33216
502,33408
503,33600
504,33792
505,33984
506,34176
507,34368
508,34560
509,34688
510,34816
511,35072
512,35264
513,35392
514,35520
515,35520
516,35392
517,35072
518,34880
519,34752
520,34624
521,34432
522,34176
523,33920
524,33920
525,34048
526,34240
527,34368
528,34432
529,34432
530,34432
531,34368
532,34368
533,34368
534,34368
535,34560
536,34816
537,34944
538,34944
539,34880
540,34816
541,34624
542,34496
543,34304
544,34368
545,34560
546,34816
547,34944
548,35136
549,35200
550,35072
551,34944
552,34688
553,34496
554,34368
555,34368
556,34432
557,34560
558,34688
559,34688
560,34624
561,34624
562,34688
563,34688
564,34688
565,34560
566,34432
567,34496
568,34560
569,34496
570,34432
571,34368
572,34304
573,34176
574,33984
575,33920
576,34048
577,34112
578,33984
579,33664
580,33280
581,33152
582,33344
583,33600
584,33856
585,33984
586,33920
587,33856
588,33856
589,33920
590,33984
591,33984
592,33920
593,33856
594,33984
595,34176
596,34176
597,33856
598,33408
599,33280
600,33600
601,34432
602,35648
603,37056
604,38528
605,40128
606,41280
607,40960
608,38848
609,36032
610,33152
611,30912
612,29504
613,29120
614,29632
615,30528
616,31424
617,32320
618,32960
619,33344
620,33536
621,33664
622,33856
623,34048
624,34048
625,33984
626,33984
627,34176
628,34432
629,34496
630,34432
631,34304
632,34048
633,33856
634,33792
635,33856
636,33984
637,33984
638,33920
639,33792
640,33728
641,33728
642,33728
643,33792
644,33856
645,33920
646,34048
647,34048
648,34112
649,34304
650,34368
651,34304
652,34240
653,34368
654,34624
655,34752
656,34752
657,34752
658,34816
659,34752
660,34688
661,34624
662,34624
663,34560
664,34560
665,34560
666,34496
667,34368
668,34176
669,34048
670,34048
671,34048
672,33856
673,33536
674,33344
675,33280
676,33216
677,33280
678,33472
679,33600
680,33664
681,33600
682,33664
683,33728
684,33728
685,33664
686,33600
687,33664
688,33728
689,33792
690,33792
691,33728
692,33664
693,33600
694,33536
695,33600
696,33664
697,33728
698,33728
699,33728
700,33664
701,33600
702,33728
703,33792
704,33856
705,33856
706,33664
707,33472
708,33408
709,33472
710,33600
711,33792
712,33856
713,33920
714,33984
715,33920
716,33856
717,33856
718,33984
719,34048
720,33984
721,33856
722,33920
723,33984
724,34048
725,34112
726,34176
727,34112
728,33984
729,33856
730,33728
731,33728
732,33600
733,33536
734,33408
735,33344
736,33408
737,33472
738,33600
739,33664
740,33728
741,33728
742,33728
743,33728
744,33792
745,33984
746,33984
747,33856
748,33664
749,33536
750,33472
751,33536
752,33472
753,33280
754,33216
755,33600
756,34432
757,35840
758,37440
759,39040
760,40384
761,40896
762,39936
763,37760
764,35136
765,32576
766,30784
767,29760
768,29504
769,30016
770,30912
771,31808
772,32512
773,32768
774,32960
775,33280
776,33600
777,33920
778,34176
779,34432
780,34432
781,34304
782,34240
783,34240
784,34112
785,34048
786,33984
787,34048
788,34048
789,34112
790,34176
791,34176
792,33984
793,33856
794,33920
795,34112
796,34240
797,34368
798,34496
799,34560
800,34432
801,34176
802,33920
803,33856
804,33920
805,34048
806,34240
807,34304
808,34304
809,34432
810,34560
811,34624
812,34496
813,34432
814,34432
815,34432
816,34432
817,34304
818,34304
819,34304
820,34304
821,34304
822,34240
823,34240
824,34304
825,34304
826,34304
827,34176
828,34176
829,34240
830,34176
831,33984
832,33728
833,33536
834,33280
835,33152
836,33088
837,33152
838,33216
839,33344
840,33408
841,33536
842,33664
843,33792
844,33920
845,33984
846,33984
847,34048
848,33984
849,33920
850,33792
851,33856
852,33920
853,33984
854,33984
855,33920
856,33920
857,33856
858,33856
859,33856
860,33856
861,33984
862,34048
863,34048
864,34048
865,34048
866,34112
867,34176
868,34176
869,34304
870,34368
871,34304
872,34240
873,34240
874,34304
875,34432
876,34432
877,34368
878,34304
879,34176
880,34048
881,33984
882,33920
883,33792
884,33664
885,33536
886,33472
887,33536
888,33536
889,33600
890,33728
891,33792
892,33856
893,33856
894,33856
895,33984
896,34048
897,34048
898,33984
899,33984
900,33856
901,33664
902,33536
903,33472
904,33664
905,34048
906,34880
907,36096
908,37632
909,39296
910,40896
911,41792
912,41152
913,38912
914,36096
915,33344
916,31232
917,30080
918,29760
919,30144
920,30784
921,31424
922,32000
923,32640
924,33216
925,33792
926,34176
927,34432
928,34432
929,34304
930,34176
931,34304
932,34432
933,34560
934,34688
935,34560
936,34432
937,34304
938,34176
939,34048
940,33984
941,33984
942,33984
943,33984
944,34048
945,34112
946,34048
947,33920
948,33856
949,33792
950,33856
951,34048
952,34304
953,34496
954,34496
955,34432
956,34368
957,34368
958,34304
959,34176
960,34176
961,34240
962,34240
963,34176
964,34112
965,34112
966,34112
967,34048
968,33984
969,33984
970,33984
971,33984
972,33856
973,33728
974,33536
975,33472
976,33408
977,33344
978,33216
979,33088
980,32896
981,32768
982,32704
983,32704
984,32704
985,32768
986,32960
987,33088
988,33152
989,33216
990,33152
991,33152
992,33152
993,32960
994,32960
995,33024
996,33024
997,33024
998,33024
999,32896
1000,32832
1001,32896
1002,33152
1003,33408
1004,33664
1005,33728
1006,33664
1007,33600
1008,33536
1009,33536
1010,33536
1011,33536
1012,33472
1013,33472
1014,33472
1015,33536
1016,33600
1017,33664
1018,33728
1019,33792
1020,33792
1021,33792
1022,33728
1023,33600
1024,33664
1025,33728
1026,33792
1027,33664
1028,33600
1029,33536
1030,33728
1031,33920
1032,34048
1033,33920
1034,33728
1035,33472
1036,33344
1037,33152
1038,33088
1039,33216
1040,33472
1041,33600
1042,33472
1043,33216
1044,33024
1045,33024
1046,33088
1047,33152
1048,33280
1049,33472
1050,33664
1051,33728
1052,33792
1053,33728
1054,33600
1055,33536
1056,33536
1057,33472
1058,33280
1059,33024
1060,32960
1061,33344
1062,34048
1063,35072
1064,36544
1065,38336
1066,40128
1067,41216
1068,40640
1069,38400
1070,35392
1071,32448
1072,30336
1073,29248
1074,28992
1075,29312
1076,29888
1077,30592
1078,31360
1079,32064
1080,32640
1081,32960
1082,33152
1083,33344
1084,33472
1085,33536
1086,33600
1087,33728
1088,33920
1089,34240
1090,34368
1091,34112
1092,33728
1093,33536
1094,33472
1095,33536
1096,33600
1097,33600
1098,33664
1099,33728
1100,33728
1101,33728
1102,33600
1103,33536
1104,33600
1105,33728
1106,33856
1107,33856
1108,33856
1109,33856
1110,33792
1111,33792
1112,33856
1113,33792
1114,33792
1115,33728
1116,33984
1117,34304
1118,34496
1119,34624
1120,34688
1121,34688
1122,34560
1123,34368
1124,34240
1125,34176
1126,34112
1127,34048
1128,34048
1129,34048
1130,33984
1131,33920
1132,33920
1133,33856
1134,33728
1135,33536
1136,33408
1137,33344
1138,33280
1139,33280
1140,33344
1141,33344
1142,33152
1143,32960
1144,32960
1145,33216
1146,33600
1147,33792
1148,33856
1149,33856
1150,33856
1151,33856
1152,33856
1153,33920
1154,33920
1155,33984
1156,33920
1157,33856
1158,33856
1159,33856
1160,33856
1161,33856
1162,33920
1163,33984
1164,33920
1165,33792
1166,33728
1167,33728
1168,33792
1169,33856
1170,33920
1171,33920
1172,33856
1173,33728
1174,33664
1175,33664
1176,33728
1177,33728
1178,33792
1179,33856
1180,33920
1181,33984
1182,33984
1183,34048
1184,34048
1185,34112
1186,34112
1187,34240
1188,34240
1189,34176
1190,33984
1191,33856
1192,33856
1193,33792
1194,33728
1195,33600
1196,33536
1197,33408
1198,33344
1199,33216
1200,33216
1201,33216
1202,33280
1203,33408
1204,33536
1205,33600
1206,33600
1207,33536
1208,33536
1209,33472
1210,33536
1211,33728
1212,33920
1213,33920
1214,33728
1215,33408
1216,33216
1217,33280
1218,33664
1219,34688
1220,36032
1221,37824
1222,39680
1223,41600
1224,40128
1225,37440
1226,34432
1227,31808
1228,30144
1229,29312
1230,29312
1231,29440
1232,30912
1233,31744
1234,32448
1235,32960
1236,33280
1237,33536
1238,33920
1239,34240
1240,34432
1241,34496
1242,34496
1243,34432
1244,34368
1245,34368
1246,34304
1247,34240
1248,34176
1249,34112
1250,34048
1251,34048
1252,34048
1253,34112
1254,34176
1255,34304
1256,34368
1257,34432
1258,34432
1259,34304
1260,34240
1261,34176
1262,34240
1263,34304
1264,34240
1265,34432
1266,34432
1267,34432
1268,34688
1269,34944
1270,35008
1271,35072
1272,35072
1273,35008
1274,35008
1275,34944
1276,34944
1277,34880
1278,34816
1279,34816
1280,34816
1281,34816
1282,34752
1283,34752
1284,34688
1285,34624
1286,34560
1287,34496
1288,34432
1289,34368
1290,34304
1291,34240
1292,34048
1293,33792
1294,33664
1295,33664
1296,33792
1297,33856
1298,33920
1299,33920
1300,33856
1301,33792
1302,33792
1303,33728
1304,33792
1305,33920
1306,34048
1307,34176
1308,34368
1309,34432
1310,34432
1311,34304
1312,34240
1313,34240
1314,34368
1315,34432
1316,34496
1317,34432
1318,34304
1319,34176
1320,34112
1321,34048
1322,34176
1323,34368
1324,34368
1325,34304
1326,34176
1327,34112
1328,34112
1329,34176
1330,34176
1331,34176
1332,34304
1333,34368
1334,34368
1335,34304
1336,34432
1337,34560
1338,34752
1339,34816
1340,34752
1341,34496
1342,34368
1343,34240
1344,34176
1345,34048
1346,33984
1347,33984
1348,33984
1349,33984
1350,33856
1351,33728
1352,33664
1353,33664
1354,33600
1355,33600
1356,33664
1357,33728
1358,33856
1359,33984
1360,34112
1361,34240
1362,34368
1363,34432
1364,34496
1365,34432
1366,33920
1367,33408
1368,33152
1369,33408
1370,34112
1371,35328
1372,36864
1373,38656
1374,40384
1375,41664
1376,41600
1377,39936
1378,37312
1379,34112
1380,33728
1381,30720
1382,30144
1383,30208
1384,30656
1385,31232
1386,31872
1387,32512
1388,33088
1389,33472
1390,33792
1391,34112
1392,34304
1393,34432
1394,34560
1395,34560
1396,34496
1397,34432
1398,34368
1399,34240
1400,34112
1401,34112
1402,34240
1403,34304
1404,34240
1405,34112
1406,34048
1407,34048
1408,34048
1409,33984
1410,33984
1411,34048
1412,34112
1413,34176
1414,34240
1415,34176
1416,34112
1417,34048
1418,34048
1419,34048
1420,34112
1421,34112
1422,34176
1423,34176
1424,34176
1425,34176
1426,34240
1427,34304
1428,34432
1429,34432
1430,34368
1431,34304
1432,34176
1433,34112
1434,33984
1435,33984
1436,34112
1437,34176
1438,34176
1439,33984
1440,33920
1441,33728
1442,33600
1443,33600
1444,33536
1445,33536
1446,33536
1447,33408
1448,33344
1449,33280
1450,33216
1451,33152
1452,33088
1453,33088
1454,33152
1455,33152
1456,33216
1457,33280
1458,33472
1459,33536
1460,33600
1461,33664
1462,33728
1463,33728
1464,33792
1465,33792
1466,33792
1467,33792
1468,33792
1469,33792
1470,33728
1471,33664
1472,33600
1473,33664
1474,33664
1475,33728
1476,33728
1477,33728
1478,33728
1479,33664
1480,33600
1481,33536
1482,33536
1483,33472
1484,33536
1485,33472
1486,33536
1487,33472
1488,33344
1489,33408
1490,33472
1491,33664
1492,33856
1493,34048
1494,34112
1495,34240
1496,34368
1497,34432
1498,34432
1499,34368
1500,34112
1501,33856
1502,33728
1503,33664
1504,33600
1505,33536
1506,33472
1507,33408
1508,33280
1509,33152
1510,33088
1511,33024
1512,33024
1513,33152
1514,33280
1515,33472
1516,33536
1517,33664
1518,33792
1519,33792
1520,33792
1521,33856
1522,33856
1523,33856
1524,33664
1525,33408
1526,33152
1527,33024
1528,33216
1529,34240
1530,34304
1531,36544
1532,38336
1533,40256
1534,41344
1535,40896
1536,38720
1537,35840
1538,32832
1539,30592
1540,29312
1541,29056
1542,29504
1543,30272
1544,31552
1545,31616
1546,32640
1547,33152
1548,33536
1549,33664
1550,33664
1551,33472
1552,33408
1553,33536
1554,33856
1555,34304
1556,34304
1557,34048
1558,33664
1559,33472
1560,33408
1561,33408
1562,33408
1563,33536
1564,33600
1565,33664
1566,33600
1567,33408
1568,33344
1569,33280
1570,33344
1571,33600
1572,33856
1573,33984
1574,34176
1575,34176
1576,34496
1577,34624
1578,34688
1579,34688
1580,34688
1581,34688
1582,34624
1583,34624
1584,34624
1585,34560
1586,34560
1587,34560
1588,34624
1589,34624
1590,34624
1591,34496
1592,34304
1593,34240
1594,34240
1595,34304
1596,34240
1597,34176
1598,34048
1599,33984
1600,33792
1601,33600
1602,33408
1603,33280
1604,33152
1605,33088
1606,33088
1607,33024
1608,33088
1609,33216
1610,33600
1611,33920
1612,33984
1613,33856
1614,33664
1615,33600
1616,33600
1617,33600
1618,33600
1619,33600
1620,33664
1621,33664
1622,33728
1623,33856
1624,33920
1625,33984
1626,33984
1627,34112
1628,34112
1629,34048
1630,33984
1631,33920
1632,33920
1633,33984
1634,33984
1635,33984
1636,33920
1637,33856
1638,33856
1639,33856
1640,33856
1641,33856
1642,33920
1643,33920
1644,33984
1645,33984
1646,33984
1647,33984
1648,33984
1649,33984
1650,33984
1651,34048
1652,33984
1653,33984
1654,33920
1655,33856
1656,33792
1657,33856
1658,34112
1659,34304
1660,34432
1661,34560
1662,34688
1663,34752
1664,34688
1665,34496
1666,34304
1667,34112
1668,33920
1669,33856
1670,33792
1671,33856
1672,33856
1673,33856
1674,33728
1675,33600
1676,33600
1677,33728
1678,33856
1679,33920
1680,33984
1681,34048
1682,34112
1683,34240
1684,34240
1685,34368
1686,34368
1687,34304
1688,34112
1689,33984
1690,33664
1691,33472
1692,33600
1693,34240
1694,35392
1695,36864
1696,38592
1697,40448
1698,42112
1699,42304
1700,40576
1701,37568
1702,34368
1703,31616
1704,29952
1705,29312
1706,29504
1707,30144
1708,30912
1709,31680
1710,32256
1711,32768
1712,33216
1713,33600
1714,33856
1715,34048
1716,34048
1717,34048
1718,34112
1719,34048
1720,34048
1721,34112
1722,34176
1723,34304
1724,34368
1725,34432
1726,34496
1727,34560
1728,34752
1729,34816
1730,34816
1731,34816
1732,34752
1733,34688
1734,34624
1735,34624
1736,34560
1737,34496
1738,34368
1739,34240
1740,34048
1741,33984
1742,33920
1743,34048
1744,34176
1745,34176
1746,34240
1747,34304
1748,34432
1749,34496
1750,34560
1751,34560
1752,34496
1753,34432
1754,34368
1755,34368
1756,34432
1757,34496
1758,34432
1759,34304
1760,34240
1761,34176
1762,34112
1763,34048
1764,33920
1765,33792
1766,33728
1767,33536
1768,33472
1769,33472
1770,33408
1771,33408
1772,33408
1773,33408
1774,33472
1775,33472
1776,33472
1777,33472
1778,33536
1779,33600
1780,33728
1781,33792
1782,33856
1783,33792
1784,33728
1785,33728
1786,33728
1787,33728
1788,33728
1789,33728
1790,33728
1791,33728
1792,33728
1793,33792
1794,33856
1795,33920
1796,33856
1797,33856
1798,33728
1799,33600
1800,33600
1801,33792
1802,33920
1803,33984
1804,33984
1805,33920
1806,33920
1807,33920
1808,33856
1809,33856
1810,33856
1811,33920
1812,33984
1813,33920
1814,33856
1815,33856
1816,33856
1817,33792
1818,33856
1819,33856
1820,33920
1821,33920
1822,33984
1823,34176
1824,34304
1825,34432
1826,34368
1827,34304
1828,34176
1829,33984
1830,33856
1831,33728
1832,33728
1833,33664
1834,33600
1835,33600
1836,33600
1837,33472
1838,33408
1839,33408
1840,33472
1841,33472
1842,33472
1843,33472
1844,33536
1845,33664
1846,33792
1847,33856
1848,33984
1849,33984
1850,33920
1851,33728
1852,33472
1853,33152
1854,33088
1855,33344
1856,34112
1857,35392
1858,37120
1859,38784
1860,40576
1861,41664
1862,41024
1863,38592
1864,35776
1865,32832
1866,30656
1867,29440
1868,29120
1869,29504
1870,30144
1871,30848
1872,31488
1873,32192
1874,32832
1875,33344
1876,33664
1877,33856
1878,33984
1879,33984
1880,33984
1881,34048
1882,34048
1883,34048
1884,33984
1885,33920
1886,33856
1887,33856
1888,33792
1889,33728
1890,33728
1891,33664
1892,33664
1893,33600
1894,33536
1895,33536
1896,33600
1897,33664
1898,33728
1899,33856
1900,33856
1901,33856
1902,33856
1903,33920
1904,33920
1905,33984
1906,33984
1907,34048
1908,34048
1909,34112
1910,34112
1911,34176
1912,34176
1913,34176
1914,34112
1915,34176
1916,34176
1917,34112
1918,34112
1919,34112
1920,34112
1921,34112
1922,34112
1923,34112
1924,33984
1925,33920
1926,33792
1927,33728
1928,33600
1929,33472
1930,33344
1931,33280
1932,33152
1933,33088
1934,32960
1935,32896
1936,32896
1937,32896
1938,32960
1939,33024
1940,33216
1941,33280
1942,33280
1943,33344
1944,33408
1945,33408
1946,33408
1947,33408
1948,33472
1949,33472
1950,33408
1951,33344
1952,33344
1953,33408
1954,33472
1955,33472
1956,33472
1957,33536
1958,33472
1959,33472
1960,33472
1961,33536
1962,33536
1963,33536
1964,33600
1965,33664
1966,33728
1967,33664
1968,33536
1969,33472
1970,33408
1971,33408
1972,33408
1973,33536
1974,33536
1975,33536
1976,33472
1977,33472
1978,33536
1979,33600
1980,33600
1981,33600
1982,33600
1983,33600
1984,33600
1985,33600
1986,33600
1987,33536
1988,33536
1989,33600
1990,33600
1991,33600
1992,33664
1993,33664
1994,33728
1995,33792
1996,33856
1997,33920
1998,33920
1999,33920
2000,33920
2001,33920
2002,33984
2003,34048
2004,34176
2005,34304
2006,34368
2007,34304
2008,34176
2009,33984
2010,33920
2011,33920
2012,33984
2013,33984
2014,33920
2015,33856
2016,33728
2017,33664
2018,33600
2019,33600
2020,33728
2021,33856
2022,33920
2023,33984
2024,34048
2025,33984
2026,33984
2027,34048
2028,34112
2029,34176
2030,34112
2031,33920
2032,33664
2033,33408
2034,33472
2035,34112
2036,35200
2037,36800
2038,38592
2039,40448
2040,41856
2041,41920
2042,40192
2043,37312
2044,34240
2045,31744
2046,30208
2047,29568
2048,29760
2049,30528
2050,31168
2051,31936
2052,32640
2053,33152
2054,33664
2055,33984
2056,34304
2057,34432
2058,34560
2059,34560
2060,34496
2061,34496
2062,34496
2063,34432
2064,34368
2065,34432
2066,34432
2067,34432
2068,34368
2069,34368
2070,34304
2071,34240
2072,34240
2073,34304
2074,34304
2075,34176
2076,34176
2077,34240
2078,34304
2079,34304
2080,34368
2081,34432
2082,34496
2083,34496
2084,34496
2085,34560
2086,34624
2087,34624
2088,34688
2089,34688
2090,34752
2091,34752
2092,34752
2093,34752
2094,34688
2095,34688
2096,34624
2097,34624
2098,34624
2099,34624
2100,34624
2101,34624
2102,34688
2103,34624
2104,34624
2105,34560
2106,34496
2107,34368
2108,34240
2109,34112
2110,33984
2111,33920
2112,33856
2113,33856
2114,33792
2115,33664
2116,33536
2117,33536
2118,33600
2119,33728
2120,33728
2121,33728
2122,33792
2123,33856
2124,33856
2125,33920
2126,33984
2127,34048
2128,34112
2129,34112
2130,34112
2131,34176
2132,34240
2133,34176
2134,34176
2135,34112
2136,34176
2137,34112
2138,34112
2139,34112
2140,34048
2141,34048
2142,34048
2143,34048
2144,34048
2145,34112
2146,34048
2147,33984
2148,33920
2149,33984
2150,33984
2151,33984
2152,34048
2153,34048
2154,34048
2155,33984
2156,34048
2157,34048
2158,34112
2159,34112
2160,34176
2161,34240
2162,34240
2163,34304
2164,34432
2165,34432
2166,34368
2167,34240
2168,34112
2169,33984
2170,33856
2171,33728
2172,33664
2173,33600
2174,33536
2175,33408
2176,33280
2177,33344
2178,33472
2179,33536
2180,33664
2181,33728
2182,33728
2183,33792
2184,33792
2185,33856
2186,33856
2187,33856
2188,33792
2189,33728
2190,33600
2191,33344
2192,33024
2193,32832
2194,32896
2195,33408
2196,34368
2197,35904
2198,37696
2199,39488
2200,41088
2201,41728
2202,40576
2203,38080
2204,35072
2205,32320
2206,30272
2207,29248
2208,29184
2209,29696
2210,30464
2211,31040
2212,31616
2213,32192
2214,32640
2215,33088
2216,33408
2217,33664
2218,33920
2219,34112
2220,34176
2221,34176
2222,34112
2223,34048
2224,34048
2225,34048
2226,33984
2227,33984
2228,33920
2229,33792
2230,33664
2231,33664
2232,33664
2233,33728
2234,33728
2235,33792
2236,33920
2237,33920
2238,33920
2239,33984
2240,34048
2241,34112
2242,34176
2243,34176
2244,34176
2245,34176
2246,34240
2247,34304
2248,34368
2249,34368
2250,34304
2251,34304
2252,34368
2253,34496
2254,34496
2255,34560
2256,34560
2257,34560
2258,34496
2259,34496
2260,34496
2261,34560
2262,34560
2263,34368
2264,34176
2265,33920
2266,33664
2267,33472
2268,33344
2269,33216
2270,33088
2271,32960
2272,32896
2273,32960
2274,33024
2275,33024
2276,33088
2277,33088
2278,33088
2279,33088
2280,33152
2281,33280
2282,33408
2283,33472
2284,33536
2285,33536
2286,33536
2287,33408
2288,33280
2289,33216
2290,33216
2291,33280
2292,33280
2293,33344
2294,33408
2295,33472
2296,33536
2297,33664
2298,33728
2299,33600
2300,33472
2301,33408
2302,33344
2303,33216
2304,33088
2305,33024
2306,33088
2307,33088
2308,33216
2309,33280
2310,33344
2311,33408
2312,33344
2313,33344
2314,33472
2315,33472
2316,33344
2317,33280
2318,33280
2319,33216
2320,33216
2321,33344
2322,33344
2323,33344
2324,33280
2325,33280
2326,33344
2327,33280
2328,33280
2329,33280
2330,33344
2331,33344
2332,33280
2333,33280
2334,33280
2335,33280
2336,33344
2337,33408
2338,33600
2339,33728
2340,33856
2341,33856
2342,33920
2343,33920
2344,33920
2345,33920
2346,33856
2347,33728
2348,33664
2349,33600
2350,33600
2351,33600
2352,33664
2353,33664
2354,33600
2355,33472
2356,33408
2357,33216
2358,33152
2359,33024
2360,33088
2361,33152
2362,33216
2363,33280
2364,33408
2365,33472
2366,33600
2367,33728
2368,33792
2369,33664
2370,33408
2371,32960
2372,32768
2373,32896
2374,33344
2375,34368
2376,35904
2377,37696
2378,39488
2379,41024
2380,41344
2381,39744
2382,36992
2383,33856
2384,31232
2385,29568
2386,28992
2387,29120
2388,29760
2389,30464
2390,31104
2391,31680
2392,32192
2393,32704
2394,33088
2395,33472
2396,33664
2397,33664
2398,33664
2399,33664
2400,33664
2401,33664
2402,33728
2403,33728
2404,33792
2405,33792
2406,33728
2407,33728
2408,33728
2409,33728
2410,33664
2411,33664
2412,33728
2413,33856
2414,33856
2415,33856
2416,33920
2417,33920
2418,33920
2419,33984
2420,33984
2421,33984
2422,33984
2423,33984
2424,33984
2425,33984
2426,34048
2427,34112
2428,34240
2429,34304
2430,34368
2431,34432
2432,34432
2433,34432
2434,34432
2435,34432
2436,34432
2437,34496
2438,34496
2439,34560
2440,34624
2441,34560
2442,34368
2443,34304
2444,34304
2445,34176
2446,34048
2447,33920
2448,33856
2449,33728
2450,33600
2451,33472
2452,33408
2453,33408
2454,33344
2455,33344
2456,33408
2457,33408
2458,33408
2459,33472
2460,33536
2461,33664
2462,33728
2463,33728
2464,33792
2465,33856
2466,33856
2467,33920
2468,33920
2469,33920
2470,33920
2471,33856
2472,33920
2473,33920
2474,33920
2475,33920
2476,33920
2477,33920
2478,33920
2479,33856
2480,33856
2481,33856
2482,33920
2483,33920
2484,33984
2485,33984
2486,34048
2487,34048
2488,34048
2489,34048
2490,34048
2491,34048
2492,34048
2493,33984
2494,33920
2495,33856
2496,33792
2497,33792
2498,33792
2499,33792
2500,33856
2501,33856
2502,33920
2503,33856
2504,33920
2505,33920
2506,33984
2507,33920
2508,33920
2509,33984
2510,33984
2511,34048
2512,34048
2513,34048
2514,34048
2515,34112
2516,33984
2517,33984
2518,34112
2519,34240
2520,34304
2521,34240
2522,34304
2523,34368
2524,34432
2525,34432
2526,34432
2527,34368
2528,34240
2529,34112
2530,34048
2531,34048
2532,33984
2533,33920
2534,33792
2535,33792
2536,33728
2537,33728
2538,33664
2539,33728
2540,33792
2541,33792
2542,33792
2543,33856
2544,33856
2545,33792
2546,33792
2547,33792
2548,33856
2549,33856
2550,33728
2551,33472
2552,33344
2553,33472
2554,33792
2555,34752
2556,36224
2557,37952
2558,39808
2559,41408
2560,41984
2561,40768
2562,38016
2563,34880
2564,32128
2565,30272
2566,29440
2567,29376
2568,29952
2569,30720
2570,31552
2571,32320
2572,32896
2573,33280
2574,33536
2575,33728
2576,33920
2577,34176
2578,34368
2579,34496
2580,34496
2581,34496
2582,34432
2583,34368
2584,34304
2585,34240
2586,34240
2587,34176
2588,34112
2589,34112
2590,34112
2591,34112
2592,34048
2593,34048
2594,34176
2595,34240
2596,34304
2597,34304
2598,34240
2599,34240
2600,34240
2601,34304
2602,34432
2603,34496
2604,34432
2605,34368
2606,34368
2607,34432
2608,34368
2609,34432
2610,34560
2611,34624
2612,34688
2613,34688
2614,34688
2615,34688
2616,34688
2617,34688
2618,34688
2619,34752
2620,34688
2621,34560
2622,34496
2623,34432
2624,34304
2625,34176
2626,34112
2627,33984
2628,33856
2629,33728
2630,33664
2631,33600
2632,33536
2633,33536
2634,33472
2635,33536
2636,33536
2637,33536
2638,33536
2639,33600
2640,33536
2641,33536
2642,33472
2643,33536
2644,33600
2645,33664
2646,33728
2647,33792
2648,33856
2649,33856
2650,33856
2651,33856
2652,33792
2653,33792
2654,33856
2655,33920
2656,33920
2657,33856
2658,33792
2659,33792
2660,33792
2661,33728
2662,33792
2663,33792
2664,33856
2665,33792
2666,33728
2667,33664
2668,33664
2669,33664
2670,33664
2671,33536
2672,33536
2673,33536
2674,33600
2675,33664
2676,33664
2677,33664
2678,33536
2679,33472
2680,33472
2681,33536
2682,33472
2683,33408
2684,33472
2685,33536
2686,33664
2687,33728
2688,33728
2689,33792
2690,33856
2691,33792
2692,33792
2693,33920
2694,34048
2695,34112
2696,34048
2697,33920
2698,33792
2699,33664
2700,33600
2701,33408
2702,33280
2703,33216
2704,33152
2705,33088
2706,33024
2707,33024
2708,33088
2709,33216
2710,33408
2711,33472
2712,33536
2713,33600
2714,33536
2715,33344
2716,33152
2717,33024
2718,33024
2719,32960
2720,32832
2721,32704
2722,32576
2723,32704
2724,33216
2725,34176
2726,35840
2727,37760
2728,39744
2729,41728
2730,41920
2731,40384
2732,37312
2733,33856
2734,31168
2735,29568
2736,29120
2737,29248
2738,29440
2739,29760
2740,30400
2741,31296
2742,32384
2743,33536
2744,34240
2745,34496
2746,34688
2747,34752
2748,34880
2749,35072
2750,35072
2751,34688
2752,34560
2753,34496
2754,34240
2755,33664
2756,33152
2757,32896
2758,32704
2759,32576
2760,32768
2761,33088
2762,33216
2763,33152
2764,33152
2765,33152
2766,33216
2767,33280
2768,33344
2769,33472
2770,33536
2771,33536
2772,33408
2773,33408
2774,33472
2775,33536
2776,33536
2777,33600
2778,33664
2779,33664
2780,33664
2781,33664
2782,33600
2783,33536
2784,33472
2785,33600
2786,33600
2787,33600
2788,33536
2789,33536
2790,33536
2791,33536
2792,33344
2793,33216
2794,33088
2795,32960
2796,32832
2797,32704
2798,32640
2799,32576
2800,32576
2801,32640
2802,32704
2803,32768
2804,32896
2805,33024
2806,33152
2807,33152
2808,33280
2809,33280
2810,33216
2811,33216
2812,33216
2813,33280
2814,33408
2815,33728
2816,34048
2817,34240
2818,34368
2819,34496
2820,34240
2821,33792
2822,33280
2823,33024
2824,32960
2825,33088
2826,33344
2827,33792
2828,34304
2829,34560
2830,34496
2831,34304
2832,34432
2833,34816
2834,35328
2835,35392
2836,35136
2837,34816
2838,34560
2839,34368
2840,34176
2841,33728
2842,33280
2843,33024
2844,32704
2845,32448
2846,32384
2847,32448
2848,32704
2849,33216
2850,33344
2851,33344
2852,33408
2853,33536
2854,33792
2855,33856
2856,33856
2857,33856
2858,33792
2859,33792
2860,33792
2861,33856
2862,33984
2863,34176
2864,34432
2865,34432
2866,34368
2867,34368
2868,34368
2869,34304
2870,34240
2871,34048
2872,33920
2873,33920
2874,34112
2875,34304
2876,34560
2877,34688
2878,34624
2879,34368
2880,34048
2881,33728
2882,33600
2883,33600
2884,33408
2885,33344
2886,33280
2887,33216
2888,33152
2889,33152
2890,33088
2891,32768
2892,32576
2893,32704
2894,32960
2895,33024
2896,33152
2897,33472
2898,33856
2899,34240
2900,34496
2901,34496
2902,34432
2903,34240
2904,34240
2905,34624
2906,35392
2907,36480
2908,38016
2909,40320
2910,41408
2911,42624
2912,42176
2913,39936
2914,36800
2915,33728
2916,31360
2917,30080
2918,29696
2919,29888
2920,30464
2921,31040
2922,31616
2923,32128
2924,32640
2925,33024
2926,33408
2927,33600
2928,33472
2929,33280
2930,33152
2931,33024
2932,32960
2933,32960
2934,33280
2935,33600
2936,33792
2937,33536
2938,33152
2939,33024
2940,32960
2941,32960
2942,33152
2943,33280
2944,33280
2945,33408
2946,33536
2947,33728
2948,33856
2949,34048
2950,34176
2951,34240
2952,34368
2953,34432
2954,34688
2955,34752
2956,34816
2957,34880
2958,34880
2959,34944
2960,35008
2961,35072
2962,35136
2963,35136
2964,35136
2965,35008
2966,34880
2967,34816
2968,34688
2969,34560
2970,34496
2971,34304
2972,34240
2973,34176
2974,34112
2975,33856
2976,33600
2977,33280
2978,32896
2979,32640
2980,32448
2981,32448
2982,32512
2983,32640
2984,32768
2985,32896
2986,33024
2987,33024
2988,33024
2989,32896
2990,32768
2991,32768
2992,32832
2993,32896
2994,32896
2995,32896
2996,32960
2997,33152
2998,33408
2999,33216
3000,33024
3001,32896
3002,33024
3003,33344
3004,33600
3005,33728
3006,33856
3007,33920
3008,33856
3009,33856
3010,33856
3011,33856
3012,33856
3013,33856
3014,33984
3015,33984
3016,34048
3017,33920
3018,33856
3019,33728
3020,33664
3021,33664
3022,33728
3023,33920
3024,33984
3025,33920
3026,33792
3027,33792
3028,33856
3029,33856
3030,33792
3031,33856
3032,33920
3033,33920
3034,33984
3035,34048
3036,34048
3037,33792
3038,33600
3039,33472
3040,33728
3041,34048
3042,34240
3043,34176
3044,34112
3045,33920
3046,33920
3047,33984
3048,34048
3049,33984
3050,33984
3051,34048
3052,34176
3053,34368
3054,34560
3055,34624
3056,34624
3057,34624
3058,34624
3059,34560
3060,34560
3061,34560
3062,34432
3063,34304
3064,34240
3065,34112
3066,34112
3067,34112
3068,34176
3069,34176
3070,34240
3071,34176
3072,34176
3073,34112
3074,34048
3075,33984
3076,33920
3077,33792
3078,33664
3079,33600
3080,33536
3081,33600
3082,33984
3083,34880
3084,36288
3085,37952
3086,39680
3087,41216
3088,41728
3089,40384
3090,37824
3091,34752
3092,32000
3093,30208
3094,30144
3095,29824
3096,30400
3097,31040
3098,31680
3099,32256
3100,32832
3101,33344
3102,33728
3103,34048
3104,34240
3105,34368
3106,34432
3107,34560
3108,34624
3109,34624
3110,34560
3111,34496
3112,34432
3113,34432
3114,34432
3115,34496
3116,34496
3117,34496
3118,34432
3119,34368
3120,34368
3121,34368
3122,34432
3123,34432
3124,34368
3125,34368
3126,34368
3127,34304
3128,34176
3129,34112
3130,34112
3131,34176
3132,34240
3133,34304
3134,34368
3135,34432
3136,34432
3137,34496
3138,34560
3139,34688
3140,34816
3141,34816
3142,34752
3143,34752
3144,34816
3145,34816
3146,34816
3147,34816
3148,34752
3149,34624
3150,34496
3151,34432
3152,34368
3153,34176
3154,33984
3155,33856
3156,33728
3157,33600
3158,33536
3159,33472
3160,33408
3161,33408
3162,33408
3163,33600
3164,33536
3165,33600
3166,33792
3167,33728
3168,33728
3169,33728
3170,33728
3171,33792
3172,33984
3173,34176
3174,34304
3175,34432
3176,34496
3177,34560
3178,34560
3179,34496
3180,34560
3181,34624
3182,34496
3183,34304
3184,34240
3185,34240
3186,34304
3187,34368
3188,34304
3189,34176
3190,34048
3191,34112
3192,34176
3193,34176
3194,34112
3195,33984
3196,33856
3197,33664
3198,33536
3199,33536
3200,33664
3201,33792
3202,34048
3203,34304
3204,34624
3205,34880
3206,35264
3207,35840
3208,36672
3209,36672
3210,37312
3211,37376
3212,37184
3213,36992
3214,36800
3215,36672
3216,36544
3217,36416
3218,36352
3219,36288
3220,36288
3221,36224
3222,36032
3223,35584
3224,35456
3225,35072
3226,34752
3227,34368
3228,33856
3229,33408
3230,33024
3231,32768
3232,32384
3233,32128
3234,32064
3235,32192
3236,32448
3237,32704
3238,33024
3239,33344
3240,33664
3241,33920
3242,34176
3243,34240
3244,34240
3245,34048
3246,33984
3247,33984
3248,34176
3249,34240
3250,34176
3251,33984
3252,33600
3253,33344
3254,33280
3255,33984
3256,35072
3257,36416
3258,37952
3259,39488
3260,41088
3261,42112
3262,41472
3263,39104
3264,35904
3265,32768
3266,30464
3267,29184
3268,28928
3269,29248
3270,29824
3271,30464
3272,31040
3273,31616
3274,31936
3275,32192
3276,32384
3277,32576
3278,32768
3279,32960
3280,33152
3281,33280
3282,33344
3283,33408
3284,33408
3285,33408
3286,33344
3287,33344
3288,33344
3289,33408
3290,33408
3291,33408
3292,33408
3293,33408
3294,33408
3295,33472
3296,33536
3297,33728
3298,33856
3299,33856
3300,33728
3301,33600
3302,33536
3303,33536
3304,33600
3305,33664
3306,33664
3307,33600
3308,33536
3309,33536
3310,33536
3311,33600
3312,33600
3313,33600
3314,33664
3315,33664
3316,33664
3317,33664
3318,33600
3319,33600
3320,33664
3321,33664
3322,33664
3323,33664
3324,33600
3325,33536
3326,33472
3327,33408
3328,33344
3329,33280
3330,33152
3331,32960
3332,32896
3333,32832
3334,32896
3335,32896
3336,32768
3337,32768
3338,32832
3339,32832
3340,32896
3341,32896
3342,32960
3343,33024
3344,33088
3345,33152
3346,33152
3347,33088
3348,33088
3349,33024
3350,33024
3351,32960
3352,32960
3353,32960
3354,32960
3355,33088
3356,33216
3357,33280
3358,33280
3359,33216
3360,33216
3361,33216
3362,33152
3363,33152
3364,33216
3365,33344
3366,33344
3367,33408
3368,33472
3369,33472
3370,33408
3371,33408
3372,33472
3373,33472
3374,33408
3375,33280
3376,33280
3377,33280
3378,33344
3379,33408
3380,33536
3381,33600
3382,33536
3383,33472
3384,33344
3385,33344
3386,33408
3387,33472
3388,33472
3389,33536
3390,33536
3391,33664
3392,33664
3393,33792
3394,33920
3395,33920
3396,33920
3397,33792
3398,33664
3399,33536
3400,33472
3401,33408
3402,33408
3403,33344
3404,33344
3405,33344
3406,33408
3407,33344
3408,33280
3409,33088
3410,32896
3411,32832
3412,32896
3413,33024
3414,33152
3415,33280
3416,33344
3417,33472
3418,33664
3419,33792
3420,33728
3421,33408
3422,33088
3423,32768
3424,32704
3425,33088
3426,34112
3427,35648
3428,37504
3429,39360
3430,40896
3431,41344
3432,39872
3433,37120
3434,33920
3435,31424
3436,29824
3437,29184
3438,29312
3439,29952
3440,30656
3441,31360
3442,32000
3443,32512
3444,32960
3445,33280
3446,33600
3447,33856
3448,34048
3449,34048
3450,34048
3451,34048
3452,34048
3453,33920
3454,33792
3455,33728
3456,33664
3457,33664
3458,33600
3459,33600
3460,33600
3461,33600
3462,33664
3463,33600
3464,33728
3465,33792
3466,33792
3467,33728
3468,33664
3469,33600
3470,33728
3471,33856
3472,33920
3473,33920
3474,33920
3475,33792
3476,33728
3477,33728
3478,33792
3479,33856
3480,33920
3481,33920
3482,33984
3483,34048
3484,34176
3485,34304
3486,34304
3487,34240
3488,34112
3489,34112
3490,34112
3491,34176
3492,34304
3493,34368
3494,34368
3495,34368
3496,34304
3497,34240
3498,34112
3499,34048
3500,33920
3501,33856
3502,33728
3503,33600
3504,33472
3505,33408
3506,33344
3507,33344
3508,33280
3509,33344
3510,33344
3511,33344
3512,33344
3513,33408
3514,33536
3515,33536
3516,33536
3517,33536
3518,33408
3519,33344
3520,33280
3521,33216
3522,33280
3523,33280
3524,33344
3525,33344
3526,33408
3527,33472
3528,33536
3529,33600
3530,33600
3531,33600
3532,33600
3533,33536
3534,33600
3535,33664
3536,33728
3537,33792
3538,33792
3539,33856
3540,33856
3541,33856
3542,33856
3543,33856
3544,33920
3545,33920
3546,33920
3547,33984
3548,34048
3549,34112
3550,34176
3551,34240
3552,34304
3553,34240
3554,33984
3555,33856
3556,33792
3557,33728
3558,33600
3559,33536
3560,33600
3561,33664
3562,33600
3563,33536
3564,33472
3565,33344
3566,33280
3567,33344
3568,33344
3569,33408
3570,33408
3571,33472
3572,33536
3573,33600
3574,33600
3575,33600
3576,33664
3577,33728
3578,33728
3579,33728
3580,33728
3581,33792
3582,33792
3583,33856
3584,33920
3585,33920
3586,33792
3587,33728
3588,33408
3589,33088
3590,33024
3591,33344
3592,34176
3593,35712
3594,37376
3595,39168
3596,40768
3597,41536
3598,40512
3599,37696
3600,34816
3601,32128
3602,30144
3603,29184
3604,29120
3605,29632
3606,30336
3607,31168
3608,31936
3609,32448
3610,33024
3611,33408
3612,33728
3613,33984
3614,34112
3615,34176
3616,34176
3617,34240
3618,34240
3619,34176
3620,34176
3621,34112
3622,34176
3623,34112
3624,33984
3625,33792
3626,33728
3627,33728
3628,33728
3629,33728
3630,33728
3631,33792
3632,33856
3633,33856
3634,33920
3635,33984
3636,34048
3637,34112
3638,34240
3639,34240
3640,34240
3641,34176
3642,34240
3643,34240
3644,34304
3645,34432
3646,34496
3647,34496
3648,34432
3649,34368
3650,34368
3651,34432
3652,34560
3653,34624
3654,34688
3655,34752
3656,34688
3657,34752
3658,34688
3659,34752
3660,34816
3661,34688
3662,34624
3663,34496
3664,34368
3665,34112
3666,33920
3667,33728
3668,33664
3669,33600
3670,33536
3671,33600
3672,33664
3673,33664
3674,33536
3675,33472
3676,33472
3677,33472
3678,33472
3679,33472
3680,33536
3681,33600
3682,33728
3683,33792
3684,33856
3685,33856
3686,33728
3687,33728
3688,33792
3689,33920
3690,34048
3691,34176
3692,34304
3693,34432
3694,34560
3695,34560
3696,34496
3697,34432
3698,34432
3699,34432
3700,34432
3701,34432
3702,34368
3703,34304
3704,34240
3705,34240
3706,34304
3707,34304
3708,34176
3709,34112
3710,33984
3711,33984
3712,33984
3713,34048
3714,34176
3715,34304
3716,34432
3717,34496
3718,34496
3719,34560
3720,34560
3721,34560
3722,34496
3723,34304
3724,34112
3725,34048
3726,33984
3727,33920
3728,33856
3729,33984
3730,34048
3731,33984
3732,33984
3733,33920
3734,33856
3735,33792
3736,33792
3737,33728
3738,33792
3739,33856
3740,33920
3741,33984
3742,33984
3743,34048
3744,34048
3745,33984
3746,33856
3747,33600
3748,33472
3749,33600
3750,34240
3751,35456
3752,37184
3753,39104
3754,40960
3755,42176
3756,41792
3757,39680
3758,36800
3759,33984
3760,31808
3761,30400
3762,29888
3763,30144
3764,30784
3765,31552
3766,32320
3767,33024
3768,33536
3769,33920
3770,34176
3771,34368
3772,34560
3773,34624
3774,34752
3775,34688
3776,34560
3777,34496
3778,34432
3779,34368
3780,34432
3781,34496
3782,34496
3783,34432
3784,34240
3785,34112
3786,34112
3787,34112
3788,34240
3789,34304
3790,34368
3791,34368
3792,34368
3793,34368
3794,34432
3795,34432
3796,34560
3797,34624
3798,34752
3799,34752
3800,34816
3801,34816
3802,34752
3803,34752
3804,34688
3805,34688
3806,34688
3807,34688
3808,34752
3809,34816
3810,34880
3811,34880
3812,34816
3813,34816
3814,34816
3815,34752
3816,34688
3817,34688
3818,34688
3819,34624
3820,34496
3821,34368
3822,34176
3823,34112
3824,33984
3825,33856
3826,33792
3827,33664
3828,33600
3829,33600
3830,33536
3831,33600
3832,33664
3833,33728
3834,33728
3835,33728
3836,33728
3837,33728
3838,33792
3839,33856
3840,33920
3841,33984
3842,34048
3843,34048
3844,34048
3845,33984
3846,33984
3847,34048
3848,34048
3849,34048
3850,34048
3851,33984
3852,33984
3853,33920
3854,33984
3855,33984
3856,33984
3857,33920
3858,33856
3859,33728
3860,33664
3861,33664
3862,33664
3863,33728
3864,33792
3865,33792
3866,33792
3867,33792
3868,33792
3869,33856
3870,33984
3871,33984
3872,34048
3873,34112
3874,34176
3875,34304
3876,34304
3877,34176
3878,33984
3879,33856
3880,33728
3881,33600
3882,33472
3883,33344
3884,33280
3885,33152
3886,33088
3887,33088
3888,33088
3889,33152
3890,33216
3891,33344
3892,33472
3893,33600
3894,33664
3895,33664
3896,33664
3897,33600
3898,33536
3899,33472
3900,33344
3901,33216
3902,33024
3903,32960
3904,33280
3905,33984
3906,35264
3907,36864
3908,38720
3909,40448
3910,41408
3911,40640
3912,38208
3913,35200
3914,32192
3915,30208
3916,29120
3917,28992
3918,29440
3919,30272
3920,30976
3921,31808
3922,32448
3923,32960
3924,33280
3925,33472
3926,33600
3927,33792
3928,33856
3929,33792
3930,33792
3931,33728
3932,33728
3933,33728
3934,33728
3935,33728
3936,33728
3937,33728
3938,33664
3939,33664
3940,33664
3941,33728
3942,33856
3943,33920
3944,33856
3945,33664
3946,33600
3947,33664
3948,33664
3949,33664
3950,33728
3951,33792
3952,33792
3953,33856
3954,33920
3955,34048
3956,34176
3957,34240
3958,34240
3959,34240
3960,34304
3961,34304
3962,34304
3963,34304
3964,34304
3965,34368
3966,34368
3967,34368
3968,34304
3969,34240
3970,34240
3971,34240
3972,34240
3973,34176
3974,33984
3975,33792
3976,33600
3977,33472
3978,33408
3979,33280
3980,33152
3981,33088
3982,33088
3983,33088
3984,33152
3985,33152
3986,33216
3987,33152
3988,33152
3989,33216
3990,33344
3991,33344
3992,33344
3993,33344
3994,33344
3995,33344
3996,33408
3997,33472
3998,33536
3999,33536
4000,33536
4001,33536
4002,33600
4003,33664
4004,33728
4005,33792
4006,33792
4007,33792
4008,33792
4009,33728
4010,33728
4011,33600
4012,33536
4013,33600
4014,33600
4015,33536
4016,33472
4017,33408
4018,33408
4019,33408
4020,33472
4021,33472
4022,33536
4023,33536
4024,33536
4025,33600
4026,33600
4027,33664
4028,33792
4029,33856
4030,33920
4031,33984
4032,33984
4033,34048
4034,34176
4035,34240
4036,34112
4037,33984
4038,33792
4039,33600
4040,33536
4041,33408
4042,33408
4043,33408
4044,33344
4045,33280
4046,33280
4047,33216
4048,33280
4049,33344
4050,33472
4051,33536
4052,33472
4053,33472
4054,33472
4055,33536
4056,33600
4057,33664
4058,33728
4059,33664
4060,33600
4061,33408
4062,33088
4063,32896
4064,32960
4065,33472
4066,34560
4067,36160
4068,38016
4069,39808
4070,41216
4071,41536
4072,40000
4073,37248
4074,33984
4075,31424
4076,29760
4077,29120
4078,29248
4079,29888
4080,30592
4081,31424
4082,32064
4083,32576
4084,32960
4085,33344
4086,33600
4087,33792
4088,33984
4089,34112
4090,34176
4091,34112
4092,33984
4093,33920
4094,33856
4095,33856
4096,33856
4097,33856
4098,33856
4099,33856
4100,33856
4101,33792
4102,33792
4103,33792
4104,33856
4105,33920
4106,33984
4107,33984
4108,33920
4109,33920
4110,33920
4111,33984
4112,34048
4113,34112
4114,34112
4115,34176
4116,34240
4117,34304
4118,34368
4119,34496
4120,34560
4121,34496
4122,34496
4123,34496
4124,34496
4125,34496
4126,34560
4127,34624
4128,34624
4129,34624
4130,34560
4131,34560
4132,34496
4133,34432
4134,34368
4135,34304
4136,34176
4137,34048
4138,33984
4139,33856
4140,33792
4141,33728
4142,33600
4143,33472
4144,33408
4145,33344
4146,33408
4147,33472
4148,33536
4149,33600
4150,33664
4151,33664
4152,33664
4153,33728
4154,33856
4155,33920
4156,34048
4157,34112
4158,34176
4159,34240
4160,34176
4161,34112
4162,34048
4163,34048
4164,33984
4165,34048
4166,34048
4167,34048
4168,34176
4169,34176
4170,34112
4171,34048
4172,33984
4173,33920
4174,33984
4175,34112
4176,34240
4177,34176
4178,34112
4179,33984
4180,33984
4181,33984
4182,33984
4183,33984
4184,33984
4185,34048
4186,34112
4187,34240
4188,34304
4189,34368
4190,34304
4191,34240
4192,34176
4193,34240
4194,34368
4195,34496
4196,34560
4197,34560
4198,34432
4199,34240
4200,34176
4201,34176
4202,34048
4203,33920
4204,33728
4205,33664
4206,33600
4207,33600
4208,33600
4209,33728
4210,33792
4211,33920
4212,33984
4213,33920
4214,33920
4215,33856
4216,33792
4217,33920
4218,33920
4219,33984
4220,33920
4221,33920
4222,33792
4223,33536
4224,33344
4225,33408
4226,33920
4227,35008
4228,36480
4229,38400
4230,40192
4231,41664
4232,41920
4233,40320
4234,37504
4235,34496
4236,31872
4237,30208
4238,29504
4239,29568
4240,30144
4241,30912
4242,31680
4243,32384
4244,32960
4245,33408
4246,33728
4247,34048
4248,34304
4249,34432
4250,34496
4251,34496
4252,34496
4253,34368
4254,34240
4255,34176
4256,34176
4257,34112
4258,34048
4259,34112
4260,34048
4261,34048
4262,34048
4263,34112
4264,34176
4265,34240
4266,34304
4267,34304
4268,34304
4269,34304
4270,34240
4271,34240
4272,34176
4273,34176
4274,34176
4275,34240
4276,34368
4277,34496
4278,34624
4279,34624
4280,34624
4281,34560
4282,34560
4283,34560
4284,34560
4285,34624
4286,34688
4287,34752
4288,34816
4289,34816
4290,34688
4291,34624
4292,34560
4293,34560
4294,34560
4295,34432
4296,34240
4297,34112
4298,33984
4299,33920
4300,33792
4301,33728
4302,33664
4303,33600
4304,33472
4305,33472
4306,33536
4307,33536
4308,33536
4309,33600
4310,33664
4311,33728
4312,33728
4313,33664
4314,33792
4315,33856
4316,33856
4317,33856
4318,33856
4319,33920
4320,33920
4321,33984
4322,34048
4323,34048
4324,34048
4325,34048
4326,33984
4327,33984
4328,33920
4329,33984
4330,34048
4331,33984
4332,33920
4333,33792
4334,33792
4335,33920
4336,33920
4337,33920
4338,33920
4339,33920
4340,33920
4341,33920
4342,33920
4343,33984
4344,33984
4345,33920
4346,33856
4347,33792
4348,33856
4349,33792
4350,33856
4351,33984
4352,34176
4353,34176
4354,34176
4355,34176
4356,34240
4357,34368
4358,34368
4359,34304
4360,34112
4361,33984
4362,33792
4363,33728
4364,33664
4365,33600
4366,33536
4367,33472
4368,33472
4369,33472
4370,33408
4371,33408
4372,33472
4373,33536
4374,33536
4375,33536
4376,33600
4377,33600
4378,33728
4379,33792
4380,33792
4381,33792
4382,33728
4383,33600
4384,33408
4385,33152
4386,33024
4387,33216
4388,33920
4389,35136
4390,36736
4391,38528
4392,40320
4393,41600
4394,41536
4395,39488
4396,36544
4397,33408
4398,30976
4399,29440
4400,28992
4401,29248
4402,29952
4403,30720
4404,31552
4405,32192
4406,32832
4407,33216
4408,33536
4409,33792
4410,33920
4411,34048
4412,34112
4413,34176
4414,34176
4415,34048
4416,33856
4417,33728
4418,33728
4419,33728
4420,33856
4421,33920
4422,33984
4423,33920
4424,33792
4425,33728
4426,33792
4427,33792
4428,33856
4429,33856
4430,33856
4431,33856
4432,33856
4433,33920
4434,33920
4435,33984
4436,34048
4437,34048
4438,34112
4439,34240
4440,34368
4441,34496
4442,34560
4443,34560
4444,34432
4445,34432
4446,34368
4447,34368
4448,34368
4449,34304
4450,34240
4451,34240
4452,34240
4453,34304
4454,34304
4455,34368
4456,34304
4457,34176
4458,34048
4459,33984
4460,33856
4461,33728
4462,33600
4463,33472
4464,33344
4465,33216
4466,33216
4467,33152
4468,33152
4469,33216
4470,33280
4471,33344
4472,33408
4473,33472
4474,33536
4475,33536
4476,33600
4477,33600
4478,33600
4479,33600
4480,33664
4481,33728
4482,33728
4483,33728
4484,33792
4485,33792
4486,33728
4487,33664
4488,33664
4489,33600
4490,33600
4491,33664
4492,33664
4493,33664
4494,33664
4495,33728
4496,33728
4497,33792
4498,33792
4499,33728
4500,33792
4501,33792
4502,33856
4503,33792
4504,33664
4505,33536
4506,33536
4507,33536
4508,33536
4509,33600
4510,33536
4511,33600
4512,33536
4513,33536
4514,33600
4515,33600
4516,33536
4517,33472
4518,33536
4519,33600
4520,33664
4521,33728
4522,33728
4523,33792
4524,33792
4525,33792
4526,33728
4527,33664
4528,33600
4529,33536
4530,33536
4531,33536
4532,33536
4533,33600
4534,33664
4535,33664
4536,33728
4537,33728
4538,33792
4539,33856
4540,33856
4541,33856
4542,33792
4543,33728
4544,33664
4545,33664
4546,33728
4547,33856
4548,33920
4549,33984
4550,33984
4551,33984
4552,34048
4553,34048
4554,34048
4555,34048
4556,34112
4557,34176
4558,34240
4559,34240
4560,34240
4561,34176
4562,34048
4563,33920
4564,33728
4565,33536
4566,33472
4567,33344
4568,33280
4569,33216
4570,33280
4571,33344
4572,33472
4573,33536
4574,33600
4575,33600
4576,33664
4577,33728
4578,33728
4579,33728
4580,33728
4581,33664
4582,33472
4583,33216
4584,33088
4585,33216
4586,33792
4587,34944
4588,36544
4589,38400
4590,40256
4591,41664
4592,41792
4593,39936
4594,37056
4595,33856
4596,31296
4597,29696
4598,29120
4599,29312
4600,29888
4601,30656
4602,31360
4603,32000
4604,32640
4605,33152
4606,33536
4607,33792
4608,33920
4609,33984
4610,34112
4611,34112
4612,34112
4613,34048
4614,33984
4615,33920
4616,33856
4617,33792
4618,33792
4619,33792
4620,33792
4621,33792
4622,33856
4623,33920
4624,33920
4625,33856
4626,33792
4627,33856
4628,33920
4629,33920
4630,33856
4631,33920
4632,33920
4633,33984
4634,34048
4635,34112
4636,34112
4637,34176
4638,34176
4639,34240
4640,34304
4641,34304
4642,34368
4643,34368
4644,34496
4645,34496
4646,34560
4647,34560
4648,34560
4649,34560
4650,34432
4651,34368
4652,34304
4653,34240
4654,34240
4655,34240
4656,34240
4657,34176
4658,34048
4659,33920
4660,33792
4661,33600
4662,33408
4663,33344
4664,33280
4665,33216
4666,33216
4667,33216
4668,33216
4669,33280
4670,33344
4671,33408
4672,33472
4673,33408
4674,33408
4675,33408
4676,33472
4677,33600
4678,33600
4679,33600
4680,33600
4681,33664
4682,33664
4683,33664
4684,33728
4685,33728
4686,33728
4687,33728
4688,33664
4689,33664
4690,33728
4691,33728
4692,33728
4693,33664
4694,33664
4695,33664
4696,33664
4697,33600
4698,33536
4699,33536
4700,33536
4701,33536
4702,33536
4703,33536
4704,33536
4705,33600
4706,33664
4707,33728
4708,33792
4709,33792
4710,33728
4711,33664
4712,33600
4713,33600
4714,33600
4715,33600
4716,33536
4717,33600
4718,33600
4719,33600
4720,33600
4721,33600
4722,33600
4723,33600
4724,33664
4725,33600
4726,33664
4727,33664
4728,33664
4729,33664
4730,33664
4731,33728
4732,33792
4733,33792
4734,33792
4735,33728
4736,33664
4737,33664
4738,33792
4739,33984
4740,34048
4741,34048
4742,34112
4743,34176
4744,34176
4745,34176
4746,34176
4747,34240
4748,34176
4749,34176
4750,34112
4751,34112
4752,34112
4753,34048
4754,33920
4755,33792
4756,33664
4757,33600
4758,33536
4759,33536
4760,33408
4761,33408
4762,33472
4763,33600
4764,33664
4765,33664
4766,33728
4767,33792
4768,33856
4769,33856
4770,33792
4771,33792
4772,33792
4773,33664
4774,33408
4775,33152
4776,33216
4777,33792
4778,34816
4779,36288
4780,38144
4781,40000
4782,41664
4783,42176
4784,40832
4785,38080
4786,34880
4787,32000
4788,30144
4789,29248
4790,29312
4791,29888
4792,30720
4793,31552
4794,32320
4795,32832
4796,33344
4797,33728
4798,34048
4799,34240
4800,34368
4801,34368
4802,34368
4803,34304
4804,34304
4805,34304
4806,34240
4807,34240
4808,34112
4809,34176
4810,34176
4811,34176
4812,34176
4813,34176
4814,34176
4815,34240
4816,34240
4817,34304
4818,34240
4819,34176
4820,34176
4821,34176
4822,34304
4823,34368
4824,34432
4825,34432
4826,34432
4827,34432
4828,34368
4829,34432
4830,34560
4831,34688
4832,34688
4833,34688
4834,34688
4835,34752
4836,34688
4837,34688
4838,34688
4839,34688
4840,34624
4841,34624
4842,34624
4843,34624
4844,34624
4845,34560
4846,34560
4847,34560
4848,34496
4849,34304
4850,34240
4851,34112
4852,33984
4853,33856
4854,33664
4855,33600
4856,33536
4857,33536
4858,33536
4859,33536
4860,33536
4861,33600
4862,33792
4863,33856
4864,33856
4865,33984
4866,33984
4867,34048
4868,33984
4869,33984
4870,33984
4871,34048
4872,34048
4873,34048
4874,34048
4875,34048
4876,34112
4877,34048
4878,34048
4879,34048
4880,34112
4881,34112
4882,34112
4883,34176
4884,34112
4885,34112
4886,34048
4887,33984
4888,34048
4889,34048
4890,34112
4891,34112
4892,34176
4893,34176
4894,34112
4895,33984
4896,33920
4897,33984
4898,33984
4899,33984
4900,33984
4901,33984
4902,34048
4903,34112
4904,34240
4905,34304
4906,34368
4907,34304
4908,34368
4909,34496
4910,34560
4911,34560
4912,34432
4913,34240
4914,34112
4915,34048
4916,33984
4917,33856
4918,33792
4919,33728
4920,33664
4921,33600
4922,33600
4923,33728
4924,33792
4925,33856
4926,33856
4927,33792
4928,33792
4929,33856
4930,33856
4931,33920
4932,33920
4933,33984
4934,33984
4935,33984
4936,33920
4937,33664
4938,33408
4939,33280
4940,33408
4941,34176
4942,35520
4943,37312
4944,39232
4945,41088
4946,42240
4947,41664
4948,39232
4949,36160
4950,33088
4951,30784
4952,29440
4953,29120
4954,29504
4955,30272
4956,31104
4957,31872
4958,32512
4959,33088
4960,33536
4961,33856
4962,34112
4963,34304
4964,34368
4965,34432
4966,34368
4967,34304
4968,34240
4969,34176
4970,34176
4971,34176
4972,34112
4973,34112
4974,34048
4975,34048
4976,34048
4977,34048
4978,33984
4979,33920
4980,33984
4981,33984
4982,33984
4983,34048
4984,34112
4985,34112
4986,34112
4987,34112
4988,34112
4989,34176
4990,34240
4991,34240
4992,34304
4993,34368
4994,34368
4995,34432
4996,34496
4997,34496
4998,34496
4999,34496
5000,34496
5001,34560
5002,34496
5003,34496
5004,34496
5005,34496
5006,34368
5007,34304
5008,34240
5009,34176
5010,34112
5011,33984
5012,33856
5013,33728
5014,33536
5015,33408
5016,33344
5017,33216
5018,33152
5019,33088
5020,33088
5021,33088
5022,33152
5023,33216
5024,33280
5025,33344
5026,33344
5027,33344
5028,33344
5029,33408
5030,33472
5031,33472
5032,33472
5033,33472
5034,33472
5035,33536
5036,33600
5037,33600
5038,33600
5039,33536
5040,33472
5041,33536
5042,33664
5043,33728
5044,33664
5045,33600
5046,33536
5047,33536
5048,33536
5049,33536
5050,33536
5051,33600
5052,33536
5053,33472
5054,33472
5055,33472
5056,33472
5057,33472
5058,33472
5059,33472
5060,33472
5061,33472
5062,33472
5063,33472
5064,33408
5065,33344
5066,33344
5067,33344
5068,33408
5069,33344
5070,33408
5071,33472
5072,33536
5073,33472
5074,33408
5075,33408
5076,33472
5077,33472
5078,33408
5079,33408
5080,33408
5081,33408
5082,33472
5083,33536
5084,33600
5085,33600
5086,33536
5087,33664
5088,33792
5089,33984
5090,34048
5091,33984
5092,33856
5093,33664
5094,33536
5095,33472
5096,33408
5097,33344
5098,33344
5099,33280
5100,33152
5101,33024
5102,33024
5103,33024
5104,33088
5105,33280
5106,33408
5107,33408
5108,33344
5109,33344
5110,33344
5111,33408
5112,33408
5113,33344
5114,33280
5115,33088
5116,32896
5117,32768
5118,32896
5119,33472
5120,34560
5121,36160
5122,38016
5123,40064
5124,41344
5125,41600
5126,40064
5127,37184
5128,34048
5129,31360
5130,29568
5131,28800
5132,28864
5133,29504
5134,30272
5135,31040
5136,31744
5137,32320
5138,32832
5139,33216
5140,33408
5141,33664
5142,33856
5143,34048
5144,34048
5145,33984
5146,33920
5147,33856
5148,33856
5149,33792
5150,33728
5151,33664
5152,33600
5153,33536
5154,33536
5155,33600
5156,33600
5157,33600
5158,33664
5159,33664
5160,33728
5161,33728
5162,33728
5163,33792
5164,33856
5165,33856
5166,33920
5167,33984
5168,33984
5169,33984
5170,33984
5171,34048
5172,34048
5173,34112
5174,34176
5175,34240
5176,34304
5177,34304
5178,34368
5179,34432
5180,34496
5181,34496
5182,34432
5183,34368
5184,34368
5185,34368
5186,34304
5187,34304
5188,34240
5189,34112
5190,33984
5191,33856
5192,33728
5193,33728
5194,33664
5195,33472
5196,33344
5197,33280
5198,33280
5199,33216
5200,33152
5201,33152
5202,33216
5203,33280
5204,33344
5205,33472
5206,33536
5207,33600
5208,33600
5209,33664
5210,33664
5211,33664
5212,33728
5213,33856
5214,33856
5215,33856
5216,33920
5217,33920
5218,33920
5219,33920
5220,33984
5221,33984
5222,33920
5223,33856
5224,33856
5225,33856
5226,33856
5227,33792
5228,33792
5229,33856
5230,33920
5231,34048
5232,34048
5233,33984
5234,33920
5235,33856
5236,33792
5237,33856
5238,33920
5239,33920
5240,33920
5241,33920
5242,33856
5243,33920
5244,33856
5245,33920
5246,33920
5247,33920
5248,33920
5249,33856
5250,33920
5251,33984
5252,33984
5253,33984
5254,33984
5255,33984
5256,33920
5257,33920
5258,33920
5259,33984
5260,34048
5261,34048
5262,33984
5263,33920
5264,33920
5265,33856
5266,33920
5267,34048
5268,34112
5269,34112
5270,34048
5271,33984
5272,33984
5273,33984
5274,33920
5275,33920
5276,33984
5277,34048
5278,34112
5279,34112
5280,34112
5281,34048
5282,33984
5283,34048
5284,34112
5285,34112
5286,34176
5287,34112
5288,34112
5289,34048
5290,34112
5291,34240
5292,34304
5293,34368
5294,34496
5295,34560
5296,34624
5297,34560
5298,34496
5299,34368
5300,34304
5301,34176
5302,34048
5303,33984
5304,33920
5305,33856
5306,33728
5307,33664
5308,33664
5309,33664
5310,33728
5311,33728
5312,33856
5313,33984
5314,34048
5315,34048
5316,34048
5317,34048
5318,33984
5319,33856
5320,33600
5321,33344
5322,33280
5323,33600
5324,34368
5325,35648
5326,37312
5327,39168
5328,40960
5329,42176
5330,41920
5331,39680
5332,36544
5333,33344
5334,30912
5335,29504
5336,29184
5337,29504
5338,30336
5339,31168
5340,31936
5341,32576
5342,33088
5343,33472
5344,33792
5345,34048
5346,34304
5347,34432
5348,34496
5349,34496
5350,34432
5351,34368
5352,34304
5353,34176
5354,34176
5355,34176
5356,34176
5357,34112
5358,34112
5359,34112
5360,34112
5361,34112
5362,34048
5363,34048
5364,34048
5365,34112
5366,34112
5367,34240
5368,34240
5369,34240
5370,34240
5371,34304
5372,34304
5373,34304
5374,34368
5375,34432
5376,34432
5377,34368
5378,34368
5379,34496
5380,34560
5381,34560
5382,34624
5383,34688
5384,34752
5385,34624
5386,34560
5387,34624
5388,34624
5389,34560
5390,34496
5391,34496
5392,34496
5393,34496
5394,34496
5395,34368
5396,34176
5397,33920
5398,33792
5399,33664
5400,33664
5401,33664
5402,33600
5403,33536
5404,33472
5405,33408
5406,33344
5407,33344
5408,33408
5409,33536
5410,33600
5411,33600
5412,33600
5413,33664
5414,33728
5415,33728
5416,33792
5417,33792
5418,33792
5419,33792
5420,33856
5421,33856
5422,33856
5423,33792
5424,33792
5425,33856
5426,33856
5427,33856
5428,33856
5429,33856
5430,33856
5431,33856
5432,33728
5433,33728
5434,33728
5435,33792
5436,33792
5437,33792
5438,33792
5439,33856
5440,33792
5441,33728
5442,33728
5443,33728
5444,33728
5445,33728
5446,33792
5447,33792
5448,33728
5449,33664
5450,33664
5451,33664
5452,33664
5453,33728
5454,33792
5455,33728
5456,33664
5457,33664
5458,33664
5459,33664
5460,33664
5461,33664
5462,33664
5463,33664
5464,33664
5465,33664
5466,33664
5467,33728
5468,33728
5469,33728
5470,33792
5471,33920
5472,33984
5473,33984
5474,34048
5475,34112
5476,34176
5477,34112
5478,34112
5479,34048
5480,33920
5481,33728
5482,33664
5483,33600
5484,33536
5485,33536
5486,33472
5487,33408
5488,33280
5489,33280
5490,33344
5491,33344
5492,33408
5493,33472
5494,33408
5495,33472
5496,33536
5497,33600
5498,33600
5499,33664
5500,33728
5501,33600
5502,33344
5503,32960
5504,32768
5505,32960
5506,33600
5507,34880
5508,36544
5509,38464
5510,40320
5511,41728
5512,41792
5513,39872
5514,36864
5515,33600
5516,30976
5517,29376
5518,28800
5519,29120
5520,29760
5521,30528
5522,31232
5523,31936
5524,32576
5525,33088
5526,33408
5527,33600
5528,33792
5529,33920
5530,33984
5531,33984
5532,33984
5533,33984
5534,33920
5535,33856
5536,33792
5537,33792
5538,33792
5539,33728
5540,33664
5541,33664
5542,33664
5543,33600
5544,33664
5545,33728
5546,33664
5547,33664
5548,33728
5549,33728
5550,33728
5551,33728
5552,33792
5553,33920
5554,33984
5555,34048
5556,34112
5557,34176
5558,34240
5559,34304
5560,34368
5561,34368
5562,34304
5563,34240
5564,34176
5565,34176
5566,34240
5567,34304
5568,34368
5569,34368
5570,34368
5571,34368
5572,34368
5573,34304
5574,34240
5575,34112
5576,34112
5577,33984
5578,33792
5579,33664
5580,33600
5581,33472
5582,33344
5583,33216
5584,33152
5585,33024
5586,32960
5587,33024
5588,33152
5589,33152
5590,33152
5591,33216
5592,33344
5593,33344
5594,33344
5595,33408
5596,33472
5597,33536
5598,33600
5599,33600
5600,33600
5601,33664
5602,33664
5603,33664
5604,33728
5605,33728
5606,33792
5607,33792
5608,33792
5609,33728
5610,33664
5611,33600
5612,33600
5613,33600
5614,33600
5615,33600
5616,33600
5617,33664
5618,33728
5619,33728
5620,33792
5621,33728
5622,33600
5623,33600
5624,33600
5625,33600
5626,33664
5627,33664
5628,33728
5629,33728
5630,33664
5631,33664
5632,33664
5633,33600
5634,33600
5635,33600
5636,33600
5637,33600
5638,33664
5639,33600
5640,33600
5641,33664
5642,33728
5643,33728
5644,33600
5645,33600
5646,33600
5647,33664
5648,33664
5649,33600
5650,33600
5651,33600
5652,33664
5653,33664
5654,33728
5655,33664
5656,33664
5657,33728
5658,33792
5659,33792
5660,33792
5661,33792
5662,33728
5663,33728
5664,33728
5665,33728
5666,33728
5667,33664
5668,33728
5669,33792
5670,33792
5671,33792
5672,33728
5673,33728
5674,33792
5675,33792
5676,33728
5677,33728
5678,33728
5679,33728
5680,33728
5681,33728
5682,33728
5683,33728
5684,33728
5685,33728
5686,33728
5687,33728
5688,33728
5689,33728
5690,33792
5691,33856
5692,33920
5693,33984
5694,33984
5695,33984
5696,34048
5697,34112
5698,34176
5699,34176
5700,34240
5701,34368
5702,34368
5703,34240
5704,34112
5705,33984
5706,33920
5707,33856
5708,33792
5709,33728
5710,33664
5711,33664
5712,33600
5713,33536
5714,33536
5715,33536
5716,33536
5717,33600
5718,33664
5719,33664
5720,33728
5721,33856
5722,33856
5723,33920
5724,33856
5725,33728
5726,33536
5727,33344
5728,33344
5729,33792
5730,34624
5731,35968
5732,37696
5733,39552
5734,41280
5735,42176
5736,41280
5737,38720
5738,35520
5739,32448
5740,30400
5741,29376
5742,29312
5743,29824
5744,30656
5745,31296
5746,32000
5747,32640
5748,33152
5749,33536
5750,33920
5751,34240
5752,34368
5753,34432
5754,34432
5755,34432
5756,34432
5757,34432
5758,34368
5759,34304
5760,34176
5761,34176
5762,34112
5763,34112
5764,34176
5765,34112
5766,34112
5767,34112
5768,34112
5769,34176
5770,34240
5771,34304
5772,34304
5773,34304
5774,34304
5775,34304
5776,34368
5777,34304
5778,34368
5779,34368
5780,34432
5781,34496
5782,34560
5783,34624
5784,34624
5785,34688
5786,34688
5787,34752
5788,34688
5789,34688
5790,34752
5791,34816
5792,34816
5793,34752
5794,34688
5795,34688
5796,34688
5797,34688
5798,34624
5799,34624
5800,34560
5801,34560
5802,34432
5803,34240
5804,34048
5805,33920
5806,33856
5807,33728
5808,33728
5809,33728
5810,33664
5811,33600
5812,33536
5813,33536
5814,33536
5815,33600
5816,33664
5817,33728
5818,33792
5819,33920
5820,33920
5821,33984
5822,34048
5823,34048
5824,34112
5825,34112
5826,34112
5827,34112
5828,34112
5829,34176
5830,34176
5831,34112
5832,34048
5833,34048
5834,34048
5835,34048
5836,34048
5837,34048
5838,34048
5839,34048
5840,34048
5841,34112
5842,34112
5843,34112
5844,34048
5845,34048
5846,34048
5847,34048
5848,34048
5849,34048
5850,34112
5851,34112
5852,34112
5853,34112
5854,34112
5855,34048
5856,33984
5857,33920
5858,33920
5859,33984
5860,34048
5861,34048
5862,34048
5863,34048
5864,33984
5865,33920
5866,33920
5867,33984
5868,34048
5869,34112
5870,34112
5871,34112
5872,34048
5873,34048
5874,33984
5875,33920
5876,33920
5877,33984
5878,33984
5879,34112
5880,34176
5881,34240
5882,34368
5883,34304
5884,34368
5885,34368
5886,34432
5887,34496
5888,34560
5889,34560
5890,34432
5891,34304
5892,34176
5893,34048
5894,33920
5895,33856
5896,33792
5897,33792
5898,33728
5899,33664
5900,33664
5901,33728
5902,33728
5903,33792
5904,33856
5905,33856
5906,33856
5907,33920
5908,33920
5909,33920
5910,33920
5911,33920
5912,33792
5913,33536
5914,33280
5915,33280
5916,33728
5917,34816
5918,36352
5919,38208
5920,40128
5921,41728
5922,42304
5923,40896
5924,38016
5925,34752
5926,31936
5927,30016
5928,29184
5929,29312
5930,29888
5931,30656
5932,31424
5933,32192
5934,32768
5935,33280
5936,33664
5937,33920
5938,34176
5939,34304
5940,34368
5941,34368
5942,34368
5943,34368
5944,34368
5945,34240
5946,34176
5947,34048
5948,34048
5949,33984
5950,33984
5951,33984
5952,33984
5953,33920
5954,33920
5955,33920
5956,33984
5957,33984
5958,34048
5959,34176
5960,34176
5961,34176
5962,34112
5963,34112
5964,34112
5965,34176
5966,34176
5967,34240
5968,34304
5969,34368
5970,34432
5971,34432
5972,34496
5973,34560
5974,34496
5975,34560
5976,34560
5977,34624
5978,34560
5979,34624
5980,34624
5981,34624
5982,34560
5983,34496
5984,34368
5985,34304
5986,34304
5987,34176
5988,34112
5989,33920
5990,33792
5991,33536
5992,33408
5993,33280
5994,33152
5995,33088
5996,33088
5997,33088
5998,33152
5999,33280
6000,33280
6001,33344
6002,33344
6003,33344
6004,33408
6005,33536
6006,33600
6007,33536
6008,33536
6009,33536
6010,33536
6011,33536
6012,33536
6013,33600
6014,33600
6015,33664
6016,33664
6017,33728
6018,33728
6019,33664
6020,33728
6021,33728
6022,33664
6023,33664
6024,33664
6025,33728
6026,33728
6027,33728
6028,33728
6029,33728
6030,33664
6031,33664
6032,33600
6033,33600
6034,33536
6035,33536
6036,33472
6037,33472
6038,33536
6039,33600
6040,33600
6041,33600
6042,33600
6043,33664
6044,33664
6045,33664
6046,33600
6047,33536
6048,33536
6049,33536
6050,33536
6051,33536
6052,33536
6053,33600
6054,33600
6055,33600
6056,33600
6057,33536
6058,33536
6059,33600
6060,33600
6061,33728
6062,33856
6063,33984
6064,33984
6065,33984
6066,34112
6067,34176
6068,34112
6069,33984
6070,33856
6071,33792
6072,33728
6073,33664
6074,33600
6075,33536
6076,33408
6077,33344
6078,33280
6079,33216
6080,33280
6081,33280
6082,33280
6083,33344
6084,33408
6085,33408
6086,33472
6087,33536
6088,33536
6089,33600
6090,33600
6091,33600
6092,33472
6093,33152
6094,32896
6095,32896
6096,33216
6097,34048
6098,35392
6099,37120
6100,39040
6101,40832
6102,41920
6103,41280
6104,37888
6105,35776
6106,32640
6107,30336
6108,29056
6109,28800
6110,29248
6111,30016
6112,30784
6113,31552
6114,32192
6115,32640
6116,33024
6117,33344
6118,33600
6119,33792
6120,33920
6121,34048
6122,34112
6123,34112
6124,34048
6125,33920
6126,33792
6127,33792
6128,33728
6129,33664
6130,33728
6131,33728
6132,33728
6133,33664
6134,33664
6135,33664
6136,33600
6137,33600
6138,33600
6139,33728
6140,33792
6141,33856
6142,33856
6143,33856
6144,33856
6145,33920
6146,33984
6147,34048
6148,34112
6149,34176
6150,34176
6151,34304
6152,34368
6153,34432
6154,34432
6155,34432
6156,34368
6157,34304
6158,34368
6159,34432
6160,34432
6161,34496
6162,34496
6163,34432
6164,34304
6165,34304
6166,34176
6167,34048
6168,33920
6169,33728
6170,33600
6171,33472
6172,33344
6173,33216
6174,33088
6175,33088
6176,33088
6177,33024
6178,32960
6179,33024
6180,33088
6181,33152
6182,33280
6183,33344
6184,33408
6185,33408
6186,33408
6187,33408
6188,33600
6189,33664
6190,33728
6191,33664
6192,33600
6193,33536
6194,33536
6195,33600
6196,33664
6197,33728
6198,33728
6199,33792
6200,33856
6201,33792
6202,33728
6203,33664
6204,33536
6205,33536
6206,33536
6207,33600
6208,33664
6209,33728
6210,33728
6211,33728
6212,33728
6213,33728
6214,33728
6215,33664
6216,33600
6217,33600
6218,33664
6219,33664
6220,33664
6221,33664
6222,33664
6223,33600
6224,33600
6225,33600
6226,33664
6227,33664
6228,33664
6229,33664
6230,33600
6231,33600
6232,33600
6233,33600
6234,33664
6235,33728
6236,33728
6237,33664
6238,33664
6239,33664
6240,33664
6241,33728
6242,33792
6243,33792
6244,33728
6245,33664
6246,33664
6247,33728
6248,33664
6249,33600
6250,33664
6251,33664
6252,33792
6253,33856
6254,33856
6255,33792
6256,33664
6257,33600
6258,33664
6259,33664
6260,33664
6261,33600
6262,33664
6263,33728
6264,33792
6265,33792
6266,33792
6267,33792
6268,33792
6269,33792
6270,33728
6271,33728
6272,33792
6273,33792
6274,33856
6275,33856
6276,33792
6277,33792
6278,33728
6279,33728
6280,33792
6281,33792
6282,33792
6283,33856
6284,33856
6285,33920
6286,33984
6287,34048
6288,34112
6289,34176
6290,34176
6291,34176
6292,34240
6293,34240
6294,34176
6295,34176
6296,34112
6297,34048
6298,33920
6299,33856
6300,33728
6301,33664
6302,33600
6303,33600
6304,33536
6305,33472
6306,33408
6307,33408
6308,33472
6309,33600
6310,33664
6311,33664
6312,33664
6313,33728
6314,33728
6315,33792
6316,33792
6317,33728
6318,33472
6319,33216
6320,33280
6321,33664
6322,34560
6323,35968
6324,37760
6325,39552
6326,41280
6327,42176
6328,41216
6329,38336
6330,35520
6331,32576
6332,30464
6333,29440
6334,29312
6335,29760
6336,30464
6337,31168
6338,31936
6339,32640
6340,33216
6341,33664
6342,33984
6343,34176
6344,34240
6345,34240
6346,34304
6347,34304
6348,34304
6349,34240
6350,34176
6351,34240
6352,34240
6353,34240
6354,34304
6355,34304
6356,34304
6357,34240
6358,34240
6359,34176
6360,34112
6361,34112
6362,34112
6363,34112
6364,34176
6365,34176
6366,34176
6367,34240
6368,34304
6369,34368
6370,34432
6371,34496
6372,34560
6373,34496
6374,34496
6375,34496
6376,34560
6377,34560
6378,34624
6379,34752
6380,34816
6381,34816
6382,34816
6383,34816
6384,34816
6385,34752
6386,34752
6387,34752
6388,34688
6389,34688
6390,34688
6391,34688
6392,34624
6393,34560
6394,34432
6395,34304
6396,34176
6397,33984
6398,33792
6399,33728
6400,33664
6401,33600
6402,33536
6403,33472
6404,33536
6405,33600
6406,33536
6407,33600
6408,33728
6409,33792
6410,33856
6411,33856
6412,33920
6413,33984
6414,33984
6415,33920
6416,33920
6417,33920
6418,34048
6419,34112
6420,34112
6421,34112
6422,34112
6423,34048
6424,33984
6425,34048
6426,34048
6427,34048
6428,34048
6429,34048
6430,33984
6431,34048
6432,34048
6433,33984
6434,34048
6435,34048
6436,34048
6437,34048
6438,34048
6439,34112
6440,34048
6441,34048
6442,34048
6443,34048
6444,33984
6445,33984
6446,33984
6447,33984
6448,33984
6449,33984
6450,34048
6451,33984
6452,33984
6453,33984
6454,33984
6455,33984
6456,33984
6457,34048
6458,34048
6459,34048
6460,33984
6461,33984
6462,33920
6463,33920
6464,33984
6465,34048
6466,34048
6467,34112
6468,34176
6469,34304
6470,34304
6471,34304
6472,34368
6473,34432
6474,34560
6475,34624
6476,34560
6477,34368
6478,34176
6479,34048
6480,34048
6481,33984
6482,33920
6483,33856
6484,33792
6485,33728
6486,33664
6487,33600
6488,33536
6489,33600
6490,33728
6491,33792
6492,33856
6493,33920
6494,33984
6495,33984
6496,34048
6497,34048
6498,33984
6499,33792
6500,33536
6501,33344
6502,33344
6503,33728
6504,34688
6505,36544
6506,38080
6507,40000
6508,41664
6509,42304
6510,40192
6511,38208
6512,35008
6513,32128
6514,30144
6515,29184
6516,29184
6517,29760
6518,30656
6519,31488
6520,32320
6521,32832
6522,33280
6523,33664
6524,33984
6525,34368
6526,34432
6527,34432
6528,34368
6529,34368
6530,34304
6531,34304
6532,34240
6533,34240
6534,34176
6535,34112
6536,33984
6537,34048
6538,34112
6539,34112
6540,34048
6541,33984
6542,33984
6543,33984
6544,34048
6545,34112
6546,34112
6547,34176
6548,34112
6549,34112
6550,34176
6551,34240
6552,34240
6553,34304
6554,34368
6555,34432
6556,34432
6557,34496
6558,34496
6559,34560
6560,34688
6561,34688
6562,34688
6563,34688
6564,34688
6565,34624
6566,34624
6567,34688
6568,34688
6569,34624
6570,34560
6571,34432
6572,34368
6573,34240
6574,34112
6575,33984
6576,33856
6577,33728
6578,33600
6579,33536
6580,33408
6581,33280
6582,33152
6583,33152
6584,33152
6585,33216
6586,33216
6587,33216
6588,33280
6589,33280
6590,33280
6591,33344
6592,33408
6593,33472
6594,33536
6595,33600
6596,33600
6597,33664
6598,33600
6599,33600
6600,33664
6601,33664
6602,33600
6603,33600
6604,33728
6605,33728
6606,33728
6607,33728
6608,33600
6609,33536
6610,33536
6611,33600
6612,33664
6613,33728
6614,33664
6615,33664
6616,33600
6617,33600
6618,33600
6619,33600
6620,33600
6621,33664
6622,33664
6623,33664
6624,33600
6625,33600
6626,33600
6627,33536
6628,33536
6629,33536
6630,33536
6631,33536
6632,33472
6633,33536
6634,33536
6635,33472
6636,33408
6637,33472
6638,33600
6639,33600
6640,33472
6641,33408
6642,33472
6643,33472
6644,33536
6645,33600
6646,33600
6647,33664
6648,33664
6649,33792
6650,33920
6651,33920
6652,33984
6653,34048
6654,34112
6655,34112
6656,33984
6657,33856
6658,33728
6659,33664
6660,33536
6661,33472
6662,33408
6663,33344
6664,33344
6665,33216
6666,33152
6667,33088
6668,33152
6669,33216
6670,33344
6671,33408
6672,33472
6673,33472
6674,33472
6675,33472
6676,33472
6677,33536
6678,33536
6679,33472
6680,33152
6681,33024
6682,33088
6683,33792
6684,33792
6685,35328
6686,38592
6687,40512
6688,41856
6689,41536
6690,41344
6691,36480
6692,33280
6693,30720
6694,29120
6695,29056
6696,29056
6697,29696
6698,30400
6699,31552
6700,31552
6701,31936
6702,32960
6703,33344
6704,33664
6705,33600
6706,33984
6707,34048
6708,34112
6709,34048
6710,33984
6711,33792
6712,33792
6713,33728
6714,33728
6715,33664
6716,33728
6717,33664
6718,33664
6719,33600
6720,33664
6721,33728
6722,33664
6723,33664
6724,33792
6725,33728
6726,33792
6727,33728
6728,33792
6729,33920
6730,33856
6731,33920
6732,33920
6733,33984
6734,34048
6735,33984
6736,34240
6737,34304
6738,34304
6739,34368
6740,34368
6741,34496
6742,34496
6743,34496
6744,34496
6745,34432
6746,34496
6747,34432
6748,34432
6749,34368
6750,34304
6751,34240
6752,34176
6753,34112
6754,34048
6755,33984
6756,33728
6757,33536
6758,33344
6759,33280
6760,33216
6761,33152
6762,33088
6763,33088
6764,33088
6765,33024
6766,33088
6767,33088
6768,33152
6769,33088
6770,33216
6771,33472
6772,33536
6773,33600
6774,33600
6775,33536
6776,33536
6777,33600
6778,33600
6779,33600
6780,33536
6781,33664
6782,33664
6783,33728
6784,33856
6785,33792
6786,33792
6787,33792
6788,33728
6789,33600
6790,33536
6791,33472
6792,33600
6793,33600
6794,33664
6795,33600
6796,33728
6797,33792
6798,33792
6799,33792
6800,33728
6801,33792
6802,33728
6803,33728
6804,33728
6805,33664
6806,33664
6807,33664
6808,33664
6809,33728
6810,33664
6811,33728
6812,33792
6813,33856
6814,33856
6815,33792
6816,33920
6817,33920
6818,33856
6819,33792
6820,33728
6821,33728
6822,33728
6823,33728
6824,33856
6825,33792
6826,33920
6827,33920
6828,33920
6829,33920
6830,33856
6831,33920
6832,33984
6833,33984
6834,33984
6835,33984
6836,33984
6837,33984
6838,33920
6839,33920
6840,33856
6841,33920
6842,33920
6843,33984
6844,33984
6845,33984
6846,34048
6847,34048
6848,34112
6849,34112
6850,34048
6851,34112
6852,34048
6853,34048
6854,34112
6855,34048
6856,33920
6857,33984
6858,34048
6859,34112
6860,34112
6861,34176
6862,34240
6863,34304
6864,34368
6865,34304
6866,34432
6867,34432
6868,34432
6869,34496
6870,34432
6871,34560
6872,34560
6873,34432
6874,34304
6875,34240
6876,34176
6877,34112
6878,34048
6879,33984
6880,33920
6881,33792
6882,33728
6883,33728
6884,33664
6885,33728
6886,33792
6887,33856
6888,33920
6889,33984
6890,33920
6891,34048
6892,34112
6893,34176
6894,33856
6895,33792
6896,33408
6897,33408
6898,33856
6899,34944
6900,36224
6901,38080
6902,40000
6903,41728
6904,42496
6905,41344
6906,38656
6907,35328
6908,32320
6909,29760
6910,29632
6911,29248
6912,29760
6913,30592
6914,31488
6915,32128
6916,32768
6917,33344
6918,33792
6919,34112
6920,34304
6921,34432
6922,34496
6923,34496
6924,34496
6925,34432
6926,34432
6927,34368
6928,34304
6929,34304
6930,34240
6931,34176
6932,34112
6933,34176
6934,34176
6935,34176
6936,34176
6937,34240
6938,34304
6939,34240
6940,34304
6941,34304
6942,34240
6943,34240
6944,34304
6945,34240
6946,34432
6947,34432
6948,34496
6949,34560
6950,34560
6951,34560
6952,34496
6953,34560
6954,34624
6955,34624
6956,34624
6957,34688
6958,34752
6959,34880
6960,34816
6961,34880
6962,34816
6963,34752
6964,34752
6965,34688
6966,34752
6967,34688
6968,34624
6969,34496
6970,34432
6971,34304
6972,34112
6973,33920
6974,33792
6975,33728
6976,33664
6977,33664
6978,33664
6979,33600
6980,33536
6981,33536
6982,33536
6983,33600
6984,33664
6985,33664
6986,33728
6987,33792
6988,33856
6989,33856
6990,33856
6991,33856
6992,33856
6993,33856
6994,33920
6995,33920
6996,34048
6997,33984
6998,33984
6999,34048
7000,33984
7001,34112
7002,33984
7003,33984
7004,33984
7005,33920
7006,33920
7007,33920
7008,33984
7009,34048
7010,33984
7011,33984
7012,33920
7013,33920
7014,33856
7015,33920
7016,33984
7017,34048
7018,33984
7019,33920
7020,33856
7021,33856
7022,33792
7023,33856
7024,33920
7025,33856
7026,33792
7027,33792
7028,33792
7029,33792
7030,33728
7031,33728
7032,33792
7033,33856
7034,33856
7035,33920
7036,34048
7037,34176
7038,34240
7039,34112
7040,34048
7041,34176
7042,34304
7043,34176
7044,34048
7045,33984
7046,33920
7047,33792
7048,33664
7049,33600
7050,33536
7051,33536
7052,33472
7053,33408
7054,33408
7055,33408
7056,33408
7057,33408
7058,33472
7059,33472
7060,33536
7061,33600
7062,33664
7063,33664
7064,33664
7065,33728
7066,33664
7067,33600
7068,33408
7069,33088
7070,32896
7071,33024
7072,33664
7073,35008
7074,36736
7075,38656
7076,40512
7077,41792
7078,41728
7079,39744
7080,36672
7081,33472
7082,30848
7083,29312
7084,28736
7085,29056
7086,29760
7087,30592
7088,31360
7089,32000
7090,32512
7091,32960
7092,33344
7093,33600
7094,33792
7095,33920
7096,34048
7097,34048
7098,33984
7099,33920
7100,33920
7101,33856
7102,33792
7103,33792
7104,33728
7105,33664
7106,33600
7107,33600
7108,33664
7109,33664
7110,33600
7111,33664
7112,33728
7113,33792
7114,33792
7115,33792
7116,33792
7117,33728
7118,33728
7119,33792
7120,33920
7121,33920
7122,33920
7123,33984
7124,34048
7125,34112
7126,34112
7127,34176
7128,34240
7129,34368
7130,34368
7131,34496
7132,34496
7133,34496
7134,34496
7135,34496
7136,34432
7137,34368
7138,34368
7139,34240
7140,34112
7141,34048
7142,34048
7143,33920
7144,33728
7145,33600
7146,33472
7147,33280
7148,33088
7149,33024
7150,32960
7151,32896
7152,32832
7153,32896
7154,32960
7155,33024
7156,33152
7157,33280
7158,33344
7159,33344
7160,33344
7161,33344
7162,33408
7163,33472
7164,33472
7165,33472
7166,33472
7167,33472
7168,33472
7169,33472
7170,33536
7171,33536
7172,33536
7173,33600
7174,33600
7175,33600
7176,33664
7177,33600
7178,33600
7179,33600
7180,33536
7181,33600
7182,33600
7183,33536
7184,33536
7185,33472
7186,33536
7187,33600
7188,33536
7189,33536
7190,33536
7191,33536
7192,33472
7193,33536
7194,33600
7195,33664
7196,33664
7197,33600
7198,33536
7199,33472
7200,33472
7201,33472
7202,33536
7203,33536
7204,33536
7205,33472
7206,33472
7207,33472
7208,33472
7209,33536
7210,33600
7211,33600
7212,33600
7213,33600
7214,33664
7215,33664
7216,33600
7217,33664
7218,33664
7219,33600
7220,33600
7221,33600
7222,33536
7223,33536
7224,33600
7225,33600
7226,33600
7227,33600
7228,33664
7229,33664
7230,33664
7231,33600
7232,33600
7233,33728
7234,33856
7235,33920
7236,33984
7237,34112
7238,34176
7239,34240
7240,34176
7241,34112
7242,34048
7243,33984
7244,33856
7245,33728
7246,33664
7247,33600
7248,33536
7249,33472
7250,33408
7251,33280
7252,33216
7253,33216
7254,33280
7255,33408
7256,33472
7257,33536
7258,33600
7259,33600
7260,33600
7261,33600
7262,33664
7263,33664
7264,33536
7265,33280
7266,33024
7267,32960
7268,33280
7269,34176
7270,35520
7271,37184
7272,38976
7273,40704
7274,41920
7275,41536
7276,39360
7277,36224
7278,32960
7279,30272
7280,29248
7281,28864
7282,29184
7283,29888
7284,30656
7285,31424
7286,32128
7287,32704
7288,33152
7289,33536
7290,33728
7291,33920
7292,33984
7293,34048
7294,34048
7295,34112
7296,34112
7297,34048
7298,33920
7299,33920
7300,33856
7301,33856
7302,33856
7303,33856
7304,33920
7305,33920
7306,33856
7307,33920
7308,33984
7309,33984
7310,33920
7311,33920
7312,34048
7313,34112
7314,34112
7315,34048
7316,33984
7317,34048
7318,34112
7319,34176
7320,34304
7321,34368
7322,34496
7323,34560
7324,34624
7325,34688
7326,34624
7327,34624
7328,34688
7329,34752
7330,34688
7331,34752
7332,34880
7333,34880
7334,34816
7335,34688
7336,34624
7337,34560
7338,34496
7339,34432
7340,34304
7341,34240
7342,34112
7343,33984
7344,33792
7345,33664
7346,33536
7347,33408
7348,33344
7349,33344
7350,33408
7351,33472
7352,33472
7353,33472
7354,33536
7355,33600
7356,33600
7357,33664
7358,33792
7359,33792
7360,33856
7361,33856
7362,33920
7363,33984
7364,33984
7365,33984
7366,33984
7367,33984
7368,33984
7369,34048
7370,34048
7371,34048
7372,33984
7373,33984
7374,33984
7375,34048
7376,34048
7377,34048
7378,34048
7379,34048
7380,33984
7381,33920
7382,33984
7383,33984
7384,34048
7385,34048
7386,33984
7387,33920
7388,33984
7389,33984
7390,33984
7391,34048
7392,34112
7393,33984
7394,33984
7395,33920
7396,33984
7397,33984
7398,33984
7399,33984
7400,33984
7401,33984
7402,33920
7403,33920
7404,33920
7405,33984
7406,33984
7407,34048
7408,34048
7409,34112
7410,33984
7411,33984
7412,33984
7413,33920
7414,33920
7415,33984
7416,34048
7417,34048
7418,34048
7419,34048
7420,34048
7421,34112
7422,34112
7423,34048
7424,34048
7425,34048
7426,34112
7427,34112
7428,34240
7429,34304
7430,34304
7431,34432
7432,34624
7433,34688
7434,34624
7435,34432
7436,34304
7437,34176
7438,34048
7439,33920
7440,33920
7441,33920
7442,33856
7443,33792
7444,33728
7445,33664
7446,33664
7447,33664
7448,33728
7449,33792
7450,33920
7451,34048
7452,34112
7453,34112
7454,34112
7455,34048
7456,33984
7457,33920
7458,33728
7459,33536
7460,33280
7461,33472
7462,34176
7463,35456
7464,37184
7465,39104
7466,40896
7467,42240
7468,42048
7469,39872
7470,36736
7471,33536
7472,31104
7473,29632
7474,29120
7475,29376
7476,30144
7477,30976
7478,31808
7479,32576
7480,33152
7481,33600
7482,33920
7483,34240
7484,34368
7485,34432
7486,34496
7487,34496
7488,34432
7489,34432
7490,34368
7491,34304
7492,34304
7493,34368
7494,34368
7495,34304
7496,34176
7497,33984
7498,33920
7499,33920
7500,33920
7501,33984
7502,34112
7503,34176
7504,34176
7505,34176
7506,34240
7507,34304
7508,34432
7509,34560
7510,34688
7511,34688
7512,34496
7513,34368
7514,34368
7515,34432
7516,34624
7517,34752
7518,34880
7519,35008
7520,35136
7521,35072
7522,34944
7523,34944
7524,35072
7525,35136
7526,35008
7527,34944
7528,34944
7529,35008
7530,35072
7531,35072
7532,35072
7533,35008
7534,34816
7535,34496
7536,34176
7537,33984
7538,33728
7539,33600
7540,33600
7541,33600
7542,33664
7543,33600
7544,33536
7545,33536
7546,33600
7547,33600
7548,33728
7549,33920
7550,34112
7551,34240
7552,34240
7553,34176
7554,33984
7555,33856
7556,33856
7557,33920
7558,33920
7559,33920
7560,33856
7561,33856
7562,33920
7563,33920
7564,33920
7565,33984
7566,34048
7567,34112
7568,33984
7569,33792
7570,33664
7571,33664
7572,33536
7573,33536
7574,33536
7575,33600
7576,33600
7577,33536
7578,33472
7579,33408
7580,33408
7581,33472
7582,33536
7583,33664
7584,33664
7585,33536
7586,33472
7587,33408
7588,33280
7589,33216
7590,33280
7591,33344
7592,33472
7593,33472
7594,33600
7595,33728
7596,33728
7597,33536
7598,33344
7599,33216
7600,33280
7601,33408
7602,33344
7603,33344
7604,33408
7605,33408
7606,33408
7607,33536
7608,33600
7609,33408
7610,33280
7611,33280
7612,33344
7613,33344
7614,33280
7615,33280
7616,33344
7617,33408
7618,33408
7619,33472
7620,33600
7621,33728
7622,33856
7623,33856
7624,33920
7625,33856
7626,33728
7627,33536
7628,33408
7629,33280
7630,33280
7631,33408
7632,33472
7633,33408
7634,33216
7635,33024
7636,32960
7637,32960
7638,33088
7639,33280
7640,33408
7641,33344
7642,33280
7643,33216
7644,33216
7645,33216
7646,33216
7647,33088
7648,33024
7649,33024
7650,33280
7651,33920
7652,35136
7653,36608
7654,38464
7655,40000
7656,41152
7657,41024
7658,39104
7659,36032
7660,33088
7661,30528
7662,28992
7663,28480
7664,28800
7665,29440
7666,30272
7667,31104
7668,31808
7669,32384
7670,32768
7671,33216
7672,33472
7673,33664
7674,33856
7675,33984
7676,33984
7677,34048
7678,34048
7679,33920
7680,33856
7681,33728
7682,33728
7683,33728
7684,33728
7685,33600
7686,33600
7687,33728
7688,33728
7689,33664
7690,33664
7691,33600
7692,33536
7693,33536
7694,33536
7695,33536
7696,33536
7697,33536
7698,33600
7699,33728
7700,33792
7701,33856
7702,33920
7703,33984
7704,34112
7705,34176
7706,34304
7707,34496
7708,34688
7709,34752
7710,34752
7711,34752
7712,34688
7713,34688
7714,34560
7715,34496
7716,34432
7717,34432
7718,34432
7719,34496
7720,34496
7721,34496
7722,34368
7723,34304
7724,34240
7725,34112
7726,34048
7727,33920
7728,33856
7729,33792
7730,33792
7731,33792
7732,33792
7733,33728
7734,33664
7735,33728
7736,33728
7737,33664
7738,33664
7739,33664
7740,33728
7741,33856
7742,33984
7743,34048
7744,34112
7745,34176
7746,34240
7747,34304
7748,34304
7749,34304
7750,34240
7751,34240
7752,34240
7753,34304
7754,34304
7755,34304
7756,34368
7757,34368
7758,34368
7759,34176
7760,34112
7761,34112
7762,34176
7763,34176
7764,34112
7765,34112
7766,34048
7767,34112
7768,34112
7769,34112
7770,34176
7771,34240
7772,34240
7773,34304
7774,34304
7775,34240
7776,34176
7777,34048
7778,34048
7779,34048
7780,34048
7781,34112
7782,34112
7783,34048
7784,33920
7785,33856
7786,33792
7787,33728
7788,33792
7789,33920
7790,33984
7791,34240
7792,34432
7793,34496
7794,34432
7795,34368
7796,34432
7797,34496
7798,34432
7799,34304
7800,34112
7801,33984
7802,33856
7803,33792
7804,33664
7805,33600
7806,33536
7807,33536
7808,33600
7809,33664
7810,33664
7811,33664
7812,33664
7813,33664
7814,33728
7815,33728
7816,33792
7817,33792
7818,33792
7819,33792
7820,33856
7821,33856
7822,33664
7823,33344
7824,33152
7825,33344
7826,33920
7827,34944
7828,36480
7829,38272
7830,40128
7831,41600
7832,41984
7833,40384
7834,37504
7835,34240
7836,31488
7837,29760
7838,29056
7839,29184
7840,29824
7841,30656
7842,31552
7843,32320
7844,32832
7845,33216
7846,33472
7847,33664
7848,33856
7849,33984
7850,34048
7851,34112
7852,34112
7853,34048
7854,34048
7855,33984
7856,33984
7857,33984
7858,34048
7859,33984
7860,33856
7861,33792
7862,33792
7863,33728
7864,33664
7865,33664
7866,33728
7867,33792
7868,33856
7869,33920
7870,33920
7871,33856
7872,33920
7873,33920
7874,33984
7875,33984
7876,34048
7877,34112
7878,34240
7879,34368
7880,34304
7881,34368
7882,34432
7883,34496
7884,34560
7885,34560
7886,34560
7887,34560
7888,34432
7889,34368
7890,34304
7891,34304
7892,34304
7893,34304
7894,34240
7895,34240
7896,34176
7897,34112
7898,34048
7899,33984
7900,33792
7901,33600
7902,33408
7903,33152
7904,33024
7905,33024
7906,33088
7907,33088
7908,33152
7909,33216
7910,33216
7911,33280
7912,33408
7913,33472
7914,33536
7915,33600
7916,33664
7917,33728
7918,33856
7919,33856
7920,33920
7921,33920
7922,33856
7923,33792
7924,33728
7925,33664
7926,33600
7927,33536
7928,33536
7929,33536
7930,33536
7931,33536
7932,33600
7933,33664
7934,33664
7935,33664
7936,33664
7937,33664
7938,33664
7939,33664
7940,33600
7941,33600
7942,33664
7943,33664
7944,33664
7945,33600
7946,33600
7947,33600
7948,33536
7949,33600
7950,33600
7951,33600
7952,33600
7953,33664
7954,33664
7955,33664
7956,33600
7957,33472
7958,33408
7959,33344
7960,33344
7961,33408
7962,33472
7963,33536
7964,33536
7965,33600
7966,33664
7967,33664
7968,33664
7969,33600
7970,33600
7971,33600
7972,33600
7973,33728
7974,33856
7975,33920
7976,33920
7977,33856
7978,33792
7979,33792
7980,33856
7981,33920
7982,33984
7983,33984
7984,33920
7985,33792
7986,33728
7987,33728
7988,33664
7989,33600
7990,33536
7991,33536
7992,33600
7993,33472
7994,33344
7995,33280
7996,33216
7997,33280
7998,33408
7999,33536
8000,33536
8001,33600
8002,33600
8003,33664
8004,33728
8005,33792
8006,33664
8007,33472
8008,33216
8009,33152
8010,33344
8011,33920
8012,34880
8013,36416
8014,38208
8015,40064
8016,41536
8017,41664
8018,39936
8019,36992
8020,33856
8021,31168
8022,29568
8023,28992
8024,29184
8025,29760
8026,30464
8027,31232
8028,31872
8029,32512
8030,33024
8031,33408
8032,33664
8033,33856
8034,33984
8035,34048
8036,34112
8037,34112
8038,34112
8039,34048
8040,33984
8041,33920
8042,33920
8043,33920
8044,33856
8045,33856
8046,33856
8047,33792
8048,33792
8049,33792
8050,33856
8051,33856
8052,33856
8053,33920
8054,33984
8055,33984
8056,34048
8057,34112
8058,34112
8059,34176
8060,34240
8061,34304
8062,34368
8063,34368
8064,34368
8065,34368
8066,34432
8067,34496
8068,34560
8069,34624
8070,34688
8071,34624
8072,34624
8073,34560
8074,34624
8075,34624
8076,34624
8077,34560
8078,34560
8079,34496
8080,34432
8081,34304
8082,34176
8083,34048
8084,33920
8085,33728
8086,33600
8087,33472
8088,33408
8089,33408
8090,33344
8091,33344
8092,33280
8093,33216
8094,33216
8095,33216
8096,33280
8097,33344
8098,33408
8099,33472
8100,33536
8101,33600
8102,33600
8103,33664
8104,33728
8105,33792
8106,33792
8107,33728
8108,33664
8109,33664
8110,33728
8111,33728
8112,33792
8113,33792
8114,33792
8115,33856
8116,33856
8117,33792
8118,33792
8119,33792
8120,33792
8121,33792
8122,33728
8123,33728
8124,33664
8125,33664
8126,33664
8127,33728
8128,33728
8129,33728
8130,33728
8131,33792
8132,33792
8133,33792
8134,33792
8135,33792
8136,33792
8137,33792
8138,33792
8139,33728
8140,33664
8141,33664
8142,33728
8143,33728
8144,33664
8145,33664
8146,33664
8147,33728
8148,33728
8149,33792
8150,33856
8151,33856
8152,33792
8153,33792
8154,33728
8155,33728
8156,33728
8157,33728
8158,33792
8159,33792
8160,33792
8161,33856
8162,33856
8163,33920
8164,33920
8165,33920
8166,33920
8167,33920
8168,33920
8169,33984
8170,34112
8171,34176
8172,34240
8173,34304
8174,34368
8175,34432
8176,34368
8177,34304
8178,34240
8179,34112
8180,33984
8181,33920
8182,33856
8183,33792
8184,33728
8185,33728
8186,33664
8187,33600
8188,33536
8189,33536
8190,33664
8191,33728
8192,33728
8193,33728
8194,33792
8195,33856
8196,33856
8197,33920
8198,33920
8199,33984
8200,33856
8201,33536
8202,33280
8203,33280
8204,33728
8205,34752
8206,36288
8207,38144
8208,40128
8209,41920
8210,42432
8211,41152
8212,38400
8213,35200
8214,32256
8215,30272
8216,29248
8217,29184
8218,29696
8219,30528
8220,31360
8221,32064
8222,32704
8223,33280
8224,33664
8225,33984
8226,34176
8227,34304
8228,34368
8229,34432
8230,34432
8231,34432
8232,34432
8233,34368
8234,34304
8235,34240
8236,34112
8237,34048
8238,33984
8239,33984
8240,34048
8241,34112
8242,34112
8243,34112
8244,34112
8245,34176
8246,34176
8247,34240
8248,34240
8249,34304
8250,34432
8251,34496
8252,34560
8253,34560
8254,34560
8255,34560
8256,34560
8257,34624
8258,34688
8259,34688
8260,34752
8261,34752
8262,34816
8263,34816
8264,34880
8265,34944
8266,35008
8267,35072
8268,35008
8269,34944
8270,34944
8271,34944
8272,34880
8273,34816
8274,34752
8275,34624
8276,34560
8277,34368
8278,34176
8279,34112
8280,34048
8281,33920
8282,33792
8283,33792
8284,33792
8285,33792
8286,33728
8287,33792
8288,33920
8289,33920
8290,33920
8291,33920
8292,33984
8293,34112
8294,34176
8295,34240
8296,34240
8297,34304
8298,34368
8299,34432
8300,34432
8301,34368
8302,34240
8303,34240
8304,34304
8305,34240
8306,34240
8307,34240
8308,34304
8309,34304
8310,34304
8311,34304
8312,34368
8313,34368
8314,34368
8315,34432
8316,34496
8317,34432
8318,34368
8319,34304
8320,34176
8321,34176
8322,34176
8323,34240
8324,34304
8325,34240
8326,34112
8327,34112
8328,34112
8329,34176
8330,34240
8331,34240
8332,34304
8333,34368
8334,34432
8335,34432
8336,34432
8337,34432
8338,34624
8339,34816
8340,34944
8341,34880
8342,34624
8343,34304
8344,34048
8345,33856
8346,33728
8347,33600
8348,33600
8349,33600
8350,33536
8351,33536
8352,33536
8353,33664
8354,33792
8355,33856
8356,33920
8357,34048
8358,34176
8359,34176
8360,34048
8361,33984
8362,33920
8363,33920
8364,33856
8365,33728
8366,33536
8367,33280
8368,33024
8369,33216
8370,33856
8371,35008
8372,36608
8373,38400
8374,40192
8375,41600
8376,41600
8377,39680
8378,36672
8379,33536
8380,31040
8381,29504
8382,28928
8383,29184
8384,29824
8385,30528
8386,31168
8387,31808
8388,32384
8389,32832
8390,33216
8391,33472
8392,33664
8393,33792
8394,33920
8395,33920
8396,33920
8397,33856
8398,33792
8399,33792
8400,33728
8401,33600
8402,33600
8403,33600
8404,33600
8405,33536
8406,33536
8407,33472
8408,33472
8409,33536
8410,33536
8411,33536
8412,33536
8413,33536
8414,33536
8415,33536
8416,33536
8417,33664
8418,33792
8419,33856
8420,33856
8421,33792
8422,33792
8423,33792
8424,33920
8425,34048
8426,34112
8427,34176
8428,34112
8429,34176
8430,34240
8431,34240
8432,34240
8433,34240
8434,34176
8435,34176
8436,34176
8437,34112
8438,34048
8439,33984
8440,33856
8441,33792
8442,33728
8443,33536
8444,33408
8445,33280
8446,33152
8447,33024
8448,32896
8449,32832
8450,32832
8451,32832
8452,32832
8453,32832
8454,32896
8455,32896
8456,32960
8457,33024
8458,33152
8459,33152
8460,33280
8461,33344
8462,33408
8463,33472
8464,33472
8465,33472
8466,33472
8467,33536
8468,33536
8469,33536
8470,33536
8471,33536
8472,33536
8473,33472
8474,33472
8475,33472
8476,33472
8477,33472
8478,33536
8479,33600
8480,33600
8481,33664
8482,33664
8483,33664
8484,33664
8485,33664
8486,33600
8487,33600
8488,33664
8489,33664
8490,33664
8491,33728
8492,33728
8493,33728
8494,33728
8495,33792
8496,33792
8497,33728
8498,33664
8499,33728
8500,33792
8501,33856
8502,33920
8503,33984
8504,33984
8505,33920
8506,33920
8507,33984
8508,34112
8509,34048
8510,34240
8511,34304
8512,34432
8513,34496
8514,34496
8515,34496
8516,34368
8517,34240
8518,34112
8519,34048
8520,33984
8521,33920
8522,33792
8523,33664
8524,33600
8525,33600
8526,33600
8527,33664
8528,33728
8529,33664
8530,33728
8531,33920
8532,33984
8533,34112
8534,34176
8535,34240
8536,34240
8537,34240
8538,34112
8539,33920
8540,33664
8541,33408
8542,33536
8543,34240
8544,35392
8545,36992
8546,38784
8547,40640
8548,42048
8549,42048
8550,40192
8551,37184
8552,33984
8553,31424
8554,29888
8555,29248
8556,29504
8557,30208
8558,31040
8559,31808
8560,32512
8561,33088
8562,33600
8563,33984
8564,34240
8565,34368
8566,34496
8567,34496
8568,34496
8569,34496
8570,34432
8571,34368
8572,34304
8573,34240
8574,34240
8575,34176
8576,34112
8577,34112
8578,34112
8579,34112
8580,34048
8581,34112
8582,34112
8583,34112
8584,34048
8585,34112
8586,34176
8587,34176
8588,34176
8589,34240
8590,34240
8591,34240
8592,34304
8593,34304
8594,34368
8595,34432
8596,34496
8597,34496
8598,34560
8599,34624
8600,34560
8601,34624
8602,34624
8603,34688
8604,34752
8605,34688
8606,34624
8607,34624
8608,34624
8609,34624
8610,34560
8611,34496
8612,34432
8613,34304
8614,34176
8615,34048
8616,33856
8617,33728
8618,33600
8619,33536
8620,33408
8621,33344
8622,33280
8623,33216
8624,33152
8625,33088
8626,33088
8627,33216
8628,33344
8629,33408
8630,33472
8631,33536
8632,33600
8633,33664
8634,33664
8635,33728
8636,33728
8637,33792
8638,33792
8639,33792
8640,33792
8641,33728
8642,33728
8643,33728
8644,33792
8645,33792
8646,33792
8647,33856
8648,33792
8649,33792
8650,33792
8651,33792
8652,33792
8653,33792
8654,33728
8655,33728
8656,33728
8657,33728
8658,33728
8659,33664
8660,33728
8661,33728
8662,33728
8663,33728
8664,33728
8665,33728
8666,33728
8667,33728
8668,33664
8669,33664
8670,33664
8671,33664
8672,33664
8673,33664
8674,33728
8675,33728
8676,33792
8677,33792
8678,33920
8679,33920
8680,33920
8681,33920
8682,34048
8683,34112
8684,34176
8685,34176
8686,34048
8687,33984
8688,33792
8689,33728
8690,33664
8691,33536
8692,33472
8693,33472
8694,33408
8695,33280
8696,33280
8697,33280
8698,33344
8699,33472
8700,33472
8701,33536
8702,33600
8703,33664
8704,33664
8705,33664
8706,33664
8707,33664
8708,33664
8709,33600
8710,33472
8711,33216
8712,32960
8713,33024
8714,33408
8715,34368
8716,35840
8717,37632
8718,39488
8719,41216
8720,42048
8721,41024
8722,38336
8723,34944
8724,32192
8725,30144
8726,29184
8727,29056
8728,29632
8729,30272
8730,31040
8731,31744
8732,32384
8733,32960
8734,33280
8735,33600
8736,33856
8737,34048
8738,34112
8739,34176
8740,34176
8741,34176
8742,34048
8743,33856
8744,33792
8745,33792
8746,33728
8747,33728
8748,33792
8749,33792
8750,33728
8751,33728
8752,33792
8753,33792
8754,33856
8755,33856
8756,33920
8757,33984
8758,33920
8759,33920
8760,33920
8761,33920
8762,33984
8763,34048
8764,34112
8765,34240
8766,34304
8767,34368
8768,34368
8769,34432
8770,34496
8771,34496
8772,34496
8773,34560
8774,34560
8775,34496
8776,34496
8777,34560
8778,34560
8779,34560
8780,34496
8781,34496
8782,34432
8783,34368
8784,34304
8785,34176
8786,34048
8787,33920
8788,33792
8789,33664
8790,33536
8791,33344
8792,33216
8793,33152
8794,33152
8795,33152
8796,33216
8797,33280
8798,33344
8799,33344
8800,33408
8801,33408
8802,33472
8803,33536
8804,33536
8805,33600
8806,33728
8807,33728
8808,33792
8809,33792
8810,33792
8811,33792
8812,33792
8813,33792
8814,33792
8815,33792
8816,33856
8817,33856
8818,33856
8819,33792
8820,33792
8821,33728
8822,33792
8823,33792
8824,33728
8825,33664
8826,33664
8827,33728
8828,33792
8829,33728
8830,33728
8831,33664
8832,33600
8833,33600
8834,33536
8835,33600
8836,33600
8837,33664
8838,33664
8839,33664
8840,33792
8841,33792
8842,33728
8843,33728
8844,33728
8845,33728
8846,33728
8847,33728
8848,33728
8849,33728
8850,33664
8851,33664
8852,33664
8853,33728
8854,33728
8855,33792
8856,33856
8857,33920
8858,33920
8859,33920
8860,34048
8861,34112
8862,34176
8863,34240
8864,34368
8865,34432
8866,34368
8867,34304
8868,34240
8869,34176
8870,34048
8871,33984
8872,33920
8873,33920
8874,33856
8875,33792
8876,33728
8877,33728
8878,33664
8879,33728
8880,33728
8881,33792
8882,33856
8883,33920
8884,33984
8885,34048
8886,34048
8887,34112
8888,34112
8889,34112
8890,34112
8891,33984
8892,33728
8893,33472
8894,33536
8895,34048
8896,35008
8897,36480
8898,38336
8899,40256
8900,41856
8901,42496
8902,41216
8903,38464
8904,35200
8905,32320
8906,30400
8907,29504
8908,29504
8909,30080
8910,30848
8911,31680
8912,32384
8913,33024
8914,33536
8915,33920
8916,34240
8917,34432
8918,34560
8919,34560
8920,34624
8921,34560
8922,34560
8923,34560
8924,34560
8925,34496
8926,34368
8927,34304
8928,34304
8929,34304
8930,34240
8931,34304
8932,34304
8933,34304
8934,34240
8935,34240
8936,34304
8937,34304
8938,34304
8939,34368
8940,34432
8941,34496
8942,34496
8943,34560
8944,34560
8945,34560
8946,34496
8947,34496
8948,34560
8949,34624
8950,34688
8951,34688
8952,34688
8953,34688
8954,34752
8955,34752
8956,34752
8957,34752
8958,34752
8959,34688
8960,34624
8961,34624
8962,34560
8963,34496
8964,34432
8965,34304
8966,34176
8967,34048
8968,33920
8969,33792
8970,33664
8971,33536
8972,33408
8973,33344
8974,33152
8975,33024
8976,33024
8977,33024
8978,33088
8979,33088
8980,33088
8981,33152
8982,33152
8983,33216
8984,33216
8985,33216
8986,33280
8987,33344
8988,33344
8989,33344
8990,33344
8991,33344
8992,33344
8993,33344
8994,33408
8995,33408
8996,33408
8997,33472
8998,33408
8999,33408
9000,33344
9001,33280
9002,33280
9003,33280
9004,33280
9005,33280
9006,33344
9007,33344
9008,33408
9009,33344
9010,33344
9011,33344
9012,33280
9013,33280
9014,33280
9015,33280
9016,33280
9017,33216
9018,33216
9019,33152
9020,33152
9021,33088
9022,33024
9023,33088
9024,33088
9025,33088
9026,33088
9027,33152
9028,33152
9029,33152
9030,33152
9031,33152
9032,33216
9033,33216
9034,33280
9035,33280
9036,33344
9037,33408
9038,33472
9039,33472
9040,33536
9041,33600
9042,33664
9043,33664
9044,33600
9045,33472
9046,33344
9047,33216
9048,33152
9049,33088
9050,33024
9051,32960
9052,32960
9053,32896
9054,32832
9055,32832
9056,32896
9057,33088
9058,33088
9059,33024
9060,33024
9061,33088
9062,33152
9063,33152
9064,33152
9065,33152
9066,33216
9067,33152
9068,33024
9069,32832
9070,32576
9071,32512
9072,32832
9073,33664
9074,35072
9075,36736
9076,38592
9077,40384
9078,41664
9079,41216
9080,38976
9081,35904
9082,32832
9083,30464
9084,29120
9085,28800
9086,29184
9087,29824
9088,30528
9089,31296
9090,31808
9091,32384
9092,32832
9093,33152
9094,33408
9095,33600
9096,33728
9097,33792
9098,33792
9099,33792
9100,33792
9101,33728
9102,33664
9103,33664
9104,33600
9105,33600
9106,33600
9107,33664
9108,33664
9109,33664
9110,33664
9111,33664
9112,33600
9113,33600
9114,33600
9115,33664
9116,33728
9117,33792
9118,33920
9119,33984
9120,33984
9121,33984
9122,33984
9123,34048
9124,34112
9125,34112
9126,34176
9127,34240
9128,34304
9129,34368
9130,34368
9131,34432
9132,34496
9133,34560
9134,34560
9135,34624
9136,34624
9137,34560
9138,34560
9139,34496
9140,34432
9141,34432
9142,34304
9143,34240
9144,34176
9145,34048
9146,33856
9147,33728
9148,33664
9149,33600
9150,33536
9151,33472
9152,33344
9153,33344
9154,33280
9155,33280
9156,33344
9157,33408
9158,33536
9159,33600
9160,33664
9161,33728
9162,33792
9163,33856
9164,33920
9165,33984
9166,34048
9167,33984
9168,33984
9169,34048
9170,34048
9171,34048
9172,34112
9173,34176
9174,34176
9175,34112
9176,34112
9177,34048
9178,34048
9179,34048
9180,34048
9181,34112
9182,34112
9183,34048
9184,34048
9185,34048
9186,34048
9187,34048
9188,33984
9189,33984
9190,34048
9191,34048
9192,34048
9193,34112
9194,34048
9195,34048
9196,33984
9197,34048
9198,34112
9199,34112
9200,34176
9201,34112
9202,34176
9203,34176
9204,34176
9205,34112
9206,34048
9207,34048
9208,33984
9209,33984
9210,34048
9211,34048
9212,34048
9213,34048
9214,34048
9215,34176
9216,34240
9217,34368
9218,34432
9219,34432
9220,34432
9221,34496
9222,34624
9223,34688
9224,34624
9225,34496
9226,34432
9227,34368
9228,34368
9229,34240
9230,34176
9231,34112
9232,34112
9233,33984
9234,33920
9235,33856
9236,33856
9237,33920
9238,33984
9239,34048
9240,34048
9241,34048
9242,34112
9243,34176
9244,34176
9245,34176
9246,34176
9247,34176
9248,34112
9249,33856
9250,33664
9251,33664
9252,34112
9253,35200
9254,36672
9255,38464
9256,40320
9257,41856
9258,42304
9259,40896
9260,38080
9261,34880
9262,32128
9263,30272
9264,29440
9265,29504
9266,30144
9267,30912
9268,31680
9269,32384
9270,33024
9271,33472
9272,33920
9273,34240
9274,34432
9275,34560
9276,34624
9277,34624
9278,34624
9279,34560
9280,34496
9281,34368
9282,34304
9283,34240
9284,34176
9285,34112
9286,34176
9287,34176
9288,34176
9289,34176
9290,34240
9291,34240
9292,34176
9293,34176
9294,34240
9295,34240
9296,34304
9297,34304
9298,34368
9299,34368
9300,34368
9301,34368
9302,34432
9303,34432
9304,34432
9305,34496
9306,34560
9307,34560
9308,34688
9309,34688
9310,34752
9311,34816
9312,34816
9313,34752
9314,34816
9315,34816
9316,34752
9317,34688
9318,34560
9319,34496
9320,34496
9321,34432
9322,34368
9323,34304
9324,34176
9325,34048
9326,33920
9327,33792
9328,33664
9329,33600
9330,33472
9331,33344
9332,33344
9333,33280
9334,33280
9335,33344
9336,33408
9337,33344
9338,33408
9339,33408
9340,33472
9341,33536
9342,33536
9343,33600
9344,33600
9345,33664
9346,33664
9347,33728
9348,33792
9349,33792
9350,33792
9351,33792
9352,33792
9353,33792
9354,33856
9355,33792
9356,33728
9357,33664
9358,33664
9359,33664
9360,33664
9361,33664
9362,33664
9363,33664
9364,33664
9365,33664
9366,33664
9367,33600
9368,33600
9369,33600
9370,33600
9371,33600
9372,33600
9373,33536
9374,33536
9375,33536
9376,33536
9377,33536
9378,33472
9379,33472
9380,33536
9381,33536
9382,33536
9383,33536
9384,33536
9385,33472
9386,33536
9387,33536
9388,33536
9389,33600
9390,33600
9391,33664
9392,33792
9393,33856
9394,33856
9395,33856
9396,33920
9397,34048
9398,34048
9399,34048
9400,33920
9401,33792
9402,33664
9403,33600
9404,33536
9405,33408
9406,33344
9407,33280
9408,33280
9409,33216
9410,33216
9411,33216
9412,33216
9413,33280
9414,33280
9415,33344
9416,33344
9417,33344
9418,33408
9419,33408
9420,33472
9421,33536
9422,33600
9423,33536
9424,33216
9425,32896
9426,32704
9427,33024
9428,33792
9429,35072
9430,36736
9431,38656
9432,40448
9433,41728
9434,41408
9435,39296
9436,36224
9437,33024
9438,30592
9439,29056
9440,28864
9441,29184
9442,29824
9443,30592
9444,31360
9445,31936
9446,32512
9447,32960
9448,33344
9449,33600
9450,33792
9451,33856
9452,33856
9453,33920
9454,33920
9455,33920
9456,33920
9457,33856
9458,33856
9459,33856
9460,33792
9461,33728
9462,33728
9463,33664
9464,33664
9465,33664
9466,33664
9467,33728
9468,33728
9469,33792
9470,33856
9471,33920
9472,33920
9473,33920
9474,34048
9475,34048
9476,34048
9477,34048
9478,34112
9479,34176
9480,34240
9481,34240
9482,34368
9483,34432
9484,34432
9485,34496
9486,34560
9487,34624
9488,34624
9489,34624
9490,34624
9491,34624
9492,34624
9493,34560
9494,34560
9495,34496
9496,34432
9497,34368
9498,34304
9499,34240
9500,34048
9501,33920
9502,33856
9503,33728
9504,33664
9505,33600
9506,33600
9507,33536
9508,33536
9509,33536
9510,33472
9511,33472
9512,33472
9513,33536
9514,33600
9515,33728
9516,33792
9517,33792
9518,33856
9519,33920
9520,33920
9521,33920
9522,33792
9523,33856
9524,33856
9525,33856
9526,33920
9527,33984
9528,33984
9529,33984
9530,33984
9531,33920
9532,33920
9533,33920
9534,33920
9535,33920
9536,33920
9537,33856
9538,33856
9539,33920
9540,33920
9541,33920
9542,33920
9543,33920
9544,33920
9545,33920
9546,33920
9547,33984
9548,33984
9549,33984
9550,33856
9551,33728
9552,33664
9553,33600
9554,33600
9555,33600
9556,33600
9557,33664
9558,33792
9559,33856
9560,33920
9561,33856
9562,33856
9563,33792
9564,33792
9565,33792
9566,33856
9567,33856
9568,33920
9569,33920
9570,33984
9571,33984
9572,33984
9573,33984
9574,33920
9575,33856
9576,33856
9577,33856
9578,33984
9579,34048
9580,34176
9581,34304
9582,34368
9583,34240
9584,34112
9585,34048
9586,33984
9587,33984
9588,33920
9589,33856
9590,33728
9591,33600
9592,33536
9593,33472
9594,33536
9595,33664
9596,33664
9597,33664
9598,33728
9599,33856
9600,33920
9601,33856
9602,33792
9603,33728
9604,33664
9605,33728
9606,33792
9607,33664
9608,33408
9609,33216
9610,33408
9611,34112
9612,35456
9613,37248
9614,39296
9615,41024
9616,42112
9617,41408
9618,38976
9619,35776
9620,32768
9621,30592
9622,29504
9623,29376
9624,29888
9625,30592
9626,31360
9627,32064
9628,32640
9629,33088
9630,33344
9631,33536
9632,33728
9633,33920
9634,34048
9635,34176
9636,34176
9637,34176
9638,34112
9639,34112
9640,34112
9641,34048
9642,34048
9643,33984
9644,33984
9645,33984
9646,33984
9647,33984
9648,34048
9649,34048
9650,34048
9651,33984
9652,33984
9653,33984
9654,33920
9655,33984
9656,33984
9657,33984
9658,34048
9659,34176
9660,34240
9661,34304
9662,34368
9663,34368
9664,34368
9665,34368
9666,34368
9667,34368
9668,34432
9669,34432
9670,34496
9671,34560
9672,34560
9673,34560
9674,34624
9675,34560
9676,34560
9677,34624
9678,34624
9679,34560
9680,34432
9681,34368
9682,34304
9683,34112
9684,33856
9685,33728
9686,33600
9687,33472
9688,33408
9689,33280
9690,33216
9691,33152
9692,33152
9693,33216
9694,33280
9695,33280
9696,33280
9697,33344
9698,33408
9699,33536
9700,33600
9701,33600
9702,33600
9703,33600
9704,33664
9705,33664
9706,33728
9707,33728
9708,33664
9709,33664
9710,33664
9711,33728
9712,33728
9713,33664
9714,33728
9715,33664
9716,33664
9717,33664
9718,33728
9719,33728
9720,33728
9721,33664
9722,33600
9723,33536
9724,33600
9725,33600
9726,33536
9727,33536
9728,33536
9729,33472
9730,33472
9731,33472
9732,33472
9733,33472
9734,33472
9735,33536
9736,33536
9737,33600
9738,33600
9739,33600
9740,33600
9741,33600
9742,33600
9743,33664
9744,33664
9745,33664
9746,33664
9747,33664
9748,33664
9749,33664
9750,33600
9751,33536
9752,33536
9753,33600
9754,33664
9755,33792
9756,33920
9757,33984
9758,34048
9759,34112
9760,34240
9761,34368
9762,34368
9763,34240
9764,34112
9765,33984
9766,33856
9767,33728
9768,33664
9769,33664
9770,33600
9771,33536
9772,33472
9773,33408
9774,33408
9775,33408
9776,33472
9777,33600
9778,33664
9779,33792
9780,33792
9781,33856
9782,33920
9783,33920
9784,33920
9785,33856
9786,33728
9787,33472
9788,33216
9789,33152
9790,33536
9791,34368
9792,35776
9793,37504
9794,39488
9795,41216
9796,42240
9797,41600
9798,39232
9799,36160
9800,33088
9801,30848
9802,29632
9803,29312
9804,29696
9805,30400
9806,31168
9807,31872
9808,32576
9809,33152
9810,33536
9811,33856
9812,34112
9813,34240
9814,34368
9815,34432
9816,34432
9817,34496
9818,34496
9819,34496
9820,34368
9821,34304
9822,34176
9823,34112
9824,33984
9825,33920
9826,33856
9827,33792
9828,33856
9829,33856
9830,33920
9831,33984
9832,34048
9833,34112
9834,34112
9835,34176
9836,34240
9837,34304
9838,34304
9839,34368
9840,34432
9841,34432
9842,34432
9843,34368
9844,34368
9845,34368
9846,34368
9847,34432
9848,34496
9849,34560
9850,34560
9851,34624
9852,34688
9853,34688
9854,34688
9855,34624
9856,34624
9857,34688
9858,34624
9859,34560
9860,34432
9861,34368
9862,34240
9863,34048
9864,33920
9865,33792
9866,33664
9867,33536
9868,33408
9869,33408
9870,33408
9871,33344
9872,33280
9873,33216
9874,33280
9875,33280
9876,33280
9877,33344
9878,33408
9879,33408
9880,33472
9881,33536
9882,33536
9883,33600
9884,33664
9885,33664
9886,33728
9887,33728
9888,33728
9889,33728
9890,33728
9891,33792
9892,33728
9893,33728
9894,33664
9895,33664
9896,33664
9897,33664
9898,33600
9899,33536
9900,33536
9901,33472
9902,33408
9903,33408
9904,33408
9905,33408
9906,33472
9907,33472
9908,33536
9909,33536
9910,33472
9911,33536
9912,33536
9913,33472
9914,33472
9915,33472
9916,33472
9917,33408
9918,33344
9919,33408
9920,33408
9921,33408
9922,33408
9923,33472
9924,33536
9925,33472
9926,33472
9927,33472
9928,33472
9929,33472
9930,33536
9931,33600
9932,33664
9933,33664
9934,33792
9935,33856
9936,33920
9937,33984
9938,34048
9939,34112
9940,34112
9941,34112
9942,34048
9943,33920
9944,33792
9945,33728
9946,33600
9947,33472
9948,33472
9949,33408
9950,33344
9951,33280
9952,33216
9953,33216
9954,33216
9955,33280
9956,33344
9957,33408
9958,33472
9959,33536
9960,33600
9961,33600
9962,33600
9963,33600
9964,33600
9965,33408
9966,33152
9967,32896
9968,32896
9969,33280
9970,34240
9971,35776
9972,37568
9973,39424
9974,41152
9975,41984
9976,40960
9977,38400
9978,35264
9979,32064
9980,30272
9981,29248
9982,29184
9983,29632
9984,30272
9985,31040
9986,31680
9987,32320
9988,32832
9989,33280
9990,33536
9991,33728
9992,33792
9993,33856
9994,33856
9995,33920
9996,33920
9997,33920
9998,33920
9999,33920
10000,33856
10001,33792
10002,33728
10003,33728
10004,33728
10005,33728
10006,33792
10007,33792
10008,33792
10009,33792
10010,33792
10011,33856
10012,33856
10013,33856
10014,33856
10015,33856
10016,33856
10017,33920
10018,33984
10019,34048
10020,34048
10021,34048
10022,34176
10023,34240
10024,34304
10025,34368
10026,34368
10027,34432
10028,34496
10029,34496
10030,34496
10031,34560
10032,34560
10033,34560
10034,34560
10035,34496
10036,34496
10037,34432
10038,34368
10039,34304
10040,34240
10041,34176
10042,33984
10043,33856
10044,33792
10045,33664
10046,33472
10047,33344
10048,33280
10049,33216
10050,33152
10051,33152
10052,33152
10053,33152
10054,33152
10055,33280
10056,33344
10057,33408
10058,33472
10059,33536
10060,33536
10061,33600
10062,33664
10063,33728
10064,33792
10065,33856
10066,33856
10067,33792
10068,33792
10069,33792
10070,33792
10071,33792
10072,33856
10073,33856
10074,33856
10075,33792
10076,33792
10077,33728
10078,33728
10079,33664
10080,33728
10081,33792
10082,33792
10083,33792
10084,33728
10085,33728
10086,33728
10087,33728
10088,33664
10089,33728
10090,33792
10091,33728
10092,33728
10093,33728
10094,33728
10095,33728
10096,33728
10097,33728
10098,33728
10099,33728
10100,33728
10101,33728
10102,33728
10103,33728
10104,33792
10105,33728
10106,33728
10107,33792
10108,33728
10109,33728
10110,33728
10111,33728
10112,33728
10113,33728
10114,33728
10115,33728
10116,33728
10117,33792
10118,33856
10119,33920
10120,33856
10121,33920
10122,34048
10123,34112
10124,34112
10125,34176
10126,34240
10127,34304
10128,34240
10129,34176
10130,34112
10131,33984
10132,33856
10133,33792
10134,33664
10135,33536
10136,33472
10137,33408
10138,33344
10139,33344
10140,33344
10141,33344
10142,33408
10143,33472
10144,33600
10145,33664
10146,33728
10147,33792
10148,33856
10149,33856
10150,33856
10151,33728
10152,33536
10153,33280
10154,33088
10155,33216
10156,33728
10157,34944
10158,36608
10159,38528
10160,40704
10161,41920
10162,41920
10163,40000
10164,37056
10165,33920
10166,31360
10167,29824
10168,29312
10169,29504
10170,30080
10171,30720
10172,31424
10173,32064
10174,32704
10175,33088
10176,33472
10177,33728
10178,33984
10179,34048
10180,34112
10181,34176
10182,34176
10183,34112
10184,34048
10185,34048
10186,34048
10187,33984
10188,33920
10189,33920
10190,33920
10191,33920
10192,33920
10193,33920
10194,33984
10195,33984
10196,33984
10197,33984
10198,33984
10199,34048
10200,34048
10201,34048
10202,34048
10203,34112
10204,34176
10205,34176
10206,34240
10207,34304
10208,34368
10209,34432
10210,34432
10211,34560
10212,34560
10213,34560
10214,34624
10215,34624
10216,34624
10217,34624
10218,34688
10219,34688
10220,34688
10221,34688
10222,34688
10223,34624
10224,34624
10225,34560
10226,34496
10227,34432
10228,34240
10229,34112
10230,33984
10231,33856
10232,33792
10233,33728
10234,33664
10235,33600
10236,33600
10237,33536
10238,33472
10239,33536
10240,33600
10241,33664
10242,33664
10243,33728
10244,33792
10245,33856
10246,33920
10247,33920
10248,33984
10249,34048
10250,34048
10251,34112
10252,34112
10253,34176
10254,34176
10255,34176
10256,34176
10257,34176
10258,34112
10259,34112
10260,34112
10261,34112
10262,34176
10263,34176
10264,34112
10265,34176
10266,34112
10267,34112
10268,34112
10269,34112
10270,34112
10271,34112
10272,34112
10273,34176
10274,34176
10275,34176
10276,34112
10277,34112
10278,34112
10279,34048
10280,34048
10281,34112
10282,34176
10283,34176
10284,34176
10285,34112
10286,34112
10287,34112
10288,34112
10289,34112
10290,34176
10291,34240
10292,34304
10293,34368
10294,34432
10295,34496
10296,34624
10297,34688
10298,34688
10299,34624
10300,34496
10301,34304
10302,34176
10303,34112
10304,33984
10305,33920
10306,33856
10307,33856
10308,33792
10309,33792
10310,33792
10311,33856
10312,33920
10313,33856
10314,33920
10315,33984
10316,34048
10317,34048
10318,34112
10319,34176
10320,34176
10321,34048
10322,33792
10323,33472
10324,33280
10325,33472
10326,34112
10327,35392
10328,37120
10329,37248
10330,40896
10331,42240
10332,42048
10333,39808
10334,39360
10335,33984
10336,31488
10337,29952
10338,29376
10339,29632
10340,30272
10341,30976
10342,31744
10343,32512
10344,32512
10345,33088
10346,33856
10347,34176
10348,34368
10349,34368
10350,34496
10351,34496
10352,34496
10353,34432
10354,34368
10355,34304
10356,34304
10357,34240
10358,34176
10359,34112
10360,34176
10361,34176
10362,34112
10363,34176
10364,34176
10365,34112
10366,34176
10367,34240
10368,34304
10369,34240
10370,34304
10371,34304
10372,34304
10373,34368
10374,34304
10375,34432
10376,34496
10377,34496
10378,34560
10379,34496
10380,34560
10381,34624
10382,34624
10383,34752
10384,34816
10385,34816
10386,34816
10387,34816
10388,34816
10389,34752
10390,34752
10391,34688
10392,34688
10393,34624
10394,34560
10395,34496
10396,34368
10397,34304
10398,34176
10399,34048
10400,33920
10401,33792
10402,33728
10403,33600
10404,33536
10405,33536
10406,33536
10407,33472
10408,33472
10409,33472
10410,33472
10411,33536
10412,33600
10413,33600
10414,33664
10415,33728
10416,33792
10417,33856
10418,33856
10419,33920
10420,33920
10421,33984
10422,33984
10423,33984
10424,33984
10425,33984
10426,33984
10427,33984
10428,33920
10429,33856
10430,33920
10431,33920
10432,33920
10433,33920
10434,33920
10435,33920
10436,33920
10437,33856
10438,33856
10439,33856
10440,33920
10441,33920
10442,33856
10443,33856
10444,33792
10445,33792
10446,33792
10447,33792
10448,33792
10449,33792
10450,33728
10451,33728
10452,33792
10453,33856
10454,33920
10455,33984
10456,34048
10457,33984
10458,33984
10459,33984
10460,34048
10461,34240
10462,34176
10463,34112
10464,34048
10465,33984
10466,33856
10467,33728
10468,33664
10469,33536
10470,33472
10471,33408
10472,33344
10473,33344
10474,33280
10475,33344
10476,33408
10477,33472
10478,33536
10479,33472
10480,33664
10481,33664
10482,33664
10483,33728
10484,33728
10485,33728
10486,33600
10487,33344
10488,33088
10489,32896
10490,33088
10491,33728
10492,34944
10493,36800
10494,36992
10495,40256
10496,41600
10497,41536
10498,39360
10499,39168
10500,33536
10501,31040
10502,29568
10503,28992
10504,29248
10505,29888
10506,30656
10507,31424
10508,32128
10509,32128
10510,33024
10511,33344
10512,33536
10513,33792
10514,33920
10515,33984
10516,34048
10517,34048
10518,34048
10519,33920
10520,33856
10521,33792
10522,33792
10523,33792
10524,33728
10525,33728
10526,33728
10527,33728
10528,33664
10529,33664
10530,33664
10531,33728
10532,33728
10533,33728
10534,33728
10535,33792
10536,33856
10537,33856
10538,33920
10539,33984
10540,33984
10541,34048
10542,34112
10543,34112
10544,34176
10545,34240
10546,34304
10547,34304
10548,34304
10549,34240
10550,34240
10551,34240
10552,34368
10553,34368
10554,34368
10555,34368
10556,34368
10557,34304
10558,34240
10559,34240
10560,34176
10561,34048
10562,33920
10563,33856
10564,33664
10565,33600
10566,33472
10567,33344
10568,33216
10569,33088
10570,33024
10571,33024
10572,33088
10573,33088
10574,33088
10575,33088
10576,33152
10577,33280
10578,33280
10579,33344
10580,33408
10581,33472
10582,33472
10583,33536
10584,33536
10585,33600
10586,33664
10587,33664
10588,33664
10589,33664
10590,33664
10591,33664
10592,33664
10593,33664
10594,33664
10595,33600
10596,33664
10597,33664
10598,33600
10599,33536
10600,33536
10601,33600
10602,33600
10603,33600
10604,33600
10605,33600
10606,33600
10607,33600
10608,33600
10609,33600
10610,33600
10611,33600
10612,33600
10613,33536
10614,33536
10615,33536
10616,33536
10617,33600
10618,33600
10619,33600
10620,33536
10621,33536
10622,33536
10623,33600
10624,33664
10625,33728
10626,33792
10627,33856
10628,33856
10629,33920
10630,33984
10631,34112
10632,34176
10633,34176
10634,34112
10635,33984
10636,33856
10637,33728
10638,33600
10639,33536
10640,33472
10641,33408
10642,33344
10643,33280
10644,33216
10645,33216
10646,33216
10647,33344
10648,33408
10649,33408
10650,33536
10651,33600
10652,33600
10653,33600
10654,33600
10655,33664
10656,33664
10657,33536
10658,33344
10659,33088
10660,32960
10661,33024
10662,33536
10663,34752
10664,36288
10665,38016
10666,39808
10667,41408
10668,41792
10669,40320
10670,37568
10671,34432
10672,31680
10673,29952
10674,29184
10675,29248
10676,29696
10677,30400
10678,31104
10679,31744
10680,32320
10681,32832
10682,33216
10683,33536
10684,33728
10685,33920
10686,33984
10687,33984
10688,34048
10689,34048
10690,33984
10691,33920
10692,33856
10693,33856
10694,33856
10695,33856
10696,33856
10697,33856
10698,33792
10699,33728
10700,33664
10701,33664
10702,33728
10703,33728
10704,33792
10705,33856
10706,33856
10707,33920
10708,33920
10709,33984
10710,34048
10711,34048
10712,34048
10713,34176
10714,34304
10715,34304
10716,34304
10717,34304
10718,34368
10719,34368
10720,34368
10721,34432
10722,34496
10723,34496
10724,34432
10725,34496
10726,34496
10727,34496
10728,34432
10729,34368
10730,34304
10731,34304
10732,34240
10733,34112
10734,34048
10735,33920
10736,33728
10737,33600
10738,33408
10739,33344
10740,33280
10741,33152
10742,33152
10743,33216
10744,33216
10745,33152
10746,33152
10747,33216
10748,33280
10749,33344
10750,33408
10751,33472
10752,33536
10753,33600
10754,33600
10755,33600
10756,33664
10757,33664
10758,33664
10759,33664
10760,33728
10761,33728
10762,33728
10763,33792
10764,33792
10765,33792
10766,33792
10767,33792
10768,33728
10769,33728
10770,33664
10771,33664
10772,33664
10773,33664
10774,33664
10775,33664
10776,33664
10777,33664
10778,33664
10779,33664
10780,33664
10781,33728
10782,33728
10783,33728
10784,33664
10785,33664
10786,33600
10787,33600
10788,33600
10789,33664
10790,33600
10791,33600
10792,33664
10793,33728
10794,33728
10795,33728
10796,33728
10797,33728
10798,33728
10799,33792
10800,33792
10801,33856
10802,33856
10803,33984
10804,34048
10805,34112
10806,34112
10807,34112
10808,34176
10809,34176
10810,34112
10811,33984
10812,33920
10813,33856
10814,33792
10815,33664
10816,33536
10817,33536
10818,33472
10819,33408
10820,33344
10821,33280
10822,33344
10823,33408
10824,33472
10825,33472
10826,33600
10827,33664
10828,33664
10829,33664
10830,33728
10831,33728
10832,33728
10833,33728
10834,33600
10835,33344
10836,33024
10837,32896
10838,33280
10839,34112
10840,35456
10841,37248
10842,39168
10843,40960
10844,41984
10845,41216
10846,38848
10847,35776
10848,32832
10849,30592
10850,29440
10851,29184
10852,29568
10853,30272
10854,30976
10855,31616
10856,32256
10857,32832
10858,33280
10859,33600
10860,33792
10861,33984
10862,34112
10863,34176
10864,34112
10865,34112
10866,33984
10867,33984
10868,33984
10869,33920
10870,33856
10871,33856
10872,33920
10873,33920
10874,33856
10875,33792
10876,33792
10877,33792
10878,33856
10879,33856
10880,33856
10881,33920
10882,33920
10883,33920
10884,33984
10885,33984
10886,34048
10887,34048
10888,34112
10889,34176
10890,34176
10891,34240
10892,34240
10893,34304
10894,34368
10895,34432
10896,34496
10897,34560
10898,34560
10899,34560
10900,34560
10901,34624
10902,34688
10903,34624
10904,34560
10905,34560
10906,34496
10907,34432
10908,34368
10909,34240
10910,34176
10911,34048
10912,33856
10913,33728
10914,33600
10915,33472
10916,33344
10917,33344
10918,33280
10919,33280
10920,33280
10921,33280
10922,33280
10923,33344
10924,33408
