,ECG
0,33664
1,33792
2,33792
3,33728
4,33728
5,33920
6,34048
7,34112
8,33984
9,33728
10,33664
11,33472
12,33472
13,33536
14,33664
15,33728
16,33856
17,34048
18,34176
19,34304
20,34432
21,34496
22,34496
23,34368
24,34368
25,34432
26,34432
27,34304
28,34176
29,34240
30,34176
31,34240
32,34112
33,33856
34,33728
35,33536
36,33408
37,33344
38,33600
39,33664
40,33600
41,33600
42,33664
43,33792
44,33920
45,34112
46,34304
47,34304
48,33984
49,33536
50,33344
51,33536
52,34240
53,35648
54,37696
55,40384
56,42880
57,44224
58,44032
59,42304
60,39552
61,36480
62,33792
63,31808
64,30592
65,29952
66,29824
67,30144
68,30656
69,31296
70,31808
71,32320
72,32896
73,33344
74,33728
75,33984
76,34176
77,34368
78,34304
79,34176
80,34112
81,34048
82,33920
83,33920
84,33984
85,34048
86,34048
87,34112
88,34176
89,34112
90,34048
91,33920
92,33920
93,33984
94,34048
95,34048
96,34112
97,34048
98,33856
99,33792
100,33856
101,34048
102,34176
103,34304
104,34496
105,34688
106,34752
107,34688
108,34688
109,34752
110,34688
111,34816
112,34816
113,34944
114,35008
115,35008
116,35008
117,35008
118,34880
119,34752
120,34688
121,34688
122,34688
123,34688
124,34496
125,34112
126,33792
127,33536
128,33408
129,33344
130,33280
131,33216
132,33024
133,32960
134,33024
135,33088
136,33024
137,33024
138,33216
139,33408
140,33344
141,33280
142,33344
143,33408
144,33408
145,33536
146,33600
147,33664
148,33728
149,33728
150,33728
151,33856
152,33792
153,33664
154,33536
155,33408
156,33344
157,33280
158,33344
159,33600
160,33536
161,33728
162,33792
163,33792
164,33792
165,33664
166,33600
167,33664
168,33792
169,33856
170,33728
171,33664
172,33664
173,33664
174,33664
175,33664
176,33792
177,33792
178,33728
179,33856
180,33792
181,33728
182,33664
183,33600
184,33664
185,33600
186,33472
187,33472
188,33600
189,33600
190,33600
191,33536
192,33600
193,33728
194,33728
195,33664
196,33728
197,33856
198,33856
199,33792
200,33856
201,33920
202,33984
203,33984
204,33984
205,33920
206,33728
207,33600
208,33728
209,33856
210,33920
211,33792
212,33664
213,33792
214,33920
215,33920
216,33728
217,33664
218,33728
219,33728
220,33728
221,33792
222,33920
223,34048
224,34176
225,34304
226,34304
227,33984
228,33664
229,33600
230,33536
231,33664
232,33792
233,33920
234,34048
235,34048
236,34048
237,33984
238,33856
239,33792
240,33728
241,33792
242,34048
243,34304
244,34368
245,34240
246,34176
247,34240
248,34240
249,34240
250,34304
251,34432
252,34432
253,34432
254,34368
255,34368
256,34432
257,34176
258,33792
259,33536
260,33408
261,33344
262,33344
263,33408
264,33600
265,33728
266,33728
267,33792
268,33856
269,33792
270,33792
271,33856
272,33856
273,33728
274,33664
275,33984
276,34944
277,36352
278,38400
279,41728
280,41728
281,44160
282,43776
283,41856
284,39040
285,36160
286,33600
287,31744
288,30656
289,30080
290,30016
291,30144
292,30528
293,31104
294,31744
295,32256
296,32832
297,33344
298,33664
299,33920
300,33920
301,34176
302,34176
303,34112
304,34112
305,34176
306,34176
307,34112
308,34112
309,34176
310,34112
311,33984
312,33920
313,34048
314,34112
315,33984
316,33856
317,33920
318,33856
319,33856
320,33856
321,33984
322,34048
323,34112
324,34112
325,34240
326,34368
327,34560
328,34752
329,34816
330,34752
331,34624
332,34368
333,34240
334,34368
335,34496
336,34688
337,34816
338,35008
339,35072
340,35008
341,34944
342,34880
343,34880
344,34880
345,34816
346,34816
347,34688
348,34368
349,33920
350,33856
351,33728
352,33728
353,33664
354,33536
355,33408
356,33280
357,33024
358,32896
359,32960
360,32896
361,32960
362,33088
363,33280
364,33344
365,33344
366,33408
367,33600
368,33792
369,33728
370,33600
371,33600
372,33664
373,33600
374,33536
375,33536
376,33664
377,33664
378,33600
379,33664
380,33728
381,33728
382,33664
383,33600
384,33600
385,33728
386,33792
387,33792
388,33792
389,33792
390,33728
391,33664
392,33728
393,33792
394,33792
395,33728
396,33664
397,33600
398,33536
399,33472
400,33408
401,33472
402,33536
403,33536
404,33600
405,33664
406,33728
407,33728
408,33664
409,33728
410,33664
411,33664
412,33664
413,33664
414,33728
415,33728
416,33728
417,33728
418,33792
419,33792
420,33728
421,33728
422,33792
423,33792
424,33664
425,33664
426,33792
427,33792
428,33728
429,33664
430,33600
431,33664
432,33600
433,33600
434,33664
435,33728
436,33728
437,33728
438,33792
439,33856
440,33792
441,33728
442,33728
443,33856
444,33856
445,33856
446,33856
447,33856
448,33792
449,33728
450,33664
451,33792
452,33728
453,33664
454,33664
455,33728
456,33792
457,33792
458,33792
459,33920
460,33984
461,33920
462,33856
463,33856
464,33856
465,33792
466,33792
467,33856
468,33920
469,33920
470,33856
471,33920
472,33984
473,33920
474,33856
475,33856
476,33984
477,33984
478,34048
479,34240
480,34176
481,34304
482,34176
483,34112
484,34176
485,34304
486,34240
487,34176
488,34176
489,34176
490,34176
491,34112
492,34112
493,34112
494,33984
495,33856
496,33792
497,33792
498,33728
499,33664
500,33600
501,33792
502,33792
503,33728
504,33792
505,33920
506,33920
507,33728
508,33536
509,33728
510,34304
511,35392
512,37120
513,39616
514,41984
515,43712
516,44096
517,42816
518,40128
519,37184
520,34560
521,32384
522,30976
523,30144
524,29952
525,30144
526,30528
527,31040
528,31616
529,32128
530,32704
531,33280
532,33600
533,33920
534,34112
535,34240
536,34240
537,34304
538,34304
539,34240
540,34048
541,33920
542,33856
543,33920
544,33984
545,33920
546,33920
547,33920
548,33984
549,34048
550,34112
551,34240
552,34240
553,34048
554,33856
555,33856
556,33856
557,33856
558,33920
559,33984
560,33984
561,34048
562,34048
563,34176
564,34304
565,34368
566,34432
567,34624
568,34752
569,34816
570,34880
571,34944
572,35072
573,35072
574,35072
575,35008
576,35008
577,34752
578,34560
579,34368
580,34304
581,34176
582,33984
583,33856
584,33792
585,33792
586,33728
587,33600
588,33600
589,33536
590,33408
591,33280
592,33280
593,33344
594,33280
595,33280
596,33344
597,33280
598,33152
599,33024
600,33024
601,33088
602,33152
603,33216
604,33344
605,33408
606,33472
607,33472
608,33536
609,33536
610,33600
611,33536
612,33536
613,33600
614,33600
615,33664
616,33600
617,33600
618,33664
619,33664
620,33600
621,33600
622,33664
623,33664
624,33664
625,33664
626,33728
627,33792
628,33728
629,33664
630,33600
631,33536
632,33472
633,33408
634,33472
635,33472
636,33472
637,33472
638,33536
639,33600
640,33600
641,33600
642,33728
643,33792
644,33728
645,33664
646,33664
647,33664
648,33600
649,33536
650,33472
651,33472
652,33472
653,33408
654,33408
655,33472
656,33600
657,33600
658,33600
659,33728
660,33728
661,33728
662,33664
663,33728
664,33728
665,33728
666,33664
667,33664
668,33728
669,33664
670,33600
671,33600
672,33728
673,33792
674,33728
675,33664
676,33664
677,33664
678,33664
679,33664
680,33728
681,33792
682,33792
683,33856
684,33856
685,33856
686,33856
687,33792
688,33856
689,33920
690,33920
691,33856
692,33792
693,33856
694,33920
695,33984
696,34176
697,34304
698,34240
699,34112
700,34048
701,34048
702,34112
703,34112
704,34112
705,34240
706,34240
707,34176
708,34112
709,34176
710,34176
711,34048
712,33984
713,33984
714,33856
715,33664
716,33536
717,33600
718,33664
719,33600
720,33536
721,33536
722,33536
723,33600
724,33664
725,33664
726,33600
727,33472
728,33280
729,33856
730,34432
731,35776
732,37824
733,40448
734,43072
735,44480
736,44352
737,42368
738,39424
739,36480
740,33792
741,31744
742,30528
743,30016
744,29952
745,30144
746,30592
747,31232
748,31872
749,32576
750,32896
751,33344
752,33792
753,34048
754,34176
755,34304
756,34240
757,34176
758,34112
759,34112
760,34176
761,34048
762,33984
763,33856
764,33856
765,33856
766,33920
767,33920
768,33984
769,34048
770,33984
771,33920
772,33920
773,33920
774,33856
775,33856
776,33920
777,34048
778,34112
779,34176
780,34240
781,34304
782,34304
783,34432
784,34560
785,34752
786,34880
787,34880
788,34688
789,34496
790,34432
791,34432
792,34496
793,34688
794,34752
795,34752
796,34880
797,35008
798,34944
799,34624
800,34432
801,34304
802,34176
803,33984
804,33920
805,33792
806,33664
807,33408
808,33216
809,33152
810,33088
811,33024
812,32960
813,33024
814,33088
815,33088
816,33088
817,33152
818,33280
819,33344
820,33408
821,33472
822,33536
823,33536
824,33472
825,33472
826,33472
827,33536
828,33536
829,33472
830,33472
831,33472
832,33408
833,33408
834,33408
835,33472
836,33408
837,33408
838,33472
839,33600
840,33600
841,33600
842,33664
843,33728
844,33728
845,33600
846,33536
847,33472
848,33472
849,33408
850,33408
851,33472
852,33536
853,33536
854,33536
855,33600
856,33664
857,33600
858,33472
859,33472
860,33472
861,33600
862,33664
863,33664
864,33600
865,33472
866,33408
867,33472
868,33536
869,33600
870,33536
871,33536
872,33536
873,33536
874,33536
875,33600
876,33728
877,33792
878,33856
879,33856
880,33920
881,33856
882,33792
883,33728
884,33728
885,33664
886,33600
887,33472
888,33408
889,33408
890,33472
891,33536
892,33600
893,33728
894,33728
895,33728
896,33728
897,33728
898,33792
899,33728
900,33792
901,33984
902,33984
903,33856
904,33728
905,33728
906,33728
907,33792
908,33856
909,33920
910,33920
911,33856
912,33856
913,33856
914,33984
915,33984
916,33984
917,34048
918,34176
919,34304
920,34240
921,34240
922,34240
923,34304
924,34240
925,34176
926,34112
927,33984
928,33792
929,33536
930,33472
931,33472
932,33536
933,33472
934,33536
935,33600
936,33728
937,33792
938,33856
939,33856
940,33792
941,33600
942,33408
943,33280
944,33472
945,34176
946,35520
947,37568
948,40128
949,42688
950,44160
951,44160
952,42432
953,39616
954,36608
955,33920
956,31808
957,30528
958,29952
959,29952
960,30272
961,30656
962,31104
963,31680
964,32320
965,32704
966,33088
967,33536
968,33920
969,34112
970,34240
971,34368
972,34432
973,34432
974,34304
975,34176
976,34112
977,34048
978,33920
979,33856
980,33856
981,33920
982,33920
983,33920
984,33920
985,34048
986,34112
987,34048
988,33984
989,33984
990,33984
991,33920
992,34048
993,34112
994,34176
995,34240
996,34304
997,34432
998,34496
999,34432
1000,34496
1001,34624
1002,34688
1003,34688
1004,34688
1005,34816
1006,34880
1007,34880
1008,34880
1009,34880
1010,34880
1011,34816
1012,34752
1013,34816
1014,34880
1015,34816
1016,34688
1017,34560
1018,34432
1019,34240
1020,33920
1021,33664
1022,33472
1023,33216
1024,32960
1025,32896
1026,32960
1027,33024
1028,33024
1029,33024
1030,33152
1031,33216
1032,33280
1033,33344
1034,33472
1035,33600
1036,33600
1037,33600
1038,33600
1039,33728
1040,33792
1041,33792
1042,33920
1043,33984
1044,33856
1045,33600
1046,33472
1047,33408
1048,33408
1049,33408
1050,33472
1051,33536
1052,33664
1053,33664
1054,33664
1055,33792
1056,33856
1057,33856
1058,33792
1059,33792
1060,33792
1061,33792
1062,33792
1063,33728
1064,33728
1065,33664
1066,33600
1067,33600
1068,33728
1069,33856
1070,33792
1071,33664
1072,33536
1073,33472
1074,33408
1075,33408
1076,33472
1077,33600
1078,33536
1079,33536
1080,33600
1081,33728
1082,33728
1083,33728
1084,33792
1085,33728
1086,33728
1087,33728
1088,33728
1089,33792
1090,33856
1091,33792
1092,33792
1093,33792
1094,33856
1095,33792
1096,33664
1097,33600
1098,33536
1099,33536
1100,33536
1101,33600
1102,33664
1103,33664
1104,33728
1105,33856
1106,33920
1107,33920
1108,33984
1109,34176
1110,34368
1111,34304
1112,34112
1113,34112
1114,34240
1115,34240
1116,34176
1117,34048
1118,33984
1119,33856
1120,33728
1121,33664
1122,33600
1123,33472
1124,33408
1125,33344
1126,33408
1127,33472
1128,33472
1129,33536
1130,33600
1131,33664
1132,33728
1133,33728
1134,33856
1135,33984
1136,33984
1137,33728
1138,33536
1139,33408
1140,33728
1141,34560
1142,36160
1143,38336
1144,41536
1145,43072
1146,43968
1147,43264
1148,41024
1149,38016
1150,35328
1151,32960
1152,31296
1153,30400
1154,30080
1155,30400
1156,30848
1157,31168
1158,31424
1159,32192
1160,32512
1161,32896
1162,33152
1163,33472
1164,33792
1165,33920
1166,33984
1167,34112
1168,34240
1169,34304
1170,34240
1171,34176
1172,34176
1173,34112
1174,33984
1175,33984
1176,33984
1177,34048
1178,33984
1179,33984
1180,34048
1181,34048
1182,33920
1183,33920
1184,33984
1185,34112
1186,34112
1187,34048
1188,34176
1189,34432
1190,34432
1191,34304
1192,34304
1193,34304
1194,34304
1195,34304
1196,34432
1197,34624
1198,34752
1199,34752
1200,34816
1201,34944
1202,35008
1203,35008
1204,35008
1205,35072
1206,35072
1207,34944
1208,34816
1209,34752
1210,34688
1211,34560
1212,34432
1213,34240
1214,34112
1215,33856
1216,33664
1217,33472
1218,33344
1219,33152
1220,33024
1221,32960
1222,33024
1223,33152
1224,33216
1225,33152
1226,33152
1227,33152
1228,33152
1229,33216
1230,33344
1231,33472
1232,33472
1233,33472
1234,33664
1235,33664
1236,33728
1237,33728
1238,33728
1239,33664
1240,33664
1241,33664
1242,33728
1243,33792
1244,33728
1245,33600
1246,33536
1247,33600
1248,33664
1249,33664
1250,33600
1251,33664
1252,33664
1253,33664
1254,33792
1255,33856
1256,33856
1257,33664
1258,33536
1259,33600
1260,33664
1261,33664
1262,33664
1263,33728
1264,33792
1265,33728
1266,33728
1267,33600
1268,33536
1269,33472
1270,33408
1271,33408
1272,33472
1273,33536
1274,33600
1275,33728
1276,33856
1277,33920
1278,33856
1279,33792
1280,33728
1281,33664
1282,33600
1283,33536
1284,33600
1285,33600
1286,33600
1287,33600
1288,33664
1289,33728
1290,33728
1291,33728
1292,33728
1293,33728
1294,33792
1295,33728
1296,33728
1297,33792
1298,33792
1299,33728
1300,33728
1301,33856
1302,33920
1303,33920
1304,33792
1305,33856
1306,33920
1307,33920
1308,33792
1309,33792
1310,33728
1311,33664
1312,33600
1313,33536
1314,33664
1315,33728
1316,33792
1317,33920
1318,34048
1319,34176
1320,34176
1321,34176
1322,34240
1323,34304
1324,34368
1325,34368
1326,34368
1327,34368
1328,34304
1329,34304
1330,34240
1331,34048
1332,33856
1333,33728
1334,33664
1335,33536
1336,33408
1337,33344
1338,33472
1339,33600
1340,33600
1341,33600
1342,33728
1343,33856
1344,33856
1345,33856
1346,33856
1347,33792
1348,33664
1349,33472
1350,33664
1351,34432
1352,35840
1353,37824
1354,40832
1355,42944
1356,44480
1357,44352
1358,42496
1359,39616
1360,36608
1361,33920
1362,31808
1363,30464
1364,29824
1365,29696
1366,29888
1367,30336
1368,30976
1369,31680
1370,32256
1371,32768
1372,33216
1373,33664
1374,33984
1375,34176
1376,34304
1377,34432
1378,34368
1379,34176
1380,34048
1381,33984
1382,33920
1383,33856
1384,33792
1385,33856
1386,33920
1387,33920
1388,33920
1389,33920
1390,33856
1391,33856
1392,33856
1393,33920
1394,33920
1395,33984
1396,34048
1397,34240
1398,34368
1399,34304
1400,34304
1401,34304
1402,34304
1403,34304
1404,34240
1405,34304
1406,34368
1407,34496
1408,34560
1409,34752
1410,34944
1411,35008
1412,34944
1413,35008
1414,35136
1415,35200
1416,35136
1417,35008
1418,34880
1419,34688
1420,34496
1421,34304
1422,34240
1423,34112
1424,33920
1425,33728
1426,33664
1427,33536
1428,33408
1429,33280
1430,33280
1431,33280
1432,33216
1433,33152
1434,33152
1435,33216
1436,33280
1437,33152
1438,33152
1439,33216
1440,33280
1441,33280
1442,33280
1443,33344
1444,33472
1445,33472
1446,33472
1447,33536
1448,33600
1449,33536
1450,33536
1451,33536
1452,33600
1453,33600
1454,33536
1455,33600
1456,33728
1457,33792
1458,33856
1459,33920
1460,33920
1461,33664
1462,33472
1463,33344
1464,33408
1465,33472
1466,33472
1467,33472
1468,33664
1469,33728
1470,33600
1471,33536
1472,33536
1473,33536
1474,33472
1475,33472
1476,33600
1477,33664
1478,33664
1479,33600
1480,33664
1481,33664
1482,33664
1483,33664
1484,33728
1485,33856
1486,33856
1487,33792
1488,33728
1489,33728
1490,33600
1491,33472
1492,33472
1493,33536
1494,33600
1495,33536
1496,33600
1497,33600
1498,33600
1499,33664
1500,33664
1501,33664
1502,33792
1503,33792
1504,33792
1505,33920
1506,33920
1507,33920
1508,33728
1509,33600
1510,33600
1511,33600
1512,33600
1513,33664
1514,33792
1515,33856
1516,33856
1517,33792
1518,33856
1519,33984
1520,33920
1521,33920
1522,33920
1523,33920
1524,33920
1525,33856
1526,33984
1527,34112
1528,34112
1529,33856
1530,33664
1531,33536
1532,33600
1533,33664
1534,33792
1535,33856
1536,33856
1537,33792
1538,33920
1539,34176
1540,34240
1541,34240
1542,34240
1543,34368
1544,34560
1545,34624
1546,34496
1547,34432
1548,34368
1549,34240
1550,34112
1551,33984
1552,33856
1553,33728
1554,33600
1555,33536
1556,33536
1557,33536
1558,33536
1559,33600
1560,33664
1561,33664
1562,33664
1563,33664
1564,33792
1565,33920
1566,33984
1567,33856
1568,33728
1569,33472
1570,33408
1571,33856
1572,35072
1573,36864
1574,39360
1575,41792
1576,43840
1577,44608
1578,43648
1579,41024
1580,38144
1581,35200
1582,32704
1583,31040
1584,30080
1585,29824
1586,29888
1587,30208
1588,30848
1589,31616
1590,32128
1591,32576
1592,32960
1593,33344
1594,33664
1595,33920
1596,34112
1597,34304
1598,34368
1599,34304
1600,34240
1601,34240
1602,34304
1603,34240
1604,34112
1605,34048
1606,33984
1607,33856
1608,33792
1609,33856
1610,33920
1611,33920
1612,33920
1613,34048
1614,34048
1615,34048
1616,34048
1617,34176
1618,34368
1619,34304
1620,34368
1621,34304
1622,34304
1623,34304
1624,34304
1625,34560
1626,34688
1627,34752
1628,34816
1629,34752
1630,34752
1631,34880
1632,34880
1633,34944
1634,34944
1635,35072
1636,35008
1637,35008
1638,35008
1639,34944
1640,34816
1641,34688
1642,34496
1643,34304
1644,34240
1645,33984
1646,33792
1647,33536
1648,33216
1649,33152
1650,33088
1651,33088
1652,33024
1653,32960
1654,32960
1655,33152
1656,33280
1657,33280
1658,33408
1659,33344
1660,33600
1661,33600
1662,33472
1663,33472
1664,33408
1665,33600
1666,33600
1667,33536
1668,33536
1669,33472
1670,33536
1671,33600
1672,33664
1673,33600
1674,33600
1675,33600
1676,33600
1677,33536
1678,33472
1679,33472
1680,33600
1681,33600
1682,33600
1683,33664
1684,33600
1685,33856
1686,33856
1687,33920
1688,33920
1689,33856
1690,33728
1691,33600
1692,33600
1693,33600
1694,33536
1695,33536
1696,33600
1697,33600
1698,33536
1699,33472
1700,33536
1701,33600
1702,33664
1703,33664
1704,33664
1705,33664
1706,33600
1707,33600
1708,33728
1709,33664
1710,33728
1711,33792
1712,33856
1713,33856
1714,33792
1715,33600
1716,33536
1717,33600
1718,33600
1719,33536
1720,33536
1721,33600
1722,33664
1723,33792
1724,33856
1725,33792
1726,33728
1727,33664
1728,33728
1729,33728
1730,33792
1731,33792
1732,33792
1733,33792
1734,33792
1735,33792
1736,33728
1737,33728
1738,33728
1739,33728
1740,33728
1741,33728
1742,33728
1743,33728
1744,33728
1745,33792
1746,33920
1747,33984
1748,33792
1749,33792
1750,33920
1751,34048
1752,33984
1753,33792
1754,33728
1755,33792
1756,33792
1757,33728
1758,33728
1759,33728
1760,33792
1761,33792
1762,33920
1763,34048
1764,34176
1765,34176
1766,34240
1767,34368
1768,34368
1769,34304
1770,34304
1771,34368
1772,34432
1773,34368
1774,34304
1775,34304
1776,34304
1777,34176
1778,34048
1779,33984
1780,33856
1781,33664
1782,33472
1783,33472
1784,33408
1785,33536
1786,33600
1787,33728
1788,33856
1789,33856
1790,33792
1791,33728
1792,33792
1793,33728
1794,33472
1795,33280
1796,33472
1797,34176
1798,36480
1799,36800
1800,39872
1801,42496
1802,44160
1803,44224
1804,43968
1805,40640
1806,37504
1807,34560
1808,31872
1809,31680
1810,29952
1811,29696
1812,29824
1813,30336
1814,30976
1815,31616
1816,32192
1817,32704
1818,33216
1819,33536
1820,33728
1821,33984
1822,34240
1823,34432
1824,34304
1825,34176
1826,34048
1827,33920
1828,33856
1829,33792
1830,33920
1831,33920
1832,33920
1833,33920
1834,33856
1835,33984
1836,33984
1837,34112
1838,34176
1839,34112
1840,34240
1841,34240
1842,34176
1843,34112
1844,34048
1845,33984
1846,33984
1847,34112
1848,34112
1849,34048
1850,34176
1851,34304
1852,34432
1853,34496
1854,34624
1855,34752
1856,34880
1857,34944
1858,35072
1859,35200
1860,35328
1861,35328
1862,35264
1863,35136
1864,34880
1865,34624
1866,34432
1867,34240
1868,34112
1869,33920
1870,33792
1871,33664
1872,33600
1873,33472
1874,33344
1875,33280
1876,33280
1877,33152
1878,33088
1879,33024
1880,33088
1881,33152
1882,33152
1883,33152
1884,33152
1885,33344
1886,33344
1887,33280
1888,33344
1889,33344
1890,33408
1891,33344
1892,33344
1893,33344
1894,33344
1895,33344
1896,33472
1897,33536
1898,33536
1899,33472
1900,33472
1901,33536
1902,33472
1903,33472
1904,33536
1905,33664
1906,33728
1907,33728
1908,33728
1909,33664
1910,33728
1911,33664
1912,33600
1913,33536
1914,33472
1915,33408
1916,33344
1917,33408
1918,33408
1919,33344
1920,33408
1921,33472
1922,33600
1923,33664
1924,33600
1925,33792
1926,33856
1927,33792
1928,33728
1929,33664
1930,33664
1931,33664
1932,33664
1933,33664
1934,33600
1935,33664
1936,33600
1937,33600
1938,33472
1939,33344
1940,33280
1941,33472
1942,33664
1943,33728
1944,33536
1945,33472
1946,33472
1947,33536
1948,33600
1949,33600
1950,33728
1951,33792
1952,33792
1953,33856
1954,33792
1955,33856
1956,33792
1957,33856
1958,33920
1959,34112
1960,34176
1961,33920
1962,33600
1963,33280
1964,32960
1965,32832
1966,32960
1967,33152
1968,33536
1969,33472
1970,33792
1971,33984
1972,34304
1973,34368
1974,34176
1975,34048
1976,33984
1977,33856
1978,33792
1979,33792
1980,33920
1981,33984
1982,34048
1983,34112
1984,34112
1985,34048
1986,33984
1987,33984
1988,34176
1989,34176
1990,34240
1991,34176
1992,34176
1993,34240
1994,34240
1995,34304
1996,34368
1997,34176
1998,33728
1999,33408
2000,33280
2001,33280
2002,33280
2003,33344
2004,33472
2005,33600
2006,33728
2007,33792
2008,33920
2009,33856
2010,34048
2011,34112
2012,33984
2013,33792
2014,33536
2015,33856
2016,35008
2017,36928
2018,40192
2019,40384
2020,42560
2021,43776
2022,42176
2023,38144
2024,37696
2025,34240
2026,32384
2027,31168
2028,30208
2029,30144
2030,30208
2031,30528
2032,31104
2033,32000
2034,32000
2035,32832
2036,33152
2037,33472
2038,33856
2039,33792
2040,33984
2041,34048
2042,34048
2043,34112
2044,34112
2045,34112
2046,34240
2047,34560
2048,34880
2049,34752
2050,34432
2051,34112
2052,33728
2053,33344
2054,33216
2055,33216
2056,33344
2057,33344
2058,33536
2059,33664
2060,33920
2061,34176
2062,34368
2063,34624
2064,34688
2065,34560
2066,34496
2067,34688
2068,35072
2069,35008
2070,35072
2071,34816
2072,34688
2073,34432
2074,34368
2075,34368
2076,34496
2077,34560
2078,34624
2079,34688
2080,34944
2081,35264
2082,35584
2083,35328
2084,35264
2085,34432
2086,33984
2087,33728
2088,33728
2089,33664
2090,33600
2091,33472
2092,33472
2093,33408
2094,33280
2095,33216
2096,33280
2097,33280
2098,33344
2099,33408
2100,33536
2101,33600
2102,33344
2103,33088
2104,33088
2105,33216
2106,33280
2107,33408
2108,33472
2109,33472
2110,33728
2111,33920
2112,34048
2113,34304
2114,34304
2115,33920
2116,33344
2117,33024
2118,33024
2119,32960
2120,33216
2121,33344
2122,33472
2123,33536
2124,33472
2125,33536
2126,33600
2127,33600
2128,33664
2129,33664
2130,33728
2131,33792
2132,33728
2133,33856
2134,33792
2135,33856
2136,33728
2137,33728
2138,33792
2139,33792
2140,33792
2141,33728
2142,33664
2143,33664
2144,33664
2145,33536
2146,33536
2147,33600
2148,33600
2149,33664
2150,33728
2151,33856
2152,33856
2153,33856
2154,33792
2155,33920
2156,33856
2157,33792
2158,33856
2159,33920
2160,33856
2161,33728
2162,33664
2163,33664
2164,33664
2165,33728
2166,33856
2167,33984
2168,34048
2169,33984
2170,34112
2171,34304
2172,34496
2173,34496
2174,34368
2175,34304
2176,34304
2177,34176
2178,33856
2179,33792
2180,33664
2181,33472
2182,33280
2183,33280
2184,33280
2185,33472
2186,33472
2187,33472
2188,33600
2189,33664
2190,33728
2191,33856
2192,33984
2193,33984
2194,33792
2195,33536
2196,33344
2197,33472
2198,34112
2199,35392
2200,36928
2201,39360
2202,41792
2203,43840
2204,43776
2205,42496
2206,40000
2207,37184
2208,34048
2209,32576
2210,31168
2211,30336
2212,30080
2213,30272
2214,30592
2215,31040
2216,31552
2217,32064
2218,32576
2219,32960
2220,33280
2221,33664
2222,33984
2223,34176
2224,34112
2225,34240
2226,34304
2227,34240
2228,34048
2229,33984
2230,34112
2231,34112
2232,34176
2233,34176
2234,34112
2235,34048
2236,33856
2237,33792
2238,33728
2239,33728
2240,33600
2241,33600
2242,33792
2243,34176
2244,34176
2245,34176
2246,34240
2247,34176
2248,34176
2249,34176
2250,34368
2251,34496
2252,34496
2253,34560
2254,34560
2255,34752
2256,34688
2257,34624
2258,34752
2259,34816
2260,34816
2261,34752
2262,34752
2263,34752
2264,34688
2265,34688
2266,34560
2267,34496
2268,34496
2269,34368
2270,34304
2271,34176
2272,34048
2273,33600
2274,33344
2275,33216
2276,33152
2277,33216
2278,33344
2279,33408
2280,33344
2281,33088
2282,32832
2283,32704
2284,32704
2285,32832
2286,33024
2287,33152
2288,33280
2289,33408
2290,33408
2291,33472
2292,33600
2293,33664
2294,33664
2295,33600
2296,33664
2297,33728
2298,33664
2299,33600
2300,33664
2301,33664
2302,33664
2303,33664
2304,33728
2305,33792
2306,33728
2307,33664
2308,33600
2309,33664
2310,33664
2311,33728
2312,33728
2313,33792
2314,33728
2315,33600
2316,33600
2317,33728
2318,33792
2319,33728
2320,33664
2321,33792
2322,33792
2323,33536
2324,33472
2325,33472
2326,33600
2327,33664
2328,33728
2329,33792
2330,33728
2331,33664
2332,33536
2333,33536
2334,33472
2335,33664
2336,33728
2337,33664
2338,33600
2339,33536
2340,33536
2341,33536
2342,33728
2343,33920
2344,33856
2345,33728
2346,33792
2347,33984
2348,34176
2349,34304
2350,34176
2351,33984
2352,33856
2353,33984
2354,33920
2355,34176
2356,34240
2357,34176
2358,34048
2359,34048
2360,33920
2361,33792
2362,33664
2363,33728
2364,33728
2365,33664
2366,33664
2367,33728
2368,33600
2369,33408
2370,33408
2371,33600
2372,33664
2373,33536
2374,33472
2375,33600
2376,33600
2377,33408
2378,33152
2379,33216
2380,33920
2381,35072
2382,36864
2383,39680
2384,41664
2385,43520
2386,43968
2387,42688
2388,39936
2389,37248
2390,34432
2391,32128
2392,30784
2393,30016
2394,29952
2395,30016
2396,30336
2397,30912
2398,31680
2399,32192
2400,32704
2401,33216
2402,33600
2403,34176
2404,34176
2405,34304
2406,34176
2407,33984
2408,33984
2409,33920
2410,33856
2411,33792
2412,33856
2413,33920
2414,33856
2415,33920
2416,33984
2417,33984
2418,33920
2419,33856
2420,33856
2421,33920
2422,34048
2423,34176
2424,34176
2425,34112
2426,33984
2427,33856
2428,33856
2429,33920
2430,34048
2431,34176
2432,34240
2433,34432
2434,34560
2435,34752
2436,34816
2437,34944
2438,35136
2439,35136
2440,35008
2441,34880
2442,34816
2443,34688
2444,34624
2445,34624
2446,34752
2447,34880
2448,34880
2449,34752
2450,34560
2451,34368
2452,34176
2453,33792
2454,33728
2455,33600
2456,33536
2457,33472
2458,33408
2459,33280
2460,33152
2461,32960
2462,32832
2463,32896
2464,32960
2465,33088
2466,33152
2467,33344
2468,33472
2469,33472
2470,33472
2471,33536
2472,33664
2473,33728
2474,33728
2475,33728
2476,33536
2477,33280
2478,33152
2479,33152
2480,33280
2481,33408
2482,33472
2483,33600
2484,33664
2485,33792
2486,33792
2487,33920
2488,34048
2489,33920
2490,33792
2491,33728
2492,33792
2493,33920
2494,33856
2495,33920
2496,33920
2497,33792
2498,33472
2499,33280
2500,33280
2501,33344
2502,33408
2503,33472
2504,33472
2505,33664
2506,33728
2507,33600
2508,33600
2509,33664
2510,33728
2511,33728
2512,33664
2513,33856
2514,33920
2515,33984
2516,33920
2517,33792
2518,33664
2519,33536
2520,33472
2521,33472
2522,33472
2523,33536
2524,33472
2525,33600
2526,33664
2527,33792
2528,33856
2529,33920
2530,33984
2531,33856
2532,33728
2533,33728
2534,33856
2535,34048
2536,34112
2537,34048
2538,34048
2539,34048
2540,33920
2541,33856
2542,33920
2543,34048
2544,34048
2545,34048
2546,34112
2547,34240
2548,34240
2549,34304
2550,34240
2551,33984
2552,33600
2553,33280
2554,33152
2555,33216
2556,33344
2557,33408
2558,33536
2559,33600
2560,33600
2561,33536
2562,33536
2563,33728
2564,33792
2565,33792
2566,33600
2567,33408
2568,33344
2569,33536
2570,34304
2571,35776
2572,37952
2573,41152
2574,42560
2575,43648
2576,43456
2577,41600
2578,38720
2579,36032
2580,33536
2581,31680
2582,30464
2583,29888
2584,29952
2585,30272
2586,30656
2587,31168
2588,31808
2589,32384
2590,32896
2591,33280
2592,33600
2593,33984
2594,34048
2595,34112
2596,34176
2597,34240
2598,34304
2599,34240
2600,34112
2601,33984
2602,33856
2603,33792
2604,33792
2605,33856
2606,33856
2607,33792
2608,33856
2609,33856
2610,33856
2611,33792
2612,33856
2613,33984
2614,34048
2615,34240
2616,34368
2617,34432
2618,34368
2619,34240
2620,34176
2621,34240
2622,34368
2623,34496
2624,34432
2625,34688
2626,34688
2627,34624
2628,34560
2629,34624
2630,34752
2631,34880
2632,34880
2633,34880
2634,34880
2635,34880
2636,34816
2637,34688
2638,34752
2639,34752
2640,34560
2641,34304
2642,34048
2643,33856
2644,33728
2645,33600
2646,33536
2647,33472
2648,33152
2649,32960
2650,32896
2651,33088
2652,33216
2653,33024
2654,32960
2655,33024
2656,33088
2657,33152
2658,33216
2659,33344
2660,33344
2661,33344
2662,33344
2663,33600
2664,33600
2665,33920
2666,33984
2667,34368
2668,34880
2669,35072
2670,34880
2671,34112
2672,33344
2673,32512
2674,32448
2675,32384
2676,32512
2677,32640
2678,32832
2679,32960
2680,33152
2681,33344
2682,33536
2683,33664
2684,33792
2685,33792
2686,33664
2687,33536
2688,33472
2689,33536
2690,33536
2691,33728
2692,33920
2693,34176
2694,34112
2695,34112
2696,34240
2697,34688
2698,34816
2699,34240
2700,33728
2701,33472
2702,33408
2703,33792
2704,33984
2705,34304
2706,34368
2707,34112
2708,33792
2709,33600
2710,33408
2711,33344
2712,33216
2713,33152
2714,33152
2715,33152
2716,33216
2717,33472
2718,33920
2719,34304
2720,34496
2721,34688
2722,34688
2723,34176
2724,34048
2725,34048
2726,34176
2727,34112
2728,33728
2729,33408
2730,33280
2731,33408
2732,33600
2733,33792
2734,34304
2735,35648
2736,36928
2737,37248
2738,36416
2739,34432
2740,32320
2741,31168
2742,30976
2743,31232
2744,31424
2745,31680
2746,32064
2747,32448
2748,32832
2749,33280
2750,34048
2751,34816
2752,35072
2753,34816
2754,34368
2755,34176
2756,34240
2757,34304
2758,34368
2759,34432
2760,34496
2761,34624
2762,34688
2763,34624
2764,34496
2765,34368
2766,34304
2767,34176
2768,34112
2769,33920
2770,33792
2771,33856
2772,33984
2773,34112
2774,34112
2775,34176
2776,34176
2777,34048
2778,34112
2779,34304
2780,34816
2781,35584
2782,36224
2783,36160
2784,35840
2785,35008
2786,33472
2787,31936
2788,31360
2789,31808
2790,33216
2791,35648
2792,38848
2793,42496
2794,44352
2795,44992
2796,43584
2797,40896
2798,37824
2799,35008
2800,32768
2801,31232
2802,30400
2803,30080
2804,30208
2805,30656
2806,31232
2807,31872
2808,32576
2809,33088
2810,33280
2811,33536
2812,34432
2813,35648
2814,35584
2815,35008
2816,34432
2817,33792
2818,33088
2819,32704
2820,32640
2821,32768
2822,32960
2823,33024
2824,33152
2825,33280
2826,33408
2827,33600
2828,33728
2829,33920
2830,34048
2831,34112
2832,34048
2833,34048
2834,33984
2835,33984
2836,34048
2837,34048
2838,34240
2839,34880
2840,35584
2841,35648
2842,35456
2843,35520
2844,35840
2845,35712
2846,34880
2847,33728
2848,33088
2849,32896
2850,32960
2851,33152
2852,33408
2853,33664
2854,33984
2855,34368
2856,34688
2857,34816
2858,34880
2859,34944
2860,34944
2861,34752
2862,34496
2863,34240
2864,34048
2865,33792
2866,33536
2867,33472
2868,33472
2869,33408
2870,33280
2871,33152
2872,33088
2873,33088
2874,33152
2875,33152
2876,33216
2877,33152
2878,33088
2879,33024
2880,33024
2881,33152
2882,33280
2883,33408
2884,33664
2885,33792
2886,33728
2887,33600
2888,33536
2889,33536
2890,33472
2891,33408
2892,33472
2893,33728
2894,33856
2895,33920
2896,34240
2897,34560
2898,34304
2899,33792
2900,33536
2901,33408
2902,33280
2903,33216
2904,33216
2905,33280
2906,33472
2907,33536
2908,33472
2909,33408
2910,33408
2911,33408
2912,33472
2913,33600
2914,33728
2915,33984
2916,34176
2917,34112
2918,33792
2919,33472
2920,33280
2921,33216
2922,33152
2923,33152
2924,33216
2925,33472
2926,34048
2927,34304
2928,33920
2929,33408
2930,33088
2931,32960
2932,32832
2933,32832
2934,32960
2935,33024
2936,33152
2937,33280
2938,33344
2939,33600
2940,33664
2941,33664
2942,33664
2943,33728
2944,33728
2945,33728
2946,33600
2947,33664
2948,33856
2949,33920
2950,33920
2951,33920
2952,33920
2953,33984
2954,34048
2955,34048
2956,33984
2957,33728
2958,33600
2959,33600
2960,33664
2961,33792
2962,33792
2963,33536
2964,33152
2965,32832
2966,32768
2967,32832
2968,32960
2969,33152
2970,33280
2971,33472
2972,33536
2973,33408
2974,33344
2975,33664
2976,34496
2977,35904
2978,37952
2979,41216
2980,42496
2981,43456
2982,42752
2983,40704
2984,38144
2985,35712
2986,33472
2987,31680
2988,30592
2989,30272
2990,30208
2991,30272
2992,30400
2993,30784
2994,31360
2995,31808
2996,32448
2997,33024
2998,33472
2999,33728
3000,33984
3001,34176
3002,34304
3003,34432
3004,34496
3005,34432
3006,34496
3007,34368
3008,34048
3009,33792
3010,33664
3011,33408
3012,33280
3013,33280
3014,33408
3015,33408
3016,33344
3017,33472
3018,33664
3019,33856
3020,33984
3021,34112
3022,34240
3023,34432
3024,34624
3025,34624
3026,34624
3027,34560
3028,34368
3029,34176
3030,34240
3031,34432
3032,34496
3033,34368
3034,34368
3035,34496
3036,34688
3037,34688
3038,34816
3039,35008
3040,35072
3041,35008
3042,34944
3043,34944
3044,34816
3045,34560
3046,34368
3047,34368
3048,34176
3049,33728
3050,33280
3051,33152
3052,33152
3053,32960
3054,32960
3055,32960
3056,33024
3057,33088
3058,33088
3059,33280
3060,33472
3061,33536
3062,33536
3063,33536
3064,33536
3065,33472
3066,33408
3067,33472
3068,33536
3069,33600
3070,33600
3071,33600
3072,33664
3073,33728
3074,33856
3075,33920
3076,33920
3077,33792
3078,33600
3079,33600
3080,33600
3081,33664
3082,33664
3083,33664
3084,33856
3085,33920
3086,33984
3087,34048
3088,33920
3089,33792
3090,33600
3091,33344
3092,33280
3093,33344
3094,33472
3095,33600
3096,33664
3097,33920
3098,33920
3099,33664
3100,33600
3101,33600
3102,33728
3103,33920
3104,33920
3105,33920
3106,33920
3107,33920
3108,33728
3109,33728
3110,33664
3111,33536
3112,33536
3113,33600
3114,33792
3115,33856
3116,33920
3117,34048
3118,34304
3119,34368
3120,34176
3121,33984
3122,33984
3123,34240
3124,34496
3125,34432
3126,34048
3127,33600
3128,33280
3129,33280
3130,33344
3131,33472
3132,33344
3133,33152
3134,33152
3135,33152
3136,33088
3137,33088
3138,33216
3139,33472
3140,33600
3141,33728
3142,34048
3143,34304
3144,34304
3145,34688
3146,35776
3147,37632
3148,40064
3149,42112
3150,43136
3151,42688
3152,40960
3153,38464
3154,35840
3155,33600
3156,32000
3157,31040
3158,30528
3159,30400
3160,30528
3161,30848
3162,31296
3163,31936
3164,32576
3165,33152
3166,33408
3167,33728
3168,33984
3169,34112
3170,34048
3171,34048
3172,34176
3173,34240
3174,34304
3175,34304
3176,34432
3177,34432
3178,34176
3179,33920
3180,33792
3181,33856
3182,33856
3183,33856
3184,33920
3185,33984
3186,33856
3187,33600
3188,33600
3189,33792
3190,33920
3191,34048
3192,34112
3193,34240
3194,34368
3195,34496
3196,34624
3197,34688
3198,34816
3199,34944
3200,34944
3201,35008
3202,34880
3203,34752
3204,35072
3205,35264
3206,35520
3207,35328
3208,34816
3209,34496
3210,34496
3211,34560
3212,34496
3213,34368
3214,34240
3215,34176
3216,34048
3217,34048
3218,34112
3219,33984
3220,33728
3221,33600
3222,33536
3223,33408
3224,33152
3225,32960
3226,32960
3227,32960
3228,32960
3229,32960
3230,33024
3231,33152
3232,33408
3233,33728
3234,33664
3235,33536
3236,33408
3237,33472
3238,33600
3239,33600
3240,33600
3241,33536
3242,33472
3243,33600
3244,33728
3245,33728
3246,33600
3247,33664
3248,33664
3249,33536
3250,33600
3251,33856
3252,34048
3253,34112
3254,33856
3255,33600
3256,33408
3257,33344
3258,33408
3259,33472
3260,33536
3261,33600
3262,33728
3263,33792
3264,33856
3265,33792
3266,33728
3267,33728
3268,33792
3269,33728
3270,33664
3271,33728
3272,33984
3273,34048
3274,33728
3275,33408
3276,33344
3277,33408
3278,33536
3279,33792
3280,33792
3281,33984
3282,34048
3283,34112
3284,34048
3285,34112
3286,33984
3287,33792
3288,33856
3289,34112
3290,34048
3291,33856
3292,33856
3293,34048
3294,34176
3295,34112
3296,33920
3297,33856
3298,33728
3299,33664
3300,33600
3301,33600
3302,33536
3303,33600
3304,33728
3305,33984
3306,34048
3307,33792
3308,33600
3309,33472
3310,33408
3311,33472
3312,33600
3313,33664
3314,33728
3315,33536
3316,33280
3317,33536
3318,34560
3319,36160
3320,38272
3321,40768
3322,42816
3323,43776
3324,43072
3325,40832
3326,38080
3327,35456
3328,33024
3329,31232
3330,30272
3331,29952
3332,30080
3333,30592
3334,31168
3335,31616
3336,32064
3337,32576
3338,33088
3339,33536
3340,33792
3341,33856
3342,33920
3343,34048
3344,34240
3345,34304
3346,34304
3347,34368
3348,34304
3349,33984
3350,33856
3351,33856
3352,33856
3353,33728
3354,33664
3355,33920
3356,34048
3357,33920
3358,33728
3359,33728
3360,33856
3361,33984
3362,34112
3363,34176
3364,34304
3365,34368
3366,34368
3367,34496
3368,34624
3369,34688
3370,34624
3371,34560
3372,34560
3373,34624
3374,34624
3375,34752
3376,34880
3377,35008
3378,35072
3379,35264
3380,35392
3381,35328
3382,35008
3383,34624
3384,34496
3385,34560
3386,34496
3387,34304
3388,34048
3389,33984
3390,33856
3391,33728
3392,33664
3393,33664
3394,33536
3395,33280
3396,33152
3397,33152
3398,33152
3399,33216
3400,33344
3401,33536
3402,33472
3403,33280
3404,33152
3405,33280
3406,33408
3407,33472
3408,33344
3409,33280
3410,33344
3411,33472
3412,33728
3413,33920
3414,33984
3415,33856
3416,33600
3417,33408
3418,33472
3419,33536
3420,33472
3421,33408
3422,33536
3423,33664
3424,33984
3425,34240
3426,34176
3427,33920
3428,33792
3429,33664
3430,33664
3431,33728
3432,33664
3433,33664
3434,33728
3435,33600
3436,33472
3437,33472
3438,33536
3439,33536
3440,33472
3441,33600
3442,33920
3443,33920
3444,33792
3445,33664
3446,33536
3447,33536
3448,33536
3449,33536
3450,33856
3451,33984
3452,33856
3453,33664
3454,33664
3455,33664
3456,33600
3457,33536
3458,33600
3459,33856
3460,33856
3461,33600
3462,33536
3463,33536
3464,33536
3465,33664
3466,33664
3467,33664
3468,33664
3469,33536
3470,33600
3471,33856
3472,33984
3473,33856
3474,33728
3475,33728
3476,33792
3477,33856
3478,33856
3479,33792
3480,33920
3481,33856
3482,33728
3483,33856
3484,33984
3485,33984
3486,33920
3487,33728
3488,33472
3489,33408
3490,33536
3491,33792
3492,34048
3493,34240
3494,34432
3495,34560
3496,34688
3497,34624
3498,34368
3499,34176
3500,34112
3501,34112
3502,34048
3503,34112
3504,33792
3505,33408
3506,33152
3507,33088
3508,33216
3509,33408
3510,33664
3511,33728
3512,33728
3513,33792
3514,33792
3515,33728
3516,33792
3517,33920
3518,33984
3519,33856
3520,33664
3521,33792
3522,34432
3523,35520
3524,36928
3525,39232
3526,41728
3527,43456
3528,43840
3529,42624
3530,40256
3531,37440
3532,34752
3533,32512
3534,31040
3535,30144
3536,29760
3537,29952
3538,30592
3539,31296
3540,31808
3541,32064
3542,32448
3543,32960
3544,33408
3545,33728
3546,34048
3547,34368
3548,34496
3549,34368
3550,34240
3551,34176
3552,34240
3553,34176
3554,33984
3555,33856
3556,33792
3557,33664
3558,33728
3559,33984
3560,34176
3561,34112
3562,33984
3563,33856
3564,33792
3565,33728
3566,33856
3567,34176
3568,34368
3569,34496
3570,34624
3571,34560
3572,34368
3573,34176
3574,34048
3575,34048
3576,34240
3577,34368
3578,34368
3579,34432
3580,34624
3581,34688
3582,34688
3583,34816
3584,34944
3585,35008
3586,35008
3587,35072
3588,35072
3589,34944
3590,34816
3591,34688
3592,34688
3593,34688
3594,34624
3595,34304
3596,33984
3597,33792
3598,33664
3599,33536
3600,33408
3601,33088
3602,32896
3603,32704
3604,32832
3605,33024
3606,33088
3607,33088
3608,33216
3609,33408
3610,33536
3611,33536
3612,33600
3613,33728
3614,33856
3615,33792
3616,33664
3617,33600
3618,33664
3619,33728
3620,33728
3621,33728
3622,33856
3623,33792
3624,33728
3625,33792
3626,33856
3627,34112
3628,34240
3629,34048
3630,33728
3631,33472
3632,33280
3633,33408
3634,33664
3635,33920
3636,34112
3637,34112
3638,33920
3639,33536
3640,33280
3641,33216
3642,33344
3643,33536
3644,33664
3645,33728
3646,33792
3647,33856
3648,33984
3649,34176
3650,34432
3651,34304
3652,33984
3653,33728
3654,33664
3655,33664
3656,33600
3657,33344
3658,33280
3659,33472
3660,33664
3661,33792
3662,33984
3663,34112
3664,34048
3665,34048
3666,34112
3667,33920
3668,33472
3669,33216
3670,33280
3671,33664
3672,33920
3673,33728
3674,33472
3675,33472
3676,33600
3677,33792
3678,33856
3679,33856
3680,33792
3681,33728
3682,33728
3683,33920
3684,34048
3685,34048
3686,33792
3687,33600
3688,33536
3689,33536
3690,33728
3691,33856
3692,33920
3693,33856
3694,33536
3695,33472
3696,33600
3697,33856
3698,33792
3699,33856
3700,33984
3701,34112
3702,34112
3703,33984
3704,33728
3705,33600
3706,33536
3707,33472
3708,33664
3709,33920
3710,34048
3711,33984
3712,33920
3713,33984
3714,33856
3715,33664
3716,33600
3717,33728
3718,34048
3719,34368
3720,34624
3721,34624
3722,34368
3723,34112
3724,34048
3725,34176
3726,34368
3727,34496
3728,34496
3729,34432
3730,34368
3731,34304
3732,34240
3733,34368
3734,34688
3735,34688
3736,33984
3737,33472
3738,33536
3739,33536
3740,33216
3741,33088
3742,33280
3743,33536
3744,33728
3745,33984
3746,34176
3747,34304
3748,34496
3749,34496
3750,34240
3751,33856
3752,33664
3753,34112
3754,35200
3755,36928
3756,39296
3757,41792
3758,43648
3759,44160
3760,43136
3761,40704
3762,37696
3763,34944
3764,32640
3765,31168
3766,30272
3767,29888
3768,30016
3769,30400
3770,31040
3771,31744
3772,32256
3773,32640
3774,32960
3775,33216
3776,33600
3777,33984
3778,34240
3779,34304
3780,34176
3781,34176
3782,34112
3783,34048
3784,33984
3785,33856
3786,33728
3787,33792
3788,33920
3789,33984
3790,34048
3791,34112
3792,34176
3793,34176
3794,34112
3795,34112
3796,34368
3797,34688
3798,34560
3799,34112
3800,33728
3801,33600
3802,33728
3803,33920
3804,34112
3805,34368
3806,34432
3807,34496
3808,34624
3809,34816
3810,34944
3811,35008
3812,35008
3813,35008
3814,34944
3815,34752
3816,34752
3817,34816
3818,34816
3819,34752
3820,34688
3821,34880
3822,34880
3823,34688
3824,34432
3825,34112
3826,34048
3827,34112
3828,33920
3829,33600
3830,33408
3831,33408
3832,33472
3833,33472
3834,33472
3835,33344
3836,33152
3837,32960
3838,32960
3839,33152
3840,33280
3841,33344
3842,33408
3843,33600
3844,33664
3845,33664
3846,33536
3847,33408
3848,33408
3849,33408
3850,33408
3851,33536
3852,33600
3853,33600
3854,33600
3855,33600
3856,33600
3857,33472
3858,33600
3859,33728
3860,33728
3861,33728
3862,33664
3863,33728
3864,33856
3865,33792
3866,33536
3867,33344
3868,33280
3869,33280
3870,33408
3871,33664
3872,33920
3873,34048
3874,34048
3875,33920
3876,33792
3877,33728
3878,33600
3879,33600
3880,33600
3881,33600
3882,33536
3883,33792
3884,34048
3885,33664
3886,33152
3887,33088
3888,33344
3889,33664
3890,33600
3891,33536
3892,33600
3893,33664
3894,33728
3895,33728
3896,33920
3897,33984
3898,33920
3899,33856
3900,33856
3901,33856
3902,33856
3903,33728
3904,33728
3905,33792
3906,33984
3907,34112
3908,34048
3909,33856
3910,33792
3911,33856
3912,34112
3913,34112
3914,33856
3915,33600
3916,33664
3917,33728
3918,33664
3919,33536
3920,33472
3921,33536
3922,33600
3923,33728
3924,33792
3925,33920
3926,34048
3927,34112
3928,34304
3929,34432
3930,34304
3931,34176
3932,34112
3933,33984
3934,33920
3935,34048
3936,33856
3937,33600
3938,33408
3939,33344
3940,33408
3941,33472
3942,33664
3943,33920
3944,34112
3945,34368
3946,34624
3947,34624
3948,34432
3949,34176
3950,34240
3951,34560
3952,34624
3953,34496
3954,34304
3955,34176
3956,34112
3957,34048
3958,34112
3959,34176
3960,34048
3961,33792
3962,33600
3963,33536
3964,33472
3965,33472
3966,33536
3967,33664
3968,33792
3969,33920
3970,34176
3971,34496
3972,34496
3973,34304
3974,34048
3975,33664
3976,33216
3977,33216
3978,33856
3979,35200
3980,37248
3981,39872
3982,42432
3983,44160
3984,44416
3985,42880
3986,40128
3987,37056
3988,34304
3989,32064
3990,30848
3991,30208
3992,30080
3993,30400
3994,30784
3995,31232
3996,31936
3997,32512
3998,32832
3999,33088
4000,33280
4001,33536
4002,33728
4003,33792
4004,33920
4005,34048
4006,34112
4007,34048
4008,33984
4009,34112
4010,34240
4011,34432
4012,34368
4013,34304
4014,34240
4015,34048
4016,33856
4017,33856
4018,33792
4019,33600
4020,33536
4021,33600
4022,33728
4023,33920
4024,34048
4025,34240
4026,34496
4027,34368
4028,34176
4029,34176
4030,34368
4031,34432
4032,34560
4033,34880
4034,35200
4035,35328
4036,35136
4037,34944
4038,34816
4039,34944
4040,35328
4041,35328
4042,34880
4043,34240
4044,33984
4045,33856
4046,33984
4047,34176
4048,34304
4049,34432
4050,34496
4051,34496
4052,34240
4053,33920
4054,33792
4055,33920
4056,33856
4057,33536
4058,33216
4059,33024
4060,32832
4061,32704
4062,32768
4063,32896
4064,33024
4065,33152
4066,33152
4067,33216
4068,33408
4069,33728
4070,33984
4071,33856
4072,33536
4073,33408
4074,33344
4075,33664
4076,34304
4077,34560
4078,33920
4079,33216
4080,32960
4081,32960
4082,32960
4083,33024
4084,33216
4085,33344
4086,33536
4087,33664
4088,33920
4089,34048
4090,34112
4091,33984
4092,33984
4093,34176
4094,34176
4095,33856
4096,33600
4097,33344
4098,33280
4099,33280
4100,33280
4101,33408
4102,33472
4103,33472
4104,33472
4105,33472
4106,33536
4107,33728
4108,33984
4109,33856
4110,33600
4111,33408
4112,33280
4113,33344
4114,33408
4115,33536
4116,33664
4117,33792
4118,33792
4119,33664
4120,33536
4121,33600
4122,33664
4123,33664
4124,33536
4125,33472
4126,33600
4127,33728
4128,33728
4129,33728
4130,33856
4131,33920
4132,33984
4133,34112
4134,34176
4135,33984
4136,33792
4137,33664
4138,33536
4139,33472
4140,33536
4141,33472
4142,33472
4143,33600
4144,33792
4145,33920
4146,33920
4147,33920
4148,34048
4149,34176
4150,34176
4151,34112
4152,33792
4153,33472
4154,33408
4155,33472
4156,33664
4157,33920
4158,34176
4159,34176
4160,34048
4161,33856
4162,33920
4163,34240
4164,34496
4165,34560
4166,34496
4167,34368
4168,34368
4169,34432
4170,34368
4171,34304
4172,34176
4173,33984
4174,33920
4175,33856
4176,33984
4177,34112
4178,34048
4179,33984
4180,33984
4181,33792
4182,33600
4183,33472
4184,33472
4185,33536
4186,33536
4187,33664
4188,33920
4189,34048
4190,33856
4191,33600
4192,33408
4193,33472
4194,33664
4195,33728
4196,34176
4197,35520
4198,37568
4199,40320
4200,42624
4201,44224
4202,44352
4203,42688
4204,40000
4205,37056
4206,34176
4207,31872
4208,30464
4209,29760
4210,29504
4211,29568
4212,30016
4213,30784
4214,31680
4215,32320
4216,32960
4217,33408
4218,33728
4219,33984
4220,34112
4221,34176
4222,34240
4223,34432
4224,34432
4225,34304
4226,34112
4227,33920
4228,33728
4229,33728
4230,33920
4231,34048
4232,34112
4233,34112
4234,34240
4235,34112
4236,33856
4237,33856
4238,34048
4239,34176
4240,34112
4241,33984
4242,33728
4243,33728
4244,33920
4245,34048
4246,34048
4247,34240
4248,34496
4249,34496
4250,34368
4251,34368
4252,34432
4253,34624
4254,34944
4255,35136
4256,35008
4257,34688
4258,34496
4259,34496
4260,34560
4261,34624
4262,34688
4263,34752
4264,34944
4265,35200
4266,35200
4267,34624
4268,34048
4269,33792
4270,33920
4271,34048
4272,33664
4273,33216
4274,32768
4275,32640
4276,32768
4277,32832
4278,32704
4279,32640
4280,32704
4281,32896
4282,33088
4283,33280
4284,33536
4285,33728
4286,33728
4287,33600
4288,33472
4289,33408
4290,33344
4291,33216
4292,33152
4293,33152
4294,33216
4295,33344
4296,33728
4297,34048
4298,33920
4299,33536
4300,33280
4301,33408
4302,33600
4303,33408
4304,33216
4305,33216
4306,33344
4307,33408
4308,33472
4309,33664
4310,33856
4311,33792
4312,33600
4313,33600
4314,33728
4315,33792
4316,33600
4317,33600
4318,33664
4319,33600
4320,33536
4321,33728
4322,33984
4323,33856
4324,33472
4325,33280
4326,33152
4327,33152
4328,33152
4329,33216
4330,33408
4331,33536
4332,33472
4333,33408
4334,33472
4335,33664
4336,33856
4337,33984
4338,33984
4339,33856
4340,33728
4341,33664
4342,33664
4343,33664
4344,33472
4345,33280
4346,33088
4347,33024
4348,33152
4349,33152
4350,33216
4351,33344
4352,33600
4353,33600
4354,33600
4355,33792
4356,33920
4357,33856
4358,33600
4359,33600
4360,33728
4361,33792
4362,33984
4363,34176
4364,34176
4365,34112
4366,34304
4367,34560
4368,34624
4369,34560
4370,34432
4371,34240
4372,34048
4373,33984
4374,34048
4375,33984
4376,33984
4377,33856
4378,33792
4379,33792
4380,33792
4381,33728
4382,33600
4383,33600
4384,33792
4385,33984
4386,33984
4387,33920
4388,33920
4389,33856
4390,33664
4391,33280
4392,33152
4393,33600
4394,34560
4395,36032
4396,38208
4397,41088
4398,43776
4399,45056
4400,44352
4401,41792
4402,38720
4403,35840
4404,33408
4405,31552
4406,30144
4407,29376
4408,29248
4409,29504
4410,30080
4411,30720
4412,31360
4413,32000
4414,32704
4415,33216
4416,33664
4417,34048
4418,34432
4419,34688
4420,34880
4421,34816
4422,34560
4423,34112
4424,33600
4425,33216
4426,33088
4427,33280
4428,33536
4429,33664
4430,33792
4431,33920
4432,34048
4433,34240
4434,34368
4435,34496
4436,34304
4437,34176
4438,34112
4439,34240
4440,34624
4441,34688
4442,34304
4443,34112
4444,34112
4445,34304
4446,34560
4447,34752
4448,34880
4449,35072
4450,34944
4451,34688
4452,34624
4453,34688
4454,34752
4455,34880
4456,35072
4457,35264
4458,35456
4459,35520
4460,35392
4461,35136
4462,34880
4463,34816
4464,34752
4465,34560
4466,34560
4467,34432
4468,34112
4469,33728
4470,33344
4471,32960
4472,32768
4473,32768
4474,32896
4475,32960
4476,33088
4477,33152
4478,33152
4479,33216
4480,33536
4481,33728
4482,33728
4483,33728
4484,33664
4485,33664
4486,33664
4487,33472
4488,33280
4489,33344
4490,33472
4491,33536
4492,33728
4493,33984
4494,33984
4495,33792
4496,33536
4497,33408
4498,33408
4499,33344
4500,33280
4501,33344
4502,33536
4503,33664
4504,33728
4505,33792
4506,34048
4507,34240
4508,34240
4509,34112
4510,34048
4511,33856
4512,33600
4513,33280
4514,33088
4515,33088
4516,33024
4517,33088
4518,33216
4519,33472
4520,33600
4521,33472
4522,33408
4523,33472
4524,33536
4525,33600
4526,33664
4527,33856
4528,33984
4529,33984
4530,33984
4531,34240
4532,34496
4533,34240
4534,33600
4535,33344
4536,33536
4537,33664
4538,33536
4539,33344
4540,33280
4541,33536
4542,33728
4543,33856
4544,33920
4545,34048
4546,34048
4547,33984
4548,34048
4549,34112
4550,34112
4551,34240
4552,34368
4553,34432
4554,34368
4555,34048
4556,33792
4557,33536
4558,33280
4559,33024
4560,33152
4561,33408
4562,33600
4563,33472
4564,33216
4565,33152
4566,33216
4567,33344
4568,33472
4569,33728
4570,33792
4571,33536
4572,33536
4573,33920
4574,34496
4575,35520
4576,37312
4577,39872
4578,42432
4579,43840
4580,43712
4581,41920
4582,39296
4583,36416
4584,33664
4585,31616
4586,30592
4587,30208
4588,30080
4589,30080
4590,30336
4591,30784
4592,31360
4593,32064
4594,32832
4595,33472
4596,33792
4597,33984
4598,34112
4599,34304
4600,34432
4601,34304
4602,34112
4603,33920
4604,33920
4605,33984
4606,33984
4607,33984
4608,33920
4609,33792
4610,33728
4611,33728
4612,33728
4613,33536
4614,33600
4615,33792
4616,33920
4617,34048
4618,34112
4619,34112
4620,34176
4621,34112
4622,34176
4623,34368
4624,34432
4625,34240
4626,34112
4627,34176
4628,34432
4629,34688
4630,34688
4631,34752
4632,34880
4633,35072
4634,35136
4635,35072
4636,34944
4637,34624
4638,34496
4639,34496
4640,34688
4641,34816
4642,34816
4643,34880
4644,34752
4645,34432
4646,33792
4647,33472
4648,33152
4649,33088
4650,33024
4651,33216
4652,33408
4653,33472
4654,33152
4655,32960
4656,32896
4657,32832
4658,33024
4659,33216
4660,33472
4661,33728
4662,33792
4663,33984
4664,34112
4665,34048
4666,33920
4667,33920
4668,33920
4669,33984
4670,33920
4671,33728
4672,33728
4673,33856
4674,33984
4675,33856
4676,33728
4677,33792
4678,33920
4679,34048
4680,33792
4681,33728
4682,33856
4683,34048
4684,34112
4685,34240
4686,34496
4687,34496
4688,34240
4689,33856
4690,33600
4691,33408
4692,33536
4693,33792
4694,34368
4695,34432
4696,33920
4697,33408
4698,33280
4699,33344
4700,33408
4701,33536
4702,33792
4703,34048
4704,34176
4705,34240
4706,34240
4707,33920
4708,33728
4709,33792
4710,33920
4711,33792
4712,33600
4713,33728
4714,34048
4715,34368
4716,34496
4717,34368
4718,34304
4719,34240
4720,34304
4721,34240
4722,34304
4723,34432
4724,34560
4725,34496
4726,34112
4727,33792
4728,33856
4729,33792
4730,33472
4731,33088
4732,33088
4733,33280
4734,33408
4735,33728
4736,33984
4737,34112
4738,33920
4739,33472
4740,33280
4741,33216
4742,33472
4743,33856
4744,34112
4745,34048
4746,33984
4747,33856
4748,33472
4749,33408
4750,33920
4751,35392
4752,37440
4753,39872
4754,42432
4755,43904
4756,44096
4757,42432
4758,39616
4759,36608
4760,33920
4761,31872
4762,30464
4763,29632
4764,29376
4765,29568
4766,30336
4767,31104
4768,31744
4769,32448
4770,33088
4771,33344
4772,33216
4773,33152
4774,33536
4775,33792
4776,33792
4777,33984
4778,34176
4779,34240
4780,34112
4781,34048
4782,33984
4783,33984
4784,34048
4785,33984
4786,33728
4787,33472
4788,33344
4789,33536
4790,33856
4791,33920
4792,33856
4793,33792
4794,34048
4795,34240
4796,34176
4797,33984
4798,33920
4799,34048
4800,34240
4801,34240
4802,34304
4803,34432
4804,34432
4805,34432
4806,34496
4807,34560
4808,34624
4809,34624
4810,34688
4811,34880
4812,35008
4813,35072
4814,35264
4815,35456
4816,35456
4817,35200
4818,34816
4819,34496
4820,34176
4821,33920
4822,33472
4823,33280
4824,33216
4825,33152
4826,33088
4827,33024
4828,32960
4829,32960
4830,32960
4831,32960
4832,33024
4833,33088
4834,33152
4835,33152
4836,33216
4837,33152
4838,33088
4839,33152
4840,33216
4841,33280
4842,33216
4843,33280
4844,33280
4845,33280
4846,33280
4847,33216
4848,33216
4849,33216
4850,33216
4851,33152
4852,33216
4853,33344
4854,33216
4855,33024
4856,32896
4857,32832
4858,32768
4859,32640
4860,32704
4861,32832
4862,33024
4863,33216
4864,33344
4865,33472
4866,33536
4867,33472
4868,33344
4869,33408
4870,33408
4871,33408
4872,33344
4873,33280
4874,33280
4875,33216
4876,33152
4877,33152
4878,33152
4879,33152
4880,33152
4881,33280
4882,33600
4883,33792
4884,33792
4885,33728
4886,33664
4887,33728
4888,33728
4889,33728
4890,33792
4891,33792
4892,33792
4893,33792
4894,33920
4895,33984
4896,33920
4897,33728
4898,33600
4899,33472
4900,33408
4901,33216
4902,33216
4903,33216
4904,33152
4905,33152
4906,33216
4907,33344
4908,33408
4909,33408
4910,33408
4911,33472
4912,33408
4913,33280
4914,33216
4915,33152
4916,33088
4917,33024
4918,33536
4919,34624
4920,36352
4921,38592
4922,40960
4923,42752
4924,43392
4925,42304
4926,39936
4927,37184
4928,34368
4929,32256
4930,30720
4931,29888
4932,29760
4933,29952
4934,30272
4935,30784
4936,31424
4937,32192
4938,32832
4939,33216
4940,33408
4941,33472
4942,33536
4943,33856
4944,34304
4945,34432
4946,34240
4947,34176
4948,34368
4949,34496
4950,34304
4951,33920
4952,33536
4953,33344
4954,33344
4955,33472
4956,33664
4957,33728
4958,33792
4959,33792
4960,33792
4961,33920
4962,34112
4963,34176
4964,34240
4965,34304
4966,34368
4967,34496
4968,34496
4969,34560
4970,34624
4971,34496
4972,34432
4973,34304
4974,34176
4975,34112
4976,34176
4977,34304
4978,34560
4979,34752
4980,34816
4981,34752
4982,34752
4983,34752
4984,34816
4985,34752
4986,34560
4987,34304
4988,34048
4989,33984
4990,33984
4991,33856
4992,33664
4993,33408
4994,33344
4995,33280
4996,33152
4997,33024
4998,33024
4999,33152
5000,33152
5001,33152
5002,33152
5003,33344
5004,33472
5005,33472
5006,33536
5007,33664
5008,33664
5009,33600
5010,33536
5011,33472
5012,33472
5013,33408
5014,33472
5015,33472
5016,33536
5017,33536
5018,33536
5019,33600
5020,33664
5021,33664
5022,33600
5023,33600
5024,33728
5025,33728
5026,33728
5027,33728
5028,33792
5029,33728
5030,33664
5031,33600
5032,33600
5033,33536
5034,33536
5035,33536
5036,33536
5037,33600
5038,33536
5039,33600
5040,33664
5041,33728
5042,33664
5043,33728
5044,33920
5045,33920
5046,33728
5047,33536
5048,33536
5049,33664
5050,33856
5051,33920
5052,33984
5053,34112
5054,34176
5055,34176
5056,34240
5057,34368
5058,34496
5059,34560
5060,34432
5061,33792
5062,33280
5063,33088
5064,32960
5065,32768
5066,32768
5067,32896
5068,33024
5069,33152
5070,33280
5071,33408
5072,33536
5073,33856
5074,34176
5075,34240
5076,33920
5077,33664
5078,33856
5079,34368
5080,34752
5081,34816
5082,35200
5083,36416
5084,38464
5085,40640
5086,42112
5087,42304
5088,40832
5089,38464
5090,36096
5091,33920
5092,32192
5093,30976
5094,30592
5095,30592
5096,30656
5097,30784
5098,31296
5099,32064
5100,32576
5101,32768
5102,33024
5103,33472
5104,33984
5105,34112
5106,34048
5107,33920
5108,33856
5109,33856
5110,33856
5111,34048
5112,34240
5113,34368
5114,34304
5115,34240
5116,34048
5117,33856
5118,33728
5119,33728
5120,33856
5121,34048
5122,34176
5123,34240
5124,34304
5125,34176
5126,34176
5127,34368
5128,34624
5129,34624
5130,34368
5131,34304
5132,34496
5133,34560
5134,34432
5135,34432
5136,34560
5137,34752
5138,34752
5139,34816
5140,34880
5141,34880
5142,34816
5143,34816
5144,35008
5145,35200
5146,35264
5147,35200
5148,35008
5149,34816
5150,34624
5151,34240
5152,33984
5153,33728
5154,33600
5155,33472
5156,33536
5157,33600
5158,33408
5159,33152
5160,33024
5161,33024
5162,33216
5163,33536
5164,33728
5165,33664
5166,33408
5167,33280
5168,33152
5169,33152
5170,33408
5171,33664
5172,33728
5173,33536
5174,33408
5175,33472
5176,33600
5177,33664
5178,33664
5179,33664
5180,33792
5181,33984
5182,34176
5183,34176
5184,33856
5185,33536
5186,33280
5187,33216
5188,33152
5189,33216
5190,33344
5191,33600
5192,33664
5193,33792
5194,33856
5195,34048
5196,34240
5197,34240
5198,34048
5199,33984
5200,33856
5201,33792
5202,33728
5203,33792
5204,33792
5205,33536
5206,33408
5207,33472
5208,33408
5209,33408
5210,33408
5211,33536
5212,33728
5213,33856
5214,34112
5215,34304
5216,34432
5217,34496
5218,34432
5219,34368
5220,34496
5221,34624
5222,34560
5223,34304
5224,34112
5225,34048
5226,33664
5227,33408
5228,33344
5229,33280
5230,33280
5231,33280
5232,33408
5233,33536
5234,33664
5235,33856
5236,34048
5237,34176
5238,34048
5239,34048
5240,34112
5241,34048
5242,33984
5243,33984
5244,34048
5245,33856
5246,33280
5247,32960
5248,33472
5249,34560
5250,38528
5251,41024
5252,43008
5253,43904
5254,43776
5255,40896
5256,38080
5257,35392
5258,33152
5259,31424
5260,30144
5261,29568
5262,29440
5263,29824
5264,30720
5265,31680
5266,32256
5267,32512
5268,32896
5269,33408
5270,33728
5271,33920
5272,34176
5273,34432
5274,34560
5275,34432
5276,34240
5277,34176
5278,34112
5279,34176
5280,34176
5281,33920
5282,33728
5283,33792
5284,33728
5285,33920
5286,33920
5287,33856
5288,34048
5289,34176
5290,34176
5291,34112
5292,34112
5293,34176
5294,34112
5295,34176
5296,34176
5297,34176
5298,34368
5299,34560
5300,34624
5301,34688
5302,34752
5303,34688
5304,34624
5305,34624
5306,34752
5307,34880
5308,34944
5309,35008
5310,35072
5311,35072
5312,34944
5313,34560
5314,34432
5315,34112
5316,34048
5317,33984
5318,33984
5319,34048
5320,34112
5321,34048
5322,33856
5323,33664
5324,33600
5325,33344
5326,33088
5327,32960
5328,32896
5329,32896
5330,33152
5331,33280
5332,33280
5333,33344
5334,33280
5335,33536
5336,33600
5337,33728
5338,33920
5339,33920
5340,33792
5341,33536
5342,33344
5343,33344
5344,33472
5345,33536
5346,33472
5347,33472
5348,33536
5349,33664
5350,33728
5351,33792
5352,33856
5353,33920
5354,33920
5355,33920
5356,33984
5357,34112
5358,34112
5359,33792
5360,33728
5361,33792
5362,33600
5363,33344
5364,33216
5365,33344
5366,33600
5367,33728
5368,33728
5369,33664
5370,33536
5371,33600
5372,33600
5373,33664
5374,33536
5375,33408
5376,33408
5377,33664
5378,33920
5379,34048
5380,33856
5381,33792
5382,33920
5383,33856
5384,33664
5385,33472
5386,33536
5387,33536
5388,33472
5389,33536
5390,33984
5391,34432
5392,34176
5393,33856
5394,33792
5395,33600
5396,33536
5397,33664
5398,33984
5399,34240
5400,34368
5401,34368
5402,34432
5403,34432
5404,34496
5405,34560
5406,34496
5407,34240
5408,33920
5409,33664
5410,33536
5411,33472
5412,33280
5413,33280
5414,33536
5415,33664
5416,33600
5417,33600
5418,33728
5419,33920
5420,34112
5421,34176
5422,34112
5423,33792
5424,33344
5425,33152
5426,33856
5427,35264
5428,37312
5429,39808
5430,42304
5431,43904
5432,44096
5433,42624
5434,40064
5435,37184
5436,34432
5437,32384
5438,31232
5439,30528
5440,30080
5441,30080
5442,30592
5443,31232
5444,31552
5445,31936
5446,32448
5447,32960
5448,33344
5449,33600
5450,33920
5451,34240
5452,34432
5453,34368
5454,34240
5455,34240
5456,34368
5457,34368
5458,34368
5459,34432
5460,34496
5461,34304
5462,34112
5463,34112
5464,34048
5465,33856
5466,33664
5467,33536
5468,33280
5469,33216
5470,33280
5471,33472
5472,33728
5473,34176
5474,34624
5475,34880
5476,34688
5477,34560
5478,34496
5479,34432
5480,34560
5481,34944
5482,35136
5483,35072
5484,34816
5485,34688
5486,34624
5487,34496
5488,34432
5489,34496
5490,34624
5491,34880
5492,34944
5493,34752
5494,34752
5495,34688
5496,34624
5497,34560
5498,34304
5499,33920
5500,33536
5501,33280
5502,33344
5503,33280
5504,33216
5505,33216
5506,33344
5507,33344
5508,33344
5509,33216
5510,33216
5511,33344
5512,33536
5513,33664
5514,33664
5515,33728
5516,33728
5517,33600
5518,33536
5519,33536
5520,33600
5521,33536
5522,33408
5523,33536
5524,33728
5525,33600
5526,33536
5527,33728
5528,33984
5529,33984
5530,33792
5531,33600
5532,33536
5533,33536
5534,33664
5535,33728
5536,33536
5537,33408
5538,33344
5539,33472
5540,33600
5541,33728
5542,33856
5543,33920
5544,33920
5545,33920
5546,33856
5547,33856
5548,33920
5549,33728
5550,33536
5551,33344
5552,33280
5553,33344
5554,33408
5555,33536
5556,33664
5557,33728
5558,33664
5559,33728
5560,33984
5561,34048
5562,33920
5563,33664
5564,33664
5565,33728
5566,33728
5567,33600
5568,33600
5569,33600
5570,33664
5571,33664
5572,33664
5573,33856
5574,33792
5575,33664
5576,33664
5577,33600
5578,33536
5579,33536
5580,33664
5581,33984
5582,34240
5583,34240
5584,34112
5585,33920
5586,33600
5587,33344
5588,33152
5589,33216
5590,33472
5591,33856
5592,34112
5593,34240
5594,34368
5595,34432
5596,34560
5597,34688
5598,34688
5599,34496
5600,34368
5601,34240
5602,34112
5603,34112
5604,34240
5605,34304
5606,34176
5607,33856
5608,33472
5609,33344
5610,33472
5611,33600
5612,33472
5613,33344
5614,33280
5615,33344
5616,33536
5617,33728
5618,33856
5619,33984
5620,34176
5621,34240
5622,34048
5623,33920
5624,34176
5625,34688
5626,35968
5627,38080
5628,40960
5629,43328
5630,44480
5631,43712
5632,41408
5633,38464
5634,35520
5635,33024
5636,31296
5637,30272
5638,29824
5639,29824
5640,30144
5641,30656
5642,31232
5643,31872
5644,32576
5645,33216
5646,33728
5647,34048
5648,34048
5649,33792
5650,33664
5651,33728
5652,33856
5653,33920
5654,33856
5655,33792
5656,33792
5657,33792
5658,33856
5659,33792
5660,33856
5661,33920
5662,33984
5663,34048
5664,34048
5665,34112
5666,34112
5667,33984
5668,33984
5669,34112
5670,34304
5671,34240
5672,34048
5673,33920
5674,34112
5675,33984
5676,33728
5677,33792
5678,34048
5679,34304
5680,34496
5681,34624
5682,34752
5683,34880
5684,34880
5685,34880
5686,34944
5687,35008
5688,35008
5689,35008
5690,35008
5691,34752
5692,34560
5693,34624
5694,34688
5695,34816
5696,34624
5697,33920
5698,33280
5699,32896
5700,32832
5701,32896
5702,33024
5703,33280
5704,33280
5705,33216
5706,33344
5707,33600
5708,33664
5709,33472
5710,33472
5711,33472
5712,33344
5713,33216
5714,33152
5715,33216
5716,33280
5717,33344
5718,33472
5719,33664
5720,33920
5721,33984
5722,33664
5723,33472
5724,33472
5725,33408
5726,33344
5727,33344
5728,33472
5729,33664
5730,33792
5731,33728
5732,33664
5733,33792
5734,33792
5735,33728
5736,33536
5737,33408
5738,33408
5739,33344
5740,33408
5741,33472
5742,33536
5743,33600
5744,33600
5745,33600
5746,33728
5747,33792
5748,33728
5749,33792
5750,33856
5751,33792
5752,33728
5753,33536
5754,33536
5755,33600
5756,33792
5757,33920
5758,33920
5759,33728
5760,33472
5761,33408
5762,33344
5763,33216
5764,33216
5765,33408
5766,33600
5767,33664
5768,33472
5769,33408
5770,33664
5771,34048
5772,34048
5773,33920
5774,33792
5775,33664
5776,33664
5777,33792
5778,33856
5779,33792
5780,33728
5781,33728
5782,33792
5783,33792
5784,33728
5785,33664
5786,33792
5787,33792
5788,33728
5789,33600
5790,33792
5791,33920
5792,33856
5793,33856
5794,33920
5795,33920
5796,33856
5797,33792
5798,33856
5799,34048
5800,34176
5801,34048
5802,33984
5803,34176
5804,34240
5805,34304
5806,34432
5807,34688
5808,34624
5809,34240
5810,34112
5811,34176
5812,34112
5813,33856
5814,33664
5815,33728
5816,33792
5817,33600
5818,33664
5819,34176
5820,34368
5821,33728
5822,33280
5823,33408
5824,33728
5825,33792
5826,33536
5827,33344
5828,33280
5829,33216
5830,33664
5831,34880
5832,36544
5833,38208
5834,40320
5835,42624
5836,44160
5837,44224
5838,42432
5839,39552
5840,36416
5841,33664
5842,31680
5843,30528
5844,30208
5845,30272
5846,30528
5847,30848
5848,31104
5849,31552
5850,32000
5851,32576
5852,33152
5853,33856
5854,34624
5855,34880
5856,34624
5857,34304
5858,34112
5859,33856
5860,33728
5861,33856
5862,34048
5863,33984
5864,33792
5865,33792
5866,33856
5867,33920
5868,33920
5869,33920
5870,33984
5871,34112
5872,34176
5873,34240
5874,34240
5875,34176
5876,34112
5877,34048
5878,34176
5879,34304
5880,34304
5881,34304
5882,34368
5883,34432
5884,34432
5885,34496
5886,34752
5887,34880
5888,34880
5889,34816
5890,34688
5891,34624
5892,34752
5893,34944
5894,35072
5895,35008
5896,34752
5897,34560
5898,34560
5899,34496
5900,34304
5901,33984
5902,33792
5903,33728
5904,33728
5905,33600
5906,33536
5907,33536
5908,33536
5909,33472
5910,33344
5911,33280
5912,33280
5913,33216
5914,33152
5915,33152
5916,33216
5917,33280
5918,33536
5919,33728
5920,33856
5921,34048
5922,34048
5923,33408
5924,32896
5925,32768
5926,32832
5927,33088
5928,33280
5929,33472
5930,33600
5931,33728
5932,33728
5933,33664
5934,33600
5935,33600
5936,33600
5937,33664
5938,33728
5939,33920
5940,34176
5941,34304
5942,34048
5943,33664
5944,33792
5945,33920
5946,33664
5947,33408
5948,33344
5949,33408
5950,33472
5951,33408
5952,33408
5953,33472
5954,33536
5955,33600
5956,33728
5957,33856
5958,33984
5959,33984
5960,33792
5961,33728
5962,33856
5963,33984
5964,33984
5965,33920
5966,33920
5967,33792
5968,33600
5969,33728
5970,33856
5971,33600
5972,33280
5973,33216
5974,33344
5975,33472
5976,33536
5977,33600
5978,33600
5979,33728
5980,33792
5981,33856
5982,34112
5983,34240
5984,34048
5985,33728
5986,33536
5987,33600
5988,33600
5989,33536
5990,33600
5991,33728
5992,33792
5993,33856
5994,33792
5995,33728
5996,33792
5997,33856
5998,33920
5999,34112
6000,34368
6001,34368
6002,34240
6003,34304
6004,34624
6005,34752
6006,34560
6007,34240
6008,34176
6009,34304
6010,34112
6011,33920
6012,33920
6013,33728
6014,33472
6015,33344
6016,33408
6017,33664
6018,34048
6019,34304
6020,34368
6021,34176
6022,33856
6023,33472
6024,33344
6025,33792
6026,34112
6027,33856
6028,33536
6029,33408
6030,33664
6031,34176
6032,34944
6033,36416
6034,38720
6035,41216
6036,43200
6037,44160
6038,43648
6039,41216
6040,38528
6041,35712
6042,33280
6043,31488
6044,30784
6045,30720
6046,30784
6047,30720
6048,30720
6049,30976
6050,31488
6051,32064
6052,32640
6053,33216
6054,33792
6055,34304
6056,34688
6057,34752
6058,34880
6059,34880
6060,34880
6061,35072
6062,35072
6063,34496
6064,33728
6065,33472
6066,33472
6067,33600
6068,33664
6069,33856
6070,34048
6071,34176
6072,34176
6073,34048
6074,34048
6075,34240
6076,34496
6077,34624
6078,34560
6079,34368
6080,34240
6081,34240
6082,33984
6083,33792
6084,33792
6085,34048
6086,34368
6087,34624
6088,34688
6089,34688
6090,34688
6091,34816
6092,34944
6093,35200
6094,35584
6095,35904
6096,35712
6097,35200
6098,34560
6099,34048
6100,33984
6101,34048
6102,33984
6103,33856
6104,33792
6105,33664
6106,33664
6107,33728
6108,33728
6109,33600
6110,33664
6111,33728
6112,33664
6113,33472
6114,33216
6115,33280
6116,33472
6117,33472
6118,33472
6119,33536
6120,33472
6121,33472
6122,33408
6123,33152
6124,33024
6125,33088
6126,33088
6127,33216
6128,33536
6129,33856
6130,33856
6131,33856
6132,33920
6133,34048
6134,34240
6135,34176
6136,33920
6137,34048
6138,34432
6139,34112
6140,33344
6141,32896
6142,32896
6143,32896
6144,33024
6145,33280
6146,33472
6147,33600
6148,33728
6149,33856
6150,33920
6151,33856
6152,33920
6153,33920
6154,33728
6155,33408
6156,33472
6157,33664
6158,33792
6159,33856
6160,33856
6161,33856
6162,33728
6163,33536
6164,33280
6165,33216
6166,33344
6167,33664
6168,33792
6169,33792
6170,33920
6171,34304
6172,34496
6173,34304
6174,34048
6175,33664
6176,33408
6177,33280
6178,33088
6179,33024
6180,33088
6181,33152
6182,33408
6183,33536
6184,33536
6185,33408
6186,33216
6187,33344
6188,33856
6189,34240
6190,34176
6191,34048
6192,34176
6193,34496
6194,34816
6195,35008
6196,34880
6197,34496
6198,34048
6199,33856
6200,33536
6201,33472
6202,33600
6203,33600
6204,33280
6205,32960
6206,32640
6207,32256
6208,32256
6209,32512
6210,32960
6211,33728
6212,34816
6213,35520
6214,35328
6215,34816
6216,34432
6217,34304
6218,34048
6219,33600
6220,33408
6221,33344
6222,33472
6223,34112
6224,35776
6225,37888
6226,40448
6227,42816
6228,44224
6229,43840
6230,41664
6231,38720
6232,36032
6233,33792
6234,31488
6235,30272
6236,29632
6237,30016
6238,30272
6239,30208
6240,30336
6241,30848
6242,31488
6243,32320
6244,33024
6245,33728
6246,34176
6247,34240
6248,34112
6249,34112
6250,34112
6251,34112
6252,34112
6253,34112
6254,34112
6255,34112
6256,34176
6257,34432
6258,34560
6259,34496
6260,34176
6261,33792
6262,33536
6263,33600
6264,33664
6265,33664
6266,33792
6267,33920
6268,33728
6269,33728
6270,33920
6271,33984
6272,33664
6273,33408
6274,33728
6275,34368
6276,34752
6277,34880
6278,35008
6279,35072
6280,35008
6281,34880
6282,34688
6283,34688
6284,34880
6285,35072
6286,35200
6287,34944
6288,34624
6289,34624
6290,34688
6291,34432
6292,33984
6293,33536
6294,33152
6295,33152
6296,33216
6297,33216
6298,33152
6299,33152
6300,33280
6301,33408
6302,33472
6303,33408
6304,33408
6305,33408
6306,33344
6307,33344
6308,33408
6309,33408
6310,33280
6311,33216
6312,33344
6313,33664
6314,33728
6315,33664
6316,33600
6317,33408
6318,33216
6319,33152
6320,33088
6321,33088
6322,33152
6323,33216
6324,33280
6325,33280
6326,33408
6327,33408
6328,33472
6329,33600
6330,33536
6331,33536
6332,33536
6333,33664
6334,33920
6335,34112
6336,34048
6337,33856
6338,33856
6339,34112
6340,34176
6341,33792
6342,33152
6343,32832
6344,32960
6345,33216
6346,33280
6347,33216
6348,33280
6349,33472
6350,33792
6351,33920
6352,33792
6353,33792
6354,33920
6355,34048
6356,34112
6357,34112
6358,34304
6359,34560
6360,34496
6361,34240
6362,34048
6363,33920
6364,33792
6365,33664
6366,33792
6367,33920
6368,33920
6369,33856
6370,33856
6371,33920
6372,33920
6373,33792
6374,33728
6375,33792
6376,33856
6377,33664
6378,33280
6379,33024
6380,33024
6381,33024
6382,33024
6383,33280
6384,33856
6385,33920
6386,33792
6387,33728
6388,33920
6389,33984
6390,33664
6391,33344
6392,33664
6393,34688
6394,36352
6395,38848
6396,41472
6397,43328
6398,43584
6399,41792
6400,39296
6401,36608
6402,34112
6403,32128
6404,30912
6405,30208
6406,29952
6407,30080
6408,30592
6409,31296
6410,32000
6411,32384
6412,32704
6413,33024
6414,33344
6415,33536
6416,33728
6417,33984
6418,34176
6419,34176
6420,34112
6421,34112
6422,34048
6423,34048
6424,33984
6425,34048
6426,34048
6427,33984
6428,33792
6429,33728
6430,33728
6431,33728
6432,33728
6433,33792
6434,33984
6435,34240
6436,34560
6437,34688
6438,34688
6439,34816
6440,34752
6441,34240
6442,33856
6443,33664
6444,33600
6445,33664
6446,33856
6447,34112
6448,34368
6449,34560
6450,34752
6451,34880
6452,34880
6453,34880
6454,34816
6455,34816
6456,34880
6457,34816
6458,34688
6459,34624
6460,34560
6461,34496
6462,34560
6463,35072
6464,35392
6465,34816
6466,33600
6467,32896
6468,32576
6469,32512
6470,32448
6471,32384
6472,32448
6473,32576
6474,32832
6475,33152
6476,33408
6477,33536
6478,33728
6479,33984
6480,33984
6481,33728
6482,33536
6483,33408
6484,33280
6485,33216
6486,33280
6487,33472
6488,33536
6489,33408
6490,33280
6491,33280
6492,33408
6493,33600
6494,33792
6495,33856
6496,33792
6497,33856
6498,33856
6499,33664
6500,33472
6501,33472
6502,33344
6503,33280
6504,33472
6505,33536
6506,33600
6507,33664
6508,33728
6509,33920
6510,33984
6511,33984
6512,33920
6513,33856
6514,33728
6515,33600
6516,33472
6517,33344
6518,33152
6519,33088
6520,33536
6521,34048
6522,33856
6523,33344
6524,33088
6525,33088
6526,33280
6527,33600
6528,33920
6529,34240
6530,34368
6531,34240
6532,34112
6533,33984
6534,33792
6535,33600
6536,33280
6537,32704
6538,32512
6539,32640
6540,32832
6541,32832
6542,32896
6543,33216
6544,33472
6545,33600
6546,33728
6547,33856
6548,33856
6549,33792
6550,33792
6551,33664
6552,33472
6553,33344
6554,33664
6555,34496
6556,35968
6557,38080
6558,40704
6559,43072
6560,44224
6561,43392
6562,41024
6563,38464
6564,35968
6565,33792
6566,31744
6567,30016
6568,29248
6569,29312
6570,29760
6571,30464
6572,31232
6573,31872
6574,32576
6575,33280
6576,33984
6577,34496
6578,34880
6579,35136
6580,35264
6581,35264
6582,35200
6583,35072
6584,34880
6585,34560
6586,34176
6587,33856
6588,34048
6589,34176
6590,34112
6591,34112
6592,34176
6593,34304
6594,34560
6595,34560
6596,34624
6597,34624
6598,34624
6599,34560
6600,34560
6601,34688
6602,34816
6603,34816
6604,34816
6605,34880
6606,34880
6607,34880
6608,34880
6609,34944
6610,34752
6611,34496
6612,34304
6613,34368
6614,34560
6615,34624
6616,33984
6617,33216
6618,32704
6619,32384
6620,32192
6621,32128
6622,32064
6623,31808
6624,31296
6625,30976
6626,30784
6627,30848
6628,30976
6629,31168
6630,31552
6631,32000
6632,32512
6633,32896
6634,33216
6635,33472
6636,33472
6637,33472
6638,33600
6639,33856
6640,33920
6641,33920
6642,34048
6643,34112
6644,34176
6645,34048
6646,33856
6647,33472
6648,33088
6649,32832
6650,32768
6651,32768
6652,32960
6653,33216
6654,33664
6655,33920
6656,34176
6657,34432
6658,34624
6659,34880
6660,35072
6661,35072
6662,34880
6663,34432
6664,32960
6665,31040
6666,29312
6667,28288
6668,28224
6669,29440
6670,30528
6671,32192
6672,33664
6673,34688
6674,35520
6675,36224
6676,36736
6677,36864
6678,36928
6679,36992
6680,37056
6681,36928
6682,36544
6683,36352
6684,36288
6685,36160
6686,36160
6687,36352
6688,36608
6689,36800
6690,36864
6691,36992
6692,37184
6693,37184
6694,37248
6695,37184
6696,37120
6697,37120
6698,36928
6699,36800
6700,36672
6701,36608
6702,36480
6703,36288
6704,35904
6705,35392
6706,34880
6707,34496
6708,34368
6709,34176
6710,33792
6711,33344
6712,33024
6713,32896
6714,33088
6715,33792
6716,35136
6717,37120
6718,39680
6719,41792
6720,42944
6721,42560
6722,40448
6723,37696
6724,35008
6725,32640
6726,31040
6727,29952
6728,29312
6729,29056
6730,28992
6731,29120
6732,29312
6733,29632
6734,30208
6735,30848
6736,31616
6737,32128
6738,32320
6739,32448
6740,32704
6741,32960
6742,33344
6743,33664
6744,33920
6745,34112
6746,34112
6747,34112
6748,33920
6749,33728
6750,33600
6751,33728
6752,34048
6753,34496
6754,34816
6755,34944
6756,34880
6757,34880
6758,34880
6759,35008
6760,35072
6761,35072
6762,34944
6763,34816
6764,34688
6765,34688
6766,34816
6767,35072
6768,35328
6769,35456
6770,35520
6771,35456
6772,35584
6773,35776
6774,36224
6775,36672
6776,36736
6777,36480
6778,36160
6779,36096
6780,36160
6781,35904
6782,35520
6783,35328
6784,34880
6785,34240
6786,33792
6787,33664
6788,33728
6789,33792
6790,33792
6791,33920
6792,33920
6793,33664
6794,33536
6795,33984
6796,34624
6797,34880
6798,34752
6799,34560
6800,34496
6801,34496
6802,34432
6803,34304
6804,34048
6805,33920
6806,33664
6807,33600
6808,33664
6809,33984
6810,34240
6811,34240
6812,34048
6813,33920
6814,34048
6815,34304
6816,34560
6817,34880
6818,35072
6819,35328
6820,35328
6821,35264
6822,35072
6823,34816
6824,34624
6825,34304
6826,33920
6827,33408
6828,32960
6829,33216
6830,33920
6831,34624
6832,35328
6833,36032
6834,36672
6835,36672
6836,36032
6837,35392
6838,35136
6839,35136
6840,35008
6841,35008
6842,34752
6843,34432
6844,34176
6845,34176
6846,34496
6847,34816
6848,34688
6849,34560
6850,34752
6851,35008
6852,35200
6853,34944
6854,34560
6855,34240
6856,33984
6857,34112
6858,34368
6859,34752
6860,34944
6861,34560
6862,34304
6863,34368
6864,34368
6865,34112
6866,34112
6867,34432
6868,34560
6869,34496
6870,34304
6871,34176
6872,34496
6873,35200
6874,36096
6875,36992
6876,38208
6877,40256
6878,42304
6879,43648
6880,43392
6881,41728
6882,39040
6883,36288
6884,33856
6885,31936
6886,30848
6887,30656
6888,30912
6889,31104
6890,31296
6891,31808
6892,32448
6893,32960
6894,33344
6895,33600
6896,33984
6897,34176
6898,34304
6899,34624
6900,35008
6901,35200
6902,34816
6903,34240
6904,33920
6905,33792
6906,33664
6907,33664
6908,33664
6909,33920
6910,33920
6911,33920
6912,33920
6913,33856
6914,33792
6915,33728
6916,33728
6917,33920
6918,34304
6919,34688
6920,34752
6921,34688
6922,34496
6923,34240
6924,34112
6925,34560
6926,34816
6927,34560
6928,34176
6929,33984
6930,34048
6931,34240
6932,34368
6933,34432
6934,34496
6935,34560
6936,34688
6937,34752
6938,34816
6939,34816
6940,34752
6941,34624
6942,34432
6943,34304
6944,34112
6945,33728
6946,33344
6947,32960
6948,32640
6949,32512
6950,32448
6951,32448
6952,32448
6953,32320
6954,32384
6955,32576
6956,32704
6957,32896
6958,33152
6959,33408
6960,33472
6961,33408
6962,33280
6963,33024
6964,32896
6965,32896
6966,32960
6967,33088
6968,33088
6969,33088
6970,33088
6971,33152
6972,33152
6973,33152
6974,33088
6975,33088
6976,33024
6977,32960
6978,33088
6979,33152
6980,33216
6981,33408
6982,33600
6983,33664
6984,33600
6985,33600
6986,33472
6987,33408
6988,33280
6989,33152
6990,32832
6991,32640
6992,32640
6993,32704
6994,32768
6995,32704
6996,32768
6997,32960
6998,33280
6999,33600
7000,33920
7001,34048
7002,34048
7003,34048
7004,33920
7005,33920
7006,33920
7007,33792
7008,33728
7009,33728
7010,33728
7011,33536
7012,33344
7013,33088
7014,32832
7015,32768
7016,32768
7017,32832
7018,32896
7019,32960
7020,33152
7021,33344
7022,33408
7023,33408
7024,33472
7025,33408
7026,33408
7027,33280
7028,33024
7029,32960
7030,33088
7031,33536
7032,34496
7033,36160
7034,38464
7035,41024
7036,42688
7037,43072
7038,41728
7039,39232
7040,36544
7041,34112
7042,32320
7043,31104
7044,30400
7045,30080
7046,30144
7047,30528
7048,30976
7049,31488
7050,32064
7051,32512
7052,32896
7053,33216
7054,33344
7055,33408
7056,33536
7057,33664
7058,33728
7059,33792
7060,33792
7061,33664
7062,33600
7063,33728
7064,33920
7065,33984
7066,33984
7067,33984
7068,34048
7069,33984
7070,33920
7071,33792
7072,33728
7073,33664
7074,33664
7075,33856
7076,34048
7077,34112
7078,34240
7079,34240
7080,34368
7081,34304
7082,34368
7083,34368
7084,34304
7085,34368
7086,34432
7087,34560
7088,34688
7089,34688
7090,34624
7091,34560
7092,34560
7093,34624
7094,34688
7095,34816
7096,34880
7097,34752
7098,34496
7099,34368
7100,34304
7101,34240
7102,34048
7103,33856
7104,33600
7105,33408
7106,33216
7107,33088
7108,33024
7109,32960
7110,32896
7111,32832
7112,32768
7113,32768
7114,32896
7115,33024
7116,33088
7117,33088
7118,33280
7119,33216
7120,33344
7121,33280
7122,33024
7123,33024
7124,33152
7125,33408
7126,33472
7127,33344
7128,33280
7129,33280
7130,33344
7131,33280
7132,33216
7133,33152
7134,33216
7135,33216
7136,33280
7137,33344
7138,33472
7139,33472
7140,33728
7141,33664
7142,33472
7143,33344
7144,33344
7145,33408
7146,33344
7147,33280
7148,33152
7149,33088
7150,33216
7151,33344
7152,33472
7153,33600
7154,33792
7155,33984
7156,33984
7157,33984
7158,33984
7159,33856
7160,33664
7161,33536
7162,33536
7163,33472
7164,33344
7165,33216
7166,33152
7167,32960
7168,32896
7169,32896
7170,32960
7171,33088
7172,33024
7173,32960
7174,32768
7175,32768
7176,32768
7177,32832
7178,32832
7179,32768
7180,32576
7181,32384
7182,32384
7183,32896
7184,33920
7185,35392
7186,37440
7187,39872
7188,41856
7189,42624
7190,41792
7191,39872
7192,37376
7193,34944
7194,32704
7195,31360
7196,30784
7197,30528
7198,30656
7199,30976
7200,31168
7201,31232
7202,31360
7203,31744
7204,32320
7205,32832
7206,33472
7207,33984
7208,34176
7209,33920
7210,33600
7211,33536
7212,33600
7213,33664
7214,33728
7215,33856
7216,33920
7217,34048
7218,34112
7219,34240
7220,34496
7221,34624
7222,34624
7223,34624
7224,34496
7225,34304
7226,34176
7227,34112
7228,34112
7229,34048
7230,34048
7231,33984
7232,33984
7233,34048
7234,34112
7235,34368
7236,34688
7237,34752
7238,34688
7239,34624
7240,34624
7241,34688
7242,34880
7243,35072
7244,35328
7245,35648
7246,35840
7247,35328
7248,34368
7249,33728
7250,33536
7251,33472
7252,33472
7253,33472
7254,33408
7255,33408
7256,33344
7257,33344
7258,33536
7259,33472
7260,33664
7261,33664
7262,33728
7263,33728
7264,33856
7265,33856
7266,33536
7267,33216
7268,33216
7269,33280
7270,33408
7271,33536
7272,33664
7273,33728
7274,33856
7275,33984
7276,34112
7277,34112
7278,34176
7279,34240
7280,34240
7281,34176
7282,34048
7283,33984
7284,33984
7285,33984
7286,33920
7287,33984
7288,34304
7289,34688
7290,34368
7291,33600
7292,33088
7293,32896
7294,32896
7295,32960
7296,33216
7297,33344
7298,33536
7299,33664
7300,33728
7301,33856
7302,33984
7303,33984
7304,33920
7305,33920
7306,33856
7307,33856
7308,33920
7309,34048
7310,33984
7311,33984
7312,34048
7313,33920
7314,33664
7315,33472
7316,33344
7317,33344
7318,33408
7319,33664
7320,33792
7321,33600
7322,33472
7323,33472
7324,33408
7325,33536
7326,33664
7327,33664
7328,33600
7329,33472
7330,33472
7331,33600
7332,33792
7333,33792
7334,33472
7335,33216
7336,33344
7337,34112
7338,35648
7339,37696
7340,40192
7341,42560
7342,44032
7343,43840
7344,41792
7345,38912
7346,36032
7347,33600
7348,31872
7349,30976
7350,30400
7351,30272
7352,30464
7353,30912
7354,31168
7355,31488
7356,32000
7357,32704
7358,33280
7359,33536
7360,33728
7361,34112
7362,34496
7363,34688
7364,34560
7365,34368
7366,34432
7367,34688
7368,34624
7369,34112
7370,33664
7371,33344
7372,33152
7373,33152
7374,33216
7375,33280
7376,33408
7377,33472
7378,33600
7379,33600
7380,33664
7381,33664
7382,33664
7383,33728
7384,33920
7385,34176
7386,34112
7387,34112
7388,34176
7389,33920
7390,33792
7391,33728
7392,33856
7393,34048
7394,34048
7395,34048
7396,34112
7397,34048
7398,33984
7399,33920
7400,33920
7401,33984
7402,34048
7403,34048
7404,33856
7405,33664
7406,33472
7407,33280
7408,33152
7409,33088
7410,32832
7411,32640
7412,32512
7413,32448
7414,32448
7415,32448
7416,32384
7417,32320
7418,32320
7419,32384
7420,32448
7421,32448
7422,32448
7423,32512
7424,32640
7425,32832
7426,32960
7427,32960
7428,32960
7429,32896
7430,32960
7431,33024
7432,33024
7433,32832
7434,32640
7435,32640
7436,32768
7437,33024
7438,33216
7439,33024
7440,32832
7441,32704
7442,32640
7443,32640
7444,32576
7445,32320
7446,32128
7447,32128
7448,32256
7449,32192
7450,32000
7451,31808
7452,31680
7453,31488
7454,31296
7455,31232
7456,31232
7457,31232
7458,31424
7459,31744
7460,32064
7461,32192
7462,32064
7463,31680
7464,31296
7465,31104
7466,31104
7467,31168
7468,31424
7469,31680
7470,31680
7471,31616
7472,31680
7473,31872
7474,31808
7475,31744
7476,31680
7477,31552
7478,31552
7479,31616
7480,31744
7481,32000
7482,32256
7483,32000
7484,31488
7485,31232
7486,31232
7487,31360
7488,31488
7489,31552
7490,31552
7491,31552
7492,31808
7493,32704
7494,33920
7495,35648
7496,37824
7497,40256
7498,42176
7499,42752
7500,41216
7501,38272
7502,35136
7503,32192
7504,30464
7505,29184
7506,28544
7507,28352
7508,28608
7509,28992
7510,29568
7511,30208
7512,30912
7513,31616
7514,32064
7515,32384
7516,32640
7517,32832
7518,33024
7519,33216
7520,33344
7521,33408
7522,33408
7523,33344
7524,33216
7525,32960
7526,32960
7527,33152
7528,33344
7529,33344
7530,33216
7531,33152
7532,33216
7533,33280
7534,33280
7535,33536
7536,34048
7537,34432
7538,34304
7539,33920
7540,33792
7541,33792
7542,33472
7543,33408
7544,33664
7545,33920
7546,33984
7547,34176
7548,34432
7549,34624
7550,34688
7551,34688
7552,34880
7553,35072
7554,35072
7555,35072
7556,35136
7557,35200
7558,35072
7559,34816
7560,34688
7561,34496
7562,34176
7563,33856
7564,33728
7565,33664
7566,33664
7567,33536
7568,33600
7569,33792
7570,33984
7571,34112
7572,34048
7573,33792
7574,33664
7575,33984
7576,34176
7577,33920
7578,33664
7579,33216
7580,32896
7581,32896
7582,33216
7583,33536
7584,33600
7585,33664
7586,33856
7587,34112
7588,34176
7589,34240
7590,34432
7591,34496
7592,34432
7593,34560
7594,34624
7595,34624
7596,34496
7597,34304
7598,34240
7599,34176
7600,34048
7601,34048
7602,34240
7603,34624
7604,34560
7605,34176
7606,34048
7607,34048
7608,34112
7609,34048
7610,34048
7611,34176
7612,34240
7613,34304
7614,34368
7615,34432
7616,34560
7617,34624
7618,34816
7619,34880
7620,34688
7621,34496
7622,34304
7623,34240
7624,34176
7625,34176
7626,34304
7627,34496
7628,34432
7629,34240
7630,34176
7631,34176
7632,34368
7633,34560
7634,34752
7635,34944
7636,34880
7637,34816
7638,34752
7639,34816
7640,35008
7641,34944
7642,34688
7643,34560
7644,34624
7645,34496
7646,34176
7647,33920
7648,33920
7649,33984
7650,33984
7651,33984
7652,34048
7653,34304
7654,34368
7655,34240
7656,34368
7657,34560
7658,34624
7659,34624
7660,34432
7661,33920
7662,33472
7663,33216
7664,33152
7665,33344
7666,33920
7667,35072
7668,36864
7669,39360
7670,41984
7671,43840
7672,44416
7673,43264
7674,40896
7675,38016
7676,35136
7677,33088
7678,31744
7679,30592
7680,29952
7681,29824
7682,30144
7683,30464
7684,30848
7685,31616
7686,32448
7687,33088
7688,33472
7689,33728
7690,34112
7691,34304
7692,34368
7693,34368
7694,34432
7695,34560
7696,34560
7697,34560
7698,34624
7699,34560
7700,34624
7701,34368
7702,33792
7703,33408
7704,33280
7705,33216
7706,33280
7707,33536
7708,33856
7709,34048
7710,34304
7711,34432
7712,34560
7713,34624
7714,34560
7715,34560
7716,34624
7717,34624
7718,34624
7719,34688
7720,34816
7721,34816
7722,34880
7723,35264
7724,35392
7725,35008
7726,34688
7727,34624
7728,34752
7729,34816
7730,34688
7731,34624
7732,34624
7733,34624
7734,34560
7735,34432
7736,34368
7737,34304
7738,34112
7739,33984
7740,33920
7741,33792
7742,33600
7743,33472
7744,33408
7745,33408
7746,33344
7747,33344
7748,33344
7749,33408
7750,33408
7751,33344
7752,33344
7753,33472
7754,33536
7755,33536
7756,33536
7757,33600
7758,33728
7759,33920
7760,34176
7761,34304
7762,34176
7763,33792
7764,33344
7765,33216
7766,33216
7767,33216
7768,33280
7769,33536
7770,33728
7771,33792
7772,33792
7773,33792
7774,33792
7775,33792
7776,33792
7777,33792
7778,33856
7779,33856
7780,33792
7781,33920
7782,34240
7783,34368
7784,34432
7785,34304
7786,33664
7787,33024
7788,32768
7789,32704
7790,32960
7791,33216
7792,33344
7793,33472
7794,33728
7795,33984
7796,34048
7797,33984
7798,34240
7799,34816
7800,34880
7801,34240
7802,34112
7803,34112
7804,33344
7805,32576
7806,32320
7807,32512
7808,32832
7809,33088
7810,33344
7811,33600
7812,33856
7813,34048
7814,34304
7815,34816
7816,34880
7817,34176
7818,33600
7819,33728
7820,34112
7821,34048
7822,33728
7823,33856
7824,34048
7825,33920
7826,33728
7827,33856
7828,34368
7829,34496
7830,33984
7831,33792
7832,34048
7833,34432
7834,33984
7835,33344
7836,33024
7837,32960
7838,33088
7839,33280
7840,33408
7841,33408
7842,33728
7843,34240
7844,34368
7845,33920
7846,33536
7847,33280
7848,33152
7849,33088
7850,33152
7851,33472
7852,34368
7853,35904
7854,38144
7855,40832
7856,43264
7857,44480
7858,44096
7859,41856
7860,38592
7861,35328
7862,32768
7863,31104
7864,30144
7865,29760
7866,29760
7867,30016
7868,30528
7869,31104
7870,31744
7871,32384
7872,32896
7873,33408
7874,33856
7875,34048
7876,34048
7877,34112
7878,34240
7879,34240
7880,34112
7881,33984
7882,34048
7883,34048
7884,34048
7885,34304
7886,34688
7887,34688
7888,34240
7889,33728
7890,33472
7891,33536
7892,33472
7893,33472
7894,33536
7895,33664
7896,33728
7897,33792
7898,33920
7899,34112
7900,34304
7901,34368
7902,34368
7903,34560
7904,34688
7905,34688
7906,34752
7907,34880
7908,34944
7909,34944
7910,35072
7911,35136
7912,34944
7913,34752
7914,34560
7915,34432
7916,34240
7917,34176
7918,34240
7919,34304
7920,34368
7921,34304
7922,34176
7923,34048
7924,34048
7925,33984
7926,33856
7927,33728
7928,33728
7929,33664
7930,33600
7931,33600
7932,33728
7933,33728
7934,33472
7935,33216
7936,33216
7937,33344
7938,33344
7939,33536
7940,33856
7941,33792
7942,33536
7943,33344
7944,33216
7945,33280
7946,33408
7947,33472
7948,33600
7949,33856
7950,33920
7951,33856
7952,33856
7953,33920
7954,33920
7955,33856
7956,33856
7957,33856
7958,33920
7959,33920
7960,33856
7961,33856
7962,33856
7963,33792
7964,33728
7965,33728
7966,33792
7967,33792
7968,33856
7969,33984
7970,34048
7971,33984
7972,33664
7973,33536
7974,33920
7975,34112
7976,33664
7977,33216
7978,33024
7979,33024
7980,33024
7981,33152
7982,33408
7983,33600
7984,33728
7985,33728
7986,33792
7987,33856
7988,33792
7989,33664
7990,33664
7991,33792
7992,33792
7993,33792
7994,33792
7995,33920
7996,33984
7997,33856
7998,33920
7999,34176
8000,34304
8001,34176
8002,34048
8003,33920
8004,33856
8005,33728
8006,33664
8007,33792
8008,33984
8009,34112
8010,34176
8011,34240
8012,34240
8013,34304
8014,34176
8015,34112
8016,34112
8017,33984
8018,33792
8019,33728
8020,33664
8021,33600
8022,33536
8023,33536
8024,33600
8025,33664
8026,33664
8027,33728
8028,33856
8029,33984
8030,34112
8031,34112
8032,34048
8033,34048
8034,34048
8035,34368
8036,35200
8037,36416
8038,38144
8039,40384
8040,42560
8041,43712
8042,43264
8043,41152
8044,38272
8045,35520
8046,33024
8047,31296
8048,30272
8049,29952
8050,29952
8051,30208
8052,30592
8053,31168
8054,31808
8055,32320
8056,32768
8057,33216
8058,33600
8059,33856
8060,33984
8061,34048
8062,34176
8063,34176
8064,34112
8065,34048
8066,34048
8067,33984
8068,33856
8069,33728
8070,33792
8071,33856
8072,33856
8073,33792
8074,33856
8075,33920
8076,33920
8077,33856
8078,33856
8079,33920
8080,33920
8081,33920
8082,33920
8083,33984
8084,34048
8085,34048
8086,34112
8087,34240
8088,34240
8089,34304
8090,34368
8091,34496
8092,34560
8093,34560
8094,34752
8095,35008
8096,35008
8097,34816
8098,34496
8099,34176
8100,33984
8101,33856
8102,33792
8103,33856
8104,33920
8105,33920
8106,33856
8107,33856
8108,33728
8109,33600
8110,33408
8111,33216
8112,33088
8113,33024
8114,33024
8115,33024
8116,33088
8117,33024
8118,32960
8119,32960
8120,33088
8121,33216
8122,33344
8123,33344
8124,33408
8125,33536
8126,33536
8127,33664
8128,33792
8129,33856
8130,33792
8131,33472
8132,33216
8133,33088
8134,33088
8135,33088
8136,33216
8137,33408
8138,33472
8139,33472
8140,33472
8141,33472
8142,33472
8143,33472
8144,33536
8145,33664
8146,33728
8147,33728
8148,33792
8149,33792
8150,33792
8151,33728
8152,33664
8153,33536
8154,33472
8155,33408
8156,33408
8157,33408
8158,33536
8159,33536
8160,33536
8161,33600
8162,33664
8163,33728
8164,33792
8165,33792
8166,33856
8167,33856
8168,33728
8169,33728
8170,33728
8171,33792
8172,33856
8173,33920
8174,34112
8175,34368
8176,34432
8177,34368
8178,34240
8179,34240
8180,34176
8181,34304
8182,34496
8183,34624
8184,34560
8185,34496
8186,34560
8187,34560
8188,34304
8189,34048
8190,33920
8191,33792
8192,33600
8193,33408
8194,33280
8195,33216
8196,33280
8197,33344
8198,33472
8199,33664
8200,33792
8201,33920
8202,33920
8203,33984
8204,33920
8205,33856
8206,33856
8207,34176
8208,34944
8209,36288
8210,38400
8211,40704
8212,42688
8213,43712
8214,43456
8215,41600
8216,38848
8217,35840
8218,33216
8219,31424
8220,30720
8221,30464
8222,30208
8223,30016
8224,30208
8225,30784
8226,31872
8227,33088
8228,33728
8229,33920
8230,33856
8231,33536
8232,33472
8233,33600
8234,33600
8235,33472
8236,33408
8237,33536
8238,33728
8239,33792
8240,33920
8241,34048
8242,34112
8243,34176
8244,34240
8245,34368
8246,34432
8247,34432
8248,34432
8249,34432
8250,34368
8251,34240
8252,34176
8253,34176
8254,34240
8255,34368
8256,34432
8257,34368
8258,34304
8259,34368
8260,34432
8261,34560
8262,34816
8263,35008
8264,35072
8265,35136
8266,35200
8267,35264
8268,35264
8269,35264
8270,35264
8271,35264
8272,35136
8273,35008
8274,34944
8275,34880
8276,34752
8277,34560
8278,34432
8279,34304
8280,34112
8281,33920
8282,33792
8283,33728
8284,33600
8285,33472
8286,33408
8287,33472
8288,33472
8289,33408
8290,33408
8291,33408
8292,33472
8293,33536
8294,33600
8295,33856
8296,34240
8297,34112
8298,33792
8299,34112
8300,33984
8301,33152
8302,32576
8303,32448
8304,32512
8305,32640
8306,32768
8307,32896
8308,33152
8309,33344
8310,33408
8311,33536
8312,33600
8313,33664
8314,33664
8315,33792
8316,33856
8317,33856
8318,33856
8319,33728
8320,33536
8321,33408
8322,33152
8323,32896
8324,32896
8325,32960
8326,33152
8327,33216
8328,33280
8329,33408
8330,33472
8331,33472
8332,33600
8333,33728
8334,33792
8335,33728
8336,33600
8337,33600
8338,33536
8339,33408
8340,33344
8341,33408
8342,33536
8343,33664
8344,33728
8345,33792
8346,33792
8347,33792
8348,33856
8349,33984
8350,34176
8351,34240
8352,34112
8353,33984
8354,33920
8355,33728
8356,33600
8357,33472
8358,33472
8359,33408
8360,33280
8361,33152
8362,33152
8363,33216
8364,33280
8365,33280
8366,33344
8367,33472
8368,33536
8369,33600
8370,33792
8371,34432
8372,35264
8373,35136
8374,33728
8375,32832
8376,33024
8377,34112
8378,36160
8379,38912
8380,41728
8381,43648
8382,44224
8383,42560
8384,39488
8385,36352
8386,33664
8387,31808
8388,30656
8389,30080
8390,30080
8391,30400
8392,30912
8393,31424
8394,31936
8395,32448
8396,33024
8397,33472
8398,33792
8399,34048
8400,34176
8401,34304
8402,34304
8403,34240
8404,34176
8405,34112
8406,34048
8407,34048
8408,34112
8409,34176
8410,34112
8411,34112
8412,34112
8413,34176
8414,34048
8415,33984
8416,33856
8417,33856
8418,33856
8419,33920
8420,34048
8421,34176
8422,34240
8423,34304
8424,34368
8425,34496
8426,34496
8427,34560
8428,34624
8429,34688
8430,34816
8431,35008
8432,35008
8433,34880
8434,34752
8435,34688
8436,34624
8437,34688
8438,34688
8439,34752
8440,34752
8441,34752
8442,34880
8443,35008
8444,35200
8445,35392
8446,35392
8447,34816
8448,33792
8449,33024
8450,32576
8451,32448
8452,32448
8453,32576
8454,32768
8455,33024
8456,33152
8457,33344
8458,33600
8459,33856
8460,33728
8461,33472
8462,33344
8463,33408
8464,33472
8465,33408
8466,33472
8467,33600
8468,33920
8469,34496
8470,34432
8471,33728
8472,33216
8473,32896
8474,32832
8475,32960
8476,33152
8477,33344
8478,33408
8479,33600
8480,33728
8481,33792
8482,33856
8483,33920
8484,33984
8485,33856
8486,33728
8487,33728
8488,33728
8489,33728
8490,33664
8491,33664
8492,33664
8493,33728
8494,33664
8495,33600
8496,33600
8497,33600
8498,33536
8499,33536
8500,33600
8501,33664
8502,33600
8503,33600
8504,33728
8505,33792
8506,33792
8507,33792
8508,33792
8509,33920
8510,34048
8511,34112
8512,34112
8513,34112
8514,34112
8515,34048
8516,34112
8517,34240
8518,34304
8519,34176
8520,34176
8521,34240
8522,34112
8523,33792
8524,33536
8525,33408
8526,33344
8527,33280
8528,33280
8529,33344
8530,33408
8531,33536
8532,33728
8533,33920
8534,33984
8535,33856
8536,33728
8537,33792
8538,33856
8539,33856
8540,34048
8541,34496
8542,34560
8543,34112
8544,34432
8545,36096
8546,38656
8547,41344
8548,42944
8549,43200
8550,41792
8551,39360
8552,36608
8553,34048
8554,32064
8555,30912
8556,30272
8557,30080
8558,30272
8559,30592
8560,31104
8561,31616
8562,32192
8563,32768
8564,33216
8565,33472
8566,33664
8567,33856
8568,34112
8569,34368
8570,34368
8571,34240
8572,34112
8573,33984
8574,33920
8575,33856
8576,33728
8577,33664
8578,33664
8579,33728
8580,33856
8581,33856
8582,33856
8583,33856
8584,33984
8585,34048
8586,34048
8587,34048
8588,34112
8589,34176
8590,34240
8591,34304
8592,34368
8593,34368
8594,34432
8595,34560
8596,34880
8597,34880
8598,34688
8599,34496
8600,34496
8601,34688
8602,34880
8603,34816
8604,34752
8605,34688
8606,34624
8607,34624
8608,34752
8609,34752
8610,34624
8611,34368
8612,34048
8613,33920
8614,33856
8615,33728
8616,33600
8617,33600
8618,33536
8619,33408
8620,33344
8621,33344
8622,33344
8623,33280
8624,33216
8625,33216
8626,33216
8627,33216
8628,33280
8629,33344
8630,33472
8631,33472
8632,33472
8633,33472
8634,33536
8635,33600
8636,33664
8637,33664
8638,33728
8639,33728
8640,33664
8641,33664
8642,33728
8643,33664
8644,33600
8645,33600
8646,33664
8647,33664
8648,33728
8649,33728
8650,33728
8651,33728
8652,33728
8653,33728
8654,33728
8655,33792
8656,33792
8657,33792
8658,34176
8659,34816
8660,35136
8661,34624
8662,33856
8663,33408
8664,33408
8665,33536
8666,33664
8667,34176
8668,34368
8669,33472
8670,32640
8671,32448
8672,32576
8673,32896
8674,33344
8675,33728
8676,33920
8677,34112
8678,34304
8679,34304
8680,34304
8681,34432
8682,34496
8683,34688
8684,34944
8685,34816
8686,33984
8687,33216
8688,32896
8689,32768
8690,32832
8691,33088
8692,33408
8693,33728
8694,33920
8695,33984
8696,33984
8697,33984
8698,33792
8699,33664
8700,33664
8701,33664
8702,33728
8703,33728
8704,33856
8705,33984
8706,34048
8707,34112
8708,34112
8709,34048
8710,33792
8711,33472
8712,33216
8713,33152
8714,33536
8715,34496
8716,36096
8717,38272
8718,40896
8719,43008
8720,44032
8721,43648
8722,41728
8723,38848
8724,35648
8725,33344
8726,31552
8727,30464
8728,30016
8729,30080
8730,30400
8731,30912
8732,31552
8733,32256
8734,32832
8735,33344
8736,33728
8737,34048
8738,34240
8739,34368
8740,34112
8741,33856
8742,33856
8743,33920
8744,34112
8745,34112
8746,34048
8747,33920
8748,33728
8749,33536
8750,33600
8751,33856
8752,34112
8753,34496
8754,34816
8755,35008
8756,35264
8757,35904
8758,36160
8759,35904
8760,35264
8761,33792
8762,32448
8763,31616
8764,31616
8765,32192
8766,32960
8767,33472
8768,33792
8769,34176
8770,34496
8771,34752
8772,34944
8773,35200
8774,35456
8775,35648
8776,35840
8777,35776
8778,35520
8779,35008
8780,34560
8781,34368
8782,34368
8783,34368
8784,34176
8785,33920
8786,33664
8787,33472
8788,33344
8789,33408
8790,33472
8791,33472
8792,33344
8793,33280
8794,33216
8795,33152
8796,33152
8797,33216
8798,33280
8799,33280
8800,33344
8801,33472
8802,33536
8803,33536
8804,33600
8805,33600
8806,33664
8807,33664
8808,33664
8809,33728
8810,33792
8811,33728
8812,33728
8813,33792
8814,33984
8815,34112
8816,34112
8817,34112
8818,33984
8819,33664
8820,33280
8821,33152
8822,33216
8823,33408
8824,33536
8825,33536
8826,33600
8827,33664
8828,33856
8829,33920
8830,33984
8831,34112
8832,34176
8833,34112
8834,34176
8835,34176
8836,33728
8837,33344
8838,33408
8839,33664
8840,33536
8841,33472
8842,33600
8843,33856
8844,34304
8845,34752
8846,34496
8847,33536
8848,32960
8849,32512
8850,32384
8851,32512
8852,32832
8853,33088
8854,33280
8855,33600
8856,33856
8857,33984
8858,34112
8859,34240
8860,34368
8861,34432
8862,34432
8863,34432
8864,34432
8865,34368
8866,34176
8867,34048
8868,33920
8869,33728
8870,33600
8871,33536
8872,33664
8873,33856
8874,34048
8875,33792
8876,33344
8877,32960
8878,32832
8879,32896
8880,33024
8881,33280
8882,33664
8883,33856
8884,33856
8885,33664
8886,33472
8887,33664
8888,34304
8889,35328
8890,36928
8891,41472
8892,43072
8893,43456
8894,42240
8895,39808
8896,37056
8897,34304
8898,32000
8899,31872
8900,30080
8901,29952
8902,30144
8903,30848
8904,31616
8905,32000
8906,32320
8907,32896
8908,33664
8909,33664
8910,33792
8911,33088
8912,33152
8913,33408
8914,33600
8915,33664
8916,33792
8917,33984
8918,34240
8919,34176
8920,34240
8921,34240
8922,34368
8923,34304
8924,34176
8925,34176
8926,34112
8927,33984
8928,33920
8929,33856
8930,33728
8931,33536
8932,33472
8933,33536
8934,33600
8935,33664
8936,33664
8937,33792
8938,33984
8939,33984
8940,34176
8941,34240
8942,34688
8943,34880
8944,34944
8945,35072
8946,35072
8947,34944
8948,34880
8949,34944
8950,35136
8951,34944
8952,34560
8953,34368
8954,34240
8955,34048
8956,33856
8957,33728
8958,33728
8959,33728
8960,33792
8961,33664
8962,33472
8963,33408
8964,33408
8965,33408
8966,33408
8967,33408
8968,33408
8969,33344
8970,33280
8971,33344
8972,33280
8973,33344
8974,33664
8975,34176
8976,34112
8977,33792
8978,33344
8979,33280
8980,33216
8981,33152
8982,33152
8983,33216
8984,33408
8985,33600
8986,33792
8987,34048
8988,34176
8989,34112
8990,34048
8991,34176
8992,34368
8993,34432
8994,34240
8995,34112
8996,34048
8997,34112
8998,34112
8999,34048
9000,33984
9001,33920
9002,33856
9003,33856
9004,33984
9005,34048
9006,33792
9007,33664
9008,33664
9009,33728
9010,33664
9011,33728
9012,33856
9013,33856
9014,33664
9015,33472
9016,33472
9017,33600
9018,33728
9019,33728
9020,33792
9021,33792
9022,33856
9023,33856
9024,33792
9025,33856
9026,33920
9027,33984
9028,34112
9029,34048
9030,33984
9031,33792
9032,33728
9033,33856
9034,34176
9035,34368
9036,34176
9037,33920
9038,33856
9039,33920
9040,33856
9041,33856
9042,33984
9043,34176
9044,34432
9045,34432
9046,34496
9047,34560
9048,34496
9049,34432
9050,34304
9051,34176
9052,34048
9053,33984
9054,33984
9055,33920
9056,33856
9057,33664
9058,33408
9059,33280
9060,33152
9061,33088
9062,33024
9063,32960
9064,32832
9065,32896
9066,33408
9067,34432
9068,36224
9069,38528
9070,41152
9071,43264
9072,44160
9073,43200
9074,40768
9075,37824
9076,35072
9077,32704
9078,31040
9079,30144
9080,29824
9081,29888
9082,30208
9083,30720
9084,31360
9085,31936
9086,32384
9087,32896
9088,33408
9089,33856
9090,34048
9091,34304
9092,34496
9093,34688
9094,34624
9095,34496
9096,34240
9097,34048
9098,33792
9099,33472
9100,33344
9101,33280
9102,33088
9103,32576
9104,31872
9105,31104
9106,30208
9107,29696
9108,29824
9109,30336
9110,31104
9111,31872
9112,32640
9113,33344
9114,33920
9115,34368
9116,34688
9117,34816
9118,34880
9119,34752
9120,34560
9121,34432
9122,34432
9123,34368
9124,34304
9125,34304
9126,34368
9127,34432
9128,34624
9129,34816
9130,34944
9131,34880
9132,34816
9133,34816
9134,34880
9135,34944
9136,34816
9137,34560
9138,34368
9139,34176
9140,33920
9141,33792
9142,33728
9143,33664
9144,33664
9145,33664
9146,33792
9147,33920
9148,33920
9149,33856
9150,33856
9151,33856
9152,33920
9153,33984
9154,34048
9155,34176
9156,34240
9157,34304
9158,34432
9159,34432
9160,34496
9161,34496
9162,34560
9163,34560
9164,34496
9165,34432
9166,34368
9167,34368
9168,34432
9169,34368
9170,34368
9171,34368
9172,34432
9173,34432
9174,34432
9175,34496
9176,34496
9177,34432
9178,34368
9179,34432
9180,34496
9181,34496
9182,34560
9183,34624
9184,34688
9185,34752
9186,34880
9187,34752
9188,34368
9189,34112
9190,34048
9191,34112
9192,34112
9193,34112
9194,34112
9195,34176
9196,34304
9197,34368
9198,34368
9199,34368
9200,34368
9201,34368
9202,34304
9203,34368
9204,34368
9205,34432
9206,34432
9207,34432
9208,34624
9209,34880
9210,34880
9211,34944
9212,35008
9213,35264
9214,35264
9215,35136
9216,35136
9217,34688
9218,33920
9219,33472
9220,33408
9221,33600
9222,33728
9223,33792
9224,33856
9225,33984
9226,34048
9227,34048
9228,34048
9229,34112
9230,34176
9231,34176
9232,34176
9233,34240
9234,34176
9235,34176
9236,34176
9237,34176
9238,34112
9239,33920
9240,33856
9241,34304
9242,35008
9243,36032
9244,37440
9245,39680
9246,42048
9247,43520
9248,43648
9249,41984
9250,39552
9251,36672
9252,34176
9253,32192
9254,31360
9255,31232
9256,31360
9257,31232
9258,31104
9259,31360
9260,31680
9261,31936
9262,32384
9263,33216
9264,33856
9265,34304
9266,34560
9267,34560
9268,34432
9269,34496
9270,34816
9271,34752
9272,34240
9273,34048
9274,34304
9275,34432
9276,34112
9277,33728
9278,33664
9279,33792
9280,33920
9281,33984
9282,34176
9283,34432
9284,34688
9285,34624
9286,34368
9287,34176
9288,34240
9289,34432
9290,34688
9291,34752
9292,34688
9293,34752
9294,34688
9295,34560
9296,34752
9297,34752
9298,34560
9299,34560
9300,34944
9301,35456
9302,35200
9303,34688
9304,34304
9305,34176
9306,34176
9307,34240
9308,34560
9309,34944
9310,35072
9311,34752
9312,34368
9313,34176
9314,34048
9315,33984
9316,33984
9317,33536
9318,33216
9319,33024
9320,32896
9321,32896
9322,32896
9323,32960
9324,33280
9325,33664
9326,33856
9327,34048
9328,34176
9329,34368
9330,34432
9331,34560
9332,34432
9333,34176
9334,34240
9335,34432
9336,34304
9337,33856
9338,33408
9339,32960
9340,32832
9341,32768
9342,32960
9343,33536
9344,33984
9345,33856
9346,33280
9347,32960
9348,32960
9349,33024
9350,33088
9351,33344
9352,33664
9353,33792
9354,33920
9355,34432
9356,34944
9357,34752
9358,34048
9359,33600
9360,33728
9361,34112
9362,33536
9363,32448
9364,31744
9365,31488
9366,31616
9367,32000
9368,32576
9369,33280
9370,33600
9371,33728
9372,33600
9373,33472
9374,33216
9375,33216
9376,33856
9377,34112
9378,33664
9379,33344
9380,32896
9381,32448
9382,32064
9383,32000
9384,32384
9385,32896
9386,33472
9387,33984
9388,33920
9389,33536
9390,33088
9391,32704
9392,32512
9393,32768
9394,32960
9395,32512
9396,32000
9397,32128
9398,33216
9399,33536
9400,32512
9401,31872
9402,32064
9403,32320
9404,32448
9405,32512
9406,32512
9407,32640
9408,32512
9409,32192
9410,32768
9411,33920
9412,34496
9413,35584
9414,37632
9415,40192
9416,42368
9417,43072
9418,42048
9419,39616
9420,36992
9421,33856
9422,31296
9423,29760
9424,29312
9425,29568
9426,30272
9427,30720
9428,30848
9429,31104
9430,31488
9431,32192
9432,32448
9433,32448
9434,32512
9435,32768
9436,33280
9437,33600
9438,33920
9439,34432
9440,34368
9441,33984
9442,33728
9443,34112
9444,33728
9445,33088
9446,33152
9447,33536
9448,33408
9449,32896
9450,32576
9451,32832
9452,33088
9453,33152
9454,33472
9455,33984
9456,34176
9457,34240
9458,34624
9459,34880
9460,34752
9461,34432
9462,34432
9463,35008
9464,35200
9465,34624
9466,34304
9467,34816
9468,35008
9469,34176
9470,33856
9471,34112
9472,34560
9473,34816
9474,34880
9475,34688
9476,34752
9477,35008
9478,34944
9479,34880
9480,34880
9481,34944
9482,34688
9483,34496
9484,34176
9485,33664
9486,33472
9487,33280
9488,33152
9489,33088
9490,32960
9491,33024
9492,32960
9493,33088
9494,33344
9495,33536
9496,33664
9497,33856
9498,34112
9499,34112
9500,33728
9501,33728
9502,33984
9503,33792
9504,33792
9505,34048
9506,34368
9507,34176
9508,33728
9509,33792
9510,34048
9511,34048
9512,33792
9513,33728
9514,33664
9515,33600
9516,33920
9517,33984
9518,33792
9519,33536
9520,33600
9521,33664
9522,34048
9523,34368
9524,34176
9525,33728
9526,33280
9527,33024
9528,33152
9529,33408
9530,33856
9531,34240
9532,34112
9533,33920
9534,33792
9535,34048
9536,34048
9537,33856
9538,33792
9539,33984
9540,33664
9541,33280
9542,33088
9543,33216
9544,33472
9545,33728
9546,33920
9547,34240
9548,34624
9549,34624
9550,34560
9551,34688
9552,34368
9553,33984
9554,33792
9555,33792
9556,33920
9557,34176
9558,34304
9559,34240
9560,34112
9561,33984
9562,33856
9563,33600
9564,33344
9565,33408
9566,33280
9567,33280
9568,33088
9569,33088
9570,33664
9571,34048
9572,33984
9573,33792
9574,33536
9575,33280
9576,33088
9577,32960
9578,32960
9579,33472
9580,34560
9581,35968
9582,37888
9583,40192
9584,42496
9585,44288
9586,44160
9587,42048
9588,39168
9589,35840
9590,32960
9591,31040
9592,30144
9593,30144
9594,30336
9595,30656
9596,31296
9597,31872
9598,32192
9599,32320
9600,32576
9601,33408
9602,34240
9603,34368
9604,33792
9605,33408
9606,33408
9607,33664
9608,33728
9609,33856
9610,34112
9611,34240
9612,34240
9613,34176
9614,34048
9615,33984
9616,34048
9617,34048
9618,34368
9619,34560
9620,34176
9621,33728
9622,33664
9623,34240
9624,34752
9625,34560
9626,34240
9627,33792
9628,33856
9629,34112
9630,34112
9631,34176
9632,34432
9633,34560
9634,34688
9635,34944
9636,35200
9637,35136
9638,34944
9639,34816
9640,34688
9641,34624
9642,34688
9643,34816
9644,34944
9645,34880
9646,34880
9647,34496
9648,34496
9649,34752
9650,34624
9651,34048
9652,33728
9653,33536
9654,33600
9655,33664
9656,33216
9657,33024
9658,32832
9659,32768
9660,33024
9661,33472
9662,33920
9663,34240
9664,33728
9665,33216
9666,33216
9667,33280
9668,33344
9669,33408
9670,33856
9671,34112
9672,33664
9673,33344
9674,33152
9675,33344
9676,33664
9677,33600
9678,33472
9679,33536
9680,33664
9681,34176
9682,34496
9683,34560
9684,34048
9685,33664
9686,33600
9687,33152
9688,32768
9689,32896
9690,33152
9691,33344
9692,33216
9693,33280
9694,33664
9695,33984
9696,33664
9697,33536
9698,33728
9699,33728
9700,33472
9701,33472
9702,33664
9703,33856
9704,33792
9705,33728
9706,33600
9707,33536
9708,33536
9709,33856
9710,33984
9711,33792
9712,33664
9713,33536
9714,33344
9715,33600
9716,33984
9717,34304
9718,34432
9719,34176
9720,33984
9721,34048
9722,33920
9723,33792
9724,33856
9725,33728
9726,33728
9727,33856
9728,33984
9729,33920
9730,33664
9731,33408
9732,33664
9733,34176
9734,34112
9735,33792
9736,33536
9737,33344
9738,33216
9739,33344
9740,33408
9741,33536
9742,33536
9743,33280
9744,33216
9745,33408
9746,33600
9747,33792
9748,34624
9749,36288
9750,38848
9751,41344
9752,43072
9753,43712
9754,42880
9755,41024
9756,38400
9757,35392
9758,32960
9759,31360
9760,30464
9761,30144
9762,30208
9763,30720
9764,31424
9765,31744
9766,31808
9767,32000
9768,32448
9769,33216
9770,33664
9771,33792
9772,33984
9773,34304
9774,34304
9775,34176
9776,34176
9777,34240
9778,34240
9779,34304
9780,34496
9781,34432
9782,34176
9783,34048
9784,33920
9785,33856
9786,33792
9787,33792
9788,33920
9789,34304
9790,34688
9791,34688
9792,34240
9793,33856
9794,33856
9795,33856
9796,33984
9797,34112
9798,34304
9799,34752
9800,34944
9801,34880
9802,34944
9803,35072
9804,35136
9805,35200
9806,34944
9807,34560
9808,34496
9809,34752
9810,34688
9811,34560
9812,34560
9813,34496
9814,34368
9815,34240
9816,34240
9817,34304
9818,34688
9819,34624
9820,34304
9821,34048
9822,34112
9823,34496
9824,33856
9825,33088
9826,32832
9827,32896
9828,32960
9829,33024
9830,33024
9831,33088
9832,33344
9833,33600
9834,33472
9835,33408
9836,33472
9837,33536
9838,33856
9839,34368
9840,34304
9841,34112
9842,33856
9843,33664
9844,33728
9845,33920
9846,33920
9847,33408
9848,33152
9849,33216
9850,33280
9851,33152
9852,33280
9853,33664
9854,33920
9855,33856
9856,33792
9857,33792
9858,33600
9859,33664
9860,33856
9861,33792
9862,33664
9863,33536
9864,33536
9865,33600
9866,33856
9867,34176
9868,34112
9869,33664
9870,33600
9871,33472
9872,33408
9873,33664
9874,33536
9875,33280
9876,33216
9877,33408
9878,33664
9879,33920
9880,34112
9881,34112
9882,33984
9883,33984
9884,34240
9885,34432
9886,34432
9887,34432
9888,34688
9889,34240
9890,33600
9891,33344
9892,33472
9893,33600
9894,33728
9895,33664
9896,33344
9897,33216
9898,33280
9899,33280
9900,33216
9901,33536
9902,34112
9903,33792
9904,33280
9905,33216
9906,33600
9907,34048
9908,34048
9909,33728
9910,33344
9911,33280
9912,33472
9913,34240
9914,35712
9915,38016
9916,40768
9917,42624
9918,43456
9919,42944
9920,41216
9921,38784
9922,35840
9923,33216
9924,31360
9925,30144
9926,29632
9927,29696
9928,30144
9929,30848
9930,31680
9931,32384
9932,32960
9933,33408
9934,33536
9935,33664
9936,34048
9937,34304
9938,34304
9939,34048
9940,33984
9941,34112
9942,34240
9943,34176
9944,33856
9945,33792
9946,33792
9947,33920
9948,34368
9949,34304
9950,34048
9951,34240
9952,34368
9953,34240
9954,33856
9955,33728
9956,33856
9957,34176
9958,34176
9959,33792
9960,33728
9961,33856
9962,34112
9963,34432
9964,34560
9965,34560
9966,34688
9967,34752
9968,34880
9969,35072
9970,35072
9971,35136
9972,35072
9973,34880
9974,34624
9975,34560
9976,34496
9977,34432
9978,34432
9979,34432
9980,34368
9981,34304
9982,34240
9983,34048
9984,33920
9985,33920
9986,33984
9987,34176
9988,34176
9989,33792
9990,33344
9991,33216
9992,33216
9993,33344
9994,33792
9995,33856
9996,33280
9997,33152
9998,33472
9999,33472
10000,33472
10001,33536
10002,33408
10003,33152
10004,33152
10005,33472
10006,33664
10007,33664
10008,33728
10009,33728
10010,33728
10011,33856
10012,33984
10013,34048
10014,34112
10015,34048
10016,33920
10017,33984
10018,34176
10019,34112
10020,33984
10021,33600
10022,33088
10023,32896
10024,32896
10025,33024
10026,32896
10027,33024
10028,33280
10029,33472
10030,33664
10031,33728
10032,33728
10033,33728
10034,33792
10035,33792
10036,33856
10037,33792
10038,33856
10039,34304
10040,34304
10041,33856
10042,33536
10043,33600
10044,33600
10045,33664
10046,33664
10047,33728
10048,34112
10049,34240
10050,34304
10051,34432
10052,34368
10053,34112
10054,34304
10055,34176
10056,33536
10057,33280
10058,33408
10059,33216
10060,33024
10061,33152
10062,33344
10063,33408
10064,33088
10065,32960
10066,33280
10067,33472
10068,33600
10069,33728
10070,33920
10071,34112
10072,34048
10073,33728
10074,33600
10075,34304
10076,35456
10077,36736
10078,38528
10079,40896
10080,42688
10081,43328
10082,42240
10083,39616
10084,36544
10085,34048
10086,32448
10087,31424
10088,30656
10089,30400
10090,30272
10091,30464
10092,30976
10093,31680
10094,32128
10095,32576
10096,33024
10097,33536
10098,33920
10099,33984
10100,34112
10101,34240
10102,34176
10103,33920
10104,33600
10105,33536
10106,33600
10107,33728
10108,33728
10109,33792
10110,33856
10111,33984
10112,34112
10113,34304
10114,34304
10115,34240
10116,34048
10117,33920
10118,34112
10119,34112
10120,33920
10121,34048
10122,34240
10123,34176
10124,34048
10125,34304
10126,34560
10127,34560
10128,34624
10129,34688
10130,34560
10131,34304
10132,34240
10133,34368
10134,34624
10135,34688
10136,34432
10137,34432
10138,34432
10139,34688
10140,34816
10141,35008
10142,35008
10143,34624
10144,34176
10145,33920
10146,33792
10147,33728
10148,33920
10149,34048
10150,33856
10151,33664
10152,33664
10153,33280
10154,33216
10155,33152
10156,33024
10157,33152
10158,33536
10159,33728
10160,33472
10161,33472
10162,33600
10163,33728
10164,33664
10165,33280
10166,33152
10167,33344
10168,33536
10169,33728
10170,33920
10171,33920
10172,33728
10173,34112
10174,34816
10175,34368
10176,33536
10177,33152
10178,33216
10179,33344
10180,33472
10181,33728
10182,33792
10183,33536
10184,33344
10185,33536
10186,33984
10187,34112
10188,33728
10189,33664
10190,33664
10191,33472
10192,33344
10193,33280
10194,33664
10195,34240
10196,34240
10197,33920
10198,33728
10199,33664
10200,33920
10201,34496
10202,34816
10203,34304
10204,33728
10205,33728
10206,33856
10207,33728
10208,33728
10209,33728
10210,33920
10211,34240
10212,34176
10213,33856
10214,33536
10215,33280
10216,33344
10217,33472
10218,33280
10219,33088
10220,33472
10221,33920
10222,33728
10223,33408
10224,33280
10225,33280
10226,33280
10227,33408
10228,33664
10229,33664
10230,33600
10231,33728
10232,34048
10233,34624
10234,35840
10235,37824
10236,40064
10237,42048
10238,43200
10239,42688
10240,40640
10241,38336
10242,35840
10243,33152
10244,31168
10245,30400
10246,30144
10247,30080
10248,30464
10249,31040
10250,31552
10251,31872
10252,32320
10253,32768
10254,33344
10255,34048
10256,34240
10257,34368
10258,34176
10259,33856
10260,33792
10261,33984
10262,34304
10263,34432
10264,34432
10265,34240
10266,33792
10267,33664
10268,33664
10269,33792
10270,34176
10271,34176
10272,33792
10273,33536
10274,33536
10275,33664
10276,33792
10277,33920
10278,34112
10279,34112
10280,34240
10281,34368
10282,34560
10283,34688
10284,34816
10285,35264
10286,35264
10287,34880
10288,34496
10289,34432
10290,34432
10291,34560
10292,34624
10293,34432
10294,34240
10295,34304
10296,34432
10297,34496
10298,34688
10299,35008
10300,34816
10301,34496
10302,34304
10303,34368
10304,34304
10305,33920
10306,33664
10307,33536
10308,33408
10309,33536
10310,33856
10311,33600
10312,33088
10313,32896
10314,32768
10315,32960
10316,33280
10317,33536
10318,33728
10319,33664
10320,33344
10321,33344
10322,33472
10323,33600
10324,33408
10325,33216
10326,33280
10327,33600
10328,33792
10329,34112
10330,34176
10331,33984
10332,33728
10333,33536
10334,33536
10335,33792
10336,34368
10337,34624
10338,33856
10339,33088
10340,32960
10341,33024
10342,32896
10343,32960
10344,33280
10345,33600
10346,33728
10347,33728
10348,33792
10349,33792
10350,33792
10351,33792
10352,33536
10353,33600
10354,33984
10355,34112
10356,34048
10357,34048
10358,33984
10359,33920
10360,33600
10361,33600
10362,33856
10363,34112
10364,34048
10365,33856
10366,33920
10367,33984
10368,33920
10369,33792
10370,33664
10371,33472
10372,33280
10373,33152
10374,33280
10375,33600
10376,33856
10377,33472
10378,33088
10379,33024
10380,33088
10381,33472
10382,34048
10383,34112
10384,33728
10385,33408
10386,33280
10387,33472
10388,33600
10389,33664
10390,34624
10391,36224
10392,37952
10393,40192
10394,42304
10395,43136
10396,42368
10397,40000
10398,37376
10399,34944
10400,32832
10401,31296
10402,30400
10403,30208
10404,30400
10405,30720
10406,31104
10407,32000
10408,32832
10409,33024
10410,32960
10411,33088
10412,33408
10413,33536
10414,33664
10415,33728
10416,33792
10417,33984
10418,34368
10419,34304
10420,33920
10421,33792
10422,33728
10423,33920
10424,34176
10425,34176
10426,33792
10427,33664
10428,33856
10429,34048
10430,33920
10431,33920
10432,34112
10433,34048
10434,34176
10435,34816
10436,35072
10437,34560
10438,33856
10439,33472
10440,33600
10441,34112
10442,34368
10443,34176
10444,34112
10445,34240
10446,34432
10447,34752
10448,34944
10449,35136
10450,35264
10451,34944
10452,34624
10453,34624
10454,34624
10455,34752
10456,34688
10457,34432
10458,34368
10459,34368
10460,34240
10461,33792
10462,33472
10463,33280
10464,33216
10465,33088
10466,33216
10467,33408
10468,33600
10469,33600
10470,33600
10471,33984
10472,33664
10473,33152
10474,33152
10475,33280
10476,33408
10477,33792
10478,33536
10479,33344
10480,33344
10481,33216
10482,33280
10483,33472
10484,33728
10485,33920
10486,34112
10487,34176
10488,33984
10489,34176
10490,34560
10491,33856
10492,33216
10493,33024
10494,33024
10495,33344
10496,33728
10497,33728
10498,33472
10499,33600
10500,33792
10501,33664
10502,33408
10503,33472
10504,33792
10505,34368
10506,34624
10507,34048
10508,33536
10509,33408
10510,33344
10511,33472
10512,33792
10513,34048
10514,34048
10515,33920
10516,33536
10517,33344
10518,33664
10519,33856
10520,33984
10521,34240
10522,34432
10523,34432
10524,34048
10525,33920
10526,33856
10527,33664
10528,33664
10529,33856
10530,33728
10531,33728
10532,33920
10533,33920
10534,33600
10535,33344
10536,33280
10537,33408
10538,33664
10539,33792
10540,33728
10541,33536
10542,33344
10543,33024
10544,32896
10545,33152
10546,33792
10547,34816
10548,36288
10549,38400
10550,40832
10551,42816
10552,43584
10553,42496
10554,40064
10555,37312
10556,34816
10557,33024
10558,32000
10559,31040
10560,30464
10561,30080
10562,30208
10563,30656
10564,31296
10565,31808
10566,32448
10567,33088
10568,33792
10569,34368
10570,34688
10571,34560
10572,34048
10573,33984
10574,34112
10575,34048
10576,33920
10577,33856
10578,33920
10579,34112
10580,34432
10581,34496
10582,34432
10583,34368
10584,34112
10585,33664
10586,33408
10587,33408
10588,33728
10589,34112
10590,34496
10591,34752
10592,34432
10593,34112
10594,34368
10595,34816
10596,35008
10597,34496
10598,33920
10599,33664
10600,33856
10601,34432
10602,34880
10603,34752
10604,34560
10605,34688
10606,34944
10607,34944
10608,34752
10609,34624
10610,34624
10611,34816
10612,35008
10613,34880
10614,34432
10615,34112
10616,33984
10617,33856
10618,33728
10619,33792
10620,33920
10621,33792
10622,33408
10623,33152
10624,33216
10625,33408
10626,33600
10627,33344
10628,32960
10629,33152
10630,33344
10631,33152
10632,33024
10633,33280
10634,33728
10635,33856
10636,33600
10637,33536
10638,33536
10639,33600
10640,33792
10641,33984
10642,33856
10643,33664
10644,33664
10645,33664
10646,33920
10647,34176
10648,33920
10649,33792
10650,33664
10651,33472
10652,33408
10653,33536
10654,33664
10655,33792
10656,33792
10657,33664
10658,33728
10659,33792
10660,33856
10661,33920
10662,33792
10663,33600
10664,33536
10665,33344
10666,33280
10667,33280
10668,33408
10669,33664
10670,33728
10671,33920
10672,34304
10673,34304
10674,33920
10675,33728
10676,34048
10677,34432
10678,34304
10679,34112
10680,34304
10681,34240
10682,33728
10683,33536
10684,33664
10685,33728
10686,33728
10687,33792
10688,33920
10689,33856
10690,33664
10691,33344
10692,33280
10693,33536
10694,33792
10695,33792
10696,33600
10697,33536
10698,33600
10699,33728
10700,33664
10701,33664
10702,33728
10703,33728
10704,33472
10705,33280
10706,33280
10707,33728
10708,34880
10709,36928
10710,39552
10711,43712
10712,43776
10713,42368
10714,42048
10715,37120
10716,34688
10717,32768
10718,31168
10719,31040
10720,29696
10721,29952
10722,30272
10723,30848
10724,31616
10725,32320
10726,32832
10727,33280
10728,33600
10729,33792
10730,33792
10731,33792
10732,34048
10733,34368
10734,34368
10735,34304
10736,33856
10737,33728
10738,33984
10739,34112
10740,34112
10741,34112
10742,34176
10743,34048
10744,33856
10745,33984
10746,34176
10747,34304
10748,34048
10749,33792
10750,33728
10751,33472
10752,33408
10753,33728
10754,34176
10755,34432
10756,34432
10757,34688
10758,35072
10759,34944
10760,34816
10761,34752
10762,34624
10763,34624
10764,34624
10765,34944
10766,34496
10767,34240
10768,34240
10769,34240
10770,34176
10771,34368
10772,34624
10773,34688
10774,34624
10775,34560
10776,34368
10777,34112
10778,34112
10779,34112
10780,33664
10781,33536
10782,33920
10783,33920
10784,33024
10785,32384
10786,32256
10787,32448
10788,32832
10789,33024
10790,33088
10791,33344
10792,33792
10793,34048
10794,33856
10795,33792
10796,33792
10797,33536
10798,33536
10799,33664
10800,33728
10801,33472
10802,33408
10803,34048
10804,34048
10805,33280
10806,33024
10807,33152
10808,33152
10809,32960
10810,32832
10811,32896
10812,33216
10813,33472
10814,33600
10815,33600
10816,33728
10817,33920
10818,34048
10819,34112
10820,33856
10821,33472
10822,33472
10823,33600
10824,33664
10825,33472
10826,33024
10827,32960
10828,33216
10829,33728
10830,34048
10831,33856
10832,33600
10833,33472
10834,33600
10835,33728
10836,33920
10837,34176
10838,34176
10839,33792
10840,33728
10841,33728
10842,33792
10843,33792
10844,33792
10845,33792
10846,34048
10847,34368
10848,34048
10849,33472
10850,33408
10851,33728
10852,34048
10853,33856
10854,33408
10855,33088
10856,33216
10857,33536
10858,33472
10859,33216
10860,33152
10861,33408
10862,33728
10863,34240
10864,34240
10865,33792
10866,33472
10867,33856
10868,34496
10869,34560
10870,35392
10871,37056
10872,38912
10873,40960
10874,42432
10875,42880
10876,41600
10877,39296
10878,36992
10879,35008
10880,33152
10881,31680
10882,30784
10883,30848
10884,30848
10885,31616
10886,31872
10887,32000
10888,32384
10889,32832
10890,33344
10891,33664
10892,33856
10893,34048
10894,33920
10895,34048
10896,34240
10897,34304
10898,34496
10899,34368
10900,34368
10901,34560
10902,34432
10903,34240
10904,34496
10905,35008
10906,35200
10907,35008
10908,34688
10909,34560
10910,34432
10911,34304
10912,34176
10913,33984
10914,33920
10915,34112
10916,34496
10917,34880
10918,35136
10919,35264
10920,34944
10921,34816
10922,35008
10923,35264
10924,35328
