,ECG
0,33664
1,33664
2,33664
3,33600
4,33600
5,33600
6,33664
7,33664
8,33664
9,33664
10,33664
11,33664
12,33664
13,33664
14,33664
15,33664
16,33664
17,33600
18,33600
19,33664
20,33728
21,33728
22,33728
23,33728
24,33728
25,33664
26,33664
27,33600
28,33600
29,33600
30,33600
31,33600
32,33600
33,33664
34,33600
35,33600
36,33536
37,33536
38,33472
39,33472
40,33536
41,33600
42,33600
43,33536
44,33536
45,33600
46,33600
47,33600
48,33600
49,33600
50,33600
51,33600
52,33664
53,33664
54,33664
55,33600
56,33600
57,33600
58,33600
59,33664
60,33664
61,33728
62,33856
63,33920
64,33920
65,33984
66,34112
67,34112
68,34176
69,34304
70,34304
71,34368
72,34304
73,34304
74,34176
75,34176
76,34112
77,34048
78,34048
79,33920
80,33792
81,33664
82,33472
83,33408
84,33280
85,33280
86,33344
87,33408
88,33536
89,33600
90,33664
91,33728
92,33728
93,33728
94,33728
95,33792
96,33856
97,33856
98,33856
99,33856
100,33792
101,33728
102,33728
103,33728
104,33920
105,34304
106,34880
107,35776
108,36736
109,38016
110,38592
111,37632
112,35840
113,34048
114,32640
115,31744
116,31232
117,31040
118,31168
119,31488
120,32128
121,32768
122,33408
123,33920
124,34304
125,34496
126,34560
127,34560
128,34560
129,34496
130,34432
131,34304
132,34240
133,34176
134,34112
135,34048
136,34048
137,33984
138,33920
139,33920
140,33920
141,33920
142,33984
143,33984
144,34048
145,34112
146,34176
147,34176
148,34176
149,34240
150,34240
151,34304
152,34304
153,34368
154,34368
155,34368
156,34432
157,34432
158,34496
159,34496
160,34432
161,34432
162,34432
163,34432
164,34368
165,34368
166,34368
167,34304
168,34304
169,34240
170,34176
171,34048
172,33984
173,33856
174,33728
175,33600
176,33472
177,33344
178,33344
179,33280
180,33280
181,33280
182,33280
183,33280
184,33280
185,33280
186,33280
187,33344
188,33344
189,33344
190,33344
191,33344
192,33344
193,33344
194,33408
195,33408
196,33408
197,33408
198,33472
199,33472
200,33472
201,33472
202,33472
203,33536
204,33600
205,33600
206,33664
207,33664
208,33664
209,33664
210,33664
211,33728
212,33792
213,33792
214,33792
215,33792
216,33792
217,33728
218,33728
219,33728
220,33728
221,33792
222,33856
223,33856
224,33920
225,33920
226,33920
227,33920
228,33920
229,33984
230,33984
231,33984
232,33984
233,33984
234,33920
235,33920
236,33856
237,33856
238,33792
239,33792
240,33856
241,33856
242,33856
243,33920
244,33920
245,33920
246,33920
247,33984
248,33984
249,34048
250,34048
251,34112
252,34048
253,34048
254,33984
255,34048
256,34048
257,33984
258,33984
259,33984
260,34048
261,34048
262,34048
263,34112
264,34176
265,34240
266,34304
267,34304
268,34368
269,34368
270,34368
271,34432
272,34432
273,34560
274,34624
275,34688
276,34752
277,34688
278,34624
279,34560
280,34496
281,34432
282,34304
283,34240
284,34112
285,33984
286,33856
287,33728
288,33664
289,33664
290,33664
291,33728
292,33792
293,33856
294,33920
295,33984
296,34048
297,34048
298,34048
299,34112
300,34112
301,34112
302,34112
303,34112
304,34176
305,34112
306,34048
307,34048
308,34112
309,34368
310,34816
311,35584
312,36480
313,37568
314,38720
315,38656
316,37184
317,35328
318,33536
319,32320
320,31552
321,31232
322,31168
323,31360
324,31744
325,32384
326,33024
327,33664
328,34176
329,34560
330,34752
331,34880
332,34816
333,34752
334,34624
335,34496
336,34432
337,34368
338,34304
339,34240
340,34176
341,34176
342,34176
343,34112
344,34112
345,34112
346,34048
347,34048
348,34048
349,34112
350,34112
351,34176
352,34176
353,34240
354,34304
355,34304
356,34368
357,34432
358,34496
359,34432
360,34432
361,34432
362,34496
363,34560
364,34624
365,34688
366,34752
367,34752
368,34816
369,34816
370,34816
371,34752
372,34688
373,34688
374,34624
375,34624
376,34560
377,34496
378,34432
379,34368
380,34304
381,34112
382,34048
383,34048
384,33920
385,33856
386,33792
387,33728
388,33664
389,33664
390,33600
391,33664
392,33664
393,33728
394,33792
395,33792
396,33728
397,33664
398,33664
399,33664
400,33728
401,33728
402,33792
403,33792
404,33792
405,33792
406,33856
407,33792
408,33792
409,33792
410,33792
411,33792
412,33856
413,33920
414,33920
415,33920
416,33984
417,34048
418,34048
419,34048
420,34112
421,34112
422,34048
423,34048
424,34048
425,34112
426,34112
427,34112
428,34112
429,34112
430,34176
431,34176
432,34176
433,34112
434,34048
435,34048
436,34048
437,34048
438,34112
439,34048
440,34112
441,34112
442,34112
443,34112
444,34112
445,34112
446,34112
447,34112
448,34112
449,34112
450,34176
451,34176
452,34176
453,34176
454,34240
455,34240
456,34304
457,34304
458,34304
459,34176
460,34176
461,34176
462,34240
463,34240
464,34176
465,34176
466,34176
467,34176
468,34176
469,34176
470,34240
471,34240
472,34176
473,34240
474,34304
475,34368
476,34496
477,34560
478,34688
479,34816
480,34752
481,34752
482,34816
483,34752
484,34752
485,34816
486,34944
487,35072
488,35008
489,34880
490,34752
491,34688
492,34688
493,34688
494,34624
495,34560
496,34432
497,34304
498,34112
499,33984
500,33856
501,33792
502,33792
503,33856
504,33920
505,33984
506,34048
507,34048
508,34176
509,34240
510,34304
511,34304
512,34304
513,34304
514,34304
515,34304
516,34176
517,34048
518,33920
519,33856
520,33920
521,34304
522,34816
523,35520
524,36480
525,37632
526,38912
527,39040
528,37888
529,36032
530,34112
531,32512
532,31424
533,30784
534,30528
535,30656
536,31424
537,32448
538,33408
539,34112
540,34496
541,34752
542,34880
543,34880
544,34944
545,34880
546,34816
547,34816
548,34752
549,34624
550,34496
551,34368
552,34368
553,34368
554,34432
555,34432
556,34432
557,34496
558,34432
559,34432
560,34432
561,34240
562,34176
563,34176
564,34240
565,34304
566,34368
567,34496
568,34432
569,34432
570,34496
571,34496
572,34496
573,34560
574,34688
575,34944
576,34944
577,34944
578,34880
579,35008
580,35136
581,35008
582,34880
583,34944
584,35072
585,35072
586,35008
587,34880
588,34816
589,34688
590,34496
591,34304
592,34176
593,34240
594,34368
595,34368
596,34240
597,34112
598,34048
599,33920
600,33856
601,33792
602,33600
603,33600
604,33664
605,33792
606,33792
607,33856
608,33920
609,33920
610,33792
611,33664
612,33728
613,33728
614,33728
615,33792
616,33792
617,33728
618,33536
619,33344
620,33344
621,33472
622,33664
623,33856
624,33984
625,34112
626,34176
627,34176
628,34240
629,34176
630,34112
631,34112
632,34048
633,33984
634,33792
635,33792
636,33792
637,33664
638,33536
639,33408
640,33536
641,33792
642,33856
643,34048
644,34176
645,34304
646,34432
647,34432
648,34304
649,34176
650,34112
651,34240
652,34304
653,34112
654,33920
655,33856
656,33984
657,34112
658,34048
659,33856
660,33664
661,33536
662,33600
663,33664
664,33792
665,33856
666,33920
667,33984
668,34112
669,34112
670,34112
671,34112
672,34048
673,33856
674,33664
675,33728
676,33920
677,34048
678,34176
679,34240
680,34304
681,34304
682,34240
683,34112
684,33984
685,33920
686,33984
687,33920
688,33856
689,33792
690,33792
691,33920
692,34048
693,34176
694,34176
695,34176
696,34304
697,34368
698,34368
699,34304
700,34176
701,34368
702,34560
703,34688
704,34816
705,34816
706,34816
707,34880
708,34880
709,34688
710,34496
711,34240
712,34048
713,33856
714,33792
715,33600
716,33472
717,33536
718,33600
719,33728
720,33792
721,33920
722,33984
723,33920
724,33856
725,33792
726,33920
727,34112
728,34240
729,34176
730,34048
731,33984
732,33920
733,33856
734,33792
735,33792
736,33856
737,34048
738,34368
739,34816
740,35520
741,36480
742,37696
743,38912
744,38912
745,37504
746,35520
747,33472
748,32000
749,31040
750,30592
751,30592
752,31104
753,31872
754,32768
755,33664
756,34304
757,34688
758,34944
759,35008
760,35008
761,34944
762,34816
763,34752
764,34688
765,34560
766,34496
767,34432
768,34368
769,34304
770,34304
771,34304
772,34368
773,34304
774,34304
775,34560
776,34688
777,34688
778,34624
779,34560
780,34432
781,34368
782,34368
783,34496
784,34624
785,34624
786,34624
787,34624
788,34560
789,34624
790,34752
791,35008
792,35200
793,35200
794,35136
795,35072
796,35136
797,35136
798,35136
799,35200
800,35264
801,35264
802,35136
803,34944
804,34880
805,35008
806,35136
807,35136
808,35072
809,35008
810,35008
811,34944
812,34880
813,34752
814,34624
815,34304
816,33984
817,33792
818,33792
819,33856
820,33984
821,34048
822,34048
823,34176
824,34176
825,34176
826,34240
827,34240
828,34176
829,34112
830,34112
831,34048
832,34048
833,34176
834,34240
835,34304
836,34304
837,34304
838,34240
839,34176
840,33984
841,33920
842,33856
843,33856
844,34048
845,34304
846,34432
847,34432
848,34368
849,34176
850,34048
851,34048
852,34112
853,34112
854,34176
855,34176
856,34240
857,34304
858,34240
859,34048
860,33920
861,33920
862,33920
863,33856
864,33856
865,33856
866,33920
867,33920
868,33984
869,34048
870,34176
871,34304
872,34240
873,34112
874,34048
875,33984
876,34048
877,34112
878,34112
879,34176
880,34176
881,34112
882,33920
883,33856
884,33856
885,33792
886,33792
887,33856
888,33984
889,34048
890,34048
891,33984
892,33920
893,33920
894,33920
895,33984
896,33984
897,33984
898,33984
899,33984
900,34048
901,34112
902,34112
903,34112
904,34176
905,34176
906,34176
907,34240
908,34368
909,34496
910,34560
911,34560
912,34496
913,34496
914,34496
915,34496
916,34624
917,34816
918,34880
919,34816
920,34752
921,34688
922,34688
923,34624
924,34560
925,34240
926,33984
927,33792
928,33728
929,33664
930,33664
931,33664
932,33728
933,33792
934,33920
935,34112
936,34240
937,34240
938,34176
939,34048
940,34112
941,34176
942,34176
943,34240
944,34240
945,34240
946,34112
947,33984
948,33856
949,33856
950,34112
951,34624
952,35328
953,36224
954,37312
955,38592
956,38720
957,37632
958,35712
959,33728
960,32192
961,31168
962,30784
963,30912
964,31360
965,32000
966,32640
967,33344
968,33920
969,34368
970,34688
971,34880
972,35008
973,35072
974,35072
975,35008
976,34880
977,34624
978,34496
979,34368
980,34304
981,34304
982,34368
983,34496
984,34496
985,34560
986,34816
987,35008
988,35136
989,35008
990,34688
991,34432
992,34368
993,34432
994,34432
995,34496
996,34496
997,34624
998,34880
999,35200
1000,35456
1001,35392
1002,35072
1003,34560
1004,34176
1005,34112
1006,34816
1007,35840
1008,36608
1009,36480
1010,35712
1011,34688
1012,34112
1013,33984
1014,33984
1015,34048
1016,34368
1017,34560
1018,34880
1019,35072
1020,34944
1021,34688
1022,34560
1023,34432
1024,34688
1025,35072
1026,35456
1027,35712
1028,36032
1029,35712
1030,34688
1031,33984
1032,33728
1033,33728
1034,33344
1035,32704
1036,32000
1037,31808
1038,32128
1039,32448
1040,32704
1041,32896
1042,33152
1043,33408
1044,33664
1045,33728
1046,33664
1047,33792
1048,33984
1049,34368
1050,34688
1051,34752
1052,34752
1053,34816
1054,34496
1055,33792
1056,33152
1057,32896
1058,32768
1059,32576
1060,32576
1061,32704
1062,32832
1063,32832
1064,32896
1065,33152
1066,33344
1067,33600
1068,33600
1069,33600
1070,33600
1071,33664
1072,33792
1073,33792
1074,33728
1075,33920
1076,34048
1077,34112
1078,34048
1079,33856
1080,33600
1081,33536
1082,33664
1083,33856
1084,33920
1085,33536
1086,33152
1087,32960
1088,32896
1089,32832
1090,32640
1091,33408
1092,34112
1093,34496
1094,34112
1095,33344
1096,32896
1097,32768
1098,32640
1099,32704
1100,33024
1101,33280
1102,33600
1103,33792
1104,33856
1105,34112
1106,34368
1107,34496
1108,34560
1109,34816
1110,35136
1111,35264
1112,35264
1113,35136
1114,35584
1115,36352
1116,36672
1117,36032
1118,34688
1119,33792
1120,33664
1121,33984
1122,34176
1123,34432
1124,34816
1125,35200
1126,35456
1127,35520
1128,35392
1129,35264
1130,35264
1131,35200
1132,35136
1133,34752
1134,34432
1135,34240
1136,34048
1137,33920
1138,33728
1139,33728
1140,33792
1141,33856
1142,33792
1143,34048
1144,34496
1145,34688
1146,34240
1147,33472
1148,32832
1149,32320
1150,32064
1151,32000
1152,31872
1153,31936
1154,32064
1155,32384
1156,32576
1157,32832
1158,33472
1159,34752
1160,36288
1161,37696
1162,38592
1163,37568
1164,35520
1165,33216
1166,31232
1167,30400
1168,30080
1169,30016
1170,30336
1171,30656
1172,30976
1173,31552
1174,32320
1175,33024
1176,33856
1177,34688
1178,35264
1179,35328
1180,35200
1181,35008
1182,34880
1183,34624
1184,34176
1185,33728
1186,33344
1187,33216
1188,33216
1189,33472
1190,33728
1191,33920
1192,34176
1193,34688
1194,35200
1195,35392
1196,34880
1197,34240
1198,33536
1199,33152
1200,32960
1201,32896
1202,32960
1203,32960
1204,33088
1205,33216
1206,33280
1207,33408
1208,33664
1209,33984
1210,34368
1211,34816
1212,34944
1213,34880
1214,34432
1215,33856
1216,33600
1217,33792
1218,34240
1219,34560
1220,34368
1221,33984
1222,33792
1223,33856
1224,34112
1225,34304
1226,34176
1227,34048
1228,34048
1229,34048
1230,33792
1231,33728
1232,33856
1233,33856
1234,33408
1235,32960
1236,32896
1237,32960
1238,32960
1239,33152
1240,33408
1241,33664
1242,33728
1243,33408
1244,32768
1245,32256
1246,31872
1247,31744
1248,31808
1249,32128
1250,32640
1251,33024
1252,33152
1253,33152
1254,33088
1255,32832
1256,32896
1257,33024
1258,33408
1259,33920
1260,33920
1261,33792
1262,33536
1263,33536
1264,33728
1265,33984
1266,34304
1267,34304
1268,33728
1269,32960
1270,32640
1271,32640
1272,32896
1273,33280
1274,33536
1275,33920
1276,34432
1277,34944
1278,35136
1279,35200
1280,35136
1281,35392
1282,35648
1283,35712
1284,35520
1285,35264
1286,35200
1287,35456
1288,36096
1289,36224
1290,35968
1291,35712
1292,35776
1293,35904
1294,36032
1295,36160
1296,36480
1297,36992
1298,37056
1299,36736
1300,35968
1301,35136
1302,34688
1303,34304
1304,34304
1305,34368
1306,34304
1307,34240
1308,34432
1309,34816
1310,34944
1311,34816
1312,34944
1313,35392
1314,35776
1315,36032
1316,36416
1317,36288
1318,35712
1319,34816
1320,33984
1321,33856
1322,34368
1323,34624
1324,34688
1325,34880
1326,34944
1327,34688
1328,34432
1329,34688
1330,35264
1331,36032
1332,36480
1333,37440
1334,38464
1335,38592
1336,37568
1337,36032
1338,34752
1339,34112
1340,33600
1341,33216
1342,32896
1343,32704
1344,32704
1345,32704
1346,32960
1347,33664
1348,34304
1349,34816
1350,35200
1351,35456
1352,35392
1353,34944
1354,34496
1355,34176
1356,34176
1357,34368
1358,34368
1359,34368
1360,34368
1361,34304
1362,34240
1363,34176
1364,34176
1365,34240
1366,34752
1367,35328
1368,35520
1369,35136
1370,34560
1371,34112
1372,33792
1373,33792
1374,34048
1375,34432
1376,34816
1377,34688
1378,34368
1379,34176
1380,34240
1381,34368
1382,34432
1383,34560
1384,34560
1385,34560
1386,34880
1387,35200
1388,35072
1389,35136
1390,35136
1391,34944
1392,34496
1393,34112
1394,33984
1395,34176
1396,34688
1397,35136
1398,35136
1399,34880
1400,34432
1401,34048
1402,33664
1403,33408
1404,33472
1405,33856
1406,34112
1407,34112
1408,33984
1409,33728
1410,33344
1411,32960
1412,32832
1413,33024
1414,33536
1415,33920
1416,33856
1417,33664
1418,33600
1419,33600
1420,33600
1421,33728
1422,33664
1423,33536
1424,33280
1425,33280
1426,33344
1427,33216
1428,33152
1429,33216
1430,33344
1431,33472
1432,33472
1433,33536
1434,33664
1435,33728
1436,33728
1437,33728
1438,33792
1439,33920
1440,33984
1441,33984
1442,34176
1443,34432
1444,34368
1445,34048
1446,33920
1447,34048
1448,34176
1449,34368
1450,34368
1451,34368
1452,34368
1453,34304
1454,34304
1455,34432
1456,34432
1457,34304
1458,34176
1459,34112
1460,33920
1461,33728
1462,33472
1463,33408
1464,33408
1465,33280
1466,33152
1467,33088
1468,33152
1469,33280
1470,33472
1471,33472
1472,33472
1473,33408
1474,33344
1475,33344
1476,33408
1477,33472
1478,33536
1479,33600
1480,33728
1481,33664
1482,33600
1483,33472
1484,33408
1485,33408
1486,33472
1487,34368
1488,35136
1489,35776
1490,36352
1491,37248
1492,37632
1493,36864
1494,35328
1495,33792
1496,33600
1497,32384
1498,31936
1499,31680
1500,31744
1501,31872
1502,32000
1503,32320
1504,32704
1505,33216
1506,33728
1507,34176
1508,34304
1509,34304
1510,34368
1511,34304
1512,34432
1513,34368
1514,34112
1515,33984
1516,33920
1517,33984
1518,33984
1519,33920
1520,33920
1521,33856
1522,33920
1523,33984
1524,34112
1525,34304
1526,34304
1527,34432
1528,34368
1529,34368
1530,34368
1531,34368
1532,34304
1533,34432
1534,34496
1535,34560
1536,34624
1537,34624
1538,34624
1539,34560
1540,34560
1541,34496
1542,34688
1543,34752
1544,34816
1545,34944
1546,35008
1547,35136
1548,35072
1549,35072
1550,35008
1551,35008
1552,34944
1553,34816
1554,34816
1555,34752
1556,34688
1557,34816
1558,34816
1559,34688
1560,34432
1561,34112
1562,33920
1563,33792
1564,33792
1565,33792
1566,33856
1567,33920
1568,34048
1569,34048
1570,34240
1571,34176
1572,34432
1573,34624
1574,34752
1575,34624
1576,34240
1577,33920
1578,33728
1579,33600
1580,33664
1581,33664
1582,33664
1583,33792
1584,33984
1585,34240
1586,34176
1587,34496
1588,34560
1589,34688
1590,34624
1591,34368
1592,34304
1593,34496
1594,34944
1595,35136
1596,35008
1597,34752
1598,34624
1599,34560
1600,34752
1601,34944
1602,35072
1603,35008
1604,34816
1605,34688
1606,34688
1607,34624
1608,34816
1609,35008
1610,35008
1611,34880
1612,34688
1613,34560
1614,34368
1615,33984
1616,33920
1617,33920
1618,33920
1619,33856
1620,33856
1621,33856
1622,33920
1623,34048
1624,34240
1625,34496
1626,34816
1627,35008
1628,34752
1629,34304
1630,34048
1631,33920
1632,33856
1633,33792
1634,33728
1635,33728
1636,33920
1637,34304
1638,35008
1639,35904
1640,36864
1641,38016
1642,39296
1643,40640
1644,41600
1645,40640
1646,40384
1647,37760
1648,36032
1649,34240
1650,32640
1651,31552
1652,30912
1653,30528
1654,30464
1655,30784
1656,31360
1657,32128
1658,32896
1659,33600
1660,34176
1661,34624
1662,34880
1663,35008
1664,35072
1665,34816
1666,34624
1667,34496
1668,34432
1669,34176
1670,33984
1671,33792
1672,33728
1673,33664
1674,33728
1675,33856
1676,33984
1677,34048
1678,34176
1679,34304
1680,34624
1681,34688
1682,34624
1683,34560
1684,34432
1685,34240
1686,34176
1687,34112
1688,33984
1689,33856
1690,33792
1691,33792
1692,33920
1693,34112
1694,34240
1695,34304
1696,34368
1697,34368
1698,34432
1699,34560
1700,34880
1701,35136
1702,35072
1703,34944
1704,34880
1705,34752
1706,34624
1707,34432
1708,34304
1709,34176
1710,34112
1711,34048
1712,33984
1713,33984
1714,33984
1715,33984
1716,34048
1717,34112
1718,34240
1719,34368
1720,34432
1721,34432
1722,34432
1723,34432
1724,34368
1725,34368
1726,34368
1727,34240
1728,33920
1729,33664
1730,33600
1731,33600
1732,33664
1733,33792
1734,33984
1735,34112
1736,34240
1737,34368
1738,34560
1739,34624
1740,34624
1741,34624
1742,34624
1743,34560
1744,34368
1745,34176
1746,34112
1747,34112
1748,34240
1749,34432
1750,34752
1751,35008
1752,35136
1753,35136
1754,35136
1755,35008
1756,34816
1757,34816
1758,34880
1759,34880
1760,34816
1761,34688
1762,34496
1763,34304
1764,34112
1765,33920
1766,33792
1767,33664
1768,33664
1769,33664
1770,33728
1771,33856
1772,33920
1773,33920
1774,33920
1775,33984
1776,34048
1777,34112
1778,34176
1779,34176
1780,34176
1781,34176
1782,34112
1783,34112
1784,34176
1785,34176
1786,34112
1787,34112
1788,34240
1789,34432
1790,34752
1791,35392
1792,36160
1793,37248
1794,38528
1795,39424
1796,38784
1797,37056
1798,35008
1799,33216
1800,32064
1801,31424
1802,31104
1803,31104
1804,31424
1805,31872
1806,32448
1807,33088
1808,33728
1809,34176
1810,34496
1811,34688
1812,34752
1813,34752
1814,34752
1815,34752
1816,34688
1817,34624
1818,34496
1819,34304
1820,34176
1821,34240
1822,34368
1823,34432
1824,34560
1825,34624
1826,34624
1827,34496
1828,34432
1829,34368
1830,34368
1831,34368
1832,34304
1833,34304
1834,34368
1835,34496
1836,34624
1837,34688
1838,34752
1839,34816
1840,34944
1841,35072
1842,35264
1843,35392
1844,35264
1845,35136
1846,35136
1847,35072
1848,35072
1849,35008
1850,35072
1851,35136
1852,35136
1853,35136
1854,35136
1855,35072
1856,34944
1857,34816
1858,34752
1859,34688
1860,34624
1861,34560
1862,34432
1863,34368
1864,34368
1865,34240
1866,34112
1867,34048
1868,34048
1869,33984
1870,33984
1871,33984
1872,33984
1873,33984
1874,33920
1875,33984
1876,34112
1877,34112
1878,34048
1879,34048
1880,34048
1881,34048
1882,33920
1883,33792
1884,33792
1885,33856
1886,33920
1887,33920
1888,33984
1889,34048
1890,34048
1891,34112
1892,34112
1893,34240
1894,34304
1895,34368
1896,34368
1897,34496
1898,34432
1899,34496
1900,34496
1901,34432
1902,34368
1903,34432
1904,34624
1905,34880
1906,35072
1907,35136
1908,35008
1909,34816
1910,34624
1911,34496
1912,34432
1913,34432
1914,34496
1915,34496
1916,34432
1917,34368
1918,34176
1919,33920
1920,33792
1921,33664
1922,33728
1923,33728
1924,33664
1925,33664
1926,33728
1927,33792
1928,33728
1929,33856
1930,33920
1931,33856
1932,33728
1933,33728
1934,33728
1935,33664
1936,33664
1937,33728
1938,33856
1939,33920
1940,33984
1941,33984
1942,34048
1943,34240
1944,34496
1945,34688
1946,35136
1947,35840
1948,36800
1949,37952
1950,39040
1951,38656
1952,37056
1953,34944
1954,33152
1955,32000
1956,31360
1957,30912
1958,30784
1959,30976
1960,31424
1961,32128
1962,32832
1963,33472
1964,34048
1965,34496
1966,34688
1967,34816
1968,34880
1969,34880
1970,34944
1971,34880
1972,34816
1973,34688
1974,34560
1975,34560
1976,34560
1977,34624
1978,34496
1979,34368
1980,34176
1981,34048
1982,33984
1983,33856
1984,33856
1985,33984
1986,34112
1987,34176
1988,34304
1989,34432
1990,34560
1991,34624
1992,34688
1993,34752
1994,34752
1995,34752
1996,34816
1997,34880
1998,34944
1999,35008
2000,35072
2001,35328
2002,35584
2003,35520
2004,35328
2005,35136
2006,35008
2007,35008
2008,34880
2009,34752
2010,34752
2011,34752
2012,34688
2013,34624
2014,34496
2015,34304
2016,34176
2017,34112
2018,34112
2019,34112
2020,34112
2021,34112
2022,34048
2023,34048
2024,33984
2025,33984
2026,34048
2027,34112
2028,34112
2029,34048
2030,33984
2031,33856
2032,33792
2033,33792
2034,34048
2035,34304
2036,34304
2037,34112
2038,33984
2039,33984
2040,33984
2041,33920
2042,33856
2043,33792
2044,33792
2045,33856
2046,33920
2047,34048
2048,34112
2049,34176
2050,34240
2051,34304
2052,34368
2053,34432
2054,34368
2055,34368
2056,34304
2057,34240
2058,34240
2059,34176
2060,34112
2061,34048
2062,33984
2063,33920
2064,33984
2065,34048
2066,34176
2067,34240
2068,34240
2069,34304
2070,34304
2071,34304
2072,34432
2073,34496
2074,34560
2075,34752
2076,35072
2077,35264
2078,35136
2079,34880
2080,34624
2081,34432
2082,34368
2083,34432
2084,34496
2085,34432
2086,34368
2087,34176
2088,33984
2089,33792
2090,33664
2091,33472
2092,33472
2093,33664
2094,33856
2095,33856
2096,33792
2097,33728
2098,33728
2099,33856
2100,33984
2101,34112
2102,34112
2103,34048
2104,33984
2105,34048
2106,34048
2107,34048
2108,33920
2109,33856
2110,33792
2111,33792
2112,33792
2113,33920
2114,34240
2115,34752
2116,35264
2117,35968
2118,36928
2119,38208
2120,39296
2121,38784
2122,36992
2123,34944
2124,33088
2125,31872
2126,31232
2127,30848
2128,30848
2129,31040
2130,31552
2131,32256
2132,32896
2133,33472
2134,34048
2135,34560
2136,34880
2137,35008
2138,34944
2139,34880
2140,34880
2141,34688
2142,34496
2143,34368
2144,34304
2145,34176
2146,33984
2147,33856
2148,33792
2149,33856
2150,33984
2151,34048
2152,34112
2153,34176
2154,34176
2155,34176
2156,34304
2157,34304
2158,34368
2159,34688
2160,34816
2161,34816
2162,34624
2163,34496
2164,34496
2165,34560
2166,34432
2167,34432
2168,34560
2169,34688
2170,34688
2171,34816
2172,34944
2173,35072
2174,35072
2175,35072
2176,35072
2177,35136
2178,35136
2179,35008
2180,34944
2181,34816
2182,34816
2183,34752
2184,34752
2185,34624
2186,34496
2187,34304
2188,34112
2189,34048
2190,33984
2191,33984
2192,33984
2193,33984
2194,33984
2195,33984
2196,33984
2197,33984
2198,33984
2199,33920
2200,33728
2201,33664
2202,33664
2203,33728
2204,33664
2205,33664
2206,33728
2207,33792
2208,33856
2209,33984
2210,34048
2211,34048
2212,33984
2213,33984
2214,34112
2215,34112
2216,34048
2217,34112
2218,34304
2219,34368
2220,34304
2221,34176
2222,34048
2223,33920
2224,33856
2225,33856
2226,33920
2227,34048
2228,34112
2229,34112
2230,34176
2231,34304
2232,34304
2233,34304
2234,34368
2235,34368
2236,34368
2237,34240
2238,34048
2239,33984
2240,33920
2241,33920
2242,33920
2243,34048
2244,34112
2245,34112
2246,34112
2247,34176
2248,34176
2249,34112
2250,34112
2251,34240
2252,34304
2253,34368
2254,34240
2255,34048
2256,33984
2257,33984
2258,33984
2259,33984
2260,34048
2261,34048
2262,33920
2263,33984
2264,34048
2265,34176
2266,34304
2267,34368
2268,34432
2269,34560
2270,34624
2271,34624
2272,34688
2273,34624
2274,34624
2275,34688
2276,34752
2277,34624
2278,34560
2279,34496
2280,34432
2281,34432
2282,34496
2283,34496
2284,34560
2285,34432
2286,34240
2287,33984
2288,33728
2289,33664
2290,33792
2291,33792
2292,33664
2293,33536
2294,33536
2295,33536
2296,33536
2297,33536
2298,33664
2299,33792
2300,33856
2301,33920
2302,34112
2303,34176
2304,34240
2305,34368
2306,34368
2307,34176
2308,33856
2309,33792
2310,33856
2311,33984
2312,34240
2313,34752
2314,35456
2315,36288
2316,37376
2317,38976
2318,40256
2319,39680
2320,37632
2321,34880
2322,32704
2323,31168
2324,30272
2325,29952
2326,30144
2327,30720
2328,31488
2329,32384
2330,33216
2331,33984
2332,34496
2333,34752
2334,34880
2335,34944
2336,34880
2337,34816
2338,34752
2339,34560
2340,34432
2341,34368
2342,34304
2343,34240
2344,34176
2345,34112
2346,33984
2347,33920
2348,33984
2349,34048
2350,34112
2351,34176
2352,34176
2353,34304
2354,34368
2355,34368
2356,34496
2357,34560
2358,34432
2359,34432
2360,34432
2361,34432
2362,34368
2363,34368
2364,34432
2365,34496
2366,34624
2367,34816
2368,35008
2369,34944
2370,34816
2371,34752
2372,34816
2373,34880
2374,34880
2375,34816
2376,34752
2377,34752
2378,34880
2379,34944
2380,35072
2381,35072
2382,34816
2383,34560
2384,34304
2385,34112
2386,33984
2387,33856
2388,33792
2389,33792
2390,33856
2391,33920
2392,33920
2393,33856
2394,33792
2395,33792
2396,33792
2397,33664
2398,33536
2399,33472
2400,33472
2401,33472
2402,33536
2403,33664
2404,33728
2405,33792
2406,33728
2407,33728
2408,33728
2409,33792
2410,33856
2411,33984
2412,33920
2413,33856
2414,33792
2415,33792
2416,33920
2417,33920
2418,33792
2419,33728
2420,33728
2421,33792
2422,33920
2423,33984
2424,33856
2425,33728
2426,33728
2427,33792
2428,33856
2429,33792
2430,33792
2431,33792
2432,33856
2433,33856
2434,33856
2435,33792
2436,33664
2437,33536
2438,33472
2439,33472
2440,33472
2441,33536
2442,33600
2443,33728
2444,33728
2445,33728
2446,33728
2447,33856
2448,33920
2449,33920
2450,33792
2451,33728
2452,33728
2453,33792
2454,33856
2455,33856
2456,33792
2457,33664
2458,33600
2459,33664
2460,33600
2461,33536
2462,33536
2463,33472
2464,33536
2465,33600
2466,33664
2467,33664
2468,33728
2469,33792
2470,33792
2471,33728
2472,33728
2473,33856
2474,33984
2475,34048
2476,33984
2477,33856
2478,33792
2479,33792
2480,33728
2481,33600
2482,33536
2483,33472
2484,33408
2485,33472
2486,33600
2487,33664
2488,33792
2489,33920
2490,34048
2491,34112
2492,34176
2493,34240
2494,34240
2495,34240
2496,34304
2497,34496
2498,34560
2499,34560
2500,34432
2501,34304
2502,34304
2503,34304
2504,34304
2505,34304
2506,34368
2507,34368
2508,34304
2509,34304
2510,34240
2511,34176
2512,34048
2513,33984
2514,33920
2515,33920
2516,33856
2517,33792
2518,33728
2519,33792
2520,33920
2521,33920
2522,33792
2523,33792
2524,33856
2525,33920
2526,33984
2527,34112
2528,34240
2529,34240
2530,34176
2531,34176
2532,34176
2533,34368
2534,34432
2535,34496
2536,34624
2537,34880
2538,35392
2539,36224
2540,37376
2541,38976
2542,40192
2543,39680
2544,37824
2545,35328
2546,33152
2547,31680
2548,30784
2549,30528
2550,30656
2551,31168
2552,32000
2553,32768
2554,33600
2555,34304
2556,34816
2557,35008
2558,34944
2559,34816
2560,34816
2561,34752
2562,34624
2563,34496
2564,34496
2565,34496
2566,34432
2567,34368
2568,34368
2569,34432
2570,34496
2571,34496
2572,34560
2573,34560
2574,34496
2575,34304
2576,34240
2577,34240
2578,34176
2579,34176
2580,34176
2581,34304
2582,34368
2583,34432
2584,34560
2585,34688
2586,34880
2587,34944
2588,34816
2589,34688
2590,34624
2591,34688
2592,34752
2593,34944
2594,35008
2595,35072
2596,35008
2597,35072
2598,35136
2599,35200
2600,35200
2601,35264
2602,35456
2603,35392
2604,35200
2605,34880
2606,34688
2607,34560
2608,34496
2609,34496
2610,34496
2611,34432
2612,34368
2613,34240
2614,34240
2615,34304
2616,34240
2617,34176
2618,34112
2619,34112
2620,34112
2621,34112
2622,34048
2623,34112
2624,34112
2625,34112
2626,34112
2627,34048
2628,33856
2629,33728
2630,33600
2631,33536
2632,33664
2633,33792
2634,33856
2635,33920
2636,34048
2637,34112
2638,34176
2639,34240
2640,34304
2641,34368
2642,34304
2643,34240
2644,34240
2645,34240
2646,34112
2647,33920
2648,33856
2649,33856
2650,33856
2651,33792
2652,33792
2653,33856
2654,33856
2655,33920
2656,33984
2657,34048
2658,34048
2659,34112
2660,34304
2661,34432
2662,34432
2663,34304
2664,34176
2665,34112
2666,34112
2667,34112
2668,34304
2669,34368
2670,34304
2671,34240
2672,34176
2673,34112
2674,34048
2675,34048
2676,34048
2677,34240
2678,34560
2679,34752
2680,34688
2681,34560
2682,34496
2683,34624
2684,34624
2685,34560
2686,34560
2687,34496
2688,34304
2689,34112
2690,34112
2691,34112
2692,34176
2693,34240
2694,34368
2695,34496
2696,34624
2697,34688
2698,34688
2699,34624
2700,34496
2701,34560
2702,34752
2703,34880
2704,34880
2705,34624
2706,34368
2707,34240
2708,34304
2709,34368
2710,34496
2711,34496
2712,34432
2713,34432
2714,34432
2715,34560
2716,34688
2717,34816
2718,35008
2719,35200
2720,35264
2721,35264
2722,35200
2723,35200
2724,35136
2725,34880
2726,34688
2727,34560
2728,34496
2729,34368
2730,34304
2731,34240
2732,34048
2733,33792
2734,33664
2735,33664
2736,33792
2737,33984
2738,34176
2739,34304
2740,34368
2741,34240
2742,34176
2743,34048
2744,34112
2745,34240
2746,34304
2747,34304
2748,34368
2749,34368
2750,34368
2751,34304
2752,34112
2753,34048
2754,34048
2755,34240
2756,34688
2757,35264
2758,36032
2759,36992
2760,38144
2761,39040
2762,38400
2763,36672
2764,34816
2765,33344
2766,32512
2767,31872
2768,31488
2769,31360
2770,31360
2771,31616
2772,32064
2773,32704
2774,33280
2775,33728
2776,34112
2777,34368
2778,34560
2779,34624
2780,34624
2781,34624
2782,34560
2783,34496
2784,34304
2785,34176
2786,34048
2787,33920
2788,33856
2789,33792
2790,33856
2791,33984
2792,34112
2793,34176
2794,34240
2795,34176
2796,34048
2797,33984
2798,33984
2799,33920
2800,33920
2801,33984
2802,34048
2803,34176
2804,34304
2805,34432
2806,34560
2807,34752
2808,34944
2809,34944
2810,34880
2811,34816
2812,34816
2813,34816
2814,34816
2815,34816
2816,34752
2817,34624
2818,34624
2819,34624
2820,34624
2821,34560
2822,34624
2823,34624
2824,34624
2825,34624
2826,34624
2827,34688
2828,34688
2829,34624
2830,34432
2831,34240
2832,34176
2833,34112
2834,34048
2835,34048
2836,33984
2837,33792
2838,33600
2839,33600
2840,33600
2841,33600
2842,33664
2843,33728
2844,33920
2845,34048
2846,34176
2847,34304
2848,34304
2849,34240
2850,34112
2851,33920
2852,33856
2853,33728
2854,33664
2855,33600
2856,33728
2857,33984
2858,34176
2859,34240
2860,34112
2861,34112
2862,34176
2863,34112
2864,34048
2865,33984
2866,33984
2867,34112
2868,34240
2869,34304
2870,34240
2871,34112
2872,34048
2873,33984
2874,33920
2875,33856
2876,33920
2877,33984
2878,34048
2879,34112
2880,34112
2881,34176
2882,34240
2883,34304
2884,34304
2885,34304
2886,34240
2887,34048
2888,33856
2889,33856
2890,33984
2891,34048
2892,33984
2893,33856
2894,33728
2895,33600
2896,33536
2897,33536
2898,33600
2899,33728
2900,33920
2901,34048
2902,34176
2903,34368
2904,34496
2905,34560
2906,34432
2907,34240
2908,34112
2909,34112
2910,34112
2911,34112
2912,34112
2913,34048
2914,34048
2915,34112
2916,34112
2917,34176
2918,34240
2919,34368
2920,34496
2921,34624
2922,34752
2923,34880
2924,34944
2925,34880
2926,34752
2927,34688
2928,34752
2929,34752
2930,34624
2931,34496
2932,34304
2933,34176
2934,33984
2935,33856
2936,33792
2937,33792
2938,33728
2939,33664
2940,33664
2941,33728
2942,33856
2943,33984
2944,34048
2945,34112
2946,34112
2947,34112
2948,34176
2949,34176
2950,34176
2951,34176
2952,34176
2953,34240
2954,34304
2955,34368
2956,34368
2957,34304
2958,34304
2959,34432
2960,34752
2961,35200
2962,35904
2963,36800
2964,38016
2965,39296
2966,39232
2967,37760
2968,35584
2969,33600
2970,32128
2971,31296
2972,30784
2973,30848
2974,31232
2975,31808
2976,32448
2977,33088
2978,33792
2979,34304
2980,34688
2981,34880
2982,35008
2983,35072
2984,35008
2985,34880
2986,34752
2987,34560
2988,34432
2989,34368
2990,34432
2991,34368
2992,34368
2993,34368
2994,34432
2995,34432
2996,34432
2997,34368
2998,34304
2999,34304
3000,34304
3001,34368
3002,34496
3003,34496
3004,34496
3005,34432
3006,34368
3007,34368
3008,34368
3009,34432
3010,34560
3011,34752
3012,34816
3013,34880
3014,34944
3015,35072
3016,35200
3017,35264
3018,35392
3019,35456
3020,35456
3021,35328
3022,35200
3023,35136
3024,35072
3025,35008
3026,34944
3027,34880
3028,34880
3029,34816
3030,34688
3031,34624
3032,34560
3033,34496
3034,34432
3035,34304
3036,34240
3037,34176
3038,34112
3039,34176
3040,34176
3041,34112
3042,33984
3043,33856
3044,33792
3045,33792
3046,33792
3047,33792
3048,33920
3049,34048
3050,34112
3051,34112
3052,34112
3053,34176
3054,34176
3055,34176
3056,34048
3057,33984
3058,33920
3059,33920
3060,33920
3061,33984
3062,34048
3063,34048
3064,34176
3065,34240
3066,34368
3067,34560
3068,34560
3069,34496
3070,34304
3071,34176
3072,33984
3073,33856
3074,33856
3075,33984
3076,34112
3077,34240
3078,34368
3079,34432
3080,34432
3081,34240
3082,34176
3083,34112
3084,34176
3085,34304
3086,34304
3087,34240
3088,34048
3089,33920
3090,33856
3091,33856
3092,33920
3093,33920
3094,33920
3095,34048
3096,34112
3097,34112
3098,34048
3099,33984
3100,34048
3101,34112
3102,34112
3103,34112
3104,34112
3105,34112
3106,34240
3107,34240
3108,34176
3109,34048
3110,34048
3111,34112
3112,34176
3113,34112
3114,34048
3115,33984
3116,33920
3117,33792
3118,33728
3119,33792
3120,33920
3121,34048
3122,34176
3123,34240
3124,34432
3125,34688
3126,34752
3127,34560
3128,34432
3129,34368
3130,34304
3131,34240
3132,34240
3133,34304
3134,34432
3135,34560
3136,34752
3137,34816
3138,34880
3139,34816
3140,34752
3141,34688
3142,34752
3143,34880
3144,34880
3145,34688
3146,34432
3147,34112
3148,33856
3149,33728
3150,33728
3151,33792
3152,33856
3153,33792
3154,33664
3155,33600
3156,33536
3157,33600
3158,33728
3159,33856
3160,33984
3161,34176
3162,34304
3163,34368
3164,34368
3165,34240
3166,34112
3167,33984
3168,33920
3169,33920
3170,33984
3171,34112
3172,34432
3173,35008
3174,35904
3175,37056
3176,38464
3177,39872
3178,39808
3179,38080
3180,35584
3181,33152
3182,31424
3183,30464
3184,30080
3185,30208
3186,30720
3187,31488
3188,32192
3189,32960
3190,33664
3191,34368
3192,34688
3193,35008
3194,35200
3195,35264
3196,35008
3197,34688
3198,34432
3199,34368
3200,34304
3201,34240
3202,34112
3203,33920
3204,33856
3205,33856
3206,33856
3207,33920
3208,34048
3209,34112
3210,34176
3211,34304
3212,34496
3213,34496
3214,34496
3215,34432
3216,34624
3217,34944
3218,35008
3219,34816
3220,34560
3221,34496
3222,34432
3223,34304
3224,34304
3225,34368
3226,34496
3227,34624
3228,34816
3229,34944
3230,35008
3231,35136
3232,35200
3233,35200
3234,35200
3235,35264
3236,35328
3237,35392
3238,35328
3239,35136
3240,34944
3241,34752
3242,34560
3243,34368
3244,34368
3245,34304
3246,34240
3247,34176
3248,33984
3249,33856
3250,33792
3251,33728
3252,33728
3253,33792
3254,33984
3255,34112
3256,33984
3257,33792
3258,33600
3259,33472
3260,33472
3261,33600
3262,33728
3263,33728
3264,33664
3265,33600
3266,33664
3267,33664
3268,33664
3269,33728
3270,33792
3271,33856
3272,33920
3273,33984
3274,34048
3275,34048
3276,34112
3277,34176
3278,34176
3279,34048
3280,33856
3281,33664
3282,33536
3283,33536
3284,33664
3285,33728
3286,33792
3287,33792
3288,33856
3289,33920
3290,33984
3291,34048
3292,34176
3293,34240
3294,34176
3295,34048
3296,33856
3297,33792
3298,33792
3299,33856
3300,33920
3301,33984
3302,33920
3303,33856
3304,33792
3305,33792
3306,34048
3307,33984
3308,33984
3309,33920
3310,33792
3311,33728
3312,33728
3313,33728
3314,33856
3315,33920
3316,34048
3317,33984
3318,34112
3319,34112
3320,34176
3321,34112
3322,34048
3323,33984
3324,33984
3325,33984
3326,33920
3327,34112
3328,34304
3329,34432
3330,34496
3331,34560
3332,34624
3333,34624
3334,34624
3335,34688
3336,34816
3337,34752
3338,34496
3339,34240
3340,33984
3341,33792
3342,33536
3343,33344
3344,33280
3345,33344
3346,33472
3347,33408
3348,33472
3349,33536
3350,33600
3351,33728
3352,33856
3353,33920
3354,33984
3355,34112
3356,34048
3357,34176
3358,34112
3359,33920
3360,33920
3361,33984
3362,33984
3363,34048
3364,34048
3365,33984
3366,33984
3367,34112
3368,34560
3369,35328
3370,36352
3371,37632
3372,39232
3373,39680
3374,38336
3375,36096
3376,33664
3377,31872
3378,30784
3379,30656
3380,30208
3381,30592
3382,31360
3383,32320
3384,33152
3385,33984
3386,34048
3387,34176
3388,34624
3389,34624
3390,34688
3391,34688
3392,34560
3393,34432
3394,34368
3395,34304
3396,34240
3397,34240
3398,34304
3399,34304
3400,34304
3401,34240
3402,34368
3403,34432
3404,34496
3405,34432
3406,34304
3407,34176
3408,34112
3409,34048
3410,34112
3411,34176
3412,34240
3413,34240
3414,34240
3415,34496
3416,34432
3417,34752
3418,34688
3419,34688
3420,34752
3421,34944
3422,35008
3423,35136
3424,35200
3425,35200
3426,35200
3427,35136
3428,35200
3429,35136
3430,35136
3431,35072
3432,35008
3433,34880
3434,34688
3435,34624
3436,34560
3437,34560
3438,34496
3439,34560
3440,34496
3441,34368
3442,34176
3443,33984
3444,33984
3445,33920
3446,33920
3447,33856
3448,33856
3449,33792
3450,33792
3451,33856
3452,33920
3453,33920
3454,33728
3455,33600
3456,33600
3457,33664
3458,33728
3459,33664
3460,33664
3461,33600
3462,33600
3463,33664
3464,33728
3465,33856
3466,33984
3467,34048
3468,34112
3469,34176
3470,34176
3471,34048
3472,33920
3473,33856
3474,33792
3475,33792
3476,33728
3477,33856
3478,33984
3479,34112
3480,34112
3481,34176
3482,34112
3483,34048
3484,33984
3485,33984
3486,34048
3487,34048
3488,34048
3489,34112
3490,34240
3491,34176
3492,33920
3493,33728
3494,33600
3495,33600
3496,33664
3497,33728
3498,33856
3499,33920
3500,33984
3501,34112
3502,34240
3503,34304
3504,34368
3505,34496
3506,34432
3507,34624
3508,34752
3509,34816
3510,34880
3511,34816
3512,34624
3513,34560
3514,34496
3515,34432
3516,34432
3517,34304
3518,34176
3519,34176
3520,34176
3521,34048
3522,33984
3523,33856
3524,33728
3525,33600
3526,33600
3527,33600
3528,33600
3529,33600
3530,33600
3531,33920
3532,34176
3533,34176
3534,33920
3535,33664
3536,33664
3537,33600
3538,33664
3539,33792
3540,33984
3541,33984
3542,33984
3543,33984
3544,34048
3545,34048
3546,34048
3547,34048
3548,34176
3549,34688
3550,35328
3551,36096
3552,37056
3553,38464
3554,39616
3555,39104
3556,37120
3557,34624
3558,32448
3559,31040
3560,30272
3561,30080
3562,30272
3563,30912
3564,31808
3565,33216
3566,33280
3567,34240
3568,34688
3569,35008
3570,35136
3571,35136
3572,35008
3573,34880
3574,34752
3575,34752
3576,34624
3577,34368
3578,34176
3579,34048
3580,34048
3581,34048
3582,34176
3583,34112
3584,34112
3585,34240
3586,34368
3587,34496
3588,34560
3589,34624
3590,34688
3591,34752
3592,34624
3593,34496
3594,34496
3595,34496
3596,34496
3597,34432
3598,34496
3599,34560
3600,34688
3601,34880
3602,35136
3603,35328
3604,35392
3605,35328
3606,35264
3607,35264
3608,35264
3609,35328
3610,35200
3611,35136
3612,35200
3613,35200
3614,35136
3615,35136
3616,35136
3617,35136
3618,35072
3619,34944
3620,34816
3621,34816
3622,34688
3623,34496
3624,34176
3625,33728
3626,33664
3627,33664
3628,33728
3629,33856
3630,33920
3631,33920
3632,33920
3633,33984
3634,33984
3635,34112
3636,34176
3637,34176
3638,34048
3639,34048
3640,34048
3641,33984
3642,33728
3643,33600
3644,33600
3645,33664
3646,33728
3647,33856
3648,33920
3649,34048
3650,34176
3651,34240
3652,34368
3653,34304
3654,34176
3655,34048
3656,33984
3657,33984
3658,34048
3659,34048
3660,34048
3661,34048
3662,33984
3663,33984
3664,34048
3665,34112
3666,34048
3667,33984
3668,33984
3669,34048
3670,34176
3671,34112
3672,34048
3673,34048
3674,34048
3675,33984
3676,33920
3677,33984
3678,34112
3679,34112
3680,34048
3681,33920
3682,33984
3683,34112
3684,34240
3685,34368
3686,34368
3687,34304
3688,34368
3689,34368
3690,34432
3691,34432
3692,34560
3693,34752
3694,34880
3695,34880
3696,34816
3697,34816
3698,34880
3699,34880
3700,34688
3701,34432
3702,34176
3703,34048
3704,33856
3705,33664
3706,33536
3707,33536
3708,33472
3709,33408
3710,33408
3711,33536
3712,33600
3713,33728
3714,33856
3715,33984
3716,34048
3717,34048
3718,33984
3719,34048
3720,34048
3721,33984
3722,33856
3723,33920
3724,34112
3725,34176
3726,34048
3727,33856
3728,33728
3729,33664
3730,33600
3731,33792
3732,34368
3733,35136
3734,36096
3735,37312
3736,38912
3737,39744
3738,38848
3739,36672
3740,34176
3741,32192
3742,30912
3743,30208
3744,30080
3745,30464
3746,31104
3747,31936
3748,32768
3749,33536
3750,34048
3751,34432
3752,34688
3753,34816
3754,34880
3755,34944
3756,34880
3757,34944
3758,34880
3759,34688
3760,34432
3761,34176
3762,34048
3763,34048
3764,34112
3765,34176
3766,34240
3767,34240
3768,34240
3769,34240
3770,34304
3771,34368
3772,34304
3773,34304
3774,34304
3775,34304
3776,34304
3777,34368
3778,34496
3779,34496
3780,34432
3781,34432
3782,34496
3783,34624
3784,34752
3785,34944
3786,35136
3787,35264
3788,35200
3789,35072
3790,35008
3791,35072
3792,35008
3793,35008
3794,35008
3795,35072
3796,35136
3797,35072
3798,35008
3799,35072
3800,35136
3801,35200
3802,35264
3803,35136
3804,34816
3805,34432
3806,34048
3807,33856
3808,33856
3809,33984
3810,34112
3811,34048
3812,33856
3813,33728
3814,33664
3815,33728
3816,33856
3817,33920
3818,33856
3819,33856
3820,33856
3821,33920
3822,33856
3823,33728
3824,33728
3825,33728
3826,33728
3827,33792
3828,33920
3829,34048
3830,34112
3831,34112
3832,34112
3833,34048
3834,33984
3835,33984
3836,34048
3837,34112
3838,34048
3839,33984
3840,33984
3841,33984
3842,33856
3843,33728
3844,33728
3845,33792
3846,33792
3847,33728
3848,33728
3849,33792
3850,33920
3851,34048
3852,34176
3853,34240
3854,34240
3855,34112
3856,33920
3857,33792
3858,33792
3859,33856
3860,33920
3861,33920
3862,33856
3863,33792
3864,33600
3865,33536
3866,33600
3867,33664
3868,33792
3869,33920
3870,33920
3871,33920
3872,33920
3873,33920
3874,34048
3875,34048
3876,33984
3877,33856
3878,33984
3879,34048
3880,34048
3881,33984
3882,33984
3883,34048
3884,34112
3885,34176
3886,34240
3887,34432
3888,34560
3889,34496
3890,34432
3891,34496
3892,34496
3893,34368
3894,34304
3895,34176
3896,33984
3897,33792
3898,33600
3899,33472
3900,33344
3901,33152
3902,33024
3903,33088
3904,33152
3905,33280
3906,33344
3907,33472
3908,33664
3909,33728
3910,33792
3911,33856
3912,33792
3913,33664
3914,33600
3915,33664
3916,33920
3917,33984
3918,33856
3919,33728
3920,33600
3921,33600
3922,33664
3923,33792
3924,34112
3925,34496
3926,35200
3927,35968
3928,37056
3929,38400
3930,38848
3931,37440
3932,35392
3933,33344
3934,32000
3935,31360
3936,31104
3937,31168
3938,31360
3939,31808
3940,32384
3941,32960
3942,33408
3943,33728
3944,34048
3945,34368
3946,34560
3947,34560
3948,34560
3949,34560
3950,34560
3951,34560
3952,34560
3953,34496
3954,34432
3955,34368
3956,34240
3957,34176
3958,34112
3959,33984
3960,33856
3961,33856
3962,34048
3963,34176
3964,34240
3965,34176
3966,34176
3967,34176
3968,34176
3969,34112
3970,34112
3971,34176
3972,34240
3973,34368
3974,34496
3975,34688
3976,34752
3977,34752
3978,34752
3979,34816
3980,34880
3981,34944
3982,35008
3983,35136
3984,35136
3985,35072
3986,35008
3987,35008
3988,35008
3989,34880
3990,34752
3991,34752
3992,34688
3993,34816
3994,34880
3995,34944
3996,34880
3997,34752
3998,34624
3999,34560
4000,34560
4001,34432
4002,34304
4003,34176
4004,34048
4005,33856
4006,33728
4007,33728
4008,33856
4009,33856
4010,33728
4011,33536
4012,33472
4013,33536
4014,33600
4015,33792
4016,33856
4017,33920
4018,33856
4019,33856
4020,33984
4021,34048
4022,34112
4023,34112
4024,33984
4025,33920
4026,33920
4027,33984
4028,34048
4029,34112
4030,34048
4031,33920
4032,33856
4033,33856
4034,33920
4035,33984
4036,34048
4037,33984
4038,33984
4039,33984
4040,34112
4041,34176
4042,34048
4043,33856
4044,33728
4045,33728
4046,33792
4047,33856
4048,33920
4049,33984
4050,34048
4051,34048
4052,33984
4053,33984
4054,33984
4055,34048
4056,34112
4057,34048
4058,33920
4059,33856
4060,33856
4061,33792
4062,33600
4063,33536
4064,33536
4065,33664
4066,33792
4067,33920
4068,34048
4069,34112
4070,34240
4071,34432
4072,34432
4073,34368
4074,34304
4075,34368
4076,34496
4077,34624
4078,34624
4079,34432
4080,34304
4081,34240
4082,34240
4083,34112
4084,33984
4085,33792
4086,33600
4087,33536
4088,33408
4089,33408
4090,33344
4091,33408
4092,33408
4093,33408
4094,33536
4095,33728
4096,33856
4097,33856
4098,33792
4099,33664
4100,33600
4101,33536
4102,33536
4103,33600
4104,33792
4105,33856
4106,33984
4107,33984
4108,33920
4109,33856
4110,33792
4111,33728
4112,33792
4113,34048
4114,34560
4115,35200
4116,36096
4117,37184
4118,38272
4119,38144
4120,36672
4121,34752
4122,33216
4123,32192
4124,31680
4125,31552
4126,31680
4127,31872
4128,32064
4129,32448
4130,32960
4131,33472
4132,33792
4133,34112
4134,34368
4135,34560
4136,34752
4137,34816
4138,34688
4139,34560
4140,34432
4141,34304
4142,34240
4143,34304
4144,34368
4145,34304
4146,34240
4147,34240
4148,34304
4149,34304
4150,34368
4151,34240
4152,34048
4153,33984
4154,33984
4155,34112
4156,34240
4157,34304
4158,34368
4159,34432
4160,34496
4161,34560
4162,34560
4163,34560
4164,34624
4165,34752
4166,34880
4167,34816
4168,34752
4169,34752
4170,34816
4171,34880
4172,34880
4173,34816
4174,34880
4175,35008
4176,35072
4177,35072
4178,35072
4179,34944
4180,34880
4181,34816
4182,34816
4183,34880
4184,34944
4185,34816
4186,34752
4187,34624
4188,34560
4189,34368
4190,34176
4191,34048
4192,33984
4193,33984
4194,33984
4195,33984
4196,33984
4197,33920
4198,33856
4199,33920
4200,34048
4201,34048
4202,34048
4203,34048
4204,34048
4205,34048
4206,33984
4207,33920
4208,33920
4209,33984
4210,34048
4211,34112
4212,34304
4213,34368
4214,34304
4215,34240
4216,34176
4217,34240
4218,34304
4219,34240
4220,34048
4221,33984
4222,33984
4223,34112
4224,34176
4225,34176
4226,34176
4227,34176
4228,34240
4229,34304
4230,34304
4231,34240
4232,34112
4233,34112
4234,34112
4235,34240
4236,34432
4237,34560
4238,34496
4239,34304
4240,34176
4241,34112
4242,34176
4243,34304
4244,34368
4245,34496
4246,34624
4247,34752
4248,35008
4249,35136
4250,35072
4251,34880
4252,34688
4253,34624
4254,34624
4255,34560
4256,34496
4257,34432
4258,34304
4259,34048
4260,33792
4261,33600
4262,33472
4263,33472
4264,33536
4265,33600
4266,33664
4267,33728
4268,33856
4269,33920
4270,33920
4271,33856
4272,33792
4273,33920
4274,34048
4275,34176
4276,34048
4277,33856
4278,33792
4279,33856
4280,33920
4281,33984
4282,33984
4283,33920
4284,33920
4285,34048
4286,34368
4287,34816
4288,35392
4289,36032
4290,36864
4291,38016
4292,38592
4293,37504
4294,35584
4295,33664
4296,32384
4297,31744
4298,31424
4299,31296
4300,31424
4301,31744
4302,32192
4303,32704
4304,33408
4305,33984
4306,34432
4307,34688
4308,34880
4309,35008
4310,34944
4311,34752
4312,34560
4313,34368
4314,34240
4315,34240
4316,34304
4317,34304
4318,34304
4319,34304
4320,34304
4321,34240
4322,34176
4323,34176
4324,34176
4325,34304
4326,34368
4327,34496
4328,34560
4329,34560
4330,34496
4331,34368
4332,34368
4333,34368
4334,34432
4335,34624
4336,34752
4337,34752
4338,34688
4339,34688
4340,34688
4341,34816
4342,34880
4343,34944
4344,34944
4345,35008
4346,35072
4347,35136
4348,35136
4349,35136
4350,35200
4351,35200
4352,35136
4353,35008
4354,34880
4355,34816
4356,34752
4357,34688
4358,34688
4359,34752
4360,34752
4361,34688
4362,34496
4363,34176
4364,33920
4365,33792
4366,33728
4367,33792
4368,33792
4369,33792
4370,33792
4371,33792
4372,33856
4373,33984
4374,34048
4375,34048
4376,33984
4377,33920
4378,33920
4379,33920
4380,33920
4381,33856
4382,33856
4383,33920
4384,33984
4385,34048
4386,34176
4387,34240
4388,34176
4389,34112
4390,33984
4391,33984
4392,33984
4393,33984
4394,33856
4395,33920
4396,33984
4397,34048
4398,34112
4399,34176
4400,34240
4401,34112
4402,34048
4403,33920
4404,33920
4405,33856
4406,33856
4407,33920
4408,33920
4409,33920
4410,33792
4411,33920
4412,34048
4413,34112
4414,34112
4415,34112
4416,34112
4417,34240
4418,34240
4419,34176
4420,34176
4421,34304
4422,34496
4423,34624
4424,34688
4425,34688
4426,34624
4427,34496
4428,34368
4429,34240
4430,34176
4431,34176
4432,34112
4433,33920
4434,33536
4435,33216
4436,33088
4437,33088
4438,33088
4439,33152
4440,33216
4441,33408
4442,33600
4443,33728
4444,33600
4445,33536
4446,33536
4447,33664
4448,33728
4449,33728
4450,33664
4451,33600
4452,33536
4453,33536
4454,33600
4455,33728
4456,33664
4457,33664
4458,33600
4459,33664
4460,33984
4461,34432
4462,35136
4463,35968
4464,36928
4465,38144
4466,38720
4467,37568
4468,35584
4469,33472
4470,31936
4471,31104
4472,30656
4473,30464
4474,30592
4475,31040
4476,31744
4477,32512
4478,33216
4479,33792
4480,34240
4481,34560
4482,34624
4483,34624
4484,34560
4485,34496
4486,34368
4487,34240
4488,34112
4489,33984
4490,33920
4491,33920
4492,33856
4493,33792
4494,33792
4495,33856
4496,33920
4497,33856
4498,33792
4499,33856
4500,33984
4501,34112
4502,34176
4503,34304
4504,34304
4505,34176
4506,34112
4507,34112
4508,34176
4509,34240
4510,34176
4511,34176
4512,34240
4513,34368
4514,34432
4515,34560
4516,34624
4517,34688
4518,34816
4519,34816
4520,34816
4521,34816
4522,34752
4523,34688
4524,34752
4525,34816
4526,34816
4527,34752
4528,34624
4529,34560
4530,34560
4531,34496
4532,34368
4533,34240
4534,34112
4535,34048
4536,33920
4537,33856
4538,33792
4539,33792
4540,33728
4541,33536
4542,33408
4543,33344
4544,33344
4545,33344
4546,33472
4547,33600
4548,33728
4549,33792
4550,33728
4551,33600
4552,33472
4553,33408
4554,33472
4555,33600
4556,33664
4557,33792
4558,33920
4559,33920
4560,33856
4561,33728
4562,33664
4563,33728
4564,33856
4565,33920
4566,33920
4567,33920
4568,33792
4569,33600
4570,33600
4571,33728
4572,33792
4573,33856
4574,33856
4575,33792
4576,33728
4577,33664
4578,33664
4579,33664
4580,33728
4581,33728
4582,33728
4583,33728
4584,33792
4585,33856
4586,33984
4587,33984
4588,33984
4589,33856
4590,33600
4591,33472
4592,33408
4593,33536
4594,33600
4595,33792
4596,33984
4597,34112
4598,34176
4599,34112
4600,34112
4601,34112
4602,34176
4603,34432
4604,34688
4605,34752
4606,34560
4607,34368
4608,34240
4609,34368
4610,34496
4611,34368
4612,34112
4613,33856
4614,33600
4615,33408
4616,33280
4617,33152
4618,33024
4619,32960
4620,33088
4621,33216
4622,33344
4623,33408
4624,33472
4625,33536
4626,33600
4627,33664
4628,33728
4629,33792
4630,33792
4631,33728
4632,33728
4633,33728
4634,33664
4635,33536
4636,33472
4637,33472
4638,33536
4639,33536
4640,33536
4641,33792
4642,34368
4643,35072
4644,35904
4645,36928
4646,38400
4647,39424
4648,38784
4649,36736
4650,34240
4651,32192
4652,30848
4653,30208
4654,29952
4655,30080
4656,30592
4657,31360
4658,32256
4659,33152
4660,33920
4661,34432
4662,34688
4663,34752
4664,34688
4665,34496
4666,34368
4667,34304
4668,34304
4669,34240
4670,34176
4671,34112
4672,34112
4673,34112
4674,33984
4675,33856
4676,33792
4677,33792
4678,33984
4679,34112
4680,34048
4681,33856
4682,33728
4683,33792
4684,33920
4685,34112
4686,34176
4687,34176
4688,34112
4689,34112
4690,34048
4691,34112
4692,34240
4693,34304
4694,34304
4695,34368
4696,34496
4697,34624
4698,34752
4699,34752
4700,34688
4701,34624
4702,34560
4703,34560
4704,34624
4705,34688
4706,34688
4707,34560
4708,34432
4709,34304
4710,34176
4711,34048
4712,33920
4713,33728
4714,33408
4715,33216
4716,33088
4717,33088
4718,32960
4719,32896
4720,32896
4721,32960
4722,32960
4723,32960
4724,32960
4725,32896
4726,32896
4727,32832
4728,32832
4729,32832
4730,32960
4731,32896
4732,32896
4733,32960
4734,33024
4735,33152
4736,33216
4737,33216
4738,33280
4739,33344
4740,33408
4741,33408
4742,33472
4743,33600
4744,33600
4745,33472
4746,33472
4747,33536
4748,33600
4749,33792
4750,33856
4751,33792
4752,33664
4753,33600
4754,33600
4755,33600
4756,33664
4757,33728
4758,33728
4759,33728
4760,33728
4761,33728
4762,33792
4763,33792
4764,33792
4765,33728
4766,33792
4767,33984
4768,34240
4769,34368
4770,34240
4771,33920
4772,33728
4773,33664
4774,33728
4775,33856
4776,33984
4777,33984
4778,33984
4779,33984
4780,34112
4781,34240
4782,34240
4783,34304
4784,34304
4785,34240
4786,34112
4787,34048
4788,34176
4789,34304
4790,34432
4791,34432
4792,34496
4793,34496
4794,34560
4795,34624
4796,34752
4797,34944
4798,35072
4799,35136
4800,35008
4801,34944
4802,34880
4803,34816
4804,34752
4805,34624
4806,34432
4807,34304
4808,34112
4809,33920
4810,33728
4811,33664
4812,33664
4813,33664
4814,33728
4815,33728
4816,33728
4817,33792
4818,33856
4819,33920
4820,33984
4821,34048
4822,34112
4823,34048
4824,34048
4825,34048
4826,34112
4827,34176
4828,34240
4829,34304
4830,34240
4831,34112
4832,33984
4833,33920
4834,34048
4835,34432
4836,34944
4837,35840
4838,36928
4839,38272
4840,39488
4841,39232
4842,37632
4843,35264
4844,33024
4845,31616
4846,30912
4847,30592
4848,30528
4849,30848
4850,31488
4851,32384
4852,33280
4853,33984
4854,34624
4855,35008
4856,35136
4857,35072
4858,34880
4859,34816
4860,34752
4861,34624
4862,34496
4863,34432
4864,34368
4865,34304
4866,34240
4867,34240
4868,34240
4869,34240
4870,34240
4871,34304
4872,34304
4873,34304
4874,34304
4875,34368
4876,34432
4877,34432
4878,34304
4879,34240
4880,34304
4881,34432
4882,34560
4883,34688
4884,34688
4885,34688
4886,34688
4887,34688
4888,34752
4889,34880
4890,34880
4891,34944
4892,35008
4893,35136
4894,35072
4895,35008
4896,35008
4897,35136
4898,35136
4899,35072
4900,35072
4901,35072
4902,35008
4903,34880
4904,34944
4905,35008
4906,35008
4907,34880
4908,34688
4909,34624
4910,34496
4911,34304
4912,34176
4913,34112
4914,34112
4915,34176
4916,34048
4917,33920
4918,33792
4919,33728
4920,33728
4921,33792
4922,33920
4923,33984
4924,33984
4925,33984
4926,33984
4927,33984
4928,34048
4929,34176
4930,34176
4931,34048
4932,33984
4933,33920
4934,33920
4935,33920
4936,33984
4937,34112
4938,34176
4939,34112
4940,34048
4941,33984
4942,34048
4943,34048
4944,34048
4945,33984
4946,33984
4947,33920
4948,33920
4949,33984
4950,34112
4951,34176
4952,34240
4953,34176
4954,34048
4955,33920
4956,33920
4957,33984
4958,34112
4959,34112
4960,34112
4961,34048
4962,33920
4963,33856
4964,33792
4965,33792
4966,33792
4967,33856
4968,33920
4969,33920
4970,33984
4971,34176
4972,34240
4973,34176
4974,33984
4975,33856
4976,33728
4977,33792
4978,33856
4979,33856
4980,33792
4981,33664
4982,33664
4983,33728
4984,33792
4985,33792
4986,33792
4987,33792
4988,33856
4989,33984
4990,33984
4991,34176
4992,34240
4993,34240
4994,34048
4995,33984
4996,34048
4997,34112
4998,34048
4999,34112
5000,34240
5001,34304
5002,34176
5003,34112
5004,34176
5005,34304
5006,34368
5007,34432
5008,34496
5009,34432
5010,34368
5011,34240
5012,34048
5013,33920
5014,33792
5015,33664
5016,33600
5017,33536
5018,33536
5019,33472
5020,33472
5021,33472
5022,33536
5023,33664
5024,33728
5025,33792
5026,33856
5027,33728
5028,33600
5029,33600
5030,33664
5031,33600
5032,33664
5033,33792
5034,33920
5035,33920
5036,33920
5037,33920
5038,33856
5039,33856
5040,34112
5041,34496
5042,35200
5043,36096
5044,37120
5045,38272
5046,38848
5047,37888
5048,35840
5049,33600
5050,32064
5051,31296
5052,31040
5053,30912
5054,31104
5055,31488
5056,32064
5057,32704
5058,33280
5059,33920
5060,34368
5061,34560
5062,34624
5063,34624
5064,34560
5065,34432
5066,34432
5067,34368
5068,34304
5069,34176
5070,34048
5071,33984
5072,33984
5073,33920
5074,33920
5075,33984
5076,34176
5077,34176
5078,33984
5079,33856
5080,33856
5081,33856
5082,33920
5083,33984
5084,34176
5085,34240
5086,34240
5087,34240
5088,34304
5089,34496
5090,34624
5091,34624
5092,34624
5093,34560
5094,34496
5095,34560
5096,34816
5097,34944
5098,34880
5099,34688
5100,34560
5101,34560
5102,34624
5103,34688
5104,34752
5105,34816
5106,34880
5107,34880
5108,34880
5109,34752
5110,34688
5111,34560
5112,34496
5113,34496
5114,34560
5115,34560
5116,34496
5117,34368
5118,34048
5119,33728
5120,33600
5121,33664
5122,33728
5123,33792
5124,33728
5125,33728
5126,33728
5127,33664
5128,33728
5129,33856
5130,33856
5131,33792
5132,33728
5133,33792
5134,33664
5135,33664
5136,33728
5137,33920
5138,33984
5139,33856
5140,33664
5141,33600
5142,33664
5143,33728
5144,33856
5145,33984
5146,34048
5147,34048
5148,34048
5149,33984
5150,33984
5151,34048
5152,34112
5153,34112
5154,34048
5155,33856
5156,33664
5157,33600
5158,33600
5159,33728
5160,33984
5161,33984
5162,33984
5163,33984
5164,34048
5165,34112
5166,34112
5167,34112
5168,33984
5169,33984
5170,33984
5171,33920
5172,33920
5173,33664
5174,33600
5175,33728
5176,33856
5177,33856
5178,33984
5179,33984
5180,33984
5181,33920
5182,33856
5183,33856
5184,33856
5185,33856
5186,33856
5187,33984
5188,34112
5189,34240
5190,34240
5191,34304
5192,34304
5193,34304
5194,34432
5195,34560
5196,34688
5197,34624
5198,34560
5199,34496
5200,34496
5201,34432
5202,34368
5203,34176
5204,34176
5205,34112
5206,34048
5207,33856
5208,33728
5209,33536
5210,33344
5211,33216
5212,33280
5213,33344
5214,33536
5215,33600
5216,33664
5217,33728
5218,33728
5219,33792
5220,33792
5221,33856
5222,33920
5223,33920
5224,33920
5225,33920
5226,33920
5227,33920
5228,33920
5229,33856
5230,33856
5231,33920
5232,34112
5233,34432
5234,34816
5235,35200
5236,35904
5237,36800
5238,37952
5239,38400
5240,37376
5241,35584
5242,33856
5243,32704
5244,32128
5245,31744
5246,31680
5247,31680
5248,31808
5249,32128
5250,32704
5251,33280
5252,33664
5253,33984
5254,34240
5255,34496
5256,34624
5257,34688
5258,34688
5259,34752
5260,34688
5261,34624
5262,34432
5263,34304
5264,34240
5265,34176
5266,34176
5267,34112
5268,33984
5269,34048
5270,34176
5271,34240
5272,34176
5273,34176
5274,34304
5275,34368
5276,34368
5277,34304
5278,34240
5279,34368
5280,34560
5281,34560
5282,34496
5283,34496
5284,34560
5285,34624
5286,34752
5287,34944
5288,35008
5289,34880
5290,34688
5291,34560
5292,34624
5293,34752
5294,34816
5295,34880
5296,34944
5297,34944
5298,34944
5299,34944
5300,35008
5301,35072
5302,35008
5303,34880
5304,34816
5305,34752
5306,34688
5307,34560
5308,34368
5309,34176
5310,34112
5311,34048
5312,34048
5313,34112
5314,34048
5315,33920
5316,33856
5317,33792
5318,33856
5319,33920
5320,34112
5321,34112
5322,34112
5323,34048
5324,34048
5325,33920
5326,33920
5327,33920
5328,33984
5329,33984
5330,33984
5331,33920
5332,33856
5333,33984
5334,34048
5335,34112
5336,34112
5337,34176
5338,34176
5339,34112
5340,34112
5341,34112
5342,34112
5343,34176
5344,34112
5345,34048
5346,33984
5347,34048
5348,34112
5349,34112
5350,34240
5351,34176
5352,34240
5353,34176
5354,34112
5355,34176
5356,34176
5357,34176
5358,34240
5359,34176
5360,33984
5361,33792
5362,33728
5363,33728
5364,33728
5365,33856
5366,33792
5367,33984
5368,34048
5369,34048
5370,34112
5371,34112
5372,34048
5373,33984
5374,34112
5375,34240
5376,34368
5377,34496
5378,34624
5379,34688
5380,34624
5381,34496
5382,34368
5383,34432
5384,34432
5385,34432
5386,34432
5387,34432
5388,34496
5389,34432
5390,34304
5391,34176
5392,33984
5393,33728
5394,33472
5395,33408
5396,33344
5397,33472
5398,33472
5399,33472
5400,33472
5401,33536
5402,33600
5403,33664
5404,33792
5405,33856
5406,33728
5407,33600
5408,33536
5409,33536
5410,33728
5411,33664
5412,33792
5413,33728
5414,33664
5415,33664
5416,33728
5417,33856
5418,33984
5419,34176
5420,34496
5421,35008
5422,35712
5423,36608
5424,37760
5425,38528
5426,38336
5427,35968
5428,34048
5429,32576
5430,31744
5431,31296
5432,31168
5433,31232
5434,31552
5435,32000
5436,32448
5437,33024
5438,33536
5439,33920
5440,34112
5441,34240
5442,34304
5443,34368
5444,34432
5445,34560
5446,34496
5447,34304
5448,34112
5449,34048
5450,34048
5451,34048
5452,33920
5453,33920
5454,33984
5455,34112
5456,34048
5457,34112
5458,33984
5459,33856
5460,33792
5461,33856
5462,33984
5463,34112
5464,34112
5465,34176
5466,34240
5467,34304
5468,34304
5469,34176
5470,34112
5471,34304
5472,34560
5473,34752
5474,34752
5475,34688
5476,34624
5477,34560
5478,34624
5479,34688
5480,34752
5481,34688
5482,34688
5483,34688
5484,34688
5485,34752
5486,34688
5487,34752
5488,34816
5489,34752
5490,34560
5491,34368
5492,34304
5493,34240
5494,34176
5495,34048
5496,33920
5497,33856
5498,33728
5499,33600
5500,33472
5501,33408
5502,33472
5503,33472
5504,33472
5505,33600
5506,33664
5507,33664
5508,33664
5509,33600
5510,33536
5511,33536
5512,33536
5513,33536
5514,33600
5515,33664
5516,33600
5517,33792
5518,33792
5519,33728
5520,33664
5521,33728
5522,33664
5523,33664
5524,33600
5525,33600
5526,33664
5527,33728
5528,33792
5529,33792
5530,33856
5531,33792
5532,33728
5533,33728
5534,33792
5535,33920
5536,33920
5537,33920
5538,33920
5539,33856
5540,33664
5541,33600
5542,33600
5543,33600
5544,33664
5545,33792
5546,33792
5547,33984
5548,33984
5549,33856
5550,33728
5551,33728
5552,33728
5553,33728
5554,33728
5555,33728
5556,33664
5557,33536
5558,33472
5559,33536
5560,33728
5561,33728
5562,33920
5563,33984
5564,34048
5565,34048
5566,34240
5567,34368
5568,34368
5569,34432
5570,34496
5571,34624
5572,34624
5573,34560
5574,34432
5575,34432
5576,34368
5577,34240
5578,34240
5579,34240
5580,34240
5581,34176
5582,33920
5583,33728
5584,33472
5585,33216
5586,33216
5587,33280
5588,33280
5589,33344
5590,33536
5591,33664
5592,33792
5593,33728
5594,33600
5595,33536
5596,33664
5597,33728
5598,33792
5599,33792
5600,33856
5601,33856
5602,33856
5603,33792
5604,33792
5605,33920
5606,33856
5607,33856
5608,33856
5609,34176
5610,34624
5611,35264
5612,35968
5613,36800
5614,38016
5615,39040
5616,38592
5617,36864
5618,34752
5619,32832
5620,31616
5621,30848
5622,30656
5623,30720
5624,31040
5625,31616
5626,32384
5627,33024
5628,33792
5629,34368
5630,34752
5631,34944
5632,34944
5633,34944
5634,34880
5635,34624
5636,34368
5637,34176
5638,34112
5639,34112
5640,34112
5641,34176
5642,34240
5643,34176
5644,34176
5645,34176
5646,34176
5647,34240
5648,34240
5649,34240
5650,34176
5651,34176
5652,34112
5653,34176
5654,34240
5655,34304
5656,34368
5657,34304
5658,34304
5659,34368
5660,34496
5661,34560
5662,34624
5663,34688
5664,34816
5665,34944
5666,34944
5667,34944
5668,35008
5669,34944
5670,34880
5671,34944
5672,35008
5673,35008
5674,34944
5675,34816
5676,34816
5677,34880
5678,34944
5679,34944
5680,34944
5681,34880
5682,34752
5683,34560
5684,34304
5685,34176
5686,34112
5687,34176
5688,34176
5689,34112
5690,33984
5691,33856
5692,33728
5693,33664
5694,33728
5695,33792
5696,33984
5697,34112
5698,34176
5699,34112
5700,34112
5701,34112
5702,33984
5703,33920
5704,33984
5705,34112
5706,34176
5707,34112
5708,34112
5709,34240
5710,34304
5711,34176
5712,34112
5713,34112
5714,34176
5715,34112
5716,34112
5717,34048
5718,34112
5719,34176
5720,34304
5721,34432
5722,34432
5723,34368
5724,34304
5725,34240
5726,34304
5727,34368
5728,34368
5729,34496
5730,34560
5731,34432
5732,34240
5733,34112
5734,33984
5735,33984
5736,33984
5737,34112
5738,34304
5739,34304
5740,34240
5741,34176
5742,34240
5743,34368
5744,34368
5745,34304
5746,34240
5747,34176
5748,34176
5749,34240
5750,34304
5751,34368
5752,34368
5753,34304
5754,34240
5755,34176
5756,34176
5757,34112
5758,34176
5759,34240
5760,34304
5761,34368
5762,34496
5763,34560
5764,34688
5765,34688
5766,34624
5767,34624
5768,34624
5769,34688
5770,34688
5771,34816
5772,34880
5773,35008
5774,35136
5775,35200
5776,35200
5777,35072
5778,34944
5779,34816
5780,34752
5781,34752
5782,34624
5783,34368
5784,34112
5785,33984
5786,33792
5787,33728
5788,33728
5789,33792
5790,33856
5791,33920
5792,33984
5793,34112
5794,34112
5795,34112
5796,34048
5797,34048
5798,34176
5799,34304
5800,34432
5801,34432
5802,34304
5803,34240
5804,34240
5805,34240
5806,34176
5807,34112
5808,34048
5809,34176
5810,34432
5811,34816
5812,35456
5813,36352
5814,37568
5815,39104
5816,40064
5817,39424
5818,37440
5819,35072
5820,32896
5821,31552
5822,30720
5823,30400
5824,30528
5825,31104
5826,32064
5827,33024
5828,33728
5829,34240
5830,34624
5831,34880
5832,34944
5833,35008
5834,35072
5835,35008
5836,34880
5837,34752
5838,34688
5839,34688
5840,34624
5841,34560
5842,34496
5843,34432
5844,34368
5845,34368
5846,34304
5847,34240
5848,34240
5849,34176
5850,34240
5851,34304
5852,34368
5853,34368
5854,34432
5855,34560
5856,34624
5857,34688
5858,34752
5859,34816
5860,34816
5861,34816
5862,34880
5863,34880
5864,34880
5865,34880
5866,34944
5867,35072
5868,35136
5869,35200
5870,35200
5871,35200
5872,35264
5873,35264
5874,35200
5875,35200
5876,35200
5877,35136
5878,35072
5879,35008
5880,34944
5881,34880
5882,34880
5883,34816
5884,34752
5885,34688
5886,34560
5887,34304
5888,34176
5889,34176
5890,34112
5891,34048
5892,34048
5893,34176
5894,34112
5895,33984
5896,33920
5897,33920
5898,33920
5899,33984
5900,34048
5901,34112
5902,33984
5903,33920
5904,33984
5905,34048
5906,34048
5907,34112
5908,34176
5909,34240
5910,34240
5911,34176
5912,34048
5913,34048
5914,34112
5915,34176
5916,34304
5917,34304
5918,34240
5919,34112
5920,34176
5921,34240
5922,34240
5923,34240
5924,34176
5925,34112
5926,34240
5927,34304
5928,34240
5929,34112
5930,34112
5931,34112
5932,34048
5933,33984
5934,33984
5935,34048
5936,34112
5937,34176
5938,34240
5939,34240
5940,34240
5941,34240
5942,34176
5943,34176
5944,34176
5945,34176
5946,34176
5947,34112
5948,34112
5949,34176
5950,34240
5951,34240
5952,34176
5953,34112
5954,34048
5955,34048
5956,33984
5957,33920
5958,33984
5959,34048
5960,34112
5961,34176
5962,34240
5963,34240
5964,34176
5965,34112
5966,34176
5967,34176
5968,34240
5969,34176
5970,34176
5971,34112
5972,34112
5973,34112
5974,34112
5975,34176
5976,34240
5977,34304
5978,34368
5979,34368
5980,34304
5981,34304
5982,34304
5983,34304
5984,34496
5985,34624
5986,34688
5987,34752
5988,34816
5989,34816
5990,34752
5991,34560
5992,34496
5993,34496
5994,34560
5995,34624
5996,34624
5997,34368
5998,34112
5999,33856
6000,33664
6001,33600
6002,33600
6003,33664
6004,33664
6005,33664
6006,33728
6007,33792
6008,33920
6009,34048
6010,34176
6011,34240
6012,34240
6013,34176
6014,34112
6015,33920
6016,33920
6017,33984
6018,34112
6019,34176
6020,34176
6021,34112
6022,34112
6023,34112
6024,34240
6025,34624
6026,35264
6027,36288
6028,37504
6029,39104
6030,40128
6031,39296
6032,37248
6033,34816
6034,32704
6035,31360
6036,30592
6037,30272
6038,30400
6039,30976
6040,31808
6041,32704
6042,33536
6043,34240
6044,34688
6045,34944
6046,35072
6047,34944
6048,34752
6049,34560
6050,34432
6051,34368
6052,34432
6053,34496
6054,34496
6055,34432
6056,34368
6057,34240
6058,34240
6059,34368
6060,34496
6061,34496
6062,34432
6063,34304
6064,34240
6065,34240
6066,34304
6067,34304
6068,34368
6069,34432
6070,34560
6071,34624
6072,34624
6073,34688
6074,34688
6075,34688
6076,34688
6077,34752
6078,34752
6079,34752
6080,34816
6081,34880
6082,35008
6083,35136
6084,35264
6085,35264
6086,35200
6087,35136
6088,35072
6089,35072
6090,35072
6091,35072
6092,35072
6093,35072
6094,35072
6095,34944
6096,34816
6097,34688
6098,34560
6099,34560
6100,34432
6101,34368
6102,34240
6103,34048
6104,33984
6105,33920
6106,33984
6107,34048
6108,34112
6109,34112
6110,34048
6111,33920
6112,33728
6113,33728
6114,33728
6115,33664
6116,33600
6117,33728
6118,33792
6119,33856
6120,33920
6121,33984
6122,33984
6123,33984
6124,33984
6125,34112
6126,34240
6127,34176
6128,34112
6129,33920
6130,33792
6131,33728
6132,33792
6133,33792
6134,33856
6135,33920
6136,33856
6137,33792
6138,33920
6139,33984
6140,34048
6141,34048
6142,34112
6143,34176
6144,34048
6145,33856
6146,33792
6147,33792
6148,33792
6149,33728
6150,33792
6151,33856
6152,33856
6153,33792
6154,33792
6155,33792
6156,33728
6157,33600
6158,33600
6159,33792
6160,33920
6161,34048
6162,34112
6163,34112
6164,34048
6165,33856
6166,33728
6167,33664
6168,33728
6169,33792
6170,33728
6171,33728
6172,33728
6173,33728
6174,33728
6175,33792
6176,33792
6177,33792
6178,33792
6179,33856
6180,33856
6181,33856
6182,33856
6183,33792
6184,33856
6185,33920
6186,33856
6187,33792
6188,33728
6189,33728
6190,33728
6191,33792
6192,33792
6193,33856
6194,33856
6195,33856
6196,33920
6197,33920
6198,33856
6199,33728
6200,33728
6201,33856
6202,33920
6203,33984
6204,34048
6205,34240
6206,34368
6207,34368
6208,34304
6209,34368
6210,34432
6211,34496
6212,34496
6213,34496
6214,34560
6215,34560
6216,34496
6217,34432
6218,34368
6219,34176
6220,34048
6221,33984
6222,33856
6223,33664
6224,33472
6225,33344
6226,33344
6227,33472
6228,33600
6229,33728
6230,33728
6231,33792
6232,33792
6233,33856
6234,33920
6235,33984
6236,33856
6237,33664
6238,33664
6239,33792
6240,33856
6241,33792
6242,33728
6243,33728
6244,33728
6245,33792
6246,33920
6247,34304
6248,34752
6249,35264
6250,35968
6251,36992
6252,38272
6253,39232
6254,38592
6255,36672
6256,34432
6257,32512
6258,31424
6259,30784
6260,30592
6261,30656
6262,30976
6263,31616
6264,32384
6265,33152
6266,33920
6267,34432
6268,34624
6269,34560
6270,34432
6271,34304
6272,34304
6273,34240
6274,34240
6275,34176
6276,34176
6277,34240
6278,34176
6279,34112
6280,34048
6281,33984
6282,33984
6283,33920
6284,33920
6285,34048
6286,34176
6287,34176
6288,33984
6289,33920
6290,33920
6291,33984
6292,34048
6293,34112
6294,34176
6295,34240
6296,34368
6297,34432
6298,34496
6299,34624
6300,34624
6301,34688
6302,34624
6303,34560
6304,34560
6305,34624
6306,34816
6307,34880
6308,34816
6309,34816
6310,34816
6311,34752
6312,34752
6313,34752
6314,34880
6315,35008
6316,34944
6317,34816
6318,34688
6319,34560
6320,34432
6321,34304
6322,34176
6323,34176
6324,34176
6325,34112
6326,34112
6327,34048
6328,33856
6329,33728
6330,33600
6331,33536
6332,33472
6333,33536
6334,33600
6335,33728
6336,33664
6337,33664
6338,33664
6339,33664
6340,33664
6341,33600
6342,33664
6343,33664
6344,33664
6345,33728
6346,33792
6347,33856
6348,33792
6349,33728
6350,33856
6351,33920
6352,33856
6353,33792
6354,33728
6355,33728
6356,33792
6357,33920
6358,33984
6359,33920
6360,33856
6361,33792
6362,33792
6363,33792
6364,33856
6365,34112
6366,34304
6367,34240
6368,33984
6369,33792
6370,33600
6371,33536
6372,33600
6373,33664
6374,33792
6375,33856
6376,33984
6377,34048
6378,34048
6379,34048
6380,33984
6381,33856
6382,33792
6383,33792
6384,33792
6385,33792
6386,33728
6387,33664
6388,33664
6389,33728
6390,33728
6391,33728
6392,33728
6393,33856
6394,33856
6395,33856
6396,33792
6397,33792
6398,33728
6399,33728
6400,33728
6401,33792
6402,33920
6403,33984
6404,33920
6405,33792
6406,33792
6407,33856
6408,33856
6409,33856
6410,33920
6411,33920
6412,33984
6413,34176
6414,34304
6415,34240
6416,34112
6417,34176
6418,34432
6419,34688
6420,34752
6421,34496
6422,34240
6423,34048
6424,33984
6425,33984
6426,34112
6427,34112
6428,34048
6429,33856
6430,33664
6431,33408
6432,33280
6433,33216
6434,33344
6435,33472
6436,33600
6437,33728
6438,33792
6439,33792
6440,33728
6441,33728
6442,33728
6443,33792
6444,33728
6445,33728
6446,33856
6447,33920
6448,33856
6449,33792
6450,33728
6451,33728
6452,33792
6453,33728
6454,33664
6455,33856
6456,34240
6457,34752
6458,35456
6459,36352
6460,37504
6461,38336
6462,37568
6463,35840
6464,33984
6465,32832
6466,32256
6467,32000
6468,31808
6469,31744
6470,31744
6471,31872
6472,32320
6473,32896
6474,33472
6475,33984
6476,34240
6477,34432
6478,34560
6479,34560
6480,34624
6481,34560
6482,34368
6483,34240
6484,34240
6485,34304
6486,34304
6487,34240
6488,34112
6489,34112
6490,34176
6491,34240
6492,34240
6493,34112
6494,34048
6495,33984
6496,34048
6497,34240
6498,34368
6499,34368
6500,34304
6501,34304
6502,34304
6503,34240
6504,34304
6505,34368
6506,34496
6507,34624
6508,34752
6509,34816
6510,34752
6511,34752
6512,34752
6513,34816
6514,34880
6515,34944
6516,35008
6517,35008
6518,34944
6519,34944
6520,34880
6521,34816
6522,34816
6523,34816
6524,34752
6525,34688
6526,34688
6527,34688
6528,34688
6529,34688
6530,34752
6531,34752
6532,34560
6533,34368
6534,34176
6535,34048
6536,33920
6537,33792
6538,33792
6539,33920
6540,33920
6541,33856
6542,33920
6543,33920
6544,33984
6545,33920
6546,33856
6547,33920
6548,33984
6549,33984
6550,33984
6551,34112
6552,34176
6553,34176
6554,34112
6555,33984
6556,33920
6557,33920
6558,33920
6559,33984
6560,34048
6561,34176
6562,34176
6563,34240
6564,34240
6565,34112
6566,34048
6567,34048
6568,34112
6569,34176
6570,34176
6571,34240
6572,34368
6573,34304
6574,34112
6575,33920
6576,33856
6577,33920
6578,34048
6579,34112
6580,34048
6581,34048
6582,34048
6583,34048
6584,34112
6585,34112
6586,33984
6587,33920
6588,33920
6589,33984
6590,34176
6591,34176
6592,34112
6593,34048
6594,33984
6595,33792
6596,33728
6597,33728
6598,33792
6599,33856
6600,33920
6601,34048
6602,34176
6603,34240
6604,34176
6605,34176
6606,34112
6607,34048
6608,33984
6609,33984
6610,34112
6611,34176
6612,34240
6613,34240
6614,34304
6615,34304
6616,34368
6617,34432
6618,34432
6619,34496
6620,34688
6621,34752
6622,34816
6623,34688
6624,34560
6625,34368
6626,34304
6627,34304
6628,34240
6629,34240
6630,34304
6631,34240
6632,34048
6633,33728
6634,33472
6635,33408
6636,33472
6637,33600
6638,33792
6639,33856
6640,33920
6641,33856
6642,33792
6643,33728
6644,33728
6645,33728
6646,33856
6647,33920
6648,34048
6649,34048
6650,34048
6651,33984
6652,33856
6653,33792
6654,33792
6655,33920
6656,34112
6657,34368
6658,34624
6659,35008
6660,35648
6661,36416
6662,37312
6663,38592
6664,38912
6665,37696
6666,35648
6667,33728
6668,32320
6669,31488
6670,31040
6671,30848
6672,31040
6673,31552
6674,32064
6675,32704
6676,33344
6677,33920
6678,34432
6679,34752
6680,34880
6681,34880
6682,34752
6683,34688
6684,34560
6685,34496
6686,34496
6687,34368
6688,34304
6689,34176
6690,34112
6691,34048
6692,34112
6693,34176
6694,34176
6695,34240
6696,34304
6697,34432
6698,34368
6699,34304
6700,34176
6701,34176
6702,34176
6703,34368
6704,34496
6705,34560
6706,34496
6707,34368
6708,34368
6709,34432
6710,34624
6711,34816
6712,34880
6713,34816
6714,34752
6715,34752
6716,34816
6717,35008
6718,35200
6719,35264
6720,35200
6721,35200
6722,35136
6723,35072
6724,35072
6725,35072
6726,35072
6727,34944
6728,34688
6729,34432
6730,34368
6731,34368
6732,34368
6733,34432
6734,34496
6735,34496
6736,34432
6737,34368
6738,34240
6739,33984
6740,33792
6741,33728
6742,33728
6743,33856
6744,33984
6745,34048
6746,33984
6747,33856
6748,33792
6749,33792
6750,33792
6751,33856
6752,33984
6753,33984
6754,33856
6755,33856
6756,33920
6757,33920
6758,33856
6759,33984
6760,34112
6761,34112
6762,34176
6763,34176
6764,34112
6765,33984
6766,33856
6767,33856
6768,33920
6769,33984
6770,34048
6771,34112
6772,34240
6773,34304
6774,34176
6775,34112
6776,34112
6777,34112
6778,34048
6779,33984
6780,34048
6781,34112
6782,34176
6783,34176
6784,34240
6785,34176
6786,34048
6787,33984
6788,33984
6789,34048
6790,34048
6791,33984
6792,34048
6793,34048
6794,34048
6795,34112
6796,34112
6797,34112
6798,34112
6799,33984
6800,33920
6801,33920
6802,33984
6803,34048
6804,33920
6805,33856
6806,33856
6807,34048
6808,34048
6809,34048
6810,33984
6811,33984
6812,33984
6813,34048
6814,34240
6815,34304
6816,34304
6817,34304
6818,34368
6819,34496
6820,34560
6821,34560
6822,34560
6823,34560
6824,34624
6825,34752
6826,34752
6827,34688
6828,34560
6829,34496
6830,34496
6831,34432
6832,34432
6833,34368
6834,34304
6835,34048
6836,33792
6837,33600
6838,33536
6839,33600
6840,33728
6841,33728
6842,33536
6843,33472
6844,33600
6845,33728
6846,33856
6847,33920
6848,33984
6849,33984
6850,34112
6851,34176
6852,34176
6853,34112
6854,33984
6855,33856
6856,33856
6857,33856
6858,33856
6859,33856
6860,33920
6861,34048
6862,34368
6863,34816
6864,35520
6865,36416
6866,37760
6867,38848
6868,39424
6869,38272
6870,36224
6871,34048
6872,32384
6873,31424
6874,30784
6875,30528
6876,30720
6877,31232
6878,32000
6879,32768
6880,33472
6881,34048
6882,34432
6883,34624
6884,34752
6885,34816
6886,34880
6887,34816
6888,34752
6889,34752
6890,34752
6891,34624
6892,34432
6893,34304
6894,34176
6895,33984
6896,33984
6897,34048
6898,34112
6899,34112
6900,34176
6901,34240
6902,34240
6903,34240
6904,34240
6905,34304
6906,34368
6907,34432
6908,34560
6909,34688
6910,34880
6911,34944
6912,34816
6913,34688
6914,34560
6915,34560
6916,34624
6917,34752
6918,34944
6919,35136
6920,35264
6921,35200
6922,35200
6923,35200
6924,35200
6925,35200
6926,35136
6927,35072
6928,35008
6929,34944
6930,34880
6931,34880
6932,34944
6933,34880
6934,34880
6935,34816
6936,34816
6937,34688
6938,34624
6939,34496
6940,34304
6941,34048
6942,33984
6943,34048
6944,33984
6945,33792
6946,33792
6947,33856
6948,33920
6949,33920
6950,33920
6951,33920
6952,33920
6953,33920
6954,33920
6955,33984
6956,34048
6957,34112
6958,34112
6959,34112
6960,34048
6961,33984
6962,33920
6963,33984
6964,33984
6965,34048
6966,34048
6967,34048
6968,34048
6969,33984
6970,33984
6971,33920
6972,33984
6973,34176
6974,34240
6975,34240
6976,34176
6977,34048
6978,33984
6979,33984
6980,34048
6981,34176
6982,34240
6983,34176
6984,34112
6985,34112
6986,34048
6987,34112
6988,33984
6989,33792
6990,33664
6991,33664
6992,33728
6993,33856
6994,33920
6995,33920
6996,33920
6997,33984
6998,34048
6999,34048
7000,34112
7001,34048
7002,34176
7003,34240
7004,34304
7005,34240
7006,34048
7007,33856
7008,33792
7009,33856
7010,33856
7011,33856
7012,33856
7013,33984
7014,33984
7015,33984
7016,33920
7017,33984
7018,33984
7019,34048
7020,34048
7021,34048
7022,34112
7023,34112
7024,34112
7025,34048
7026,34112
7027,34176
7028,34304
7029,34432
7030,34496
7031,34496
7032,34432
7033,34368
7034,34368
7035,34496
7036,34560
7037,34624
7038,34624
7039,34560
7040,34560
7041,34560
7042,34624
7043,34688
7044,34624
7045,34240
7046,34176
7047,33984
7048,33920
7049,33792
7050,33664
7051,33664
7052,33664
7053,33664
7054,33664
7055,33664
7056,33664
7057,33664
7058,33792
7059,33792
7060,33856
7061,33856
7062,33856
7063,33856
7064,33920
7065,33984
7066,34048
7067,34112
7068,34176
7069,34176
7070,34048
7071,34048
7072,34048
7073,34112
7074,34432
7075,35328
7076,35456
7077,37184
7078,38592
7079,39680
7080,39168
7081,37184
7082,36864
7083,32640
7084,31296
7085,30592
7086,30272
7087,30464
7088,30976
7089,31744
7090,32704
7091,32704
7092,34048
7093,34496
7094,34816
7095,34880
7096,34880
7097,34816
7098,34816
7099,34752
7100,34560
7101,34368
7102,34176
7103,34112
7104,34112
7105,34176
7106,34240
7107,34304
7108,34432
7109,34496
7110,34496
7111,34368
7112,34304
7113,34304
7114,34240
7115,34176
7116,34112
7117,34112
7118,34112
7119,34176
7120,34368
7121,34368
7122,34496
7123,34624
7124,34752
7125,34880
7126,35072
7127,35072
7128,35136
7129,35072
7130,34944
7131,34880
7132,34880
7133,34816
7134,34816
7135,34816
7136,34816
7137,34880
7138,34944
7139,35072
7140,35072
7141,35008
7142,35072
7143,35200
7144,35200
7145,35136
7146,35008
7147,34880
7148,34688
7149,34560
7150,34560
7151,34496
7152,34176
7153,33920
7154,33792
7155,33792
7156,33792
7157,33856
7158,33856
7159,33920
7160,33984
7161,33984
7162,33920
7163,33792
7164,33856
7165,33856
7166,33792
7167,33664
7168,33728
7169,33728
7170,33792
7171,33856
7172,33920
7173,33984
7174,33984
7175,34112
7176,34304
7177,34368
7178,34176
7179,34048
7180,33920
7181,33856
7182,33792
7183,33856
7184,34048
7185,34048
7186,34048
7187,33984
7188,33984
7189,33920
7190,33920
7191,33984
7192,34112
7193,34240
7194,34112
7195,33856
7196,33792
7197,33856
7198,33856
7199,33856
7200,33856
7201,33920
7202,34048
7203,34240
7204,34304
7205,34240
7206,34048
7207,33792
7208,33664
7209,33600
7210,33664
7211,33664
7212,33856
7213,33920
7214,33984
7215,33984
7216,34048
7217,34240
7218,34240
7219,33984
7220,33792
7221,33792
7222,33856
7223,33920
7224,33920
7225,33984
7226,33984
7227,33920
7228,33856
7229,33792
7230,33856
7231,33984
7232,34048
7233,34112
7234,34176
7235,34112
7236,34048
7237,33984
7238,34048
7239,34048
7240,34048
7241,33984
7242,34176
7243,34304
7244,34304
7245,34304
7246,34432
7247,34560
7248,34688
7249,34688
7250,34624
7251,34496
7252,34432
7253,34432
7254,34432
7255,34432
7256,34368
7257,34368
7258,34304
7259,34240
7260,33984
7261,33792
7262,33728
7263,33792
7264,33728
7265,33600
7266,33408
7267,33408
7268,33408
7269,33408
7270,33600
7271,33600
7272,33856
7273,33984
7274,34112
7275,34176
7276,34176
7277,34112
7278,34048
7279,34048
7280,34048
7281,34048
7282,33984
7283,33984
7284,33984
7285,34048
7286,34048
7287,34432
7288,35136
7289,36224
7290,37568
7291,38976
7292,39424
7293,38208
7294,36032
7295,33728
7296,32064
7297,31040
7298,30528
7299,30464
7300,30848
7301,30848
7302,32000
7303,32896
7304,33664
7305,34240
7306,34560
7307,34688
7308,34688
7309,34560
7310,34496
7311,34432
7312,34432
7313,34432
7314,34432
7315,34368
7316,34304
7317,34304
7318,34240
7319,34112
7320,34112
7321,34112
7322,34176
7323,34176
7324,34112
7325,34048
7326,34176
7327,34176
7328,34048
7329,34048
7330,34112
7331,34176
7332,34240
7333,34368
7334,34688
7335,34880
7336,34752
7337,34496
7338,34432
7339,34560
7340,34688
7341,34880
7342,35072
7343,35136
7344,35072
7345,35072
7346,35008
7347,35072
7348,35072
7349,35008
7350,35008
7351,35136
7352,35136
7353,35072
7354,34880
7355,34752
7356,34752
7357,34752
7358,34816
7359,34944
7360,34880
7361,34752
7362,34368
7363,34112
7364,34048
7365,33984
7366,34048
7367,34048
7368,33920
7369,33792
7370,33792
7371,33920
7372,34048
7373,34048
7374,33920
7375,33856
7376,33792
7377,33664
7378,33472
7379,33408
7380,33536
7381,33728
7382,33856
7383,33920
7384,33920
7385,33920
7386,33920
7387,33920
7388,33920
7389,33856
7390,33792
7391,33728
7392,33920
7393,34048
7394,34176
7395,34176
7396,34048
7397,33856
7398,33792
7399,33792
7400,33856
7401,33984
7402,34048
7403,34112
7404,34112
7405,34048
7406,33984
7407,33856
7408,33728
7409,33792
7410,33856
7411,33984
7412,34112
7413,34240
7414,34304
7415,34112
7416,33920
7417,33920
7418,33984
7419,34048
7420,33984
7421,33920
7422,33920
7423,33856
7424,33856
7425,33792
7426,33856
7427,33856
7428,33984
7429,34112
7430,34176
7431,34176
7432,34112
7433,33984
7434,33920
7435,33984
7436,34048
7437,34112
7438,34176
7439,34112
7440,33856
7441,33664
7442,33600
7443,33792
7444,34048
7445,34176
7446,34112
7447,33984
7448,33856
7449,33728
7450,33984
7451,33984
7452,34240
7453,34240
7454,34240
7455,34368
7456,34432
7457,34368
7458,34240
7459,34176
7460,34368
7461,34496
7462,34624
7463,34560
7464,34560
7465,34624
7466,34624
7467,34624
7468,34432
7469,34240
7470,34176
7471,34112
7472,34048
7473,33920
7474,33664
7475,33472
7476,33472
7477,33472
7478,33536
7479,33600
7480,33664
7481,33600
7482,33600
7483,33600
7484,33664
7485,33856
7486,34048
7487,34048
7488,34048
7489,34048
7490,34048
7491,33984
7492,33920
7493,33984
7494,34048
7495,34048
7496,33984
7497,33984
7498,34304
7499,34752
7500,35328
7501,36160
7502,37120
7503,38528
7504,39424
7505,38656
7506,36672
7507,34240
7508,32256
7509,30976
7510,30208
7511,30144
7512,30336
7513,30976
7514,31872
7515,32768
7516,33664
7517,34496
7518,34944
7519,35008
7520,34880
7521,34816
7522,34752
7523,34496
7524,34240
7525,34112
7526,34048
7527,34240
7528,34304
7529,34304
7530,34368
7531,34432
7532,34304
7533,34176
7534,34112
7535,34112
7536,34240
7537,34368
7538,34432
7539,34368
7540,34176
7541,34048
7542,34112
7543,34112
7544,34304
7545,34496
7546,34624
7547,34560
7548,34432
7549,34368
7550,34496
7551,34688
7552,34816
7553,34816
7554,34944
7555,35264
7556,35264
7557,35392
7558,35328
7559,35200
7560,35136
7561,35264
7562,35392
7563,35264
7564,34944
7565,34752
7566,34752
7567,34880
7568,35008
7569,35008
7570,34880
7571,34752
7572,34688
7573,34560
7574,34368
7575,34240
7576,34176
7577,34112
7578,34112
7579,34176
7580,34304
7581,34368
7582,34240
7583,34112
7584,34048
7585,33856
7586,33536
7587,33344
7588,33344
7589,33472
7590,33536
7591,33600
7592,33664
7593,33856
7594,33984
7595,33984
7596,33920
7597,33856
7598,33920
7599,34048
7600,34112
7601,34112
7602,34048
7603,33920
7604,33856
7605,33984
7606,33984
7607,33856
7608,33664
7609,33600
7610,33664
7611,33728
7612,33792
7613,33920
7614,34112
7615,34304
7616,34240
7617,33984
7618,33792
7619,33856
7620,33984
7621,34112
7622,34112
7623,33984
7624,33792
7625,33792
7626,33856
7627,33984
7628,33984
7629,33984
7630,33984
7631,33984
7632,33920
7633,33920
7634,33920
7635,33856
7636,33792
7637,33792
7638,33920
7639,34112
7640,34304
7641,34304
7642,34176
7643,34048
7644,33984
7645,33920
7646,33856
7647,33728
7648,33600
7649,33600
7650,33664
7651,33664
7652,33664
7653,33664
7654,33728
7655,33920
7656,34240
7657,34304
7658,34048
7659,33856
7660,33792
7661,33792
7662,33792
7663,33920
7664,34112
7665,34240
7666,34240
7667,34176
7668,34176
7669,34240
7670,34240
7671,34240
7672,34240
7673,34304
7674,34240
7675,34176
7676,34112
7677,34112
7678,34112
7679,34176
7680,34240
7681,34368
7682,34496
7683,34496
7684,34304
7685,33984
7686,33600
7687,33280
7688,33024
7689,32960
7690,33024
7691,33088
7692,33216
7693,33344
7694,33536
7695,33664
7696,33856
7697,33920
7698,33984
7699,33920
7700,33984
7701,34176
7702,34368
7703,34112
7704,33792
7705,33536
7706,33472
7707,33408
7708,33408
7709,33472
7710,33984
7711,34688
7712,35520
7713,36352
7714,37440
7715,38720
7716,38656
7717,36992
7718,34560
7719,32448
7720,31168
7721,30592
7722,30464
7723,30656
7724,30976
7725,31552
7726,32448
7727,33216
7728,33856
7729,34240
7730,34496
7731,34496
7732,34496
7733,34432
7734,34368
7735,34304
7736,34176
7737,33984
7738,33856
7739,33792
7740,33856
7741,34048
7742,34112
7743,34176
7744,34176
7745,34048
7746,33856
7747,33728
7748,33664
7749,33664
7750,33792
7751,33984
7752,34112
7753,34048
7754,34048
7755,34048
7756,34112
7757,34176
7758,34240
7759,34368
7760,34560
7761,34624
7762,34432
7763,34304
7764,34432
7765,34560
7766,34624
7767,34624
7768,34752
7769,34880
7770,34944
7771,34880
7772,34816
7773,34880
7774,34880
7775,34880
7776,34816
7777,34816
7778,34688
7779,34624
7780,34688
7781,34688
7782,34624
7783,34496
7784,34560
7785,34496
7786,34304
7787,33984
7788,33856
7789,33920
7790,34048
7791,33920
7792,33728
7793,33536
7794,33472
7795,33344
7796,33408
7797,33536
7798,33792
7799,33856
7800,33856
7801,33856
7802,33856
7803,33856
7804,33664
7805,33472
7806,33472
7807,33472
7808,33600
7809,33728
7810,33792
7811,33792
7812,33856
7813,33920
7814,33984
7815,33920
7816,33856
7817,33920
7818,33984
7819,33920
7820,33664
7821,33600
7822,33728
7823,33792
7824,33728
7825,33792
7826,33984
7827,34176
7828,34048
7829,33856
7830,33664
7831,33664
7832,33728
7833,33792
7834,33984
7835,34112
7836,34048
7837,33856
7838,33792
7839,33792
7840,33728
7841,33728
7842,33856
7843,33856
7844,33856
7845,33792
7846,33792
7847,33856
7848,33792
7849,33792
7850,33920
7851,34112
7852,34304
7853,34240
7854,34048
7855,33920
7856,33984
7857,33984
7858,33920
7859,33984
7860,34176
7861,34368
7862,34432
7863,34432
7864,34432
7865,34432
7866,34496
7867,34560
7868,34752
7869,34624
7870,34368
7871,34048
7872,33856
7873,33600
7874,33344
7875,33088
7876,33024
7877,32896
7878,32896
7879,32960
7880,33152
7881,33472
7882,33728
7883,33792
7884,33792
7885,33792
7886,33792
7887,33792
7888,33792
7889,33856
7890,33984
7891,34048
7892,34048
7893,34048
7894,33920
7895,33728
7896,33600
7897,33408
7898,33408
7899,33664
7900,34048
7901,34624
7902,35456
7903,36544
7904,37760
7905,38272
7906,37376
7907,35584
7908,33728
7909,32384
7910,31808
7911,31616
7912,31680
7913,31872
7914,32000
7915,32320
7916,32832
7917,33344
7918,33600
7919,33920
7920,34112
7921,34240
7922,34240
7923,34304
7924,34432
7925,34496
7926,34432
7927,34368
7928,34304
7929,34240
7930,34176
7931,34112
7932,34048
7933,33984
7934,34048
7935,34176
7936,34176
7937,34048
7938,33984
7939,33920
7940,33984
7941,34048
7942,34240
7943,34368
7944,34432
7945,34304
7946,34176
7947,34112
7948,34112
7949,34240
7950,34432
7951,34624
7952,34752
7953,34816
7954,34752
7955,34688
7956,34688
7957,34688
7958,34752
7959,34752
7960,34752
7961,34816
7962,34944
7963,35136
7964,35200
7965,35136
7966,34944
7967,34752
7968,34688
7969,34560
7970,34560
7971,34560
7972,34624
7973,34560
7974,34496
7975,34432
7976,34304
7977,34240
7978,34112
7979,34048
7980,34048
7981,33984
7982,34048
7983,34048
7984,33984
7985,33920
7986,33856
7987,33792
7988,33792
7989,33856
7990,33856
7991,33856
7992,33792
7993,33792
7994,33856
7995,33920
7996,33984
7997,34048
7998,34112
7999,34048
8000,33984
8001,34048
8002,34112
8003,34112
8004,34176
8005,34176
8006,34176
8007,34048
8008,33920
8009,33920
8010,33856
8011,33856
8012,33920
8013,33984
8014,34112
8015,34112
8016,34112
8017,34112
8018,34112
8019,34176
8020,34176
8021,34112
8022,34048
8023,34048
8024,34112
8025,34176
8026,34176
8027,34176
8028,34176
8029,34176
8030,34368
8031,34624
8032,34880
8033,35008
8034,34944
8035,34752
8036,34624
8037,34432
8038,34368
8039,34304
8040,34240
8041,34240
8042,34176
8043,33984
8044,33728
8045,33536
8046,33472
8047,33472
8048,33408
8049,33216
8050,33152
8051,33280
8052,33536
8053,33664
8054,33728
8055,33728
8056,33856
8057,33856
8058,33792
8059,33664
8060,33536
8061,33536
8062,33536
8063,33664
8064,33728
8065,33856
8066,33920
8067,33920
8068,33856
8069,33792
8070,33792
8071,34112
8072,34752
8073,35264
8074,35968
8075,36736
8076,37760
8077,38208
8078,37184
8079,35264
8080,33472
8081,32384
8082,31808
8083,31488
8084,31424
8085,31552
8086,31744
8087,32064
8088,32640
8089,33152
8090,33664
8091,33984
8092,34240
8093,34432
8094,34560
8095,34624
8096,34624
8097,34624
8098,34688
8099,34624
8100,34368
8101,34176
8102,34048
8103,34048
8104,34176
8105,34240
8106,34112
8107,33984
8108,33920
8109,33920
8110,33984
8111,34112
8112,34240
8113,34304
8114,34368
8115,34432
8116,34432
8117,34496
8118,34560
8119,34624
8120,34560
8121,34432
8122,34432
8123,34496
8124,34560
8125,34560
8126,34688
8127,34816
8128,34880
8129,34944
8130,35072
8131,35264
8132,35392
8133,35328
8134,35200
8135,35008
8136,34880
8137,34816
8138,34880
8139,35008
8140,34880
8141,34752
8142,34688
8143,34624
8144,34624
8145,34560
8146,34496
8147,34432
8148,34304
8149,34112
8150,33984
8151,34048
8152,34112
8153,34112
8154,34048
8155,33984
8156,33920
8157,33856
8158,33792
8159,33792
8160,33856
8161,33856
8162,33856
8163,33856
8164,33920
8165,33984
8166,34048
8167,34048
8168,34112
8169,34176
8170,34240
8171,34176
8172,34176
8173,34176
8174,34240
8175,34176
8176,34240
8177,34304
8178,34240
8179,34112
8180,33984
8181,33920
8182,33920
8183,33984
8184,34048
8185,34112
8186,34176
8187,34112
8188,34048
8189,34112
8190,34176
8191,34304
8192,34560
8193,34624
8194,34560
8195,34304
8196,34176
8197,34240
8198,34304
8199,34304
8200,34304
8201,34432
8202,34752
8203,34944
8204,35072
8205,35072
8206,34944
8207,34752
8208,34624
8209,34624
8210,34752
8211,34688
8212,34496
8213,34176
8214,33984
8215,33792
8216,33536
8217,33216
8218,33088
8219,33152
8220,33344
8221,33472
8222,33600
8223,33664
8224,33728
8225,33856
8226,34176
8227,34304
8228,34176
8229,33920
8230,33664
8231,33600
8232,33664
8233,33728
8234,33792
8235,33920
8236,33920
8237,33984
8238,33984
8239,34112
8240,34112
8241,34112
8242,34304
8243,34880
8244,35520
8245,36416
8246,37504
8247,38784
8248,38848
8249,37504
8250,35456
8251,33408
8252,31872
8253,31040
8254,30592
8255,30528
8256,30784
8257,31360
8258,32192
8259,32896
8260,33472
8261,33920
8262,34240
8263,34496
8264,34688
8265,34816
8266,34752
8267,34752
8268,34688
8269,34752
8270,34752
8271,34560
8272,34304
8273,34176
8274,34112
8275,34112
8276,34112
8277,34240
8278,34368
8279,34304
8280,34176
8281,33984
8282,33792
8283,33792
8284,33920
8285,34048
8286,34240
8287,34368
8288,34560
8289,34560
8290,34496
8291,34368
8292,34368
8293,34560
8294,34752
8295,34944
8296,35008
8297,34944
8298,34944
8299,34880
8300,34944
8301,35008
8302,35008
8303,34944
8304,34880
8305,34944
8306,34944
8307,35072
8308,35072
8309,35200
8310,35200
8311,35136
8312,34880
8313,34624
8314,34496
8315,34432
8316,34304
8317,34240
8318,34240
8319,34240
8320,34176
8321,34048
8322,34048
8323,34048
8324,34048
8325,33856
8326,33728
8327,33728
8328,33664
8329,33664
8330,33664
8331,33664
8332,33664
8333,33600
8334,33664
8335,33728
8336,33792
8337,33792
8338,33792
8339,33792
8340,33920
8341,34112
8342,34304
8343,34176
8344,33984
8345,33856
8346,33856
8347,33856
8348,33792
8349,33728
8350,33728
8351,33728
8352,33792
8353,33856
8354,33856
8355,33920
8356,33984
8357,33984
8358,33920
8359,33920
8360,33920
8361,33984
8362,33984
8363,33920
8364,33856
8365,33792
8366,33792
8367,33728
8368,33792
8369,33792
8370,33792
8371,33792
8372,33856
8373,33984
8374,34112
8375,34176
8376,34176
8377,34240
8378,34240
8379,34240
8380,34432
8381,34688
8382,34816
8383,34880
8384,34880
8385,34752
8386,34560
8387,34432
8388,34304
8389,34112
8390,34048
8391,33856
8392,33536
8393,33280
8394,33152
8395,33152
8396,33216
8397,33344
8398,33472
8399,33536
8400,33536
8401,33536
8402,33536
8403,33536
8404,33536
8405,33600
8406,33728
8407,33792
8408,33728
8409,33728
8410,33856
8411,33920
8412,33856
8413,33856
8414,33792
8415,33856
8416,33856
8417,33792
8418,33664
8419,33792
8420,34240
8421,34816
8422,35520
8423,36544
8424,37824
8425,39296
8426,39488
8427,38016
8428,35712
8429,33344
8430,31680
8431,30656
8432,30016
8433,29888
8434,30336
8435,31168
8436,32064
8437,32960
8438,33664
8439,34240
8440,34560
8441,34752
8442,34816
8443,34944
8444,34880
8445,34624
8446,34432
8447,34304
8448,34304
8449,34240
8450,34240
8451,34176
8452,34240
8453,34304
8454,34240
8455,34112
8456,33984
8457,33856
8458,33856
8459,33920
8460,34048
8461,34176
8462,34176
8463,34304
8464,34496
8465,34560
8466,34496
8467,34432
8468,34432
8469,34560
8470,34688
8471,34752
8472,34816
8473,34880
8474,34752
8475,34624
8476,34688
8477,34816
8478,34880
8479,34880
8480,34944
8481,35008
8482,35136
8483,35328
8484,35328
8485,35264
8486,35072
8487,34880
8488,34880
8489,34880
8490,34880
8491,34752
8492,34624
8493,34432
8494,34304
8495,34176
8496,34112
8497,34112
8498,34176
8499,34176
8500,34048
8501,33920
8502,33920
8503,33856
8504,33856
8505,33856
8506,33792
8507,33664
8508,33600
8509,33600
8510,33664
8511,33664
8512,33728
8513,33792
8514,33792
8515,33728
8516,33728
8517,33792
8518,33856
8519,33984
8520,34112
8521,34112
8522,34048
8523,34048
8524,34048
8525,34048
8526,33984
8527,33856
8528,33728
8529,33664
8530,33728
8531,33856
8532,33984
8533,34112
8534,34112
8535,34112
8536,33984
8537,33792
8538,33664
8539,33664
8540,33728
8541,33856
8542,33856
8543,33920
8544,33920
8545,33856
8546,33728
8547,33728
8548,33792
8549,33792
8550,33792
8551,33792
8552,33856
8553,33856
8554,33920
8555,33920
8556,33920
8557,33920
8558,33920
8559,34048
8560,34048
8561,33984
8562,33856
8563,33856
8564,33856
8565,33856
8566,33792
8567,33792
8568,33856
8569,33856
8570,33984
8571,34048
8572,34112
8573,34240
8574,34176
8575,34048
8576,34048
8577,34112
8578,34112
8579,33984
8580,33920
8581,34048
8582,34176
8583,34304
8584,34432
8585,34624
8586,34752
8587,34688
8588,34560
8589,34496
8590,34496
8591,34496
8592,34432
8593,34368
8594,34432
8595,34432
8596,34304
8597,33984
8598,33600
8599,33344
8600,33152
8601,33152
8602,33216
8603,33280
8604,33280
8605,33344
8606,33472
8607,33664
8608,33792
8609,33920
8610,33984
8611,34112
8612,34112
8613,33984
8614,33856
8615,33792
8616,33728
8617,33664
8618,33600
8619,33600
8620,33728
8621,33728
8622,33792
8623,33792
8624,33920
8625,34304
8626,34880
8627,35840
8628,37056
8629,38528
8630,39680
8631,39104
8632,37248
8633,34944
8634,32768
8635,31296
8636,30400
8637,30016
8638,30080
8639,30528
8640,31360
8641,32256
8642,33152
8643,33856
8644,34368
8645,34688
8646,34752
8647,34752
8648,34624
8649,34496
8650,34368
8651,34304
8652,34176
8653,34048
8654,34048
8655,34112
8656,34176
8657,34240
8658,34112
8659,34048
8660,33920
8661,33920
8662,33920
8663,33920
8664,33984
8665,34048
8666,34112
8667,34176
8668,34304
8669,34368
8670,34368
8671,34368
8672,34432
8673,34432
8674,34496
8675,34496
8676,34560
8677,34624
8678,34624
8679,34688
8680,34752
8681,34880
8682,34880
8683,34816
8684,34880
8685,34944
8686,35072
8687,35072
8688,35008
8689,35008
8690,35072
8691,35072
8692,35136
8693,35200
8694,35200
8695,35072
8696,34944
8697,34752
8698,34624
8699,34432
8700,34368
8701,34304
8702,34240
8703,34176
8704,34176
8705,34048
8706,33984
8707,33856
8708,33728
8709,33728
8710,33792
8711,33856
8712,33792
8713,33664
8714,33664
8715,33728
8716,33856
8717,33920
8718,33984
8719,33920
8720,33856
8721,33792
8722,33728
8723,33728
8724,33792
8725,33792
8726,33792
8727,33920
8728,34048
8729,34048
8730,33920
8731,33920
8732,33920
8733,33856
8734,33920
8735,34048
8736,34048
8737,33920
8738,33792
8739,33856
8740,34048
8741,34112
8742,33984
8743,33920
8744,33920
8745,33856
8746,33792
8747,33728
8748,33664
8749,33728
8750,33856
8751,33984
8752,34048
8753,34112
8754,34176
8755,34176
8756,34112
8757,34048
8758,33984
8759,33920
8760,33920
8761,33792
8762,33728
8763,33792
8764,34048
8765,34048
8766,34112
8767,34112
8768,34112
8769,34048
8770,34048
8771,33984
8772,34112
8773,34048
8774,33856
8775,33920
8776,34112
8777,34112
8778,34112
8779,33984
8780,33856
8781,33792
8782,33792
8783,33792
8784,33856
8785,34048
8786,33984
8787,34176
8788,34112
8789,34048
8790,33920
8791,33792
8792,33856
8793,33920
8794,34112
8795,34176
8796,34240
8797,34240
8798,34112
8799,33984
8800,33856
8801,33984
8802,34112
8803,34240
8804,34432
8805,34624
8806,34816
8807,34816
8808,34816
8809,34688
8810,34560
8811,34432
8812,34432
8813,34560
8814,34624
8815,34624
8816,34560
8817,34496
8818,34496
8819,34368
8820,34176
8821,34048
8822,34048
8823,34048
8824,33792
8825,33472
8826,33280
8827,33344
8828,33472
8829,33664
8830,33856
8831,33856
8832,33920
8833,34048
8834,34112
8835,34112
8836,34112
8837,34176
8838,34176
8839,34176
8840,34176
8841,34112
8842,33856
8843,33664
8844,33600
8845,33664
8846,33856
8847,34240
8848,34880
8849,35648
8850,36672
8851,37760
8852,38976
8853,39168
8854,37824
8855,35648
8856,33536
8857,32000
8858,31104
8859,30656
8860,30656
8861,30976
8862,31616
8863,32256
8864,32896
8865,33472
8866,33984
8867,34368
8868,34688
8869,34816
8870,34752
8871,34560
8872,34368
8873,34368
8874,34368
8875,34304
8876,34240
8877,33984
8878,33984
8879,33984
8880,34112
8881,34112
8882,34112
8883,34048
8884,33920
8885,33856
8886,33856
8887,33920
8888,33984
8889,34048
8890,34176
8891,34240
8892,34240
8893,34240
8894,34240
8895,34368
8896,34432
8897,34496
8898,34496
8899,34496
8900,34496
8901,34688
8902,34752
8903,34624
8904,34432
8905,34432
8906,34432
8907,34688
8908,34816
8909,34880
8910,35008
8911,35008
8912,34944
8913,34816
8914,34752
8915,34752
8916,34688
8917,34752
8918,34752
8919,34752
8920,34624
8921,34560
8922,34368
8923,34176
8924,34112
8925,33984
8926,33920
8927,33920
8928,33984
8929,33920
8930,33920
8931,33856
8932,33920
8933,33920
8934,33792
8935,33600
8936,33536
8937,33472
8938,33472
8939,33536
8940,33600
8941,33664
8942,33792
8943,33856
8944,33856
8945,33920
8946,33984
8947,33920
8948,33792
8949,33664
8950,33728
8951,33792
8952,33856
8953,33920
8954,33984
8955,34048
8956,34112
8957,33984
8958,33856
8959,33728
8960,33728
8961,33792
8962,33792
8963,33856
8964,33920
8965,33920
8966,33856
8967,33920
8968,33984
8969,34112
8970,34240
8971,34304
8972,34368
8973,34304
8974,34176
8975,33920
8976,33728
8977,33728
8978,33728
8979,33792
8980,33856
8981,33856
8982,33920
8983,33920
8984,33984
8985,33984
8986,34048
8987,34048
8988,33984
8989,33984
8990,33920
8991,33920
8992,33920
8993,33984
8994,33920
8995,33856
8996,33792
8997,33984
8998,33920
8999,33856
9000,33856
9001,33920
9002,33920
9003,33856
9004,33856
9005,33920
9006,33984
9007,34048
9008,34048
9009,34112
9010,34112
9011,33984
9012,33920
9013,33984
9014,34176
9015,34240
9016,34176
9017,34048
9018,34048
9019,34112
9020,34112
9021,34176
9022,34240
9023,34368
9024,34432
9025,34496
9026,34496
9027,34624
9028,34624
9029,34624
9030,34624
9031,34624
9032,34560
9033,34496
9034,34432
9035,34432
9036,34368
9037,34240
9038,34048
9039,33920
9040,33728
9041,33600
9042,33472
9043,33600
9044,33728
9045,33792
9046,33920
9047,34112
9048,34240
9049,34176
9050,33984
9051,33856
9052,33920
9053,33920
9054,33920
9055,33920
9056,33984
9057,34112
9058,34240
9059,34240
9060,34112
9061,34048
9062,34048
9063,34112
9064,34432
9065,35008
9066,35584
9067,36288
9068,37184
9069,38400
9070,38720
9071,38400
9072,35776
9073,33728
9074,32256
9075,31552
9076,31296
9077,31296
9078,31488
9079,31744
9080,32128
9081,32768
9082,33408
9083,33984
9084,34432
9085,34880
9086,34880
9087,35008
9088,35072
9089,35008
9090,34880
9091,34624
9092,34368
9093,34240
9094,34240
9095,34304
9096,34304
9097,34240
9098,34176
9099,34048
9100,34112
9101,34048
9102,34368
9103,34368
9104,34304
9105,34368
9106,34496
9107,34560
9108,34496
9109,34432
9110,34304
9111,34240
9112,34176
9113,34304
9114,34496
9115,34560
9116,34688
9117,34816
9118,34944
9119,34944
9120,35072
9121,35200
9122,35264
9123,35200
9124,35072
9125,34944
9126,34944
9127,35008
9128,35072
9129,35072
9130,35072
9131,35072
9132,35072
9133,35008
9134,34880
9135,34816
9136,34752
9137,34752
9138,34688
9139,34688
9140,34624
9141,34624
9142,34624
9143,34560
9144,34368
9145,34048
9146,33984
9147,33856
9148,33792
9149,33792
9150,33728
9151,33728
9152,33856
9153,33856
9154,33792
9155,33728
9156,33792
9157,33856
9158,33856
9159,33920
9160,34048
9161,34048
9162,34112
9163,34048
9164,34048
9165,34048
9166,34048
9167,34176
9168,34304
9169,34112
9170,33984
9171,33920
9172,33984
9173,33984
9174,33984
9175,33984
9176,33920
9177,33984
9178,33984
9179,33984
9180,34048
9181,34240
9182,34240
9183,34176
9184,34176
9185,34176
9186,34112
9187,34048
9188,34048
9189,33984
9190,33920
9191,34048
9192,34112
9193,34176
9194,34176
9195,34048
9196,33920
9197,33920
9198,33920
9199,33984
9200,34048
9201,34048
9202,33920
9203,33856
9204,33792
9205,33920
9206,33856
9207,33984
9208,33984
9209,33984
9210,33984
9211,33984
9212,34048
9213,34112
9214,34112
9215,34048
9216,33984
9217,33984
9218,34048
9219,34112
9220,34048
9221,33984
9222,33920
9223,33920
9224,33856
9225,33792
9226,33792
9227,33856
9228,33984
9229,34048
9230,34240
9231,34240
9232,34176
9233,34048
9234,33984
9235,34048
9236,33984
9237,34048
9238,34112
9239,34304
9240,34432
9241,34560
9242,34560
9243,34432
9244,34240
9245,34048
9246,34176
9247,34432
9248,34560
9249,34560
9250,34496
9251,34496
9252,34560
9253,34496
9254,34368
9255,34304
9256,34240
9257,34176
9258,34048
9259,33984
9260,33984
9261,33856
9262,33728
9263,33664
9264,33664
9265,33728
9266,33728
9267,33728
9268,33856
9269,34048
9270,34048
9271,33792
9272,33664
9273,33600
9274,33664
9275,33728
9276,33856
9277,33984
9278,34048
9279,34112
9280,34112
9281,34112
9282,34112
9283,34176
9284,34304
9285,34624
9286,35136
9287,35840
9288,36928
9289,38336
9290,39680
9291,39360
9292,37504
9293,35136
9294,32960
9295,31040
9296,30848
9297,30400
9298,30720
9299,31168
9300,31744
9301,32448
9302,33152
9303,33792
9304,34304
9305,34560
9306,34752
9307,34944
9308,35008
9309,35008
9310,34752
9311,34560
9312,34368
9313,34304
9314,34240
9315,34240
9316,34304
9317,34368
9318,34304
9319,34176
9320,34048
9321,34048
9322,34176
9323,34304
9324,34304
9325,34368
9326,34432
9327,34496
9328,34432
9329,34368
9330,34496
9331,34560
9332,34496
9333,34432
9334,34368
9335,34496
9336,34688
9337,34816
9338,34752
9339,34688
9340,34688
9341,34752
9342,34880
9343,35072
9344,35264
9345,35264
9346,35200
9347,35200
9348,35200
9349,35328
9350,35456
9351,35392
9352,35136
9353,34880
9354,34752
9355,34752
9356,34688
9357,34688
9358,34688
9359,34688
9360,34688
9361,34560
9362,34496
9363,34368
9364,34240
9365,34112
9366,33920
9367,33856
9368,33856
9369,33920
9370,33920
9371,33856
9372,33728
9373,33600
9374,33536
9375,33664
9376,33792
9377,33792
9378,33856
9379,33856
9380,33856
9381,33856
9382,33728
9383,33792
9384,33856
9385,33920
9386,33856
9387,33856
9388,33856
9389,33856
9390,33856
9391,33920
9392,33984
9393,34048
9394,34048
9395,33984
9396,33984
9397,33920
9398,33856
9399,33664
9400,33728
9401,33728
9402,33920
9403,33920
9404,33920
9405,33984
9406,34048
9407,33984
9408,33920
9409,33920
9410,33984
9411,34048
9412,33984
9413,33920
9414,33856
9415,33792
9416,33728
9417,33728
9418,33920
9419,33984
9420,33856
9421,33792
9422,33792
9423,33920
9424,33920
9425,33920
9426,33920
9427,33984
9428,33984
9429,33984
9430,34176
9431,34112
9432,34240
9433,34048
9434,33856
9435,33728
9436,33600
9437,33600
9438,33664
9439,33792
9440,33856
9441,33856
9442,33920
9443,34048
9444,34112
9445,34112
9446,34048
9447,34048
9448,34048
9449,34112
9450,34112
9451,34048
9452,33920
9453,33728
9454,33664
9455,33664
9456,33792
9457,33920
9458,34176
9459,34368
9460,34496
9461,34432
9462,34496
9463,34624
9464,34688
9465,34688
9466,34624
9467,34624
9468,34752
9469,34816
9470,34560
9471,34240
9472,34048
9473,33920
9474,33920
9475,33856
9476,33856
9477,33792
9478,33728
9479,33664
9480,33664
9481,33664
9482,33664
9483,33792
9484,33856
9485,33856
9486,33792
9487,34048
9488,34176
9489,33984
9490,33600
9491,33472
9492,33472
9493,33664
9494,33792
9495,33920
9496,34048
9497,34112
9498,34176
9499,34112
9500,33984
9501,33856
9502,33984
9503,34304
9504,34880
9505,36416
9506,36608
9507,38272
9508,39488
9509,39232
9510,37440
9511,35072
9512,32832
9513,31424
9514,30720
9515,30400
9516,30400
9517,30784
9518,31488
9519,32320
9520,33088
9521,33600
9522,34112
9523,34560
9524,34816
9525,35008
9526,35072
9527,34944
9528,34752
9529,34560
9530,34368
9531,34112
9532,33920
9533,33920
9534,33984
9535,34112
9536,34240
9537,34240
9538,34176
9539,34176
9540,34112
9541,33984
9542,33984
9543,34048
9544,34240
9545,34496
9546,34624
9547,34496
9548,34368
9549,34304
9550,34304
9551,34432
9552,34560
9553,34688
9554,34688
9555,34624
9556,34688
9557,34688
9558,34688
9559,34752
9560,34880
9561,35008
9562,35008
9563,34944
9564,34944
9565,35072
9566,35136
9567,35264
9568,35328
9569,35328
9570,35200
9571,35008
9572,34816
9573,34752
9574,34688
9575,34688
9576,34688
9577,34624
9578,34560
9579,34496
9580,34496
9581,34432
9582,34240
9583,33984
9584,33728
9585,33600
9586,33664
9587,33728
9588,33792
9589,33792
9590,33728
9591,33728
9592,33792
9593,33920
9594,33920
9595,33856
9596,33856
9597,33792
9598,33728
9599,33728
9600,33792
9601,33856
9602,33856
9603,33792
9604,33792
9605,33920
9606,34112
9607,34048
9608,33856
9609,33792
9610,33792
9611,33792
9612,33856
9613,33920
9614,33984
9615,33984
9616,33920
9617,33984
9618,34112
9619,34112
9620,33984
9621,33856
9622,33984
9623,34048
9624,33984
9625,33920
9626,33792
9627,33664
9628,33664
9629,33792
9630,33856
9631,33856
9632,33920
9633,33856
9634,33856
9635,33920
9636,33984
9637,34048
9638,34112
9639,34112
9640,34112
9641,34048
9642,33984
9643,33920
9644,33856
9645,33792
9646,33856
9647,33792
9648,33728
9649,33664
9650,33728
9651,33856
9652,34048
9653,34112
9654,34176
9655,34176
9656,34048
9657,33856
9658,33728
9659,33728
9660,33792
9661,33920
9662,33856
9663,33920
9664,34112
9665,34112
9666,33920
9667,33664
9668,33600
9669,33728
9670,33792
9671,33984
9672,34112
9673,34112
9674,34048
9675,33984
9676,34176
9677,34368
9678,34496
9679,34496
9680,34368
9681,34304
9682,34240
9683,34304
9684,34432
9685,34496
9686,34496
9687,34368
9688,34368
9689,34432
9690,34496
9691,34368
9692,34240
9693,34240
9694,34240
9695,34176
9696,33984
9697,33664
9698,33408
9699,33344
9700,33344
9701,33472
9702,33536
9703,33664
9704,33792
9705,33920
9706,33920
9707,33856
9708,33856
9709,33856
9710,33856
9711,33920
9712,33984
9713,33984
9714,33984
9715,33920
9716,33856
9717,33728
9718,33664
9719,33792
9720,33920
9721,34176
9722,34496
9723,35072
9724,35904
9725,36992
9726,38272
9727,39168
9728,38336
9729,36416
9730,34176
9731,32384
9732,31360
9733,30848
9734,30656
9735,30784
9736,31360
9737,32000
9738,32704
9739,33280
9740,33792
9741,34240
9742,34560
9743,34816
9744,34880
9745,34752
9746,34560
9747,34432
9748,34304
9749,34176
9750,34048
9751,33984
9752,33984
9753,33984
9754,33984
9755,34048
9756,34112
9757,34176
9758,34048
9759,33920
9760,33984
9761,34112
9762,34176
9763,34176
9764,34240
9765,34304
9766,34368
9767,34304
9768,34304
9769,34368
9770,34368
9771,34432
9772,34496
9773,34496
9774,34432
9775,34432
9776,34496
9777,34688
9778,34816
9779,34944
9780,35008
9781,35008
9782,34944
9783,34880
9784,34944
9785,35136
9786,35136
9787,35008
9788,35008
9789,35072
9790,35008
9791,34688
9792,34496
9793,34496
9794,34560
9795,34560
9796,34496
9797,34432
9798,34368
9799,34240
9800,34112
9801,34112
9802,34176
9803,34176
9804,34048
9805,33792
9806,33536
9807,33408
9808,33344
9809,33472
9810,33600
9811,33728
9812,33856
9813,33856
9814,33920
9815,33856
9816,33664
9817,33664
9818,33728
9819,33664
9820,33664
9821,33856
9822,33984
9823,33984
9824,33920
9825,33920
9826,33920
9827,33856
9828,33856
9829,33792
9830,33792
9831,33792
9832,33792
9833,33792
9834,33728
9835,33792
9836,33792
9837,33856
9838,33920
9839,34112
9840,34240
9841,34176
9842,34112
9843,34112
9844,34112
9845,33984
9846,33856
9847,33728
9848,33664
9849,33664
9850,33792
9851,33984
9852,34112
9853,34112
9854,33984
9855,33856
9856,33792
9857,33856
9858,33920
9859,33984
9860,33984
9861,33920
9862,33920
9863,33920
9864,33984
9865,33984
9866,33920
9867,33920
9868,33920
9869,33920
9870,33856
9871,33856
9872,34048
9873,34112
9874,34112
9875,34176
9876,34240
9877,34304
9878,34304
9879,34432
9880,34624
9881,34752
9882,34752
9883,34752
9884,34624
9885,34560
9886,34496
9887,34496
9888,34432
9889,34240
9890,33984
9891,33728
9892,33600
9893,33600
9894,33536
9895,33344
9896,33280
9897,33408
9898,33536
9899,33600
9900,33600
9901,33664
9902,33792
9903,33984
9904,34112
9905,34112
9906,33984
9907,33920
9908,33984
9909,34112
9910,34048
9911,33856
9912,33792
9913,33728
9914,33792
9915,33856
9916,33856
9917,34112
9918,34432
9919,34944
9920,35584
9921,36288
9922,37184
9923,38336
9924,38464
9925,37120
9926,35200
9927,33600
9928,32448
9929,31744
9930,31488
9931,31488
9932,31744
9933,31936
9934,32384
9935,32896
9936,33408
9937,33856
9938,34240
9939,34496
9940,34624
9941,34624
9942,34688
9943,34688
9944,34816
9945,34816
9946,34816
9947,34688
9948,34432
9949,34240
9950,34176
9951,34176
9952,34176
9953,34048
9954,34048
9955,34176
9956,34304
9957,34304
9958,34304
9959,34304
9960,34432
9961,34432
9962,34496
9963,34560
9964,34624
9965,34688
9966,34688
9967,34560
9968,34496
9969,34496
9970,34560
9971,34752
9972,35008
9973,35136
9974,35136
9975,34944
9976,34880
9977,34880
9978,34944
9979,35008
9980,35136
9981,35200
9982,35136
9983,35136
9984,35200
9985,35200
9986,35136
9987,34944
9988,34880
9989,34880
9990,34944
9991,34944
9992,34880
9993,34752
9994,34496
9995,34304
9996,34240
9997,34240
9998,34240
9999,34048
10000,33856
10001,33792
10002,33728
10003,33792
10004,33856
10005,33920
10006,34048
10007,34048
10008,34048
10009,34048
10010,33984
10011,33920
10012,33920
10013,33984
10014,34112
10015,34112
10016,33920
10017,33856
10018,33920
10019,33984
10020,33984
10021,33984
10022,34048
10023,34048
10024,34112
10025,34240
10026,34304
10027,34304
10028,34112
10029,33984
10030,34048
10031,34112
10032,34176
10033,33984
10034,33856
10035,33856
10036,34048
10037,34112
10038,34112
10039,34112
10040,34112
10041,34112
10042,34112
10043,34112
10044,34240
10045,34368
10046,34496
10047,34368
10048,34112
10049,33984
10050,33920
10051,33856
10052,33856
10053,33920
10054,33920
10055,33920
10056,33984
10057,33984
10058,33984
10059,34048
10060,34240
10061,34432
10062,34496
10063,34496
10064,34432
10065,34304
10066,34368
10067,34688
10068,34944
10069,35008
10070,34944
10071,34816
10072,34688
10073,34560
10074,34496
10075,34432
10076,34304
10077,34304
10078,34304
10079,34048
10080,33856
10081,33664
10082,33536
10083,33472
10084,33408
10085,33344
10086,33472
10087,33600
10088,33728
10089,33856
10090,33792
10091,33728
10092,33728
10093,33792
10094,33920
10095,34112
10096,34304
10097,34368
10098,34176
10099,33920
10100,33728
10101,33728
10102,33728
10103,33792
10104,33856
10105,34048
10106,34496
10107,34944
10108,35456
10109,36160
10110,37056
10111,38336
10112,39104
10113,38208
10114,36288
10115,34112
10116,32384
10117,31360
10118,30848
10119,30720
10120,30912
10121,31296
10122,32000
10123,32768
10124,33472
10125,34112
10126,34496
10127,34752
10128,34880
10129,35008
10130,35072
10131,34880
10132,34560
10133,34304
10134,34112
10135,34048
10136,34112
10137,34176
10138,34304
10139,34368
10140,34304
10141,34240
10142,34240
10143,34176
10144,34240
10145,34304
10146,34368
10147,34432
10148,34368
10149,34240
10150,34176
10151,34240
10152,34304
10153,34368
10154,34496
10155,34496
10156,34496
10157,34624
10158,34816
10159,34944
10160,35072
10161,35136
10162,35072
10163,34880
10164,34880
10165,35008
10166,35072
10167,35072
10168,35072
10169,35008
10170,35008
10171,35072
10172,35136
10173,35200
10174,35200
10175,35072
10176,35008
10177,35008
10178,35008
10179,35072
10180,35008
10181,34944
10182,34624
10183,34368
10184,34048
10185,33920
10186,33856
10187,33856
10188,33856
10189,33856
10190,33792
10191,33792
10192,33792
10193,33856
10194,33856
10195,33920
10196,33984
10197,34048
10198,34112
10199,34240
10200,34176
10201,33984
10202,33792
10203,33664
10204,33664
10205,33792
10206,33856
10207,33984
10208,34048
10209,34048
10210,34112
10211,34176
10212,34112
10213,33984
10214,33984
10215,34112
10216,34176
10217,34240
10218,34240
10219,34176
10220,33984
10221,33856
10222,33792
10223,33856
10224,33984
10225,34112
10226,34176
10227,34304
10228,34240
10229,34048
10230,33920
10231,33920
10232,34112
10233,34304
10234,34304
10235,34176
10236,34048
10237,33920
10238,33920
10239,33984
10240,34048
10241,33984
10242,34048
10243,34112
10244,34112
10245,34048
10246,34048
10247,34112
10248,34112
10249,33984
10250,33984
10251,34048
10252,34112
10253,34048
10254,34048
10255,34048
10256,34176
10257,34304
10258,34432
10259,34624
10260,34752
10261,34880
10262,34880
10263,34880
10264,34880
10265,34880
10266,34752
10267,34624
10268,34560
10269,34496
10270,34432
10271,34304
10272,34240
10273,34048
10274,33856
10275,33664
10276,33600
10277,33536
10278,33472
10279,33536
10280,33792
10281,33984
10282,33920
10283,33728
10284,33664
10285,33728
10286,33856
10287,33920
10288,33920
10289,34048
10290,34176
10291,34112
10292,33984
10293,33920
10294,33984
10295,34048
10296,33984
10297,33984
10298,34048
10299,34112
10300,34304
10301,34624
10302,35264
10303,36096
10304,37248
10305,38784
10306,39744
10307,38912
10308,36800
10309,34368
10310,32448
10311,31296
10312,30656
10313,30528
10314,30848
10315,31360
10316,31936
10317,32512
10318,33152
10319,33856
10320,34496
10321,34944
10322,35072
10323,34880
10324,34752
10325,34688
10326,34624
10327,34560
10328,34432
10329,34304
10330,34240
10331,34304
10332,34368
10333,34304
10334,34240
10335,34240
10336,34240
10337,34240
10338,34304
10339,34368
10340,34368
10341,34432
10342,34368
10343,34368
10344,34432
10345,34496
10346,34496
10347,34496
10348,34496
10349,34560
10350,34624
10351,34688
10352,34816
10353,34880
10354,34944
10355,34944
10356,34944
10357,35072
10358,35136
10359,35200
10360,35264
10361,35264
10362,35200
10363,35200
10364,35200
10365,35264
10366,35264
10367,35200
10368,35264
10369,35200
10370,35072
10371,34944
10372,34944
10373,35008
10374,35008
10375,34880
10376,34624
10377,34432
10378,34368
10379,34240
10380,34112
10381,34048
10382,33984
10383,33856
10384,33792
10385,33856
10386,33920
10387,33920
10388,33792
10389,33664
10390,33728
10391,33920
10392,34112
10393,34176
10394,34048
10395,33792
10396,33728
10397,33792
10398,33856
10399,33984
10400,33984
10401,33920
10402,33856
10403,33856
10404,33856
10405,33920
10406,33984
10407,34048
10408,34112
10409,34176
10410,34176
10411,34176
10412,34112
10413,33984
10414,33856
10415,33920
10416,34048
10417,34112
10418,34048
10419,33984
10420,34048
10421,34048
10422,34048
10423,34048
10424,33984
10425,33984
10426,33920
10427,33920
10428,33920
10429,33984
10430,34240
10431,34368
10432,34240
10433,33984
10434,33792
10435,33728
10436,33856
10437,33920
10438,33984
10439,34048
10440,34048
10441,33984
10442,34048
10443,34112
10444,34176
10445,34112
10446,34048
10447,34112
10448,34176
10449,34240
10450,34112
10451,33920
10452,33792
10453,33792
10454,33984
10455,34048
10456,34048
10457,33920
10458,33920
10459,33920
10460,33984
10461,33984
10462,34048
10463,34112
10464,34240
10465,34304
10466,34368
10467,34432
10468,34496
10469,34624
10470,34560
10471,34432
10472,34432
10473,34432
10474,34496
10475,34560
10476,34624
10477,34624
10478,34496
10479,34432
10480,34368
10481,34368
10482,34304
10483,34240
10484,34176
10485,34048
10486,33856
10487,33728
10488,33664
10489,33728
10490,33728
10491,33728
10492,33728
10493,33792
10494,33856
10495,33856
10496,33856
10497,33856
10498,33792
10499,33792
10500,33856
10501,33984
10502,34112
10503,34176
10504,34176
10505,34240
10506,34240
10507,34176
10508,34048
10509,33920
10510,33856
10511,34112
10512,34560
10513,35264
10514,36160
10515,37184
10516,38592
10517,39808
10518,39360
10519,37568
10520,35200
10521,33088
10522,31616
10523,30784
10524,30336
10525,30400
10526,30848
10527,31680
10528,32576
10529,33408
10530,34048
10531,34432
10532,34688
10533,34688
10534,34560
10535,34560
10536,34624
10537,34560
10538,34560
10539,34624
10540,34688
10541,34496
10542,34304
10543,34176
10544,34176
10545,34048
10546,34048
10547,34176
10548,34240
10549,34240
10550,34240
10551,34176
10552,34176
10553,34240
10554,34240
10555,34304
10556,34432
10557,34560
10558,34560
10559,34496
10560,34496
10561,34496
10562,34432
10563,34560
10564,34624
10565,34624
10566,34624
10567,34752
10568,34880
10569,34944
10570,35072
10571,35136
10572,35264
10573,35264
10574,35200
10575,35200
10576,35200
10577,35264
10578,35264
10579,35200
10580,35072
10581,34944
10582,34752
10583,34624
10584,34560
10585,34496
10586,34304
10587,34176
10588,34240
10589,34240
10590,34112
10591,34048
10592,34048
10593,34048
10594,33920
10595,33856
10596,33792
10597,33664
10598,33664
10599,33792
10600,33920
10601,33792
10602,33728
10603,33408
10604,33344
10605,33344
10606,33408
10607,33600
10608,33728
10609,33856
10610,33792
10611,33792
10612,33792
10613,33856
10614,33920
10615,33984
10616,33920
10617,33920
10618,33856
10619,33792
10620,33792
10621,33728
10622,33728
10623,33728
10624,33856
10625,34112
10626,34304
10627,34112
10628,33728
10629,33536
10630,33472
10631,33536
10632,33600
10633,33664
10634,33792
10635,33920
10636,34048
10637,34112
10638,34048
10639,33984
10640,33856
10641,33728
10642,33792
10643,33856
10644,33920
10645,34112
10646,34048
10647,33984
10648,33728
10649,33600
10650,33600
10651,33664
10652,33600
10653,33664
10654,33792
10655,33792
10656,33792
10657,33728
10658,33728
10659,33856
10660,33920
10661,33856
10662,33792
10663,33920
10664,34112
10665,34176
10666,34112
10667,33920
10668,33792
10669,33664
10670,33728
10671,33728
10672,33792
10673,33792
10674,33792
10675,33792
10676,33792
10677,33856
10678,34048
10679,34240
10680,34304
10681,34176
10682,34112
10683,34304
10684,34496
10685,34688
10686,34688
10687,34496
10688,34304
10689,34176
10690,34176
10691,34112
10692,34240
10693,34112
10694,34048
10695,33920
10696,33856
10697,33792
10698,33728
10699,33600
10700,33600
10701,33664
10702,33728
10703,33728
10704,33664
10705,33600
10706,33600
10707,33600
10708,33664
10709,33728
10710,33792
10711,33728
10712,33664
10713,33664
10714,33792
10715,33856
10716,33856
10717,33856
10718,33920
10719,33856
10720,33856
10721,33920
10722,34048
10723,34368
10724,34816
10725,35456
10726,36288
10727,37248
10728,38336
10729,38912
10730,37760
10731,35584
10732,33472
10733,32064
10734,31424
10735,31168
10736,31168
10737,31360
10738,31616
10739,32064
10740,32640
10741,33344
10742,33856
10743,34176
10744,34368
10745,34432
10746,34560
10747,34624
10748,34624
10749,34496
10750,34368
10751,34304
10752,34176
10753,34048
10754,33920
10755,33920
10756,33920
10757,33984
10758,34048
10759,34112
10760,34112
10761,34048
10762,33984
10763,34048
10764,34176
10765,34304
10766,34240
10767,34112
10768,34048
10769,34176
10770,34240
10771,34240
10772,34240
10773,34240
10774,34304
10775,34432
10776,34624
10777,34752
10778,34752
10779,34752
10780,34752
10781,34752
10782,34752
10783,34816
10784,34944
10785,34944
10786,34880
10787,34880
10788,34816
10789,34816
10790,34816
10791,34752
10792,34624
10793,34560
10794,34496
10795,34496
10796,34624
10797,34752
10798,34560
10799,34240
10800,34112
10801,34112
10802,34112
10803,34048
10804,33920
10805,33792
10806,33664
10807,33600
10808,33536
10809,33600
10810,33600
10811,33600
10812,33728
10813,33856
10814,33920
10815,33920
10816,33792
10817,33792
10818,33792
10819,33792
10820,33792
10821,33728
10822,33664
10823,33600
10824,33600
10825,33664
10826,33728
10827,33792
10828,33856
10829,33920
10830,33984
10831,34048
10832,34048
10833,34112
10834,34112
10835,33984
10836,33792
10837,33664
10838,33728
10839,33792
10840,33792
10841,33792
10842,33856
10843,33984
10844,34048
10845,34048
10846,33920
10847,33920
10848,33984
10849,34176
10850,34368
10851,34368
10852,34176
10853,33984
10854,33856
10855,33792
10856,33792
10857,33792
10858,33920
10859,34112
10860,34112
10861,33984
10862,33792
10863,33728
10864,33728
10865,33728
10866,33792
10867,33984
10868,34112
10869,33984
10870,33856
10871,33792
10872,33856
10873,34048
10874,34176
10875,34176
10876,34176
10877,34112
10878,34112
10879,34176
10880,34304
10881,34368
10882,34560
10883,34688
10884,34624
10885,34496
10886,34368
10887,34304
10888,34240
10889,34368
10890,34432
10891,34432
10892,34304
10893,34176
10894,34048
10895,33792
10896,33600
10897,33472
10898,33408
10899,33280
10900,33216
10901,33344
10902,33472
10903,33664
10904,33664
10905,33728
10906,33728
10907,33664
10908,33600
10909,33664
10910,33728
10911,33728
10912,33792
10913,33856
10914,33984
10915,34048
10916,33984
10917,33984
10918,33984
10919,33984
10920,33920
10921,34048
10922,34304
10923,34624
10924,35264
