,ECG
0,33088
1,33152
2,33280
3,33344
4,33344
5,33408
6,33344
7,33408
8,33600
9,33664
10,33600
11,33600
12,33600
13,33472
14,33344
15,33280
16,33344
17,33472
18,33664
19,33664
20,33728
21,33728
22,33600
23,33536
24,33536
25,33600
26,33920
27,34624
28,35712
29,36736
30,37312
31,36480
32,34880
33,33344
34,32384
35,32000
36,32000
37,32064
38,31936
39,32128
40,32576
41,32960
42,33216
43,33536
44,33856
45,34176
46,34368
47,34432
48,34496
49,34560
50,34496
51,34304
52,34176
53,34112
54,33920
55,33792
56,33728
57,33856
58,33920
59,34048
60,34112
61,34112
62,34048
63,34112
64,34176
65,34240
66,34240
67,34240
68,34176
69,34240
70,34368
71,34368
72,34304
73,34304
74,34368
75,34368
76,34368
77,34304
78,34304
79,34432
80,34560
81,34560
82,34624
83,34624
84,34560
85,34496
86,34496
87,34624
88,34624
89,34624
90,34752
91,34752
92,34688
93,34624
94,34624
95,34560
96,34496
97,34432
98,34432
99,34368
100,34240
101,34112
102,34048
103,33984
104,33920
105,33792
106,33728
107,33664
108,33536
109,33472
110,33600
111,33664
112,33664
113,33664
114,33728
115,33728
116,33728
117,33792
118,33792
119,33728
120,33664
121,33664
122,33664
123,33728
124,33856
125,33920
126,33856
127,33664
128,33664
129,33728
130,33728
131,33664
132,33728
133,33728
134,33664
135,33600
136,33664
137,33792
138,33728
139,33600
140,33600
141,33600
142,33728
143,33792
144,33856
145,33984
146,34048
147,33920
148,33792
149,33728
150,33728
151,33728
152,33792
153,33984
154,33984
155,33920
156,33984
157,34240
158,34560
159,34688
160,34688
161,34688
162,34432
163,34176
164,33920
165,33984
166,34048
167,33984
168,33664
169,33344
170,33216
171,33216
172,33152
173,33088
174,33088
175,33152
176,33152
177,33216
178,33408
179,33600
180,33600
181,33664
182,33792
183,33856
184,33792
185,33600
186,33600
187,33536
188,33472
189,33536
190,33664
191,33664
192,33728
193,33728
194,33728
195,33728
196,33664
197,33728
198,34112
199,34880
200,36032
201,36544
202,37312
203,37376
204,36224
205,34560
206,33216
207,32576
208,32256
209,31936
210,31872
211,32000
212,32128
213,32256
214,32512
215,33024
216,33344
217,33728
218,34112
219,34368
220,34496
221,34496
222,34368
223,34240
224,34176
225,33984
226,33792
227,33728
228,33792
229,33792
230,33792
231,33856
232,33920
233,33984
234,33920
235,33920
236,34048
237,34112
238,34176
239,34176
240,34240
241,34368
242,34240
243,34176
244,34112
245,34112
246,34176
247,34176
248,34304
249,34560
250,34752
251,34624
252,34368
253,34304
254,34432
255,34560
256,34624
257,34560
258,34560
259,34496
260,34368
261,34368
262,34432
263,34496
264,34560
265,34752
266,34880
267,34560
268,34368
269,34240
270,34112
271,33984
272,33856
273,33856
274,33856
275,33792
276,33792
277,33856
278,33856
279,33792
280,33664
281,33536
282,33536
283,33536
284,33600
285,33728
286,33792
287,33792
288,33728
289,33600
290,33728
291,33792
292,33728
293,33664
294,33600
295,33536
296,33472
297,33472
298,33664
299,33856
300,33856
301,33920
302,33984
303,34048
304,33984
305,33728
306,33664
307,33792
308,33920
309,34048
310,34112
311,34048
312,33920
313,33856
314,33856
315,33856
316,33856
317,33984
318,34176
319,34496
320,34880
321,34880
322,34752
323,34560
324,34432
325,34304
326,34304
327,34304
328,34304
329,34176
330,33856
331,33600
332,33472
333,33408
334,33344
335,33280
336,33216
337,33280
338,33280
339,33216
340,33216
341,33344
342,33344
343,33344
344,33472
345,33664
346,33664
347,33664
348,33600
349,33728
350,33728
351,33728
352,33664
353,33600
354,33600
355,33536
356,33472
357,33472
358,33536
359,33600
360,33856
361,34304
362,34944
363,35712
364,36608
365,37504
366,37760
367,36800
368,35136
369,33792
370,32896
371,32384
372,32064
373,31936
374,32000
375,32000
376,32128
377,32448
378,32832
379,33280
380,33728
381,33920
382,34112
383,34240
384,34240
385,34304
386,34432
387,34432
388,34304
389,34240
390,34176
391,34240
392,34240
393,34176
394,34176
395,34176
396,34240
397,34176
398,34112
399,34176
400,34176
401,34112
402,34048
403,34112
404,34176
405,34176
406,34112
407,34176
408,34240
409,34176
410,34240
411,34240
412,34368
413,34368
414,34368
415,34496
416,34624
417,34688
418,34624
419,34624
420,34624
421,34624
422,34560
423,34560
424,34624
425,34688
426,34560
427,34496
428,34432
429,34432
430,34368
431,34368
432,34368
433,34368
434,34240
435,34112
436,34112
437,34112
438,33984
439,33728
440,33664
441,33664
442,33728
443,33728
444,33792
445,33856
446,33856
447,33856
448,33920
449,34112
450,34112
451,33984
452,33792
453,33792
454,33856
455,33920
456,33920
457,34048
458,34048
459,33984
460,33920
461,34048
462,34176
463,34112
464,34048
465,33984
466,34048
467,34112
468,34176
469,34240
470,34240
471,34240
472,34240
473,34304
474,34304
475,34304
476,34240
477,34368
478,34496
479,34688
480,34752
481,34752
482,34688
483,34560
484,34432
485,34368
486,34368
487,34432
488,34368
489,34112
490,33920
491,33728
492,33536
493,33280
494,33216
495,33280
496,33344
497,33344
498,33472
499,33600
500,33728
501,33728
502,33728
503,33792
504,33792
505,33728
506,33728
507,33792
508,33856
509,33856
510,33856
511,33856
512,33920
513,33920
514,33984
515,33984
516,33920
517,33920
518,33920
519,34048
520,34368
521,34880
522,35456
523,36288
524,37120
525,38080
526,38080
527,36928
528,35392
529,33920
530,32512
531,32192
532,31872
533,31872
534,31872
535,32000
536,32320
537,32832
538,33216
539,33664
540,34048
541,34304
542,34432
543,34432
544,34368
545,34496
546,34432
547,34368
548,34304
549,34304
550,34304
551,34240
552,34176
553,34176
554,34176
555,34112
556,34112
557,34112
558,34112
559,34112
560,34176
561,34176
562,34176
563,34176
564,34176
565,34368
566,34432
567,34432
568,34432
569,34560
570,34624
571,34624
572,34624
573,34624
574,34688
575,34688
576,34688
577,34688
578,34752
579,34816
580,34816
581,34816
582,34816
583,34880
584,34816
585,34752
586,34816
587,34880
588,34880
589,34816
590,34688
591,34560
592,34432
593,34304
594,34176
595,34176
596,34112
597,33984
598,33856
599,33856
600,33856
601,33728
602,33664
603,33664
604,33728
605,33664
606,33664
607,33728
608,33856
609,33856
610,33792
611,33664
612,33664
613,33728
614,33728
615,33728
616,33792
617,33728
618,33664
619,33728
620,33984
621,33984
622,33984
623,33920
624,33920
625,33984
626,33856
627,33920
628,33984
629,34112
630,34112
631,34176
632,34240
633,34240
634,34240
635,34304
636,34304
637,34432
638,34496
639,34624
640,34752
641,34880
642,34816
643,34688
644,34560
645,34496
646,34496
647,34432
648,34368
649,34368
650,34240
651,34048
652,33792
653,33600
654,33472
655,33344
656,33344
657,33408
658,33408
659,33408
660,33408
661,33472
662,33600
663,33600
664,33600
665,33600
666,33664
667,33728
668,33792
669,33792
670,33856
671,33792
672,33728
673,33728
674,33792
675,33792
676,33728
677,33664
678,33792
679,33920
680,34176
681,34304
682,34816
683,35456
684,36160
685,37056
686,38144
687,38464
688,37376
689,35712
690,34048
691,32832
692,32064
693,31552
694,31424
695,31808
696,31872
697,32192
698,32640
699,33216
700,33728
701,34048
702,34304
703,34496
704,34496
705,34432
706,34432
707,34560
708,34496
709,34432
710,34368
711,34368
712,34368
713,34304
714,34240
715,34240
716,34304
717,34304
718,34240
719,34240
720,34368
721,34368
722,34304
723,34368
724,34432
725,34496
726,34432
727,34368
728,34496
729,34624
730,34624
731,34624
732,34624
733,34688
734,34688
735,34688
736,34816
737,34944
738,34880
739,34816
740,34816
741,34880
742,34880
743,34880
744,34880
745,34944
746,34944
747,34944
748,34944
749,34880
750,34816
751,34624
752,34496
753,34368
754,34368
755,34304
756,34240
757,34176
758,34112
759,33984
760,33856
761,33856
762,33920
763,33920
764,33856
765,33856
766,33920
767,33920
768,33856
769,33856
770,33920
771,33984
772,33920
773,33792
774,33728
775,33792
776,33792
777,33792
778,33856
779,33984
780,33984
781,33984
782,34048
783,34112
784,34048
785,33984
786,34048
787,34112
788,34048
789,33984
790,33984
791,34048
792,34048
793,34048
794,34112
795,34176
796,34240
797,34176
798,34048
799,33984
800,33920
801,33856
802,33920
803,34112
804,34304
805,34368
806,34304
807,34368
808,34368
809,34240
810,34176
811,34240
812,34496
813,34688
814,34752
815,34816
816,34752
817,34624
818,34560
819,34560
820,34496
821,34304
822,34240
823,33856
824,33600
825,33344
826,33152
827,33152
828,33088
829,33216
830,33280
831,33408
832,33664
833,33792
834,33856
835,33920
836,34048
837,34048
838,34048
839,33984
840,33920
841,33856
842,33728
843,33728
844,33792
845,33920
846,33856
847,33792
848,33792
849,33792
850,33728
851,33920
852,33920
853,34944
854,35648
855,36480
856,37504
857,38592
858,38528
859,37120
860,35200
861,33408
862,32192
863,31424
864,31104
865,31168
866,31424
867,31744
868,32256
869,32896
870,33472
871,33856
872,34240
873,34560
874,34688
875,34688
876,34624
877,34560
878,34496
879,34368
880,34304
881,34304
882,34304
883,34304
884,34304
885,34304
886,34304
887,34240
888,34176
889,34176
890,34240
891,34304
892,34304
893,34432
894,34560
895,34496
896,34304
897,34240
898,34304
899,34368
900,34368
901,34432
902,34560
903,34496
904,34752
905,34752
906,34752
907,35072
908,35008
909,34816
910,34816
911,34880
912,34944
913,34880
914,34880
915,34816
916,34816
917,34816
918,34752
919,34816
920,34752
921,34624
922,34560
923,34560
924,34624
925,34560
926,34496
927,34432
928,34304
929,34176
930,34048
931,34048
932,33984
933,33984
934,33792
935,33664
936,33664
937,33664
938,33600
939,33600
940,33664
941,33792
942,33792
943,33856
944,33920
945,33920
946,33920
947,33920
948,33984
949,34112
950,34112
951,34048
952,33984
953,33984
954,33920
955,33920
956,33920
957,33984
958,33856
959,33792
960,33856
961,34048
962,34176
963,34112
964,34112
965,34112
966,34176
967,34176
968,34112
969,34112
970,34176
971,34112
972,34048
973,33984
974,33984
975,33856
976,33856
977,33792
978,33728
979,33664
980,33664
981,33728
982,33856
983,33984
984,33984
985,33984
986,33920
987,33856
988,33792
989,33856
990,33920
991,33920
992,33920
993,33920
994,33920
995,33920
996,33856
997,33792
998,33920
999,33984
1000,33984
1001,33920
1002,33920
1003,33920
1004,33856
1005,33856
1006,33920
1007,34048
1008,34112
1009,34176
1010,34240
1011,34432
1012,34496
1013,34368
1014,34368
1015,34496
1016,34624
1017,34624
1018,34496
1019,34496
1020,34496
1021,34496
1022,34432
1023,34496
1024,34496
1025,34368
1026,34112
1027,33856
1028,33600
1029,33408
1030,33280
1031,33280
1032,33408
1033,33472
1034,33536
1035,33536
1036,33600
1037,33728
1038,33728
1039,33792
1040,33920
1041,33984
1042,33984
1043,33920
1044,33920
1045,33984
1046,33920
1047,33856
1048,33856
1049,33856
1050,33792
1051,33728
1052,33792
1053,33920
1054,34048
1055,34368
1056,34816
1057,35584
1058,36480
1059,37568
1060,38912
1061,39296
1062,38016
1063,35840
1064,33664
1065,32128
1066,31168
1067,30592
1068,30528
1069,30784
1070,31424
1071,32128
1072,32896
1073,33600
1074,34176
1075,34560
1076,34688
1077,34752
1078,34816
1079,34752
1080,34624
1081,34624
1082,34560
1083,34432
1084,34304
1085,34240
1086,34240
1087,34176
1088,34112
1089,34176
1090,34176
1091,34176
1092,34176
1093,34176
1094,34240
1095,34304
1096,34304
1097,34304
1098,34368
1099,34432
1100,34432
1101,34368
1102,34496
1103,34560
1104,34624
1105,34624
1106,34624
1107,34688
1108,34688
1109,34624
1110,34688
1111,34816
1112,34880
1113,34880
1114,34944
1115,35008
1116,35008
1117,34944
1118,35008
1119,35008
1120,35008
1121,34944
1122,34944
1123,34944
1124,34944
1125,34880
1126,34816
1127,34752
1128,34752
1129,34688
1130,34496
1131,34304
1132,34240
1133,34112
1134,33984
1135,33920
1136,33856
1137,33792
1138,33728
1139,33664
1140,33664
1141,33664
1142,33664
1143,33664
1144,33728
1145,33792
1146,33728
1147,33728
1148,33856
1149,33920
1150,33856
1151,33856
1152,33920
1153,33920
1154,33920
1155,33856
1156,33856
1157,33920
1158,33856
1159,33856
1160,33856
1161,33920
1162,33984
1163,33920
1164,33920
1165,33920
1166,33920
1167,33856
1168,33856
1169,33920
1170,33920
1171,33856
1172,33792
1173,33856
1174,33856
1175,33792
1176,33728
1177,33728
1178,33792
1179,33728
1180,33664
1181,33664
1182,33728
1183,33728
1184,33728
1185,33728
1186,33728
1187,33728
1188,33664
1189,33600
1190,33728
1191,33792
1192,33792
1193,33728
1194,33856
1195,33856
1196,33792
1197,33728
1198,33728
1199,33792
1200,33728
1201,33664
1202,33728
1203,33792
1204,33792
1205,33728
1206,33728
1207,33792
1208,33792
1209,33792
1210,33856
1211,33920
1212,33920
1213,33856
1214,33856
1215,33856
1216,33856
1217,33856
1218,33792
1219,33856
1220,33920
1221,33920
1222,33856
1223,33920
1224,33920
1225,33920
1226,33856
1227,33856
1228,33920
1229,33920
1230,33856
1231,33856
1232,33856
1233,33856
1234,33856
1235,33856
1236,33920
1237,33920
1238,33920
1239,33920
1240,33984
1241,34048
1242,33920
1243,33920
1244,33984
1245,33984
1246,33984
1247,34048
1248,34112
1249,34240
1250,34240
1251,34240
1252,34304
1253,34368
1254,34368
1255,34432
1256,34560
1257,34624
1258,34624
1259,34560
1260,34496
1261,34560
1262,34496
1263,34304
1264,34240
1265,34304
1266,34240
1267,34048
1268,33920
1269,33856
1270,33856
1271,33728
1272,33664
1273,33600
1274,33600
1275,33600
1276,33664
1277,33728
1278,33856
1279,33920
1280,33856
1281,33920
1282,33920
1283,33920
1284,33920
1285,33984
1286,34048
1287,34112
1288,33984
1289,33920
1290,33920
1291,33920
1292,33856
1293,33856
1294,33984
1295,34176
1296,34496
1297,35008
1298,35840
1299,36992
1300,38336
1301,39744
1302,39808
1303,38272
1304,35840
1305,33408
1306,31744
1307,30784
1308,30208
1309,30144
1310,30656
1311,31488
1312,32384
1313,33152
1314,33920
1315,34496
1316,34816
1317,34880
1318,34880
1319,34880
1320,34816
1321,34688
1322,34624
1323,34560
1324,34432
1325,34304
1326,34240
1327,34240
1328,34240
1329,34240
1330,34176
1331,34176
1332,34240
1333,34240
1334,34176
1335,34240
1336,34304
1337,34304
1338,34304
1339,34304
1340,34368
1341,34432
1342,34432
1343,34496
1344,34496
1345,34560
1346,34624
1347,34560
1348,34688
1349,34816
1350,34816
1351,34752
1352,34816
1353,34880
1354,34880
1355,34880
1356,34944
1357,35008
1358,35008
1359,35008
1360,34944
1361,34944
1362,34944
1363,34880
1364,34880
1365,34944
1366,34944
1367,34880
1368,34752
1369,34752
1370,34688
1371,34624
1372,34432
1373,34368
1374,34304
1375,34240
1376,34112
1377,33984
1378,33920
1379,33792
1380,33728
1381,33728
1382,33728
1383,33664
1384,33600
1385,33664
1386,33728
1387,33728
1388,33664
1389,33664
1390,33728
1391,33792
1392,33856
1393,33856
1394,33856
1395,33920
1396,33920
1397,33920
1398,33984
1399,33984
1400,33920
1401,33856
1402,33920
1403,33984
1404,33984
1405,33920
1406,33920
1407,33920
1408,33920
1409,33856
1410,33792
1411,33856
1412,33920
1413,33856
1414,33856
1415,33920
1416,33984
1417,33920
1418,33792
1419,33728
1420,33728
1421,33664
1422,33600
1423,33664
1424,33792
1425,33856
1426,33856
1427,33856
1428,33856
1429,33792
1430,33728
1431,33728
1432,33856
1433,33792
1434,33728
1435,33728
1436,33728
1437,33856
1438,33856
1439,33856
1440,33920
1441,33920
1442,33792
1443,33792
1444,33856
1445,33920
1446,33856
1447,33728
1448,33728
1449,33856
1450,33920
1451,33856
1452,33856
1453,33856
1454,33856
1455,33856
1456,33792
1457,33792
1458,33792
1459,33728
1460,33728
1461,33856
1462,33920
1463,33920
1464,33920
1465,33984
1466,33984
1467,33984
1468,33920
1469,33984
1470,34112
1471,34048
1472,33920
1473,33792
1474,33792
1475,33728
1476,33792
1477,33856
1478,34048
1479,34048
1480,33984
1481,33984
1482,34048
1483,34048
1484,34112
1485,34112
1486,34112
1487,34112
1488,33984
1489,33856
1490,33984
1491,33984
1492,33984
1493,33856
1494,33856
1495,33984
1496,34048
1497,34048
1498,34048
1499,34048
1500,34048
1501,34048
1502,34112
1503,34240
1504,34368
1505,34368
1506,34432
1507,34496
1508,34496
1509,34496
1510,34560
1511,34688
1512,34688
1513,34560
1514,34432
1515,34304
1516,34304
1517,34240
1518,34176
1519,34112
1520,34048
1521,33920
1522,33728
1523,33664
1524,33600
1525,33600
1526,33600
1527,33664
1528,33728
1529,33728
1530,33664
1531,33600
1532,33664
1533,33728
1534,33792
1535,33920
1536,33984
1537,33920
1538,33792
1539,33728
1540,33856
1541,33920
1542,33984
1543,33984
1544,34048
1545,34048
1546,33984
1547,33856
1548,33984
1549,34368
1550,34880
1551,35648
1552,36736
1553,38144
1554,39488
1555,39424
1556,37824
1557,35584
1558,33344
1559,31680
1560,30656
1561,30272
1562,30336
1563,30784
1564,31616
1565,32640
1566,33472
1567,34048
1568,34496
1569,34816
1570,35008
1571,35072
1572,34944
1573,34880
1574,34816
1575,34752
1576,34688
1577,34560
1578,34432
1579,34240
1580,34048
1581,34112
1582,34304
1583,34496
1584,34496
1585,34304
1586,34176
1587,34048
1588,33920
1589,33856
1590,34048
1591,34240
1592,34368
1593,34304
1594,34368
1595,34432
1596,34432
1597,34496
1598,34496
1599,34560
1600,34624
1601,34624
1602,34752
1603,34880
1604,34944
1605,34880
1606,34880
1607,35008
1608,35072
1609,35072
1610,35136
1611,35200
1612,35136
1613,35008
1614,34944
1615,35008
1616,35072
1617,35072
1618,35008
1619,34944
1620,34880
1621,34752
1622,34688
1623,34624
1624,34624
1625,34560
1626,34432
1627,34368
1628,34368
1629,34304
1630,34176
1631,34048
1632,33920
1633,33792
1634,33600
1635,33600
1636,33792
1637,33920
1638,33920
1639,33792
1640,33728
1641,33664
1642,33600
1643,33600
1644,33792
1645,33920
1646,33920
1647,33920
1648,33984
1649,34048
1650,33984
1651,33792
1652,33792
1653,33856
1654,33856
1655,33792
1656,33792
1657,33856
1658,33920
1659,33856
1660,33856
1661,33984
1662,34176
1663,34240
1664,34240
1665,34112
1666,33856
1667,33600
1668,33408
1669,33344
1670,33472
1671,33536
1672,33536
1673,33664
1674,33856
1675,33984
1676,33984
1677,33856
1678,33856
1679,33792
1680,33664
1681,33664
1682,33792
1683,33856
1684,33856
1685,33792
1686,33856
1687,33920
1688,33920
1689,33856
1690,33920
1691,33920
1692,33728
1693,33664
1694,33728
1695,33856
1696,33856
1697,33792
1698,33856
1699,33856
1700,33856
1701,33792
1702,33792
1703,33856
1704,33920
1705,33920
1706,33856
1707,33856
1708,33856
1709,33792
1710,33728
1711,33792
1712,33920
1713,33920
1714,33856
1715,33920
1716,33984
1717,33984
1718,33856
1719,33792
1720,33792
1721,33792
1722,33792
1723,33792
1724,33856
1725,33856
1726,33792
1727,33856
1728,33920
1729,33984
1730,33920
1731,33856
1732,33920
1733,33920
1734,33920
1735,33856
1736,33856
1737,33856
1738,33792
1739,33792
1740,33856
1741,33984
1742,34048
1743,33984
1744,33984
1745,33984
1746,33984
1747,33920
1748,33984
1749,34112
1750,34176
1751,34112
1752,34112
1753,34112
1754,34048
1755,34048
1756,34112
1757,34240
1758,34304
1759,34304
1760,34304
1761,34432
1762,34496
1763,34432
1764,34432
1765,34496
1766,34496
1767,34432
1768,34368
1769,34368
1770,34304
1771,34112
1772,33984
1773,33856
1774,33728
1775,33600
1776,33472
1777,33408
1778,33472
1779,33600
1780,33664
1781,33728
1782,33856
1783,33856
1784,33792
1785,33728
1786,33792
1787,33920
1788,33920
1789,33920
1790,33920
1791,33984
1792,33984
1793,33920
1794,33984
1795,34048
1796,33984
1797,33920
1798,33984
1799,34304
1800,34752
1801,35328
1802,36288
1803,37376
1804,38656
1805,38912
1806,37696
1807,35584
1808,33472
1809,31872
1810,30976
1811,30720
1812,30784
1813,31040
1814,31616
1815,32320
1816,33088
1817,33728
1818,34176
1819,34624
1820,34880
1821,34880
1822,34816
1823,34752
1824,34688
1825,34560
1826,34496
1827,34368
1828,34304
1829,34240
1830,34176
1831,34112
1832,34176
1833,34176
1834,34112
1835,34112
1836,34112
1837,34240
1838,34240
1839,34240
1840,34304
1841,34432
1842,34432
1843,34432
1844,34496
1845,34496
1846,34432
1847,34432
1848,34496
1849,34624
1850,34624
1851,34560
1852,34560
1853,34688
1854,34752
1855,34752
1856,34816
1857,34880
1858,34880
1859,34880
1860,34880
1861,34944
1862,35008
1863,34944
1864,34944
1865,34944
1866,34944
1867,34880
1868,34752
1869,34752
1870,34752
1871,34688
1872,34624
1873,34560
1874,34560
1875,34496
1876,34304
1877,34176
1878,34112
1879,33984
1880,33856
1881,33728
1882,33664
1883,33664
1884,33600
1885,33600
1886,33664
1887,33664
1888,33600
1889,33536
1890,33600
1891,33728
1892,33728
1893,33664
1894,33728
1895,33792
1896,33728
1897,33728
1898,33728
1899,33856
1900,33856
1901,33792
1902,33728
1903,33792
1904,33792
1905,33728
1906,33728
1907,33792
1908,33792
1909,33792
1910,33792
1911,33856
1912,33856
1913,33856
1914,33792
1915,33792
1916,33856
1917,33792
1918,33728
1919,33728
1920,33728
1921,33728
1922,33728
1923,33728
1924,33792
1925,33792
1926,33728
1927,33792
1928,33792
1929,33792
1930,33664
1931,33600
1932,33664
1933,33664
1934,33664
1935,33664
1936,33728
1937,33728
1938,33728
1939,33664
1940,33728
1941,33792
1942,33728
1943,33600
1944,33664
1945,33728
1946,33792
1947,33728
1948,33728
1949,33792
1950,33792
1951,33792
1952,33728
1953,33792
1954,33792
1955,33728
1956,33664
1957,33728
1958,33728
1959,33728
1960,33728
1961,33728
1962,33728
1963,33728
1964,33728
1965,33792
1966,33856
1967,33792
1968,33728
1969,33728
1970,33792
1971,33792
1972,33792
1973,33792
1974,33856
1975,33856
1976,33856
1977,33920
1978,33920
1979,33920
1980,33856
1981,33856
1982,33984
1983,34048
1984,34048
1985,34048
1986,34112
1987,34176
1988,34176
1989,34176
1990,34176
1991,34304
1992,34368
1993,34304
1994,34368
1995,34432
1996,34368
1997,34304
1998,34240
1999,34304
2000,34304
2001,34176
2002,33984
2003,33920
2004,33728
2005,33536
2006,33408
2007,33472
2008,33536
2009,33536
2010,33536
2011,33664
2012,33792
2013,33792
2014,33792
2015,33920
2016,33920
2017,33920
2018,33920
2019,33920
2020,33920
2021,33920
2022,33920
2023,33920
2024,33984
2025,33984
2026,33856
2027,33856
2028,33920
2029,34176
2030,34496
2031,35008
2032,35776
2033,36736
2034,37760
2035,38208
2036,37248
2037,35520
2038,33856
2039,32704
2040,32256
2041,32128
2042,32064
2043,32064
2044,32192
2045,32576
2046,32832
2047,33216
2048,33600
2049,34048
2050,34368
2051,34560
2052,34688
2053,34688
2054,34688
2055,34560
2056,34560
2057,34496
2058,34368
2059,34240
2060,34176
2061,34176
2062,34240
2063,34240
2064,34176
2065,34240
2066,34240
2067,34240
2068,34240
2069,34304
2070,34368
2071,34432
2072,34368
2073,34368
2074,34496
2075,34496
2076,34432
2077,34496
2078,34560
2079,34560
2080,34560
2081,34560
2082,34624
2083,34688
2084,34752
2085,34752
2086,34816
2087,34880
2088,34816
2089,34816
2090,34816
2091,34944
2092,35008
2093,34944
2094,34880
2095,34944
2096,34880
2097,34816
2098,34752
2099,34816
2100,34816
2101,34752
2102,34688
2103,34624
2104,34624
2105,34496
2106,34368
2107,34304
2108,34240
2109,34048
2110,33920
2111,33856
2112,33792
2113,33728
2114,33664
2115,33664
2116,33664
2117,33664
2118,33600
2119,33600
2120,33728
2121,33728
2122,33728
2123,33792
2124,33856
2125,33920
2126,33856
2127,33792
2128,33856
2129,33920
2130,33920
2131,33856
2132,33920
2133,33920
2134,33920
2135,33920
2136,33920
2137,33920
2138,33856
2139,33792
2140,33792
2141,33920
2142,33920
2143,33856
2144,33856
2145,33920
2146,33920
2147,33856
2148,33920
2149,33920
2150,33984
2151,33920
2152,33920
2153,33920
2154,33920
2155,33856
2156,33856
2157,33856
2158,33920
2159,33856
2160,33856
2161,33856
2162,33920
2163,33856
2164,33728
2165,33792
2166,33792
2167,33792
2168,33792
2169,33792
2170,33920
2171,33920
2172,33920
2173,33920
2174,34048
2175,34112
2176,34112
2177,34112
2178,34176
2179,34176
2180,34240
2181,34368
2182,34560
2183,34688
2184,34624
2185,34496
2186,34496
2187,34560
2188,34432
2189,34304
2190,34240
2191,34176
2192,34048
2193,33792
2194,33536
2195,33344
2196,33280
2197,33216
2198,33216
2199,33344
2200,33536
2201,33600
2202,33664
2203,33792
2204,33792
2205,33792
2206,33728
2207,33792
2208,33792
2209,33792
2210,33792
2211,33856
2212,33856
2213,33856
2214,33792
2215,33856
2216,33920
2217,33856
2218,33856
2219,33856
2220,34048
2221,34304
2222,34752
2223,35456
2224,36288
2225,37248
2226,38208
2227,37888
2228,36480
2229,34624
2230,33088
2231,32128
2232,31744
2233,31616
2234,31680
2235,31872
2236,32128
2237,32512
2238,32960
2239,33408
2240,33984
2241,34304
2242,34496
2243,34560
2244,34624
2245,34624
2246,34560
2247,34496
2248,34368
2249,34368
2250,34304
2251,34176
2252,34112
2253,34176
2254,34240
2255,34176
2256,34112
2257,34176
2258,34176
2259,34176
2260,34176
2261,34304
2262,34368
2263,34304
2264,34304
2265,34304
2266,34368
2267,34432
2268,34496
2269,34496
2270,34624
2271,34624
2272,34560
2273,34624
2274,34688
2275,34688
2276,34688
2277,34752
2278,34880
2279,35008
2280,35008
2281,35008
2282,35008
2283,35008
2284,35008
2285,34944
2286,34944
2287,34944
2288,34944
2289,34816
2290,34816
2291,34816
2292,34752
2293,34624
2294,34560
2295,34560
2296,34432
2297,34240
2298,34112
2299,34048
2300,34048
2301,33920
2302,33792
2303,33728
2304,33664
2305,33600
2306,33600
2307,33600
2308,33728
2309,33728
2310,33664
2311,33728
2312,33792
2313,33792
2314,33728
2315,33792
2316,33856
2317,33856
2318,33792
2319,33856
2320,33856
2321,33856
2322,33792
2323,33792
2324,33856
2325,33856
2326,33856
2327,33856
2328,33920
2329,33920
2330,33920
2331,33920
2332,33984
2333,33984
2334,33920
2335,33920
2336,33984
2337,33984
2338,33984
2339,33920
2340,33984
2341,33920
2342,33920
2343,33856
2344,33792
2345,33856
2346,33856
2347,33792
2348,33792
2349,33856
2350,33856
2351,33856
2352,33792
2353,33792
2354,33792
2355,33728
2356,33728
2357,33792
2358,33856
2359,33856
2360,33856
2361,33984
2362,34112
2363,34176
2364,34112
2365,34112
2366,34112
2367,34240
2368,34304
2369,34560
2370,34752
2371,34752
2372,34624
2373,34496
2374,34496
2375,34496
2376,34304
2377,34176
2378,34176
2379,33984
2380,33728
2381,33472
2382,33344
2383,33344
2384,33216
2385,33216
2386,33280
2387,33472
2388,33472
2389,33536
2390,33664
2391,33664
2392,33728
2393,33728
2394,33792
2395,33792
2396,33792
2397,33728
2398,33728
2399,33856
2400,33920
2401,33856
2402,33856
2403,33856
2404,33856
2405,33856
2406,33856
2407,34112
2408,34496
2409,35008
2410,35648
2411,36544
2412,37696
2413,38656
2414,38400
2415,36800
2416,34816
2417,33088
2418,31872
2419,31232
2420,30976
2421,31040
2422,31232
2423,31680
2424,32320
2425,33024
2426,33536
2427,33920
2428,34304
2429,34624
2430,34752
2431,34688
2432,34688
2433,34624
2434,34496
2435,34368
2436,34304
2437,34240
2438,34112
2439,34112
2440,34112
2441,34112
2442,34112
2443,34112
2444,34112
2445,34240
2446,34304
2447,34240
2448,34240
2449,34368
2450,34368
2451,34304
2452,34240
2453,34304
2454,34368
2455,34304
2456,34368
2457,34560
2458,34624
2459,34688
2460,34624
2461,34688
2462,34816
2463,34880
2464,34880
2465,34944
2466,34944
2467,34944
2468,34880
2469,34944
2470,35008
2471,35008
2472,34944
2473,34880
2474,34880
2475,34880
2476,34816
2477,34816
2478,34816
2479,34752
2480,34560
2481,34496
2482,34496
2483,34368
2484,34304
2485,34176
2486,34048
2487,33984
2488,33920
2489,33792
2490,33728
2491,33728
2492,33728
2493,33664
2494,33664
2495,33664
2496,33664
2497,33664
2498,33664
2499,33728
2500,33856
2501,33856
2502,33856
2503,33856
2504,33920
2505,33920
2506,33856
2507,33856
2508,33856
2509,33856
2510,33856
2511,33856
2512,33920
2513,33920
2514,33856
2515,33856
2516,33920
2517,33920
2518,33920
2519,33920
2520,33920
2521,33920
2522,33920
2523,33920
2524,33984
2525,33984
2526,33920
2527,33920
2528,33984
2529,33984
2530,33920
2531,33856
2532,33856
2533,33856
2534,33792
2535,33728
2536,33792
2537,33792
2538,33856
2539,33792
2540,33856
2541,33984
2542,33984
2543,33920
2544,33920
2545,33984
2546,34048
2547,34048
2548,34048
2549,34112
2550,34304
2551,34496
2552,34624
2553,34688
2554,34752
2555,34624
2556,34496
2557,34496
2558,34496
2559,34304
2560,34176
2561,34048
2562,33856
2563,33600
2564,33280
2565,33152
2566,33152
2567,33216
2568,33216
2569,33280
2570,33536
2571,33536
2572,33536
2573,33600
2574,33792
2575,33856
2576,33856
2577,33792
2578,33792
2579,33856
2580,33792
2581,33728
2582,33728
2583,33792
2584,33792
2585,33728
2586,33728
2587,33792
2588,33792
2589,33792
2590,34048
2591,34560
2592,35136
2593,35904
2594,36864
2595,37952
2596,38528
2597,37568
2598,35712
2599,33920
2600,32512
2601,31744
2602,31296
2603,31168
2604,31360
2605,31552
2606,32000
2607,32640
2608,33344
2609,33856
2610,34240
2611,34496
2612,34752
2613,34752
2614,34688
2615,34624
2616,34560
2617,34496
2618,34304
2619,34240
2620,34240
2621,34240
2622,34240
2623,34240
2624,34176
2625,34176
2626,34112
2627,34048
2628,34112
2629,34176
2630,34176
2631,34176
2632,34304
2633,34368
2634,34432
2635,34432
2636,34432
2637,34496
2638,34496
2639,34624
2640,34752
2641,34816
2642,34816
2643,34816
2644,34944
2645,34880
2646,34816
2647,34880
2648,35008
2649,35072
2650,35008
2651,34944
2652,34944
2653,35008
2654,35008
2655,35008
2656,35008
2657,35008
2658,34944
2659,34880
2660,34816
2661,34816
2662,34688
2663,34560
2664,34432
2665,34432
2666,34304
2667,34240
2668,34048
2669,33984
2670,33856
2671,33728
2672,33664
2673,33728
2674,33728
2675,33664
2676,33664
2677,33728
2678,33728
2679,33664
2680,33664
2681,33792
2682,33792
2683,33984
2684,33856
2685,33856
2686,33920
2687,33920
2688,33856
2689,33792
2690,33792
2691,33792
2692,33792
2693,33792
2694,33920
2695,33984
2696,33984
2697,33920
2698,33984
2699,34048
2700,34048
2701,34112
2702,34176
2703,34176
2704,34176
2705,34112
2706,34048
2707,33984
2708,33984
2709,33920
2710,33984
2711,34048
2712,33984
2713,33856
2714,33856
2715,33920
2716,33920
2717,33856
2718,33792
2719,33792
2720,33856
2721,33792
2722,33792
2723,33856
2724,33856
2725,33856
2726,33856
2727,33856
2728,33856
2729,33856
2730,33920
2731,33920
2732,33984
2733,33984
2734,33920
2735,33984
2736,34048
2737,34112
2738,34176
2739,34176
2740,34240
2741,34304
2742,34368
2743,34432
2744,34560
2745,34560
2746,34432
2747,34368
2748,34368
2749,34368
2750,34304
2751,34240
2752,34176
2753,33984
2754,33728
2755,33472
2756,33344
2757,33280
2758,33280
2759,33216
2760,33408
2761,33600
2762,33664
2763,33600
2764,33600
2765,33600
2766,33728
2767,33728
2768,33728
2769,33792
2770,33856
2771,33856
2772,33856
2773,33856
2774,33920
2775,33984
2776,33920
2777,33920
2778,33920
2779,33920
2780,33984
2781,34176
2782,34560
2783,35072
2784,35712
2785,36608
2786,37824
2787,38784
2788,38336
2789,36672
2790,34624
2791,32832
2792,31616
2793,30976
2794,30784
2795,30912
2796,31232
2797,31808
2798,32576
2799,33344
2800,33920
2801,34368
2802,34688
2803,34880
2804,34880
2805,34816
2806,34752
2807,34688
2808,34560
2809,34496
2810,34432
2811,34304
2812,34240
2813,34112
2814,34112
2815,34240
2816,34304
2817,34304
2818,34304
2819,34304
2820,34304
2821,34240
2822,34304
2823,34432
2824,34496
2825,34432
2826,34432
2827,34432
2828,34432
2829,34432
2830,34432
2831,34496
2832,34496
2833,34560
2834,34560
2835,34560
2836,34688
2837,34816
2838,34880
2839,34944
2840,35008
2841,35072
2842,35072
2843,35072
2844,35072
2845,35072
2846,35072
2847,35008
2848,35008
2849,34880
2850,34752
2851,34688
2852,34688
2853,34688
2854,34688
2855,34624
2856,34624
2857,34624
2858,34496
2859,34304
2860,34112
2861,34048
2862,34048
2863,33920
2864,33792
2865,33856
2866,33856
2867,33792
2868,33664
2869,33536
2870,33536
2871,33536
2872,33536
2873,33664
2874,33728
2875,33728
2876,33792
2877,33792
2878,33856
2879,33856
2880,33792
2881,33920
2882,33984
2883,34048
2884,34048
2885,33984
2886,33920
2887,33920
2888,33856
2889,33792
2890,33792
2891,33792
2892,33728
2893,33792
2894,33856
2895,33856
2896,33856
2897,33856
2898,33856
2899,33920
2900,33920
2901,33856
2902,33856
2903,33920
2904,33920
2905,33920
2906,33920
2907,33984
2908,33856
2909,33792
2910,33728
2911,33792
2912,33728
2913,33664
2914,33664
2915,33728
2916,33728
2917,33664
2918,33664
2919,33664
2920,33728
2921,33728
2922,33792
2923,33792
2924,33856
2925,33792
2926,33728
2927,33792
2928,33856
2929,33920
2930,33920
2931,33984
2932,33984
2933,33984
2934,33920
2935,33920
2936,33920
2937,33856
2938,33792
2939,33792
2940,33792
2941,33920
2942,33920
2943,33984
2944,34048
2945,34112
2946,34048
2947,34048
2948,34112
2949,34176
2950,34240
2951,34240
2952,34304
2953,34368
2954,34368
2955,34496
2956,34624
2957,34688
2958,34688
2959,34624
2960,34560
2961,34560
2962,34496
2963,34432
2964,34304
2965,34240
2966,34112
2967,33856
2968,33664
2969,33536
2970,33408
2971,33344
2972,33344
2973,33408
2974,33536
2975,33664
2976,33728
2977,33792
2978,33920
2979,33920
2980,33920
2981,33984
2982,33984
2983,33984
2984,33920
2985,33920
2986,33984
2987,33984
2988,33920
2989,33920
2990,33920
2991,33920
2992,33984
2993,33984
2994,34176
2995,34496
2996,34944
2997,35712
2998,36736
2999,38144
3000,39424
3001,39104
3002,37312
3003,35008
3004,32896
3005,31360
3006,30656
3007,30400
3008,30528
3009,30976
3010,31744
3011,32704
3012,33536
3013,34112
3014,34496
3015,34816
3016,35008
3017,34944
3018,34816
3019,34816
3020,34752
3021,34560
3022,34368
3023,34240
3024,34240
3025,34176
3026,34112
3027,34176
3028,34176
3029,34176
3030,34176
3031,34240
3032,34304
3033,34368
3034,34368
3035,34432
3036,34432
3037,34432
3038,34432
3039,34432
3040,34496
3041,34560
3042,34560
3043,34560
3044,34624
3045,34688
3046,34688
3047,34752
3048,34816
3049,34816
3050,34816
3051,34816
3052,34944
3053,35008
3054,35008
3055,34944
3056,34944
3057,35072
3058,35072
3059,35008
3060,35072
3061,35136
3062,35136
3063,35136
3064,35072
3065,35072
3066,35008
3067,34880
3068,34752
3069,34688
3070,34624
3071,34496
3072,34368
3073,34304
3074,34176
3075,33984
3076,33856
3077,33792
3078,33792
3079,33728
3080,33600
3081,33600
3082,33664
3083,33664
3084,33664
3085,33728
3086,33856
3087,33920
3088,33856
3089,33856
3090,33920
3091,33920
3092,33856
3093,33792
3094,33792
3095,33792
3096,33728
3097,33664
3098,33728
3099,33856
3100,33856
3101,33792
3102,33856
3103,33920
3104,33920
3105,33856
3106,33856
3107,33856
3108,33920
3109,33856
3110,33856
3111,33856
3112,33856
3113,33792
3114,33792
3115,33792
3116,33856
3117,33792
3118,33728
3119,33728
3120,33728
3121,33728
3122,33728
3123,33792
3124,33856
3125,33856
3126,33728
3127,33728
3128,33792
3129,33856
3130,33792
3131,33792
3132,33920
3133,33920
3134,33856
3135,33792
3136,33856
3137,33856
3138,33792
3139,33728
3140,33792
3141,33856
3142,33792
3143,33792
3144,33856
3145,33920
3146,33856
3147,33792
3148,33856
3149,33920
3150,33920
3151,33856
3152,33856
3153,33856
3154,33856
3155,33792
3156,33792
3157,33856
3158,33856
3159,33792
3160,33792
3161,33856
3162,33856
3163,33792
3164,33728
3165,33792
3166,33856
3167,33792
3168,33856
3169,33920
3170,33920
3171,33920
3172,33920
3173,33920
3174,33920
3175,33920
3176,33856
3177,33920
3178,33984
3179,33984
3180,33984
3181,33984
3182,34112
3183,34176
3184,34176
3185,34240
3186,34368
3187,34432
3188,34496
3189,34560
3190,34624
3191,34624
3192,34560
3193,34496
3194,34432
3195,34432
3196,34304
3197,34176
3198,34112
3199,33984
3200,33856
3201,33664
3202,33536
3203,33536
3204,33536
3205,33536
3206,33536
3207,33664
3208,33728
3209,33728
3210,33728
3211,33856
3212,33856
3213,33856
3214,33856
3215,33920
3216,33984
3217,33984
3218,33920
3219,33984
3220,33984
3221,33984
3222,33920
3223,33920
3224,33920
3225,33920
3226,34048
3227,34368
3228,34816
3229,35520
3230,36416
3231,37632
3232,39040
3233,39296
3234,37824
3235,35584
3236,33280
3237,31808
3238,30912
3239,30464
3240,30592
3241,30976
3242,31680
3243,32448
3244,33280
3245,34048
3246,34496
3247,34816
3248,35008
3249,35072
3250,35008
3251,34880
3252,34816
3253,34752
3254,34624
3255,34496
3256,34432
3257,34368
3258,34368
3259,34304
3260,34304
3261,34304
3262,34304
3263,34240
3264,34240
3265,34304
3266,34432
3267,34368
3268,34304
3269,34368
3270,34496
3271,34496
3272,34432
3273,34496
3274,34624
3275,34688
3276,34688
3277,34688
3278,34752
3279,34816
3280,34752
3281,34816
3282,34880
3283,34880
3284,34880
3285,34880
3286,34944
3287,35072
3288,35008
3289,35008
3290,35008
3291,35072
3292,35072
3293,35008
3294,35072
3295,35136
3296,35072
3297,34944
3298,34944
3299,34944
3300,34880
3301,34752
3302,34688
3303,34624
3304,34432
3305,34304
3306,34176
3307,34048
3308,33984
3309,33856
3310,33792
3311,33728
3312,33728
3313,33664
3314,33600
3315,33664
3316,33664
3317,33600
3318,33600
3319,33664
3320,33792
3321,33792
3322,33792
3323,33792
3324,33856
3325,33856
3326,33856
3327,33856
3328,33920
3329,33920
3330,33856
3331,33856
3332,33920
3333,33920
3334,33856
3335,33792
3336,33856
3337,33856
3338,33792
3339,33792
3340,33856
3341,33920
3342,33856
3343,33792
3344,33792
3345,33728
3346,33664
3347,33664
3348,33728
3349,33792
3350,33792
3351,33728
3352,33728
3353,33792
3354,33792
3355,33728
3356,33728
3357,33728
3358,33792
3359,33728
3360,33728
3361,33728
3362,33792
3363,33728
3364,33728
3365,33792
3366,33792
3367,33792
3368,33728
3369,33728
3370,33792
3371,33728
3372,33664
3373,33664
3374,33728
3375,33792
3376,33728
3377,33792
3378,33792
3379,33792
3380,33728
3381,33728
3382,33728
3383,33792
3384,33728
3385,33664
3386,33728
3387,33792
3388,33792
3389,33792
3390,33792
3391,33856
3392,33792
3393,33728
3394,33792
3395,33856
3396,33792
3397,33728
3398,33728
3399,33792
3400,33728
3401,33728
3402,33728
3403,33792
3404,33792
3405,33728
3406,33664
3407,33792
3408,33792
3409,33728
3410,33728
3411,33792
3412,33856
3413,33792
3414,33792
3415,33856
3416,33856
3417,33856
3418,33792
3419,33792
3420,33920
3421,33856
3422,33856
3423,33856
3424,33920
3425,33984
3426,33984
3427,33984
3428,34112
3429,34112
3430,34112
3431,34176
3432,34240
3433,34304
3434,34240
3435,34304
3436,34432
3437,34496
3438,34432
3439,34368
3440,34368
3441,34304
3442,34240
3443,34176
3444,34240
3445,34112
3446,33984
3447,33792
3448,33664
3449,33600
3450,33472
3451,33408
3452,33408
3453,33472
3454,33536
3455,33600
3456,33600
3457,33728
3458,33856
3459,33856
3460,33856
3461,33856
3462,33920
3463,33856
3464,33856
3465,33856
3466,33920
3467,33856
3468,33856
3469,33856
3470,33920
3471,33856
3472,33856
3473,33984
3474,34368
3475,34880
3476,35584
3477,36416
3478,37504
3479,38464
3480,38080
3481,36352
3482,34368
3483,32768
3484,31808
3485,31360
3486,31296
3487,31424
3488,31616
3489,32064
3490,32704
3491,33408
3492,33856
3493,34240
3494,34560
3495,34816
3496,34816
3497,34752
3498,34624
3499,34624
3500,34496
3501,34368
3502,34304
3503,34304
3504,34240
3505,34176
3506,34176
3507,34240
3508,34240
3509,34240
3510,34240
3511,34240
3512,34304
3513,34304
3514,34304
3515,34304
3516,34304
3517,34304
3518,34240
3519,34304
3520,34368
3521,34432
3522,34432
3523,34432
3524,34496
3525,34560
3526,34560
3527,34560
3528,34624
3529,34688
3530,34752
3531,34752
3532,34880
3533,34880
3534,34816
3535,34816
3536,34880
3537,34944
3538,34880
3539,34816
3540,34880
3541,34880
3542,34752
3543,34752
3544,34752
3545,34816
3546,34816
3547,34752
3548,34688
3549,34624
3550,34560
3551,34432
3552,34304
3553,34240
3554,34112
3555,33920
3556,33856
3557,33792
3558,33728
3559,33664
3560,33664
3561,33664
3562,33728
3563,33664
3564,33600
3565,33664
3566,33728
3567,33664
3568,33664
3569,33728
3570,33792
3571,33792
3572,33792
3573,33792
3574,33856
3575,33792
3576,33728
3577,33792
3578,33856
3579,33856
3580,33792
3581,33792
3582,33856
3583,33856
3584,33792
3585,33792
3586,33856
3587,33856
3588,33856
3589,33792
3590,33792
3591,33856
3592,33856
3593,33856
3594,33856
3595,33856
3596,33856
3597,33728
3598,33728
3599,33792
3600,33792
3601,33792
3602,33792
3603,33792
3604,33792
3605,33728
3606,33664
3607,33664
3608,33664
3609,33600
3610,33664
3611,33728
3612,33792
3613,33728
3614,33728
3615,33792
3616,33856
3617,33792
3618,33728
3619,33792
3620,33856
3621,33792
3622,33792
3623,33792
3624,33792
3625,33728
3626,33664
3627,33728
3628,33792
3629,33792
3630,33728
3631,33728
3632,33792
3633,33792
3634,33792
3635,33728
3636,33728
3637,33792
3638,33792
3639,33792
3640,33792
3641,33792
3642,33792
3643,33728
3644,33792
3645,33856
3646,33856
3647,33856
3648,33920
3649,33984
3650,33984
3651,33920
3652,34048
3653,34112
3654,34176
3655,34112
3656,34112
3657,34176
3658,34176
3659,34176
3660,34240
3661,34368
3662,34432
3663,34368
3664,34304
3665,34304
3666,34304
3667,34240
3668,34112
3669,34048
3670,33984
3671,33856
3672,33600
3673,33472
3674,33472
3675,33408
3676,33408
3677,33472
3678,33664
3679,33728
3680,33728
3681,33792
3682,33920
3683,33984
3684,33920
3685,33856
3686,33856
3687,33856
3688,33856
3689,33792
3690,33856
3691,33920
3692,33920
3693,33856
3694,33792
3695,33792
3696,33792
3697,33856
3698,34112
3699,34560
3700,35072
3701,35840
3702,36736
3703,37824
3704,37952
3705,36672
3706,34880
3707,33472
3708,32640
3709,32128
3710,31936
3711,32000
3712,32128
3713,32256
3714,32512
3715,32960
3716,33472
3717,33856
3718,34112
3719,34432
3720,34624
3721,34624
3722,34624
3723,34560
3724,34560
3725,34496
3726,34368
3727,34304
3728,34240
3729,34176
3730,34048
3731,34048
3732,34048
3733,34112
3734,34112
3735,34112
3736,34176
3737,34240
3738,34176
3739,34176
3740,34240
3741,34304
3742,34368
3743,34368
3744,34432
3745,34496
3746,34560
3747,34560
3748,34560
3749,34560
3750,34560
3751,34496
3752,34496
3753,34560
3754,34624
3755,34624
3756,34688
3757,34816
3758,34816
3759,34752
3760,34752
3761,34880
3762,34880
3763,34816
3764,34816
3765,34816
3766,34880
3767,34816
3768,34688
3769,34688
3770,34752
3771,34624
3772,34496
3773,34432
3774,34368
3775,34240
3776,34112
3777,34048
3778,34048
3779,33984
3780,33920
3781,33792
3782,33728
3783,33664
3784,33600
3785,33600
3786,33664
3787,33664
3788,33600
3789,33600
3790,33664
3791,33728
3792,33728
3793,33792
3794,33856
3795,33920
3796,33920
3797,33856
3798,33792
3799,33856
3800,33856
3801,33856
3802,33792
3803,33856
3804,33920
3805,33856
3806,33856
3807,33920
3808,33920
3809,33920
3810,33920
3811,33984
3812,34048
3813,33984
3814,33920
3815,33920
3816,33984
3817,33984
3818,33920
3819,33984
3820,33984
3821,33920
3822,33792
3823,33792
3824,33792
3825,33792
3826,33792
3827,33856
3828,33920
3829,33984
3830,33856
3831,33792
3832,33792
3833,33856
3834,33792
3835,33792
3836,33856
3837,33920
3838,33856
3839,33856
3840,33856
3841,33920
3842,33920
3843,33856
3844,33920
3845,34112
3846,34176
3847,34176
3848,34240
3849,34240
3850,34176
3851,34176
3852,34368
3853,34624
3854,34688
3855,34624
3856,34560
3857,34496
3858,34432
3859,34240
3860,34112
3861,34048
3862,34048
3863,33856
3864,33664
3865,33536
3866,33536
3867,33472
3868,33344
3869,33344
3870,33472
3871,33600
3872,33600
3873,33664
3874,33728
3875,33792
3876,33728
3877,33792
3878,33792
3879,33792
3880,33728
3881,33792
3882,33856
3883,33920
3884,33920
3885,33856
3886,33920
3887,33920
3888,33920
3889,33920
3890,33920
3891,34112
3892,34432
3893,34880
3894,35584
3895,36480
3896,37312
3897,38144
3898,37696
3899,36224
3900,34496
3901,33088
3902,32320
3903,32064
3904,31872
3905,31808
3906,31936
3907,32128
3908,32512
3909,32896
3910,33344
3911,33856
3912,34240
3913,34432
3914,34560
3915,34624
3916,34688
3917,34560
3918,34368
3919,34304
3920,34304
3921,34304
3922,34240
3923,34176
3924,34176
3925,34176
3926,34048
3927,34048
3928,34112
3929,34176
3930,34176
3931,34176
3932,34176
3933,34240
3934,34240
3935,34240
3936,34304
3937,34432
3938,34432
3939,34432
3940,34432
3941,34560
3942,34560
3943,34560
3944,34624
3945,34688
3946,34752
3947,34816
3948,34880
3949,34944
3950,34944
3951,34816
3952,34688
3953,34688
3954,34752
3955,34752
3956,34816
3957,34880
3958,34944
3959,34880
3960,34752
3961,34752
3962,34752
3963,34688
3964,34560
3965,34496
3966,34432
3967,34304
3968,34176
3969,34112
3970,34176
3971,34048
3972,33856
3973,33792
3974,33856
3975,33728
3976,33600
3977,33472
3978,33536
3979,33536
3980,33600
3981,33664
3982,33728
3983,33792
3984,33792
3985,33792
3986,33856
3987,33856
3988,33856
3989,33920
3990,33920
3991,33984
3992,33984
3993,33920
3994,33984
3995,34048
3996,33984
3997,33920
3998,33856
3999,33856
4000,33856
4001,33792
4002,33792
4003,33856
4004,33856
4005,33856
4006,33856
4007,33984
4008,33984
4009,33984
4010,33984
4011,34048
4012,34048
4013,33984
4014,33920
4015,33920
4016,33920
4017,33856
4018,33856
4019,33856
4020,33856
4021,33920
4022,33856
4023,33856
4024,33856
4025,33856
4026,33792
4027,33792
4028,33856
4029,33920
4030,33984
4031,33984
4032,34112
4033,34240
4034,34240
4035,34240
4036,34304
4037,34368
4038,34432
4039,34560
4040,34752
4041,34752
4042,34688
4043,34496
4044,34432
4045,34368
4046,34304
4047,34240
4048,34176
4049,34112
4050,33856
4051,33600
4052,33408
4053,33280
4054,33280
4055,33216
4056,33280
4057,33408
4058,33600
4059,33600
4060,33664
4061,33792
4062,33792
4063,33856
4064,33856
4065,33856
4066,33856
4067,33792
4068,33664
4069,33664
4070,33664
4071,33728
4072,33728
4073,33792
4074,33792
4075,33856
4076,33856
4077,33984
4078,34240
4079,34624
4080,35072
4081,35840
4082,36736
4083,37696
4084,38400
4085,37504
4086,36096
4087,34432
4088,33024
4089,32128
4090,31616
4091,31424
4092,31424
4093,31616
4094,31936
4095,32512
4096,33152
4097,33728
4098,34048
4099,34368
4100,34560
4101,34560
4102,34560
4103,34624
4104,34560
4105,34432
4106,34368
4107,34368
4108,34304
4109,34176
4110,34048
4111,34048
4112,34048
4113,34112
4114,34048
4115,34112
4116,34176
4117,34176
4118,34112
4119,34176
4120,34240
4121,34240
4122,34240
4123,34304
4124,34432
4125,34496
4126,34496
4127,34560
4128,34624
4129,34688
4130,34624
4131,34624
4132,34688
4133,34752
4134,34752
4135,34752
4136,34816
4137,34880
4138,34880
4139,34880
4140,34944
4141,35008
4142,35008
4143,35008
4144,35008
4145,35008
4146,35008
4147,34880
4148,34816
4149,34816
4150,34752
4151,34560
4152,34496
4153,34432
4154,34368
4155,34240
4156,34112
4157,34048
4158,33984
4159,33856
4160,33792
4161,33792
4162,33792
4163,33664
4164,33536
4165,33536
4166,33600
4167,33664
4168,33664
4169,33728
4170,33856
4171,33856
4172,33856
4173,33856
4174,33920
4175,33920
4176,33920
4177,33856
4178,33856
4179,33920
4180,33920
4181,33920
4182,33984
4183,34048
4184,34048
4185,33920
4186,33920
4187,33920
4188,33792
4189,33728
4190,33792
4191,33920
4192,33920
4193,33920
4194,33984
4195,34112
4196,34176
4197,34048
4198,33984
4199,33984
4200,33984
4201,33920
4202,33920
4203,33984
4204,34048
4205,33920
4206,33856
4207,33920
4208,33920
4209,33856
4210,33856
4211,33856
4212,33920
4213,33856
4214,33792
4215,33792
4216,33856
4217,33920
4218,33920
4219,33984
4220,34048
4221,34112
4222,34048
4223,34112
4224,34176
4225,34240
4226,34304
4227,34432
4228,34688
4229,34816
4230,34752
4231,34624
4232,34560
4233,34560
4234,34496
4235,34304
4236,34176
4237,33984
4238,33728
4239,33472
4240,33344
4241,33280
4242,33216
4243,33216
4244,33280
4245,33408
4246,33536
4247,33600
4248,33728
4249,33856
4250,33856
4251,33792
4252,33792
4253,33856
4254,33856
4255,33792
4256,33728
4257,33792
4258,33856
4259,33792
4260,33728
4261,33728
4262,33728
4263,33664
4264,33728
4265,33856
4266,33984
4267,34240
4268,34624
4269,35264
4270,36096
4271,36992
4272,38016
4273,38592
4274,37824
4275,36032
4276,34112
4277,32640
4278,31744
4279,31232
4280,31040
4281,31104
4282,31552
4283,32064
4284,32640
4285,33216
4286,33728
4287,34240
4288,34496
4289,34560
4290,34688
4291,34688
4292,34688
4293,34560
4294,34432
4295,34368
4296,34304
4297,34176
4298,34112
4299,34176
4300,34240
4301,34240
4302,34176
4303,34176
4304,34176
4305,34176
4306,34176
4307,34240
4308,34368
4309,34368
4310,34368
4311,34368
4312,34368
4313,34368
4314,34368
4315,34432
4316,34496
4317,34560
4318,34560
4319,34624
4320,34688
4321,34752
4322,34752
4323,34816
4324,34944
4325,35008
4326,35008
4327,35072
4328,35136
4329,35136
4330,35008
4331,34944
4332,34944
4333,34944
4334,34944
4335,34880
4336,34880
4337,34880
4338,34880
4339,34752
4340,34688
4341,34624
4342,34496
4343,34304
4344,34176
4345,34176
4346,34112
4347,33984
4348,33920
4349,33920
4350,33856
4351,33728
4352,33728
4353,33728
4354,33792
4355,33728
4356,33728
4357,33728
4358,33728
4359,33728
4360,33728
4361,33792
4362,33920
4363,33920
4364,33856
4365,33856
4366,33920
4367,33984
4368,33920
4369,33984
4370,33984
4371,33984
4372,33920
4373,33984
4374,34048
4375,34048
4376,33984
4377,33984
4378,34048
4379,34048
4380,34048
4381,34048
4382,34048
4383,34112
4384,34048
4385,33984
4386,34048
4387,34112
4388,34048
4389,33984
4390,33920
4391,33984
4392,33984
4393,33920
4394,33920
4395,33984
4396,33984
4397,33984
4398,33984
4399,34048
4400,34048
4401,33920
4402,33920
4403,33984
4404,34048
4405,34048
4406,33920
4407,33920
4408,33984
4409,34048
4410,34048
4411,34048
4412,34048
4413,33920
4414,33856
4415,33856
4416,33856
4417,33920
4418,33984
4419,33984
4420,34048
4421,34112
4422,34112
4423,34048
4424,34048
4425,34112
4426,34048
4427,34048
4428,34176
4429,34304
4430,34304
4431,34240
4432,34304
4433,34304
4434,34304
4435,34368
4436,34368
4437,34432
4438,34560
4439,34752
4440,34880
4441,34880
4442,34816
4443,34752
4444,34688
4445,34624
4446,34560
4447,34432
4448,34304
4449,34176
4450,34112
4451,33920
4452,33792
4453,33728
4454,33664
4455,33536
4456,33472
4457,33536
4458,33664
4459,33856
4460,33920
4461,33984
4462,33984
4463,33984
4464,33984
4465,34048
4466,34048
4467,33984
4468,33984
4469,34112
4470,34112
4471,34048
4472,34112
4473,34048
4474,34112
4475,34048
4476,34048
4477,34496
4478,34880
4479,35328
4480,36032
4481,36992
4482,38208
4483,39168
4484,38720
4485,37056
4486,34944
4487,33088
4488,31744
4489,31040
4490,30976
4491,30912
4492,31232
4493,31936
4494,32832
4495,33600
4496,34176
4497,34176
4498,34880
4499,35008
4500,34944
4501,34880
4502,34880
4503,34752
4504,34560
4505,34496
4506,34432
4507,34368
4508,34304
4509,34368
4510,34368
4511,34432
4512,34368
4513,34368
4514,34304
4515,34368
4516,34368
4517,34304
4518,34304
4519,34432
4520,34368
4521,34496
4522,34496
4523,34624
4524,34688
4525,34624
4526,34688
4527,34688
4528,34752
4529,34752
4530,34816
4531,34944
4532,35072
4533,35072
4534,35008
4535,35072
4536,35136
4537,35072
4538,35072
4539,35136
4540,35136
4541,35136
4542,35072
4543,35072
4544,35072
4545,35136
4546,35072
4547,35072
4548,35072
4549,35008
4550,34880
4551,34752
4552,34688
4553,34624
4554,34496
4555,34432
4556,34368
4557,34304
4558,34112
4559,33856
4560,33792
4561,33792
4562,33728
4563,33664
4564,33664
4565,33600
4566,33600
4567,33600
4568,33600
4569,33728
4570,33856
4571,33920
4572,33856
4573,34048
4574,34048
4575,33920
4576,33920
4577,33984
4578,34048
4579,33984
4580,33920
4581,33984
4582,33984
4583,33984
4584,33920
4585,33984
4586,33984
4587,33856
4588,33856
4589,33856
4590,33920
4591,33920
4592,33856
4593,33920
4594,33984
4595,33920
4596,33920
4597,33920
4598,33984
4599,34048
4600,33984
4601,33920
4602,33920
4603,33984
4604,33920
4605,33856
4606,33856
4607,33920
4608,33856
4609,33792
4610,33728
4611,33856
4612,33792
4613,33792
4614,33856
4615,33984
4616,34048
4617,34048
4618,34112
4619,34112
4620,34048
4621,33984
4622,33856
4623,33920
4624,33984
4625,33920
4626,33984
4627,34048
4628,34048
4629,33984
4630,33856
4631,33856
4632,33920
4633,33920
4634,33984
4635,33984
4636,34048
4637,33984
4638,33920
4639,33920
4640,34048
4641,34048
4642,34048
4643,34048
4644,33984
4645,33920
4646,33856
4647,33856
4648,33984
4649,34048
4650,34048
4651,33984
4652,33984
4653,33984
4654,33920
4655,33920
4656,33984
4657,34112
4658,34048
4659,33920
4660,33920
4661,33984
4662,33984
4663,33920
4664,33984
4665,34112
4666,34304
4667,34368
4668,34368
4669,34368
4670,34368
4671,34240
4672,34240
4673,34304
4674,34368
4675,34368
4676,34432
4677,34496
4678,34560
4679,34560
4680,34560
4681,34624
4682,34624
4683,34560
4684,34432
4685,34368
4686,34368
4687,34112
4688,33920
4689,33792
4690,33728
4691,33728
4692,33664
4693,33664
4694,33792
4695,33856
4696,33856
4697,33856
4698,33984
4699,34048
4700,34048
4701,34048
4702,34112
4703,34112
4704,33984
4705,33856
4706,33856
4707,33984
4708,33984
4709,33984
4710,33984
4711,34048
4712,33984
4713,33984
4714,34048
4715,34304
4716,34752
4717,35328
4718,36160
4719,37312
4720,38720
4721,39744
4722,39104
4723,37248
4724,34816
4725,32640
4726,31232
4727,30528
4728,30272
4729,30400
4730,31040
4731,31936
4732,32896
4733,33728
4734,34240
4735,34688
4736,34944
4737,35008
4738,34880
4739,34816
4740,34816
4741,34752
4742,34560
4743,34496
4744,34496
4745,34432
4746,34304
4747,34240
4748,34240
4749,34304
4750,34240
4751,34176
4752,34304
4753,34368
4754,34304
4755,34304
4756,34432
4757,34496
4758,34496
4759,34432
4760,34432
4761,34496
4762,34432
4763,34432
4764,34560
4765,34624
4766,34752
4767,34752
4768,34816
4769,34880
4770,34944
4771,34944
4772,34944
4773,35072
4774,35200
4775,35136
4776,35136
4777,35200
4778,35264
4779,35200
4780,35136
4781,35200
4782,35200
4783,35136
4784,35008
4785,35008
4786,35008
4787,34944
4788,34880
4789,34816
4790,34816
4791,34688
4792,34496
4793,34368
4794,34304
4795,34176
4796,34048
4797,33920
4798,33856
4799,33792
4800,33728
4801,33664
4802,33728
4803,33792
4804,33792
4805,33792
4806,33792
4807,33856
4808,33792
4809,33728
4810,33792
4811,33856
4812,33856
4813,33792
4814,33856
4815,33920
4816,33920
4817,33920
4818,33920
4819,33984
4820,34048
4821,33920
4822,33856
4823,33856
4824,33856
4825,33856
4826,33792
4827,33856
4828,33920
4829,33856
4830,33792
4831,33792
4832,33856
4833,33856
4834,33792
4835,33792
4836,33856
4837,33920
4838,33856
4839,33856
4840,33856
4841,33856
4842,33792
4843,33728
4844,33792
4845,33856
4846,33856
4847,33792
4848,33792
4849,33792
4850,33792
4851,33792
4852,33792
4853,33920
4854,33856
4855,33792
4856,33792
4857,33856
4858,33920
4859,33856
4860,33792
4861,33792
4862,33792
4863,33728
4864,33792
4865,33856
4866,33792
4867,33792
4868,33792
4869,33856
4870,33856
4871,33792
4872,33728
4873,33856
4874,33920
4875,33856
4876,33792
4877,33856
4878,33920
4879,33920
4880,33856
4881,33856
4882,33856
4883,33856
4884,33792
4885,33792
4886,33856
4887,33856
4888,33856
4889,33920
4890,33984
4891,33984
4892,33920
4893,33856
4894,33920
4895,33920
4896,33856
4897,33856
4898,33856
4899,33920
4900,33920
4901,33856
4902,33920
4903,33984
4904,33984
4905,33920
4906,33920
4907,33984
4908,33984
4909,33920
4910,33920
4911,33984
4912,33984
4913,33920
4914,33920
4915,33984
4916,33984
4917,33920
4918,33920
4919,33984
4920,34048
4921,34048
4922,34112
4923,34240
4924,34368
4925,34368
4926,34432
4927,34496
4928,34560
4929,34560
4930,34496
4931,34560
4932,34624
4933,34624
4934,34496
4935,34496
4936,34432
4937,34368
4938,34176
4939,34048
4940,33984
4941,33920
4942,33792
4943,33600
4944,33536
4945,33536
4946,33536
4947,33536
4948,33600
4949,33664
4950,33664
4951,33728
4952,33792
4953,33920
4954,33920
4955,33920
4956,33920
4957,33984
4958,33920
4959,33856
4960,33856
4961,33984
4962,33984
4963,33920
4964,33856
4965,33920
4966,33920
4967,33920
4968,34048
4969,34432
4970,34944
4971,35712
4972,36800
4973,38144
4974,39488
4975,39232
4976,37440
4977,35008
4978,32960
4979,31488
4980,30592
4981,30272
4982,30464
4983,30912
4984,31680
4985,32640
4986,33536
4987,34176
4988,34624
4989,34944
4990,35072
4991,35008
4992,34880
4993,34752
4994,34688
4995,34560
4996,34432
4997,34368
4998,34304
4999,34304
5000,34240
5001,34176
5002,34176
5003,34240
5004,34240
5005,34240
5006,34240
5007,34304
5008,34368
5009,34304
5010,34368
5011,34432
5012,34432
5013,34368
5014,34368
5015,34432
5016,34496
5017,34496
5018,34496
5019,34624
5020,34688
5021,34624
5022,34624
5023,34688
5024,34752
5025,34752
5026,34816
5027,34944
5028,35072
5029,35072
5030,35072
5031,35072
5032,35136
5033,35072
5034,35072
5035,35072
5036,35072
5037,35072
5038,35008
5039,35008
5040,34944
5041,34944
5042,34816
5043,34688
5044,34624
5045,34560
5046,34368
5047,34240
5048,34176
5049,34048
5050,33984
5051,33792
5052,33728
5053,33728
5054,33664
5055,33600
5056,33600
5057,33664
5058,33600
5059,33600
5060,33600
5061,33664
5062,33664
5063,33664
5064,33664
5065,33728
5066,33792
5067,33792
5068,33792
5069,33856
5070,33856
5071,33792
5072,33792
5073,33792
5074,33856
5075,33792
5076,33728
5077,33792
5078,33792
5079,33792
5080,33664
5081,33664
5082,33728
5083,33728
5084,33728
5085,33728
5086,33728
5087,33728
5088,33664
5089,33728
5090,33856
5091,33856
5092,33792
5093,33728
5094,33728
5095,33728
5096,33728
5097,33728
5098,33728
5099,33728
5100,33728
5101,33664
5102,33664
5103,33728
5104,33728
5105,33664
5106,33728
5107,33792
5108,33792
5109,33728
5110,33728
5111,33856
5112,33856
5113,33792
5114,33792
5115,33856
5116,33856
5117,33728
5118,33728
5119,33728
5120,33728
5121,33728
5122,33728
5123,33728
5124,33856
5125,33856
5126,33792
5127,33792
5128,33792
5129,33728
5130,33664
5131,33664
5132,33728
5133,33792
5134,33728
5135,33792
5136,33792
5137,33792
5138,33728
5139,33664
5140,33664
5141,33664
5142,33664
5143,33728
5144,33792
5145,33856
5146,33856
5147,33856
5148,33856
5149,33792
5150,33728
5151,33664
5152,33664
5153,33728
5154,33792
5155,33792
5156,33792
5157,33856
5158,33856
5159,33792
5160,33856
5161,33920
5162,33920
5163,33856
5164,33792
5165,33856
5166,33856
5167,33856
5168,33792
5169,33920
5170,33984
5171,33984
5172,33984
5173,34112
5174,34176
5175,34176
5176,34176
5177,34304
5178,34368
5179,34368
5180,34304
5181,34368
5182,34368
5183,34368
5184,34304
5185,34304
5186,34304
5187,34304
5188,34176
5189,34112
5190,34048
5191,33984
5192,33856
5193,33728
5194,33664
5195,33600
5196,33408
5197,33344
5198,33408
5199,33472
5200,33472
5201,33536
5202,33600
5203,33728
5204,33792
5205,33728
5206,33728
5207,33792
5208,33792
5209,33792
5210,33856
5211,33984
5212,33920
5213,33856
5214,33792
5215,33856
5216,33792
5217,33792
5218,33792
5219,33984
5220,34432
5221,34944
5222,35712
5223,36736
5224,37888
5225,38656
5226,37824
5227,35968
5228,33984
5229,32384
5230,31424
5231,30976
5232,30912
5233,31168
5234,31488
5235,32064
5236,32768
5237,33408
5238,33920
5239,34304
5240,34624
5241,34752
5242,34752
5243,34688
5244,34624
5245,34624
5246,34496
5247,34304
5248,34176
5249,34176
5250,34112
5251,34048
5252,34048
5253,34112
5254,34112
5255,33984
5256,33984
5257,34048
5258,34112
5259,34112
5260,34176
5261,34304
5262,34304
5263,34240
5264,34240
5265,34304
5266,34368
5267,34368
5268,34368
5269,34432
5270,34432
5271,34432
5272,34432
5273,34560
5274,34688
5275,34688
5276,34688
5277,34688
5278,34816
5279,34816
5280,34816
5281,34880
5282,34944
5283,35008
5284,34944
5285,34944
5286,35008
5287,34944
5288,34816
5289,34752
5290,34752
5291,34752
5292,34624
5293,34560
5294,34496
5295,34432
5296,34304
5297,34176
5298,34112
5299,34112
5300,33920
5301,33728
5302,33728
5303,33664
5304,33600
5305,33536
5306,33536
5307,33536
5308,33536
5309,33536
5310,33536
5311,33664
5312,33664
5313,33600
5314,33536
5315,33600
5316,33664
5317,33664
5318,33664
5319,33728
5320,33856
5321,33856
5322,33792
5323,33792
5324,33856
5325,33856
5326,33792
5327,33728
5328,33792
5329,33792
5330,33792
5331,33792
5332,33728
5333,33728
5334,33664
5335,33664
5336,33728
5337,33792
5338,33792
5339,33792
5340,33792
5341,33792
5342,33792
5343,33728
5344,33792
5345,33792
5346,33792
5347,33792
5348,33792
5349,33856
5350,33856
5351,33856
5352,33856
5353,33856
5354,33856
5355,33792
5356,33728
5357,33728
5358,33728
5359,33728
5360,33728
5361,33728
5362,33728
5363,33728
5364,33728
5365,33728
5366,33792
5367,33856
5368,33792
5369,33792
5370,33856
5371,33728
5372,33664
5373,33664
5374,33664
5375,33664
5376,33664
5377,33728
5378,33792
5379,33728
5380,33728
5381,33728
5382,33792
5383,33856
5384,33856
5385,33856
5386,33856
5387,33920
5388,33856
5389,33792
5390,33856
5391,33856
5392,33856
5393,33792
5394,33856
5395,33856
5396,33856
5397,33792
5398,33856
5399,33920
5400,33920
5401,33920
5402,33984
5403,34112
5404,34112
5405,34112
5406,34112
5407,34176
5408,34240
5409,34240
5410,34304
5411,34304
5412,34368
5413,34240
5414,34240
5415,34304
5416,34304
5417,34112
5418,33984
5419,33856
5420,33792
5421,33536
5422,33408
5423,33408
5424,33472
5425,33472
5426,33472
5427,33536
5428,33664
5429,33728
5430,33792
5431,33856
5432,33856
5433,33856
5434,33792
5435,33728
5436,33792
5437,33792
5438,33792
5439,33792
5440,33856
5441,33856
5442,33856
5443,33856
5444,33920
5445,33984
5446,33984
5447,34112
5448,34432
5449,35008
5450,35904
5451,36608
5452,37696
5453,38144
5454,37120
5455,35328
5456,33728
5457,32704
5458,32192
5459,31872
5460,31872
5461,32000
5462,32128
5463,32384
5464,32768
5465,33344
5466,33792
5467,34048
5468,34304
5469,34560
5470,34688
5471,34688
5472,34560
5473,34496
5474,34432
5475,34368
5476,34176
5477,34176
5478,34176
5479,34176
5480,34176
5481,34176
5482,34240
5483,34304
5484,34240
5485,34240
5486,34368
5487,34432
5488,34368
5489,34368
5490,34368
5491,34432
5492,34304
5493,34240
5494,34240
5495,34240
5496,34304
5497,34368
5498,34432
5499,34560
5500,34624
5501,34688
5502,34816
5503,34944
5504,34944
5505,34944
5506,34944
5507,34944
5508,35008
5509,35008
5510,35008
5511,34944
5512,34944
5513,34816
5514,34752
5515,34816
5516,34880
5517,34816
5518,34688
5519,34688
5520,34688
5521,34624
5522,34496
5523,34432
5524,34368
5525,34304
5526,34176
5527,34048
5528,33920
5529,33792
5530,33664
5531,33664
5532,33664
5533,33664
5534,33600
5535,33600
5536,33600
5537,33664
5538,33600
5539,33600
5540,33728
5541,33792
5542,33856
5543,33856
5544,33920
5545,33984
5546,33920
5547,33920
5548,33920
5549,33984
5550,33920
5551,33792
5552,33792
5553,33792
5554,33856
5555,33856
5556,33856
5557,33984
5558,33984
5559,33920
5560,33920
5561,33920
5562,33920
5563,33856
5564,33856
5565,33920
5566,33984
5567,33984
5568,33920
5569,33920
5570,33920
5571,33856
5572,33792
5573,33792
5574,33920
5575,33984
5576,33920
5577,33920
5578,33920
5579,33920
5580,33856
5581,33856
5582,33920
5583,33920
5584,33856
5585,33792
5586,33792
5587,33792
5588,33728
5589,33728
5590,33792
5591,33856
5592,33792
5593,33728
5594,33792
5595,33856
5596,33856
5597,33920
5598,34048
5599,34176
5600,34240
5601,34176
5602,34112
5603,34176
5604,34240
5605,34240
5606,34368
5607,34432
5608,34432
5609,34304
5610,34176
5611,34112
5612,34176
5613,34112
5614,34112
5615,34112
5616,34048
5617,33920
5618,33664
5619,33536
5620,33472
5621,33408
5622,33344
5623,33408
5624,33536
5625,33600
5626,33600
5627,33664
5628,33728
5629,33728
5630,33728
5631,33728
5632,33792
5633,33792
5634,33728
5635,33792
5636,33856
5637,33856
5638,33856
5639,33856
5640,33856
5641,33856
5642,33792
5643,33728
5644,33792
5645,33920
5646,34240
5647,34688
5648,35392
5649,36288
5650,37184
5651,38080
5652,37888
5653,36544
5654,34816
5655,33344
5656,32576
5657,32192
5658,32000
5659,31872
5660,31872
5661,32064
5662,32384
5663,32832
5664,33280
5665,33728
5666,34176
5667,34432
5668,34560
5669,34624
5670,34752
5671,34752
5672,34688
5673,34560
5674,34432
5675,34240
5676,34112
5677,34048
5678,34112
5679,34112
5680,34048
5681,34048
5682,34176
5683,34240
5684,34240
5685,34240
5686,34368
5687,34432
5688,34432
5689,34496
5690,34560
5691,34496
5692,34432
5693,34368
5694,34432
5695,34496
5696,34560
5697,34624
5698,34688
5699,34752
5700,34752
5701,34688
5702,34688
5703,34752
5704,34816
5705,34880
5706,34880
5707,34944
5708,35008
5709,34944
5710,34944
5711,35008
5712,35072
5713,35008
5714,35008
5715,34944
5716,34944
5717,34880
5718,34624
5719,34496
5720,34368
5721,34240
5722,34112
5723,34112
5724,34112
5725,34048
5726,33984
5727,33856
5728,33856
5729,33856
5730,33728
5731,33728
5732,33792
5733,33856
5734,33792
5735,33792
5736,33856
5737,33856
5738,33728
5739,33536
5740,33600
5741,33728
5742,33728
5743,33728
5744,33792
5745,33856
5746,33856
5747,33856
5748,33856
5749,33920
5750,33984
5751,33984
5752,33984
5753,34048
5754,34048
5755,33984
5756,33920
5757,33920
5758,33920
5759,33856
5760,33792
5761,33856
5762,33920
5763,33856
5764,33792
5765,33920
5766,33984
5767,33984
5768,33920
5769,33856
5770,33920
5771,33920
5772,33856
5773,33856
5774,33920
5775,33920
5776,33920
5777,33856
5778,33920
5779,33920
5780,33856
5781,33856
5782,33920
5783,33984
5784,33984
5785,33984
5786,33984
5787,34112
5788,34112
5789,34112
5790,34176
5791,34304
5792,34432
5793,34560
5794,34624
5795,34624
5796,34560
5797,34496
5798,34432
5799,34432
5800,34368
5801,34240
5802,34112
5803,33984
5804,33728
5805,33472
5806,33280
5807,33216
5808,33280
5809,33280
5810,33344
5811,33472
5812,33600
5813,33600
5814,33600
5815,33664
5816,33792
5817,33792
5818,33728
5819,33728
5820,33792
5821,33856
5822,33792
5823,33728
5824,33792
5825,33792
5826,33728
5827,33728
5828,33728
5829,33792
5830,33792
5831,33856
5832,34048
5833,34432
5834,34816
5835,35392
5836,36224
5837,37184
5838,38208
5839,38016
5840,36672
5841,34944
5842,33344
5843,32320
5844,31808
5845,31616
5846,31552
5847,31680
5848,32000
5849,32512
5850,33024
5851,33472
5852,33856
5853,34176
5854,34368
5855,34496
5856,34560
5857,34560
5858,34560
5859,34496
5860,34368
5861,34368
5862,34368
5863,34304
5864,34176
5865,34176
5866,34304
5867,34304
5868,34240
5869,34176
5870,34240
5871,34240
5872,34176
5873,34240
5874,34304
5875,34368
5876,34368
5877,34368
5878,34432
5879,34432
5880,34496
5881,34496
5882,34560
5883,34560
5884,34624
5885,34560
5886,34624
5887,34688
5888,34752
5889,34752
5890,34816
5891,34816
5892,34880
5893,34816
5894,34880
5895,34944
5896,35008
5897,34944
5898,34944
5899,34944
5900,34944
5901,34880
5902,34816
5903,34816
5904,34816
5905,34624
5906,34496
5907,34432
5908,34432
5909,34304
5910,34176
5911,34048
5912,33984
5913,33856
5914,33728
5915,33664
5916,33600
5917,33600
5918,33536
5919,33536
5920,33664
5921,33728
5922,33664
5923,33728
5924,33792
5925,33856
5926,33792
5927,33728
5928,33792
5929,33792
5930,33792
5931,33792
5932,33792
5933,33856
5934,33856
5935,33856
5936,33920
5937,33984
5938,33920
5939,33920
5940,33920
5941,33920
5942,33920
5943,33792
5944,33792
5945,33856
5946,33856
5947,33792
5948,33856
5949,33984
5950,34048
5951,33984
5952,33920
5953,33920
5954,33984
5955,33920
5956,33856
5957,33920
5958,34048
5959,33984
5960,33920
5961,33920
5962,33984
5963,33984
5964,33920
5965,33856
5966,33920
5967,33920
5968,33856
5969,33856
5970,33920
5971,33856
5972,33792
5973,33792
5974,33920
5975,34048
5976,34112
5977,34176
5978,34240
5979,34240
5980,34240
5981,34240
5982,34432
5983,34688
5984,34752
5985,34752
5986,34688
5987,34624
5988,34560
5989,34432
5990,34368
5991,34304
5992,34240
5993,34048
5994,33792
5995,33664
5996,33536
5997,33344
5998,33280
5999,33344
6000,33408
6001,33408
6002,33472
6003,33536
6004,33664
6005,33664
6006,33664
6007,33728
6008,33792
6009,33792
6010,33792
6011,33856
6012,33856
6013,33856
6014,33792
6015,33792
6016,33856
6017,33856
6018,33792
6019,33792
6020,33856
6021,33920
6022,34048
6023,34304
6024,34816
6025,35392
6026,36160
6027,36992
6028,38080
6029,38656
6030,37696
6031,35840
6032,33920
6033,32512
6034,31680
6035,31104
6036,31040
6037,31232
6038,31552
6039,32064
6040,32704
6041,33408
6042,33920
6043,34304
6044,34560
6045,34688
6046,34752
6047,34688
6048,34624
6049,34560
6050,34496
6051,34368
6052,34240
6053,34240
6054,34304
6055,34240
6056,34176
6057,34176
6058,34240
6059,34240
6060,34240
6061,34240
6062,34304
6063,34304
6064,34240
6065,34304
6066,34432
6067,34432
6068,34432
6069,34368
6070,34496
6071,34496
6072,34560
6073,34560
6074,34688
6075,34752
6076,34752
6077,34688
6078,34752
6079,34880
6080,34944
6081,34880
6082,34944
6083,35072
6084,35072
6085,35072
6086,35072
6087,35136
6088,35072
6089,35008
6090,35008
6091,35008
6092,35008
6093,34880
6094,34816
6095,34816
6096,34752
6097,34624
6098,34496
6099,34368
6100,34304
6101,34176
6102,34048
6103,33920
6104,33920
6105,33792
6106,33728
6107,33728
6108,33728
6109,33728
6110,33664
6111,33728
6112,33792
6113,33792
6114,33728
6115,33792
6116,33856
6117,33920
6118,33856
6119,33856
6120,33920
6121,33984
6122,33920
6123,33920
6124,33984
6125,33984
6126,33984
6127,33920
6128,33920
6129,33920
6130,33920
6131,33856
6132,33920
6133,33984
6134,33984
6135,33920
6136,33920
6137,33984
6138,33984
6139,33920
6140,33984
6141,33984
6142,34048
6143,33984
6144,33984
6145,34048
6146,34112
6147,34048
6148,33984
6149,33984
6150,33984
6151,33984
6152,33984
6153,33984
6154,33984
6155,33920
6156,33856
6157,33856
6158,33856
6159,33856
6160,33856
6161,33856
6162,33920
6163,33920
6164,33920
6165,33920
6166,33984
6167,33984
6168,33920
6169,33920
6170,33984
6171,33984
6172,33920
6173,33856
6174,33920
6175,33920
6176,33920
6177,33920
6178,33984
6179,33984
6180,33984
6181,33920
6182,33920
6183,34048
6184,34048
6185,34112
6186,34176
6187,34304
6188,34368
6189,34304
6190,34368
6191,34432
6192,34496
6193,34496
6194,34560
6195,34688
6196,34752
6197,34688
6198,34560
6199,34496
6200,34432
6201,34368
6202,34176
6203,34176
6204,34112
6205,33984
6206,33728
6207,33664
6208,33600
6209,33536
6210,33472
6211,33536
6212,33600
6213,33664
6214,33664
6215,33792
6216,33856
6217,33920
6218,33920
6219,33920
6220,33984
6221,33984
6222,33920
6223,33920
6224,33920
6225,33984
6226,33984
6227,33856
6228,33856
6229,33920
6230,33856
6231,33856
6232,33920
6233,34112
6234,34368
6235,34752
6236,35328
6237,36288
6238,37312
6239,38656
6240,39616
6241,38976
6242,37056
6243,34624
6244,32576
6245,31040
6246,30528
6247,30272
6248,30400
6249,31040
6250,31936
6251,32768
6252,33600
6253,34176
6254,34688
6255,34944
6256,34944
6257,34944
6258,34944
6259,34880
6260,34688
6261,34688
6262,34624
6263,34496
6264,34368
6265,34240
6266,34240
6267,34240
6268,34176
6269,34176
6270,34240
6271,34304
6272,34240
6273,34304
6274,34304
6275,34368
6276,34432
6277,34368
6278,34496
6279,34560
6280,34496
6281,34560
6282,34624
6283,34688
6284,34688
6285,34688
6286,34752
6287,34816
6288,34816
6289,34880
6290,34816
6291,35008
6292,35008
6293,35008
6294,35072
6295,35200
6296,35200
6297,35136
6298,35200
6299,35264
6300,35200
6301,35136
6302,35072
6303,35136
6304,35008
6305,34944
6306,34880
6307,34880
6308,34752
6309,34560
6310,34432
6311,34304
6312,34176
6313,34048
6314,33920
6315,33920
6316,33856
6317,33792
6318,33728
6319,33728
6320,33728
6321,33664
6322,33664
6323,33728
6324,33856
6325,33856
6326,33728
6327,33728
6328,33856
6329,33856
6330,33792
6331,33856
6332,33856
6333,33920
6334,33856
6335,33856
6336,33920
6337,33920
6338,33856
6339,33856
6340,33920
6341,33984
6342,33920
6343,33920
6344,33920
6345,33920
6346,33856
6347,33792
6348,33792
6349,33856
6350,33792
6351,33792
6352,33792
6353,33856
6354,33856
6355,33856
6356,33856
6357,33856
6358,33856
6359,33792
6360,33792
6361,33856
6362,33856
6363,33792
6364,33792
6365,33728
6366,33728
6367,33792
6368,33728
6369,33792
6370,33856
6371,33792
6372,33792
6373,33792
6374,33920
6375,33920
6376,33856
6377,33856
6378,33920
6379,33920
6380,33920
6381,33920
6382,33984
6383,33984
6384,33920
6385,33920
6386,33984
6387,34048
6388,33984
6389,33856
6390,33920
6391,33920
6392,33856
6393,33856
6394,33984
6395,33920
6396,33920
6397,33920
6398,33856
6399,33920
6400,33920
6401,33920
6402,33920
6403,33984
6404,33984
6405,33920
6406,33856
6407,33984
6408,33984
6409,33920
6410,33856
6411,33920
6412,33920
6413,33920
6414,33920
6415,33920
6416,33984
6417,33920
6418,33920
6419,34048
6420,34176
6421,34240
6422,34240
6423,34304
6424,34496
6425,34432
6426,34432
6427,34432
6428,34496
6429,34560
6430,34432
6431,34368
6432,34432
6433,34368
6434,34304
6435,34240
6436,34304
6437,34304
6438,34112
6439,33984
6440,33920
6441,33792
6442,33664
6443,33536
6444,33536
6445,33664
6446,33664
6447,33664
6448,33728
6449,33856
6450,33856
6451,33792
6452,33856
6453,33920
6454,33984
6455,33984
6456,33984
6457,33984
6458,33984
6459,33920
6460,33920
6461,33984
6462,34048
6463,33984
6464,33920
6465,33920
6466,33984
6467,33984
6468,34240
6469,35008
6470,35008
6471,36352
6472,37568
6473,39104
6474,39872
6475,38848
6476,36608
6477,34176
6478,32256
6479,31040
6480,30400
6481,30208
6482,30592
6483,31296
6484,32192
6485,32960
6486,33728
6487,34368
6488,34688
6489,34816
6490,34880
6491,34944
6492,34816
6493,34688
6494,34624
6495,34624
6496,34560
6497,34432
6498,34368
6499,34368
6500,34304
6501,34240
6502,34240
6503,34304
6504,34368
6505,34368
6506,34368
6507,34368
6508,34432
6509,34368
6510,34304
6511,34368
6512,34432
6513,34432
6514,34496
6515,34432
6516,34624
6517,34624
6518,34688
6519,34688
6520,34752
6521,34752
6522,34752
6523,34880
6524,35008
6525,35008
6526,35072
6527,35072
6528,35136
6529,35136
6530,35072
6531,35072
6532,35136
6533,35136
6534,35136
6535,35072
6536,35072
6537,35136
6538,35072
6539,34944
6540,34944
6541,34944
6542,34816
6543,34688
6544,34624
6545,34496
6546,34368
6547,34240
6548,34176
6549,34112
6550,33984
6551,33920
6552,33856
6553,33856
6554,33792
6555,33664
6556,33536
6557,33600
6558,33664
6559,33664
6560,33664
6561,33792
6562,33792
6563,33728
6564,33728
6565,33728
6566,33792
6567,33856
6568,33856
6569,33920
6570,33984
6571,33984
6572,33920
6573,33920
6574,33984
6575,33920
6576,33856
6577,33856
6578,33984
6579,33984
6580,33856
6581,33728
6582,33728
6583,33728
6584,33792
6585,33792
6586,33792
6587,33792
6588,33728
6589,33728
6590,33728
6591,33856
6592,33856
6593,33728
6594,33792
6595,33856
6596,33856
6597,33728
6598,33728
6599,33792
6600,33856
6601,33856
6602,33792
6603,33856
6604,33856
6605,33792
6606,33728
6607,33792
6608,33792
6609,33728
6610,33728
6611,33856
6612,33920
6613,33984
6614,33920
6615,33920
6616,33984
6617,33920
6618,33856
6619,33856
6620,33984
6621,33984
6622,33920
6623,33856
6624,33856
6625,33856
6626,33856
6627,33920
6628,34048
6629,33984
6630,33856
6631,33856
6632,33856
6633,33920
6634,33856
6635,33856
6636,33920
6637,33984
6638,33920
6639,33856
6640,33920
6641,33920
6642,33920
6643,33920
6644,33984
6645,34112
6646,34048
6647,33920
6648,33920
6649,33920
6650,33920
6651,33856
6652,33792
6653,33792
6654,33856
6655,33856
6656,33920
6657,33920
6658,33984
6659,33920
6660,33856
6661,33920
6662,33984
6663,34048
6664,33984
6665,34112
6666,34176
6667,34176
6668,34048
6669,34048
6670,33984
6671,33984
6672,33984
6673,34112
6674,34176
6675,34240
6676,34240
6677,34240
6678,34304
6679,34368
6680,34368
6681,34368
6682,34496
6683,34624
6684,34624
6685,34560
6686,34624
6687,34624
6688,34560
6689,34496
6690,34496
6691,34432
6692,34304
6693,34112
6694,33920
6695,33792
6696,33728
6697,33600
6698,33536
6699,33600
6700,33600
6701,33664
6702,33664
6703,33728
6704,33792
6705,33792
6706,33792
6707,33920
6708,33984
6709,33984
6710,33984
6711,34048
6712,34112
6713,34112
6714,34048
6715,34048
6716,34112
6717,33984
6718,33920
6719,33856
6720,33920
6721,34048
6722,34496
6723,35072
6724,35968
6725,36992
6726,38208
6727,39360
6728,39040
6729,37312
6730,34880
6731,32768
6732,31424
6733,30720
6734,30464
6735,30528
6736,31040
6737,31872
6738,32704
6739,33472
6740,34176
6741,34688
6742,34880
6743,34944
6744,34880
6745,34880
6746,34752
6747,34560
6748,34496
6749,34432
6750,34368
6751,34304
6752,34240
6753,34304
6754,34304
6755,34240
6756,34240
6757,34240
6758,34240
6759,34176
6760,34176
6761,34304
6762,34368
6763,34368
6764,34304
6765,34304
6766,34368
6767,34368
6768,34304
6769,34368
6770,34496
6771,34560
6772,34496
6773,34624
6774,34688
6775,34752
6776,34688
6777,34688
6778,34752
6779,34880
6780,34944
6781,34944
6782,35008
6783,35072
6784,35008
6785,34944
6786,35008
6787,35072
6788,35008
6789,34880
6790,34880
6791,34944
6792,34944
6793,34816
6794,34752
6795,34752
6796,34688
6797,34560
6798,34496
6799,34432
6800,34368
6801,34240
6802,34112
6803,34048
6804,33984
6805,33728
6806,33600
6807,33536
6808,33536
6809,33536
6810,33536
6811,33536
6812,33600
6813,33600
6814,33600
6815,33600
6816,33664
6817,33728
6818,33728
6819,33728
6820,33792
6821,33792
6822,33728
6823,33728
6824,33728
6825,33792
6826,33792
6827,33792
6828,33856
6829,33856
6830,33728
6831,33600
6832,33600
6833,33600
6834,33600
6835,33600
6836,33664
6837,33728
6838,33728
6839,33728
6840,33792
6841,33856
6842,33792
6843,33792
6844,33792
6845,33856
6846,33856
6847,33728
6848,33664
6849,33728
6850,33728
6851,33600
6852,33472
6853,33472
6854,33536
6855,33600
6856,33600
6857,33728
6858,33856
6859,33792
6860,33728
6861,33728
6862,33728
6863,33728
6864,33728
6865,33728
6866,33792
6867,33856
6868,33792
6869,33728
6870,33728
6871,33728
6872,33664
6873,33664
6874,33728
6875,33728
6876,33664
6877,33536
6878,33600
6879,33664
6880,33664
6881,33728
6882,33792
6883,33856
6884,33856
6885,33792
6886,33792
6887,33856
6888,33792
6889,33728
6890,33728
6891,33728
6892,33792
6893,33728
6894,33664
6895,33728
6896,33792
6897,33792
6898,33792
6899,33856
6900,33920
6901,33856
6902,33792
6903,33792
6904,33792
6905,33792
6906,33792
6907,33856
6908,33920
6909,33920
6910,33856
6911,33856
6912,33856
6913,33792
6914,33728
6915,33792
6916,33856
6917,33856
6918,33856
6919,33856
6920,33920
6921,33920
6922,33920
6923,33920
6924,33984
6925,34048
6926,34048
6927,33984
6928,34048
6929,34112
6930,34112
6931,34176
6932,34176
6933,34240
6934,34240
6935,34240
6936,34304
6937,34368
6938,34432
6939,34368
6940,34368
6941,34432
6942,34432
6943,34304
6944,34240
6945,34240
6946,34176
6947,34048
6948,33856
6949,33728
6950,33536
6951,33408
6952,33344
6953,33408
6954,33536
6955,33536
6956,33600
6957,33664
6958,33792
6959,33856
6960,33856
6961,33856
6962,33984
6963,33984
6964,33920
6965,33920
6966,34048
6967,34112
6968,33984
6969,33920
6970,33856
6971,33856
6972,33792
6973,33856
6974,33984
6975,34240
6976,34560
6977,35008
6978,35776
6979,36672
6980,37760
6981,38272
6982,37440
6983,35712
6984,33920
6985,32576
6986,31936
6987,31680
6988,31616
6989,31744
6990,32000
6991,32448
6992,32960
6993,33408
6994,33856
6995,34368
6996,34624
6997,34752
6998,34752
6999,34752
7000,34752
7001,34624
7002,34496
7003,34368
7004,34304
7005,34240
7006,34112
7007,34112
7008,34176
7009,34176
7010,34112
7011,34112
7012,34176
7013,34176
7014,34112
7015,34176
7016,34304
7017,34368
7018,34304
7019,34368
7020,34432
7021,34432
7022,34432
7023,34432
7024,34624
7025,34624
7026,34560
7027,34432
7028,34496
7029,34496
7030,34496
7031,34560
7032,34624
7033,34752
7034,34752
7035,34752
7036,34752
7037,34816
7038,34880
7039,34880
7040,34880
7041,34944
7042,35008
7043,34944
7044,34880
7045,34880
7046,34880
7047,34752
7048,34688
7049,34688
7050,34688
7051,34560
7052,34432
7053,34304
7054,34240
7055,34112
7056,33984
7057,33920
7058,33856
7059,33792
7060,33728
7061,33664
7062,33600
7063,33600
7064,33536
7065,33536
7066,33600
7067,33728
7068,33728
7069,33728
7070,33728
7071,33792
7072,33792
7073,33792
7074,33856
7075,33856
7076,33856
7077,33792
7078,33792
7079,33856
7080,33856
7081,33792
7082,33792
7083,33920
7084,33920
7085,33856
7086,33856
7087,33920
7088,33920
7089,33792
7090,33728
7091,33792
7092,33856
7093,33856
7094,33856
7095,33856
7096,33856
7097,33792
7098,33664
7099,33728
7100,33792
7101,33792
7102,33728
7103,33728
7104,33856
7105,33856
7106,33792
7107,33856
7108,33920
7109,33856
7110,33792
7111,33792
7112,33856
7113,33856
7114,33728
7115,33664
7116,33664
7117,33728
7118,33664
7119,33664
7120,33664
7121,33728
7122,33728
7123,33728
7124,33792
7125,33856
7126,33792
7127,33728
7128,33728
7129,33792
7130,33792
7131,33728
7132,33728
7133,33792
7134,33792
7135,33664
7136,33728
7137,33728
7138,33792
7139,33792
7140,33856
7141,33920
7142,33920
7143,33856
7144,33792
7145,33792
7146,33856
7147,33856
7148,33856
7149,33984
7150,34112
7151,34112
7152,34048
7153,33984
7154,34048
7155,34112
7156,34112
7157,34240
7158,34368
7159,34368
7160,34304
7161,34304
7162,34240
7163,34304
7164,34240
7165,34176
7166,34112
7167,34048
7168,33920
7169,33728
7170,33664
7171,33600
7172,33472
7173,33472
7174,33472
7175,33472
7176,33536
7177,33536
7178,33664
7179,33728
7180,33792
7181,33792
7182,33792
7183,33856
7184,33856
7185,33856
7186,33856
7187,33920
7188,34048
7189,33984
7190,33984
7191,34048
7192,34048
7193,33920
7194,33856
7195,33920
7196,34176
7197,34496
7198,34944
7199,35712
7200,36544
7201,37504
7202,38208
7203,37632
7204,36096
7205,34304
7206,32960
7207,32192
7208,31936
7209,31808
7210,31872
7211,32064
7212,32320
7213,32768
7214,33216
7215,33600
7216,34048
7217,34368
7218,34560
7219,34688
7220,34688
7221,34752
7222,34688
7223,34560
7224,34496
7225,34496
7226,34368
7227,34304
7228,34304
7229,34368
7230,34432
7231,34304
7232,34240
7233,34240
7234,34176
7235,34112
7236,34112
7237,34176
7238,34240
7239,34240
7240,34304
7241,34432
7242,34560
7243,34560
7244,34560
7245,34624
7246,34688
7247,34624
7248,34624
7249,34688
7250,34752
7251,34816
7252,34752
7253,34816
7254,34880
7255,34944
7256,34944
7257,35008
7258,35072
7259,35072
7260,35072
7261,35072
7262,35072
7263,35072
7264,34944
7265,34880
7266,34816
7267,34816
7268,34752
7269,34688
7270,34688
7271,34624
7272,34496
7273,34368
7274,34368
7275,34304
7276,34176
7277,34048
7278,33984
7279,33984
7280,33920
7281,33792
7282,33792
7283,33856
7284,33856
7285,33728
7286,33664
7287,33728
7288,33728
7289,33728
7290,33792
7291,33856
7292,33920
7293,33856
7294,33792
7295,33856
7296,33856
7297,33856
7298,33856
7299,33856
7300,33920
7301,33984
7302,33920
7303,33920
7304,33984
7305,33984
7306,33920
7307,33920
7308,33984
7309,33984
7310,33984
7311,33984
7312,33984
7313,33984
7314,33920
7315,33920
7316,33984
7317,34048
7318,33984
7319,33984
7320,34048
7321,34048
7322,33984
7323,33856
7324,33856
7325,33856
7326,33856
7327,33792
7328,33856
7329,33856
7330,33856
7331,33792
7332,33792
7333,33856
7334,33920
7335,33920
7336,33920
7337,33856
7338,33856
7339,33856
7340,33856
7341,33920
7342,33984
7343,33920
7344,33856
7345,33856
7346,33856
7347,33792
7348,33728
7349,33792
7350,33856
7351,33920
7352,33984
7353,34048
7354,34176
7355,34240
7356,34176
7357,34176
7358,34304
7359,34496
7360,34624
7361,34624
7362,34624
7363,34496
7364,34304
7365,34176
7366,34240
7367,34240
7368,34176
7369,34112
7370,33984
7371,33920
7372,33728
7373,33472
7374,33408
7375,33408
7376,33408
7377,33408
7378,33536
7379,33728
7380,33728
7381,33664
7382,33664
7383,33728
7384,33728
7385,33728
7386,33728
7387,33792
7388,33920
7389,33920
7390,33920
7391,33984
7392,33984
7393,33920
7394,33856
7395,33792
7396,33792
7397,33792
7398,33792
7399,33984
7400,34432
7401,34880
7402,35520
7403,36352
7404,37312
7405,38336
7406,38144
7407,36672
7408,35008
7409,33536
7410,32512
7411,32000
7412,31744
7413,31680
7414,31808
7415,32000
7416,32384
7417,32832
7418,33280
7419,33728
7420,34112
7421,34496
7422,34688
7423,34688
7424,34688
7425,34624
7426,34496
7427,34304
7428,34240
7429,34176
7430,34176
7431,34112
7432,34112
7433,34112
7434,34176
7435,34112
7436,34112
7437,34176
7438,34176
7439,34240
7440,34240
7441,34304
7442,34304
7443,34304
7444,34304
7445,34304
7446,34368
7447,34368
7448,34368
7449,34432
7450,34496
7451,34560
7452,34560
7453,34624
7454,34752
7455,34816
7456,34752
7457,34688
7458,34752
7459,34816
7460,34752
7461,34752
7462,34816
7463,34880
7464,34880
7465,34880
7466,34944
7467,34944
7468,34944
7469,34816
7470,34816
7471,34816
7472,34688
7473,34560
7474,34432
7475,34368
7476,34240
7477,34112
7478,33984
7479,33920
7480,33856
7481,33792
7482,33728
7483,33664
7484,33664
7485,33536
7486,33536
7487,33600
7488,33664
7489,33600
7490,33600
7491,33600
7492,33664
7493,33664
7494,33600
7495,33664
7496,33792
7497,33856
7498,33792
7499,33792
7500,33856
7501,33856
7502,33728
7503,33728
7504,33728
7505,33728
7506,33728
7507,33728
7508,33856
7509,33920
7510,33856
7511,33856
7512,33920
7513,33984
7514,33920
7515,33920
7516,33920
7517,33984
7518,33920
7519,33856
7520,33856
7521,33920
7522,33920
7523,33920
7524,33856
7525,33984
7526,33920
7527,33792
7528,33792
7529,33856
7530,33856
7531,33856
7532,33792
7533,33792
7534,33792
7535,33728
7536,33728
7537,33728
7538,33792
7539,33856
7540,33792
7541,33856
7542,33984
7543,33984
7544,33920
7545,33984
7546,34048
7547,34048
7548,34048
7549,34112
7550,34176
7551,34304
7552,34368
7553,34496
7554,34624
7555,34560
7556,34496
7557,34432
7558,34368
7559,34368
7560,34240
7561,34112
7562,34048
7563,33984
7564,33792
7565,33536
7566,33344
7567,33280
7568,33280
7569,33216
7570,33280
7571,33408
7572,33536
7573,33536
7574,33664
7575,33728
7576,33792
7577,33728
7578,33728
7579,33728
7580,33792
7581,33728
7582,33728
7583,33792
7584,33856
7585,33856
7586,33792
7587,33856
7588,33920
7589,33856
7590,33856
7591,33856
7592,34112
7593,34368
7594,34752
7595,35392
7596,36224
7597,37184
7598,38208
7599,38400
7600,37248
7601,35456
7602,33728
7603,32512
7604,31936
7605,31616
7606,31488
7607,31552
7608,31808
7609,32192
7610,32640
7611,33152
7612,33664
7613,34112
7614,34368
7615,34496
7616,34560
7617,34624
7618,34624
7619,34496
7620,34496
7621,34496
7622,34432
7623,34304
7624,34176
7625,34176
7626,34112
7627,34048
7628,34048
7629,34112
7630,34112
7631,34112
7632,34112
7633,34176
7634,34176
7635,34176
7636,34240
7637,34304
7638,34368
7639,34368
7640,34368
7641,34368
7642,34432
7643,34496
7644,34496
7645,34560
7646,34624
7647,34624
7648,34688
7649,34688
7650,34816
7651,34880
7652,34880
7653,34880
7654,34944
7655,35008
7656,35008
7657,34944
7658,34944
7659,34944
7660,35008
7661,34880
7662,34880
7663,34816
7664,34688
7665,34560
7666,34496
7667,34496
7668,34432
7669,34304
7670,34176
7671,34112
7672,33984
7673,33792
7674,33664
7675,33600
7676,33600
7677,33600
7678,33600
7679,33664
7680,33664
7681,33664
7682,33600
7683,33664
7684,33728
7685,33728
7686,33664
7687,33728
7688,33792
7689,33856
7690,33792
7691,33792
7692,33792
7693,33792
7694,33792
7695,33792
7696,33856
7697,33856
7698,33792
7699,33728
7700,33792
7701,33856
7702,33792
7703,33792
7704,33856
7705,33856
7706,33856
7707,33792
7708,33856
7709,33984
7710,33920
7711,33856
7712,33920
7713,34048
7714,34112
7715,33984
7716,33984
7717,33920
7718,33920
7719,33856
7720,33856
7721,33920
7722,33920
7723,33856
7724,33792
7725,33856
7726,33920
7727,33856
7728,33792
7729,33792
7730,33856
7731,33856
7732,33856
7733,33856
7734,33984
7735,33984
7736,34048
7737,34112
7738,34240
7739,34240
7740,34176
7741,34240
7742,34368
7743,34496
7744,34560
7745,34624
7746,34624
7747,34560
7748,34496
7749,34368
7750,34368
7751,34368
7752,34304
7753,34176
7754,34112
7755,33984
7756,33728
7757,33536
7758,33408
7759,33344
7760,33280
7761,33280
7762,33408
7763,33600
7764,33664
7765,33664
7766,33664
7767,33728
7768,33664
7769,33664
7770,33664
7771,33792
7772,33792
7773,33792
7774,33792
7775,33856
7776,33920
7777,33920
7778,33856
7779,33920
7780,33920
7781,33920
7782,33920
7783,33984
7784,34176
7785,34496
7786,34880
7787,35584
7788,36480
7789,37440
7790,38528
7791,38400
7792,37120
7793,35264
7794,33536
7795,32320
7796,31680
7797,31360
7798,31296
7799,31360
7800,31744
7801,32256
7802,32832
7803,33280
7804,33792
7805,34240
7806,34496
7807,34560
7808,34688
7809,34688
7810,34624
7811,34496
7812,34368
7813,34304
7814,34240
7815,34112
7816,34112
7817,34112
7818,34048
7819,34048
7820,34048
7821,34112
7822,34176
7823,34240
7824,34240
7825,34368
7826,34368
7827,34304
7828,34176
7829,34240
7830,34304
7831,34368
7832,34304
7833,34368
7834,34432
7835,34496
7836,34496
7837,34560
7838,34688
7839,34752
7840,34752
7841,34816
7842,34880
7843,34880
7844,34816
7845,34880
7846,34944
7847,35008
7848,34944
7849,34944
7850,35008
7851,35008
7852,35008
7853,34880
7854,34816
7855,34880
7856,34816
7857,34688
7858,34560
7859,34496
7860,34368
7861,34240
7862,34176
7863,34176
7864,34048
7865,33920
7866,33856
7867,33856
7868,33856
7869,33792
7870,33664
7871,33664
7872,33664
7873,33664
7874,33600
7875,33664
7876,33728
7877,33728
7878,33728
7879,33728
7880,33792
7881,33792
7882,33792
7883,33856
7884,33856
7885,33856
7886,33792
7887,33728
7888,33856
7889,33920
7890,33856
7891,33856
7892,33920
7893,34048
7894,33920
7895,33856
7896,33856
7897,33920
7898,33856
7899,33792
7900,33792
7901,33792
7902,33792
7903,33792
7904,33856
7905,33920
7906,33984
7907,33984
7908,34048
7909,34048
7910,33984
7911,33920
7912,33920
7913,33984
7914,33984
7915,33920
7916,33920
7917,33920
7918,33856
7919,33792
7920,33792
7921,33856
7922,33856
7923,33856
7924,33792
7925,33856
7926,33856
7927,33856
7928,33792
7929,33856
7930,33920
7931,33856
7932,33856
7933,33856
7934,33920
7935,33920
7936,33984
7937,34112
7938,34176
7939,34176
7940,34048
7941,34048
7942,34112
7943,34176
7944,34240
7945,34240
7946,34368
7947,34560
7948,34624
7949,34560
7950,34560
7951,34560
7952,34432
7953,34368
7954,34304
7955,34304
7956,34240
7957,34112
7958,34048
7959,33920
7960,33664
7961,33472
7962,33344
7963,33280
7964,33344
7965,33408
7966,33536
7967,33664
7968,33728
7969,33728
7970,33728
7971,33728
7972,33792
7973,33792
7974,33792
7975,33856
7976,33920
7977,33920
7978,33856
7979,33920
7980,33920
7981,33856
7982,33792
7983,33792
7984,33792
7985,33920
7986,33984
7987,34240
7988,34624
7989,35072
7990,35648
7991,36416
7992,37504
7993,38656
7994,38848
7995,37568
7996,35648
7997,33728
7998,32320
7999,31424
8000,30976
8001,30976
8002,31168
8003,31552
8004,32256
8005,33024
8006,33664
8007,34176
8008,34624
8009,34816
8010,34944
8011,34880
8012,34816
8013,34816
8014,34752
8015,34560
8016,34368
8017,34368
8018,34304
8019,34176
8020,34048
8021,34048
8022,34112
8023,34112
8024,34112
8025,34176
8026,34240
8027,34304
8028,34304
8029,34368
8030,34496
8031,34496
8032,34432
8033,34368
8034,34496
8035,34560
8036,34560
8037,34560
8038,34688
8039,34688
8040,34688
8041,34624
8042,34752
8043,34816
8044,34880
8045,34880
8046,34944
8047,34944
8048,35008
8049,35008
8050,35008
8051,35008
8052,34944
8053,34944
8054,34944
8055,35008
8056,35008
8057,34944
8058,34880
8059,34880
8060,34816
8061,34688
8062,34560
8063,34496
8064,34432
8065,34304
8066,34240
8067,34112
8068,33984
8069,33856
8070,33728
8071,33664
8072,33728
8073,33664
8074,33600
8075,33600
8076,33600
8077,33600
8078,33600
8079,33664
8080,33728
8081,33792
8082,33792
8083,33792
8084,33856
8085,33856
8086,33792
8087,33792
8088,33856
8089,33920
8090,33920
8091,33856
8092,33920
8093,33920
8094,33856
8095,33856
8096,33920
8097,34048
8098,33984
8099,33984
8100,33984
8101,34048
8102,34048
8103,34048
8104,34048
8105,33984
8106,34048
8107,34048
8108,34048
8109,33984
8110,33856
8111,33856
8112,33920
8113,33920
8114,33920
8115,33856
8116,33920
8117,33920
8118,33920
8119,33856
8120,33920
8121,33984
8122,33984
8123,33856
8124,33856
8125,33984
8126,33984
8127,33920
8128,33920
8129,33984
8130,33920
8131,33856
8132,33792
8133,33856
8134,33920
8135,33856
8136,33920
8137,33984
8138,33984
8139,33920
8140,33856
8141,33920
8142,33920
8143,33920
8144,33856
8145,33920
8146,33984
8147,33984
8148,33920
8149,33984
8150,33984
8151,34048
8152,34112
8153,34112
8154,34112
8155,34048
8156,33984
8157,33920
8158,33984
8159,33984
8160,33920
8161,33920
8162,34048
8163,34112
8164,34048
8165,33984
8166,34048
8167,34112
8168,34112
8169,34048
8170,34176
8171,34304
8172,34368
8173,34304
8174,34304
8175,34304
8176,34368
8177,34368
8178,34496
8179,34560
8180,34496
8181,34560
8182,34496
8183,34560
8184,34560
8185,34496
8186,34432
8187,34496
8188,34496
8189,34432
8190,34304
8191,34176
8192,34048
8193,33856
8194,33600
8195,33600
8196,33600
8197,33536
8198,33536
8199,33600
8200,33728
8201,33856
8202,33856
8203,34048
8204,34112
8205,34176
8206,34048
8207,33984
8208,33984
8209,34048
8210,34048
8211,33984
8212,34112
8213,34112
8214,34112
8215,34048
8216,34048
8217,33984
8218,33920
8219,33984
8220,34304
8221,34880
8222,35584
8223,36416
8224,38144
8225,38272
8226,39808
8227,38912
8228,36928
8229,34560
8230,32576
8231,31232
8232,30528
8233,30336
8234,30528
8235,31104
8236,31936
8237,32896
8238,33792
8239,34496
8240,34496
8241,34880
8242,35008
8243,34944
8244,34880
8245,34944
8246,34880
8247,34688
8248,34496
8249,34368
8250,34368
8251,34304
8252,34240
8253,34240
8254,34368
8255,34304
8256,34304
8257,34304
8258,34304
8259,34368
8260,34304
8261,34240
8262,34240
8263,34368
8264,34432
8265,34432
8266,34496
8267,34560
8268,34560
8269,34560
8270,34624
8271,34816
8272,34880
8273,34944
8274,35008
8275,35008
8276,34944
8277,34880
8278,34880
8279,35008
8280,35072
8281,35072
8282,35136
8283,35264
8284,35328
8285,35264
8286,35200
8287,35200
8288,35264
8289,35200
8290,35136
8291,35264
8292,35200
8293,35072
8294,34880
8295,34752
8296,34688
8297,34560
8298,34368
8299,34240
8300,34176
8301,34112
8302,33984
8303,33856
8304,33856
8305,33856
8306,33792
8307,33728
8308,33792
8309,33856
8310,33792
8311,33728
8312,33792
8313,33856
8314,33728
8315,33728
8316,33728
8317,33920
8318,33920
8319,33856
8320,33856
8321,33920
8322,33920
8323,33856
8324,33856
8325,33984
8326,33984
8327,33856
8328,33856
8329,33920
8330,33984
8331,33920
8332,33920
8333,33920
8334,33920
8335,33856
8336,33856
8337,33856
8338,33984
8339,33920
8340,33920
8341,33920
8342,33920
8343,33856
8344,33792
8345,33728
8346,33920
8347,33920
8348,33920
8349,33920
8350,33984
8351,33920
8352,33728
8353,33664
8354,33728
8355,33792
8356,33728
8357,33792
8358,33856
8359,33920
8360,33856
8361,33856
8362,33920
8363,33984
8364,33920
8365,33920
8366,33984
8367,34048
8368,33984
8369,33920
8370,33856
8371,33920
8372,33920
8373,33984
8374,34176
8375,34112
8376,34112
8377,33920
8378,33728
8379,33728
8380,33792
8381,33728
8382,33728
8383,33856
8384,33984
8385,33984
8386,33984
8387,33984
8388,34112
8389,34048
8390,33920
8391,33984
8392,34048
8393,34048
8394,33920
8395,33856
8396,33856
8397,33856
8398,33856
8399,33856
8400,33920
8401,33856
8402,33792
8403,33792
8404,33920
8405,33856
8406,33920
8407,33920
8408,34048
8409,34176
8410,34112
8411,34048
8412,33920
8413,33920
8414,33920
8415,33920
8416,34048
8417,34048
8418,33984
8419,33856
8420,33792
8421,33984
8422,34048
8423,33984
8424,33920
8425,34048
8426,34112
8427,34176
8428,34240
8429,34368
8430,34432
8431,34368
8432,34240
8433,34304
8434,34432
8435,34432
8436,34432
8437,34560
8438,34560
8439,34496
8440,34432
8441,34496
8442,34496
8443,34432
8444,34368
8445,34368
8446,34304
8447,34240
8448,34048
8449,33856
8450,33792
8451,33792
8452,33664
8453,33664
8454,33728
8455,33728
8456,33728
8457,33728
8458,33728
8459,33728
8460,33728
8461,33728
8462,33792
8463,33856
8464,33920
8465,33856
8466,33984
8467,34048
8468,34048
8469,34048
8470,34112
8471,34176
8472,34112
8473,34048
8474,34048
8475,34112
8476,34176
8477,34496
8478,34944
8479,35776
8480,36800
8481,38080
8482,39488
8483,39680
8484,38272
8485,35968
8486,33472
8487,31680
8488,30720
8489,30272
8490,30272
8491,30784
8492,31680
8493,32640
8494,33600
8495,34112
8496,34624
8497,34944
8498,35072
8499,35072
8500,35008
8501,34880
8502,34752
8503,34624
8504,34624
8505,34560
8506,34368
8507,34240
8508,34176
8509,34176
8510,34176
8511,34112
8512,34176
8513,34240
8514,34240
8515,34176
8516,34240
8517,34368
8518,34368
8519,34368
8520,34432
8521,34496
8522,34560
8523,34560
8524,34560
8525,34624
8526,34688
8527,34624
8528,34624
8529,34688
8530,34688
8531,34688
8532,34688
8533,34816
8534,34944
8535,35008
8536,35008
8537,35008
8538,35136
8539,35136
8540,35072
8541,35072
8542,35136
8543,35136
8544,35072
8545,35072
8546,35136
8547,35072
8548,35008
8549,34944
8550,34944
8551,34880
8552,34688
8553,34560
8554,34496
8555,34432
8556,34368
8557,34112
8558,33984
8559,33920
8560,33792
8561,33728
8562,33664
8563,33728
8564,33664
8565,33600
8566,33600
8567,33664
8568,33664
8569,33600
8570,33664
8571,33792
8572,33856
8573,33792
8574,33728
8575,33728
8576,33728
8577,33728
8578,33664
8579,33728
8580,33792
8581,33792
8582,33728
8583,33792
8584,33792
8585,33792
8586,33728
8587,33792
8588,33856
8589,33792
8590,33728
8591,33728
8592,33792
8593,33792
8594,33792
8595,33728
8596,33728
8597,33792
8598,33728
8599,33664
8600,33728
8601,33792
8602,33792
8603,33728
8604,33728
8605,33728
8606,33728
8607,33664
8608,33728
8609,33792
8610,33792
8611,33728
8612,33792
8613,33856
8614,33792
8615,33728
8616,33728
8617,33728
8618,33728
8619,33728
8620,33792
8621,33856
8622,33856
8623,33728
8624,33664
8625,33728
8626,33728
8627,33664
8628,33664
8629,33728
8630,33792
8631,33792
8632,33792
8633,33856
8634,33856
8635,33856
8636,33856
8637,33856
8638,33856
8639,33856
8640,33792
8641,33792
8642,33856
8643,33856
8644,33856
8645,33856
8646,33856
8647,33856
8648,33856
8649,33920
8650,33920
8651,33984
8652,33856
8653,33792
8654,33792
8655,33792
8656,33792
8657,33792
8658,33856
8659,33920
8660,33920
8661,33920
8662,33920
8663,33920
8664,33920
8665,33920
8666,33920
8667,33920
8668,33984
8669,33984
8670,33984
8671,33984
8672,33920
8673,33856
8674,33856
8675,33920
8676,33920
8677,33984
8678,33984
8679,34048
8680,34048
8681,33984
8682,33984
8683,33984
8684,34048
8685,34048
8686,34048
8687,33984
8688,34048
8689,34048
8690,34048
8691,34048
8692,34112
8693,34176
8694,34176
8695,34176
8696,34176
8697,34240
8698,34240
8699,34368
8700,34496
8701,34560
8702,34560
8703,34560
8704,34560
8705,34496
8706,34496
8707,34496
8708,34496
8709,34496
8710,34432
8711,34304
8712,34176
8713,33984
8714,33856
8715,33664
8716,33536
8717,33472
8718,33472
8719,33536
8720,33600
8721,33664
8722,33728
8723,33792
8724,33856
8725,33984
8726,34048
8727,34048
8728,34048
8729,34048
8730,34048
8731,34048
8732,34048
8733,34048
8734,34048
8735,34048
8736,33920
8737,33920
8738,33920
8739,33984
8740,33984
8741,34048
8742,34240
8743,34688
8744,35328
8745,36352
8746,37696
8747,39040
8748,39360
8749,38016
8750,35840
8751,33536
8752,31872
8753,30976
8754,30528
8755,30592
8756,30976
8757,31616
8758,32512
8759,33344
8760,33984
8761,34496
8762,34816
8763,35008
8764,35072
8765,35008
8766,34880
8767,34816
8768,34688
8769,34496
8770,34368
8771,34368
8772,34304
8773,34240
8774,34176
8775,34240
8776,34240
8777,34176
8778,34176
8779,34176
8780,34240
8781,34304
8782,34304
8783,34304
8784,34368
8785,34432
8786,34432
8787,34432
8788,34496
8789,34496
8790,34496
8791,34496
8792,34560
8793,34560
8794,34560
8795,34624
8796,34688
8797,34816
8798,34880
8799,34880
8800,34944
8801,35008
8802,35008
8803,35072
8804,35136
8805,35136
8806,35072
8807,35072
8808,35008
8809,35072
8810,35008
8811,35008
8812,35008
8813,35008
8814,35008
8815,34944
8816,34880
8817,34752
8818,34688
8819,34496
8820,34368
8821,34240
8822,34176
8823,34048
8824,33920
8825,33856
8826,33792
8827,33728
8828,33664
8829,33664
8830,33664
8831,33664
8832,33600
8833,33600
8834,33664
8835,33664
8836,33664
8837,33664
8838,33728
8839,33728
8840,33728
8841,33728
8842,33792
8843,33792
8844,33792
8845,33792
8846,33856
8847,33856
8848,33728
8849,33664
8850,33664
8851,33664
8852,33664
8853,33664
8854,33664
8855,33664
8856,33728
8857,33728
8858,33728
8859,33728
8860,33728
8861,33728
8862,33728
8863,33664
8864,33664
8865,33664
8866,33600
8867,33664
8868,33600
8869,33600
8870,33600
8871,33600
8872,33664
8873,33664
8874,33664
8875,33664
8876,33728
8877,33728
8878,33728
8879,33792
8880,33856
8881,33792
8882,33792
8883,33728
8884,33728
8885,33792
8886,33792
8887,33792
8888,33792
8889,33792
8890,33792
8891,33728
8892,33728
8893,33728
8894,33728
8895,33728
8896,33728
8897,33792
8898,33792
8899,33792
8900,33792
8901,33856
8902,33856
8903,33856
8904,33856
8905,33920
8906,33920
8907,33856
8908,33856
8909,33920
8910,33920
8911,33856
8912,33792
8913,33856
8914,33856
8915,33792
8916,33792
8917,33792
8918,33856
8919,33920
8920,33856
8921,33920
8922,33920
8923,33920
8924,33920
8925,33920
8926,33984
8927,33984
8928,33984
8929,33984
8930,33984
8931,33920
8932,33856
8933,33856
8934,33920
8935,33920
8936,33856
8937,33856
8938,33920
8939,33920
8940,33920
8941,33920
8942,33984
8943,34048
8944,34048
8945,33984
8946,33984
8947,33984
8948,33920
8949,33920
8950,33920
8951,34048
8952,34048
8953,34048
8954,34112
8955,34176
8956,34304
8957,34304
8958,34304
8959,34368
8960,34432
8961,34432
8962,34496
8963,34560
8964,34624
8965,34560
8966,34496
8967,34496
8968,34432
8969,34368
8970,34304
8971,34240
8972,34176
8973,34112
8974,33984
8975,33856
8976,33664
8977,33536
8978,33472
8979,33472
8980,33536
8981,33664
8982,33728
8983,33792
8984,33856
8985,33984
8986,33984
8987,33984
8988,33984
8989,33984
8990,33984
8991,33984
8992,34048
8993,34048
8994,33984
8995,33984
8996,33984
8997,33920
8998,33920
8999,33920
9000,33984
9001,34176
9002,34560
9003,35072
9004,35904
9005,36992
9006,38336
9007,39360
9008,38720
9009,36864
9010,34560
9011,32576
9012,31424
9013,30848
9014,30656
9015,30848
9016,31232
9017,31936
9018,32768
9019,33536
9020,34112
9021,34624
9022,34944
9023,35072
9024,35008
9025,34944
9026,34880
9027,34752
9028,34560
9029,34496
9030,34432
9031,34368
9032,34240
9033,34176
9034,34176
9035,34240
9036,34240
9037,34176
9038,34112
9039,34112
9040,34176
9041,34176
9042,34240
9043,34368
9044,34432
9045,34368
9046,34368
9047,34368
9048,34432
9049,34432
9050,34496
9051,34496
9052,34560
9053,34624
9054,34688
9055,34752
9056,34752
9057,34816
9058,34816
9059,34880
9060,34944
9061,34944
9062,35008
9063,35008
9064,35072
9065,35072
9066,35136
9067,35136
9068,35200
9069,35200
9070,35136
9071,35136
9072,35072
9073,35008
9074,34944
9075,34944
9076,34816
9077,34624
9078,34432
9079,34368
9080,34304
9081,34240
9082,34112
9083,34048
9084,33984
9085,33920
9086,33856
9087,33792
9088,33792
9089,33792
9090,33728
9091,33728
9092,33728
9093,33728
9094,33728
9095,33728
9096,33728
9097,33792
9098,33792
9099,33728
9100,33728
9101,33792
9102,33856
9103,33856
9104,33856
9105,33920
9106,33920
9107,33856
9108,33856
9109,33856
9110,33856
9111,33856
9112,33792
9113,33856
9114,33856
9115,33856
9116,33856
9117,33856
9118,33856
9119,33856
9120,33792
9121,33792
9122,33920
9123,33920
9124,33920
9125,33920
9126,33856
9127,33856
9128,33792
9129,33856
9130,33920
9131,33920
9132,33856
9133,33792
9134,33792
9135,33792
9136,33792
9137,33792
9138,33792
9139,33792
9140,33728
9141,33728
9142,33728
9143,33728
9144,33792
9145,33792
9146,33792
9147,33856
9148,33856
9149,33856
9150,33856
9151,33856
9152,33792
9153,33792
9154,33856
9155,33920
9156,33856
9157,33856
9158,33792
9159,33856
9160,33856
9161,33856
9162,33792
9163,33792
9164,33792
9165,33792
9166,33792
9167,33856
9168,33920
9169,33920
9170,33856
9171,33856
9172,33856
9173,33856
9174,33856
9175,33856
9176,33920
9177,33920
9178,33920
9179,33984
9180,33920
9181,33920
9182,33920
9183,33856
9184,33856
9185,33920
9186,33856
9187,33856
9188,33920
9189,33920
9190,33920
9191,33984
9192,33984
9193,34048
9194,34048
9195,34048
9196,34048
9197,34048
9198,33984
9199,33984
9200,33984
9201,33984
9202,34048
9203,34048
9204,34112
9205,34176
9206,34304
9207,34304
9208,34368
9209,34496
9210,34496
9211,34560
9212,34560
9213,34624
9214,34624
9215,34624
9216,34560
9217,34496
9218,34432
9219,34368
9220,34176
9221,34048
9222,33984
9223,33856
9224,33664
9225,33536
9226,33472
9227,33408
9228,33408
9229,33472
9230,33536
9231,33664
9232,33728
9233,33792
9234,33856
9235,33920
9236,33984
9237,33984
9238,33984
9239,34048
9240,33984
9241,33984
9242,33920
9243,33920
9244,33920
9245,33856
9246,33792
9247,33792
9248,33792
9249,33856
9250,34048
9251,34496
9252,35200
9253,36096
9254,37184
9255,38528
9256,39296
9257,38336
9258,36288
9259,34048
9260,32256
9261,31296
9262,30784
9263,30720
9264,30976
9265,31488
9266,32192
9267,32960
9268,33600
9269,34176
9270,34560
9271,34816
9272,34944
9273,34944
9274,34880
9275,34816
9276,34752
9277,34688
9278,34624
9279,34560
9280,34432
9281,34368
9282,34240
9283,34176
9284,34176
9285,34176
9286,34240
9287,34176
9288,34240
9289,34240
9290,34240
9291,34240
9292,34304
9293,34368
9294,34432
9295,34496
9296,34496
9297,34496
9298,34496
9299,34496
9300,34560
9301,34688
9302,34688
9303,34688
9304,34688
9305,34752
9306,34880
9307,35008
9308,35008
9309,35008
9310,34944
9311,34880
9312,34880
9313,34880
9314,34944
9315,35008
9316,35008
9317,35072
9318,35136
9319,35136
9320,35072
9321,35072
9322,35072
9323,35008
9324,34944
9325,34816
9326,34752
9327,34688
9328,34560
9329,34368
9330,34240
9331,34112
9332,33984
9333,33856
9334,33792
9335,33792
9336,33728
9337,33728
9338,33664
9339,33664
9340,33664
9341,33600
9342,33664
9343,33600
9344,33600
9345,33664
9346,33664
9347,33792
9348,33856
9349,33856
9350,33792
9351,33792
9352,33856
9353,33856
9354,33792
9355,33792
9356,33792
9357,33792
9358,33856
9359,33856
9360,33856
9361,33856
9362,33792
9363,33856
9364,33856
9365,33856
9366,33856
9367,33856
9368,33856
9369,33856
9370,33856
9371,33920
9372,34048
9373,33984
9374,33792
9375,33728
9376,33728
9377,33728
9378,33728
9379,33728
9380,33728
9381,33728
9382,33792
9383,33728
9384,33792
9385,33856
9386,33792
9387,33728
9388,33728
9389,33792
9390,33728
9391,33664
9392,33664
9393,33792
9394,33792
9395,33792
9396,33792
9397,33792
9398,33792
9399,33856
9400,33792
9401,33856
9402,33856
9403,33792
9404,33792
9405,33792
9406,33792
9407,33792
9408,33728
9409,33728
9410,33792
9411,33792
9412,33792
9413,33856
9414,33856
9415,33792
9416,33792
9417,33792
9418,33920
9419,33920
9420,33856
9421,33792
9422,33856
9423,33856
9424,33792
9425,33792
9426,33792
9427,33792
9428,33792
9429,33728
9430,33728
9431,33792
9432,33792
9433,33792
9434,33856
9435,33920
9436,33920
9437,33856
9438,33792
9439,33792
9440,33856
9441,33856
9442,33856
9443,33856
9444,33856
9445,33856
9446,33920
9447,33984
9448,34048
9449,34112
9450,34176
9451,34304
9452,34368
9453,34304
9454,34368
9455,34432
9456,34432
9457,34368
9458,34304
9459,34304
9460,34240
9461,34240
9462,34176
9463,34176
9464,34048
9465,33920
9466,33792
9467,33664
9468,33600
9469,33536
9470,33472
9471,33408
9472,33472
9473,33536
9474,33600
9475,33664
9476,33664
9477,33664
9478,33728
9479,33728
9480,33728
9481,33728
9482,33728
9483,33728
9484,33728
9485,33856
9486,33920
9487,33920
9488,33856
9489,33856
9490,33920
9491,33920
9492,33920
9493,34112
9494,34432
9495,34944
9496,35712
9497,36672
9498,37760
9499,38400
9500,37440
9501,35584
9502,33600
9503,32128
9504,31360
9505,31104
9506,31104
9507,31360
9508,31680
9509,32192
9510,32896
9511,33536
9512,34048
9513,34432
9514,34624
9515,34752
9516,34752
9517,34688
9518,34560
9519,34432
9520,34304
9521,34176
9522,34112
9523,34048
9524,34048
9525,34048
9526,34048
9527,34112
9528,34112
9529,34112
9530,34176
9531,34176
9532,34240
9533,34176
9534,34176
9535,34240
9536,34240
9537,34240
9538,34240
9539,34304
9540,34304
9541,34304
9542,34304
9543,34304
9544,34368
9545,34432
9546,34496
9547,34560
9548,34688
9549,34688
9550,34752
9551,34816
9552,34816
9553,34816
9554,34816
9555,34880
9556,34944
9557,35008
9558,35008
9559,35008
9560,35008
9561,34944
9562,34880
9563,34880
9564,34816
9565,34752
9566,34688
9567,34688
9568,34560
9569,34496
9570,34432
9571,34304
9572,34240
9573,34240
9574,34176
9575,34048
9576,33920
9577,33856
9578,33792
9579,33728
9580,33664
9581,33664
9582,33600
9583,33600
9584,33600
9585,33600
9586,33536
9587,33536
9588,33600
9589,33728
9590,33856
9591,33792
9592,33792
9593,33792
9594,33792
9595,33728
9596,33728
9597,33792
9598,33920
9599,33920
9600,33856
9601,33856
9602,33856
9603,33856
9604,33856
9605,33856
9606,33856
9607,33856
9608,33792
9609,33792
9610,33792
9611,33792
9612,33856
9613,33792
9614,33728
9615,33792
9616,33792
9617,33792
9618,33792
9619,33856
9620,33856
9621,33856
9622,33920
9623,33920
9624,33920
9625,33920
9626,33856
9627,33856
9628,33792
9629,33728
9630,33664
9631,33664
9632,33728
9633,33728
9634,33728
9635,33792
9636,33728
9637,33664
9638,33664
9639,33664
9640,33728
9641,33728
9642,33856
9643,33856
9644,33792
9645,33792
9646,33792
9647,33792
9648,33792
9649,33728
9650,33664
9651,33728
9652,33856
9653,33728
9654,33664
9655,33664
9656,33664
9657,33728
9658,33792
9659,33856
9660,33920
9661,33920
9662,33920
9663,33920
9664,33920
9665,33984
9666,33984
9667,33984
9668,34048
9669,34176
9670,34240
9671,34368
9672,34432
9673,34432
9674,34432
9675,34368
9676,34368
9677,34240
9678,34176
9679,34176
9680,34176
9681,34112
9682,33984
9683,33856
9684,33728
9685,33600
9686,33600
9687,33536
9688,33472
9689,33472
9690,33472
9691,33600
9692,33664
9693,33728
9694,33728
9695,33728
9696,33664
9697,33728
9698,33792
9699,33792
9700,33792
9701,33920
9702,33984
9703,33920
9704,33856
9705,33856
9706,33856
9707,33792
9708,33792
9709,33792
9710,33920
9711,34176
9712,34432
9713,34944
9714,35776
9715,36736
9716,37824
9717,38016
9718,36864
9719,35072
9720,33536
9721,32576
9722,32128
9723,32000
9724,32000
9725,32192
9726,32320
9727,32512
9728,32896
9729,33344
9730,33792
9731,34112
9732,34368
9733,34496
9734,34560
9735,34624
9736,34560
9737,34496
9738,34432
9739,34368
9740,34304
9741,34240
9742,34112
9743,34112
9744,34112
9745,34112
9746,34176
9747,34176
9748,34176
9749,34176
9750,34112
9751,34112
9752,34176
9753,34240
9754,34304
9755,34368
9756,34368
9757,34432
9758,34432
9759,34432
9760,34432
9761,34432
9762,34432
9763,34496
9764,34560
9765,34624
9766,34624
9767,34624
9768,34752
9769,34816
9770,34880
9771,34880
9772,35008
9773,35072
9774,35072
9775,35008
9776,34944
9777,34944
9778,34944
9779,34880
9780,34880
9781,34816
9782,34752
9783,34688
9784,34688
9785,34624
9786,34560
9787,34432
9788,34304
9789,34240
9790,34176
9791,34176
9792,34048
9793,34048
9794,33984
9795,33856
9796,33728
9797,33664
9798,33600
9799,33600
9800,33600
9801,33664
9802,33728
9803,33792
9804,33856
9805,33792
9806,33792
9807,33792
9808,33792
9809,33792
9810,33856
9811,33792
9812,33728
9813,33728
9814,33856
9815,33920
9816,33920
9817,33856
9818,33856
9819,33920
9820,33920
9821,33984
9822,33984
9823,33920
9824,33920
9825,33856
9826,33856
9827,33984
9828,33984
9829,33920
9830,33920
9831,33920
9832,33920
9833,33920
9834,33920
9835,33920
9836,33856
9837,33856
9838,33856
9839,33920
9840,33920
9841,33920
9842,33856
9843,33856
9844,33920
9845,33856
9846,33856
9847,33856
9848,33920
9849,33984
9850,34048
9851,34112
9852,34240
9853,34176
9854,34112
9855,34048
9856,34112
9857,34176
9858,34368
9859,34560
9860,34624
9861,34624
9862,34496
9863,34432
9864,34368
9865,34368
9866,34304
9867,34240
9868,34240
9869,34048
9870,33792
9871,33536
9872,33408
9873,33344
9874,33344
9875,33344
9876,33344
9877,33408
9878,33472
9879,33472
9880,33536
9881,33664
9882,33728
9883,33664
9884,33728
9885,33728
9886,33792
9887,33792
9888,33792
9889,33792
9890,33856
9891,33920
9892,33920
9893,33920
9894,33920
9895,33792
9896,33792
9897,33856
9898,33920
9899,34112
9900,34368
9901,34880
9902,35648
9903,36544
9904,37504
9905,37952
9906,37120
9907,35520
9908,34048
9909,33088
9910,32576
9911,32256
9912,32128
9913,32128
9914,32256
9915,32448
9916,32768
9917,33536
9918,33856
9919,34112
9920,34368
9921,34432
9922,34496
9923,34432
9924,34368
9925,34368
9926,34368
9927,34304
9928,34304
9929,34240
9930,34176
9931,34176
9932,34176
9933,34176
9934,34176
9935,34112
9936,34112
9937,34176
9938,34176
9939,34240
9940,34240
9941,34240
9942,34368
9943,34432
9944,34496
9945,34432
9946,34432
9947,34368
9948,34368
9949,34432
9950,34496
9951,34624
9952,34688
9953,34816
9954,34880
9955,34880
9956,34944
9957,34880
9958,34880
9959,34816
9960,34880
9961,34880
9962,34880
9963,34880
9964,34944
9965,34880
9966,34880
9967,34816
9968,34816
9969,34752
9970,34688
9971,34624
9972,34560
9973,34496
9974,34432
9975,34368
9976,34304
9977,34176
9978,33984
9979,33856
9980,33792
9981,33792
9982,33728
9983,33664
9984,33664
9985,33664
9986,33664
9987,33600
9988,33728
9989,33728
9990,33728
9991,33728
9992,33792
9993,33920
9994,33984
9995,33920
9996,33856
9997,33856
9998,33856
9999,33856
10000,33920
10001,33920
10002,33984
10003,33984
10004,33920
10005,33856
10006,33792
10007,33792
10008,33792
10009,33856
10010,33792
10011,33856
10012,33984
10013,34048
10014,34112
10015,34176
10016,34112
10017,34048
10018,34048
10019,33984
10020,33984
10021,33984
10022,34048
10023,34112
10024,34112
10025,34112
10026,34112
10027,34048
10028,33984
10029,34112
10030,34176
10031,34176
10032,34240
10033,34368
10034,34560
10035,34688
10036,34752
10037,34688
10038,34624
10039,34560
10040,34560
10041,34560
10042,34432
10043,34368
10044,34240
10045,33984
10046,33728
10047,33536
10048,33344
10049,33216
10050,33216
10051,33280
10052,33408
10053,33472
10054,33600
10055,33664
10056,33728
10057,33728
10058,33728
10059,33728
10060,33728
10061,33792
10062,33856
10063,33920
10064,33920
10065,33984
10066,33920
10067,33856
10068,33856
10069,33856
10070,33856
10071,33856
10072,33856
10073,33792
10074,33856
10075,34176
10076,34624
10077,35328
10078,36032
10079,36992
10080,38016
10081,38336
10082,37312
10083,35584
10084,33600
10085,33408
10086,32320
10087,32000
10088,31872
10089,31872
10090,31872
10091,32128
10092,32576
10093,33088
10094,33472
10095,33856
10096,34176
10097,34368
10098,34496
10099,34560
10100,34496
10101,34496
10102,34432
10103,34368
10104,34240
10105,34304
10106,34368
10107,34368
10108,34304
10109,34240
10110,34240
10111,34176
10112,34112
10113,34176
10114,34176
10115,34112
10116,34112
10117,34176
10118,34240
10119,34304
10120,34304
10121,34432
10122,34496
10123,34496
10124,34560
10125,34624
10126,34688
10127,34752
10128,34688
10129,34752
10130,34688
10131,34880
10132,34816
10133,34816
10134,34880
10135,34880
10136,34880
10137,34880
10138,34880
10139,34944
10140,34944
10141,34944
10142,34880
10143,34880
10144,34880
10145,34816
10146,34752
10147,34752
10148,34624
10149,34560
10150,34432
10151,34368
10152,34240
10153,34112
10154,34048
10155,33920
10156,33920
10157,33792
10158,33728
10159,33728
10160,33664
10161,33664
10162,33536
10163,33600
10164,33728
10165,33728
10166,33792
10167,33792
10168,33792
10169,33856
10170,33856
10171,33856
10172,33920
10173,33856
10174,33856
10175,33792
10176,33984
10177,34112
10178,34048
10179,33984
10180,33920
10181,33792
10182,33792
10183,33792
10184,33856
10185,33856
10186,33856
10187,33856
10188,33920
10189,33984
10190,33920
10191,34048
10192,34048
10193,34048
10194,34048
10195,33984
10196,33984
10197,34048
10198,34112
10199,34176
10200,34240
10201,34240
10202,34240
10203,34240
10204,34304
10205,34304
10206,34304
10207,34432
10208,34560
10209,34688
10210,34688
10211,34560
10212,34432
10213,34368
10214,34368
10215,34304
10216,34304
10217,34304
10218,34240
10219,34048
10220,33792
10221,33600
10222,33408
10223,33408
10224,33408
10225,33408
10226,33472
10227,33536
10228,33536
10229,33536
10230,33664
10231,33728
10232,33728
10233,33728
10234,33664
10235,33600
10236,33664
10237,33728
10238,33728
10239,33728
10240,33792
10241,33856
10242,33856
10243,33856
10244,33856
10245,33920
10246,33920
10247,33984
10248,34048
10249,34240
10250,34176
10251,34816
10252,35456
10253,36288
10254,37184
10255,38208
10256,38144
10257,36864
10258,35072
10259,33536
10260,32512
10261,31936
10262,31552
10263,31424
10264,31616
10265,31872
10266,32256
10267,32768
10268,33280
10269,33728
10270,34048
10271,34368
10272,34496
10273,34496
10274,34432
10275,34432
10276,34496
10277,34496
10278,34368
10279,34240
10280,34112
10281,34048
10282,33984
10283,33984
10284,33984
10285,34048
10286,34112
10287,34176
10288,34176
10289,34176
10290,34176
10291,34176
10292,34176
10293,34240
10294,34304
10295,34240
10296,34432
10297,34560
10298,34560
10299,34496
10300,34496
10301,34560
10302,34560
10303,34560
10304,34560
10305,34624
10306,34688
10307,34752
10308,34816
10309,34944
10310,34880
10311,34944
10312,34944
10313,35008
10314,35008
10315,35008
10316,35008
10317,35008
10318,34944
10319,34816
10320,34752
10321,34624
10322,34496
10323,34368
10324,34240
10325,34176
10326,34048
10327,33984
10328,33920
10329,33856
10330,33792
10331,33792
10332,33792
10333,33728
10334,33664
10335,33664
10336,33600
10337,33600
10338,33664
10339,33792
10340,33728
10341,33792
10342,33792
10343,33792
10344,33792
10345,33792
10346,33792
10347,33792
10348,33792
10349,33728
10350,33728
10351,33728
10352,33728
10353,33728
10354,33728
10355,33792
10356,33856
10357,33856
10358,33792
10359,33856
10360,33856
10361,33856
10362,33856
10363,33920
10364,33920
10365,33920
10366,33856
10367,33920
10368,33984
10369,33984
10370,33984
10371,33984
10372,33984
10373,33920
10374,33920
10375,33920
10376,33920
10377,33856
10378,33856
10379,33856
10380,33856
10381,33856
10382,33856
10383,33856
10384,33984
10385,33984
10386,34176
10387,34176
10388,34176
10389,34176
10390,34112
10391,34112
10392,34176
10393,34368
10394,34560
10395,34688
10396,34624
10397,34624
10398,34560
10399,34496
10400,34496
10401,34368
10402,34304
10403,34176
10404,33984
10405,33728
10406,33536
10407,33344
10408,33280
10409,33216
10410,33280
10411,33344
10412,33408
10413,33472
10414,33664
10415,33600
10416,33728
10417,33728
10418,33792
10419,33792
10420,33792
10421,33728
10422,33728
10423,33728
10424,33728
10425,33664
10426,33728
10427,33728
10428,33728
10429,33728
10430,33728
10431,33728
10432,33728
10433,33728
10434,33792
10435,34048
10436,34432
10437,34944
10438,35520
10439,36416
10440,37440
10441,38592
10442,38784
10443,37568
10444,35008
10445,34880
10446,32384
10447,31616
10448,31232
10449,30976
10450,31040
10451,31424
10452,32064
10453,32768
10454,33344
10455,33920
10456,34368
10457,34624
10458,34752
10459,34816
10460,34752
10461,34624
10462,34496
10463,34432
10464,34368
10465,34368
10466,34240
10467,34240
10468,34176
10469,34176
10470,34112
10471,34112
10472,34176
10473,34176
10474,34176
10475,34176
10476,34240
10477,34304
10478,34368
10479,34368
10480,34432
10481,34496
10482,34496
10483,34432
10484,34432
10485,34496
10486,34496
10487,34560
10488,34624
10489,34688
10490,34752
10491,34816
10492,34880
10493,34944
10494,34944
10495,34944
10496,34944
10497,34944
10498,35008
10499,35072
10500,35072
10501,35072
10502,35072
10503,35008
10504,35008
10505,34944
10506,34944
10507,34880
10508,34752
10509,34688
10510,34624
10511,34432
10512,34240
10513,34176
10514,34112
10515,33984
10516,33856
10517,33792
10518,33664
10519,33664
10520,33600
10521,33664
10522,33664
10523,33664
10524,33728
10525,33728
10526,33792
10527,33792
10528,33792
10529,33792
10530,33856
10531,33856
10532,33856
10533,33792
10534,33728
10535,33792
10536,33792
10537,33792
10538,33792
10539,33792
10540,33792
10541,33792
10542,33856
10543,33920
10544,33920
10545,33920
10546,33920
10547,33920
10548,33920
10549,33920
10550,33920
10551,33920
10552,33920
10553,33920
10554,33920
10555,33920
10556,33984
10557,33984
10558,33984
10559,33984
10560,33920
10561,33920
10562,33920
10563,33920
10564,33920
10565,33920
10566,33792
10567,33728
10568,33728
10569,33792
10570,33792
10571,33856
10572,33856
10573,33920
10574,33920
10575,33920
10576,33920
10577,33920
10578,33984
10579,33920
10580,33984
10581,33984
10582,33920
10583,33920
10584,33856
10585,33856
10586,33920
10587,33920
10588,33920
10589,33920
10590,33856
10591,33856
10592,33792
10593,33856
10594,33920
10595,33920
10596,33856
10597,33856
10598,33856
10599,33920
10600,33920
10601,33984
10602,34048
10603,34048
10604,34048
10605,34048
10606,33984
10607,33920
10608,33856
10609,33920
10610,33984
10611,34048
10612,33984
10613,33984
10614,33920
10615,33984
10616,33920
10617,33856
10618,33920
10619,33984
10620,33984
10621,33984
10622,34048
10623,34048
10624,33984
10625,33920
10626,33920
10627,33920
10628,33984
10629,33984
10630,33984
10631,33984
10632,33984
10633,34048
10634,34048
10635,34048
10636,34048
10637,34048
10638,34048
10639,33984
10640,33984
10641,33920
10642,33920
10643,33984
10644,34048
10645,34048
10646,34048
10647,34048
10648,34112
10649,34048
10650,33984
10651,33984
10652,33984
10653,33984
10654,33984
10655,33984
10656,34048
10657,33984
10658,33984
10659,33984
10660,34048
10661,34112
10662,34048
10663,34048
10664,34048
10665,34112
10666,34048
10667,34112
10668,34112
10669,34176
10670,34176
10671,34112
10672,34048
10673,34048
10674,33984
10675,33920
10676,33984
10677,33984
10678,33920
10679,33920
10680,33920
10681,34048
10682,34048
10683,34048
10684,34048
10685,34112
10686,34112
10687,34112
10688,34176
10689,34240
10690,34176
10691,34112
10692,34048
10693,33984
10694,33984
10695,33984
10696,33984
10697,34048
10698,34112
10699,34112
10700,34112
10701,34048
10702,34048
10703,33984
10704,33984
10705,33984
10706,34048
10707,34048
10708,34112
10709,34112
10710,34112
10711,34112
10712,34112
10713,34112
10714,34112
10715,34112
10716,34176
10717,34240
10718,34304
10719,34368
10720,34304
10721,34240
10722,34176
10723,34176
10724,34176
10725,34176
10726,34240
10727,34240
10728,34240
10729,34176
10730,34112
10731,34112
10732,34176
10733,34176
10734,34176
10735,34240
10736,34176
10737,34048
10738,33984
10739,33920
10740,33920
10741,33920
10742,33920
10743,33984
10744,34048
10745,34048
10746,34048
10747,34048
10748,34112
10749,34112
10750,34112
10751,34112
10752,34176
10753,34176
10754,34176
10755,34176
10756,34176
10757,34176
10758,34176
10759,34368
10760,34816
10761,35328
10762,36096
10763,37120
10764,38464
10765,39680
10766,39424
10767,37696
10768,35456
10769,33408
10770,31936
10771,31040
10772,30592
10773,30592
10774,31040
10775,31808
10776,32704
10777,33472
10778,34176
10779,34688
10780,34944
10781,35072
10782,35072
10783,35008
10784,34816
10785,34688
10786,34624
10787,34496
10788,34432
10789,34368
10790,34368
10791,34304
10792,34240
10793,34240
10794,34240
10795,34240
10796,34240
10797,34304
10798,34304
10799,34368
10800,34304
10801,34304
10802,34304
10803,34304
10804,34304
10805,34368
10806,34368
10807,34432
10808,34432
10809,34496
10810,34560
10811,34560
10812,34624
10813,34624
10814,34752
10815,34880
10816,34944
10817,34880
10818,34880
10819,34880
10820,34816
10821,34816
10822,34816
10823,34880
10824,34944
10825,35008
10826,35072
10827,35072
10828,35072
10829,35008
10830,35008
10831,35008
10832,34944
10833,34880
10834,34816
10835,34752
10836,34688
10837,34624
10838,34560
10839,34432
10840,34304
10841,34240
10842,34112
10843,34048
10844,33920
10845,33792
10846,33664
10847,33600
10848,33536
10849,33536
10850,33536
10851,33536
10852,33536
10853,33600
10854,33600
10855,33600
10856,33664
10857,33728
10858,33728
10859,33792
10860,33792
10861,33856
10862,33856
10863,33792
10864,33856
10865,33856
10866,33856
10867,33856
10868,33856
10869,33856
10870,33856
10871,33792
10872,33728
10873,33728
10874,33728
10875,33792
10876,33792
10877,33856
10878,33856
10879,33856
10880,33792
10881,33792
10882,33792
10883,33792
10884,33792
10885,33792
10886,33792
10887,33792
10888,33792
10889,33792
10890,33792
10891,33792
10892,33856
10893,33856
10894,33792
10895,33792
10896,33728
10897,33728
10898,33792
10899,33792
10900,33792
10901,33792
10902,33856
10903,33792
10904,33792
10905,33856
10906,33856
10907,33856
10908,33856
10909,33920
10910,33920
10911,33856
10912,33792
10913,33792
10914,33792
10915,33792
10916,33856
10917,33856
10918,33856
10919,33920
10920,33920
10921,33920
10922,33984
10923,33984
10924,33984
