,ECG
0,33792
1,33728
2,33728
3,33792
4,33920
5,33984
6,34176
7,34624
8,35136
9,35904
10,36800
11,37952
12,38464
13,37440
14,35584
15,33856
16,32704
17,32128
18,31872
19,31744
20,31808
21,32000
22,32384
23,32832
24,33344
25,33792
26,34176
27,34496
28,34688
29,34752
30,34688
31,34688
32,34624
33,34560
34,34496
35,34368
36,34368
37,34304
38,34304
39,34304
40,34304
41,34368
42,34368
43,34368
44,34368
45,34304
46,34304
47,34304
48,34368
49,34432
50,34432
51,34432
52,34560
53,34624
54,34624
55,34624
56,34624
57,34752
58,34816
59,34816
60,34880
61,34944
62,35008
63,35072
64,35072
65,35072
66,35136
67,35136
68,35200
69,35200
70,35200
71,35200
72,35136
73,35136
74,35136
75,35136
76,35072
77,35008
78,34944
79,34880
80,34752
81,34688
82,34624
83,34496
84,34240
85,34112
86,33984
87,33920
88,33856
89,33792
90,33792
91,33792
92,33728
93,33664
94,33728
95,33792
96,33856
97,33856
98,33920
99,33984
100,33920
101,33920
102,33920
103,33984
104,33920
105,33920
106,33920
107,33984
108,33984
109,33984
110,34048
111,34048
112,34112
113,34048
114,33984
115,33984
116,34048
117,34048
118,34048
119,34112
120,34112
121,34048
122,34048
123,34048
124,34048
125,34048
126,34048
127,33984
128,34048
129,34112
130,34240
131,34304
132,34304
133,34304
134,34304
135,34304
136,34368
137,34368
138,34496
139,34688
140,34816
141,34816
142,34752
143,34560
144,34496
145,34496
146,34432
147,34368
148,34240
149,34048
150,33728
151,33472
152,33408
153,33408
154,33408
155,33408
156,33472
157,33536
158,33536
159,33600
160,33600
161,33728
162,33856
163,33856
164,33792
165,33792
166,33792
167,33856
168,33792
169,33856
170,33920
171,33920
172,33920
173,33920
174,33856
175,33856
176,33920
177,34240
178,34752
179,35456
180,36352
181,37440
182,38720
183,39040
184,37696
185,35584
186,33536
187,32064
188,31232
189,30848
190,30784
191,31040
192,31616
193,32384
194,33088
195,33728
196,34176
197,34496
198,34752
199,34816
200,34816
201,34688
202,34624
203,34560
204,34496
205,34368
206,34304
207,34304
208,34304
209,34304
210,34240
211,34240
212,34240
213,34304
214,34304
215,34368
216,34368
217,34432
218,34432
219,34496
220,34560
221,34560
222,34560
223,34560
224,34560
225,34624
226,34624
227,34688
228,34816
229,34880
230,34944
231,34944
232,35008
233,35072
234,35072
235,35136
236,35200
237,35200
238,35200
239,35200
240,35200
241,35200
242,35200
243,35264
244,35264
245,35328
246,35264
247,35264
248,35200
249,35136
250,34944
251,34752
252,34560
253,34368
254,34240
255,34048
256,33920
257,33856
258,33792
259,33728
260,33664
261,33600
262,33600
263,33536
264,33600
265,33664
266,33728
267,33728
268,33728
269,33728
270,33792
271,33792
272,33856
273,33920
274,33984
275,33984
276,33920
277,33920
278,33920
279,33920
280,33856
281,33856
282,33920
283,33984
284,33984
285,33920
286,33984
287,33984
288,33984
289,33920
290,33920
291,33920
292,33856
293,33792
294,33728
295,33792
296,33792
297,33856
298,33856
299,33920
300,33856
301,33856
302,33856
303,33856
304,33856
305,33792
306,33856
307,33920
308,33920
309,33920
310,33920
311,33984
312,34112
313,34176
314,34176
315,34240
316,34304
317,34304
318,34432
319,34624
320,34752
321,34816
322,34752
323,34688
324,34560
325,34496
326,34368
327,34176
328,34112
329,33920
330,33728
331,33536
332,33344
333,33216
334,33152
335,33280
336,33344
337,33472
338,33600
339,33600
340,33728
341,33728
342,33792
343,33856
344,33856
345,33856
346,33856
347,33856
348,33856
349,33856
350,33856
351,33792
352,33728
353,33728
354,33664
355,33664
356,33664
357,33920
358,34368
359,34944
360,35840
361,36992
362,38400
363,39488
364,38848
365,36928
366,34560
367,32576
368,31296
369,30656
370,30400
371,30592
372,31168
373,32000
374,32896
375,33600
376,34176
377,34560
378,34816
379,34880
380,34816
381,34752
382,34624
383,34560
384,34432
385,34304
386,34304
387,34368
388,34304
389,34304
390,34304
391,34432
392,34432
393,34368
394,34368
395,34368
396,34368
397,34304
398,34368
399,34496
400,34560
401,34432
402,34432
403,34432
404,34496
405,34496
406,34560
407,34688
408,34752
409,34688
410,34688
411,34816
412,34880
413,34944
414,35008
415,35072
416,35136
417,35136
418,35200
419,35264
420,35392
421,35392
422,35328
423,35328
424,35328
425,35328
426,35328
427,35328
428,35264
429,35136
430,35008
431,34816
432,34752
433,34624
434,34432
435,34240
436,34112
437,33984
438,33792
439,33664
440,33600
441,33536
442,33536
443,33600
444,33664
445,33728
446,33664
447,33664
448,33728
449,33792
450,33792
451,33792
452,33856
453,33856
454,33920
455,33920
456,33920
457,33920
458,33920
459,33856
460,33792
461,33856
462,33920
463,33920
464,33920
465,33920
466,33920
467,33856
468,33856
469,33920
470,33984
471,33920
472,33856
473,33920
474,33984
475,33984
476,33920
477,33856
478,33920
479,33920
480,33856
481,33792
482,33792
483,33792
484,33792
485,33792
486,33792
487,33856
488,33792
489,33728
490,33856
491,33920
492,33920
493,33856
494,33920
495,33984
496,33984
497,33920
498,33920
499,33920
500,33984
501,34048
502,34112
503,34176
504,34304
505,34240
506,34240
507,34304
508,34432
509,34432
510,34560
511,34688
512,34688
513,34560
514,34496
515,34496
516,34496
517,34432
518,34240
519,34112
520,33984
521,33792
522,33536
523,33344
524,33280
525,33280
526,33280
527,33344
528,33536
529,33728
530,33728
531,33792
532,33856
533,33856
534,33792
535,33792
536,33856
537,33856
538,33792
539,33792
540,33856
541,33856
542,33856
543,33792
544,33728
545,33728
546,33792
547,33984
548,34368
549,34944
550,35904
551,36992
552,38464
553,39424
554,38528
555,36416
556,34112
557,32320
558,31232
559,30656
560,30528
561,30912
562,31616
563,32320
564,33088
565,33792
566,34304
567,34624
568,34752
569,34752
570,34752
571,34688
572,34560
573,34496
574,34432
575,34432
576,34304
577,34304
578,34368
579,34368
580,34240
581,34176
582,34176
583,34240
584,34304
585,34304
586,34432
587,34432
588,34368
589,34304
590,34304
591,34304
592,34368
593,34368
594,34432
595,34496
596,34560
597,34624
598,34688
599,34816
600,34816
601,34816
602,34880
603,35008
604,35008
605,35008
606,35072
607,35200
608,35200
609,35200
610,35200
611,35200
612,35264
613,35200
614,35200
615,35264
616,35264
617,35136
618,35072
619,35072
620,35072
621,34944
622,34816
623,34624
624,34560
625,34368
626,34176
627,33984
628,33920
629,33792
630,33664
631,33600
632,33600
633,33600
634,33600
635,33600
636,33600
637,33664
638,33664
639,33664
640,33728
641,33792
642,33856
643,33792
644,33792
645,33792
646,33728
647,33728
648,33792
649,33856
650,33856
651,33856
652,33856
653,33856
654,33856
655,33856
656,33792
657,33856
658,33856
659,33856
660,33792
661,33856
662,33856
663,33792
664,33728
665,33728
666,33728
667,33728
668,33664
669,33664
670,33728
671,33728
672,33664
673,33664
674,33728
675,33728
676,33728
677,33856
678,33920
679,33920
680,33856
681,33792
682,33856
683,33856
684,33792
685,33728
686,33792
687,33792
688,33728
689,33728
690,33728
691,33856
692,33792
693,33728
694,33728
695,33728
696,33728
697,33792
698,33728
699,33792
700,33792
701,33792
702,33856
703,33984
704,34112
705,34112
706,34112
707,34176
708,34240
709,34240
710,34304
711,34368
712,34432
713,34368
714,34304
715,34240
716,34240
717,34176
718,34112
719,34112
720,34048
721,33920
722,33664
723,33472
724,33344
725,33216
726,33152
727,33216
728,33280
729,33408
730,33472
731,33600
732,33728
733,33728
734,33664
735,33664
736,33728
737,33728
738,33728
739,33728
740,33728
741,33792
742,33792
743,33792
744,33792
745,33792
746,33792
747,33984
748,34368
749,34944
750,35712
751,36544
752,37568
753,38528
754,37952
755,36096
756,34048
757,32576
758,31744
759,31296
760,31104
761,31296
762,31744
763,32192
764,33472
765,33984
766,34368
767,34560
768,34688
769,34752
770,34688
771,34624
772,34432
773,34368
774,34304
775,34240
776,34176
777,34112
778,34048
779,34048
780,34048
781,34112
782,34112
783,34112
784,34112
785,34176
786,34240
787,34240
788,34240
789,34176
790,34176
791,34304
792,34304
793,34304
794,34368
795,34368
796,34368
797,34432
798,34560
799,34624
800,34688
801,34752
802,34816
803,34880
804,34816
805,34816
806,34880
807,34880
808,34944
809,34944
810,34944
811,34944
812,34944
813,35008
814,35008
815,35008
816,35008
817,34944
818,34880
819,34816
820,34816
821,34624
822,34560
823,34496
824,34368
825,34176
826,34112
827,33984
828,33920
829,33856
830,33728
831,33664
832,33600
833,33472
834,33472
835,33408
836,33600
837,33536
838,33536
839,33600
840,33664
841,33728
842,33728
843,33728
844,33728
845,33728
846,33728
847,33728
848,33792
849,33792
850,33792
851,33792
852,33856
853,33920
854,33920
855,33856
856,33856
857,33856
858,33792
859,33792
860,33792
861,33792
862,33856
863,33856
864,33920
865,33856
866,33856
867,33792
868,33792
869,33792
870,33792
871,33792
872,33728
873,33728
874,33728
875,33728
876,33664
877,33728
878,33792
879,33728
880,33664
881,33728
882,33664
883,33728
884,33728
885,33792
886,33856
887,33856
888,33792
889,33792
890,33856
891,33856
892,33856
893,33920
894,33984
895,34048
896,34048
897,33984
898,34176
899,34240
900,34368
901,34432
902,34432
903,34368
904,34240
905,34176
906,34176
907,34176
908,34048
909,33920
910,33792
911,33664
912,33408
913,33280
914,33216
915,33280
916,33280
917,33344
918,33408
919,33536
920,33536
921,33536
922,33600
923,33664
924,33664
925,33664
926,33664
927,33728
928,33792
929,33792
930,33792
931,33792
932,33792
933,33728
934,33728
935,33728
936,33792
937,33984
938,34304
939,34880
940,35712
941,36992
942,37120
943,38080
944,36992
945,35136
946,33472
947,32512
948,32128
949,31872
950,31744
951,31872
952,32128
953,32448
954,32896
955,33408
956,33856
957,34240
958,34432
959,34496
960,34560
961,34624
962,34560
963,34496
964,34432
965,34368
966,34304
967,34240
968,34112
969,34176
970,34176
971,34176
972,34176
973,34240
974,34240
975,34240
976,34240
977,34368
978,34368
979,34368
980,34304
981,34368
982,34368
983,34432
984,34496
985,34560
986,34624
987,34560
988,34624
989,34688
990,34688
991,34688
992,34688
993,34688
994,34816
995,34880
996,34944
997,34944
998,35072
999,35136
1000,35072
1001,35136
1002,35200
1003,35136
1004,35008
1005,35008
1006,35072
1007,35072
1008,35008
1009,34880
1010,34816
1011,34752
1012,34624
1013,34496
1014,34368
1015,34240
1016,34176
1017,34112
1018,34048
1019,33984
1020,33856
1021,33728
1022,33728
1023,33792
1024,33792
1025,33728
1026,33664
1027,33792
1028,33856
1029,33792
1030,33792
1031,33920
1032,33856
1033,33920
1034,33920
1035,33984
1036,33984
1037,33984
1038,33920
1039,33920
1040,33984
1041,33984
1042,33920
1043,33984
1044,33984
1045,33984
1046,33920
1047,33856
1048,34048
1049,34048
1050,34048
1051,33984
1052,34048
1053,34048
1054,34048
1055,33984
1056,34048
1057,34112
1058,34048
1059,33984
1060,33984
1061,33984
1062,33920
1063,33856
1064,33920
1065,33984
1066,33984
1067,33984
1068,33984
1069,33984
1070,33920
1071,33920
1072,33984
1073,34048
1074,34112
1075,34048
1076,34112
1077,34176
1078,34240
1079,34240
1080,34240
1081,34240
1082,34368
1083,34560
1084,34752
1085,34880
1086,34816
1087,34688
1088,34560
1089,34560
1090,34496
1091,34368
1092,34304
1093,34112
1094,33984
1095,33728
1096,33536
1097,33408
1098,33344
1099,33408
1100,33472
1101,33536
1102,33664
1103,33792
1104,33856
1105,33856
1106,33920
1107,33920
1108,33920
1109,33920
1110,33920
1111,33920
1112,33920
1113,33920
1114,33984
1115,33984
1116,33920
1117,33856
1118,33920
1119,33984
1120,34112
1121,34368
1122,34816
1123,35584
1124,36544
1125,37568
1126,38720
1127,38592
1128,36928
1129,34816
1130,33088
1131,32128
1132,31552
1133,31296
1134,31296
1135,31552
1136,32256
1137,32256
1138,33280
1139,33856
1140,34304
1141,34624
1142,34752
1143,34816
1144,34880
1145,34816
1146,34688
1147,34624
1148,34560
1149,34496
1150,34432
1151,34304
1152,34304
1153,34304
1154,34304
1155,34304
1156,34304
1157,34368
1158,34304
1159,34368
1160,34432
1161,34432
1162,34432
1163,34432
1164,34496
1165,34496
1166,34496
1167,34432
1168,34432
1169,34432
1170,34496
1171,34624
1172,34752
1173,34880
1174,35008
1175,35008
1176,35008
1177,35008
1178,35008
1179,35072
1180,35072
1181,35200
1182,35200
1183,35200
1184,35200
1185,35200
1186,35200
1187,35264
1188,35200
1189,35200
1190,35264
1191,35136
1192,35008
1193,34944
1194,34944
1195,34880
1196,34688
1197,34624
1198,34496
1199,34368
1200,34048
1201,33856
1202,33792
1203,33728
1204,33728
1205,33664
1206,33664
1207,33664
1208,33600
1209,33600
1210,33664
1211,33728
1212,33664
1213,33728
1214,33792
1215,33920
1216,33920
1217,33920
1218,33920
1219,33920
1220,33920
1221,33920
1222,33984
1223,34048
1224,34048
1225,33984
1226,33920
1227,33920
1228,33984
1229,33984
1230,33920
1231,33920
1232,33920
1233,33856
1234,33856
1235,33856
1236,33856
1237,33856
1238,33856
1239,33920
1240,33984
1241,34048
1242,33984
1243,33984
1244,33984
1245,33920
1246,33856
1247,33792
1248,33856
1249,33920
1250,33920
1251,33856
1252,33920
1253,33920
1254,33920
1255,33856
1256,33856
1257,33792
1258,33856
1259,33856
1260,33984
1261,34048
1262,34112
1263,34112
1264,34112
1265,34112
1266,34112
1267,34176
1268,34432
1269,34688
1270,34816
1271,34752
1272,34688
1273,34624
1274,34624
1275,34560
1276,34496
1277,34368
1278,34240
1279,33984
1280,33728
1281,33472
1282,33344
1283,33280
1284,33280
1285,33344
1286,33472
1287,33408
1288,33664
1289,33728
1290,33856
1291,33856
1292,33856
1293,33856
1294,33920
1295,33856
1296,33792
1297,33792
1298,33792
1299,33856
1300,33792
1301,33792
1302,33856
1303,33856
1304,33920
1305,33920
1306,34176
1307,34624
1308,35136
1309,36032
1310,37184
1311,38592
1312,39360
1313,38336
1314,36160
1315,33920
1316,31488
1317,31296
1318,30528
1319,30528
1320,30848
1321,31424
1322,32256
1323,33152
1324,33856
1325,34368
1326,34624
1327,34816
1328,34880
1329,34880
1330,34752
1331,34688
1332,34560
1333,34496
1334,34304
1335,34240
1336,34240
1337,34304
1338,34240
1339,34304
1340,34304
1341,34368
1342,34304
1343,34240
1344,34304
1345,34304
1346,34304
1347,34240
1348,34432
1349,34496
1350,34432
1351,34432
1352,34496
1353,34624
1354,34624
1355,34560
1356,34560
1357,34624
1358,34624
1359,34688
1360,34752
1361,34880
1362,34816
1363,34944
1364,34944
1365,35008
1366,35136
1367,35136
1368,35200
1369,35264
1370,35264
1371,35200
1372,35200
1373,35264
1374,35328
1375,35264
1376,35200
1377,35136
1378,35136
1379,35008
1380,34816
1381,34688
1382,34624
1383,34432
1384,34240
1385,34048
1386,33920
1387,33728
1388,33664
1389,33664
1390,33664
1391,33664
1392,33664
1393,33664
1394,33664
1395,33664
1396,33664
1397,33728
1398,33792
1399,33856
1400,33856
1401,33856
1402,33856
1403,33856
1404,33856
1405,33792
1406,33792
1407,33792
1408,33792
1409,33792
1410,33856
1411,33920
1412,33856
1413,33856
1414,33856
1415,33856
1416,33856
1417,33792
1418,33792
1419,33856
1420,33856
1421,33856
1422,33856
1423,33920
1424,33920
1425,33920
1426,33856
1427,33856
1428,33856
1429,33792
1430,33664
1431,33664
1432,33728
1433,33728
1434,33728
1435,33728
1436,33856
1437,33856
1438,33856
1439,33920
1440,33920
1441,33920
1442,33856
1443,33856
1444,33856
1445,33856
1446,33792
1447,33792
1448,33856
1449,33984
1450,34112
1451,34112
1452,34112
1453,34176
1454,34112
1455,34112
1456,34112
1457,34176
1458,34368
1459,34560
1460,34688
1461,34752
1462,34752
1463,34688
1464,34624
1465,34560
1466,34496
1467,34304
1468,34112
1469,33920
1470,33728
1471,33536
1472,33344
1473,33280
1474,33344
1475,33344
1476,33344
1477,33408
1478,33472
1479,33536
1480,33600
1481,33728
1482,33792
1483,33792
1484,33728
1485,33792
1486,33856
1487,33856
1488,33856
1489,33792
1490,33792
1491,33792
1492,33792
1493,33728
1494,33792
1495,33792
1496,33984
1497,34368
1498,34944
1499,35776
1500,36800
1501,38080
1502,39168
1503,38656
1504,36736
1505,34368
1506,32448
1507,31232
1508,30592
1509,30400
1510,30592
1511,31232
1512,32064
1513,32896
1514,33600
1515,34240
1516,34624
1517,34816
1518,34880
1519,34880
1520,34816
1521,34624
1522,34560
1523,34432
1524,34368
1525,34240
1526,34112
1527,34112
1528,34176
1529,34176
1530,34112
1531,34112
1532,34176
1533,34176
1534,34176
1535,34176
1536,34240
1537,34240
1538,34240
1539,34304
1540,34368
1541,34432
1542,34368
1543,34368
1544,34432
1545,34432
1546,34432
1547,34496
1548,34560
1549,34560
1550,34560
1551,34624
1552,34688
1553,34816
1554,34880
1555,34816
1556,34944
1557,35008
1558,35008
1559,35008
1560,35072
1561,35136
1562,35136
1563,35072
1564,35072
1565,35072
1566,35072
1567,35008
1568,34944
1569,34880
1570,34816
1571,34624
1572,34496
1573,34368
1574,34240
1575,34048
1576,33920
1577,33792
1578,33728
1579,33664
1580,33600
1581,33536
1582,33536
1583,33536
1584,33536
1585,33536
1586,33600
1587,33536
1588,33536
1589,33536
1590,33600
1591,33664
1592,33664
1593,33664
1594,33664
1595,33728
1596,33728
1597,33728
1598,33728
1599,33792
1600,33792
1601,33728
1602,33728
1603,33728
1604,33664
1605,33664
1606,33664
1607,33728
1608,33728
1609,33664
1610,33664
1611,33600
1612,33600
1613,33600
1614,33664
1615,33728
1616,33728
1617,33728
1618,33664
1619,33664
1620,33664
1621,33664
1622,33728
1623,33792
1624,33856
1625,33792
1626,33728
1627,33664
1628,33664
1629,33536
1630,33472
1631,33536
1632,33600
1633,33664
1634,33664
1635,33664
1636,33728
1637,33664
1638,33664
1639,33664
1640,33728
1641,33792
1642,33792
1643,33792
1644,33792
1645,33856
1646,33920
1647,33984
1648,34048
1649,34048
1650,34048
1651,34112
1652,34304
1653,34496
1654,34496
1655,34496
1656,34432
1657,34432
1658,34304
1659,34176
1660,34048
1661,33984
1662,33856
1663,33600
1664,33408
1665,33216
1666,33088
1667,33024
1668,33088
1669,33216
1670,33344
1671,33408
1672,33472
1673,33600
1674,33728
1675,33728
1676,33728
1677,33792
1678,33792
1679,33728
1680,33664
1681,33664
1682,33728
1683,33792
1684,33792
1685,33792
1686,33728
1687,33664
1688,33600
1689,33792
1690,34240
1691,34944
1692,35776
1693,36608
1694,37632
1695,38016
1696,36928
1697,35072
1698,33472
1699,32512
1700,32000
1701,31744
1702,31744
1703,31936
1704,32128
1705,32512
1706,32960
1707,33408
1708,33728
1709,34048
1710,34304
1711,34432
1712,34496
1713,34496
1714,34432
1715,34432
1716,34432
1717,34304
1718,34176
1719,34176
1720,34176
1721,34176
1722,34176
1723,34176
1724,34240
1725,34176
1726,34112
1727,34112
1728,34176
1729,34112
1730,34112
1731,34176
1732,34304
1733,34304
1734,34304
1735,34240
1736,34304
1737,34368
1738,34368
1739,34496
1740,34624
1741,34688
1742,34624
1743,34560
1744,34624
1745,34688
1746,34752
1747,34752
1748,34816
1749,34880
1750,35008
1751,35008
1752,35008
1753,35008
1754,35008
1755,34944
1756,34944
1757,35008
1758,34944
1759,34880
1760,34880
1761,34880
1762,34752
1763,34624
1764,34560
1765,34496
1766,34368
1767,34240
1768,34112
1769,34048
1770,33984
1771,33856
1772,33728
1773,33664
1774,33664
1775,33664
1776,33600
1777,33600
1778,33600
1779,33600
1780,33600
1781,33664
1782,33792
1783,33856
1784,33856
1785,33856
1786,33856
1787,33856
1788,33792
1789,33792
1790,33856
1791,33792
1792,33792
1793,33792
1794,33792
1795,33792
1796,33792
1797,33792
1798,33856
1799,33920
1800,33920
1801,33920
1802,33920
1803,33984
1804,33920
1805,33920
1806,33984
1807,33984
1808,33920
1809,33920
1810,33856
1811,33920
1812,33920
1813,33856
1814,33792
1815,33856
1816,33856
1817,33856
1818,33856
1819,33856
1820,33920
1821,33920
1822,33856
1823,33856
1824,33920
1825,33920
1826,33856
1827,33920
1828,33984
1829,33984
1830,33984
1831,34048
1832,34176
1833,34304
1834,34304
1835,34368
1836,34560
1837,34688
1838,34624
1839,34496
1840,34496
1841,34432
1842,34368
1843,34240
1844,34176
1845,34112
1846,33856
1847,33664
1848,33536
1849,33408
1850,33344
1851,33344
1852,33408
1853,33536
1854,33600
1855,33600
1856,33664
1857,33728
1858,33728
1859,33728
1860,33728
1861,33792
1862,33792
1863,33792
1864,33792
1865,33856
1866,33920
1867,33856
1868,33856
1869,33856
1870,33792
1871,33856
1872,33920
1873,34112
1874,34496
1875,34944
1876,35648
1877,36544
1878,37632
1879,38400
1880,37504
1881,35712
1882,33856
1883,32704
1884,32128
1885,31872
1886,31808
1887,31936
1888,32064
1889,32320
1890,32832
1891,33280
1892,33728
1893,34112
1894,34496
1895,34688
1896,34752
1897,34816
1898,34752
1899,34688
1900,34496
1901,34304
1902,34176
1903,34176
1904,34176
1905,34176
1906,34240
1907,34240
1908,34240
1909,34240
1910,34304
1911,34368
1912,34368
1913,34432
1914,34432
1915,34496
1916,34496
1917,34432
1918,34432
1919,34496
1920,34560
1921,34560
1922,34496
1923,34432
1924,34496
1925,34560
1926,34560
1927,34624
1928,34752
1929,34880
1930,34880
1931,34944
1932,35008
1933,35072
1934,35072
1935,35072
1936,35136
1937,35200
1938,35136
1939,35136
1940,35072
1941,35008
1942,35008
1943,35008
1944,35008
1945,34944
1946,34816
1947,34752
1948,34688
1949,34560
1950,34496
1951,34304
1952,34176
1953,34048
1954,33920
1955,33792
1956,33728
1957,33728
1958,33664
1959,33664
1960,33664
1961,33792
1962,33792
1963,33792
1964,33792
1965,33792
1966,33856
1967,33856
1968,33856
1969,33920
1970,33920
1971,33920
1972,33920
1973,33984
1974,33984
1975,33984
1976,33920
1977,33856
1978,33856
1979,33856
1980,33856
1981,33856
1982,33920
1983,33920
1984,33984
1985,33984
1986,33984
1987,33984
1988,33920
1989,33920
1990,33920
1991,33984
1992,33920
1993,33856
1994,33920
1995,33920
1996,33856
1997,33792
1998,33856
1999,33920
2000,33920
2001,33856
2002,33856
2003,33920
2004,33920
2005,33920
2006,33856
2007,33856
2008,33792
2009,33792
2010,33792
2011,33856
2012,33856
2013,33856
2014,33856
2015,33920
2016,34048
2017,34048
2018,34112
2019,34176
2020,34240
2021,34176
2022,34176
2023,34304
2024,34560
2025,34688
2026,34752
2027,34752
2028,34688
2029,34560
2030,34496
2031,34368
2032,34304
2033,34240
2034,33984
2035,33728
2036,33536
2037,33408
2038,33344
2039,33344
2040,33408
2041,33536
2042,33600
2043,33600
2044,33664
2045,33728
2046,33728
2047,33728
2048,33856
2049,33920
2050,33920
2051,33920
2052,33984
2053,34048
2054,34048
2055,33984
2056,33920
2057,33984
2058,33920
2059,33856
2060,33856
2061,34048
2062,34432
2063,34944
2064,35648
2065,36480
2066,37568
2067,38784
2068,38464
2069,36864
2070,34816
2071,33024
2072,31872
2073,31296
2074,31104
2075,31232
2076,31552
2077,32128
2078,32832
2079,33536
2080,34112
2081,34432
2082,34752
2083,34880
2084,34880
2085,34816
2086,34816
2087,34752
2088,34624
2089,34496
2090,34496
2091,34368
2092,34304
2093,34240
2094,34304
2095,34304
2096,34240
2097,34240
2098,34240
2099,34368
2100,34368
2101,34432
2102,34432
2103,34496
2104,34496
2105,34432
2106,34432
2107,34496
2108,34560
2109,34560
2110,34560
2111,34624
2112,34688
2113,34688
2114,34624
2115,34688
2116,34816
2117,34816
2118,34880
2119,35008
2120,35072
2121,35136
2122,35136
2123,35200
2124,35264
2125,35264
2126,35200
2127,35200
2128,35200
2129,35136
2130,35072
2131,35072
2132,35072
2133,35072
2134,35072
2135,35008
2136,34880
2137,34752
2138,34560
2139,34368
2140,34304
2141,34176
2142,34048
2143,33856
2144,33792
2145,33728
2146,33664
2147,33600
2148,33664
2149,33728
2150,33792
2151,33792
2152,33792
2153,33792
2154,33792
2155,33792
2156,33792
2157,33856
2158,33920
2159,33856
2160,33792
2161,33728
2162,33792
2163,33856
2164,33856
2165,33984
2166,34048
2167,34048
2168,34048
2169,34048
2170,34048
2171,33984
2172,33920
2173,33984
2174,33984
2175,33984
2176,33984
2177,33984
2178,33984
2179,33984
2180,33920
2181,33856
2182,33920
2183,33920
2184,33856
2185,33792
2186,33856
2187,33856
2188,33920
2189,33920
2190,33984
2191,33984
2192,33920
2193,33856
2194,33856
2195,33856
2196,33920
2197,33856
2198,33856
2199,33856
2200,33792
2201,33728
2202,33728
2203,33792
2204,33856
2205,33856
2206,33920
2207,33984
2208,34048
2209,34048
2210,34112
2211,34176
2212,34304
2213,34432
2214,34432
2215,34432
2216,34368
2217,34304
2218,34432
2219,34560
2220,34688
2221,34624
2222,34496
2223,34496
2224,34496
2225,34432
2226,34368
2227,34304
2228,34240
2229,34048
2230,33728
2231,33472
2232,33344
2233,33344
2234,33344
2235,33472
2236,33536
2237,33664
2238,33664
2239,33664
2240,33664
2241,33728
2242,33792
2243,33792
2244,33856
2245,33920
2246,33856
2247,33856
2248,33920
2249,33984
2250,33984
2251,33920
2252,33856
2253,33856
2254,33920
2255,33920
2256,34112
2257,34560
2258,35264
2259,36288
2260,37632
2261,39040
2262,39488
2263,38272
2264,36160
2265,34112
2266,32576
2267,31680
2268,31168
2269,31040
2270,31232
2271,31744
2272,32384
2273,33088
2274,33792
2275,34176
2276,34432
2277,34624
2278,34752
2279,34752
2280,34752
2281,34688
2282,34624
2283,34624
2284,34496
2285,34432
2286,34368
2287,34304
2288,34304
2289,34240
2290,34304
2291,34432
2292,34368
2293,34304
2294,34304
2295,34304
2296,34304
2297,34304
2298,34368
2299,34432
2300,34432
2301,34432
2302,34432
2303,34496
2304,34560
2305,34560
2306,34560
2307,34624
2308,34752
2309,34816
2310,34816
2311,34880
2312,34880
2313,34944
2314,35008
2315,35136
2316,35264
2317,35264
2318,35200
2319,35200
2320,35136
2321,35136
2322,35072
2323,35136
2324,35200
2325,35200
2326,35200
2327,35136
2328,35136
2329,35008
2330,34880
2331,34752
2332,34624
2333,34496
2334,34304
2335,33984
2336,33856
2337,33728
2338,33664
2339,33664
2340,33728
2341,33792
2342,33792
2343,33728
2344,33792
2345,33792
2346,33792
2347,33728
2348,33728
2349,33792
2350,33856
2351,33856
2352,33856
2353,33920
2354,33920
2355,33920
2356,33920
2357,33920
2358,33984
2359,33920
2360,33856
2361,33856
2362,33920
2363,33920
2364,33856
2365,33920
2366,33920
2367,33920
2368,33792
2369,33792
2370,33792
2371,33792
2372,33728
2373,33728
2374,33792
2375,33792
2376,33728
2377,33728
2378,33792
2379,33856
2380,33856
2381,33792
2382,33792
2383,33792
2384,33856
2385,33856
2386,33856
2387,33856
2388,33856
2389,33792
2390,33856
2391,33856
2392,33856
2393,33856
2394,33920
2395,33984
2396,33984
2397,33920
2398,33856
2399,33856
2400,33856
2401,33856
2402,33856
2403,33856
2404,33856
2405,33856
2406,33792
2407,33920
2408,34048
2409,34112
2410,34176
2411,34240
2412,34368
2413,34304
2414,34240
2415,34304
2416,34368
2417,34368
2418,34496
2419,34624
2420,34688
2421,34688
2422,34560
2423,34496
2424,34496
2425,34432
2426,34368
2427,34240
2428,34112
2429,33984
2430,33728
2431,33472
2432,33408
2433,33408
2434,33344
2435,33344
2436,33472
2437,33536
2438,33600
2439,33664
2440,33792
2441,33856
2442,33856
2443,33792
2444,33856
2445,33856
2446,33856
2447,33856
2448,33856
2449,33920
2450,33920
2451,33920
2452,33920
2453,33920
2454,33984
2455,33920
2456,34112
2457,34624
2458,35264
2459,36160
2460,37312
2461,38720
2462,39360
2463,38144
2464,35904
2465,33664
2466,32000
2467,30976
2468,30464
2469,30464
2470,30912
2471,31680
2472,32448
2473,33216
2474,33984
2475,34496
2476,34752
2477,34880
2478,34944
2479,34944
2480,34816
2481,34688
2482,34624
2483,34496
2484,34432
2485,34304
2486,34304
2487,34304
2488,34304
2489,34304
2490,34304
2491,34304
2492,34304
2493,34240
2494,34176
2495,34304
2496,34368
2497,34368
2498,34368
2499,34432
2500,34432
2501,34496
2502,34496
2503,34560
2504,34560
2505,34560
2506,34624
2507,34688
2508,34752
2509,34816
2510,34880
2511,34944
2512,35008
2513,35072
2514,35072
2515,35072
2516,35136
2517,35136
2518,35072
2519,35072
2520,35072
2521,35136
2522,35136
2523,35200
2524,35328
2525,35328
2526,35264
2527,35200
2528,35136
2529,35136
2530,34944
2531,34752
2532,34624
2533,34496
2534,34304
2535,34176
2536,34048
2537,33920
2538,33856
2539,33728
2540,33664
2541,33600
2542,33600
2543,33536
2544,33536
2545,33600
2546,33600
2547,33600
2548,33600
2549,33664
2550,33792
2551,33792
2552,33792
2553,33792
2554,33856
2555,33856
2556,33792
2557,33792
2558,33792
2559,33792
2560,33792
2561,33792
2562,33792
2563,33728
2564,33664
2565,33664
2566,33792
2567,33856
2568,33856
2569,33856
2570,33856
2571,33856
2572,33728
2573,33664
2574,33728
2575,33792
2576,33792
2577,33728
2578,33728
2579,33792
2580,33728
2581,33728
2582,33792
2583,33856
2584,33728
2585,33728
2586,33728
2587,33728
2588,33728
2589,33728
2590,33792
2591,33792
2592,33728
2593,33728
2594,33728
2595,33728
2596,33664
2597,33664
2598,33792
2599,33856
2600,33856
2601,33792
2602,33856
2603,33920
2604,33920
2605,33856
2606,33856
2607,33792
2608,33728
2609,33664
2610,33600
2611,33600
2612,33600
2613,33664
2614,33792
2615,33792
2616,33856
2617,33920
2618,33984
2619,34176
2620,34240
2621,34240
2622,34304
2623,34432
2624,34560
2625,34560
2626,34624
2627,34880
2628,35072
2629,35200
2630,35136
2631,34880
2632,34432
2633,33920
2634,33472
2635,33472
2636,33664
2637,33664
2638,33344
2639,32896
2640,32576
2641,32320
2642,32320
2643,32256
2644,32896
2645,33344
2646,33728
2647,33984
2648,34240
2649,34688
2650,35392
2651,36160
2652,36160
2653,36288
2654,35264
2655,35392
2656,36288
2657,36480
2658,35072
2659,32832
2660,31168
2661,30528
2662,30400
2663,30656
2664,31360
2665,32320
2666,34304
2667,34560
2668,38464
2669,39936
2670,39552
2671,38144
2672,36544
2673,34752
2674,33408
2675,32128
2676,30848
2677,29696
2678,29248
2679,30016
2680,31552
2681,32896
2682,33600
2683,33728
2684,33728
2685,33728
2686,34048
2687,34432
2688,35392
2689,36096
2690,36032
2691,35072
2692,33920
2693,32896
2694,32320
2695,32192
2696,32384
2697,32768
2698,33280
2699,33728
2700,34048
2701,34304
2702,34496
2703,34304
2704,33856
2705,33792
2706,33920
2707,34176
2708,34304
2709,34240
2710,33984
2711,33792
2712,33664
2713,33728
2714,34048
2715,34368
2716,34560
2717,34560
2718,34688
2719,34752
2720,34816
2721,34880
2722,34944
2723,35136
2724,35328
2725,35328
2726,35328
2727,35328
2728,35392
2729,35392
2730,35392
2731,35456
2732,35456
2733,35392
2734,35328
2735,35200
2736,35008
2737,34816
2738,34688
2739,34688
2740,34752
2741,34752
2742,34752
2743,34816
2744,34752
2745,34304
2746,33856
2747,33664
2748,33664
2749,33856
2750,34112
2751,34560
2752,34880
2753,34688
2754,34432
2755,34176
2756,34112
2757,34048
2758,34496
2759,34944
2760,35136
2761,34816
2762,34240
2763,33856
2764,33792
2765,34112
2766,34624
2767,35008
2768,35072
2769,35008
2770,34880
2771,34560
2772,34368
2773,34368
2774,34560
2775,34688
2776,34880
2777,35136
2778,35328
2779,35392
2780,35392
2781,35392
2782,35456
2783,35456
2784,35456
2785,35328
2786,35328
2787,35328
2788,35392
2789,35456
2790,35584
2791,35712
2792,35968
2793,36096
2794,36160
2795,36096
2796,35904
2797,35584
2798,35328
2799,35264
2800,35328
2801,35456
2802,35392
2803,35072
2804,34624
2805,34240
2806,34112
2807,34112
2808,34368
2809,34496
2810,34624
2811,34688
2812,34624
2813,34496
2814,34560
2815,34688
2816,34816
2817,34752
2818,34624
2819,34496
2820,34432
2821,34368
2822,34560
2823,34944
2824,35008
2825,34112
2826,33152
2827,32448
2828,32064
2829,31808
2830,31744
2831,31872
2832,32128
2833,32448
2834,32640
2835,32768
2836,32896
2837,33024
2838,33152
2839,33216
2840,33408
2841,33600
2842,33600
2843,33600
2844,33792
2845,34240
2846,34368
2847,33984
2848,33408
2849,32896
2850,32576
2851,32512
2852,32704
2853,33216
2854,33792
2855,34496
2856,35456
2857,36544
2858,37632
2859,37504
2860,36224
2861,34624
2862,33280
2863,32384
2864,31936
2865,31744
2866,31872
2867,32064
2868,32256
2869,32448
2870,32768
2871,33152
2872,33536
2873,33920
2874,34176
2875,34304
2876,34112
2877,34048
2878,33984
2879,33920
2880,33856
2881,33856
2882,33792
2883,33728
2884,33664
2885,33728
2886,33792
2887,33728
2888,33664
2889,33728
2890,33856
2891,34176
2892,34176
2893,34432
2894,34496
2895,34560
2896,34368
2897,34112
2898,33920
2899,33792
2900,33728
2901,33600
2902,33536
2903,33472
2904,33408
2905,33408
2906,33600
2907,33856
2908,34048
2909,34112
2910,34112
2911,33984
2912,34048
2913,34048
2914,34112
2915,34176
2916,34240
2917,34304
2918,34304
2919,34432
2920,34496
2921,34496
2922,34432
2923,34432
2924,34368
2925,34368
2926,34240
2927,34112
2928,34048
2929,33984
2930,33856
2931,33664
2932,33536
2933,33408
2934,33216
2935,33088
2936,33024
2937,33024
2938,32960
2939,32896
2940,32960
2941,33024
2942,33024
2943,32960
2944,33024
2945,33088
2946,33088
2947,33088
2948,33152
2949,33216
2950,33216
2951,33216
2952,33216
2953,33408
2954,33472
2955,33536
2956,33536
2957,33536
2958,33472
2959,33472
2960,33408
2961,33472
2962,33472
2963,33472
2964,33472
2965,33472
2966,33536
2967,33536
2968,33472
2969,33472
2970,33536
2971,33536
2972,33536
2973,33536
2974,33600
2975,33664
2976,33664
2977,33728
2978,33792
2979,33920
2980,33920
2981,33984
2982,34048
2983,34112
2984,34112
2985,34176
2986,34432
2987,34624
2988,34688
2989,34624
2990,34560
2991,34496
2992,34432
2993,34368
2994,34304
2995,34240
2996,34112
2997,33920
2998,33728
2999,33600
3000,33472
3001,33472
3002,33472
3003,33600
3004,33792
3005,33856
3006,33920
3007,33984
3008,34112
3009,34112
3010,34112
3011,34176
3012,34240
3013,34304
3014,34304
3015,34304
3016,34304
3017,34304
3018,34240
3019,34240
3020,34240
3021,34304
3022,34368
3023,34432
3024,34560
3025,34816
3026,35456
3027,35520
3028,36800
3029,37952
3030,39040
3031,38720
3032,37184
3033,35392
3034,33984
3035,33152
3036,32704
3037,32512
3038,32576
3039,32768
3040,33088
3041,33792
3042,33792
3043,34560
3044,34944
3045,35264
3046,35456
3047,35520
3048,35520
3049,35520
3050,35456
3051,35392
3052,35264
3053,35200
3054,35136
3055,35072
3056,35072
3057,35072
3058,35008
3059,35008
3060,34944
3061,34944
3062,34944
3063,34944
3064,34944
3065,35008
3066,35072
3067,35136
3068,35136
3069,35136
3070,35136
3071,35200
3072,35200
3073,35136
3074,35200
3075,35264
3076,35264
3077,35200
3078,35264
3079,35328
3080,35392
3081,35392
3082,35392
3083,35520
3084,35520
3085,35520
3086,35520
3087,35584
3088,35584
3089,35520
3090,35520
3091,35584
3092,35584
3093,35520
3094,35456
3095,35456
3096,35392
3097,35264
3098,35136
3099,35008
3100,34880
3101,34624
3102,34560
3103,34304
3104,34112
3105,33984
3106,33856
3107,33792
3108,33792
3109,33792
3110,33728
3111,33728
3112,33792
3113,33728
3114,33664
3115,33664
3116,33728
3117,33792
3118,33792
3119,33728
3120,33728
3121,33792
3122,33792
3123,33792
3124,33856
3125,33856
3126,33856
3127,33920
3128,33920
3129,33984
3130,33984
3131,33984
3132,33920
3133,34048
3134,33984
3135,33920
3136,33920
3137,33984
3138,33984
3139,33984
3140,34048
3141,34176
3142,34240
3143,34304
3144,34368
3145,34432
3146,34368
3147,34240
3148,34240
3149,34368
3150,34560
3151,34688
3152,34688
3153,34688
3154,34624
3155,34560
3156,34432
3157,34432
3158,34432
3159,34368
3160,34176
3161,33984
3162,33792
3163,33600
3164,33408
3165,33344
3166,33344
3167,33408
3168,33408
3169,33408
3170,33536
3171,33664
3172,33664
3173,33728
3174,33792
3175,33856
3176,33856
3177,33792
3178,33856
3179,33856
3180,33920
3181,33920
3182,33920
3183,33920
3184,33856
3185,33792
3186,33728
3187,33792
3188,33920
3189,34176
3190,34624
3191,35776
3192,35840
3193,37568
3194,38912
3195,39040
3196,37568
3197,35328
3198,33280
3199,31936
3200,31168
3201,30848
3202,30848
3203,31232
3204,31936
3205,32704
3206,33600
3207,33984
3208,34432
3209,34624
3210,34688
3211,34752
3212,34688
3213,34624
3214,34560
3215,34432
3216,34432
3217,34368
3218,34304
3219,34304
3220,34304
3221,34368
3222,34304
3223,34304
3224,34368
3225,34368
3226,34304
3227,34304
3228,34368
3229,34432
3230,34432
3231,34432
3232,34432
3233,34496
3234,34560
3235,34560
3236,34624
3237,34688
3238,34752
3239,34752
3240,34816
3241,34880
3242,34944
3243,35008
3244,35008
3245,35136
3246,35200
3247,35200
3248,35264
3249,35328
3250,35328
3251,35392
3252,35328
3253,35328
3254,35328
3255,35264
3256,35200
3257,35200
3258,35200
3259,35136
3260,35008
3261,34880
3262,34816
3263,34688
3264,34496
3265,34304
3266,34176
3267,34112
3268,33984
3269,33856
3270,33792
3271,33728
3272,33600
3273,33536
3274,33536
3275,33536
3276,33536
3277,33536
3278,33600
3279,33664
3280,33728
3281,33728
3282,33728
3283,33856
3284,33920
3285,33920
3286,33856
3287,33920
3288,34048
3289,34048
3290,33984
3291,34048
3292,33984
3293,33920
3294,33792
3295,33728
3296,33664
3297,33664
3298,33664
3299,33728
3300,33792
3301,33856
3302,33856
3303,33984
3304,34048
3305,34112
3306,34176
3307,34176
3308,34304
3309,34368
3310,34432
3311,34496
3312,34560
3313,34688
3314,34624
3315,34496
3316,34432
3317,34304
3318,34240
3319,34240
3320,34240
3321,34112
3322,33920
3323,33728
3324,33536
3325,33408
3326,33216
3327,33152
3328,33152
3329,33216
3330,33216
3331,33216
3332,33216
3333,33280
3334,33344
3335,33344
3336,33408
3337,33536
3338,33600
3339,33600
3340,33600
3341,33664
3342,33664
3343,33728
3344,33728
3345,33728
3346,33792
3347,33728
3348,33664
3349,33664
3350,33728
3351,33920
3352,34304
3353,35008
3354,35968
3355,36992
3356,38464
3357,38336
3358,36928
3359,34816
3360,32832
3361,31616
3362,31040
3363,30784
3364,30848
3365,31168
3366,31808
3367,32576
3368,33280
3369,33792
3370,34240
3371,34560
3372,34624
3373,34624
3374,34624
3375,34560
3376,34432
3377,34304
3378,34176
3379,34112
3380,34048
3381,33984
3382,33984
3383,34048
3384,34048
3385,33984
3386,33984
3387,34048
3388,34112
3389,34112
3390,34176
3391,34240
3392,34304
3393,34304
3394,34240
3395,34240
3396,34304
3397,34304
3398,34304
3399,34368
3400,34496
3401,34560
3402,34496
3403,34624
3404,34688
3405,34752
3406,34752
3407,34816
3408,34880
3409,34944
3410,34944
3411,34944
3412,35008
3413,35072
3414,35072
3415,35072
3416,35136
3417,35200
3418,35136
3419,35136
3420,35200
3421,35200
3422,35072
3423,34880
3424,34752
3425,34624
3426,34432
3427,34240
3428,34112
3429,33984
3430,33856
3431,33728
3432,33664
3433,33600
3434,33600
3435,33536
3436,33536
3437,33600
3438,33600
3439,33600
3440,33600
3441,33664
3442,33728
3443,33728
3444,33792
3445,33792
3446,33856
3447,33856
3448,33856
3449,33856
3450,33856
3451,33856
3452,33792
3453,33856
3454,33856
3455,33856
3456,33856
3457,33856
3458,33920
3459,33920
3460,33920
3461,33920
3462,33984
3463,33984
3464,33984
3465,34048
3466,34112
3467,34112
3468,34112
3469,34048
3470,34112
3471,34176
3472,34176
3473,34304
3474,34496
3475,34624
3476,34688
3477,34624
3478,34560
3479,34560
3480,34496
3481,34432
3482,34432
3483,34368
3484,34176
3485,33984
3486,33728
3487,33536
3488,33408
3489,33280
3490,33216
3491,33280
3492,33344
3493,33472
3494,33472
3495,33600
3496,33664
3497,33728
3498,33728
3499,33792
3500,33792
3501,33792
3502,33728
3503,33728
3504,33792
3505,33792
3506,33792
3507,33792
3508,33792
3509,33792
3510,33728
3511,33664
3512,33792
3513,34048
3514,34496
3515,35136
3516,36160
3517,37376
3518,38656
3519,38528
3520,36992
3521,34880
3522,32960
3523,31744
3524,31040
3525,30784
3526,30912
3527,31360
3528,32000
3529,32832
3530,33472
3531,33984
3532,34368
3533,34624
3534,34752
3535,34752
3536,34624
3537,34624
3538,34560
3539,34432
3540,34304
3541,34304
3542,34304
3543,34304
3544,34240
3545,34240
3546,34304
3547,34240
3548,34176
3549,34240
3550,34240
3551,34240
3552,34240
3553,34304
3554,34304
3555,34368
3556,34368
3557,34368
3558,34432
3559,34496
3560,34496
3561,34496
3562,34560
3563,34624
3564,34688
3565,34688
3566,34688
3567,34816
3568,34816
3569,34880
3570,34944
3571,35008
3572,35008
3573,35008
3574,35072
3575,35136
3576,35200
3577,35200
3578,35200
3579,35200
3580,35264
3581,35200
3582,35136
3583,35136
3584,35072
3585,34944
3586,34752
3587,34624
3588,34560
3589,34432
3590,34240
3591,34048
3592,33856
3593,33728
3594,33600
3595,33536
3596,33536
3597,33536
3598,33472
3599,33472
3600,33536
3601,33536
3602,33600
3603,33664
3604,33792
3605,33856
3606,33856
3607,33856
3608,33856
3609,33920
3610,33856
3611,33856
3612,33856
3613,33856
3614,33856
3615,33856
3616,33856
3617,33856
3618,33856
3619,33856
3620,33856
3621,33856
3622,33856
3623,33856
3624,33856
3625,33856
3626,33856
3627,33792
3628,33792
3629,33856
3630,33920
3631,33984
3632,33984
3633,34048
3634,34176
3635,34176
3636,34176
3637,34240
3638,34368
3639,34560
3640,34624
3641,34624
3642,34560
3643,34496
3644,34432
3645,34432
3646,34368
3647,34240
3648,33984
3649,33792
3650,33600
3651,33408
3652,33216
3653,33152
3654,33152
3655,33216
3656,33216
3657,33280
3658,33408
3659,33472
3660,33536
3661,33536
3662,33600
3663,33600
3664,33600
3665,33664
3666,33728
3667,33728
3668,33792
3669,33792
3670,33728
3671,33728
3672,33728
3673,33664
3674,33600
3675,33600
3676,33664
3677,33920
3678,34304
3679,35008
3680,35968
3681,37184
3682,38336
3683,38272
3684,36736
3685,34688
3686,32832
3687,31744
3688,31168
3689,30912
3690,30976
3691,31360
3692,32000
3693,32832
3694,33408
3695,33920
3696,34304
3697,34560
3698,34624
3699,34624
3700,34624
3701,34560
3702,34432
3703,34368
3704,34304
3705,34176
3706,34112
3707,33984
3708,33984
3709,33984
3710,33984
3711,33920
3712,33984
3713,34048
3714,34112
3715,34048
3716,34048
3717,34176
3718,34240
3719,34176
3720,34240
3721,34304
3722,34304
3723,34304
3724,34368
3725,34368
3726,34368
3727,34368
3728,34304
3729,34368
3730,34432
3731,34496
3732,34560
3733,34624
3734,34688
3735,34752
3736,34688
3737,34752
3738,34816
3739,34880
3740,34816
3741,34816
3742,34816
3743,34816
3744,34816
3745,34752
3746,34752
3747,34752
3748,34688
3749,34624
3750,34560
3751,34496
3752,34368
3753,34176
3754,34112
3755,33984
3756,33792
3757,33664
3758,33600
3759,33600
3760,33536
3761,33408
3762,33344
3763,33344
3764,33408
3765,33408
3766,33472
3767,33536
3768,33600
3769,33600
3770,33600
3771,33664
3772,33664
3773,33664
3774,33664
3775,33664
3776,33728
3777,33728
3778,33728
3779,33728
3780,33792
3781,33728
3782,33664
3783,33728
3784,33792
3785,33792
3786,33792
3787,33792
3788,33856
3789,33792
3790,33728
3791,33728
3792,33728
3793,33664
3794,33664
3795,33728
3796,33856
3797,33920
3798,33920
3799,33920
3800,33984
3801,33984
3802,34048
3803,34176
3804,34368
3805,34560
3806,34496
3807,34368
3808,34240
3809,34240
3810,34112
3811,34048
3812,33856
3813,33792
3814,33600
3815,33408
3816,33280
3817,33152
3818,33088
3819,33024
3820,33024
3821,33088
3822,33216
3823,33280
3824,33344
3825,33472
3826,33536
3827,33472
3828,33472
3829,33536
3830,33536
3831,33536
3832,33536
3833,33600
3834,33664
3835,33664
3836,33600
3837,33536
3838,33536
3839,33536
3840,33472
3841,33600
3842,33984
3843,34496
3844,35200
3845,36096
3846,37184
3847,37696
3848,36736
3849,34880
3850,33472
3851,32512
3852,32000
3853,31744
3854,31680
3855,31808
3856,32000
3857,32320
3858,32768
3859,33280
3860,33664
3861,33984
3862,34176
3863,34368
3864,34496
3865,34432
3866,34304
3867,34240
3868,34176
3869,34112
3870,34048
3871,33984
3872,33984
3873,33920
3874,33920
3875,33920
3876,34048
3877,34048
3878,34048
3879,34048
3880,34048
3881,34048
3882,34048
3883,34112
3884,34176
3885,34176
3886,34176
3887,34240
3888,34304
3889,34304
3890,34240
3891,34304
3892,34368
3893,34432
3894,34432
3895,34432
3896,34496
3897,34560
3898,34560
3899,34560
3900,34688
3901,34688
3902,34688
3903,34688
3904,34688
3905,34752
3906,34752
3907,34688
3908,34688
3909,34752
3910,34752
3911,34752
3912,34688
3913,34688
3914,34624
3915,34432
3916,34304
3917,34240
3918,34176
3919,34048
3920,33920
3921,33792
3922,33728
3923,33664
3924,33536
3925,33472
3926,33472
3927,33472
3928,33472
3929,33536
3930,33600
3931,33600
3932,33664
3933,33664
3934,33728
3935,33792
3936,33728
3937,33728
3938,33792
3939,33856
3940,33856
3941,33792
3942,33856
3943,33856
3944,33856
3945,33792
3946,33856
3947,33856
3948,33856
3949,33920
3950,33984
3951,34048
3952,34048
3953,33984
3954,33984
3955,34112
3956,34112
3957,34112
3958,34176
3959,34368
3960,34496
3961,34560
3962,34560
3963,34560
3964,34496
3965,34368
3966,34240
3967,34240
3968,34176
3969,34112
3970,33920
3971,33728
3972,33536
3973,33344
3974,33216
3975,33152
3976,33216
3977,33216
3978,33216
3979,33280
3980,33408
3981,33472
3982,33472
3983,33536
3984,33600
3985,33664
3986,33664
3987,33664
3988,33664
3989,33728
3990,33728
3991,33664
3992,33728
3993,33728
3994,33664
3995,33664
3996,33664
3997,33728
3998,33856
3999,34240
4000,34816
4001,35648
4002,36608
4003,37632
4004,37696
4005,36480
4006,34816
4007,33408
4008,32576
4009,32128
4010,31936
4011,31872
4012,31936
4013,32192
4014,32576
4015,32960
4016,33344
4017,33856
4018,34176
4019,34368
4020,34496
4021,34496
4022,34496
4023,34432
4024,34304
4025,34240
4026,34176
4027,34112
4028,34112
4029,34112
4030,34176
4031,34176
4032,34112
4033,34048
4034,34112
4035,34112
4036,34176
4037,34176
4038,34240
4039,34304
4040,34240
4041,34240
4042,34304
4043,34368
4044,34368
4045,34432
4046,34432
4047,34560
4048,34560
4049,34560
4050,34624
4051,34688
4052,34688
4053,34688
4054,34752
4055,34816
4056,34880
4057,34880
4058,34816
4059,34880
4060,34880
4061,34816
4062,34816
4063,34880
4064,34944
4065,34880
4066,34816
4067,34816
4068,34816
4069,34816
4070,34752
4071,34688
4072,34688
4073,34560
4074,34368
4075,34176
4076,34048
4077,33984
4078,33856
4079,33728
4080,33728
4081,33728
4082,33664
4083,33664
4084,33664
4085,33664
4086,33728
4087,33728
4088,33792
4089,33856
4090,33920
4091,33856
4092,33856
4093,33856
4094,33920
4095,33920
4096,33920
4097,34048
4098,34112
4099,34112
4100,34112
4101,34112
4102,34112
4103,34176
4104,34240
4105,34368
4106,34432
4107,34432
4108,34432
4109,34432
4110,34496
4111,34560
4112,34688
4113,34752
4114,34752
4115,34688
4116,34496
4117,34432
4118,34432
4119,34368
4120,34368
4121,34304
4122,34176
4123,33984
4124,33728
4125,33536
4126,33344
4127,33280
4128,33280
4129,33280
4130,33408
4131,33472
4132,33600
4133,33664
4134,33664
4135,33664
4136,33664
4137,33664
4138,33728
4139,33728
4140,33728
4141,33728
4142,33728
4143,33792
4144,33792
4145,33792
4146,33792
4147,33792
4148,33792
4149,33792
4150,34112
4151,34560
4152,35328
4153,36224
4154,37248
4155,38528
4156,38592
4157,37184
4158,35200
4159,33408
4160,32192
4161,31424
4162,31104
4163,31104
4164,31424
4165,31936
4166,32640
4167,33344
4168,33920
4169,34304
4170,34560
4171,34624
4172,34688
4173,34688
4174,34624
4175,34560
4176,34560
4177,34496
4178,34368
4179,34304
4180,34304
4181,34240
4182,34176
4183,34176
4184,34176
4185,34240
4186,34240
4187,34240
4188,34304
4189,34304
4190,34368
4191,34368
4192,34368
4193,34432
4194,34496
4195,34496
4196,34496
4197,34624
4198,34624
4199,34624
4200,34624
4201,34688
4202,34752
4203,34752
4204,34752
4205,34816
4206,34880
4207,34880
4208,34880
4209,34944
4210,35008
4211,34944
4212,34944
4213,34944
4214,35008
4215,35008
4216,35008
4217,35008
4218,35072
4219,35008
4220,34944
4221,34880
4222,34816
4223,34752
4224,34624
4225,34496
4226,34368
4227,34240
4228,34112
4229,33920
4230,33792
4231,33728
4232,33728
4233,33664
4234,33600
4235,33600
4236,33536
4237,33600
4238,33664
4239,33728
4240,33792
4241,33792
4242,33792
4243,33856
4244,33920
4245,33920
4246,33984
4247,33984
4248,33984
4249,33920
4250,33920
4251,33984
4252,34048
4253,33984
4254,34048
4255,34112
4256,34176
4257,34176
4258,34176
4259,34240
4260,34304
4261,34304
4262,34368
4263,34432
4264,34624
4265,34752
4266,34752
4267,34752
4268,34688
4269,34560
4270,34496
4271,34368
4272,34368
4273,34240
4274,34112
4275,33984
4276,33792
4277,33600
4278,33344
4279,33216
4280,33152
4281,33216
4282,33280
4283,33344
4284,33472
4285,33536
4286,33600
4287,33664
4288,33728
4289,33728
4290,33792
4291,33792
4292,33792
4293,33856
4294,33856
4295,33792
4296,33792
4297,33792
4298,33792
4299,33728
4300,33664
4301,33728
4302,33856
4303,34176
4304,34688
4305,35584
4306,36672
4307,37952
4308,38912
4309,38272
4310,36416
4311,34176
4312,32384
4313,31360
4314,30784
4315,30656
4316,30912
4317,31552
4318,32320
4319,33152
4320,33728
4321,34240
4322,34624
4323,34752
4324,34816
4325,34752
4326,34688
4327,34560
4328,34432
4329,34368
4330,34368
4331,34304
4332,34240
4333,34240
4334,34240
4335,34240
4336,34240
4337,34176
4338,34240
4339,34304
4340,34304
4341,34304
4342,34368
4343,34432
4344,34432
4345,34432
4346,34432
4347,34496
4348,34560
4349,34560
4350,34624
4351,34688
4352,34688
4353,34688
4354,34624
4355,34624
4356,34688
4357,34752
4358,34816
4359,34816
4360,34944
4361,35008
4362,35008
4363,35072
4364,35136
4365,35136
4366,35072
4367,35072
4368,35136
4369,35136
4370,35072
4371,35072
4372,35072
4373,35072
4374,34944
4375,34816
4376,34688
4377,34624
4378,34432
4379,34240
4380,34112
4381,34048
4382,33920
4383,33792
4384,33728
4385,33664
4386,33600
4387,33600
4388,33600
4389,33600
4390,33728
4391,33728
4392,33792
4393,33856
4394,33856
4395,33920
4396,33920
4397,33920
4398,33984
4399,33984
4400,33984
4401,33984
4402,33984
4403,33984
4404,34048
4405,33984
4406,34048
4407,33984
4408,33984
4409,33984
4410,34048
4411,34048
4412,34112
4413,34240
4414,34304
4415,34304
4416,34304
4417,34304
4418,34432
4419,34560
4420,34688
4421,34752
4422,34688
4423,34624
4424,34496
4425,34432
4426,34432
4427,34432
4428,34304
4429,34176
4430,33984
4431,33792
4432,33536
4433,33344
4434,33280
4435,33280
4436,33280
4437,33344
4438,33344
4439,33600
4440,33664
4441,33664
4442,33728
4443,33792
4444,33792
4445,33792
4446,33792
4447,33792
4448,33792
4449,33728
4450,33728
4451,33792
4452,33728
4453,33728
4454,33728
4455,33728
4456,33792
4457,34048
4458,34496
4459,35264
4460,36288
4461,37504
4462,38784
4463,38720
4464,37184
4465,34944
4466,32896
4467,32640
4468,31040
4469,30784
4470,30848
4471,31360
4472,32128
4473,32896
4474,33536
4475,34112
4476,34496
4477,34624
4478,34688
4479,34752
4480,34688
4481,34624
4482,34496
4483,34368
4484,34304
4485,34240
4486,34240
4487,34176
4488,34240
4489,34240
4490,34240
4491,34176
4492,34240
4493,34304
4494,34368
4495,34368
4496,34368
4497,34368
4498,34368
4499,34368
4500,34432
4501,34496
4502,34496
4503,34496
4504,34560
4505,34560
4506,34624
4507,34624
4508,34624
4509,34688
4510,34752
4511,34816
4512,34816
4513,34816
4514,34880
4515,34880
4516,34880
4517,34944
4518,35008
4519,35008
4520,35008
4521,35008
4522,35008
4523,35008
4524,35008
4525,35008
4526,35072
4527,35008
4528,34944
4529,34944
4530,34880
4531,34752
4532,34560
4533,34432
4534,34240
4535,34112
4536,33920
4537,33792
4538,33728
4539,33664
4540,33600
4541,33536
4542,33536
4543,33600
4544,33664
4545,33664
4546,33728
4547,33792
4548,33856
4549,33856
4550,33792
4551,33792
4552,33856
4553,33856
4554,33856
4555,33856
4556,33920
4557,33920
4558,33856
4559,33856
4560,33856
4561,33920
4562,33920
4563,33920
4564,33920
4565,33856
4566,33856
4567,33856
4568,33920
4569,33920
4570,33920
4571,33984
4572,34048
4573,34112
4574,34112
4575,34176
4576,34176
4577,34176
4578,34240
4579,34368
4580,34560
4581,34688
4582,34624
4583,34560
4584,34496
4585,34432
4586,34368
4587,34240
4588,34176
4589,33984
4590,33728
4591,33408
4592,33280
4593,33152
4594,33152
4595,33152
4596,33152
4597,33216
4598,33344
4599,33344
4600,33408
4601,33536
4602,33472
4603,33600
4604,33600
4605,33664
4606,33728
4607,33728
4608,33728
4609,33792
4610,33792
4611,33728
4612,33664
4613,33600
4614,33600
4615,33600
4616,33856
4617,33856
4618,34944
4619,35776
4620,36736
4621,37824
4622,37760
4623,36288
4624,34304
4625,32704
4626,31808
4627,31360
4628,31232
4629,31296
4630,31680
4631,32192
4632,32832
4633,33408
4634,33856
4635,34240
4636,34432
4637,34496
4638,34560
4639,34624
4640,34496
4641,34368
4642,34240
4643,34176
4644,34048
4645,33984
4646,33984
4647,33984
4648,33984
4649,33984
4650,34048
4651,34112
4652,34112
4653,34112
4654,34112
4655,34176
4656,34176
4657,34176
4658,34176
4659,34240
4660,34240
4661,34176
4662,34176
4663,34176
4664,34240
4665,34304
4666,34304
4667,34432
4668,34496
4669,34560
4670,34560
4671,34560
4672,34624
4673,34688
4674,34688
4675,34688
4676,34752
4677,34688
4678,34688
4679,34688
4680,34688
4681,34688
4682,34752
4683,34688
4684,34752
4685,34752
4686,34688
4687,34624
4688,34624
4689,34624
4690,34496
4691,34368
4692,34240
4693,34176
4694,34048
4695,33920
4696,33792
4697,33728
4698,33664
4699,33600
4700,33536
4701,33536
4702,33536
4703,33536
4704,33600
4705,33600
4706,33600
4707,33536
4708,33664
4709,33728
4710,33792
4711,33792
4712,33792
4713,33856
4714,33920
4715,33920
4716,33920
4717,33920
4718,33920
4719,33920
4720,33920
4721,33920
4722,33920
4723,33920
4724,33856
4725,33856
4726,33920
4727,33984
4728,33984
4729,33984
4730,33984
4731,34048
4732,34048
4733,34048
4734,34112
4735,34176
4736,34304
4737,34496
4738,34624
4739,34624
4740,34560
4741,34432
4742,34368
4743,34368
4744,34304
4745,34176
4746,34112
4747,33920
4748,33664
4749,33344
4750,33152
4751,33088
4752,33088
4753,33024
4754,33088
4755,33216
4756,33280
4757,33344
4758,33408
4759,33536
4760,33600
4761,33600
4762,33600
4763,33664
4764,33728
4765,33728
4766,33728
4767,33728
4768,33792
4769,33728
4770,33600
4771,33536
4772,33536
4773,33664
4774,33920
4775,34368
4776,35072
4777,35968
4778,36992
4779,37440
4780,36544
4781,34688
4782,34432
4783,32704
4784,32192
4785,32000
4786,31872
4787,31936
4788,32128
4789,32512
4790,32960
4791,33344
4792,33728
4793,34112
4794,34304
4795,34368
4796,34432
4797,34432
4798,34368
4799,34240
4800,34112
4801,34112
4802,34112
4803,34048
4804,33984
4805,34048
4806,34048
4807,34048
4808,33984
4809,33984
4810,34048
4811,34048
4812,34048
4813,34176
4814,34240
4815,34240
4816,34240
4817,34304
4818,34368
4819,34304
4820,34304
4821,34304
4822,34368
4823,34304
4824,34304
4825,34368
4826,34496
4827,34560
4828,34496
4829,34496
4830,34560
4831,34624
4832,34624
4833,34624
4834,34688
4835,34752
4836,34752
4837,34688
4838,34688
4839,34688
4840,34688
4841,34624
4842,34688
4843,34688
4844,34688
4845,34560
4846,34496
4847,34432
4848,34368
4849,34240
4850,34112
4851,33984
4852,33984
4853,33856
4854,33792
4855,33728
4856,33728
4857,33664
4858,33600
4859,33600
4860,33664
4861,33664
4862,33664
4863,33664
4864,33664
4865,33664
4866,33728
4867,33728
4868,33792
4869,33792
4870,33792
4871,33856
4872,33856
4873,33856
4874,33856
4875,33856
4876,33920
4877,33984
4878,33920
4879,33920
4880,33984
4881,34112
4882,34048
4883,34112
4884,34176
4885,34176
4886,34112
4887,34176
4888,34304
4889,34560
4890,34624
4891,34624
4892,34560
4893,34496
4894,34432
4895,34368
4896,34304
4897,34240
4898,34176
4899,33984
4900,33728
4901,33472
4902,33280
4903,33152
4904,33024
4905,33088
4906,33152
4907,33216
4908,33280
4909,33408
4910,33536
4911,33664
4912,33664
4913,33728
4914,33728
4915,33728
4916,33728
4917,33664
4918,33664
4919,33664
4920,33664
4921,33600
4922,33600
4923,33600
4924,33600
4925,33536
4926,33792
4927,34176
4928,34688
4929,35456
4930,36416
4931,37632
4932,37568
4933,36480
4934,34944
4935,33728
4936,32896
4937,32320
4938,31936
4939,31872
4940,31936
4941,32064
4942,32448
4943,32896
4944,33344
4945,33728
4946,34048
4947,34304
4948,34432
4949,34432
4950,34432
4951,34368
4952,34368
4953,34304
4954,34176
4955,34176
4956,34176
4957,34112
4958,34112
4959,34112
4960,34112
4961,34112
4962,34048
4963,34048
4964,34176
4965,34176
4966,34112
4967,34112
4968,34176
4969,34240
4970,34304
4971,34304
4972,34368
4973,34432
4974,34496
4975,34496
4976,34624
4977,34560
4978,34624
4979,34560
4980,34560
4981,34624
4982,34624
4983,34560
4984,34624
4985,34688
4986,34752
4987,34752
4988,34752
4989,34816
4990,34816
4991,34816
4992,34816
4993,34880
4994,34880
4995,34816
4996,34752
4997,34752
4998,34688
4999,34560
5000,34496
5001,34432
5002,34304
5003,34176
5004,33984
5005,33920
5006,33856
5007,33792
5008,33728
5009,33728
5010,33728
5011,33728
5012,33664
5013,33664
5014,33792
5015,33792
5016,33856
5017,33856
5018,33856
5019,33856
5020,33856
5021,33920
5022,33856
5023,34048
5024,33984
5025,33984
5026,33984
5027,34048
5028,34048
5029,34048
5030,34112
5031,34176
5032,34240
5033,34240
5034,34368
5035,34560
5036,34752
5037,34688
5038,34752
5039,34752
5040,34624
5041,34496
5042,34432
5043,34368
5044,34368
5045,34240
5046,34048
5047,33856
5048,33664
5049,33472
5050,33280
5051,33216
5052,33280
5053,33280
5054,33280
5055,33344
5056,33472
5057,33600
5058,33600
5059,33600
5060,33664
5061,33728
5062,33728
5063,33664
5064,33728
5065,33728
5066,33664
5067,33664
5068,33664
5069,33664
5070,33600
5071,33600
5072,33664
5073,33856
5074,34304
5075,34880
5076,35712
5077,36608
5078,37696
5079,37952
5080,36992
5081,35392
5082,33920
5083,32832
5084,32192
5085,31872
5086,31744
5087,31744
5088,31936
5089,32384
5090,32896
5091,33344
5092,33792
5093,34112
5094,34368
5095,34432
5096,34432
5097,34368
5098,34368
5099,34240
5100,34176
5101,34176
5102,34240
5103,34240
5104,34176
5105,34176
5106,34176
5107,34112
5108,34112
5109,34112
5110,34176
5111,34176
5112,34176
5113,34112
5114,34240
5115,34304
5116,34304
5117,34368
5118,34432
5119,34432
5120,34432
5121,34368
5122,34432
5123,34496
5124,34496
5125,34496
5126,34560
5127,34560
5128,34624
5129,34624
5130,34688
5131,34816
5132,34816
5133,34816
5134,34752
5135,34816
5136,34816
5137,34816
5138,34752
5139,34752
5140,34752
5141,34688
5142,34624
5143,34688
5144,34624
5145,34624
5146,34496
5147,34432
5148,34368
5149,34240
5150,34112
5151,33984
5152,33920
5153,33856
5154,33728
5155,33664
5156,33664
5157,33728
5158,33664
5159,33664
5160,33728
5161,33792
5162,33792
5163,33792
5164,33856
5165,33920
5166,33920
5167,33920
5168,33920
5169,33984
5170,34048
5171,34048
5172,34048
5173,34176
5174,34176
5175,34176
5176,34240
5177,34304
5178,34368
5179,34368
5180,34432
5181,34688
5182,34880
5183,34880
5184,34880
5185,34752
5186,34624
5187,34560
5188,34368
5189,34368
5190,34304
5191,34240
5192,34112
5193,33920
5194,33728
5195,33536
5196,33344
5197,33344
5198,33344
5199,33408
5200,33408
5201,33472
5202,33472
5203,33600
5204,33600
5205,33664
5206,33728
5207,33792
5208,33792
5209,33728
5210,33728
5211,33728
5212,33728
5213,33728
5214,33728
5215,33792
5216,33792
5217,33792
5218,33856
5219,34048
5220,34496
5221,35008
5222,35840
5223,36864
5224,38080
5225,38272
5226,37120
5227,35392
5228,33792
5229,32640
5230,32064
5231,31616
5232,31616
5233,31680
5234,32000
5235,32448
5236,33024
5237,33536
5238,33920
5239,34304
5240,34496
5241,34624
5242,34560
5243,34560
5244,34560
5245,34432
5246,34304
5247,34304
5248,34304
5249,34304
5250,34176
5251,34176
5252,34176
5253,34176
5254,34112
5255,34176
5256,34240
5257,34304
5258,34304
5259,34304
5260,34368
5261,34432
5262,34432
5263,34368
5264,34432
5265,34496
5266,34496
5267,34496
5268,34560
5269,34624
5270,34624
5271,34624
5272,34624
5273,34752
5274,34816
5275,34816
5276,34880
5277,34816
5278,34880
5279,34816
5280,34816
5281,34816
5282,34816
5283,34816
5284,34816
5285,34880
5286,34944
5287,34880
5288,34880
5289,34880
5290,34816
5291,34688
5292,34624
5293,34496
5294,34432
5295,34304
5296,34176
5297,34112
5298,34048
5299,33984
5300,33920
5301,33792
5302,33728
5303,33728
5304,33728
5305,33664
5306,33792
5307,33792
5308,33792
5309,33856
5310,33984
5311,34048
5312,34048
5313,33984
5314,33984
5315,33984
5316,34048
5317,34048
5318,34048
5319,34112
5320,34176
5321,34240
5322,34240
5323,34368
5324,34368
5325,34432
5326,34432
5327,34496
5328,34560
5329,34688
5330,34816
5331,34880
5332,34880
5333,34816
5334,34688
5335,34560
5336,34432
5337,34368
5338,34368
5339,34240
5340,34112
5341,33920
5342,33664
5343,33408
5344,33344
5345,33344
5346,33280
5347,33280
5348,33408
5349,33472
5350,33536
5351,33664
5352,33664
5353,33728
5354,33792
5355,33792
5356,33792
5357,33792
5358,33792
5359,33856
5360,33920
5361,33984
5362,33920
5363,33856
5364,33792
5365,33856
5366,33920
5367,34112
5368,34624
5369,35392
5370,36352
5371,37504
5372,38784
5373,38656
5374,37056
5375,34944
5376,33088
5377,31872
5378,31168
5379,30848
5380,30912
5381,31360
5382,32064
5383,32832
5384,33536
5385,34112
5386,34496
5387,34752
5388,34816
5389,34752
5390,34752
5391,34752
5392,34624
5393,34496
5394,34368
5395,34304
5396,34240
5397,34176
5398,34240
5399,34240
5400,34240
5401,34240
5402,34240
5403,34240
5404,34240
5405,34304
5406,34304
5407,34368
5408,34368
5409,34368
5410,34368
5411,34432
5412,34432
5413,34432
5414,34496
5415,34560
5416,34560
5417,34560
5418,34560
5419,34688
5420,34688
5421,34752
5422,34752
5423,34816
5424,34816
5425,34880
5426,34880
5427,34944
5428,34944
5429,34944
5430,34880
5431,34880
5432,34944
5433,34880
5434,34880
5435,34880
5436,34880
5437,34880
5438,34816
5439,34816
5440,34752
5441,34624
5442,34496
5443,34368
5444,34304
5445,34176
5446,34048
5447,33920
5448,33920
5449,33856
5450,33728
5451,33664
5452,33664
5453,33664
5454,33728
5455,33728
5456,33792
5457,33856
5458,33920
5459,33920
5460,33984
5461,34048
5462,33984
5463,33984
5464,33984
5465,34048
5466,34048
5467,34048
5468,34048
5469,34112
5470,34176
5471,34176
5472,34176
5473,34240
5474,34304
5475,34304
5476,34304
5477,34304
5478,34432
5479,34560
5480,34688
5481,34752
5482,34816
5483,34688
5484,34624
5485,34496
5486,34496
5487,34432
5488,34368
5489,34304
5490,34112
5491,33920
5492,33664
5493,33472
5494,33344
5495,33280
5496,33280
5497,33280
5498,33408
5499,33536
5500,33600
5501,33600
5502,33664
5503,33664
5504,33728
5505,33728
5506,33792
5507,33856
5508,33856
5509,33856
5510,33856
5511,33856
5512,33856
5513,33792
5514,33792
5515,33792
5516,33792
5517,33984
5518,34496
5519,35392
5520,36480
5521,37888
5522,39168
5523,38912
5524,37184
5525,34880
5526,32768
5527,31424
5528,30720
5529,30528
5530,30720
5531,31360
5532,32256
5533,33088
5534,33792
5535,34240
5536,34624
5537,34752
5538,34816
5539,34752
5540,34752
5541,34624
5542,34496
5543,34432
5544,34368
5545,34304
5546,34240
5547,34176
5548,34176
5549,34240
5550,34240
5551,34240
5552,34240
5553,34240
5554,34240
5555,34240
5556,34240
5557,34304
5558,34368
5559,34368
5560,34432
5561,34432
5562,34496
5563,34496
5564,34496
5565,34496
5566,34624
5567,34624
5568,34624
5569,34688
5570,34688
5571,34688
5572,34688
5573,34752
5574,34816
5575,34816
5576,34880
5577,34880
5578,34880
5579,34880
5580,34880
5581,34944
5582,34944
5583,34944
5584,34944
5585,34944
5586,34944
5587,34944
5588,34880
5589,34816
5590,34752
5591,34624
5592,34496
5593,34304
5594,34176
5595,34048
5596,33920
5597,33792
5598,33728
5599,33664
5600,33664
5601,33600
5602,33600
5603,33728
5604,33792
5605,33792
5606,33792
5607,33856
5608,33856
5609,33856
5610,33856
5611,33920
5612,33984
5613,33984
5614,33984
5615,33984
5616,33984
5617,33984
5618,33920
5619,33984
5620,33984
5621,33984
5622,33984
5623,33984
5624,34048
5625,34048
5626,33984
5627,34048
5628,34112
5629,34176
5630,34176
5631,34176
5632,34240
5633,34304
5634,34432
5635,34560
5636,34688
5637,34752
5638,34688
5639,34624
5640,34496
5641,34496
5642,34432
5643,34304
5644,34240
5645,34048
5646,33856
5647,33600
5648,33408
5649,33280
5650,33216
5651,33216
5652,33216
5653,33344
5654,33472
5655,33536
5656,33536
5657,33600
5658,33664
5659,33728
5660,33728
5661,33792
5662,33856
5663,33856
5664,33856
5665,33856
5666,33856
5667,33792
5668,33664
5669,33664
5670,33664
5671,33792
5672,34048
5673,34688
5674,35584
5675,36736
5676,38144
5677,38848
5678,37824
5679,35776
5680,33664
5681,32064
5682,31104
5683,30656
5684,30656
5685,31104
5686,31808
5687,32640
5688,33408
5689,33920
5690,34368
5691,34624
5692,34688
5693,34752
5694,34688
5695,34624
5696,34496
5697,34304
5698,34240
5699,34176
5700,34176
5701,34112
5702,34048
5703,34112
5704,34112
5705,34112
5706,34112
5707,34176
5708,34176
5709,34176
5710,34176
5711,34176
5712,34176
5713,34176
5714,34176
5715,34240
5716,34304
5717,34304
5718,34304
5719,34368
5720,34432
5721,34432
5722,34432
5723,34432
5724,34496
5725,34496
5726,34496
5727,34560
5728,34624
5729,34688
5730,34688
5731,34688
5732,34688
5733,34688
5734,34688
5735,34688
5736,34688
5737,34752
5738,34752
5739,34752
5740,34752
5741,34752
5742,34688
5743,34624
5744,34560
5745,34496
5746,34432
5747,34240
5748,34112
5749,33984
5750,33856
5751,33728
5752,33600
5753,33600
5754,33600
5755,33536
5756,33536
5757,33600
5758,33600
5759,33664
5760,33664
5761,33664
5762,33728
5763,33728
5764,33664
5765,33728
5766,33728
5767,33792
5768,33792
5769,33792
5770,33792
5771,33792
5772,33792
5773,33792
5774,33792
5775,33856
5776,33856
5777,33856
5778,33856
5779,33856
5780,33856
5781,33856
5782,33856
5783,33856
5784,33920
5785,33920
5786,33984
5787,34048
5788,34048
5789,34048
5790,34112
5791,34304
5792,34496
5793,34560
5794,34560
5795,34560
5796,34432
5797,34304
5798,34240
5799,34176
5800,34112
5801,33920
5802,33728
5803,33472
5804,33280
5805,33088
5806,33024
5807,33088
5808,33152
5809,33152
5810,33216
5811,33280
5812,33408
5813,33472
5814,33536
5815,33600
5816,33664
5817,33664
5818,33664
5819,33664
5820,33664
5821,33664
5822,33664
5823,33600
5824,33600
5825,33536
5826,33408
5827,33536
5828,33856
5829,34432
5830,35200
5831,36032
5832,37184
5833,37504
5834,36480
5835,34752
5836,33280
5837,32384
5838,32000
5839,31744
5840,31744
5841,31936
5842,32192
5843,32512
5844,32960
5845,33472
5846,33856
5847,34176
5848,34304
5849,34432
5850,34432
5851,34368
5852,34304
5853,34240
5854,34176
5855,34112
5856,34048
5857,34048
5858,34048
5859,33984
5860,33920
5861,33984
5862,34048
5863,34048
5864,34112
5865,34112
5866,34176
5867,34112
5868,34112
5869,34112
5870,34176
5871,34240
5872,34240
5873,34240
5874,34304
5875,34368
5876,34368
5877,34432
5878,34496
5879,34496
5880,34496
5881,34496
5882,34496
5883,34624
5884,34560
5885,34560
5886,34624
5887,34688
5888,34688
5889,34688
5890,34624
5891,34624
5892,34624
5893,34560
5894,34624
5895,34624
5896,34688
5897,34624
5898,34624
5899,34624
5900,34624
5901,34560
5902,34496
5903,34368
5904,34304
5905,34112
5906,33984
5907,33920
5908,33920
5909,33792
5910,33728
5911,33728
5912,33728
5913,33728
5914,33728
5915,33728
5916,33792
5917,33792
5918,33792
5919,33856
5920,33920
5921,33920
5922,33920
5923,33920
5924,33984
5925,33984
5926,33920
5927,33920
5928,33920
5929,33984
5930,33984
5931,33984
5932,34048
5933,34112
5934,34176
5935,34176
5936,34176
5937,34240
5938,34176
5939,34176
5940,34240
5941,34368
5942,34560
5943,34688
5944,34688
5945,34688
5946,34624
5947,34496
5948,34432
5949,34368
5950,34304
5951,34176
5952,33984
5953,33792
5954,33536
5955,33344
5956,33216
5957,33152
5958,33152
5959,33216
5960,33280
5961,33344
5962,33472
5963,33472
5964,33536
5965,33600
5966,33664
5967,33728
5968,33728
5969,33728
5970,33792
5971,33792
5972,33728
5973,33664
5974,33664
5975,33664
5976,33600
5977,33536
5978,33664
5979,33984
5980,34496
5981,35136
5982,36096
5983,37248
5984,37376
5985,36288
5986,34752
5987,33472
5988,32704
5989,32256
5990,32000
5991,32000
5992,32128
5993,32256
5994,32576
5995,33088
5996,33472
5997,33856
5998,34112
5999,34304
6000,34432
6001,34432
6002,34432
6003,34368
6004,34304
6005,34240
6006,34176
6007,34112
6008,34048
6009,34048
6010,33984
6011,33984
6012,34048
6013,34112
6014,34048
6015,34048
6016,34112
6017,34176
6018,34176
6019,34176
6020,34240
6021,34304
6022,34304
6023,34304
6024,34368
6025,34432
6026,34432
6027,34432
6028,34432
6029,34496
6030,34496
6031,34496
6032,34560
6033,34560
6034,34624
6035,34560
6036,34560
6037,34624
6038,34688
6039,34688
6040,34752
6041,34752
6042,34688
6043,34688
6044,34624
6045,34688
6046,34688
6047,34688
6048,34688
6049,34688
6050,34688
6051,34624
6052,34496
6053,34432
6054,34368
6055,34176
6056,34112
6057,34048
6058,33984
6059,33920
6060,33920
6061,33856
6062,33856
6063,33856
6064,33792
6065,33792
6066,33856
6067,33856
6068,33792
6069,33856
6070,33920
6071,33984
6072,33984
6073,33984
6074,34048
6075,34112
6076,34112
6077,34112
6078,34176
6079,34304
6080,34368
6081,34368
6082,34368
6083,34368
6084,34432
6085,34496
6086,34688
6087,34816
6088,34880
6089,34880
6090,34752
6091,34688
6092,34624
6093,34496
6094,34432
6095,34432
6096,34304
6097,34112
6098,33856
6099,33600
6100,33472
6101,33408
6102,33344
6103,33344
6104,33344
6105,33408
6106,33472
6107,33536
6108,33600
6109,33664
6110,33664
6111,33728
6112,33792
6113,33792
6114,33792
6115,33792
6116,33792
6117,33792
6118,33792
6119,33728
6120,33728
6121,33728
6122,33728
6123,33920
6124,34368
6125,35072
6126,35968
6127,36992
6128,38080
6129,37888
6130,36416
6131,34688
6132,33280
6133,32384
6134,31936
6135,31680
6136,31680
6137,31936
6138,32256
6139,32704
6140,33152
6141,33664
6142,34048
6143,34304
6144,34496
6145,34560
6146,34560
6147,34496
6148,34368
6149,34304
6150,34240
6151,34240
6152,34176
6153,34176
6154,34240
6155,34176
6156,34176
6157,34176
6158,34176
6159,34176
6160,34176
6161,34176
6162,34240
6163,34240
6164,34240
6165,34240
6166,34240
6167,34304
6168,34240
6169,34304
6170,34368
6171,34432
6172,34432
6173,34432
6174,34496
6175,34560
6176,34560
6177,34560
6178,34560
6179,34624
6180,34688
6181,34688
6182,34688
6183,34752
6184,34752
6185,34752
6186,34752
6187,34688
6188,34688
6189,34688
6190,34752
6191,34752
6192,34752
6193,34688
6194,34624
6195,34560
6196,34560
6197,34432
6198,34368
6199,34240
6200,34176
6201,34048
6202,33920
6203,33920
6204,33856
6205,33856
6206,33792
6207,33792
6208,33792
6209,33792
6210,33792
6211,33856
6212,33856
6213,33920
6214,33920
6215,33920
6216,33984
6217,34048
6218,34048
6219,34048
6220,34048
6221,34112
6222,34176
6223,34304
6224,34304
6225,34304
6226,34368
6227,34560
6228,34752
6229,34880
6230,34944
6231,34816
6232,34752
6233,34688
6234,34560
6235,34496
6236,34496
6237,34432
6238,34304
6239,34112
6240,33856
6241,33664
6242,33408
6243,33216
6244,33216
6245,33280
6246,33280
6247,33280
6248,33344
6249,33472
6250,33600
6251,33600
6252,33664
6253,33664
6254,33728
6255,33728
6256,33728
6257,33792
6258,33792
6259,33792
6260,33792
6261,33728
6262,33728
6263,33728
6264,33728
6265,33984
6266,34432
6267,35136
6268,36032
6269,37120
6270,38336
6271,38272
6272,36864
6273,34944
6274,33344
6275,32192
6276,31488
6277,31168
6278,31168
6279,31488
6280,31552
6281,32640
6282,33216
6283,33728
6284,34112
6285,34368
6286,34560
6287,34560
6288,34496
6289,34432
6290,34368
6291,34304
6292,34240
6293,34176
6294,34112
6295,34112
6296,34176
6297,34112
6298,34112
6299,34112
6300,34048
6301,34048
6302,34112
6303,34112
6304,34176
6305,34176
6306,34176
6307,34176
6308,34240
6309,34240
6310,34304
6311,34368
6312,34432
6313,34432
6314,34432
6315,34432
6316,34496
6317,34496
6318,34496
6319,34496
6320,34496
6321,34560
6322,34560
6323,34624
6324,34688
6325,34624
6326,34624
6327,34560
6328,34560
6329,34624
6330,34624
6331,34624
6332,34688
6333,34688
6334,34688
6335,34624
6336,34560
6337,34496
6338,34432
6339,34368
6340,34304
6341,34240
6342,34112
6343,33920
6344,33792
6345,33728
6346,33664
6347,33600
6348,33600
6349,33664
6350,33664
6351,33664
6352,33664
6353,33792
6354,33856
6355,33856
6356,33920
6357,33920
6358,33984
6359,33920
6360,33920
6361,33984
6362,34048
6363,34112
6364,34112
6365,34176
6366,34304
6367,34368
6368,34368
6369,34368
6370,34368
6371,34496
6372,34560
6373,34688
6374,34816
6375,34816
6376,34752
6377,34624
6378,34496
6379,34496
6380,34368
6381,34304
6382,34240
6383,34112
6384,33856
6385,33600
6386,33408
6387,33344
6388,33344
6389,33280
6390,33280
6391,33344
6392,33408
6393,33536
6394,33600
6395,33728
6396,33728
6397,33728
6398,33792
6399,33856
6400,33856
6401,33792
6402,33728
6403,33728
6404,33664
6405,33664
6406,33664
6407,33664
6408,33728
6409,33984
6410,34368
6411,35008
6412,35904
6413,36928
6414,38144
6415,38464
6416,37312
6417,35392
6418,33536
6419,32192
6420,31488
6421,31104
6422,31104
6423,31424
6424,32000
6425,32640
6426,33344
6427,33920
6428,34368
6429,34624
6430,34752
6431,34752
6432,34688
6433,34688
6434,34624
6435,34432
6436,34368
6437,34240
6438,34176
6439,34112
6440,34112
6441,34176
6442,34240
6443,34240
6444,34240
6445,34240
6446,34240
6447,34176
6448,34304
6449,34304
6450,34368
6451,34368
6452,34304
6453,34368
6454,34432
6455,34432
6456,34496
6457,34496
6458,34560
6459,34624
6460,34624
6461,34624
6462,34624
6463,34688
6464,34624
6465,34688
6466,34752
6467,34752
6468,34752
6469,34752
6470,34816
6471,34816
6472,34752
6473,34752
6474,34816
6475,34816
6476,34816
6477,34816
6478,34816
6479,34816
6480,34816
6481,34752
6482,34752
6483,34688
6484,34624
6485,34496
6486,34368
6487,34240
6488,34048
6489,33984
6490,33920
6491,33920
6492,33920
6493,33856
6494,33856
6495,33920
6496,33920
6497,33920
6498,33920
6499,34048
6500,34112
6501,34048
6502,34048
6503,34112
6504,34176
6505,34112
6506,34112
6507,34176
6508,34240
6509,34304
6510,34304
6511,34432
6512,34496
6513,34496
6514,34496
6515,34496
6516,34496
6517,34560
6518,34688
6519,34816
6520,34944
6521,34944
6522,34880
6523,34752
6524,34688
6525,34688
6526,34560
6527,34432
6528,34368
6529,34240
6530,34048
6531,33792
6532,33600
6533,33472
6534,33408
6535,33344
6536,33408
6537,33472
6538,33472
6539,33536
6540,33600
6541,33728
6542,33792
6543,33792
6544,33792
6545,33856
6546,33856
6547,33856
6548,33856
6549,33920
6550,33984
6551,33920
6552,33856
6553,33792
6554,33856
6555,34048
6556,34432
6557,35200
6558,36224
6559,37504
6560,38784
6561,38848
6562,37312
6563,35136
6564,32896
6565,31616
6566,30912
6567,30656
6568,30784
6569,31296
6570,32192
6571,33024
6572,33728
6573,34240
6574,34624
6575,34880
6576,34880
6577,34880
6578,34816
6579,34752
6580,34624
6581,34496
6582,34368
6583,34368
6584,34304
6585,34176
6586,34112
6587,34176
6588,34176
6589,34176
6590,34176
6591,34240
6592,34304
6593,34240
6594,34240
6595,34304
6596,34304
6597,34304
6598,34304
6599,34368
6600,34432
6601,34432
6602,34368
6603,34368
6604,34432
6605,34432
6606,34432
6607,34496
6608,34624
6609,34624
6610,34560
6611,34624
6612,34688
6613,34688
6614,34688
6615,34624
6616,34688
6617,34688
6618,34688
6619,34688
6620,34752
6621,34752
6622,34752
6623,34752
6624,34752
6625,34752
6626,34688
6627,34624
6628,34560
6629,34496
6630,34368
6631,34240
6632,34112
6633,34048
6634,33984
6635,33856
6636,33792
6637,33728
6638,33664
6639,33600
6640,33600
6641,33600
6642,33664
6643,33664
6644,33664
6645,33728
6646,33856
6647,33856
6648,33856
6649,33856
6650,33920
6651,33856
6652,33856
6653,33856
6654,33984
6655,34048
6656,34048
6657,34112
6658,34240
6659,34240
6660,34240
6661,34240
6662,34304
6663,34368
6664,34496
6665,34624
6666,34688
6667,34688
6668,34560
6669,34432
6670,34368
6671,34304
6672,34176
6673,34112
6674,34048
6675,33984
6676,33728
6677,33472
6678,33280
6679,33216
6680,33152
6681,33152
6682,33152
6683,33280
6684,33344
6685,33408
6686,33472
6687,33536
6688,33664
6689,33664
6690,33664
6691,33664
6692,33728
6693,33664
6694,33664
6695,33664
6696,33664
6697,33600
6698,33536
6699,33536
6700,33664
6701,34176
6702,34688
6703,35584
6704,36608
6705,37824
6706,37952
6707,36736
6708,34944
6709,33344
6710,32256
6711,31680
6712,31424
6713,31424
6714,31680
6715,32000
6716,32576
6717,33088
6718,33536
6719,33920
6720,34240
6721,34432
6722,34496
6723,34432
6724,34368
6725,34304
6726,34176
6727,34048
6728,33984
6729,33984
6730,33920
6731,33856
6732,33856
6733,33856
6734,33920
6735,33920
6736,33920
6737,33984
6738,34048
6739,34048
6740,34048
6741,34112
6742,34112
6743,34112
6744,34112
6745,34112
6746,34240
6747,34240
6748,34240
6749,34304
6750,34304
6751,34304
6752,34304
6753,34368
6754,34432
6755,34432
6756,34432
6757,34432
6758,34496
6759,34560
6760,34496
6761,34496
6762,34496
6763,34496
6764,34496
6765,34432
6766,34496
6767,34496
6768,34432
6769,34432
6770,34496
6771,34496
6772,34496
6773,34368
6774,34304
6775,34240
6776,34176
6777,34048
6778,33920
6779,33920
6780,33856
6781,33792
6782,33792
6783,33792
6784,33728
6785,33664
6786,33664
6787,33664
6788,33728
6789,33728
6790,33728
6791,33792
6792,33920
6793,33856
6794,33856
6795,33856
6796,33920
6797,33920
6798,33984
6799,34048
6800,34112
6801,34112
6802,34176
6803,34240
6804,34304
6805,34304
6806,34368
6807,34560
6808,34688
6809,34752
6810,34688
6811,34560
6812,34432
6813,34368
6814,34304
6815,34240
6816,34240
6817,34112
6818,33856
6819,33600
6820,33344
6821,33216
6822,33088
6823,33088
6824,33088
6825,33216
6826,33344
6827,33344
6828,33472
6829,33600
6830,33600
6831,33600
6832,33600
6833,33664
6834,33728
6835,33728
6836,33664
6837,33728
6838,33728
6839,33664
6840,33664
6841,33728
6842,33920
6843,34368
6844,34944
6845,35904
6846,37120
6847,38464
6848,39808
6849,40000
6850,38912
6851,36672
6852,35392
6853,33856
6854,32640
6855,31680
6856,31040
6857,30784
6858,30848
6859,31232
6860,31680
6861,32192
6862,32768
6863,33216
6864,33600
6865,33728
6866,33984
6867,33984
6868,33984
6869,33984
6870,33984
6871,33984
6872,33920
6873,33792
6874,33728
6875,33728
6876,33728
6877,33664
6878,33728
6879,33728
6880,33728
6881,33728
6882,33664
6883,33664
6884,33664
6885,33664
6886,33600
6887,33664
6888,33728
6889,33664
6890,33664
6891,33728
6892,33728
6893,33728
6894,33728
6895,33792
6896,33856
6897,33856
6898,33792
6899,33792
6900,33792
6901,33792
6902,33728
6903,33792
6904,33856
6905,33856
6906,33856
6907,33856
6908,33920
6909,33984
6910,33984
6911,34048
6912,34048
6913,34176
6914,34240
6915,34240
6916,34240
6917,34240
6918,34240
6919,34176
6920,34112
6921,34112
6922,34048
6923,33984
6924,33984
6925,33920
6926,33856
6927,33856
6928,33792
6929,33856
6930,33856
6931,33792
6932,33728
6933,33728
6934,33856
6935,33920
6936,33984
6937,34048
6938,34112
6939,34112
6940,34112
6941,34176
6942,34304
6943,34304
6944,34432
6945,34560
6946,34752
6947,34880
6948,34880
6949,34880
6950,34816
6951,34688
6952,34624
6953,34560
6954,34496
6955,34432
6956,34304
6957,34176
6958,33920
6959,33792
6960,33600
6961,33472
6962,33472
6963,33472
6964,33536
6965,33536
6966,33664
6967,33728
6968,33792
6969,33856
6970,33920
6971,33984
6972,33920
6973,33984
6974,33984
6975,33984
6976,33920
6977,33856
6978,33792
6979,33792
6980,33792
6981,33856
6982,34112
6983,34560
6984,35392
6985,36224
6986,37696
6987,38208
6988,37888
6989,36480
6990,34816
6991,33536
6992,32704
6993,32192
6994,31936
6995,31872
6996,32064
6997,32320
6998,32704
6999,33152
7000,33664
7001,34112
7002,34368
7003,34496
7004,34624
7005,34688
7006,34624
7007,34496
7008,34432
7009,34368
7010,34304
7011,34176
7012,34176
7013,34176
7014,34176
7015,34176
7016,34240
7017,34240
7018,34240
7019,34240
7020,34240
7021,34304
7022,34304
7023,34368
7024,34368
7025,34432
7026,34432
7027,34432
7028,34432
7029,34496
7030,34560
7031,34496
7032,34432
7033,34496
7034,34560
7035,34560
7036,34560
7037,34688
7038,34752
7039,34752
7040,34688
7041,34688
7042,34752
7043,34752
7044,34688
7045,34688
7046,34752
7047,34688
7048,34688
7049,34688
7050,34688
7051,34688
7052,34624
7053,34624
7054,34624
7055,34624
7056,34560
7057,34432
7058,34368
7059,34304
7060,34112
7061,33984
7062,33920
7063,33856
7064,33856
7065,33792
7066,33792
7067,33856
7068,33856
7069,33856
7070,33920
7071,33984
7072,34112
7073,34112
7074,34176
7075,34240
7076,34368
7077,34368
7078,34368
7079,34368
7080,34432
7081,34560
7082,34688
7083,34880
7084,35008
7085,35008
7086,34880
7087,34752
7088,34688
7089,34560
7090,34496
7091,34432
7092,34432
7093,34304
7094,34048
7095,33856
7096,33728
7097,33600
7098,33472
7099,33408
7100,33408
7101,33536
7102,33600
7103,33664
7104,33728
7105,33792
7106,33856
7107,33792
7108,33792
7109,33856
7110,33856
7111,33856
7112,33856
7113,33856
7114,33792
7115,33728
7116,33792
7117,33984
7118,34368
7119,35008
7120,35840
7121,36992
7122,38336
7123,39872
7124,40832
7125,40256
7126,38528
7127,36544
7128,34688
7129,33088
7130,31872
7131,31040
7132,30656
7133,30592
7134,31040
7135,31488
7136,32384
7137,32704
7138,33216
7139,33600
7140,33792
7141,33984
7142,34112
7143,34112
7144,34112
7145,34112
7146,34176
7147,34176
7148,34048
7149,33984
7150,33984
7151,33984
7152,33856
7153,33792
7154,33792
7155,33856
7156,33856
7157,33792
7158,33792
7159,33856
7160,33856
7161,33792
7162,33792
7163,33856
7164,33856
7165,33856
7166,33792
7167,33856
7168,33856
7169,33856
7170,33856
7171,33856
7172,33920
7173,33856
7174,33792
7175,33792
7176,33920
7177,33920
7178,33920
7179,33920
7180,33984
7181,33920
7182,33920
7183,33984
7184,34048
7185,34048
7186,34112
7187,34176
7188,34240
7189,34304
7190,34304
7191,34304
7192,34368
7193,34368
7194,34304
7195,34240
7196,34240
7197,34176
7198,34112
7199,34048
7200,34048
7201,34048
7202,33984
7203,33920
7204,33856
7205,33920
7206,33920
7207,33920
7208,33920
7209,34048
7210,34112
7211,34176
7212,34240
7213,34304
7214,34368
7215,34432
7216,34432
7217,34432
7218,34496
7219,34624
7220,34816
7221,35008
7222,35072
7223,34944
7224,34816
7225,34688
7226,34688
7227,34624
7228,34560
7229,34496
7230,34432
7231,34304
7232,34112
7233,33856
7234,33728
7235,33600
7236,33472
7237,33472
7238,33600
7239,33664
7240,33664
7241,33792
7242,33856
7243,33920
7244,33920
7245,33920
7246,33984
7247,34048
7248,33984
7249,33920
7250,33920
7251,33984
7252,33920
7253,33856
7254,33920
7255,34048
7256,34368
7257,34816
7258,35584
7259,36480
7260,37696
7261,38848
7262,38720
7263,37248
7264,35200
7265,33344
7266,32064
7267,31424
7268,31104
7269,31168
7270,31552
7271,32576
7272,33024
7273,33600
7274,34112
7275,34496
7276,34752
7277,34816
7278,34816
7279,34752
7280,34688
7281,34560
7282,34432
7283,34368
7284,34304
7285,34240
7286,34176
7287,34112
7288,34176
7289,34176
7290,34240
7291,34240
7292,34304
7293,34368
7294,34368
7295,34368
7296,34368
7297,34432
7298,34432
7299,34368
7300,34432
7301,34432
7302,34432
7303,34432
7304,34496
7305,34496
7306,34496
7307,34496
7308,34496
7309,34560
7310,34624
7311,34624
7312,34624
7313,34688
7314,34752
7315,34752
7316,34752
7317,34752
7318,34816
7319,34752
7320,34752
7321,34752
7322,34752
7323,34688
7324,34688
7325,34688
7326,34688
7327,34688
7328,34624
7329,34624
7330,34560
7331,34496
7332,34368
7333,34176
7334,34112
7335,34048
7336,33984
7337,33920
7338,33920
7339,33856
7340,33792
7341,33792
7342,33792
7343,33792
7344,33792
7345,33792
7346,33856
7347,33984
7348,34048
7349,34048
7350,34112
7351,34176
7352,34240
7353,34304
7354,34304
7355,34368
7356,34432
7357,34368
7358,34496
7359,34752
7360,34944
7361,35008
7362,34944
7363,34880
7364,34752
7365,34560
7366,34432
7367,34432
7368,34368
7369,34240
7370,34048
7371,33920
7372,33792
7373,33536
7374,33344
7375,33280
7376,33280
7377,33344
7378,33408
7379,33472
7380,33664
7381,33728
7382,33728
7383,33792
7384,33792
7385,33792
7386,33728
7387,33664
7388,33664
7389,33728
7390,33664
7391,33600
7392,33600
7393,33728
7394,33920
7395,34368
7396,35072
7397,36096
7398,37376
7399,38912
7400,40704
7401,41600
7402,40704
7403,38528
7404,36032
7405,33856
7406,32128
7407,30848
7408,30208
7409,30080
7410,30336
7411,30912
7412,31552
7413,32320
7414,32960
7415,33408
7416,33792
7417,34048
7418,34176
7419,34304
7420,34304
7421,34240
7422,34176
7423,34112
7424,34048
7425,33984
7426,33920
7427,33856
7428,33728
7429,33664
7430,33728
7431,33728
7432,33664
7433,33664
7434,33728
7435,33792
7436,33856
7437,33792
7438,33856
7439,33920
7440,33920
7441,33856
7442,33792
7443,33792
7444,33728
7445,33664
7446,33664
7447,33664
7448,33664
7449,33664
7450,33728
7451,33856
7452,33920
7453,33856
7454,33856
7455,33920
7456,33920
7457,33920
7458,33920
7459,33984
7460,34048
7461,34048
7462,34048
7463,34112
7464,34240
7465,34304
7466,34368
7467,34432
7468,34496
7469,34432
7470,34368
7471,34368
7472,34368
7473,34304
7474,34176
7475,34048
7476,34048
7477,34048
7478,33984
7479,33920
7480,33984
7481,34048
7482,33984
7483,33920
7484,33984
7485,34048
7486,34112
7487,34048
7488,34048
7489,34048
7490,34048
7491,33984
7492,34048
7493,34176
7494,34240
7495,34304
7496,34368
7497,34432
7498,34496
7499,34496
7500,34624
7501,34880
7502,34944
7503,35008
7504,34944
7505,34944
7506,34816
7507,34624
7508,34496
7509,34432
7510,34432
7511,34304
7512,34112
7513,33920
7514,33728
7515,33600
7516,33536
7517,33536
7518,33664
7519,33792
7520,33856
7521,33920
7522,33920
7523,33856
7524,33792
7525,33728
7526,33792
7527,33856
7528,33920
7529,34048
7530,34176
7531,34240
7532,34112
7533,33984
7534,33856
7535,33856
7536,34048
7537,34432
7538,35200
7539,36288
7540,37632
7541,38912
7542,38656
7543,37056
7544,34944
7545,32960
7546,31616
7547,30912
7548,30656
7549,30848
7550,31424
7551,32192
7552,33024
7553,33664
7554,34240
7555,34688
7556,34816
7557,34816
7558,34688
7559,34496
7560,34432
7561,34368
7562,34368
7563,34368
7564,34304
7565,34240
7566,34112
7567,34048
7568,34048
7569,34112
7570,34048
7571,33920
7572,33984
7573,33984
7574,33984
7575,34048
7576,34048
7577,34048
7578,33984
7579,34048
7580,34176
7581,34368
7582,34496
7583,34432
7584,34368
7585,34304
7586,34240
7587,34240
7588,34304
7589,34304
7590,34240
7591,34112
7592,34176
7593,34304
7594,34304
7595,34112
7596,33920
7597,33792
7598,33728
7599,33728
7600,33792
7601,33920
7602,34048
7603,34112
7604,34176
7605,34368
7606,34432
7607,34432
7608,34304
7609,34240
7610,34176
7611,34112
7612,34048
7613,33856
7614,33600
7615,33408
7616,33280
7617,33216
7618,33216
7619,33280
7620,33344
7621,33472
7622,33600
7623,33664
7624,33664
7625,33728
7626,33856
7627,33984
7628,34048
7629,34112
7630,34048
7631,34048
7632,34048
7633,34112
7634,34176
7635,34240
7636,34304
7637,34304
7638,34304
7639,34304
7640,34368
7641,34496
7642,34752
7643,35072
7644,35264
7645,35328
7646,35264
7647,35072
7648,34816
7649,34688
7650,34560
7651,34624
7652,34688
7653,34496
7654,34240
7655,34048
7656,33984
7657,33920
7658,33920
7659,33984
7660,33984
7661,34048
7662,34176
7663,34240
7664,34176
7665,34112
7666,33984
7667,33920
7668,34048
7669,34112
7670,34176
7671,34240
7672,34304
7673,34304
7674,34176
7675,34240
7676,34432
7677,34880
7678,35392
7679,36160
7680,37248
7681,38528
7682,40064
7683,40832
7684,40000
7685,38272
7686,36352
7687,34624
7688,33152
7689,32128
7690,31424
7691,31232
7692,31360
7693,31744
7694,32256
7695,32704
7696,33088
7697,33536
7698,33984
7699,34304
7700,34432
7701,34496
7702,34432
7703,34304
7704,34240
7705,34176
7706,34176
7707,34176
7708,34112
7709,34112
7710,34112
7711,34112
7712,34112
7713,34112
7714,34048
7715,33984
7716,33920
7717,33856
7718,33856
7719,33728
7720,33600
7721,33472
7722,33472
7723,33472
7724,33536
7725,33600
7726,33664
7727,33600
7728,33536
7729,33664
7730,33792
7731,33728
7732,33536
7733,33344
7734,33216
7735,33216
7736,33280
7737,33216
7738,33152
7739,33216
7740,33280
7741,33344
7742,33408
7743,33536
7744,33728
7745,33728
7746,33728
7747,33856
7748,33984
7749,34048
7750,33984
7751,33984
7752,33856
7753,33728
7754,33600
7755,33472
7756,33344
7757,33216
7758,33152
7759,33216
7760,33344
7761,33344
7762,33280
7763,33280
7764,33600
7765,33728
7766,33536
7767,33344
7768,33216
7769,33216
7770,33216
7771,33216
7772,33344
7773,33472
7774,33472
7775,33536
7776,33664
7777,33792
7778,33856
7779,33920
7780,34112
7781,34368
7782,34560
7783,34560
7784,34496
7785,34368
7786,34112
7787,33856
7788,33728
7789,33856
7790,33792
7791,33536
7792,33216
7793,33088
7794,33024
7795,33024
7796,33024
7797,33088
7798,33152
7799,33216
7800,33280
7801,33472
7802,33600
7803,33792
7804,33856
7805,33856
7806,33920
7807,33792
7808,33664
7809,33600
7810,33664
7811,33664
7812,33600
7813,33536
7814,33536
7815,33664
7816,33920
7817,34496
7818,35456
7819,36416
7820,37504
7821,38144
7822,37568
7823,35968
7824,34304
7825,33024
7826,32384
7827,32000
7828,31872
7829,32000
7830,32192
7831,32512
7832,32896
7833,33344
7834,33792
7835,34240
7836,34560
7837,34688
7838,34816
7839,34880
7840,34880
7841,34752
7842,34560
7843,34496
7844,34496
7845,34432
7846,34304
7847,34304
7848,34304
7849,34240
7850,34240
7851,34240
7852,34304
7853,34304
7854,34304
7855,34368
7856,34368
7857,34496
7858,34496
7859,34496
7860,34496
7861,34496
7862,34560
7863,34560
7864,34624
7865,34624
7866,34560
7867,34560
7868,34624
7869,34688
7870,34688
7871,34752
7872,34816
7873,34880
7874,34880
7875,34752
7876,34752
7877,34752
7878,34752
7879,34752
7880,34816
7881,34880
7882,34752
7883,34624
7884,34560
7885,34560
7886,34624
7887,34624
7888,34560
7889,34624
7890,34624
7891,34496
7892,34432
7893,34432
7894,34432
7895,34304
7896,34240
7897,34176
7898,34176
7899,34176
7900,34112
7901,34048
7902,34048
7903,34048
7904,34048
7905,34112
7906,34240
7907,34304
7908,34368
7909,34432
7910,34496
7911,34496
7912,34560
7913,34688
7914,34880
7915,35072
7916,35072
7917,35008
7918,35008
7919,34944
7920,34816
7921,34752
7922,34688
7923,34624
7924,34432
7925,34176
7926,33856
7927,33664
7928,33472
7929,33344
7930,33344
7931,33408
7932,33472
7933,33536
7934,33664
7935,33792
7936,33856
7937,33856
7938,33792
7939,33856
7940,33984
7941,33920
7942,33856
7943,33792
7944,33792
7945,33728
7946,33664
7947,33792
7948,34048
7949,34560
7950,35200
7951,36032
7952,37248
7953,38528
7954,39808
7955,40256
7956,39360
7957,37696
7958,35968
7959,34432
7960,33088
7961,32000
7962,31104
7963,30656
7964,30592
7965,30848
7966,31360
7967,31936
7968,32512
7969,33088
7970,33408
7971,33728
7972,33984
7973,34176
7974,34176
7975,34176
7976,34112
7977,34048
7978,33984
7979,33856
7980,33792
7981,33728
7982,33664
7983,33600
7984,33600
7985,33664
7986,33664
7987,33664
7988,33664
7989,33728
7990,33792
7991,33856
7992,33856
7993,33856
7994,33856
7995,33792
7996,33664
7997,33536
7998,33536
7999,33536
8000,33472
8001,33472
8002,33536
8003,33600
8004,33600
8005,33600
8006,33664
8007,33792
8008,33728
8009,33664
8010,33600
8011,33664
8012,33664
8013,33792
8014,33856
8015,33984
8016,33984
8017,33856
8018,33856
8019,33920
8020,34048
8021,34176
8022,34240
8023,34240
8024,34240
8025,34176
8026,34304
8027,34368
8028,34304
8029,34240
8030,34176
8031,34176
8032,34176
8033,34112
8034,33984
8035,33920
8036,33920
8037,33920
8038,33920
8039,34048
8040,34176
8041,34240
8042,34304
8043,34368
8044,34624
8045,34880
8046,34944
8047,34880
8048,34816
8049,34752
8050,34560
8051,34496
8052,34496
8053,34496
8054,34496
8055,34432
8056,34240
8057,34048
8058,33792
8059,33664
8060,33600
8061,33600
8062,33600
8063,33600
8064,33536
8065,33664
8066,33792
8067,33728
8068,33920
8069,33984
8070,33984
8071,33984
8072,33984
8073,33920
8074,33856
8075,33792
8076,33856
8077,33792
8078,33856
8079,33920
8080,33856
8081,34688
8082,34688
8083,35968
8084,36800
8085,37888
8086,38400
8087,37504
8088,35840
8089,34176
8090,32896
8091,32192
8092,31744
8093,31616
8094,31744
8095,31936
8096,32320
8097,32896
8098,33536
8099,33984
8100,34304
8101,34496
8102,34560
8103,34560
8104,34560
8105,34560
8106,34560
8107,34432
8108,34304
8109,34176
8110,34176
8111,34176
8112,34240
8113,34240
8114,34304
8115,34240
8116,34176
8117,34176
8118,34112
8119,34112
8120,34112
8121,34112
8122,34240
8123,34368
8124,34368
8125,34304
8126,34368
8127,34368
8128,34432
8129,34496
8130,34560
8131,34624
8132,34560
8133,34432
8134,34368
8135,34368
8136,34368
8137,34432
8138,34368
8139,34624
8140,34624
8141,34496
8142,34496
8143,34560
8144,34560
8145,34624
8146,34624
8147,34560
8148,34496
8149,34432
8150,34432
8151,34432
8152,34496
8153,34560
8154,34432
8155,34368
8156,34304
8157,34240
8158,34176
8159,34112
8160,34112
8161,33984
8162,33920
8163,33920
8164,33920
8165,33856
8166,33856
8167,33856
8168,33984
8169,34048
8170,34048
8171,34048
8172,34112
8173,34240
8174,34304
8175,34368
8176,34432
8177,34432
8178,34560
8179,34688
8180,34880
8181,35008
8182,35072
8183,34944
8184,34816
8185,34688
8186,34624
8187,34496
8188,34496
8189,34496
8190,34368
8191,34112
8192,33856
8193,33728
8194,33600
8195,33408
8196,33344
8197,33408
8198,33536
8199,33536
8200,33536
8201,33536
8202,33600
8203,33600
8204,33600
8205,33664
8206,33728
8207,33792
8208,33856
8209,33856
8210,33856
8211,33728
8212,33728
8213,33920
8214,34240
8215,34816
8216,35584
8217,36416
8218,37568
8219,38976
8220,40512
8221,40832
8222,39680
8223,37760
8224,35648
8225,33664
8226,32128
8227,31104
8228,30528
8229,30400
8230,30656
8231,31232
8232,31808
8233,32448
8234,33024
8235,33536
8236,33792
8237,33984
8238,34112
8239,34240
8240,34304
8241,34240
8242,34176
8243,34048
8244,33984
8245,33920
8246,33856
8247,33856
8248,33856
8249,33728
8250,33664
8251,33728
8252,33728
8253,33792
8254,33792
8255,33792
8256,33856
8257,33856
8258,33792
8259,33792
8260,33792
8261,33792
8262,33792
8263,33792
8264,33792
8265,33856
8266,33856
8267,33856
8268,33856
8269,33856
8270,33792
8271,33728
8272,33728
8273,33728
8274,33728
8275,33600
8276,33600
8277,33600
8278,33664
8279,33664
8280,33728
8281,33856
8282,33920
8283,33984
8284,34048
8285,34176
8286,34240
8287,34368
8288,34432
8289,34432
8290,34496
8291,34496
8292,34432
8293,34432
8294,34368
8295,34176
8296,34048
8297,33984
8298,33984
8299,33984
8300,33984
8301,33984
8302,33984
8303,34048
8304,34112
8305,34048
8306,34112
8307,34176
8308,34176
8309,34176
8310,34240
8311,34368
8312,34368
8313,34432
8314,34432
8315,34496
8316,34496
8317,34496
8318,34624
8319,34816
8320,34944
8321,35008
8322,35072
8323,35008
8324,34880
8325,34752
8326,34688
8327,34688
8328,34688
8329,34496
8330,34304
8331,34112
8332,33856
8333,33664
8334,33472
8335,33408
8336,33472
8337,33472
8338,33536
8339,33664
8340,33728
8341,33856
8342,33920
8343,33984
8344,34048
8345,34112
8346,34112
8347,34176
8348,34176
8349,34112
8350,33984
8351,33984
8352,34048
8353,34112
8354,34368
8355,34816
8356,35456
8357,36352
8358,37376
8359,38656
8360,38912
8361,37632
8362,35456
8363,33536
8364,32064
8365,31232
8366,30784
8367,30784
8368,31232
8369,31936
8370,32768
8371,33536
8372,34176
8373,34688
8374,34944
8375,35008
8376,35008
8377,35008
8378,34880
8379,34688
8380,34560
8381,34432
8382,34432
8383,34368
8384,34304
8385,34368
8386,34368
8387,34304
8388,34304
8389,34368
8390,34432
8391,34368
8392,34304
8393,34240
8394,34240
8395,34240
8396,34304
8397,34368
8398,34368
8399,34368
8400,34368
8401,34368
8402,34496
8403,34560
8404,34560
8405,34624
8406,34688
8407,34688
8408,34688
8409,34688
8410,34752
8411,34816
8412,34752
8413,34752
8414,34688
8415,34688
8416,34624
8417,34560
8418,34560
8419,34624
8420,34688
8421,34688
8422,34688
8423,34624
8424,34624
8425,34624
8426,34624
8427,34688
8428,34624
8429,34496
8430,34432
8431,34368
8432,34304
8433,34176
8434,34112
8435,34112
8436,34112
8437,34112
8438,34048
8439,34048
8440,34176
8441,34176
8442,34112
8443,34048
8444,34048
8445,34112
8446,34112
8447,34112
8448,34112
8449,34112
8450,34048
8451,34048
8452,34112
8453,34176
8454,34176
8455,34176
8456,34240
8457,34240
8458,34240
8459,34240
8460,34368
8461,34432
8462,34432
8463,34496
8464,34496
8465,34560
8466,34560
8467,34624
8468,34752
8469,35008
8470,35008
8471,34816
8472,34688
8473,34560
8474,34496
8475,34432
8476,34304
8477,34304
8478,34112
8479,33856
8480,33600
8481,33472
8482,33408
8483,33408
8484,33344
8485,33408
8486,33472
8487,33536
8488,33600
8489,33728
8490,33792
8491,33792
8492,33792
8493,33856
8494,33856
8495,33920
8496,33984
8497,33920
8498,33920
8499,33920
8500,33856
8501,33920
8502,34112
8503,34560
8504,35264
8505,36288
8506,37504
8507,38912
8508,39232
8509,37760
8510,35328
8511,33024
8512,31424
8513,30528
8514,30144
8515,30208
8516,30976
8517,31680
8518,32576
8519,33536
8520,34240
8521,34688
8522,34880
8523,35008
8524,35008
8525,34880
8526,34688
8527,34560
8528,34496
8529,34368
8530,34176
8531,34112
8532,34048
8533,34048
8534,34112
8535,34048
8536,34048
8537,34048
8538,33984
8539,33984
8540,34112
8541,34112
8542,34112
8543,34048
8544,34048
8545,34112
8546,34112
8547,34176
8548,34240
8549,34368
8550,34432
8551,34432
8552,34496
8553,34432
8554,34432
8555,34432
8556,34432
8557,34432
8558,34432
8559,34432
8560,34432
8561,34432
8562,34432
8563,34368
8564,34432
8565,34560
8566,34624
8567,34560
8568,34496
8569,34496
8570,34496
8571,34560
8572,34560
8573,34560
8574,34560
8575,34496
8576,34496
8577,34496
8578,34432
8579,34304
8580,34176
8581,34112
8582,34112
8583,34048
8584,33984
8585,33920
8586,33856
8587,33856
8588,33856
8589,33856
8590,33984
8591,34048
8592,34048
8593,33984
8594,34048
8595,34048
8596,34048
8597,34048
8598,34048
8599,34112
8600,34112
8601,34048
8602,34112
8603,34176
8604,34176
8605,34112
8606,34048
8607,34048
8608,33984
8609,33920
8610,33984
8611,33920
8612,33920
8613,33856
8614,33920
8615,33920
8616,33920
8617,33856
8618,33920
8619,34048
8620,34176
8621,34240
8622,34304
8623,34368
8624,34368
8625,34432
8626,34496
8627,34752
8628,35008
8629,35072
8630,35008
8631,34880
8632,34880
8633,34816
8634,34624
8635,34432
8636,34240
8637,34048
8638,33728
8639,33536
8640,33408
8641,33280
8642,33216
8643,33216
8644,33344
8645,33472
8646,33536
8647,33600
8648,33728
8649,33856
8650,33920
8651,33984
8652,34048
8653,34048
8654,33984
8655,33856
8656,33856
8657,33856
8658,33856
8659,33728
8660,33792
8661,34176
8662,34752
8663,35648
8664,36736
8665,38080
8666,38912
8667,37952
8668,35904
8669,33600
8670,31872
8671,30784
8672,30272
8673,30272
8674,30656
8675,31360
8676,32192
8677,33024
8678,33792
8679,34368
8680,34624
8681,34816
8682,34880
8683,34752
8684,34624
8685,34496
8686,34368
8687,34304
8688,34176
8689,34112
8690,34112
8691,34112
8692,34048
8693,34048
8694,34112
8695,34240
8696,34240
8697,34176
8698,34112
8699,34048
8700,34048
8701,34048
8702,34048
8703,34112
8704,34112
8705,34176
8706,34240
8707,34304
8708,34368
8709,34368
8710,34304
8711,34368
8712,34432
8713,34432
8714,34432
8715,34432
8716,34432
8717,34368
8718,34368
8719,34432
8720,34432
8721,34432
8722,34368
8723,34368
8724,34432
8725,34432
8726,34496
8727,34496
8728,34560
8729,34496
8730,34496
8731,34496
8732,34624
8733,34624
8734,34624
8735,34560
8736,34560
8737,34496
8738,34304
8739,34240
8740,34176
8741,34048
8742,33984
8743,33920
8744,33984
8745,33984
8746,33920
8747,33856
8748,33920
8749,33984
8750,33984
8751,33984
8752,33984
8753,34112
8754,34112
8755,34112
8756,34112
8757,34048
8758,34048
8759,33984
8760,33984
8761,33984
8762,33984
8763,33984
8764,33920
8765,33920
8766,33984
8767,33984
8768,33920
8769,33920
8770,33920
8771,33920
8772,33856
8773,33856
8774,33856
8775,33920
8776,33920
8777,33920
8778,33920
8779,33920
8780,33856
8781,33856
8782,33920
8783,33920
8784,33984
8785,34112
8786,34240
8787,34304
8788,34240
8789,34112
8790,34176
8791,34368
8792,34560
8793,34752
8794,34880
8795,34880
8796,34752
8797,34624
8798,34560
8799,34432
8800,34368
8801,34176
8802,33856
8803,33600
8804,33344
8805,33152
8806,33024
8807,33088
8808,33152
8809,33280
8810,33344
8811,33472
8812,33600
8813,33600
8814,33600
8815,33728
8816,33856
8817,33856
8818,33856
8819,33792
8820,33792
8821,33728
8822,33600
8823,33600
8824,33664
8825,33984
8826,34496
8827,35264
8828,36224
8829,37376
8830,38080
8831,37248
8832,35392
8833,33408
8834,31936
8835,31104
8836,30784
8837,30784
8838,31040
8839,31552
8840,32192
8841,32896
8842,33536
8843,34048
8844,34432
8845,34624
8846,34624
8847,34496
8848,34432
8849,34304
8850,34240
8851,34112
8852,34048
8853,34048
8854,33984
8855,33856
8856,33856
8857,33792
8858,33856
8859,33856
8860,33856
8861,33920
8862,33920
8863,33920
8864,33920
8865,33920
8866,33984
8867,33984
8868,33984
8869,33984
8870,34048
8871,34048
8872,34048
8873,34048
8874,34112
8875,34176
8876,34176
8877,34176
8878,34240
8879,34240
8880,34240
8881,34304
8882,34304
8883,34368
8884,34304
8885,34240
8886,34304
8887,34304
8888,34240
8889,34240
8890,34176
8891,34176
8892,34240
8893,34240
8894,34304
8895,34304
8896,34368
8897,34368
8898,34368
8899,34368
8900,34240
8901,34176
8902,34112
8903,34176
8904,34176
8905,34112
8906,34112
8907,34048
8908,33984
8909,33856
8910,33792
8911,33728
8912,33792
8913,33792
8914,33856
8915,33856
8916,33856
8917,33920
8918,33920
8919,33856
8920,33920
8921,33984
8922,33984
8923,33920
8924,33920
8925,33856
8926,33856
8927,33920
8928,33984
8929,33984
8930,33984
8931,33984
8932,33984
8933,34048
8934,33920
8935,33856
8936,33856
8937,33856
8938,33856
8939,33856
8940,33984
8941,34112
8942,34112
8943,34048
8944,34048
8945,34112
8946,34240
8947,34496
8948,34688
8949,34880
8950,34880
8951,34752
8952,34624
8953,34560
8954,34496
8955,34304
8956,34176
8957,34048
8958,33856
8959,33536
8960,33280
8961,33152
8962,33152
8963,33152
8964,33152
8965,33216
8966,33408
8967,33472
8968,33536
8969,33664
8970,33792
8971,33856
8972,33920
8973,33920
8974,33920
8975,33920
8976,33856
8977,33728
8978,33728
8979,33856
8980,34240
8981,35008
8982,35456
8983,36416
8984,37440
8985,38720
8986,39808
8987,39488
8988,38016
8989,36160
8990,34560
8991,33152
8992,32128
8993,31360
8994,31040
8995,31040
8996,31168
8997,31488
8998,32000
8999,32576
9000,33152
9001,33536
9002,33792
9003,33920
9004,34048
9005,34048
9006,33984
9007,33984
9008,33920
9009,33856
9010,33728
9011,33728
9012,33728
9013,33728
9014,33728
9015,33728
9016,33728
9017,33728
9018,33728
9019,33664
9020,33728
9021,33728
9022,33664
9023,33600
9024,33600
9025,33600
9026,33600
9027,33600
9028,33664
9029,33664
9030,33600
9031,33536
9032,33536
9033,33536
9034,33536
9035,33536
9036,33536
9037,33600
9038,33664
9039,33664
9040,33600
9041,33664
9042,33600
9043,33536
9044,33600
9045,33600
9046,33600
9047,33664
9048,33664
9049,33792
9050,33856
9051,33920
9052,33984
9053,34048
9054,34176
9055,34240
9056,34304
9057,34304
9058,34304
9059,34240
9060,34176
9061,34112
9062,34048
9063,33984
9064,33920
9065,33920
9066,33920
9067,33920
9068,33856
9069,33856
9070,33856
9071,33920
9072,33920
9073,33920
9074,33984
9075,33984
9076,33984
9077,33920
9078,33920
9079,33920
9080,33984
9081,33920
9082,33920
9083,33984
9084,33984
9085,34048
9086,34176
9087,34240
9088,34240
9089,34304
9090,34240
9091,34304
9092,34304
9093,34368
9094,34496
9095,34688
9096,34816
9097,34880
9098,34944
9099,34880
9100,34816
9101,34624
9102,34432
9103,34304
9104,34240
9105,34048
9106,33856
9107,33664
9108,33536
9109,33408
9110,33280
9111,33344
9112,33408
9113,33536
9114,33600
9115,33728
9116,33792
9117,33792
9118,33792
9119,33856
9120,33920
9121,33920
9122,33856
9123,33856
9124,33856
9125,33856
9126,33856
9127,33920
9128,34240
9129,34816
9130,35648
9131,36928
9132,37568
9133,38848
9134,39872
9135,39616
9136,38272
9137,36608
9138,35072
9139,33664
9140,32512
9141,31680
9142,31168
9143,30912
9144,30976
9145,31296
9146,31808
9147,32320
9148,32896
9149,33344
9150,33664
9151,33920
9152,34048
9153,34112
9154,34112
9155,34112
9156,34048
9157,34048
9158,33984
9159,33920
9160,33856
9161,33856
9162,33792
9163,33728
9164,33664
9165,33600
9166,33664
9167,33728
9168,33728
9169,33728
9170,33728
9171,33792
9172,33728
9173,33728
9174,33664
9175,33664
9176,33600
9177,33600
9178,33664
9179,33664
9180,33600
9181,33536
9182,33600
9183,33664
9184,33664
9185,33664
9186,33664
9187,33728
9188,33664
9189,33664
9190,33600
9191,33600
9192,33664
9193,33728
9194,33728
9195,33728
9196,33856
9197,33856
9198,33856
9199,33984
9200,34048
9201,34176
9202,34176
9203,34176
9204,34240
9205,34240
9206,34240
9207,34240
9208,34240
9209,34176
9210,34112
9211,34048
9212,33984
9213,33984
9214,33920
9215,33920
9216,33920
9217,33920
9218,33920
9219,33920
9220,33984
9221,33920
9222,33920
9223,33856
9224,33920
9225,33984
9226,34048
9227,34112
9228,34176
9229,34240
9230,34304
9231,34304
9232,34304
9233,34432
9234,34560
9235,34752
9236,35008
9237,35072
9238,35136
9239,35008
9240,34880
9241,34752
9242,34624
9243,34560
9244,34496
9245,34496
9246,34240
9247,33920
9248,33664
9249,33472
9250,33408
9251,33344
9252,33344
9253,33408
9254,33536
9255,33664
9256,33728
9257,33792
9258,33856
9259,33920
9260,33856
9261,33920
9262,33920
9263,33984
9264,34048
9265,33984
9266,33856
9267,33856
9268,33920
9269,34112
9270,34624
9271,35264
9272,36096
9273,37056
9274,38208
9275,39616
9276,40384
9277,39808
9278,38208
9279,36416
9280,34752
9281,32704
9282,32064
9283,31360
9284,30976
9285,30848
9286,31040
9287,31488
9288,32064
9289,32640
9290,33088
9291,33536
9292,33856
9293,34048
9294,34176
9295,34240
9296,34304
9297,34176
9298,34112
9299,34048
9300,34048
9301,34048
9302,33984
9303,33920
9304,33856
9305,33792
9306,33792
9307,33792
9308,33856
9309,33920
9310,33856
9311,33792
9312,33792
9313,33792
9314,33856
9315,33856
9316,33920
9317,33920
9318,33856
9319,33856
9320,33856
9321,33856
9322,33856
9323,33792
9324,33792
9325,33792
9326,33728
9327,33664
9328,33664
9329,33792
9330,33792
9331,33792
9332,33728
9333,33792
9334,33792
9335,33792
9336,33856
9337,33920
9338,33920
9339,33984
9340,33984
9341,34048
9342,34112
9343,34176
9344,34240
9345,34304
9346,34368
9347,34432
9348,34432
9349,34304
9350,34240
9351,34176
9352,34176
9353,34176
9354,34176
9355,34112
9356,34048
9357,34048
9358,34048
9359,34048
9360,34048
9361,34048
9362,34112
9363,34112
9364,34176
9365,34176
9366,34240
9367,34304
9368,34368
9369,34432
9370,34496
9371,34560
9372,34688
9373,34816
9374,34880
9375,35008
9376,35008
9377,34944
9378,34816
9379,34688
9380,34688
9381,34624
9382,34624
9383,34560
9384,34368
9385,34048
9386,33792
9387,33600
9388,33536
9389,33472
9390,33408
9391,33472
9392,33536
9393,33664
9394,33664
9395,33728
9396,33856
9397,33984
9398,33984
9399,33984
9400,34048
9401,34048
9402,33984
9403,33984
9404,33920
9405,33856
9406,33856
9407,34048
9408,34432
9409,35072
9410,35776
9411,36736
9412,37888
9413,39168
9414,40384
9415,40320
9416,39040
9417,37184
9418,35392
9419,33792
9420,32448
9421,31616
9422,31104
9423,30848
9424,30912
9425,31360
9426,31872
9427,32448
9428,33024
9429,33536
9430,33920
9431,34112
9432,34240
9433,34304
9434,34304
9435,34240
9436,34176
9437,34112
9438,34112
9439,34048
9440,34048
9441,34048
9442,33984
9443,33920
9444,33856
9445,33792
9446,33856
9447,33920
9448,33856
9449,33792
9450,33792
9451,33856
9452,33792
9453,33792
9454,33856
9455,33920
9456,33856
9457,33792
9458,33792
9459,33856
9460,33856
9461,33856
9462,33856
9463,33856
9464,33792
9465,33728
9466,33728
9467,33792
9468,33792
9469,33728
9470,33792
9471,33792
9472,33792
9473,33728
9474,33728
9475,33792
9476,33856
9477,33920
9478,33984
9479,34048
9480,34112
9481,34240
9482,34240
9483,34304
9484,34304
9485,34304
9486,34240
9487,34240
9488,34304
9489,34240
9490,34176
9491,34176
9492,34176
9493,34112
9494,34048
9495,34048
9496,34048
9497,34048
9498,34048
9499,34048
9500,34112
9501,34176
9502,34176
9503,34176
9504,34240
9505,34368
9506,34432
9507,34496
9508,34560
9509,34560
9510,34560
9511,34624
9512,34816
9513,35008
9514,35072
9515,35008
9516,34944
9517,34880
9518,34752
9519,34624
9520,34560
9521,34560
9522,34560
9523,34368
9524,34112
9525,33920
9526,33728
9527,33600
9528,33536
9529,33600
9530,33600
9531,33600
9532,33600
9533,33600
9534,33728
9535,33792
9536,33856
9537,33920
9538,34048
9539,34112
9540,34112
9541,34112
9542,34176
9543,34112
9544,33984
9545,33984
9546,34048
9547,34176
9548,34432
9549,34816
9550,35520
9551,36288
9552,37248
9553,38272
9554,38336
9555,37056
9556,35136
9557,33344
9558,32192
9559,31552
9560,31232
9561,31232
9562,31488
9563,32000
9564,32640
9565,33344
9566,33920
9567,34304
9568,34560
9569,34688
9570,34688
9571,34752
9572,34688
9573,34624
9574,34496
9575,34368
9576,34304
9577,34176
9578,34112
9579,34112
9580,34176
9581,34112
9582,34048
9583,34048
9584,34112
9585,34112
9586,34112
9587,34112
9588,34176
9589,34176
9590,34240
9591,34240
9592,34240
9593,34304
9594,34304
9595,34368
9596,34432
9597,34496
9598,34496
9599,34432
9600,34432
9601,34432
9602,34432
9603,34496
9604,34496
9605,34496
9606,34432
9607,34368
9608,34368
9609,34368
9610,34368
9611,34368
9612,34368
9613,34368
9614,34368
9615,34304
9616,34304
9617,34368
9618,34368
9619,34368
9620,34368
9621,34368
9622,34368
9623,34304
9624,34240
9625,34240
9626,34240
9627,34176
9628,34048
9629,33984
9630,33984
9631,33984
9632,33920
9633,33920
9634,33984
9635,34048
9636,34048
9637,34112
9638,34176
9639,34176
9640,34112
9641,34112
9642,34176
9643,34176
9644,34176
9645,34176
9646,34240
9647,34304
9648,34368
9649,34432
9650,34496
9651,34560
9652,34560
9653,34560
9654,34624
9655,34816
9656,34944
9657,35008
9658,34944
9659,34944
9660,34816
9661,34688
9662,34560
9663,34496
9664,34432
9665,34304
9666,34176
9667,33920
9668,33728
9669,33472
9670,33344
9671,33280
9672,33344
9673,33344
9674,33408
9675,33472
9676,33600
9677,33664
9678,33664
9679,33728
9680,33792
9681,33856
9682,33920
9683,33984
9684,34048
9685,33984
9686,33920
9687,33792
9688,33792
9689,33856
9690,33856
9691,34048
9692,34496
9693,35072
9694,35840
9695,36736
9696,37888
9697,38464
9698,37504
9699,35648
9700,33664
9701,32320
9702,31424
9703,30976
9704,30848
9705,31104
9706,31680
9707,32320
9708,33024
9709,33664
9710,34176
9711,34496
9712,34624
9713,34688
9714,34752
9715,34624
9716,34496
9717,34432
9718,34304
9719,34176
9720,34112
9721,34048
9722,34048
9723,34048
9724,33984
9725,34048
9726,34048
9727,34112
9728,34048
9729,34048
9730,34112
9731,34112
9732,34112
9733,34112
9734,34112
9735,34176
9736,34176
9737,34240
9738,34240
9739,34304
9740,34304
9741,34368
9742,34432
9743,34432
9744,34432
9745,34432
9746,34368
9747,34432
9748,34432
9749,34432
9750,34432
9751,34368
9752,34368
9753,34304
9754,34304
9755,34304
9756,34304
9757,34304
9758,34240
9759,34304
9760,34368
9761,34368
9762,34304
9763,34368
9764,34368
9765,34304
9766,34304
9767,34240
9768,34240
9769,34176
9770,34112
9771,34048
9772,33984
9773,33984
9774,33920
9775,33920
9776,33984
9777,33984
9778,34048
9779,34048
9780,34048
9781,34112
9782,34048
9783,34048
9784,34112
9785,34176
9786,34176
9787,34176
9788,34240
9789,34240
9790,34240
9791,34176
9792,34112
9793,34176
9794,34176
9795,34112
9796,34112
9797,34176
9798,34240
9799,34240
9800,34240
9801,34304
9802,34368
9803,34432
9804,34368
9805,34432
9806,34432
9807,34368
9808,34432
9809,34560
9810,34816
9811,34880
9812,34880
9813,34816
9814,34752
9815,34688
9816,34624
9817,34560
9818,34496
9819,34368
9820,34112
9821,33792
9822,33600
9823,33408
9824,33344
9825,33344
9826,33472
9827,33536
9828,33536
9829,33600
9830,33664
9831,33792
9832,33856
9833,33920
9834,33984
9835,34048
9836,34048
9837,34048
9838,34048
9839,34048
9840,34048
9841,33984
9842,33984
9843,33984
9844,34112
9845,34368
9846,34752
9847,35520
9848,36480
9849,37632
9850,38720
9851,38400
9852,36736
9853,34496
9854,32640
9855,31360
9856,30784
9857,30528
9858,30656
9859,31168
9860,31936
9861,32768
9862,34112
9863,34560
9864,34560
9865,34944
9866,34944
9867,34880
9868,34880
9869,34624
9870,34432
9871,34304
9872,34240
9873,34176
9874,34112
9875,34176
9876,34176
9877,34112
9878,34112
9879,34048
9880,34048
9881,34112
9882,34112
9883,34112
9884,34176
9885,34240
9886,34240
9887,34304
9888,34368
9889,34368
9890,34368
9891,34304
9892,34368
9893,34368
9894,34304
9895,34368
9896,34432
9897,34432
9898,34432
9899,34432
9900,34432
9901,34432
9902,34368
9903,34432
9904,34432
9905,34496
9906,34496
9907,34496
9908,34496
9909,34432
9910,34432
9911,34368
9912,34368
9913,34432
9914,34496
9915,34496
9916,34560
9917,34560
9918,34560
9919,34496
9920,34432
9921,34368
9922,34240
9923,34176
9924,34048
9925,34048
9926,33984
9927,33984
9928,33984
9929,33984
9930,34048
9931,34048
9932,33984
9933,34048
9934,34112
9935,34112
9936,34112
9937,34176
9938,34176
9939,34176
9940,34112
9941,34112
9942,34112
9943,34112
9944,34048
9945,34048
9946,34112
9947,34112
9948,34048
9949,34048
9950,34112
9951,34176
9952,34112
9953,34112
9954,34112
9955,33984
9956,33920
9957,33856
9958,33856
9959,33856
9960,33856
9961,33920
9962,33984
9963,34048
9964,34176
9965,34240
9966,34304
9967,34368
9968,34432
9969,34432
9970,34432
9971,34560
9972,34816
9973,34944
9974,34880
9975,34880
9976,34816
9977,34688
9978,34560
9979,34432
9980,34368
9981,34112
9982,33856
9983,33600
9984,33408
9985,33280
9986,33216
9987,33280
9988,33408
9989,33472
9990,33536
9991,33664
9992,33728
9993,33856
9994,33856
9995,33920
9996,33920
9997,33984
9998,33984
9999,33920
10000,33920
10001,33920
10002,33856
10003,33792
10004,33792
10005,33856
10006,34048
10007,34496
10008,35072
10009,36032
10010,37120
10011,38464
10012,39104
10013,37952
10014,35776
10015,33472
10016,31616
10017,30656
10018,30208
10019,30208
10020,30656
10021,31424
10022,32384
10023,33280
10024,33984
10025,34560
10026,34880
10027,35008
10028,35008
10029,34944
10030,34816
10031,34688
10032,34496
10033,34368
10034,34304
10035,34240
10036,34176
10037,34112
10038,34176
10039,34176
10040,34176
10041,34112
10042,34176
10043,34176
10044,34176
10045,34176
10046,34240
10047,34240
10048,34240
10049,34240
10050,34304
10051,34368
10052,34368
10053,34368
10054,34368
10055,34432
10056,34432
10057,34432
10058,34432
10059,34496
10060,34496
10061,34432
10062,34432
10063,34496
10064,34496
10065,34496
10066,34560
10067,34560
10068,34560
10069,34496
10070,34368
10071,34432
10072,34432
10073,34432
10074,34432
10075,34432
10076,34432
10077,34496
10078,34496
10079,34496
10080,34496
10081,34432
10082,34432
10083,34368
10084,34304
10085,34176
10086,34112
10087,34048
10088,34048
10089,33984
10090,33984
10091,33984
10092,33984
10093,33984
10094,33984
10095,34048
10096,34048
10097,34112
10098,34048
10099,34048
10100,34048
10101,33984
10102,33920
10103,33920
10104,33984
10105,33984
10106,33984
10107,33920
10108,33856
10109,33920
10110,33920
10111,33920
10112,33920
10113,33984
10114,33920
10115,33856
10116,33856
10117,33920
10118,33920
10119,33856
10120,33856
10121,33920
10122,33920
10123,33920
10124,33856
10125,33856
10126,33792
10127,33728
10128,33728
10129,33728
10130,33856
10131,33920
10132,33920
10133,33984
10134,34112
10135,34112
10136,34112
10137,34112
10138,34176
10139,34240
10140,34432
10141,34624
10142,34880
10143,34944
10144,34944
10145,34816
10146,34816
10147,34752
10148,34560
10149,34368
10150,34176
10151,33920
10152,33664
10153,33408
10154,33280
10155,33216
10156,33216
10157,33280
10158,33344
10159,33472
10160,33536
10161,33536
10162,33600
10163,33728
10164,33728
10165,33792
10166,33856
10167,33920
10168,33984
10169,33920
10170,33856
10171,33792
10172,33792
10173,33728
10174,33792
10175,34048
10176,34496
10177,35072
10178,35840
10179,36864
10180,37952
10181,37760
10182,36352
10183,34432
10184,32704
10185,31680
10186,31104
10187,30912
10188,31040
10189,31424
10190,31936
10191,32512
10192,33216
10193,33792
10194,34240
10195,34496
10196,34624
10197,34560
10198,34496
10199,34432
10200,34304
10201,34240
10202,34112
10203,34048
10204,33984
10205,33984
10206,33920
10207,33856
10208,33792
10209,33856
10210,33856
10211,33856
10212,33856
10213,33920
10214,33920
10215,33984
10216,33984
10217,33984
10218,34048
10219,34112
10220,34112
10221,34176
10222,34176
10223,34176
10224,34176
10225,34176
10226,34240
10227,34304
10228,34240
10229,34240
10230,34240
10231,34304
10232,34240
10233,34176
10234,34176
10235,34176
10236,34112
10237,34112
10238,34176
10239,34240
10240,34240
10241,34240
10242,34304
10243,34304
10244,34304
10245,34240
10246,34240
10247,34240
10248,34240
10249,34240
10250,34304
10251,34304
10252,34176
10253,34112
10254,34048
10255,34048
10256,34048
10257,33920
10258,33920
10259,33984
10260,33984
10261,33984
10262,33920
10263,33920
10264,33984
10265,33984
10266,33984
10267,34048
10268,34176
10269,34176
10270,34112
10271,34048
10272,34048
10273,34048
10274,34048
10275,34112
10276,34112
10277,34048
10278,33984
10279,33984
10280,34048
10281,34112
10282,34112
10283,34112
10284,34112
10285,34048
10286,34048
10287,33984
10288,33984
10289,33984
10290,33920
10291,33920
10292,33984
10293,34048
10294,34176
10295,34176
10296,34240
10297,34304
10298,34304
10299,34240
10300,34368
10301,34624
10302,34816
10303,34880
10304,34880
10305,34816
10306,34688
10307,34560
10308,34432
10309,34304
10310,34176
10311,34048
10312,33856
10313,33664
10314,33536
10315,33344
10316,33280
10317,33280
10318,33344
10319,33408
10320,33472
10321,33600
10322,33728
10323,33792
10324,33792
10325,33728
10326,33792
10327,33792
10328,33792
10329,33856
10330,33856
10331,33856
10332,33728
10333,33728
10334,33856
10335,34048
10336,34432
10337,35072
10338,35968
10339,37120
10340,38336
10341,39680
10342,40000
10343,38976
10344,37184
10345,35520
10346,33984
10347,32768
10348,31808
10349,31168
10350,30976
10351,30912
10352,31168
10353,31616
10354,32128
10355,32704
10356,33152
10357,33536
10358,33792
10359,33984
10360,34112
10361,34112
10362,34112
10363,34112
10364,34112
10365,33984
10366,33856
10367,33792
10368,33792
10369,33728
10370,33728
10371,33664
10372,33728
10373,33728
10374,33728
10375,33728
10376,33728
10377,33728
10378,33664
10379,33664
10380,33664
10381,33728
10382,33728
10383,33664
10384,33664
10385,33664
10386,33600
10387,33600
10388,33600
10389,33664
10390,33664
10391,33600
10392,33600
10393,33536
10394,33536
10395,33536
10396,33536
10397,33600
10398,33536
10399,33536
10400,33536
10401,33664
10402,33664
10403,33728
10404,33728
10405,33792
10406,33920
10407,33920
10408,33984
10409,34048
10410,34112
10411,34176
10412,34112
10413,34176
10414,34176
10415,34176
10416,34112
10417,34048
10418,34048
10419,34048
10420,33984
10421,33984
10422,34048
10423,34048
10424,34048
10425,33984
10426,33984
10427,34048
10428,33984
10429,33984
10430,33920
10431,33920
10432,33984
10433,33984
10434,34048
10435,34112
10436,34112
10437,34112
10438,34112
10439,34176
10440,34176
10441,34176
10442,34240
10443,34240
10444,34304
10445,34368
10446,34368
10447,34432
10448,34432
10449,34496
10450,34624
10451,34816
10452,34944
10453,35008
10454,35008
10455,34944
10456,34944
10457,34816
10458,34688
10459,34560
10460,34432
10461,34304
10462,34048
10463,33792
10464,33664
10465,33600
10466,33536
10467,33472
10468,33472
10469,33472
10470,33536
10471,33664
10472,33792
10473,33920
10474,33984
10475,33984
10476,33984
10477,33984
10478,33984
10479,33984
10480,33984
10481,33984
10482,33984
10483,33920
10484,33984
10485,33984
10486,34112
10487,34368
10488,34816
10489,35456
10490,36224
10491,37184
10492,37952
10493,37440
10494,35904
10495,34112
10496,33024
10497,32384
10498,32000
10499,31872
10500,32000
10501,32064
10502,32320
10503,32640
10504,33088
10505,33600
10506,34048
10507,34368
10508,34560
10509,34624
10510,34624
10511,34624
10512,34496
10513,34432
10514,34304
10515,34240
10516,34176
10517,34112
10518,34176
10519,34176
10520,34176
10521,34112
10522,34112
10523,34112
10524,34240
10525,34240
10526,34304
10527,34304
10528,34240
10529,34176
10530,34176
10531,34240
10532,34304
10533,34368
10534,34432
10535,34432
10536,34496
10537,34432
10538,34432
10539,34432
10540,34496
10541,34496
10542,34496
10543,34496
10544,34560
10545,34560
10546,34560
10547,34496
10548,34496
10549,34432
10550,34432
10551,34432
10552,34496
10553,34496
10554,34496
10555,34496
10556,34496
10557,34432
10558,34368
10559,34432
10560,34432
10561,34368
10562,34304
10563,34240
10564,34176
10565,34176
10566,34048
10567,33984
10568,33984
10569,34048
10570,34048
10571,34048
10572,34112
10573,34112
10574,34112
10575,34048
10576,34048
10577,34048
10578,34048
10579,34112
10580,34112
10581,34240
10582,34240
10583,34304
10584,34304
10585,34368
10586,34368
10587,34368
10588,34432
10589,34496
10590,34560
10591,34560
10592,34560
10593,34688
10594,34816
10595,34944
10596,35008
10597,35072
10598,35008
10599,34816
10600,34688
10601,34560
10602,34560
10603,34496
10604,34432
10605,34368
10606,34176
10607,33920
10608,33600
10609,33408
10610,33344
10611,33344
10612,33344
10613,33408
10614,33536
10615,33600
10616,33664
10617,33728
10618,33856
10619,33920
10620,33984
10621,33984
10622,33984
10623,34048
10624,33984
10625,33920
10626,33856
10627,33856
10628,33856
10629,33984
10630,34176
10631,34816
10632,35328
10633,36160
10634,37184
10635,38464
10636,39808
10637,40576
10638,39872
10639,38208
10640,36352
10641,34560
10642,33024
10643,31808
10644,31040
10645,30656
10646,30656
10647,30976
10648,31552
10649,32128
10650,32704
10651,33216
10652,33728
10653,34048
10654,34176
10655,34304
10656,34368
10657,34304
10658,34240
10659,34112
10660,34048
10661,33984
10662,33920
10663,33856
10664,33856
10665,33792
10666,33792
10667,33792
10668,33792
10669,33856
10670,33920
10671,33856
10672,33856
10673,33856
10674,33792
10675,33792
10676,33856
10677,33856
10678,33920
10679,33920
10680,33856
10681,33856
10682,33856
10683,33792
10684,33792
10685,33792
10686,33792
10687,33792
10688,33728
10689,33728
10690,33792
10691,33728
10692,33728
10693,33728
10694,33728
10695,33728
10696,33728
10697,33792
10698,33856
10699,33920
10700,33984
10701,34048
10702,34112
10703,34176
10704,34240
10705,34304
10706,34368
10707,34368
10708,34304
10709,34304
10710,34304
10711,34240
10712,34176
10713,34176
10714,34112
10715,34112
10716,34048
10717,33984
10718,34048
10719,34112
10720,34112
10721,34112
10722,34112
10723,34112
10724,34176
10725,34176
10726,34176
10727,34176
10728,34176
10729,34176
10730,34304
10731,34432
10732,34560
10733,34560
10734,34560
10735,34560
10736,34624
10737,34688
10738,34880
10739,35008
10740,35136
10741,35072
10742,35008
10743,34880
10744,34816
10745,34752
10746,34688
10747,34624
10748,34560
10749,34368
10750,34048
10751,33792
10752,33664
10753,33536
10754,33472
10755,33536
10756,33536
10757,33600
10758,33664
10759,33728
10760,33856
10761,33920
10762,33984
10763,33984
10764,34048
10765,34112
10766,34176
10767,34176
10768,34176
10769,34176
10770,34112
10771,34048
10772,34112
10773,34176
10774,34240
10775,34560
10776,35008
10777,35648
10778,36608
10779,37760
10780,38976
10781,38848
10782,37248
10783,35072
10784,33088
10785,31744
10786,31040
10787,30656
10788,30784
10789,31296
10790,32064
10791,32896
10792,33664
10793,34304
10794,34880
10795,35200
10796,35200
10797,35072
10798,35008
10799,34880
10800,34752
10801,34624
10802,34496
10803,34368
10804,34304
10805,34240
10806,34240
10807,34240
10808,34304
10809,34304
10810,34304
10811,34304
10812,34304
10813,34240
10814,34304
10815,34368
10816,34368
10817,34368
10818,34432
10819,34496
10820,34560
10821,34560
10822,34560
10823,34560
10824,34624
10825,34560
10826,34560
10827,34624
10828,34624
10829,34624
10830,34624
10831,34624
10832,34688
10833,34624
10834,34560
10835,34560
10836,34624
10837,34624
10838,34624
10839,34624
10840,34624
10841,34624
10842,34624
10843,34624
10844,34688
10845,34688
10846,34624
10847,34624
10848,34624
10849,34560
10850,34432
10851,34368
10852,34304
10853,34240
10854,34112
10855,33984
10856,33984
10857,33984
10858,34048
10859,34048
10860,34048
10861,34048
10862,34048
10863,34048
10864,34112
10865,34176
10866,34176
10867,34176
10868,34240
10869,34304
10870,34304
10871,34176
10872,34176
10873,34240
10874,34304
10875,34368
10876,34432
10877,34496
10878,34560
10879,34496
10880,34432
10881,34432
10882,34560
10883,34688
10884,34880
10885,34944
10886,34944
10887,34880
10888,34688
10889,34688
10890,34624
10891,34560
10892,34368
10893,34240
10894,34048
10895,33792
10896,33536
10897,33344
10898,33280
10899,33344
10900,33344
10901,33408
10902,33472
10903,33536
10904,33600
10905,33664
10906,33728
10907,33856
10908,33920
10909,33920
10910,33920
10911,33984
10912,33920
10913,33920
10914,33920
10915,33984
10916,33920
10917,33920
10918,33856
10919,33856
10920,34112
10921,34624
10922,35392
10923,36544
10924,37952
