,ECG
0,33664
1,33792
2,33920
3,33920
4,33792
5,33600
6,33472
7,33536
8,33600
9,33600
10,33856
11,34304
12,34880
13,35712
14,36672
15,37952
16,38400
17,37312
18,35200
19,33152
20,31680
21,30848
22,30528
23,30528
24,30976
25,31680
26,32512
27,33280
28,33856
29,34304
30,34560
31,34688
32,34752
33,34752
34,34688
35,34560
36,34496
37,34496
38,34432
39,34304
40,34176
41,34048
42,33984
43,33984
44,33984
45,34112
46,34176
47,34176
48,34112
49,34112
50,34176
51,34176
52,34176
53,34304
54,34368
55,34368
56,34432
57,34496
58,34496
59,34432
60,34368
61,34304
62,34304
63,34432
64,34560
65,34624
66,34560
67,34560
68,34624
69,34752
70,34880
71,34816
72,34752
73,34688
74,34688
75,34688
76,34752
77,34816
78,34816
79,34560
80,34368
81,34176
82,34112
83,34048
84,33984
85,33920
86,33920
87,33792
88,33728
89,33664
90,33728
91,33792
92,33728
93,33600
94,33472
95,33408
96,33344
97,33472
98,33664
99,33792
100,33856
101,33856
102,33728
103,33728
104,33664
105,33664
106,33664
107,33728
108,33664
109,33728
110,33792
111,33792
112,33728
113,33664
114,33792
115,33792
116,33664
117,33536
118,33472
119,33536
120,33600
121,33600
122,33664
123,33728
124,33728
125,33664
126,33536
127,33600
128,33536
129,33600
130,33600
131,33664
132,33728
133,33664
134,33600
135,33536
136,33536
137,33536
138,33664
139,33792
140,33856
141,33792
142,33728
143,33600
144,33472
145,33472
146,33472
147,33536
148,33664
149,33664
150,33600
151,33600
152,33728
153,33856
154,33920
155,33920
156,33920
157,33920
158,33920
159,33984
160,34240
161,34432
162,34432
163,34240
164,33920
165,33792
166,33792
167,33792
168,33792
169,33792
170,33728
171,33600
172,33472
173,33280
174,33152
175,33088
176,33024
177,33024
178,33024
179,33152
180,33280
181,33408
182,33536
183,33536
184,33536
185,33472
186,33600
187,33664
188,33728
189,33792
190,33792
191,33664
192,33472
193,33344
194,33408
195,33472
196,33600
197,33920
198,34368
199,35072
200,35904
201,36864
202,37824
203,37504
204,35968
205,34112
206,32640
207,31680
208,31104
209,30912
210,30976
211,31296
212,31744
213,32320
214,32960
215,33600
216,34112
217,34432
218,34560
219,34624
220,34560
221,34432
222,34304
223,34176
224,34176
225,34176
226,33984
227,33856
228,33792
229,33792
230,33728
231,33664
232,33728
233,33792
234,33856
235,33856
236,33984
237,34048
238,34112
239,34112
240,34176
241,34112
242,34112
243,34176
244,34176
245,34176
246,34112
247,34112
248,34048
249,34112
250,34112
251,34176
252,34304
253,34304
254,34368
255,34368
256,34368
257,34432
258,34560
259,34624
260,34688
261,34688
262,34560
263,34368
264,34304
265,34368
266,34496
267,34432
268,34304
269,34048
270,33856
271,33664
272,33600
273,33664
274,33664
275,33664
276,33664
277,33664
278,33600
279,33472
280,33344
281,33280
282,33344
283,33344
284,33408
285,33472
286,33472
287,33472
288,33600
289,33728
290,33792
291,33728
292,33664
293,33664
294,33664
295,33664
296,33600
297,33536
298,33472
299,33536
300,33600
301,33728
302,33792
303,33728
304,33664
305,33664
306,33728
307,33792
308,33728
309,33664
310,33600
311,33600
312,33600
313,33664
314,33728
315,33856
316,33856
317,33728
318,33600
319,33600
320,33600
321,33600
322,33600
323,33728
324,33728
325,33728
326,33664
327,33792
328,33856
329,33856
330,33728
331,33664
332,33664
333,33728
334,33792
335,33856
336,33920
337,33920
338,33984
339,34176
340,34304
341,34368
342,34304
343,34240
344,34240
345,34240
346,34112
347,33920
348,33792
349,33728
350,33600
351,33408
352,33152
353,32896
354,32768
355,32832
356,32960
357,33216
358,33408
359,33472
360,33472
361,33536
362,33536
363,33600
364,33728
365,33856
366,33728
367,33536
368,33472
369,33472
370,33408
371,33472
372,33472
373,33472
374,33536
375,33536
376,33600
377,33792
378,34112
379,34560
380,35264
381,36160
382,37184
383,37696
384,36864
385,35328
386,33792
387,32576
388,32000
389,31744
390,31744
391,31872
392,31936
393,32064
394,32320
395,32768
396,33216
397,33664
398,33984
399,34304
400,34432
401,34496
402,34624
403,34560
404,34496
405,34304
406,34112
407,34048
408,33984
409,33920
410,33856
411,33920
412,33920
413,33920
414,33984
415,34112
416,34176
417,34240
418,34176
419,34048
420,33856
421,33856
422,33920
423,34048
424,34112
425,34112
426,34176
427,34304
428,34368
429,34368
430,34304
431,34304
432,34368
433,34432
434,34432
435,34496
436,34624
437,34688
438,34816
439,34816
440,34816
441,34688
442,34496
443,34432
444,34432
445,34432
446,34368
447,34368
448,34304
449,34112
450,33984
451,33920
452,33920
453,33856
454,33792
455,33728
456,33728
457,33728
458,33664
459,33600
460,33536
461,33536
462,33600
463,33600
464,33536
465,33472
466,33408
467,33472
468,33536
469,33664
470,33728
471,33728
472,33664
473,33664
474,33664
475,33728
476,33728
477,33792
478,33920
479,34048
480,34112
481,34048
482,33856
483,33664
484,33536
485,33536
486,33728
487,33856
488,33856
489,33792
490,33664
491,33536
492,33536
493,33600
494,33728
495,33728
496,33664
497,33600
498,33664
499,33728
500,33792
501,33856
502,33856
503,33856
504,33856
505,33856
506,33984
507,34112
508,34048
509,34048
510,34176
511,34304
512,34240
513,34112
514,34112
515,34240
516,34176
517,34048
518,33984
519,34048
520,34048
521,33984
522,33792
523,33664
524,33536
525,33344
526,33152
527,33088
528,33216
529,33280
530,33280
531,33344
532,33472
533,33536
534,33536
535,33664
536,33792
537,34048
538,33984
539,33792
540,33536
541,33408
542,33344
543,33344
544,33344
545,33344
546,33408
547,33536
548,33600
549,33728
550,33728
551,33920
552,34368
553,34816
554,35520
555,36352
556,37440
557,38016
558,37184
559,35392
560,33600
561,32384
562,31680
563,31424
564,31296
565,31488
566,31744
567,32256
568,32768
569,33280
570,33728
571,34112
572,34304
573,34432
574,34560
575,34560
576,34496
577,34432
578,34304
579,34112
580,33984
581,34048
582,34112
583,34176
584,34112
585,34112
586,34112
587,34176
588,34176
589,34176
590,34240
591,34240
592,34112
593,34048
594,34112
595,34176
596,34112
597,34176
598,34240
599,34240
600,34240
601,34176
602,34176
603,34304
604,34432
605,34560
606,34752
607,34752
608,34752
609,34624
610,34560
611,34560
612,34688
613,34688
614,34624
615,34560
616,34560
617,34560
618,34624
619,34624
620,34560
621,34432
622,34304
623,34176
624,34048
625,33984
626,33856
627,33856
628,33856
629,33728
630,33600
631,33600
632,33664
633,33664
634,33664
635,33600
636,33664
637,33664
638,33664
639,33664
640,33728
641,33728
642,33792
643,33792
644,33728
645,33600
646,33536
647,33472
648,33472
649,33600
650,33664
651,33728
652,33856
653,33856
654,33856
655,33792
656,33856
657,33984
658,34048
659,34048
660,33984
661,33920
662,33856
663,33792
664,33728
665,33664
666,33664
667,33664
668,33792
669,33920
670,33984
671,33856
672,33664
673,33664
674,33728
675,33792
676,33728
677,33792
678,33856
679,33856
680,33984
681,34048
682,34112
683,34048
684,34112
685,34112
686,34176
687,34368
688,34496
689,34496
690,34496
691,34368
692,34240
693,34112
694,34176
695,34176
696,34048
697,33792
698,33600
699,33472
700,33344
701,33216
702,33152
703,33216
704,33280
705,33344
706,33280
707,33344
708,33408
709,33600
710,33728
711,33856
712,33856
713,33792
714,33728
715,33728
716,33728
717,33792
718,33856
719,33920
720,33920
721,33728
722,33600
723,33664
724,33792
725,33920
726,34048
727,34304
728,34880
729,35712
730,36800
731,38080
732,38656
733,37568
734,35456
735,33344
736,31808
737,30976
738,30528
739,30464
740,30784
741,31424
742,32320
743,33088
744,33792
745,34368
746,34688
747,34816
748,34880
749,34944
750,34880
751,34688
752,34496
753,34304
754,34176
755,34048
756,33920
757,33920
758,33984
759,33984
760,33984
761,34112
762,34176
763,34176
764,34176
765,34240
766,34304
767,34240
768,34240
769,34176
770,34176
771,34112
772,34112
773,34112
774,34240
775,34432
776,34496
777,34560
778,34624
779,34560
780,34496
781,34560
782,34688
783,34816
784,34880
785,34880
786,34880
787,34752
788,34688
789,34688
790,34752
791,34688
792,34688
793,34560
794,34496
795,34432
796,34432
797,34496
798,34432
799,34304
800,34176
801,33984
802,33856
803,33792
804,33856
805,33792
806,33728
807,33664
808,33600
809,33472
810,33408
811,33408
812,33408
813,33408
814,33472
815,33472
816,33600
817,33664
818,33664
819,33728
820,33792
821,33856
822,33920
823,33920
824,33920
825,33920
826,33856
827,33728
828,33728
829,33728
830,33664
831,33536
832,33664
833,33792
834,33856
835,33664
836,33536
837,33472
838,33408
839,33536
840,33600
841,33664
842,33664
843,33600
844,33664
845,33792
846,33856
847,33728
848,33664
849,33600
850,33600
851,33600
852,33728
853,33792
854,33920
855,34048
856,34112
857,34112
858,34112
859,34048
860,33984
861,33856
862,33792
863,33856
864,34048
865,34368
866,34496
867,34496
868,34432
869,34304
870,34304
871,34240
872,34112
873,33984
874,33856
875,33728
876,33600
877,33600
878,33408
879,33216
880,32896
881,32832
882,32896
883,33024
884,33152
885,33344
886,33472
887,33536
888,33664
889,33728
890,33792
891,33856
892,33856
893,33792
894,33664
895,33728
896,33856
897,33920
898,33856
899,33664
900,33472
901,33344
902,33408
903,33792
904,34368
905,35136
906,36096
907,37312
908,38464
909,38080
910,36352
911,34176
912,31872
913,30912
914,30272
915,30080
916,30336
917,31104
918,31936
919,32896
920,33856
921,34496
922,34752
923,34752
924,34624
925,34496
926,34368
927,34304
928,34240
929,34112
930,33984
931,33920
932,33920
933,33984
934,33984
935,34048
936,34112
937,34112
938,34048
939,34048
940,34048
941,34048
942,34112
943,34112
944,34240
945,34432
946,34496
947,34432
948,34240
949,34112
950,34176
951,34368
952,34496
953,34432
954,34176
955,34048
956,34048
957,34176
958,34304
959,34368
960,34432
961,34560
962,34688
963,34816
964,34816
965,34752
966,34816
967,34816
968,34752
969,34624
970,34496
971,34432
972,34368
973,34304
974,34368
975,34432
976,34368
977,34176
978,33984
979,33856
980,33600
981,33408
982,33344
983,33344
984,33344
985,33344
986,33408
987,33472
988,33472
989,33472
990,33664
991,33856
992,33920
993,33792
994,33664
995,33536
996,33408
997,33280
998,33280
999,33344
1000,33472
1001,33472
1002,33600
1003,33664
1004,33728
1005,33600
1006,33408
1007,33408
1008,33536
1009,33536
1010,33472
1011,33536
1012,33600
1013,33600
1014,33536
1015,33536
1016,33600
1017,33600
1018,33536
1019,33472
1020,33536
1021,33472
1022,33472
1023,33408
1024,33408
1025,33408
1026,33408
1027,33408
1028,33408
1029,33472
1030,33472
1031,33472
1032,33472
1033,33600
1034,33728
1035,33856
1036,33856
1037,33920
1038,33984
1039,33856
1040,33600
1041,33472
1042,33536
1043,33536
1044,33472
1045,33536
1046,33728
1047,33920
1048,34176
1049,34432
1050,34432
1051,34112
1052,33856
1053,33664
1054,33728
1055,33728
1056,33728
1057,33792
1058,33728
1059,33536
1060,33280
1061,33088
1062,33024
1063,32960
1064,33024
1065,33088
1066,33216
1067,33280
1068,33280
1069,33280
1070,33280
1071,33280
1072,33216
1073,33280
1074,33344
1075,33408
1076,33472
1077,33472
1078,33472
1079,33472
1080,33408
1081,33344
1082,33344
1083,33344
1084,33408
1085,33600
1086,34048
1087,34496
1088,34944
1089,35520
1090,36352
1091,37376
1092,37312
1093,35968
1094,34240
1095,32704
1096,31616
1097,31040
1098,30912
1099,31040
1100,31360
1101,31744
1102,32320
1103,32960
1104,33536
1105,34048
1106,34432
1107,34624
1108,34624
1109,34432
1110,34240
1111,34112
1112,34048
1113,34048
1114,33984
1115,33920
1116,33856
1117,33856
1118,33664
1119,33600
1120,33536
1121,33664
1122,33792
1123,33792
1124,33856
1125,33920
1126,33920
1127,33920
1128,33856
1129,33856
1130,33856
1131,33856
1132,33920
1133,33920
1134,33984
1135,34048
1136,34176
1137,34304
1138,34304
1139,34240
1140,34240
1141,34240
1142,34304
1143,34304
1144,34368
1145,34432
1146,34496
1147,34432
1148,34496
1149,34496
1150,34432
1151,34368
1152,34240
1153,34176
1154,34240
1155,34176
1156,34112
1157,34048
1158,34048
1159,34048
1160,33984
1161,33792
1162,33728
1163,33728
1164,33664
1165,33600
1166,33536
1167,33408
1168,33344
1169,33408
1170,33472
1171,33536
1172,33536
1173,33536
1174,33536
1175,33536
1176,33472
1177,33472
1178,33600
1179,33728
1180,33728
1181,33664
1182,33664
1183,33664
1184,33664
1185,33600
1186,33536
1187,33536
1188,33600
1189,33728
1190,33856
1191,33920
1192,33920
1193,33792
1194,33664
1195,33536
1196,33472
1197,33344
1198,33344
1199,33472
1200,33600
1201,33600
1202,33664
1203,33792
1204,33856
1205,33920
1206,33792
1207,33728
1208,33664
1209,33728
1210,33728
1211,33728
1212,33664
1213,33600
1214,33600
1215,33728
1216,33856
1217,33984
1218,33920
1219,33856
1220,33920
1221,33984
1222,34048
1223,34112
1224,34176
1225,34240
1226,34304
1227,34112
1228,33984
1229,33856
1230,33728
1231,33600
1232,33472
1233,33344
1234,33216
1235,33152
1236,33152
1237,33216
1238,33344
1239,33408
1240,33408
1241,33344
1242,33216
1243,33152
1244,33216
1245,33344
1246,33536
1247,33536
1248,33536
1249,33536
1250,33536
1251,33600
1252,33664
1253,33536
1254,33472
1255,33408
1256,33472
1257,33536
1258,33472
1259,33408
1260,33600
1261,33920
1262,34560
1263,35392
1264,36288
1265,37248
1266,37312
1267,36096
1268,34432
1269,33152
1270,32320
1271,31936
1272,31680
1273,31680
1274,31744
1275,31936
1276,32192
1277,32576
1278,33088
1279,33536
1280,33920
1281,34304
1282,34560
1283,34688
1284,34560
1285,34432
1286,34304
1287,34112
1288,34048
1289,33920
1290,33920
1291,33920
1292,33856
1293,33664
1294,33600
1295,33664
1296,33792
1297,33856
1298,33856
1299,33856
1300,33920
1301,33920
1302,33984
1303,34112
1304,34240
1305,34240
1306,34240
1307,34240
1308,34304
1309,34368
1310,34368
1311,34304
1312,34240
1313,34240
1314,34240
1315,34240
1316,34304
1317,34432
1318,34496
1319,34496
1320,34432
1321,34368
1322,34240
1323,34176
1324,34176
1325,34240
1326,34368
1327,34432
1328,34432
1329,34368
1330,34304
1331,34240
1332,34176
1333,34112
1334,34048
1335,33984
1336,33984
1337,33920
1338,33856
1339,33728
1340,33536
1341,33536
1342,33600
1343,33600
1344,33408
1345,33280
1346,33280
1347,33344
1348,33408
1349,33536
1350,33664
1351,33728
1352,33664
1353,33664
1354,33664
1355,33664
1356,33664
1357,33664
1358,33728
1359,33792
1360,33856
1361,33856
1362,33984
1363,33984
1364,33920
1365,33920
1366,33920
1367,33920
1368,33856
1369,33728
1370,33728
1371,33728
1372,33664
1373,33728
1374,33792
1375,33856
1376,33920
1377,34048
1378,34048
1379,34112
1380,34112
1381,34048
1382,33920
1383,33920
1384,34048
1385,34240
1386,34368
1387,34432
1388,34496
1389,34368
1390,34304
1391,34368
1392,34432
1393,34304
1394,34048
1395,33728
1396,33344
1397,33024
1398,32832
1399,32832
1400,32960
1401,33152
1402,33280
1403,33344
1404,33472
1405,33536
1406,33536
1407,33536
1408,33600
1409,33664
1410,33792
1411,33792
1412,33792
1413,33664
1414,33600
1415,33536
1416,33600
1417,33664
1418,33728
1419,33664
1420,33600
1421,33536
1422,33600
1423,33664
1424,33856
1425,34304
1426,35008
1427,35776
1428,36736
1429,37696
1430,37440
1431,36096
1432,34432
1433,33024
1434,32192
1435,31744
1436,31552
1437,31744
1438,31872
1439,32192
1440,32512
1441,32896
1442,33280
1443,33600
1444,33984
1445,34176
1446,34304
1447,34368
1448,34368
1449,34368
1450,34368
1451,34304
1452,34176
1453,34112
1454,34048
1455,34112
1456,34112
1457,34048
1458,34112
1459,34112
1460,34112
1461,34112
1462,34112
1463,34048
1464,33920
1465,33920
1466,34048
1467,34176
1468,34240
1469,34112
1470,34048
1471,33984
1472,34048
1473,34240
1474,34304
1475,34432
1476,34496
1477,34560
1478,34560
1479,34624
1480,34560
1481,34432
1482,34432
1483,34560
1484,34688
1485,34752
1486,34752
1487,34688
1488,34560
1489,34432
1490,34304
1491,34304
1492,34304
1493,34240
1494,34176
1495,34176
1496,34176
1497,34112
1498,34048
1499,34048
1500,34048
1501,33856
1502,33664
1503,33536
1504,33408
1505,33408
1506,33408
1507,33472
1508,33600
1509,33664
1510,33728
1511,33664
1512,33600
1513,33600
1514,33600
1515,33728
1516,33792
1517,33792
1518,33664
1519,33536
1520,33536
1521,33600
1522,33664
1523,33664
1524,33728
1525,33792
1526,33792
1527,33792
1528,33792
1529,33792
1530,33792
1531,33792
1532,33792
1533,33856
1534,33792
1535,33728
1536,33728
1537,33728
1538,33792
1539,33856
1540,33856
1541,34048
1542,34176
1543,34176
1544,34112
1545,34112
1546,34112
1547,34176
1548,34240
1549,34304
1550,34432
1551,34432
1552,34304
1553,34112
1554,34048
1555,34112
1556,34112
1557,34048
1558,33920
1559,33728
1560,33536
1561,33344
1562,33152
1563,33088
1564,33088
1565,33088
1566,33280
1567,33536
1568,33600
1569,33600
1570,33536
1571,33600
1572,33664
1573,33664
1574,33536
1575,33536
1576,33600
1577,33728
1578,33728
1579,33664
1580,33536
1581,33472
1582,33472
1583,33536
1584,33664
1585,33728
1586,33792
1587,33984
1588,34368
1589,34880
1590,35648
1591,36544
1592,37696
1593,38080
1594,37056
1595,35264
1596,33472
1597,32192
1598,31424
1599,31040
1600,30976
1601,31232
1602,31680
1603,32192
1604,32832
1605,33472
1606,34048
1607,34368
1608,34432
1609,34432
1610,34368
1611,34304
1612,34368
1613,34304
1614,34240
1615,34176
1616,34112
1617,34048
1618,34048
1619,34048
1620,34112
1621,34176
1622,34112
1623,34048
1624,34048
1625,34048
1626,34112
1627,34112
1628,34112
1629,34048
1630,34112
1631,34176
1632,34240
1633,34304
1634,34240
1635,34304
1636,34368
1637,34368
1638,34368
1639,34432
1640,34560
1641,34752
1642,34752
1643,34688
1644,34624
1645,34624
1646,34560
1647,34496
1648,34432
1649,34432
1650,34560
1651,34624
1652,34624
1653,34624
1654,34624
1655,34688
1656,34496
1657,34368
1658,34304
1659,34176
1660,34112
1661,34112
1662,34048
1663,33920
1664,33856
1665,33856
1666,33856
1667,33728
1668,33536
1669,33408
1670,33344
1671,33408
1672,33536
1673,33664
1674,33664
1675,33728
1676,33664
1677,33600
1678,33536
1679,33536
1680,33600
1681,33728
1682,33728
1683,33792
1684,33728
1685,33792
1686,33856
1687,33920
1688,33984
1689,33984
1690,33984
1691,33984
1692,33920
1693,33792
1694,33600
1695,33536
1696,33600
1697,33664
1698,33728
1699,33792
1700,33856
1701,33984
1702,33984
1703,33920
1704,33856
1705,33856
1706,33856
1707,33920
1708,33984
1709,34112
1710,34112
1711,34112
1712,34048
1713,34176
1714,34368
1715,34432
1716,34496
1717,34432
1718,34368
1719,34304
1720,34304
1721,34240
1722,34240
1723,34112
1724,34112
1725,34112
1726,33984
1727,33792
1728,33536
1729,33344
1730,33216
1731,33024
1732,32960
1733,33024
1734,33152
1735,33280
1736,33472
1737,33600
1738,33728
1739,33728
1740,33728
1741,33728
1742,33728
1743,33728
1744,33728
1745,33728
1746,33792
1747,33856
1748,33856
1749,33792
1750,33792
1751,33856
1752,33856
1753,33792
1754,33856
1755,34240
1756,34880
1757,35712
1758,36672
1759,38016
1760,38464
1761,37376
1762,35392
1763,33344
1764,31744
1765,30720
1766,30272
1767,30336
1768,30784
1769,31552
1770,32448
1771,33280
1772,34048
1773,34496
1774,34688
1775,34816
1776,34816
1777,34752
1778,34624
1779,34432
1780,34304
1781,34176
1782,33984
1783,33984
1784,34048
1785,34176
1786,34176
1787,34048
1788,33984
1789,33920
1790,33984
1791,34112
1792,34240
1793,34304
1794,34176
1795,34176
1796,34176
1797,34240
1798,34240
1799,34240
1800,34240
1801,34240
1802,34304
1803,34304
1804,34368
1805,34496
1806,34624
1807,34624
1808,34624
1809,34624
1810,34624
1811,34752
1812,34816
1813,34880
1814,34880
1815,34752
1816,34560
1817,34496
1818,34496
1819,34496
1820,34496
1821,34560
1822,34560
1823,34560
1824,34432
1825,34304
1826,34240
1827,34176
1828,34112
1829,34048
1830,34048
1831,34048
1832,33920
1833,33728
1834,33536
1835,33408
1836,33408
1837,33472
1838,33600
1839,33664
1840,33728
1841,33728
1842,33664
1843,33664
1844,33664
1845,33664
1846,33728
1847,33728
1848,33664
1849,33600
1850,33664
1851,33792
1852,33792
1853,33792
1854,33728
1855,33728
1856,33664
1857,33664
1858,33664
1859,33728
1860,33728
1861,33792
1862,33856
1863,33984
1864,33984
1865,33856
1866,33792
1867,33728
1868,33728
1869,33792
1870,33856
1871,33728
1872,33600
1873,33600
1874,33600
1875,33600
1876,33600
1877,33536
1878,33600
1879,33728
1880,33920
1881,33984
1882,34112
1883,34112
1884,34176
1885,34240
1886,34304
1887,34368
1888,34496
1889,34496
1890,34496
1891,34368
1892,34304
1893,34240
1894,34112
1895,33920
1896,33664
1897,33408
1898,33344
1899,33088
1900,32896
1901,32832
1902,32832
1903,33024
1904,33280
1905,33472
1906,33664
1907,33792
1908,33856
1909,33728
1910,33600
1911,33536
1912,33600
1913,33536
1914,33600
1915,33536
1916,33536
1917,33536
1918,33536
1919,33536
1920,33536
1921,33472
1922,33472
1923,33408
1924,33600
1925,33920
1926,34432
1927,35264
1928,36288
1929,37312
1930,38272
1931,38016
1932,36480
1933,34304
1934,32256
1935,30848
1936,30208
1937,30080
1938,30336
1939,30848
1940,31680
1941,32512
1942,33408
1943,33472
1944,33984
1945,34496
1946,34816
1947,34752
1948,34560
1949,34432
1950,34368
1951,34304
1952,34112
1953,33984
1954,33856
1955,33856
1956,33856
1957,33856
1958,33792
1959,33856
1960,33792
1961,33856
1962,33920
1963,33920
1964,33856
1965,33920
1966,34048
1967,34176
1968,34112
1969,33984
1970,33984
1971,34048
1972,34112
1973,34048
1974,34176
1975,34048
1976,34112
1977,34112
1978,34112
1979,34176
1980,34304
1981,34432
1982,34496
1983,34496
1984,34432
1985,34368
1986,34368
1987,34432
1988,34496
1989,34496
1990,34432
1991,34368
1992,34176
1993,34048
1994,34048
1995,34112
1996,34176
1997,34112
1998,34048
1999,33984
2000,33856
2001,33728
2002,33600
2003,33536
2004,33472
2005,33536
2006,33536
2007,33536
2008,33472
2009,33344
2010,33216
2011,33152
2012,33216
2013,33344
2014,33536
2015,33664
2016,33792
2017,33728
2018,33664
2019,33600
2020,33536
2021,33472
2022,33472
2023,33472
2024,33600
2025,33664
2026,33664
2027,33664
2028,33664
2029,33664
2030,33664
2031,33600
2032,33536
2033,33600
2034,33664
2035,33728
2036,33728
2037,33728
2038,33600
2039,33472
2040,33408
2041,33344
2042,33344
2043,33408
2044,33472
2045,33600
2046,33664
2047,33600
2048,33536
2049,33536
2050,33600
2051,33664
2052,33728
2053,33792
2054,33792
2055,33792
2056,33728
2057,33600
2058,33664
2059,33792
2060,33920
2061,33984
2062,34176
2063,34368
2064,34304
2065,34176
2066,33984
2067,33856
2068,33792
2069,33728
2070,33664
2071,33664
2072,33600
2073,33536
2074,33408
2075,33216
2076,33024
2077,32960
2078,32960
2079,33088
2080,33216
2081,33344
2082,33344
2083,33280
2084,33216
2085,33152
2086,33280
2087,33344
2088,33472
2089,33536
2090,33600
2091,33600
2092,33664
2093,33664
2094,33600
2095,33472
2096,33408
2097,33280
2098,33216
2099,33344
2100,33792
2101,34368
2102,35072
2103,35776
2104,36608
2105,37312
2106,36800
2107,35328
2108,33920
2109,32640
2110,31744
2111,31360
2112,31232
2113,31296
2114,31488
2115,31872
2116,32448
2117,33088
2118,33600
2119,33920
2120,34112
2121,34304
2122,34368
2123,34304
2124,34176
2125,34112
2126,34112
2127,34048
2128,33920
2129,33920
2130,33856
2131,33920
2132,33920
2133,33856
2134,33856
2135,33856
2136,33792
2137,33856
2138,33920
2139,33920
2140,33856
2141,33792
2142,33792
2143,33920
2144,33984
2145,34112
2146,34176
2147,34176
2148,34176
2149,34176
2150,34176
2151,34176
2152,34176
2153,34176
2154,34240
2155,34432
2156,34496
2157,34496
2158,34496
2159,34432
2160,34368
2161,34304
2162,34240
2163,34240
2164,34304
2165,34304
2166,34240
2167,34240
2168,34240
2169,34240
2170,34240
2171,34176
2172,34048
2173,33920
2174,33856
2175,33792
2176,33792
2177,33856
2178,33728
2179,33536
2180,33408
2181,33344
2182,33344
2183,33408
2184,33536
2185,33536
2186,33472
2187,33408
2188,33344
2189,33344
2190,33472
2191,33536
2192,33664
2193,33664
2194,33600
2195,33600
2196,33728
2197,33792
2198,33792
2199,33792
2200,33728
2201,33664
2202,33600
2203,33664
2204,33728
2205,33728
2206,33728
2207,33728
2208,33664
2209,33600
2210,33536
2211,33472
2212,33600
2213,33728
2214,33856
2215,33920
2216,33856
2217,33728
2218,33664
2219,33600
2220,33728
2221,33792
2222,33856
2223,33856
2224,33856
2225,33856
2226,33920
2227,34112
2228,34176
2229,34176
2230,34176
2231,34176
2232,34240
2233,34240
2234,34112
2235,33984
2236,33920
2237,33856
2238,33856
2239,33856
2240,33856
2241,33664
2242,33536
2243,33408
2244,33280
2245,33216
2246,33152
2247,33152
2248,33216
2249,33344
2250,33408
2251,33408
2252,33408
2253,33536
2254,33728
2255,33792
2256,33664
2257,33536
2258,33408
2259,33408
2260,33472
2261,33408
2262,33408
2263,33472
2264,33600
2265,33664
2266,33728
2267,33664
2268,33664
2269,33792
2270,34112
2271,34816
2272,35648
2273,36544
2274,37440
2275,37184
2276,35904
2277,34304
2278,33024
2279,32320
2280,32000
2281,31808
2282,31744
2283,31808
2284,32064
2285,32448
2286,32960
2287,33472
2288,33792
2289,34048
2290,34176
2291,34304
2292,34368
2293,34368
2294,34304
2295,34304
2296,34304
2297,34240
2298,34048
2299,33856
2300,33856
2301,33856
2302,33856
2303,33856
2304,33792
2305,33856
2306,33920
2307,33984
2308,34048
2309,34112
2310,34048
2311,34048
2312,33984
2313,33984
2314,34048
2315,34240
2316,34368
2317,34368
2318,34368
2319,34368
2320,34368
2321,34432
2322,34432
2323,34368
2324,34368
2325,34368
2326,34432
2327,34368
2328,34368
2329,34432
2330,34496
2331,34560
2332,34688
2333,34688
2334,34624
2335,34560
2336,34560
2337,34496
2338,34304
2339,34176
2340,34048
2341,33984
2342,33920
2343,33792
2344,33664
2345,33664
2346,33664
2347,33664
2348,33600
2349,33600
2350,33664
2351,33792
2352,33792
2353,33728
2354,33600
2355,33536
2356,33536
2357,33536
2358,33664
2359,33728
2360,33792
2361,33792
2362,33728
2363,33792
2364,33792
2365,33792
2366,33728
2367,33664
2368,33664
2369,33600
2370,33664
2371,33792
2372,33856
2373,33856
2374,33856
2375,33856
2376,33856
2377,33856
2378,33792
2379,33920
2380,33984
2381,33920
2382,33792
2383,33792
2384,33792
2385,33856
2386,33920
2387,34048
2388,34176
2389,34240
2390,34368
2391,34560
2392,34560
2393,34496
2394,34368
2395,34304
2396,34240
2397,34240
2398,34240
2399,34112
2400,34048
2401,33984
2402,33856
2403,33664
2404,33472
2405,33280
2406,33088
2407,33024
2408,33024
2409,33088
2410,33152
2411,33280
2412,33472
2413,33600
2414,33728
2415,33792
2416,33728
2417,33728
2418,33728
2419,33792
2420,33792
2421,33792
2422,33664
2423,33536
2424,33536
2425,33600
2426,33600
2427,33664
2428,33728
2429,33792
2430,33920
2431,34176
2432,34624
2433,35200
2434,35968
2435,36992
2436,37696
2437,37056
2438,35648
2439,34048
2440,32768
2441,32064
2442,31616
2443,31424
2444,31488
2445,31616
2446,32064
2447,32576
2448,32960
2449,33408
2450,33920
2451,34368
2452,34624
2453,34560
2454,34496
2455,34368
2456,34304
2457,34240
2458,34176
2459,34112
2460,34048
2461,33984
2462,33920
2463,33920
2464,33920
2465,33984
2466,33984
2467,34048
2468,33984
2469,33920
2470,33920
2471,34048
2472,34112
2473,34176
2474,34304
2475,34368
2476,34304
2477,34176
2478,34048
2479,34048
2480,34176
2481,34304
2482,34432
2483,34560
2484,34496
2485,34432
2486,34368
2487,34304
2488,34304
2489,34368
2490,34432
2491,34496
2492,34560
2493,34560
2494,34624
2495,34560
2496,34496
2497,34432
2498,34368
2499,34304
2500,34304
2501,34240
2502,34176
2503,34112
2504,34176
2505,34176
2506,33920
2507,33664
2508,33472
2509,33408
2510,33344
2511,33408
2512,33536
2513,33600
2514,33664
2515,33664
2516,33664
2517,33600
2518,33600
2519,33536
2520,33536
2521,33600
2522,33664
2523,33664
2524,33664
2525,33664
2526,33664
2527,33600
2528,33600
2529,33664
2530,33792
2531,33856
2532,33792
2533,33792
2534,33856
2535,33984
2536,33984
2537,33920
2538,33856
2539,33792
2540,33792
2541,33792
2542,33856
2543,33856
2544,33856
2545,33984
2546,34048
2547,33984
2548,33856
2549,33792
2550,33920
2551,33984
2552,34112
2553,34176
2554,34240
2555,34368
2556,34496
2557,34496
2558,34432
2559,34304
2560,34176
2561,34048
2562,33984
2563,33984
2564,33920
2565,33728
2566,33536
2567,33408
2568,33280
2569,33280
2570,33280
2571,33280
2572,33280
2573,33216
2574,33280
2575,33344
2576,33472
2577,33600
2578,33664
2579,33792
2580,33856
2581,33792
2582,33728
2583,33600
2584,33600
2585,33600
2586,33536
2587,33536
2588,33600
2589,33600
2590,33664
2591,33792
2592,33984
2593,34368
2594,34816
2595,35264
2596,35840
2597,36544
2598,37568
2599,37760
2600,36736
2601,35072
2602,33472
2603,32192
2604,31424
2605,31040
2606,30976
2607,31232
2608,31680
2609,32320
2610,32960
2611,33600
2612,34112
2613,34496
2614,34688
2615,34688
2616,34624
2617,34560
2618,34496
2619,34368
2620,34176
2621,34112
2622,34048
2623,33984
2624,33920
2625,33984
2626,34112
2627,34176
2628,34240
2629,34304
2630,34240
2631,34112
2632,33984
2633,33920
2634,33984
2635,33984
2636,34048
2637,34112
2638,34240
2639,34368
2640,34368
2641,34432
2642,34432
2643,34496
2644,34496
2645,34560
2646,34624
2647,34688
2648,34688
2649,34624
2650,34560
2651,34560
2652,34560
2653,34560
2654,34560
2655,34560
2656,34560
2657,34496
2658,34432
2659,34368
2660,34368
2661,34368
2662,34432
2663,34496
2664,34496
2665,34368
2666,34240
2667,34112
2668,33920
2669,33792
2670,33664
2671,33664
2672,33664
2673,33664
2674,33600
2675,33536
2676,33536
2677,33600
2678,33664
2679,33728
2680,33856
2681,33920
2682,33856
2683,33792
2684,33728
2685,33728
2686,33664
2687,33664
2688,33728
2689,33792
2690,33856
2691,33856
2692,33792
2693,33664
2694,33536
2695,33536
2696,33600
2697,33664
2698,33664
2699,33728
2700,33792
2701,33920
2702,33984
2703,33984
2704,34048
2705,33984
2706,33920
2707,33792
2708,33728
2709,33728
2710,33728
2711,33792
2712,33920
2713,33984
2714,33984
2715,33856
2716,33856
2717,33920
2718,34112
2719,34176
2720,34112
2721,34048
2722,34112
2723,34240
2724,34432
2725,34496
2726,34432
2727,34368
2728,34304
2729,34240
2730,34176
2731,34112
2732,34048
2733,33920
2734,33792
2735,33536
2736,33280
2737,33088
2738,33088
2739,33152
2740,33216
2741,33280
2742,33344
2743,33408
2744,33600
2745,33792
2746,33920
2747,33856
2748,33728
2749,33600
2750,33536
2751,33600
2752,33664
2753,33664
2754,33728
2755,33856
2756,33920
2757,33856
2758,33792
2759,33728
2760,33792
2761,33792
2762,33984
2763,34304
2764,34880
2765,35712
2766,36672
2767,37760
2768,38208
2769,37312
2770,35584
2771,33664
2772,32192
2773,31296
2774,30784
2775,30656
2776,30976
2777,31488
2778,32192
2779,32896
2780,33536
2781,34176
2782,34560
2783,34752
2784,34816
2785,34752
2786,34624
2787,34560
2788,34560
2789,34496
2790,34432
2791,34368
2792,34304
2793,34176
2794,34048
2795,33984
2796,34048
2797,34112
2798,34048
2799,33984
2800,34048
2801,34176
2802,34240
2803,34176
2804,34112
2805,34112
2806,34176
2807,34240
2808,34304
2809,34368
2810,34432
2811,34496
2812,34560
2813,34560
2814,34560
2815,34560
2816,34496
2817,34560
2818,34624
2819,34688
2820,34752
2821,34816
2822,34816
2823,34816
2824,34688
2825,34624
2826,34624
2827,34688
2828,34688
2829,34688
2830,34624
2831,34624
2832,34560
2833,34496
2834,34432
2835,34368
2836,34304
2837,34176
2838,34048
2839,33920
2840,33856
2841,33792
2842,33792
2843,33792
2844,33728
2845,33600
2846,33472
2847,33536
2848,33536
2849,33600
2850,33728
2851,33920
2852,33984
2853,33984
2854,33856
2855,33792
2856,33728
2857,33664
2858,33728
2859,33792
2860,33920
2861,33984
2862,33856
2863,33856
2864,33920
2865,33984
2866,33984
2867,33984
2868,33920
2869,33792
2870,33728
2871,33728
2872,33792
2873,33792
2874,33792
2875,33856
2876,33856
2877,33856
2878,33856
2879,33856
2880,33920
2881,33984
2882,33920
2883,33856
2884,33984
2885,34048
2886,34112
2887,34048
2888,33856
2889,33728
2890,33664
2891,33728
2892,33984
2893,34048
2894,34112
2895,34112
2896,34112
2897,34176
2898,34240
2899,34368
2900,34496
2901,34560
2902,34560
2903,34496
2904,34496
2905,34560
2906,34688
2907,34624
2908,34432
2909,33984
2910,33600
2911,33280
2912,33024
2913,32960
2914,32896
2915,32960
2916,33088
2917,33280
2918,33536
2919,33600
2920,33664
2921,33664
2922,33792
2923,33856
2924,33984
2925,34048
2926,34048
2927,33984
2928,33920
2929,33728
2930,33664
2931,33600
2932,33536
2933,33472
2934,33472
2935,33600
2936,33728
2937,33984
2938,34432
2939,35008
2940,35776
2941,36800
2942,38080
2943,38912
2944,38080
2945,35968
2946,33600
2947,31744
2948,30592
2949,30080
2950,29952
2951,30336
2952,31360
2953,32064
2954,32960
2955,33792
2956,34304
2957,34688
2958,35008
2959,35200
2960,35072
2961,34752
2962,34368
2963,34176
2964,34112
2965,34112
2966,34176
2967,34176
2968,34048
2969,33920
2970,33792
2971,33792
2972,33856
2973,33984
2974,33984
2975,34112
2976,34304
2977,34368
2978,34304
2979,34176
2980,34112
2981,34112
2982,33984
2983,33920
2984,33856
2985,33984
2986,34112
2987,34240
2988,34432
2989,34560
2990,34560
2991,34432
2992,34368
2993,34432
2994,34432
2995,34496
2996,34560
2997,34688
2998,34688
2999,34688
3000,34624
3001,34560
3002,34496
3003,34368
3004,34368
3005,34432
3006,34432
3007,34368
3008,34368
3009,34304
3010,34240
3011,34048
3012,33856
3013,33728
3014,33600
3015,33536
3016,33472
3017,33472
3018,33600
3019,33600
3020,33600
3021,33664
3022,33728
3023,33664
3024,33536
3025,33408
3026,33344
3027,33536
3028,33600
3029,33664
3030,33728
3031,33664
3032,33664
3033,33728
3034,33728
3035,33664
3036,33600
3037,33600
3038,33664
3039,33664
3040,33728
3041,33664
3042,33728
3043,33856
3044,33792
3045,33664
3046,33600
3047,33600
3048,33664
3049,33792
3050,33856
3051,33792
3052,33792
3053,33792
3054,33728
3055,33600
3056,33472
3057,33472
3058,33472
3059,33536
3060,33600
3061,33664
3062,33664
3063,33664
3064,33664
3065,33664
3066,33664
3067,33600
3068,33664
3069,33664
3070,33728
3071,33792
3072,33920
3073,33984
3074,33984
3075,33856
3076,33792
3077,33792
3078,33984
3079,34240
3080,34432
3081,34432
3082,34304
3083,34048
3084,33984
3085,33920
3086,33920
3087,33856
3088,33920
3089,33856
3090,33728
3091,33536
3092,33280
3093,33152
3094,33088
3095,33088
3096,33088
3097,33152
3098,33344
3099,33472
3100,33600
3101,33664
3102,33536
3103,33408
3104,33344
3105,33408
3106,33536
3107,33664
3108,33728
3109,33728
3110,33664
3111,33472
3112,33344
3113,33344
3114,33408
3115,33472
3116,33600
3117,34240
3118,34688
3119,35520
3120,36416
3121,37440
3122,37824
3123,36992
3124,35264
3125,33472
3126,32192
3127,31488
3128,31168
3129,31104
3130,31232
3131,31552
3132,32256
3133,32640
3134,33152
3135,33728
3136,34176
3137,34496
3138,34560
3139,34496
3140,34304
3141,34176
3142,34048
3143,33984
3144,33920
3145,33856
3146,33792
3147,33792
3148,33792
3149,33856
3150,33856
3151,33920
3152,33984
3153,33984
3154,33984
3155,33984
3156,33920
3157,33920
3158,33920
3159,33920
3160,33984
3161,34048
3162,34048
3163,34048
3164,34176
3165,34176
3166,34240
3167,34368
3168,34688
3169,34880
3170,34688
3171,34432
3172,34304
3173,34176
3174,34048
3175,33920
3176,33920
3177,34048
3178,34112
3179,34176
3180,34240
3181,34368
3182,34432
3183,34432
3184,34432
3185,34496
3186,34432
3187,34368
3188,34368
3189,34304
3190,34240
3191,34048
3192,33920
3193,33856
3194,33792
3195,33664
3196,33536
3197,33472
3198,33536
3199,33600
3200,33536
3201,33536
3202,33536
3203,33600
3204,33600
3205,33728
3206,33856
3207,33792
3208,33728
3209,33600
3210,33600
3211,33600
3212,33664
3213,33664
3214,33728
3215,33728
3216,33728
3217,33728
3218,33792
3219,33856
3220,33856
3221,33984
3222,33984
3223,33920
3224,33856
3225,33920
3226,34048
3227,34112
3228,33920
3229,33600
3230,33408
3231,33408
3232,33472
3233,33536
3234,33600
3235,33664
3236,33728
3237,33792
3238,33792
3239,33856
3240,33792
3241,33792
3242,33920
3243,33984
3244,34112
3245,34176
3246,34176
3247,34048
3248,33920
3249,33792
3250,33856
3251,33984
3252,34112
3253,34176
3254,34240
3255,34304
3256,34304
3257,34176
3258,34048
3259,33984
3260,33984
3261,33920
3262,33792
3263,33600
3264,33344
3265,33216
3266,33152
3267,33408
3268,33536
3269,33536
3270,33280
3271,33152
3272,33152
3273,33280
3274,33408
3275,33536
3276,33600
3277,33600
3278,33600
3279,33600
3280,33600
3281,33600
3282,33600
3283,33536
3284,33536
3285,33536
3286,33600
3287,33664
3288,33664
3289,33728
3290,33920
3291,34368
3292,35008
3293,35712
3294,36544
3295,37312
3296,37312
3297,36096
3298,34560
3299,33152
3300,32320
3301,31936
3302,31680
3303,31616
3304,31680
3305,31936
3306,32256
3307,32768
3308,33216
3309,33600
3310,33920
3311,34176
3312,34368
3313,34368
3314,34368
3315,34432
3316,34368
3317,34240
3318,34112
3319,34048
3320,34048
3321,34048
3322,34112
3323,34112
3324,34048
3325,33920
3326,33856
3327,33792
3328,33792
3329,33728
3330,33856
3331,33984
3332,34112
3333,34240
3334,34176
3335,34112
3336,34048
3337,34048
3338,34048
3339,34112
3340,34240
3341,34240
3342,34240
3343,34240
3344,34240
3345,34368
3346,34432
3347,34496
3348,34560
3349,34624
3350,34624
3351,34624
3352,34752
3353,34752
3354,34624
3355,34432
3356,34304
3357,34176
3358,34112
3359,34112
3360,34176
3361,34240
3362,34176
3363,34176
3364,34240
3365,34240
3366,34048
3367,33792
3368,33600
3369,33600
3370,33536
3371,33472
3372,33472
3373,33472
3374,33472
3375,33536
3376,33664
3377,33856
3378,33920
3379,33920
3380,33792
3381,33664
3382,33600
3383,33600
3384,33600
3385,33664
3386,33728
3387,33792
3388,33792
3389,33792
3390,33856
3391,33920
3392,33920
3393,33920
3394,33920
3395,33856
3396,33856
3397,33856
3398,33920
3399,33920
3400,33920
3401,33856
3402,33856
3403,33792
3404,33792
3405,33856
3406,33920
3407,33984
3408,33920
3409,33856
3410,33792
3411,33856
3412,33856
3413,33792
3414,33856
3415,33920
3416,33984
3417,34176
3418,34176
3419,34240
3420,34368
3421,34496
3422,34624
3423,34624
3424,34560
3425,34496
3426,34496
3427,34368
3428,34240
3429,34112
3430,34048
3431,33984
3432,33728
3433,33344
3434,33088
3435,32960
3436,33024
3437,33152
3438,33216
3439,33280
3440,33408
3441,33536
3442,33664
3443,33792
3444,33920
3445,33920
3446,33856
3447,33856
3448,33856
3449,33792
3450,33664
3451,33600
3452,33664
3453,33792
3454,33792
3455,33856
3456,33856
3457,33856
3458,33984
3459,34176
3460,34560
3461,35136
3462,35840
3463,36672
3464,37632
3465,37632
3466,36352
3467,34688
3468,33216
3469,32256
3470,31616
3471,31232
3472,31168
3473,31360
3474,31744
3475,32320
3476,33024
3477,33600
3478,34112
3479,34432
3480,34688
3481,34880
3482,34944
3483,34816
3484,34624
3485,34432
3486,34304
3487,34176
3488,34048
3489,33984
3490,33984
3491,33984
3492,34112
3493,34176
3494,34112
3495,34112
3496,34048
3497,34048
3498,33984
3499,33984
3500,34048
3501,34048
3502,34048
3503,34048
3504,34112
3505,34240
3506,34304
3507,34368
3508,34432
3509,34496
3510,34560
3511,34560
3512,34560
3513,34560
3514,34560
3515,34496
3516,34496
3517,34496
3518,34560
3519,34688
3520,34624
3521,34432
3522,34368
3523,34368
3524,34368
3525,34368
3526,34432
3527,34496
3528,34496
3529,34432
3530,34432
3531,34432
3532,34368
3533,34304
3534,34240
3535,34112
3536,33920
3537,33664
3538,33472
3539,33408
3540,33408
3541,33472
3542,33536
3543,33600
3544,33664
3545,33664
3546,33664
3547,33600
3548,33664
3549,33664
3550,33728
3551,33728
3552,33792
3553,33920
3554,33984
3555,33984
3556,33856
3557,33856
3558,33792
3559,33792
3560,33728
3561,33792
3562,33920
3563,33984
3564,33984
3565,33920
3566,33856
3567,33728
3568,33664
3569,33728
3570,33728
3571,33728
3572,33792
3573,33920
3574,34048
3575,34112
3576,34048
3577,34048
3578,33984
3579,33984
3580,33984
3581,33920
3582,33984
3583,33984
3584,33984
3585,34112
3586,34304
3587,34560
3588,34688
3589,34624
3590,34432
3591,34240
3592,34176
3593,34112
3594,34176
3595,34176
3596,34112
3597,34048
3598,33856
3599,33600
3600,33344
3601,33216
3602,33152
3603,33344
3604,33536
3605,33664
3606,33600
3607,33472
3608,33408
3609,33408
3610,33536
3611,33664
3612,33664
3613,33728
3614,33664
3615,33728
3616,33792
3617,33856
3618,33984
3619,34048
3620,33984
3621,33792
3622,33664
3623,33664
3624,33664
3625,33856
3626,34240
3627,34880
3628,35776
3629,36736
3630,37888
3631,38656
3632,37760
3633,35840
3634,33664
3635,31936
3636,30912
3637,30400
3638,30400
3639,30784
3640,31552
3641,32448
3642,33152
3643,33728
3644,34176
3645,34496
3646,34752
3647,34752
3648,34752
3649,34688
3650,34560
3651,34368
3652,34240
3653,34240
3654,34304
3655,34304
3656,34240
3657,34176
3658,34176
3659,34176
3660,34176
3661,34176
3662,34240
3663,34176
3664,34112
3665,34048
3666,34048
3667,34048
3668,34112
3669,34176
3670,34240
3671,34176
3672,34112
3673,34176
3674,34368
3675,34496
3676,34496
3677,34432
3678,34560
3679,34688
3680,34816
3681,34816
3682,34688
3683,34560
3684,34496
3685,34432
3686,34496
3687,34624
3688,34688
3689,34688
3690,34688
3691,34624
3692,34624
3693,34560
3694,34496
3695,34496
3696,34432
3697,34368
3698,34304
3699,34240
3700,34112
3701,34048
3702,33920
3703,33792
3704,33728
3705,33664
3706,33664
3707,33728
3708,33728
3709,33664
3710,33600
3711,33600
3712,33600
3713,33664
3714,33664
3715,33664
3716,33664
3717,33664
3718,33728
3719,33792
3720,33728
3721,33856
3722,33792
3723,33728
3724,33728
3725,33792
3726,33792
3727,33856
3728,33856
3729,33792
3730,33728
3731,33664
3732,33664
3733,33600
3734,33664
3735,33792
3736,33856
3737,33856
3738,33792
3739,33728
3740,33728
3741,33728
3742,33664
3743,33600
3744,33600
3745,33536
3746,33600
3747,33856
3748,33856
3749,34176
3750,34176
3751,34112
3752,34048
3753,34112
3754,34176
3755,34304
3756,34432
3757,34496
3758,34432
3759,34368
3760,34304
3761,34240
3762,34240
3763,34176
3764,34240
3765,33984
3766,33472
3767,33088
3768,32960
3769,32896
3770,32960
3771,33088
3772,33216
3773,33344
3774,33408
3775,33536
3776,33664
3777,33792
3778,33792
3779,33728
3780,33664
3781,33856
3782,34048
3783,33920
3784,33600
3785,33344
3786,33216
3787,33280
3788,33344
3789,33472
3790,33600
3791,33664
3792,33856
3793,34176
3794,34624
3795,35264
3796,36096
3797,37184
3798,38208
3799,37888
3800,36224
3801,34240
3802,32448
3803,31296
3804,30464
3805,30080
3806,30144
3807,30784
3808,30848
3809,32512
3810,33408
3811,34048
3812,34432
3813,34688
3814,34752
3815,34688
3816,34560
3817,34496
3818,34432
3819,34304
3820,34176
3821,33984
3822,33920
3823,33856
3824,33856
3825,33856
3826,33920
3827,33984
3828,33984
3829,33920
3830,33792
3831,33792
3832,33792
3833,33728
3834,33728
3835,33792
3836,33920
3837,34048
3838,34048
3839,34112
3840,34112
3841,34112
3842,34176
3843,34304
3844,34432
3845,34432
3846,34304
3847,34176
3848,34112
3849,34176
3850,34240
3851,34304
3852,34368
3853,34368
3854,34304
3855,34368
3856,34368
3857,34304
3858,34240
3859,34176
3860,34176
3861,34240
3862,34304
3863,34304
3864,34304
3865,34240
3866,34112
3867,33920
3868,33728
3869,33600
3870,33536
3871,33600
3872,33664
3873,33664
3874,33536
3875,33408
3876,33280
3877,33216
3878,33152
3879,33152
3880,33216
3881,33280
3882,33408
3883,33536
3884,33664
3885,33792
3886,33728
3887,33600
3888,33536
3889,33536
3890,33600
3891,33664
3892,33664
3893,33728
3894,33792
3895,33728
3896,33600
3897,33472
3898,33408
3899,33472
3900,33472
3901,33536
3902,33600
3903,33728
3904,33728
3905,33792
3906,33792
3907,33728
3908,33664
3909,33472
3910,33472
3911,33600
3912,33664
3913,33664
3914,33664
3915,33728
3916,33728
3917,33728
3918,33664
3919,33664
3920,33664
3921,33792
3922,34048
3923,34304
3924,34304
3925,34304
3926,34240
3927,34176
3928,34112
3929,34048
3930,33856
3931,33664
3932,33472
3933,33280
3934,33216
3935,33152
3936,33088
3937,33088
3938,33088
3939,33152
3940,33280
3941,33280
3942,33344
3943,33408
3944,33472
3945,33408
3946,33344
3947,33280
3948,33408
3949,33536
3950,33600
3951,33600
3952,33536
3953,33536
3954,33536
3955,33536
3956,33408
3957,33280
3958,33280
3959,33280
3960,33536
3961,33984
3962,34624
3963,35392
3964,36352
3965,37312
3966,37248
3967,35904
3968,34240
3969,33088
3970,32256
3971,31744
3972,31488
3973,31424
3974,31488
3975,31744
3976,32128
3977,32768
3978,33280
3979,33664
3980,34048
3981,34368
3982,34432
3983,34368
3984,34240
3985,34240
3986,34304
3987,34240
3988,34048
3989,33920
3990,33792
3991,33728
3992,33664
3993,33664
3994,33728
3995,33792
3996,33728
3997,33728
3998,33728
3999,33728
4000,33792
4001,33856
4002,34048
4003,34176
4004,34240
4005,34112
4006,33984
4007,33920
4008,33984
4009,34048
4010,34112
4011,34176
4012,34176
4013,34112
4014,34176
4015,34240
4016,34368
4017,34432
4018,34368
4019,34304
4020,34304
4021,34304
4022,34304
4023,34240
4024,34240
4025,34240
4026,34304
4027,34304
4028,34240
4029,34240
4030,34176
4031,34176
4032,34176
4033,34176
4034,34112
4035,34048
4036,33920
4037,33792
4038,33728
4039,33728
4040,33728
4041,33536
4042,33408
4043,33280
4044,33280
4045,33280
4046,33344
4047,33408
4048,33600
4049,33664
4050,33664
4051,33664
4052,33792
4053,33920
4054,33856
4055,33728
4056,33664
4057,33600
4058,33600
4059,33728
4060,33792
4061,33792
4062,33728
4063,33728
4064,33792
4065,33792
4066,33664
4067,33664
4068,33792
4069,33856
4070,33792
4071,33664
4072,33664
4073,33728
4074,33792
4075,33856
4076,33920
4077,33920
4078,33984
4079,34112
4080,34304
4081,34496
4082,34560
4083,34560
4084,34368
4085,34240
4086,34240
4087,34112
4088,33984
4089,33856
4090,33728
4091,33600
4092,33344
4093,33152
4094,33088
4095,33088
4096,33024
4097,33024
4098,32960
4099,33024
4100,33152
4101,33344
4102,33536
4103,33600
4104,33600
4105,33536
4106,33600
4107,33600
4108,33664
4109,33664
4110,33728
4111,33728
4112,33664
4113,33472
4114,33344
4115,33344
4116,33344
4117,33344
4118,33472
4119,33792
4120,34112
4121,34624
4122,35264
4123,36160
4124,37120
4125,37056
4126,35904
4127,34432
4128,33280
4129,32576
4130,32128
4131,31872
4132,31808
4133,31936
4134,32128
4135,32448
4136,32832
4137,33152
4138,33472
4139,33792
4140,34048
4141,34176
4142,34240
4143,34304
4144,34432
4145,34496
4146,34304
4147,34112
4148,33920
4149,33856
4150,33856
4151,33792
4152,33728
4153,33792
4154,33856
4155,33856
4156,33920
4157,34048
4158,34048
4159,33984
4160,33984
4161,33984
4162,33984
4163,33984
4164,33984
4165,34112
4166,34176
4167,34176
4168,34240
4169,34368
4170,34496
4171,34496
4172,34496
4173,34432
4174,34368
4175,34304
4176,34368
4177,34432
4178,34432
4179,34368
4180,34240
4181,34176
4182,34240
4183,34304
4184,34304
4185,34368
4186,34432
4187,34368
4188,34176
4189,34112
4190,34112
4191,34048
4192,34048
4193,33984
4194,33984
4195,33920
4196,33856
4197,33792
4198,33728
4199,33664
4200,33536
4201,33600
4202,33728
4203,33792
4204,33728
4205,33664
4206,33664
4207,33664
4208,33600
4209,33536
4210,33472
4211,33536
4212,33536
4213,33600
4214,33664
4215,33728
4216,33792
4217,33920
4218,33920
4219,33920
4220,33920
4221,33920
4222,33920
4223,33984
4224,34048
4225,34048
4226,34112
4227,34176
4228,34240
4229,34304
4230,34496
4231,34560
4232,34560
4233,34560
4234,34432
4235,34304
4236,34304
4237,34368
4238,34240
4239,34112
4240,34112
4241,34112
4242,33984
4243,33600
4244,33152
4245,32896
4246,32768
4247,32832
4248,32960
4249,33088
4250,33280
4251,33408
4252,33472
4253,33536
4254,33600
4255,33664
4256,33664
4257,33728
4258,33728
4259,33664
4260,33600
4261,33600
4262,33728
4263,33792
4264,33728
4265,33600
4266,33536
4267,33600
4268,33600
4269,33856
4270,34240
4271,34752
4272,35328
4273,35968
4274,36800
4275,37376
4276,36736
4277,35328
4278,33856
4279,32768
4280,32192
4281,31808
4282,31616
4283,31680
4284,31808
4285,32128
4286,32576
4287,33024
4288,33472
4289,33856
4290,34176
4291,34432
4292,34560
4293,34560
4294,34496
4295,34368
4296,34176
4297,33920
4298,33792
4299,33792
4300,33856
4301,33856
4302,33920
4303,33984
4304,33920
4305,33920
4306,33984
4307,34048
4308,33984
4309,33856
4310,33856
4311,33920
4312,33984
4313,34112
4314,34176
4315,34176
4316,34176
4317,34112
4318,34112
4319,34176
4320,34240
4321,34304
4322,34368
4323,34432
4324,34496
4325,34560
4326,34496
4327,34432
4328,34496
4329,34560
4330,34624
4331,34624
4332,34560
4333,34432
4334,34240
4335,34176
4336,34176
4337,34176
4338,34176
4339,34176
4340,34176
4341,34240
4342,34240
4343,34176
4344,34048
4345,33856
4346,33728
4347,33600
4348,33536
4349,33600
4350,33664
4351,33664
4352,33600
4353,33600
4354,33536
4355,33536
4356,33664
4357,33728
4358,33728
4359,33664
4360,33600
4361,33600
4362,33664
4363,33728
4364,33792
4365,33856
4366,33920
4367,33920
4368,33984
4369,34048
4370,34112
4371,34112
4372,34048
4373,34112
4374,34112
4375,34112
4376,34112
4377,34240
4378,34432
4379,34560
4380,34496
4381,34432
4382,34304
4383,34240
4384,34176
4385,34240
4386,34368
4387,34304
4388,34176
4389,33920
4390,33664
4391,33472
4392,33216
4393,33088
4394,33024
4395,33088
4396,33152
4397,33344
4398,33536
4399,33664
4400,33600
4401,33472
4402,33472
4403,33472
4404,33472
4405,33472
4406,33536
4407,33600
4408,33728
4409,33792
4410,33728
4411,33728
4412,33728
4413,33728
4414,33600
4415,33536
4416,33600
4417,33792
4418,34112
4419,34560
4420,35072
4421,35712
4422,36608
4423,37568
4424,37504
4425,36352
4426,34752
4427,33344
4428,32384
4429,31744
4430,31360
4431,31232
4432,31424
4433,31808
4434,32448
4435,33024
4436,33536
4437,33984
4438,34176
4439,34368
4440,34560
4441,34688
4442,34624
4443,34496
4444,34368
4445,34176
4446,34048
4447,33984
4448,33984
4449,33984
4450,33920
4451,33856
4452,33920
4453,33984
4454,34048
4455,34048
4456,33984
4457,33856
4458,33856
4459,33856
4460,33984
4461,34112
4462,34240
4463,34240
4464,34304
4465,34432
4466,34496
4467,34496
4468,34432
4469,34368
4470,34240
4471,34240
4472,34304
4473,34432
4474,34496
4475,34432
4476,34240
4477,34240
4478,34304
4479,34368
4480,34368
4481,34496
4482,34496
4483,34496
4484,34432
4485,34432
4486,34368
4487,34368
4488,34304
4489,34176
4490,34048
4491,33984
4492,34048
4493,34112
4494,34112
4495,33984
4496,33728
4497,33472
4498,33344
4499,33408
4500,33408
4501,33408
4502,33472
4503,33600
4504,33664
4505,33792
4506,33856
4507,33856
4508,33792
4509,33792
4510,33728
4511,33664
4512,33728
4513,33728
4514,33792
4515,33856
4516,33856
4517,33856
4518,33920
4519,33984
4520,34112
4521,34112
4522,34176
4523,34112
4524,34112
4525,34112
4526,34304
4527,34560
4528,34688
4529,34752
4530,34688
4531,34624
4532,34496
4533,34368
4534,34304
4535,34176
4536,34048
4537,33984
4538,33792
4539,33536
4540,33344
4541,33280
4542,33280
4543,33344
4544,33344
4545,33408
4546,33408
4547,33408
4548,33344
4549,33344
4550,33344
4551,33472
4552,33600
4553,33728
4554,33856
4555,33792
4556,33664
4557,33664
4558,33664
4559,33664
4560,33664
4561,33728
4562,33792
4563,33856
4564,33920
4565,33920
4566,34048
4567,34240
4568,34496
4569,35136
4570,36032
4571,37056
4572,37952
4573,37504
4574,35968
4575,34176
4576,32640
4577,31680
4578,31168
4579,31040
4580,31168
4581,31552
4582,32256
4583,33152
4584,33856
4585,34240
4586,34368
4587,34368
4588,34432
4589,34432
4590,34368
4591,34304
4592,34240
4593,34176
4594,34176
4595,34240
4596,34240
4597,34176
4598,34112
4599,34112
4600,34048
4601,33984
4602,33920
4603,33920
4604,34048
4605,34112
4606,34048
4607,33984
4608,34048
4609,34112
4610,34240
4611,34304
4612,34240
4613,34048
4614,34048
4615,34176
4616,34240
4617,34240
4618,34368
4619,34432
4620,34624
4621,34688
4622,34752
4623,34688
4624,34624
4625,34496
4626,34368
4627,34368
4628,34368
4629,34432
4630,34496
4631,34496
4632,34432
4633,34304
4634,34176
4635,34176
4636,34112
4637,34112
4638,34176
4639,34176
4640,34176
4641,34176
4642,34176
4643,33984
4644,33920
4645,33984
4646,34048
4647,34112
4648,33984
4649,33792
4650,33600
4651,33408
4652,33344
4653,33280
4654,33344
4655,33536
4656,33664
4657,33728
4658,33792
4659,33792
4660,33792
4661,33856
4662,33920
4663,34048
4664,34048
4665,34112
4666,34112
4667,34048
4668,33920
4669,33856
4670,33792
4671,33792
4672,33920
4673,34048
4674,34240
4675,34368
4676,34432
4677,34304
4678,34240
4679,34304
4680,34368
4681,34368
4682,34304
4683,34240
4684,34240
4685,34304
4686,34368
4687,34368
4688,34304
4689,34112
4690,33920
4691,33728
4692,33536
4693,33344
4694,33216
4695,33280
4696,33280
4697,33216
4698,33216
4699,33280
4700,33408
4701,33536
4702,33664
4703,33664
4704,33600
4705,33600
4706,33600
4707,33536
4708,33536
4709,33536
4710,33600
4711,33664
4712,33728
4713,33728
4714,33728
4715,33728
4716,33792
4717,33792
4718,33856
4719,34112
4720,34496
4721,35136
4722,35968
4723,36992
4724,38080
4725,38016
4726,36480
4727,34432
4728,32640
4729,31488
4730,30848
4731,30656
4732,30784
4733,31168
4734,31744
4735,32448
4736,33152
4737,33920
4738,34304
4739,34624
4740,34688
4741,34624
4742,34560
4743,34496
4744,34368
4745,34304
4746,34240
4747,34112
4748,34048
4749,34048
4750,34048
4751,34048
4752,33920
4753,33792
4754,33728
4755,33792
4756,33792
4757,33856
4758,33920
4759,34048
4760,34176
4761,34176
4762,34048
4763,33984
4764,33984
4765,33984
4766,34112
4767,34240
4768,34240
4769,34304
4770,34432
4771,34432
4772,34432
4773,34368
4774,34432
4775,34496
4776,34560
4777,34624
4778,34496
4779,34432
4780,34368
4781,34304
4782,34304
4783,34304
4784,34432
4785,34432
4786,34432
4787,34304
4788,34176
4789,34176
4790,34240
4791,34176
4792,34176
4793,34048
4794,33984
4795,33984
4796,33984
4797,33984
4798,33856
4799,33728
4800,33536
4801,33472
4802,33344
4803,33344
4804,33280
4805,33344
4806,33472
4807,33600
4808,33664
4809,33728
4810,33792
4811,33792
4812,33856
4813,33856
4814,33856
4815,33920
4816,33984
4817,34048
4818,33920
4819,33792
4820,33792
4821,33728
4822,33664
4823,33728
4824,33856
4825,33920
4826,33920
4827,33792
4828,33792
4829,33792
4830,33728
4831,33664
4832,33664
4833,33792
4834,33920
4835,33984
4836,34048
4837,34112
4838,34304
4839,34496
4840,34560
4841,34560
4842,34496
4843,34368
4844,34304
4845,34304
4846,34304
4847,34240
4848,34176
4849,34048
4850,33728
4851,33408
4852,33088
4853,32960
4854,32896
4855,32960
4856,33088
4857,33344
4858,33408
4859,33408
4860,33408
4861,33536
4862,33664
4863,33728
4864,33664
4865,33600
4866,33664
4867,33728
4868,33792
4869,33728
4870,33664
4871,33664
4872,33600
4873,33536
4874,33536
4875,33600
4876,33664
4877,33920
4878,34304
4879,34944
4880,35840
4881,36864
4882,38016
4883,38272
4884,36992
4885,34944
4886,32960
4887,31296
4888,30720
4889,30336
4890,30464
4891,30912
4892,31616
4893,32448
4894,33280
4895,33920
4896,34432
4897,34688
4898,34816
4899,34816
4900,34752
4901,34688
4902,34624
4903,34432
4904,34304
4905,34112
4906,33984
4907,33920
4908,33920
4909,33920
4910,33920
4911,33984
4912,34048
4913,34176
4914,34176
4915,34112
4916,34048
4917,33984
4918,33920
4919,33920
4920,34048
4921,34112
4922,34176
4923,34176
4924,34240
4925,34304
4926,34304
4927,34368
4928,34368
4929,34432
4930,34496
4931,34560
4932,34560
4933,34496
4934,34368
4935,34368
4936,34432
4937,34432
4938,34496
4939,34496
4940,34496
4941,34432
4942,34368
4943,34304
4944,34240
4945,34304
4946,34368
4947,34432
4948,34432
4949,34368
4950,34304
4951,34240
4952,34176
4953,34112
4954,34048
4955,33984
4956,33856
4957,33728
4958,33792
4959,33856
4960,33920
4961,33920
4962,33728
4963,33664
4964,33536
4965,33472
4966,33472
4967,33536
4968,33664
4969,33664
4970,33728
4971,33792
4972,33920
4973,33920
4974,33920
4975,33920
4976,33984
4977,33984
4978,33856
4979,33792
4980,33728
4981,33728
4982,33856
4983,33920
4984,33920
4985,33856
4986,33664
4987,33664
4988,33728
4989,33728
4990,33728
4991,33728
4992,33728
4993,33856
4994,34048
4995,34112
4996,34176
4997,34112
4998,33984
4999,33920
5000,34112
5001,34368
5002,34560
5003,34560
5004,34496
5005,34368
5006,34240
5007,34176
5008,34112
5009,34048
5010,33920
5011,33728
5012,33472
5013,33280
5014,33088
5015,33088
5016,33152
5017,33344
5018,33472
5019,33408
5020,33408
5021,33472
5022,33664
5023,33664
5024,33664
5025,33664
5026,33728
5027,33664
5028,33600
5029,33600
5030,33600
5031,33600
5032,33664
5033,33664
5034,33664
5035,33600
5036,33600
5037,33728
5038,33920
5039,34304
5040,34752
5041,35520
5042,36480
5043,37760
5044,38144
5045,36928
5046,34816
5047,32512
5048,31168
5049,30592
5050,30400
5051,30528
5052,31232
5053,31680
5054,32576
5055,33408
5056,33984
5057,34432
5058,34624
5059,34752
5060,34752
5061,34688
5062,34624
5063,34496
5064,34368
5065,34304
5066,34112
5067,33920
5068,33792
5069,33728
5070,33792
5071,33984
5072,33984
5073,33920
5074,33792
5075,33792
5076,33792
5077,33920
5078,33984
5079,34112
5080,34176
5081,34176
5082,34240
5083,34176
5084,34048
5085,33920
5086,33920
5087,33984
5088,34048
5089,34176
5090,34240
5091,34304
5092,34368
5093,34368
5094,34304
5095,34368
5096,34368
5097,34304
5098,34240
5099,34304
5100,34240
5101,34240
5102,34240
5103,34432
5104,34496
5105,34368
5106,34176
5107,34048
5108,34112
5109,34240
5110,34240
5111,34176
5112,34176
5113,34176
5114,34176
5115,34048
5116,33792
5117,33600
5118,33472
5119,33408
5120,33536
5121,33664
5122,33664
5123,33536
5124,33344
5125,33216
5126,33216
5127,33344
5128,33408
5129,33664
5130,33856
5131,33920
5132,33920
5133,33856
5134,33792
5135,33600
5136,33536
5137,33536
5138,33536
5139,33664
5140,33792
5141,33920
5142,33984
5143,33856
5144,33728
5145,33600
5146,33600
5147,33600
5148,33600
5149,33536
5150,33600
5151,33600
5152,33600
5153,33664
5154,33664
5155,33664
5156,33728
5157,33856
5158,33856
5159,33920
5160,33984
5161,34048
5162,34176
5163,34304
5164,34304
5165,34176
5166,34048
5167,34048
5168,34048
5169,34112
5170,34112
5171,34112
5172,33792
5173,33600
5174,33344
5175,33152
5176,33024
5177,32896
5178,32960
5179,33024
5180,33088
5181,33152
5182,33280
5183,33472
5184,33664
5185,33792
5186,33792
5187,33792
5188,33792
5189,33600
5190,33408
5191,33344
5192,33344
5193,33344
5194,33344
5195,33408
5196,33408
5197,33408
5198,33408
5199,33472
5200,33728
5201,34112
5202,34880
5203,35328
5204,36288
5205,37248
5206,37184
5207,35904
5208,34176
5209,32704
5210,31872
5211,31488
5212,31296
5213,31424
5214,31680
5215,32000
5216,32576
5217,33344
5218,33600
5219,33984
5220,34240
5221,34432
5222,34432
5223,34432
5224,34368
5225,34304
5226,34176
5227,33984
5228,33856
5229,33856
5230,33792
5231,33728
5232,33664
5233,33728
5234,33728
5235,33792
5236,33856
5237,33920
5238,33984
5239,33920
5240,33984
5241,34048
5242,34176
5243,34176
5244,34112
5245,34112
5246,34048
5247,33984
5248,33920
5249,33984
5250,34048
5251,34048
5252,34048
5253,34112
5254,34176
5255,34176
5256,34048
5257,33984
5258,34048
5259,34112
5260,34304
5261,34432
5262,34432
5263,34368
5264,34304
5265,34240
5266,34176
5267,34048
5268,33984
5269,33984
5270,34112
5271,34176
5272,34176
5273,34048
5274,33984
5275,33920
5276,33856
5277,33856
5278,33792
5279,33664
5280,33600
5281,33600
5282,33600
5283,33600
5284,33600
5285,33600
5286,33536
5287,33472
5288,33344
5289,33344
5290,33344
5291,33472
5292,33600
5293,33664
5294,33664
5295,33664
5296,33664
5297,33728
5298,33664
5299,33600
5300,33664
5301,33728
5302,33728
5303,33664
5304,33664
5305,33792
5306,33792
5307,33792
5308,33728
5309,33728
5310,33728
5311,33792
5312,33856
5313,33920
5314,33920
5315,33920
5316,34112
5317,34304
5318,34496
5319,34496
5320,34432
5321,34368
5322,34240
5323,34176
5324,34176
5325,34048
5326,33920
5327,33664
5328,33408
5329,33152
5330,33024
5331,32960
5332,32960
5333,33024
5334,33152
5335,33280
5336,33344
5337,33408
5338,33472
5339,33472
5340,33472
5341,33472
5342,33472
5343,33472
5344,33472
5345,33408
5346,33408
5347,33536
5348,33600
5349,33600
5350,33472
5351,33344
5352,33344
5353,33280
5354,33280
5355,33408
5356,33664
5357,34048
5358,34624
5359,35456
5360,36480
5361,37184
5362,36736
5363,35328
5364,33920
5365,32832
5366,32256
5367,31872
5368,31744
5369,31744
5370,31808
5371,32064
5372,32448
5373,32896
5374,33280
5375,33536
5376,33792
5377,34048
5378,34240
5379,34304
5380,34240
5381,34112
5382,34048
5383,34048
5384,34112
5385,34176
5386,34112
5387,33920
5388,33728
5389,33600
5390,33600
5391,33664
5392,33728
5393,33728
5394,33792
5395,33792
5396,33856
5397,33920
5398,33984
5399,33984
5400,33984
5401,33984
5402,33920
5403,33920
5404,33984
5405,34048
5406,34048
5407,34048
5408,34240
5409,34368
5410,34432
5411,34432
5412,34368
5413,34368
5414,34304
5415,34112
5416,34048
5417,34112
5418,34176
5419,34112
5420,34048
5421,34112
5422,34176
5423,34112
5424,33984
5425,33984
5426,33984
5427,33920
5428,33984
5429,33984
5430,33984
5431,33984
5432,33920
5433,33792
5434,33728
5435,33600
5436,33472
5437,33344
5438,33344
5439,33408
5440,33600
5441,33600
5442,33600
5443,33664
5444,33664
5445,33664
5446,33600
5447,33536
5448,33536
5449,33600
5450,33728
5451,33792
5452,33728
5453,33728
5454,33792
5455,33856
5456,33920
5457,33920
5458,33984
5459,34112
5460,34176
5461,34112
5462,34112
5463,34240
5464,34496
5465,34624
5466,34688
5467,34624
5468,34496
5469,34304
5470,34048
5471,33984
5472,33856
5473,33728
5474,33600
5475,33408
5476,33280
5477,33216
5478,33152
5479,33152
5480,33216
5481,33152
5482,33088
5483,33216
5484,33344
5485,33472
5486,33472
5487,33600
5488,33600
5489,33536
5490,33536
5491,33600
5492,33600
5493,33600
5494,33536
5495,33472
5496,33408
5497,33472
5498,33536
5499,33600
5500,33600
5501,33664
5502,33664
5503,33856
5504,34176
5505,34688
5506,35456
5507,36288
5508,37184
5509,37056
5510,35968
5511,34560
5512,33408
5513,32576
5514,32128
5515,31808
5516,31680
5517,31744
5518,31808
5519,32128
5520,32576
5521,33088
5522,33536
5523,33920
5524,34176
5525,34240
5526,34240
5527,34176
5528,34112
5529,34176
5530,34176
5531,33984
5532,33920
5533,33920
5534,33984
5535,33984
5536,33920
5537,33792
5538,33792
5539,33728
5540,33792
5541,33856
5542,33920
5543,33984
5544,33984
5545,33984
5546,33984
5547,34048
5548,34112
5549,34176
5550,34176
5551,34176
5552,34240
5553,34304
5554,34432
5555,34368
5556,34176
5557,34048
5558,33984
5559,33984
5560,34048
5561,34176
5562,34176
5563,34176
5564,34176
5565,34240
5566,34304
5567,34304
5568,34240
5569,34176
5570,34176
5571,34240
5572,34176
5573,34112
5574,33984
5575,33856
5576,33728
5577,33728
5578,33664
5579,33856
5580,33856
5581,33856
5582,33792
5583,33728
5584,33472
5585,33344
5586,33280
5587,33344
5588,33472
5589,33408
5590,33600
5591,33664
5592,33728
5593,33856
5594,33920
5595,33984
5596,33984
5597,33920
5598,33856
5599,33920
5600,33920
5601,33984
5602,33984
5603,34112
5604,34368
5605,34752
5606,34944
5607,34880
5608,34624
5609,34240
5610,33920
5611,33856
5612,33920
5613,33984
5614,33984
5615,33984
5616,33920
5617,33728
5618,33472
5619,33408
5620,33216
5621,33216
5622,33280
5623,33344
5624,33344
5625,33344
5626,33344
5627,33344
5628,33408
5629,33536
5630,33536
5631,33664
5632,33664
5633,33728
5634,33792
5635,33792
5636,33728
5637,33664
5638,33600
5639,33536
5640,33536
5641,33600
5642,33600
5643,33600
5644,33728
5645,34112
5646,34560
5647,35392
5648,35584
5649,36224
5650,37632
5651,36736
5652,35136
5653,33792
5654,32768
5655,32128
5656,31872
5657,31808
5658,31936
5659,32064
5660,32192
5661,32384
5662,32768
5663,33216
5664,33600
5665,33984
5666,34176
5667,34304
5668,34304
5669,34240
5670,34240
5671,34240
5672,34176
5673,34176
5674,34112
5675,34048
5676,33984
5677,33920
5678,33920
5679,33984
5680,34048
5681,33984
5682,33920
5683,33856
5684,33792
5685,33856
5686,33920
5687,34048
5688,34176
5689,34176
5690,34176
5691,34112
5692,34176
5693,34176
5694,34240
5695,34304
5696,34368
5697,34368
5698,34368
5699,34304
5700,34304
5701,34304
5702,34304
5703,34368
5704,34368
5705,34368
5706,34368
5707,34368
5708,34432
5709,34368
5710,34240
5711,34176
5712,34176
5713,34240
5714,34240
5715,34176
5716,34176
5717,34048
5718,33984
5719,33920
5720,33728
5721,33536
5722,33472
5723,33472
5724,33600
5725,33664
5726,33664
5727,33664
5728,33728
5729,33792
5730,33728
5731,33600
5732,33536
5733,33600
5734,33664
5735,33792
5736,33856
5737,33984
5738,33984
5739,34112
5740,34176
5741,34176
5742,34240
5743,34304
5744,34432
5745,34496
5746,34560
5747,34496
5748,34432
5749,34368
5750,34304
5751,34304
5752,34368
5753,34368
5754,34304
5755,34176
5756,33984
5757,33856
5758,33728
5759,33536
5760,33344
5761,33216
5762,33152
5763,33216
5764,33216
5765,33280
5766,33344
5767,33472
5768,33536
5769,33664
5770,33792
5771,33856
5772,33792
5773,33728
5774,33664
5775,33664
5776,33600
5777,33536
5778,33472
5779,33536
5780,33600
5781,33600
5782,33600
5783,33664
5784,33792
5785,34112
5786,34496
5787,35072
5788,35776
5789,36608
5790,37568
5791,37568
5792,36480
5793,34880
5794,33472
5795,32448
5796,31808
5797,31552
5798,31488
5799,31616
5800,31936
5801,32448
5802,32896
5803,33280
5804,33728
5805,34112
5806,34304
5807,34432
5808,34496
5809,34432
5810,34304
5811,34240
5812,34240
5813,34304
5814,34304
5815,34240
5816,34176
5817,34112
5818,33984
5819,33856
5820,33792
5821,33792
5822,33792
5823,33856
5824,33984
5825,34112
5826,34176
5827,34048
5828,33984
5829,33984
5830,34048
5831,34176
5832,34304
5833,34432
5834,34432
5835,34432
5836,34432
5837,34496
5838,34560
5839,34432
5840,34304
5841,34176
5842,34176
5843,34240
5844,34240
5845,34240
5846,34368
5847,34432
5848,34496
5849,34432
5850,34432
5851,34368
5852,34304
5853,34304
5854,34304
5855,34368
5856,34368
5857,34240
5858,34048
5859,33920
5860,33856
5861,33792
5862,33664
5863,33664
5864,33600
5865,33536
5866,33536
5867,33536
5868,33600
5869,33664
5870,33792
5871,33856
5872,33856
5873,33792
5874,33728
5875,33792
5876,33728
5877,33792
5878,33920
5879,34112
5880,34176
5881,34240
5882,34240
5883,34112
5884,34048
5885,34048
5886,34176
5887,34368
5888,34496
5889,34560
5890,34560
5891,34624
5892,34496
5893,34432
5894,34432
5895,34496
5896,34560
5897,34432
5898,34112
5899,33728
5900,33472
5901,33344
5902,33216
5903,33152
5904,33152
5905,33280
5906,33344
5907,33344
5908,33408
5909,33472
5910,33600
5911,33664
5912,33664
5913,33664
5914,33664
5915,33600
5916,33600
5917,33600
5918,33664
5919,33664
5920,33728
5921,33792
5922,33792
5923,33792
5924,33792
5925,33792
5926,33856
5927,34112
5928,34560
5929,35328
5930,36224
5931,37312
5932,38016
5933,37312
5934,35840
5935,34176
5936,32832
5937,32000
5938,31488
5939,31040
5940,30976
5941,31232
5942,31808
5943,32512
5944,33152
5945,33728
5946,34240
5947,34624
5948,34816
5949,34752
5950,34624
5951,34496
5952,34368
5953,34240
5954,34048
5955,33920
5956,33856
5957,33856
5958,33856
5959,33984
5960,34048
5961,33984
5962,33920
5963,33856
5964,33920
5965,33920
5966,33984
5967,34048
5968,34112
5969,34112
5970,34240
5971,34368
5972,34368
5973,34432
5974,34432
5975,34368
5976,34304
5977,34304
5978,34432
5979,34432
5980,34304
5981,34176
5982,34048
5983,34048
5984,34176
5985,34304
5986,34304
5987,34368
5988,34368
5989,34368
5990,34368
5991,34368
5992,34368
5993,34432
5994,34432
5995,34368
5996,34304
5997,34304
5998,34304
5999,34240
6000,34112
6001,33920
6002,33792
6003,33664
6004,33600
6005,33536
6006,33536
6007,33664
6008,33728
6009,33664
6010,33664
6011,33600
6012,33600
6013,33728
6014,33792
6015,33856
6016,33920
6017,33984
6018,33920
6019,33920
6020,33984
6021,33984
6022,34048
6023,34048
6024,34048
6025,34112
6026,34240
6027,34240
6028,34304
6029,34496
6030,34752
6031,34880
6032,34816
6033,34688
6034,34496
6035,34368
6036,34304
6037,34240
6038,34112
6039,34112
6040,34112
6041,33984
6042,33728
6043,33472
6044,33216
6045,33152
6046,33088
6047,33088
6048,33152
6049,33280
6050,33408
6051,33536
6052,33536
6053,33536
6054,33600
6055,33664
6056,33728
6057,33728
6058,33664
6059,33600
6060,33536
6061,33536
6062,33600
6063,33728
6064,33728
6065,33728
6066,33664
6067,33728
6068,33856
6069,34112
6070,34496
6071,35136
6072,35968
6073,36992
6074,38208
6075,38336
6076,37120
6077,35136
6078,33088
6079,31616
6080,30656
6081,30272
6082,30400
6083,30912
6084,31680
6085,32640
6086,33600
6087,34304
6088,34688
6089,34816
6090,34752
6091,34624
6092,34496
6093,34432
6094,34432
6095,34432
6096,34304
6097,34240
6098,34048
6099,33920
6100,33920
6101,33984
6102,34048
6103,34112
6104,34048
6105,34048
6106,34048
6107,34112
6108,34176
6109,34240
6110,34304
6111,34240
6112,34048
6113,33984
6114,33984
6115,34112
6116,34176
6117,34304
6118,34304
6119,34304
6120,34368
6121,34432
6122,34432
6123,34496
6124,34432
6125,34368
6126,34304
6127,34304
6128,34304
6129,34368
6130,34368
6131,34304
6132,34368
6133,34368
6134,34368
6135,34368
6136,34432
6137,34496
6138,34496
6139,34432
6140,34304
6141,34112
6142,34048
6143,33984
6144,33920
6145,33856
6146,33856
6147,33920
6148,33856
6149,33728
6150,33728
6151,33792
6152,33728
6153,33600
6154,33536
6155,33536
6156,33600
6157,33536
6158,33600
6159,33728
6160,33792
6161,33792
6162,33792
6163,33856
6164,33984
6165,34048
6166,34048
6167,34048
6168,34048
6169,34176
6170,34176
6171,34112
6172,34048
6173,33920
6174,33920
6175,33984
6176,34176
6177,34304
6178,34304
6179,34240
6180,34240
6181,34240
6182,34176
6183,34176
6184,34176
6185,34112
6186,34112
6187,34112
6188,34048
6189,33792
6190,33600
6191,33344
6192,33152
6193,33024
6194,33024
6195,33152
6196,33280
6197,33344
6198,33280
6199,33408
6200,33536
6201,33664
6202,33600
6203,33536
6204,33536
6205,33600
6206,33728
6207,33792
6208,33792
6209,33792
6210,33792
6211,33664
6212,33664
6213,33664
6214,33728
6215,33984
6216,34368
6217,35072
6218,36096
6219,37184
6220,38464
6221,38400
6222,36800
6223,34432
6224,32448
6225,31168
6226,30528
6227,30272
6228,30528
6229,31040
6230,31744
6231,32576
6232,33408
6233,34112
6234,34560
6235,34880
6236,34944
6237,34816
6238,34624
6239,34496
6240,34304
6241,34112
6242,34048
6243,34048
6244,34048
6245,33984
6246,33920
6247,33856
6248,33856
6249,33856
6250,33920
6251,33984
6252,33984
6253,33920
6254,33984
6255,34112
6256,34240
6257,34176
6258,34112
6259,34048
6260,34048
6261,34112
6262,34176
6263,34176
6264,34176
6265,34176
6266,34176
6267,34240
6268,34304
6269,34368
6270,34368
6271,34304
6272,34240
6273,34240
6274,34176
6275,34176
6276,34240
6277,34304
6278,34432
6279,34496
6280,34432
6281,34304
6282,34240
6283,34240
6284,34304
6285,34240
6286,34176
6287,34176
6288,34112
6289,33984
6290,33792
6291,33664
6292,33600
6293,33664
6294,33728
6295,33728
6296,33728
6297,33664
6298,33472
6299,33472
6300,33472
6301,33472
6302,33472
6303,33344
6304,33344
6305,33408
6306,33536
6307,33664
6308,33728
6309,33792
6310,33728
6311,33664
6312,33600
6313,33664
6314,33728
6315,33664
6316,33600
6317,33536
6318,33472
6319,33472
6320,33664
6321,33856
6322,33920
6323,33792
6324,33664
6325,33600
6326,33728
6327,33792
6328,33792
6329,33792
6330,33728
6331,33792
6332,33984
6333,34112
6334,34176
6335,34176
6336,34176
6337,34176
6338,34176
6339,34048
6340,33920
6341,33728
6342,33536
6343,33472
6344,33408
6345,33216
6346,32960
6347,32768
6348,32768
6349,32768
6350,32896
6351,33024
6352,33088
6353,33216
6354,33344
6355,33472
6356,33536
6357,33536
6358,33472
6359,33408
6360,33408
6361,33536
6362,33600
6363,33664
6364,33600
6365,33472
6366,33472
6367,33472
6368,33664
6369,33856
6370,34240
6371,34880
6372,35712
6373,36736
6374,37184
6375,36352
6376,34816
6377,33216
6378,32064
6379,31424
6380,31168
6381,31104
6382,31296
6383,31552
6384,32000
6385,32576
6386,33152
6387,33600
6388,33984
6389,34176
6390,34240
6391,34240
6392,34240
6393,34304
6394,34240
6395,34176
6396,33920
6397,33728
6398,33600
6399,33600
6400,33536
6401,33536
6402,33472
6403,33536
6404,33664
6405,33664
6406,33728
6407,33664
6408,33664
6409,33792
6410,33984
6411,34048
6412,34048
6413,34048
6414,34048
6415,34048
6416,34112
6417,34048
6418,33984
6419,33920
6420,33920
6421,33984
6422,34176
6423,34368
6424,34432
6425,34304
6426,34176
6427,34048
6428,33984
6429,34048
6430,34176
6431,34240
6432,34176
6433,33984
6434,33856
6435,33856
6436,33920
6437,33984
6438,34112
6439,34176
6440,34112
6441,34112
6442,34048
6443,33984
6444,33920
6445,33856
6446,33792
6447,33728
6448,33728
6449,33664
6450,33536
6451,33408
6452,33344
6453,33344
6454,33472
6455,33536
6456,33600
6457,33664
6458,33728
6459,33664
6460,33600
6461,33536
6462,33472
6463,33600
6464,33792
6465,33856
6466,33792
6467,33728
6468,33664
6469,33728
6470,33792
6471,33856
6472,33984
6473,33984
6474,33920
6475,33920
6476,33920
6477,33984
6478,33984
6479,33984
6480,34112
6481,34304
6482,34432
6483,34432
6484,34432
6485,34432
6486,34368
6487,34240
6488,34112
6489,33984
6490,33856
6491,33728
6492,33472
6493,33280
6494,33152
6495,33024
6496,33088
6497,33280
6498,33472
6499,33536
6500,33344
6501,33216
6502,33152
6503,33216
6504,33280
6505,33344
6506,33472
6507,33600
6508,33664
6509,33664
6510,33600
6511,33536
6512,33472
6513,33536
6514,33472
6515,33472
6516,33472
6517,33536
6518,33856
6519,34240
6520,34816
6521,35520
6522,36544
6523,37184
6524,36672
6525,35264
6526,33792
6527,32768
6528,32128
6529,31808
6530,31680
6531,31744
6532,31936
6533,32192
6534,32512
6535,32960
6536,33344
6537,33664
6538,33920
6539,34176
6540,34304
6541,34240
6542,34176
6543,34112
6544,34048
6545,33984
6546,33984
6547,33984
6548,33984
6549,33920
6550,33792
6551,33664
6552,33600
6553,33600
6554,33664
6555,33728
6556,33856
6557,33920
6558,33856
6559,33856
6560,33792
6561,33792
6562,33792
6563,33856
6564,33920
6565,33984
6566,34048
6567,34048
6568,34112
6569,34048
6570,34112
6571,34176
6572,34304
6573,34304
6574,34368
6575,34368
6576,34368
6577,34304
6578,34112
6579,33984
6580,33920
6581,33920
6582,33984
6583,33920
6584,33984
6585,34048
6586,34112
6587,34112
6588,34176
6589,34176
6590,34048
6591,33984
6592,33920
6593,33920
6594,33792
6595,33600
6596,33472
6597,33472
6598,33472
6599,33472
6600,33600
6601,33664
6602,33728
6603,33792
6604,33792
6605,33792
6606,33664
6607,33600
6608,33536
6609,33600
6610,33664
6611,33728
6612,33856
6613,33920
6614,33984
6615,33984
6616,33984
6617,33920
6618,33920
6619,33984
6620,34048
6621,34048
6622,34048
6623,34112
6624,34176
6625,34432
6626,34560
6627,34688
6628,34624
6629,34432
6630,34304
6631,34240
6632,34240
6633,34112
6634,34112
6635,34048
6636,33920
6637,33664
6638,33472
6639,33344
6640,33216
6641,33024
6642,32960
6643,32960
6644,33024
6645,33152
6646,33344
6647,33472
6648,33536
6649,33664
6650,33664
6651,33664
6652,33728
6653,33856
6654,33856
6655,33856
6656,33792
6657,33728
6658,33664
6659,33664
6660,33600
6661,33664
6662,33856
6663,34240
6664,34944
6665,35712
6666,36608
6667,37440
6668,37120
6669,35840
6670,34112
6671,32704
6672,31808
6673,31488
6674,31424
6675,31552
6676,31808
6677,32192
6678,32704
6679,33152
6680,33600
6681,33856
6682,34048
6683,34112
6684,34112
6685,34176
6686,34240
6687,34240
6688,34240
6689,34240
6690,34176
6691,33984
6692,33792
6693,33792
6694,33856
6695,33792
6696,33792
6697,33792
6698,33792
6699,33856
6700,33856
6701,33856
6702,33856
6703,33856
6704,33920
6705,33984
6706,34112
6707,34112
6708,34048
6709,34112
6710,34176
6711,34176
6712,34240
6713,34240
6714,34304
6715,34240
6716,34176
6717,34176
6718,34176
6719,34176
6720,34176
6721,34240
6722,34304
6723,34240
6724,34176
6725,34112
6726,34112
6727,34176
6728,34240
6729,34176
6730,34176
6731,34176
6732,34112
6733,34176
6734,34176
6735,34176
6736,34048
6737,33856
6738,33728
6739,33728
6740,33664
6741,33536
6742,33536
6743,33472
6744,33472
6745,33472
6746,33472
6747,33536
6748,33600
6749,33600
6750,33536
6751,33600
6752,33728
6753,33792
6754,33792
6755,33856
6756,33920
6757,33984
6758,33984
6759,33984
6760,34048
6761,34112
6762,34048
6763,33920
6764,33856
6765,33920
6766,33984
6767,34176
6768,34432
6769,34560
6770,34624
6771,34560
6772,34496
6773,34432
6774,34368
6775,34304
6776,34240
6777,34240
6778,34176
6779,33984
6780,33728
6781,33408
6782,33152
6783,32960
6784,32896
6785,32896
6786,32960
6787,33088
6788,33280
6789,33408
6790,33472
6791,33536
6792,33600
6793,33664
6794,33728
6795,33792
6796,33792
6797,33792
6798,33792
6799,33792
6800,33600
6801,33472
6802,33536
6803,33664
6804,33664
6805,33856
6806,34176
6807,34816
6808,35392
6809,36224
6810,37248
6811,37568
6812,36480
6813,34880
6814,33408
6815,32384
6816,31808
6817,31488
6818,31488
6819,31744
6820,32064
6821,32448
6822,32896
6823,33280
6824,33600
6825,33856
6826,34048
6827,34304
6828,34368
6829,34304
6830,34176
6831,34112
6832,34048
6833,33984
6834,33920
6835,33920
6836,33920
6837,34048
6838,34048
6839,34048
6840,34112
6841,34048
6842,33920
6843,33792
6844,33792
6845,33792
6846,33856
6847,33920
6848,33984
6849,34048
6850,34048
6851,34112
6852,34176
6853,34176
6854,34176
6855,34240
6856,34368
6857,34304
6858,34304
6859,34240
6860,34304
6861,34304
6862,34368
6863,34368
6864,34432
6865,34496
6866,34432
6867,34304
6868,34112
6869,34048
6870,33920
6871,33920
6872,33920
6873,33984
6874,34048
6875,34048
6876,34112
6877,34112
6878,34112
6879,34112
6880,34112
6881,34048
6882,33920
6883,33792
6884,33728
6885,33728
6886,33728
6887,33664
6888,33600
6889,33536
6890,33536
6891,33536
6892,33600
6893,33792
6894,33920
6895,33920
6896,33856
6897,33792
6898,33728
6899,33728
6900,33664
6901,33728
6902,33856
6903,33984
6904,33984
6905,33984
6906,33984
6907,34048
6908,34176
6909,34240
6910,34368
6911,34432
6912,34432
6913,34432
6914,34496
6915,34560
6916,34496
6917,34432
6918,34368
6919,34368
6920,34304
6921,34240
6922,34240
6923,34176
6924,33984
6925,33728
6926,33472
6927,33344
6928,33216
6929,33088
6930,33024
6931,33152
6932,33280
6933,33344
6934,33408
6935,33472
6936,33472
6937,33536
6938,33536
6939,33600
6940,33664
6941,33728
6942,33792
6943,33856
6944,33856
6945,33856
6946,33856
6947,33856
6948,33728
6949,33664
6950,33792
6951,34176
6952,34880
6953,35712
6954,36608
6955,37696
6956,37824
6957,36480
6958,34752
6959,33152
6960,32000
6961,31360
6962,30976
6963,30912
6964,31168
6965,31616
6966,32320
6967,33088
6968,33792
6969,34240
6970,34432
6971,34496
6972,34560
6973,34624
6974,34560
6975,34368
6976,34240
6977,34240
6978,34240
6979,34176
6980,34112
6981,33984
6982,33856
6983,33920
6984,33984
6985,33984
6986,33920
6987,33920
6988,33920
6989,34048
6990,34112
6991,34112
6992,34048
6993,34048
6994,34048
6995,34112
6996,34176
6997,34304
6998,34304
6999,34240
7000,34176
7001,34176
7002,34304
7003,34304
7004,34368
7005,34368
7006,34304
7007,34176
7008,34176
7009,34240
7010,34368
7011,34368
7012,34304
7013,34304
7014,34240
7015,34240
7016,34304
7017,34304
7018,34304
7019,34304
7020,34304
7021,34240
7022,34176
7023,34240
7024,34304
7025,34240
7026,34112
7027,33856
7028,33664
7029,33536
7030,33472
7031,33536
7032,33600
7033,33536
7034,33536
7035,33664
7036,33728
7037,33728
7038,33728
7039,33728
7040,33792
7041,33856
7042,33984
7043,34048
7044,34112
7045,34048
7046,33984
7047,33920
7048,33920
7049,33920
7050,33920
7051,34048
7052,34176
7053,34304
7054,34240
7055,34112
7056,33984
7057,33984
7058,34048
7059,34176
7060,34368
7061,34560
7062,34624
7063,34560
7064,34496
7065,34368
7066,34240
7067,34176
7068,34112
7069,34112
7070,34048
7071,33920
7072,33664
7073,33472
7074,33408
7075,33408
7076,33344
7077,33216
7078,33216
7079,33216
7080,33344
7081,33408
7082,33408
7083,33408
7084,33408
7085,33472
7086,33536
7087,33664
7088,33728
7089,33792
7090,33920
7091,33920
7092,33920
7093,33856
7094,33856
7095,33920
7096,33984
7097,34176
7098,34624
7099,35328
7100,36224
7101,37504
7102,38656
7103,38272
7104,36544
7105,34176
7106,32192
7107,30592
7108,30272
7109,30080
7110,30400
7111,31040
7112,31936
7113,32896
7114,33728
7115,34240
7116,34560
7117,34624
7118,34688
7119,34752
7120,34752
7121,34624
7122,34432
7123,34432
7124,34368
7125,34240
7126,34112
7127,33984
7128,33920
7129,33792
7130,33792
7131,33856
7132,33920
7133,33920
7134,33920
7135,33856
7136,33856
7137,33856
7138,33856
7139,33920
7140,33984
7141,34048
7142,34176
7143,34240
7144,34304
7145,34368
7146,34432
7147,34496
7148,34496
7149,34368
7150,34304
7151,34304
7152,34368
7153,34304
7154,34368
7155,34432
7156,34432
7157,34368
7158,34240
7159,34112
7160,34176
7161,34240
7162,34304
7163,34368
7164,34432
7165,34368
7166,34304
7167,34176
7168,34176
7169,34112
7170,34048
7171,33984
7172,33984
7173,34048
7174,34048
7175,33856
7176,33728
7177,33536
7178,33472
7179,33472
7180,33600
7181,33728
7182,33728
7183,33600
7184,33536
7185,33472
7186,33408
7187,33408
7188,33472
7189,33600
7190,33728
7191,33728
7192,33728
7193,33792
7194,33856
7195,33856
7196,33856
7197,34048
7198,33984
7199,33920
7200,33792
7201,33728
7202,33728
7203,33728
7204,33728
7205,33792
7206,33792
7207,33728
7208,33600
7209,33600
7210,33664
7211,33728
7212,33728
7213,33856
7214,33984
7215,34240
7216,34368
7217,34432
7218,34496
7219,34496
7220,34368
7221,34304
7222,34240
7223,34112
7224,33856
7225,33600
7226,33408
7227,33280
7228,33216
7229,33152
7230,33152
7231,33152
7232,33024
7233,32960
7234,33024
7235,33152
7236,33280
7237,33344
7238,33472
7239,33472
7240,33536
7241,33472
7242,33536
7243,33664
7244,33792
7245,33920
7246,33856
7247,33664
7248,33536
7249,33600
7250,33664
7251,33920
7252,34304
7253,34944
7254,35712
7255,36672
7256,37504
7257,36352
7258,35328
7259,33664
7260,32320
7261,31488
7262,31040
7263,30848
7264,30976
7265,31296
7266,31872
7267,32640
7268,33408
7269,33792
7270,33984
7271,34112
7272,34240
7273,34176
7274,34176
7275,34112
7276,33984
7277,33984
7278,33984
7279,33856
7280,33792
7281,33856
7282,33984
7283,33920
7284,33856
7285,33792
7286,33664
7287,33536
7288,33472
7289,33536
7290,33728
7291,33792
7292,33792
7293,33728
7294,33728
7295,33856
7296,33856
7297,33920
7298,33984
7299,34048
7300,34048
7301,34048
7302,34112
7303,34112
7304,34176
7305,34176
7306,34176
7307,34240
7308,34176
7309,34176
7310,34176
7311,34368
7312,34432
7313,34432
7314,34240
7315,34048
7316,33856
7317,33792
7318,33792
7319,33792
7320,33856
7321,33920
7322,34048
7323,33984
7324,33920
7325,33792
7326,33728
7327,33792
7328,33792
7329,33792
7330,33728
7331,33600
7332,33536
7333,33472
7334,33472
7335,33536
7336,33600
7337,33600
7338,33600
7339,33600
7340,33664
7341,33664
7342,33728
7343,33664
7344,33664
7345,33664
7346,33664
7347,33856
7348,33984
7349,33792
7350,33728
7351,33792
7352,33856
7353,33792
7354,33664
7355,33664
7356,33728
7357,33856
7358,33792
7359,33920
7360,33920
7361,33920
7362,33856
7363,33920
7364,33984
7365,34176
7366,34496
7367,34752
7368,34752
7369,34496
7370,34240
7371,34112
7372,34112
7373,34048
7374,34048
7375,33920
7376,33792
7377,33600
7378,33536
7379,33152
7380,33088
7381,33024
7382,33024
7383,33088
7384,33216
7385,33408
7386,33472
7387,33408
7388,33344
7389,33344
7390,33472
7391,33600
7392,33664
7393,33728
7394,33664
7395,33600
7396,33536
7397,33536
7398,33536
7399,33600
7400,33600
7401,33664
7402,33856
7403,34112
7404,34560
7405,35264
7406,36160
7407,37120
7408,37120
7409,35968
7410,34432
7411,33152
7412,32384
7413,31936
7414,31744
7415,31680
7416,31680
7417,31744
7418,32128
7419,32576
7420,33088
7421,33536
7422,33856
7423,34048
7424,34176
7425,34304
7426,34368
7427,34304
7428,34176
7429,34112
7430,34112
7431,34176
7432,34112
7433,34112
7434,34048
7435,33856
7436,33664
7437,33600
7438,33600
7439,33664
7440,33664
7441,33728
7442,33792
7443,33792
7444,33856
7445,33856
7446,33856
7447,33920
7448,33984
7449,34048
7450,34048
7451,34048
7452,34112
7453,34112
7454,34112
7455,34112
7456,34176
7457,34240
7458,34240
7459,34240
7460,34240
7461,34176
7462,34176
7463,34240
7464,34304
7465,34240
7466,33984
7467,33856
7468,33856
7469,33856
7470,33856
7471,33856
7472,33984
7473,34112
7474,34112
7475,34048
7476,33984
7477,33984
7478,33984
7479,33920
7480,33792
7481,33728
7482,33600
7483,33536
7484,33600
7485,33664
7486,33600
7487,33664
7488,33728
7489,33728
7490,33728
7491,33728
7492,33728
7493,33856
7494,34048
7495,34176
7496,34048
7497,33792
7498,33536
7499,33408
7500,33472
7501,33600
7502,33728
7503,33856
7504,33920
7505,33984
7506,34112
7507,34176
7508,34240
7509,34304
7510,34368
7511,34496
7512,34624
7513,34624
7514,34624
7515,34560
7516,34432
7517,34240
7518,34176
7519,34112
7520,34048
7521,34048
7522,34112
7523,34048
7524,33920
7525,33728
7526,33408
7527,33152
7528,32960
7529,32960
7530,33024
7531,33088
7532,33216
7533,33344
7534,33408
7535,33600
7536,33728
7537,33856
7538,33856
7539,33856
7540,33792
7541,33664
7542,33664
7543,33664
7544,33664
7545,33600
7546,33600
7547,33664
7548,33856
7549,34176
7550,34688
7551,35392
7552,36288
7553,37248
7554,37568
7555,36736
7556,35136
7557,33600
7558,32576
7559,32000
7560,31680
7561,31552
7562,31552
7563,31616
7564,32000
7565,32512
7566,33024
7567,33600
7568,33920
7569,34176
7570,34368
7571,34496
7572,34560
7573,34496
7574,34368
7575,34240
7576,34176
7577,34112
7578,33984
7579,33984
7580,33984
7581,34048
7582,34112
7583,34112
7584,33856
7585,33728
7586,33600
7587,33600
7588,33600
7589,33664
7590,33792
7591,33920
7592,34048
7593,34176
7594,34176
7595,34176
7596,34240
7597,34304
7598,34304
7599,34240
7600,34240
7601,34304
7602,34304
7603,34304
7604,34304
7605,34304
7606,34368
7607,34304
7608,34240
7609,34240
7610,34304
7611,34368
7612,34304
7613,34240
7614,34304
7615,34240
7616,34048
7617,33856
7618,33728
7619,33728
7620,33856
7621,33920
7622,33920
7623,33984
7624,33920
7625,33856
7626,33856
7627,33856
7628,33792
7629,33728
7630,33728
7631,33664
7632,33728
7633,33664
7634,33664
7635,33664
7636,33728
7637,33728
7638,33728
7639,33856
7640,33920
7641,33984
7642,33984
7643,33984
7644,33984
7645,33920
7646,33792
7647,33728
7648,33792
7649,33920
7650,33984
7651,33920
7652,33920
7653,33920
7654,33984
7655,34176
7656,34496
7657,34688
7658,34752
7659,34688
7660,34624
7661,34496
7662,34368
7663,34240
7664,34304
7665,34304
7666,34240
7667,34048
7668,33728
7669,33472
7670,33344
7671,33216
7672,33216
7673,33216
7674,33280
7675,33408
7676,33472
7677,33536
7678,33536
7679,33536
7680,33600
7681,33792
7682,33984
7683,33984
7684,33920
7685,33792
7686,33728
7687,33664
7688,33600
7689,33536
7690,33472
7691,33472
7692,33600
7693,33920
7694,34368
7695,35008
7696,35712
7697,36608
7698,37632
7699,37760
7700,36672
7701,34944
7702,33344
7703,32256
7704,31680
7705,31360
7706,31296
7707,31424
7708,31680
7709,32192
7710,32832
7711,33408
7712,33920
7713,34304
7714,34496
7715,34560
7716,34560
7717,34432
7718,34304
7719,34240
7720,34240
7721,34176
7722,34112
7723,34048
7724,34048
7725,34048
7726,34112
7727,34112
7728,34112
7729,33984
7730,33792
7731,33600
7732,33600
7733,33664
7734,33792
7735,34048
7736,34240
7737,34304
7738,34240
7739,34176
7740,34176
7741,34176
7742,34240
7743,34240
7744,34304
7745,34304
7746,34304
7747,34304
7748,34304
7749,34368
7750,34368
7751,34368
7752,34240
7753,34176
7754,34176
7755,34176
7756,34240
7757,34240
7758,34240
7759,34304
7760,34368
7761,34304
7762,34240
7763,34240
7764,34176
7765,33984
7766,33920
7767,33920
7768,33984
7769,34048
7770,34048
7771,33920
7772,33792
7773,33664
7774,33536
7775,33472
7776,33472
7777,33600
7778,33728
7779,33856
7780,33920
7781,33920
7782,33920
7783,33792
7784,33728
7785,33728
7786,33728
7787,33792
7788,33856
7789,33984
7790,34112
7791,34176
7792,34176
7793,34112
7794,33984
7795,33920
7796,33920
7797,33984
7798,34112
7799,34176
7800,34240
7801,34368
7802,34560
7803,34816
7804,34944
7805,34816
7806,34624
7807,34368
7808,34240
7809,34240
7810,34240
7811,34112
7812,34048
7813,33856
7814,33600
7815,33344
7816,33216
7817,33152
7818,33088
7819,33216
7820,33280
7821,33280
7822,33344
7823,33536
7824,33664
7825,33792
7826,33856
7827,33984
7828,34112
7829,34048
7830,33856
7831,33728
7832,33664
7833,33536
7834,33472
7835,33408
7836,33472
7837,33600
7838,33792
7839,34112
7840,34560
7841,35200
7842,36096
7843,37184
7844,38336
7845,38208
7846,36736
7847,34688
7848,32832
7849,31488
7850,30720
7851,30400
7852,30592
7853,31104
7854,31744
7855,32512
7856,33216
7857,33984
7858,34432
7859,34688
7860,34816
7861,34752
7862,34624
7863,34496
7864,34432
7865,34432
7866,34368
7867,34240
7868,34112
7869,34048
7870,34048
7871,34048
7872,34048
7873,34112
7874,34048
7875,33856
7876,33856
7877,33984
7878,34112
7879,34112
7880,34048
7881,34048
7882,34112
7883,34048
7884,33984
7885,34048
7886,34240
7887,34368
7888,34368
7889,34368
7890,34304
7891,34368
7892,34368
7893,34432
7894,34432
7895,34432
7896,34368
7897,34304
7898,34368
7899,34368
7900,34368
7901,34432
7902,34432
7903,34432
7904,34240
7905,34048
7906,33984
7907,34048
7908,34176
7909,34304
7910,34304
7911,34240
7912,34176
7913,33984
7914,33920
7915,33856
7916,33792
7917,33792
7918,33728
7919,33728
7920,33664
7921,33664
7922,33664
7923,33728
7924,33792
7925,33920
7926,33984
7927,34112
7928,34112
7929,33856
7930,33600
7931,33472
7932,33536
7933,33664
7934,33728
7935,33792
7936,33792
7937,33792
7938,33792
7939,33792
7940,33856
7941,33856
7942,33984
7943,34176
7944,34240
7945,34176
7946,34112
7947,34048
7948,34048
7949,34176
7950,34368
7951,34496
7952,34432
7953,34240
7954,34048
7955,33920
7956,33920
7957,33920
7958,33920
7959,33920
7960,33792
7961,33600
7962,33280
7963,33088
7964,32960
7965,33024
7966,33088
7967,33216
7968,33408
7969,33600
7970,33600
7971,33408
7972,33280
7973,33280
7974,33344
7975,33344
7976,33280
7977,33344
7978,33472
7979,33536
7980,33600
7981,33536
7982,33536
7983,33664
7984,33664
7985,33792
7986,34112
7987,34624
7988,35264
7989,35968
7990,36864
7991,37696
7992,37248
7993,35776
7994,33856
7995,32256
7996,31232
7997,30784
7998,30656
7999,30784
8000,31168
8001,31744
8002,32448
8003,33088
8004,33664
8005,34048
8006,34368
8007,34496
8008,34432
8009,34240
8010,34112
8011,34048
8012,34048
8013,33984
8014,33920
8015,33728
8016,33536
8017,33344
8018,33408
8019,33536
8020,33664
8021,33728
8022,33664
8023,33600
8024,33600
8025,33600
8026,33600
8027,33664
8028,33792
8029,33856
8030,33920
8031,33920
8032,33984
8033,33984
8034,33984
8035,33920
8036,33984
8037,34112
8038,34240
8039,34432
8040,34368
8041,34176
8042,33984
8043,33920
8044,33984
8045,34048
8046,34176
8047,34112
8048,34112
8049,34048
8050,33920
8051,33920
8052,33984
8053,33920
8054,33984
8055,34048
8056,34176
8057,34240
8058,34048
8059,33856
8060,33728
8061,33664
8062,33536
8063,33472
8064,33408
8065,33472
8066,33472
8067,33472
8068,33472
8069,33472
8070,33600
8071,33792
8072,33792
8073,33728
8074,33600
8075,33472
8076,33408
8077,33472
8078,33600
8079,33728
8080,33856
8081,33856
8082,33856
8083,33856
8084,33984
8085,33984
8086,33792
8087,33600
8088,33472
8089,33472
8090,33600
8091,33664
8092,33792
8093,33920
8094,34048
8095,34048
8096,34048
8097,34112
8098,34240
8099,34432
8100,34496
8101,34496
8102,34432
8103,34368
8104,34240
8105,34112
8106,33984
8107,33984
8108,33920
8109,33792
8110,33664
8111,33536
8112,33408
8113,33152
8114,33024
8115,32896
8116,32960
8117,33088
8118,33344
8119,33536
8120,33536
8121,33408
8122,33280
8123,33280
8124,33408
8125,33472
8126,33408
8127,33408
8128,33472
8129,33472
8130,33472
8131,33472
8132,33600
8133,33664
8134,33728
8135,33984
8136,34240
8137,34688
8138,35264
8139,35968
8140,37056
8141,37312
8142,36224
8143,34496
8144,32960
8145,32000
8146,31552
8147,31296
8148,31296
8149,31424
8150,31680
8151,32064
8152,32640
8153,33280
8154,33792
8155,34176
8156,34368
8157,34432
8158,34240
8159,34048
8160,33920
8161,33920
8162,33920
8163,33792
8164,33728
8165,33728
8166,33792
8167,33792
8168,33664
8169,33536
8170,33472
8171,33536
8172,33600
8173,33664
8174,33792
8175,33856
8176,33920
8177,33920
8178,33856
8179,33856
8180,33856
8181,33856
8182,33920
8183,33984
8184,34048
8185,34112
8186,34176
8187,34240
8188,34112
8189,33984
8190,33984
8191,34112
8192,34304
8193,34304
8194,34240
8195,34112
8196,34048
8197,33984
8198,33856
8199,33664
8200,33600
8201,33664
8202,33792
8203,33856
8204,33856
8205,33856
8206,33920
8207,33984
8208,33920
8209,33856
8210,33792
8211,33856
8212,33856
8213,33792
8214,33664
8215,33600
8216,33664
8217,33664
8218,33664
8219,33600
8220,33600
8221,33472
8222,33408
8223,33408
8224,33472
8225,33600
8226,33664
8227,33664
8228,33664
8229,33664
8230,33728
8231,33792
8232,33664
8233,33664
8234,33664
8235,33728
8236,33728
8237,33792
8238,33920
8239,33984
8240,33984
8241,34048
8242,34048
8243,33984
8244,33984
8245,33984
8246,33920
8247,33856
8248,33984
8249,34112
8250,34368
8251,34496
8252,34560
8253,34560
8254,34368
8255,34304
8256,34304
8257,34368
8258,34304
8259,33984
8260,33728
8261,33536
8262,33344
8263,33216
8264,33024
8265,33024
8266,33152
8267,33280
8268,33280
8269,33280
8270,33216
8271,33216
8272,33280
8273,33344
8274,33536
8275,33664
8276,33728
8277,33728
8278,33664
8279,33600
8280,33600
8281,33664
8282,33728
8283,33728
8284,33664
8285,33664
8286,33920
8287,34368
8288,34880
8289,35520
8290,36416
8291,37312
8292,37120
8293,35968
8294,34624
8295,33536
8296,32768
8297,32000
8298,31424
8299,31168
8300,31232
8301,31552
8302,32064
8303,32576
8304,33152
8305,33600
8306,33984
8307,34304
8308,34496
8309,34432
8310,34304
8311,34240
8312,34112
8313,34048
8314,34048
8315,34048
8316,33984
8317,33984
8318,33920
8319,33856
8320,33984
8321,34048
8322,33984
8323,33920
8324,33856
8325,33920
8326,34048
8327,34048
8328,33984
8329,33920
8330,33856
8331,33728
8332,33792
8333,33856
8334,33920
8335,34048
8336,34176
8337,34240
8338,34304
8339,34304
8340,34304
8341,34304
8342,34368
8343,34432
8344,34304
8345,34240
8346,34176
8347,34176
8348,34176
8349,34368
8350,34496
8351,34368
8352,34048
8353,33792
8354,33728
8355,33728
8356,33856
8357,33984
8358,34048
8359,34048
8360,34048
8361,34048
8362,34112
8363,33984
8364,33856
8365,33728
8366,33728
8367,33664
8368,33664
8369,33664
8370,33728
8371,33728
8372,33792
8373,33792
8374,33792
8375,33792
8376,33728
8377,33792
8378,33792
8379,33792
8380,33856
8381,33984
8382,34048
8383,34048
8384,33984
8385,33984
8386,33984
8387,33984
8388,33856
8389,33856
8390,33920
8391,33920
8392,33984
8393,34048
8394,34112
8395,34176
8396,34240
8397,34304
8398,34368
8399,34560
8400,34624
8401,34624
8402,34624
8403,34560
8404,34432
8405,34304
8406,34304
8407,34240
8408,34176
8409,33984
8410,33792
8411,33536
8412,33216
8413,33088
8414,33024
8415,33024
8416,33152
8417,33280
8418,33408
8419,33536
8420,33664
8421,33600
8422,33536
8423,33536
8424,33536
8425,33664
8426,33728
8427,33792
8428,33856
8429,33792
8430,33728
8431,33664
8432,33664
8433,33728
8434,33856
8435,34176
8436,34688
8437,35456
8438,36224
8439,37120
8440,37824
8441,37312
8442,35840
8443,34112
8444,32768
8445,31872
8446,31232
8447,30976
8448,31104
8449,31424
8450,31872
8451,32512
8452,33216
8453,33792
8454,34176
8455,34304
8456,34368
8457,34368
8458,34304
8459,34240
8460,34176
8461,34112
8462,34112
8463,34048
8464,33984
8465,33920
8466,33920
8467,33856
8468,33792
8469,33728
8470,33728
8471,33664
8472,33664
8473,33728
8474,33792
8475,33920
8476,34048
8477,34112
8478,34112
8479,34112
8480,34112
8481,34176
8482,34368
8483,34432
8484,34368
8485,34240
8486,34112
8487,33984
8488,33984
8489,34048
8490,34112
8491,34176
8492,34240
8493,34304
8494,34368
8495,34304
8496,34176
8497,34112
8498,34112
8499,34176
8500,34176
8501,34112
8502,34048
8503,33984
8504,33984
8505,33984
8506,33984
8507,34048
8508,34048
8509,33984
8510,33856
8511,33792
8512,33728
8513,33792
8514,33792
8515,33728
8516,33600
8517,33536
8518,33536
8519,33536
8520,33600
8521,33728
8522,33728
8523,33728
8524,33792
8525,33856
8526,33856
8527,33792
8528,33856
8529,33856
8530,33856
8531,33920
8532,33856
8533,33792
8534,33728
8535,33728
8536,33792
8537,33920
8538,33984
8539,34048
8540,34112
8541,34176
8542,34240
8543,34240
8544,34304
8545,34304
8546,34240
8547,34304
8548,34368
8549,34432
8550,34496
8551,34368
8552,34368
8553,34368
8554,34432
8555,34432
8556,34368
8557,34176
8558,34048
8559,33792
8560,33536
8561,33408
8562,33280
8563,33216
8564,33024
8565,33088
8566,33216
8567,33280
8568,33344
8569,33344
8570,33472
8571,33536
8572,33600
8573,33728
8574,33856
8575,33920
8576,33792
8577,33728
8578,33728
8579,33856
8580,33920
8581,33920
8582,33728
8583,33728
8584,33920
8585,34240
8586,34752
8587,35456
8588,36288
8589,37248
8590,37888
8591,37184
8592,35520
8593,33856
8594,32448
8595,31552
8596,31040
8597,30848
8598,31040
8599,31488
8600,32064
8601,32768
8602,33408
8603,33920
8604,34368
8605,34688
8606,34816
8607,34688
8608,34496
8609,34304
8610,34176
8611,34112
8612,34048
8613,33984
8614,33984
8615,33984
8616,33984
8617,33984
8618,34048
8619,34048
8620,33920
8621,33856
8622,33856
8623,33856
8624,33920
8625,33984
8626,34048
8627,34176
8628,34176
8629,34176
8630,34176
8631,34176
8632,34176
8633,34176
8634,34112
8635,34112
8636,34112
8637,34176
8638,34240
8639,34304
8640,34240
8641,34304
8642,34368
8643,34368
8644,34304
8645,34368
8646,34432
8647,34432
8648,34432
8649,34432
8650,34304
8651,34240
8652,34112
8653,33920
8654,33856
8655,33856
8656,33984
8657,34176
8658,34176
8659,33984
8660,33728
8661,33600
8662,33600
8663,33600
8664,33664
8665,33792
8666,33856
8667,33792
8668,33664
8669,33600
8670,33664
8671,33728
8672,33792
8673,33856
8674,33856
8675,33792
8676,33728
8677,33728
8678,33728
8679,33728
8680,33728
8681,33728
8682,33856
8683,33984
8684,34048
8685,34048
8686,33984
8687,33920
8688,33984
8689,33920
8690,33984
8691,33920
8692,33856
8693,33792
8694,33792
8695,33856
8696,33920
8697,34048
8698,34176
8699,34176
8700,34240
8701,34240
8702,34240
8703,34240
8704,34304
8705,34368
8706,34432
8707,34496
8708,34496
8709,34432
8710,34368
8711,34304
8712,34304
8713,34240
8714,34048
8715,33792
8716,33472
8717,33152
8718,32960
8719,32960
8720,33024
8721,33152
8722,33280
8723,33344
8724,33472
8725,33536
8726,33600
8727,33664
8728,33664
8729,33728
8730,33728
8731,33728
8732,33792
8733,33792
8734,33792
8735,33792
8736,33664
8737,33728
8738,33792
8739,33856
8740,34048
8741,34368
8742,34880
8743,35584
8744,36416
8745,37504
8746,38208
8747,37376
8748,35648
8749,33728
8750,32256
8751,31360
8752,30848
8753,30656
8754,30656
8755,31168
8756,31936
8757,32832
8758,33472
8759,33920
8760,34304
8761,34496
8762,34688
8763,34688
8764,34688
8765,34624
8766,34560
8767,34496
8768,34304
8769,34112
8770,33984
8771,33856
8772,33728
8773,33728
8774,33856
8775,34048
8776,34176
8777,34304
8778,34240
8779,34176
8780,34112
8781,33984
8782,33920
8783,33920
8784,33984
8785,34048
8786,34112
8787,34176
8788,34176
8789,34240
8790,34304
8791,34368
8792,34368
8793,34304
8794,34176
8795,34240
8796,34304
8797,34304
8798,34368
8799,34368
8800,34368
8801,34432
8802,34304
8803,34240
8804,34240
8805,34176
8806,34176
8807,34176
8808,34112
8809,34112
8810,34112
8811,34112
8812,34112
8813,34112
8814,34048
8815,33920
8816,33984
8817,34048
8818,33984
8819,33856
8820,33728
8821,33600
8822,33536
8823,33664
8824,33792
8825,33920
8826,33856
8827,33728
8828,33664
8829,33664
8830,33728
8831,33728
8832,33920
8833,34048
8834,34176
8835,34112
8836,33984
8837,33792
8838,33728
8839,33728
8840,33792
8841,33792
8842,33856
8843,33856
8844,33856
8845,33792
8846,33856
8847,33856
8848,33920
8849,33984
8850,34048
8851,34048
8852,33856
8853,33664
8854,33600
8855,33600
8856,33728
8857,33792
8858,33792
8859,33728
8860,33728
8861,33792
8862,33920
8863,33984
8864,34048
8865,34048
8866,34048
8867,34048
8868,34240
8869,34432
8870,34624
8871,34752
8872,34688
8873,34624
8874,34432
8875,34368
8876,34304
8877,34112
8878,33920
8879,33664
8880,33408
8881,33216
8882,33152
8883,33152
8884,33216
8885,33280
8886,33344
8887,33408
8888,33472
8889,33536
8890,33536
8891,33600
8892,33792
8893,33792
8894,33856
8895,33856
8896,33792
8897,33856
8898,33856
8899,33920
8900,33856
8901,33728
8902,33728
8903,33664
8904,33664
8905,33920
8906,34496
8907,35456
8908,36224
8909,37312
8910,38272
8911,37952
8912,36288
8913,34240
8914,32384
8915,31104
8916,30400
8917,30080
8918,30272
8919,30720
8920,31488
8921,32448
8922,33344
8923,33920
8924,34304
8925,34560
8926,34752
8927,34816
8928,34688
8929,34560
8930,34432
8931,34368
8932,34368
8933,34304
8934,34176
8935,33984
8936,33792
8937,33536
8938,33536
8939,33600
8940,33664
8941,33792
8942,33984
8943,34112
8944,34176
8945,34112
8946,34048
8947,34048
8948,34048
8949,34048
8950,33984
8951,33920
8952,33920
8953,33920
8954,33984
8955,34048
8956,34112
8957,34176
8958,34304
8959,34304
8960,34304
8961,34176
8962,34176
8963,34176
8964,34304
8965,34496
8966,34560
8967,34496
8968,34304
8969,34048
8970,33984
8971,33920
8972,33920
8973,33984
8974,34112
8975,34176
8976,34240
8977,34240
8978,34176
8979,34112
8980,33984
8981,33920
8982,33920
8983,33920
8984,33984
8985,34048
8986,34048
8987,33984
8988,33920
8989,33856
8990,33728
8991,33600
8992,33472
8993,33344
8994,33344
8995,33408
8996,33536
8997,33728
8998,33792
8999,33856
9000,33984
9001,34048
9002,34176
9003,34240
9004,34304
9005,34176
9006,33984
9007,33856
9008,33792
9009,33728
9010,33728
9011,33664
9012,33600
9013,33536
9014,33600
9015,33664
9016,33664
9017,33728
9018,33792
9019,33856
9020,33856
9021,33920
9022,33856
9023,33856
9024,33792
9025,33792
9026,33792
9027,33664
9028,33600
9029,33536
9030,33600
9031,33664
9032,33728
9033,33792
9034,33792
9035,33728
9036,33664
9037,33600
9038,33664
9039,33600
9040,33536
9041,33600
9042,33920
9043,33984
9044,34048
9045,34048
9046,34048
9047,34112
9048,34112
9049,34048
9050,34112
9051,34240
9052,34368
9053,34496
9054,34432
9055,34368
9056,34240
9057,34112
9058,34048
9059,34112
9060,34048
9061,33984
9062,33728
9063,33536
9064,33344
9065,33216
9066,33216
9067,33216
9068,33152
9069,33088
9070,33152
9071,33344
9072,33536
9073,33600
9074,33600
9075,33664
9076,33728
9077,33664
9078,33536
9079,33536
9080,33536
9081,33536
9082,33408
9083,33472
9084,33600
9085,33728
9086,33920
9087,34368
9088,34624
9089,35328
9090,36160
9091,37184
9092,37696
9093,36800
9094,35072
9095,33216
9096,32000
9097,31232
9098,30912
9099,30976
9100,31296
9101,31616
9102,32192
9103,32512
9104,33088
9105,33600
9106,34112
9107,34432
9108,34496
9109,34432
9110,34304
9111,34176
9112,34048
9113,34048
9114,33984
9115,33920
9116,33920
9117,33920
9118,33856
9119,33792
9120,33728
9121,33728
9122,33728
9123,33600
9124,33536
9125,33600
9126,33728
9127,33728
9128,33792
9129,33856
9130,33856
9131,33856
9132,33856
9133,33920
9134,33920
9135,33984
9136,34112
9137,34176
9138,34112
9139,34112
9140,34112
9141,34112
9142,34112
9143,34112
9144,34112
9145,34176
9146,34176
9147,34112
9148,34048
9149,33984
9150,33856
9151,33856
9152,33856
9153,33856
9154,33984
9155,34048
9156,34112
9157,34112
9158,34048
9159,34048
9160,34112
9161,34240
9162,34240
9163,34112
9164,33920
9165,33856
9166,33728
9167,33536
9168,33536
9169,33600
9170,33664
9171,33728
9172,33728
9173,33728
9174,33664
9175,33600
9176,33472
9177,33408
9178,33600
9179,33728
9180,33792
9181,33728
9182,33728
9183,33728
9184,33728
9185,33728
9186,33792
9187,33856
9188,33792
9189,33856
9190,33856
9191,33856
9192,33856
9193,33792
9194,33664
9195,33664
9196,33600
9197,33664
9198,33728
9199,33728
9200,33792
9201,33728
9202,33728
9203,33664
9204,33792
9205,33792
9206,33664
9207,33600
9208,33664
9209,33728
9210,33792
9211,33728
9212,33792
9213,33728
9214,33856
9215,33856
9216,33792
9217,33792
9218,33728
9219,33792
9220,33856
9221,34176
9222,34112
9223,34240
9224,34496
9225,34304
9226,34176
9227,34112
9228,34176
9229,34240
9230,34176
9231,33984
9232,33728
9233,33536
9234,33408
9235,33344
9236,33152
9237,33088
9238,33024
9239,33088
9240,33216
9241,33280
9242,33344
9243,33408
9244,33536
9245,33600
9246,33664
9247,33664
9248,33728
9249,33664
9250,33728
9251,33728
9252,33664
9253,33600
9254,33536
9255,33472
9256,33536
9257,33728
9258,34112
9259,34688
9260,35392
9261,36096
9262,37056
9263,37120
9264,36800
9265,35200
9266,33152
9267,33024
9268,31808
9269,31488
9270,31360
9271,31424
9272,31616
9273,31936
9274,32512
9275,33024
9276,33472
9277,33856
9278,34112
9279,34304
9280,34368
9281,34368
9282,34304
9283,34368
9284,34368
9285,34304
9286,34176
9287,33984
9288,33920
9289,33792
9290,33792
9291,33728
9292,33664
9293,33536
9294,33472
9295,33536
9296,33664
9297,33664
9298,33728
9299,33984
9300,34112
9301,34112
9302,33984
9303,33920
9304,33856
9305,33920
9306,33984
9307,34112
9308,34176
9309,34112
9310,33984
9311,34048
9312,33984
9313,34048
9314,34048
9315,33984
9316,33984
9317,33984
9318,33984
9319,33920
9320,33984
9321,34048
9322,34112
9323,34112
9324,34048
9325,33984
9326,33984
9327,33920
9328,33856
9329,33856
9330,33920
9331,33984
9332,33984
9333,33984
9334,33920
9335,33792
9336,33728
9337,33728
9338,33728
9339,33792
9340,33728
9341,33664
9342,33536
9343,33472
9344,33472
9345,33600
9346,33728
9347,33728
9348,33600
9349,33472
9350,33536
9351,33600
9352,33728
9353,33792
9354,33792
9355,33856
9356,33856
9357,33856
9358,33856
9359,33792
9360,33728
9361,33728
9362,33792
9363,33856
9364,33792
9365,33792
9366,33856
9367,33856
9368,33856
9369,33856
9370,33792
9371,33856
9372,33856
9373,33856
9374,33792
9375,33728
9376,33664
9377,33664
9378,33728
9379,33856
9380,33920
9381,33920
9382,33856
9383,33856
9384,33856
9385,33856
9386,33920
9387,34112
9388,34368
9389,34496
9390,34624
9391,34624
9392,34560
9393,34432
9394,34304
9395,34112
9396,33984
9397,33856
9398,33664
9399,33472
9400,33408
9401,33280
9402,33152
9403,33024
9404,33088
9405,33216
9406,33280
9407,33344
9408,33344
9409,33472
9410,33664
9411,33728
9412,33792
9413,33728
9414,33664
9415,33472
9416,33408
9417,33472
9418,33536
9419,33536
9420,33536
9421,33664
9422,33792
9423,33984
9424,34304
9425,34816
9426,35584
9427,36480
9428,37440
9429,37440
9430,36416
9431,34816
9432,33408
9433,32384
9434,31744
9435,31424
9436,31360
9437,31488
9438,31744
9439,32192
9440,32768
9441,33344
9442,33728
9443,33920
9444,34112
9445,34304
9446,34368
9447,34368
9448,34240
9449,34176
9450,34176
9451,34240
9452,34176
9453,33984
9454,33728
9455,33600
9456,33536
9457,33600
9458,33728
9459,33792
9460,33792
9461,33920
9462,34048
9463,34112
9464,34048
9465,33920
9466,33856
9467,33920
9468,33984
9469,33984
9470,33984
9471,34048
9472,34048
9473,34048
9474,34048
9475,34176
9476,34240
9477,34240
9478,34304
9479,34240
9480,34240
9481,34176
9482,34240
9483,34368
9484,34560
9485,34560
9486,34368
9487,34112
9488,33920
9489,33664
9490,33536
9491,33536
9492,33728
9493,33856
9494,33920
9495,33984
9496,34048
9497,34048
9498,34048
9499,33984
9500,34048
9501,34048
9502,33984
9503,33856
9504,33792
9505,33664
9506,33664
9507,33728
9508,33856
9509,33984
9510,33984
9511,33792
9512,33600
9513,33536
9514,33408
9515,33280
9516,33344
9517,33536
9518,33728
9519,33856
9520,33856
9521,33856
9522,33856
9523,33856
9524,33856
9525,33920
9526,33920
9527,33984
9528,33984
9529,34048
9530,34048
9531,33984
9532,33856
9533,33792
9534,33792
9535,33856
9536,34048
9537,34112
9538,34048
9539,33856
9540,33792
9541,33856
9542,33984
9543,33984
9544,33984
9545,34048
9546,34304
9547,34560
9548,34560
9549,34496
9550,34432
9551,34368
9552,34304
9553,34304
9554,34176
9555,34048
9556,33984
9557,33792
9558,33664
9559,33536
9560,33344
9561,33152
9562,33152
9563,33344
9564,33472
9565,33472
9566,33344
9567,33344
9568,33344
9569,33408
9570,33536
9571,33600
9572,33792
9573,33920
9574,33920
9575,33856
9576,33792
9577,33728
9578,33664
9579,33600
9580,33664
9581,33792
9582,33984
9583,34368
9584,34944
9585,35648
9586,36544
9587,37504
9588,37888
9589,37056
9590,35392
9591,33728
9592,32384
9593,31744
9594,31360
9595,31168
9596,31296
9597,31616
9598,31936
9599,32448
9600,33024
9601,33600
9602,34112
9603,34432
9604,34624
9605,34624
9606,34432
9607,34240
9608,34112
9609,34048
9610,33984
9611,33856
9612,33792
9613,33856
9614,33920
9615,33984
9616,33984
9617,33984
9618,33984
9619,33984
9620,33984
9621,34048
9622,34048
9623,34048
9624,34048
9625,34112
9626,34112
9627,34048
9628,34048
9629,34112
9630,34176
9631,34112
9632,34048
9633,34112
9634,34176
9635,34240
9636,34304
9637,34304
9638,34240
9639,34176
9640,34112
9641,34112
9642,34176
9643,34240
9644,34176
9645,34176
9646,34240
9647,34240
9648,34176
9649,34112
9650,34112
9651,34112
9652,34048
9653,34048
9654,34048
9655,34048
9656,34048
9657,33984
9658,33920
9659,33856
9660,33792
9661,33728
9662,33664
9663,33664
9664,33600
9665,33600
9666,33728
9667,33792
9668,33856
9669,33792
9670,33728
9671,33664
9672,33600
9673,33536
9674,33536
9675,33536
9676,33600
9677,33600
9678,33600
9679,33728
9680,33856
9681,33920
9682,33984
9683,34048
9684,34112
9685,34176
9686,34112
9687,34048
9688,33984
9689,33920
9690,33856
9691,33792
9692,33792
9693,33792
9694,33856
9695,33984
9696,33984
9697,33856
9698,33728
9699,33664
9700,33792
9701,33920
9702,33984
9703,33984
9704,34112
9705,34368
9706,34688
9707,34880
9708,34880
9709,34816
9710,34624
9711,34432
9712,34368
9713,34368
9714,34240
9715,34048
9716,33856
9717,33664
9718,33536
9719,33408
9720,33344
9721,33280
9722,33216
9723,33152
9724,33152
9725,33216
9726,33344
9727,33472
9728,33600
9729,33600
9730,33792
9731,33856
9732,33920
9733,33856
9734,33920
9735,33920
9736,33920
9737,33856
9738,33728
9739,33664
9740,33664
9741,33728
9742,33984
9743,34432
9744,35008
9745,35584
9746,36224
9747,37248
9748,37952
9749,37376
9750,35904
9751,34112
9752,32640
9753,31680
9754,31232
9755,31040
9756,31232
9757,31552
9758,32128
9759,32704
9760,33280
9761,33728
9762,34048
9763,34240
9764,34368
9765,34432
9766,34432
9767,34368
9768,34304
9769,34240
9770,34176
9771,34304
9772,34368
9773,34176
9774,33984
9775,33856
9776,33792
9777,33728
9778,33664
9779,33728
9780,33856
9781,33984
9782,34048
9783,34112
9784,34176
9785,34176
9786,34240
9787,34240
9788,34304
9789,34304
9790,34368
9791,34304
9792,34240
9793,34112
9794,34112
9795,34176
9796,34240
9797,34240
9798,34240
9799,34304
9800,34304
9801,34368
9802,34304
9803,34304
9804,34368
9805,34560
9806,34624
9807,34560
9808,34304
9809,34112
9810,33984
9811,33920
9812,33920
9813,34048
9814,34048
9815,33984
9816,33984
9817,33984
9818,33984
9819,33984
9820,33920
9821,33792
9822,33728
9823,33664
9824,33600
9825,33600
9826,33664
9827,33728
9828,33728
9829,33792
9830,33920
9831,34048
9832,34176
9833,34048
9834,33856
9835,33664
9836,33536
9837,33664
9838,33792
9839,33792
9840,33728
9841,33664
9842,33728
9843,33792
9844,33920
9845,33920
9846,33984
9847,33984
9848,33984
9849,33984
9850,34048
9851,34048
9852,34048
9853,34048
9854,34048
9855,33984
9856,33984
9857,33984
9858,33984
9859,34048
9860,34176
9861,34176
9862,34176
9863,34240
9864,34240
9865,34304
9866,34496
9867,34688
9868,34688
9869,34624
9870,34560
9871,34560
9872,34432
9873,34304
9874,34240
9875,34112
9876,33920
9877,33728
9878,33472
9879,33216
9880,33152
9881,33152
9882,33216
9883,33280
9884,33408
9885,33536
9886,33600
9887,33728
9888,33984
9889,34048
9890,33856
9891,33664
9892,33664
9893,33664
9894,33728
9895,33856
9896,33856
9897,33856
9898,33792
9899,33728
9900,33792
9901,33792
9902,33920
9903,34240
9904,34688
9905,35328
9906,36032
9907,36992
9908,38208
9909,38592
9910,37504
9911,35456
9912,33216
9913,31552
9914,30656
9915,30272
9916,30272
9917,30656
9918,31360
9919,32128
9920,32960
9921,33728
9922,34304
9923,34752
9924,34944
9925,35008
9926,34944
9927,34816
9928,34688
9929,34560
9930,34368
9931,34176
9932,34048
9933,33984
9934,33984
9935,33920
9936,33920
9937,34048
9938,34176
9939,34240
9940,34240
9941,34176
9942,34048
9943,33920
9944,33920
9945,34048
9946,34176
9947,34176
9948,34240
9949,34240
9950,34176
9951,34176
9952,34176
9953,34176
9954,34176
9955,34304
9956,34368
9957,34432
9958,34432
9959,34496
9960,34496
9961,34496
9962,34432
9963,34432
9964,34432
9965,34432
9966,34432
9967,34368
9968,34240
9969,34176
9970,34112
9971,34048
9972,34112
9973,34240
9974,34304
9975,34304
9976,34304
9977,34240
9978,34112
9979,34048
9980,33984
9981,33920
9982,33856
9983,33792
9984,33728
9985,33728
9986,33728
9987,33728
9988,33792
9989,33856
9990,33856
9991,33856
9992,33792
9993,33728
9994,33664
9995,33600
9996,33664
9997,33728
9998,33920
9999,34048
10000,34048
10001,34112
10002,34112
10003,34048
10004,34048
10005,33984
10006,33856
10007,33728
10008,33664
10009,33728
10010,33728
10011,33728
10012,33728
10013,33728
10014,33856
10015,33920
10016,33920
10017,33856
10018,33792
10019,33856
10020,33856
10021,33856
10022,33920
10023,33920
10024,33920
10025,33984
10026,34112
10027,34112
10028,34112
10029,34048
10030,34048
10031,34240
10032,34432
10033,34560
10034,34688
10035,34688
10036,34624
10037,34496
10038,34368
10039,34304
10040,34240
10041,34176
10042,33984
10043,33728
10044,33408
10045,33088
10046,33024
10047,33024
10048,33088
10049,33216
10050,33472
10051,33664
10052,33792
10053,33792
10054,33792
10055,33728
10056,33664
10057,33664
10058,33664
10059,33664
10060,33728
10061,33728
10062,33856
10063,33856
10064,33792
10065,33728
10066,33600
10067,33728
10068,34112
10069,34624
10070,35392
10071,36480
10072,37696
10073,38528
10074,37760
10075,35840
10076,33792
10077,32192
10078,31232
10079,30592
10080,30272
10081,30400
10082,30848
10083,31680
10084,32640
10085,33408
10086,33856
10087,34176
10088,34432
10089,34624
10090,34624
10091,34496
10092,34368
10093,34240
10094,34112
10095,34112
10096,34112
10097,34176
10098,34112
10099,34048
10100,33984
10101,33856
10102,33728
10103,33600
10104,33536
10105,33536
10106,33536
10107,33600
10108,33664
10109,33792
10110,33856
10111,33920
10112,33984
10113,34112
10114,34112
10115,34112
10116,34112
10117,34112
10118,34240
10119,34368
10120,34368
10121,34240
10122,34112
10123,34112
10124,34112
10125,34048
10126,34048
10127,33984
10128,33984
10129,33984
10130,33984
10131,33984
10132,34048
10133,34112
10134,34112
10135,34112
10136,34048
10137,34048
10138,33984
10139,34048
10140,34048
10141,34048
10142,34048
10143,33984
10144,33856
10145,33728
10146,33664
10147,33664
10148,33664
10149,33536
10150,33536
10151,33600
10152,33600
10153,33536
10154,33472
10155,33536
10156,33600
10157,33600
10158,33536
10159,33536
10160,33536
10161,33600
10162,33536
10163,33536
10164,33600
10165,33600
10166,33664
10167,33728
10168,33856
10169,33920
10170,33920
10171,33792
10172,33728
10173,33728
10174,33728
10175,33728
10176,33728
10177,33856
10178,33856
10179,33792
10180,33664
10181,33536
10182,33472
10183,33472
10184,33472
10185,33600
10186,33600
10187,33536
10188,33536
10189,33664
10190,33792
10191,33856
10192,33856
10193,33792
10194,33792
10195,33792
10196,33856
10197,34048
10198,34176
10199,34368
10200,34432
10201,34368
10202,34240
10203,34112
10204,33920
10205,33920
10206,33856
10207,33792
10208,33792
10209,33728
10210,33600
10211,33472
10212,33152
10213,33024
10214,33024
10215,33024
10216,33088
10217,33152
10218,33280
10219,33344
10220,33408
10221,33408
10222,33408
10223,33472
10224,33472
10225,33536
10226,33600
10227,33664
10228,33600
10229,33536
10230,33408
10231,33344
10232,33408
10233,33408
10234,33600
10235,33984
10236,34496
10237,35200
10238,36096
10239,36928
10240,37568
10241,36928
10242,35392
10243,33792
10244,32576
10245,31808
10246,31360
10247,31232
10248,31296
10249,31424
10250,31680
10251,32192
10252,32832
10253,33408
10254,33792
10255,34112
10256,34240
10257,34368
10258,34304
10259,34240
10260,34176
10261,34048
10262,33984
10263,33856
10264,33856
10265,33920
10266,33920
10267,33920
10268,33792
10269,33728
10270,33664
10271,33600
10272,33600
10273,33600
10274,33600
10275,33664
10276,33728
10277,33856
10278,33984
10279,33984
10280,33984
10281,34048
10282,34048
10283,34048
10284,33984
10285,33984
10286,33984
10287,34048
10288,34112
10289,34176
10290,34176
10291,34176
10292,34176
10293,34112
10294,33984
10295,33856
10296,33856
10297,33920
10298,33984
10299,33984
10300,33920
10301,33856
10302,33856
10303,33856
10304,33856
10305,33856
10306,33856
10307,33856
10308,33856
10309,33856
10310,33856
10311,33792
10312,33664
10313,33664
10314,33600
10315,33664
10316,33728
10317,33728
10318,33728
10319,33728
10320,33664
10321,33600
10322,33472
10323,33472
10324,33472
10325,33600
10326,33600
10327,33472
10328,33408
10329,33408
10330,33536
10331,33728
10332,33920
10333,33920
10334,33856
10335,33792
10336,33728
10337,33728
10338,33664
10339,33728
10340,33856
10341,33920
10342,33984
10343,34048
10344,33984
10345,33920
10346,33792
10347,33792
10348,33792
10349,33792
10350,33856
10351,33920
10352,33984
10353,34048
10354,34048
10355,34112
10356,34176
10357,34368
10358,34496
10359,34496
10360,34496
10361,34432
10362,34432
10363,34432
10364,34304
10365,34048
10366,33792
10367,33664
10368,33536
10369,33472
10370,33344
10371,33216
10372,33152
10373,33152
10374,33152
10375,33216
10376,33280
10377,33408
10378,33472
10379,33536
10380,33536
10381,33600
10382,33664
10383,33792
10384,33920
10385,33984
10386,33920
10387,33664
10388,33536
10389,33472
10390,33472
10391,33536
10392,33664
10393,33920
10394,34496
10395,34944
10396,35456
10397,36096
10398,36928
10399,37440
10400,36736
10401,35264
10402,33728
10403,32576
10404,31936
10405,31552
10406,31360
10407,31424
10408,31616
10409,31936
10410,32448
10411,33024
10412,33536
10413,33984
10414,34240
10415,34368
10416,34368
10417,34368
10418,34368
10419,34304
10420,34176
10421,34112
10422,34112
10423,34112
10424,34048
10425,33984
10426,33920
10427,33792
10428,33664
10429,33600
10430,33664
10431,33792
10432,33792
10433,33792
10434,33728
10435,33856
10436,33920
10437,34048
10438,34048
10439,34112
10440,34176
10441,34240
10442,34240
10443,34304
10444,34368
10445,34368
10446,34304
10447,34112
10448,34048
10449,34048
10450,34112
10451,34176
10452,34240
10453,34240
10454,34176
10455,34112
10456,34048
10457,33984
10458,33984
10459,33984
10460,34048
10461,34048
10462,34048
10463,34048
10464,34048
10465,34048
10466,33920
10467,33920
10468,33920
10469,33920
10470,33792
10471,33728
10472,33728
10473,33728
10474,33728
10475,33664
10476,33664
10477,33664
10478,33792
10479,33792
10480,33792
10481,33792
10482,33728
10483,33664
10484,33664
10485,33728
10486,33792
10487,33792
10488,33792
10489,33792
10490,33792
10491,33856
10492,33856
10493,33920
10494,33984
10495,33984
10496,33920
10497,33984
10498,33984
10499,33984
10500,33920
10501,33920
10502,33920
10503,33984
10504,34048
10505,34048
10506,34112
10507,34176
10508,34240
10509,34432
10510,34688
10511,34752
10512,34752
10513,34688
10514,34624
10515,34560
10516,34496
10517,34304
10518,34176
10519,34048
10520,33856
10521,33600
10522,33280
10523,33088
10524,32960
10525,32896
10526,32960
10527,33024
10528,33152
10529,33216
10530,33280
10531,33408
10532,33536
10533,33664
10534,33728
10535,33792
10536,33856
10537,33792
10538,33728
10539,33728
10540,33728
10541,33728
10542,33728
10543,33728
10544,33792
10545,33856
10546,33920
10547,34048
10548,34496
10549,35072
10550,35776
10551,36736
10552,37632
10553,37440
10554,36096
10555,34432
10556,33024
10557,32000
10558,31488
10559,31296
10560,31360
10561,31552
10562,31808
10563,32320
10564,32832
10565,33344
10566,33856
10567,34176
10568,34368
10569,34368
10570,34304
10571,34240
10572,34176
10573,34112
10574,34048
10575,33984
10576,33984
10577,34048
10578,34048
10579,34048
10580,33984
10581,33984
10582,33984
10583,33984
10584,33984
10585,33984
10586,33984
10587,33984
10588,33984
10589,34048
10590,34112
10591,34240
10592,34304
10593,34112
10594,33920
10595,33792
10596,33792
10597,33920
10598,33984
10599,34112
10600,34240
10601,34304
10602,34304
10603,34368
10604,34368
10605,34368
10606,34304
10607,34304
10608,34368
10609,34368
10610,34368
10611,34368
10612,34304
10613,34240
10614,34112
10615,33984
10616,33984
10617,34048
10618,34048
10619,33984
10620,33856
10621,33728
10622,33728
10623,33728
10624,33792
10625,33920
10626,33984
10627,33984
10628,33856
10629,33664
10630,33536
10631,33536
10632,33536
10633,33472
10634,33472
10635,33600
10636,33664
10637,33728
10638,33792
10639,33856
10640,33920
10641,33984
10642,33984
10643,33920
10644,33920
10645,33920
10646,33920
10647,33920
10648,33856
10649,33920
10650,33984
10651,33984
10652,33984
10653,34048
10654,34112
10655,34176
10656,34240
10657,34240
10658,34176
10659,34112
10660,34048
10661,34112
10662,34112
10663,34176
10664,34432
10665,34688
10666,34880
10667,34880
10668,34688
10669,34496
10670,34304
10671,34176
10672,33984
10673,33920
10674,33856
10675,33728
10676,33600
10677,33536
10678,33408
10679,33408
10680,33472
10681,33472
10682,33472
10683,33536
10684,33536
10685,33536
10686,33536
10687,33600
10688,33664
10689,33664
10690,33728
10691,33728
10692,33728
10693,33664
10694,33664
10695,33728
10696,33792
10697,33792
10698,33728
10699,33856
10700,33920
10701,34112
10702,34368
10703,34752
10704,35200
10705,35840
10706,36672
10707,37952
10708,37824
10709,36672
10710,34880
10711,33152
10712,31872
10713,31104
10714,30784
10715,30848
10716,31232
10717,31680
10718,32384
10719,33024
10720,33600
10721,34048
10722,34496
10723,34688
10724,34816
10725,34816
10726,34688
10727,34560
10728,34432
10729,34304
10730,34176
10731,34112
10732,34048
10733,33984
10734,33856
10735,33856
10736,33920
10737,33984
10738,33920
10739,33984
10740,33984
10741,34048
10742,34048
10743,34112
10744,34112
10745,34112
10746,33984
10747,33984
10748,34048
10749,34112
10750,34240
10751,34240
10752,34304
10753,34432
10754,34496
10755,34432
10756,34368
10757,34368
10758,34304
10759,34304
10760,34368
10761,34432
10762,34432
10763,34432
10764,34304
10765,34240
10766,34176
10767,34240
10768,34304
10769,34368
10770,34368
10771,34368
10772,34304
10773,34176
10774,33984
10775,33792
10776,33664
10777,33664
10778,33664
10779,33728
10780,33728
10781,33792
10782,33920
10783,33920
10784,33856
10785,33792
10786,33792
10787,33728
10788,33728
10789,33728
10790,33856
10791,33920
10792,33984
10793,33984
10794,33920
10795,33792
10796,33664
10797,33728
10798,33728
10799,33792
10800,33792
10801,33792
10802,33856
10803,33920
10804,33920
10805,33984
10806,33920
10807,33920
10808,33920
10809,33920
10810,33984
10811,33984
10812,33984
10813,34048
10814,33984
10815,33920
10816,33856
10817,33792
10818,33792
10819,33792
10820,33792
10821,33856
10822,33984
10823,34048
10824,34176
10825,34304
10826,34432
10827,34496
10828,34496
10829,34560
10830,34496
10831,34496
10832,34432
10833,34368
10834,34304
10835,34304
10836,34432
10837,34432
10838,34304
10839,33984
10840,33600
10841,33344
10842,33152
10843,33088
10844,33152
10845,33280
10846,33472
10847,33600
10848,33728
10849,33792
10850,33728
10851,33728
10852,33728
10853,33856
10854,33856
10855,33856
10856,33856
10857,33856
10858,33920
10859,33920
10860,33920
10861,33856
10862,33792
10863,33792
10864,33792
10865,33920
10866,34240
10867,34688
10868,35456
10869,36672
10870,37888
10871,38848
10872,37760
10873,36352
10874,34112
10875,32192
10876,30976
10877,30208
10878,29888
10879,30080
10880,30720
10881,31744
10882,32704
10883,33600
10884,34240
10885,34752
10886,35072
10887,35136
10888,34944
10889,34752
10890,34496
10891,34368
10892,34304
10893,34240
10894,34304
10895,34432
10896,34432
10897,34176
10898,33984
10899,33792
10900,33792
10901,33792
10902,33856
10903,33920
10904,33984
10905,33984
10906,34048
10907,34048
10908,34112
10909,34112
10910,34112
10911,34176
10912,34304
10913,34304
10914,34368
10915,34368
10916,34368
10917,34304
10918,34432
10919,34496
10920,34624
10921,34624
10922,34496
10923,34368
10924,34240
