,ECG
0,35136
1,34752
2,35136
3,35136
4,34112
5,33024
6,32512
7,32384
8,32384
9,32576
10,32960
11,33408
12,33856
13,34112
14,34368
15,34560
16,34560
17,34432
18,34432
19,34624
20,34752
21,34816
22,34944
23,35200
24,35328
25,35072
26,34752
27,34496
28,34240
29,34048
30,33856
31,33728
32,33728
33,33792
34,33984
35,34304
36,34496
37,34240
38,33792
39,33472
40,33536
41,33600
42,33536
43,33600
44,33792
45,33920
46,33984
47,34240
48,34688
49,34816
50,34240
51,33728
52,33472
53,33472
54,33472
55,33600
56,33856
57,34304
58,34816
59,35392
60,36352
61,37888
62,39488
63,40320
64,40064
65,38208
66,35520
67,33024
68,31488
69,30848
70,30656
71,30720
72,31168
73,31744
74,32192
75,32768
76,33408
77,33792
78,34368
79,35136
80,35264
81,34688
82,34304
83,34176
84,34048
85,34048
86,34176
87,34240
88,34176
89,33856
90,33728
91,33728
92,33856
93,34240
94,34560
95,34624
96,34560
97,34304
98,34368
99,34176
100,33536
101,33024
102,33024
103,33344
104,33536
105,33664
106,33856
107,34176
108,34304
109,34368
110,34432
111,34496
112,34496
113,34432
114,34432
115,34560
116,34560
117,34432
118,34432
119,34432
120,34496
121,34496
122,34432
123,34496
124,34560
125,34560
126,34496
127,34560
128,34688
129,34688
130,34688
131,34688
132,34688
133,34688
134,34624
135,34688
136,34816
137,34816
138,34752
139,34752
140,34688
141,34496
142,34240
143,34048
144,34048
145,34048
146,34048
147,33984
148,33920
149,33984
150,34112
151,34176
152,34304
153,34432
154,34432
155,34432
156,34432
157,34432
158,34368
159,34240
160,34304
161,34432
162,34560
163,34560
164,34560
165,34624
166,34560
167,34432
168,34432
169,34368
170,34368
171,34304
172,34368
173,34432
174,34496
175,34496
176,34432
177,34432
178,34496
179,34432
180,34304
181,34240
182,34304
183,34240
184,34240
185,34240
186,34240
187,34176
188,34112
189,34112
190,34112
191,34112
192,33984
193,33984
194,34048
195,34112
196,34176
197,34176
198,34240
199,34240
200,34240
201,34176
202,34048
203,33856
204,33792
205,33664
206,33664
207,33728
208,33792
209,33920
210,34048
211,34176
212,34176
213,34048
214,33984
215,34048
216,34112
217,34368
218,34560
219,34496
220,34176
221,33856
222,33664
223,33600
224,33664
225,33728
226,33728
227,33728
228,33856
229,33920
230,33856
231,33856
232,33984
233,34048
234,34112
235,34304
236,34496
237,34560
238,34496
239,34496
240,34560
241,34496
242,34304
243,34112
244,33984
245,33920
246,33792
247,33536
248,33472
249,33600
250,33664
251,33600
252,33472
253,33472
254,33472
255,33536
256,33600
257,33728
258,33792
259,33792
260,33856
261,33984
262,34048
263,34048
264,34048
265,34112
266,34112
267,33984
268,33792
269,33728
270,33920
271,34112
272,34368
273,35008
274,36224
275,38016
276,39040
277,39424
278,38592
279,36352
280,33664
281,31616
282,30464
283,30016
284,30144
285,30656
286,31424
287,32192
288,32832
289,33408
290,33984
291,34304
292,34496
293,34688
294,34752
295,34624
296,34432
297,34240
298,34176
299,34176
300,34048
301,33920
302,33856
303,33856
304,33792
305,33792
306,33792
307,33920
308,33920
309,33920
310,33920
311,33984
312,34048
313,34048
314,34112
315,34176
316,34176
317,34176
318,34176
319,34240
320,34240
321,34176
322,33984
323,33920
324,33856
325,33856
326,33856
327,33920
328,34048
329,34112
330,34176
331,34240
332,34304
333,34368
334,34368
335,34432
336,34496
337,34496
338,34432
339,34432
340,34496
341,34560
342,34560
343,34496
344,34432
345,34432
346,34304
347,34112
348,33984
349,33984
350,34048
351,34048
352,34112
353,34112
354,34112
355,34048
356,33984
357,34048
358,34048
359,34048
360,34048
361,34112
362,34112
363,33984
364,33920
365,33856
366,33856
367,33856
368,33856
369,33856
370,33856
371,33792
372,33728
373,33856
374,33984
375,34048
376,34112
377,34240
378,34304
379,34304
380,34176
381,34048
382,34048
383,34048
384,33984
385,33984
386,34048
387,34048
388,34048
389,34176
390,34176
391,34240
392,34176
393,34176
394,34240
395,34176
396,34112
397,34048
398,34112
399,34240
400,34304
401,34176
402,33920
403,33792
404,33728
405,33728
406,33792
407,33856
408,33920
409,33920
410,33984
411,33984
412,33984
413,33920
414,33920
415,33984
416,34048
417,34112
418,34176
419,34304
420,34240
421,34176
422,34240
423,34368
424,34432
425,34432
426,34496
427,34496
428,34432
429,34304
430,34176
431,34112
432,33984
433,33856
434,33728
435,33664
436,33728
437,33728
438,33600
439,33472
440,33536
441,33536
442,33536
443,33536
444,33600
445,33792
446,33792
447,33856
448,33984
449,34048
450,33856
451,33728
452,33792
453,33792
454,33792
455,33664
456,33728
457,33984
458,34176
459,34496
460,35072
461,36288
462,37888
463,39232
464,39808
465,38976
466,36672
467,33856
468,31744
469,30528
470,30080
471,30144
472,30592
473,31360
474,32192
475,32896
476,33664
477,33984
478,34240
479,34304
480,34368
481,34368
482,34432
483,34496
484,34368
485,34304
486,34240
487,34176
488,34112
489,34048
490,34112
491,34240
492,34240
493,34112
494,33984
495,33984
496,33920
497,33920
498,33920
499,34048
500,34176
501,34048
502,33984
503,33984
504,34048
505,34112
506,34112
507,34048
508,34048
509,34112
510,34112
511,34112
512,34112
513,34112
514,34112
515,34240
516,34304
517,34304
518,34304
519,34304
520,34368
521,34432
522,34432
523,34496
524,34560
525,34496
526,34432
527,34368
528,34432
529,34432
530,34368
531,34304
532,34304
533,34240
534,34176
535,34240
536,34304
537,34304
538,34304
539,34240
540,34304
541,34112
542,33856
543,33728
544,33664
545,33664
546,33600
547,33600
548,33600
549,33536
550,33536
551,33536
552,33600
553,33792
554,33920
555,33920
556,33920
557,33920
558,33920
559,33856
560,34048
561,34112
562,34240
563,34240
564,34176
565,34240
566,34240
567,34176
568,34112
569,34112
570,34176
571,34176
572,34112
573,34048
574,33984
575,33920
576,33856
577,33920
578,34048
579,34112
580,34176
581,34240
582,34240
583,34240
584,34048
585,33920
586,33920
587,33984
588,34048
589,34176
590,34176
591,34048
592,33792
593,33728
594,33728
595,33920
596,33984
597,33920
598,33920
599,33984
600,33984
601,33920
602,33920
603,33984
604,34048
605,34048
606,34048
607,34048
608,34048
609,34048
610,34176
611,34304
612,34496
613,34560
614,34560
615,34560
616,34560
617,34560
618,34496
619,34368
620,34240
621,34112
622,34048
623,34112
624,34048
625,33920
626,33792
627,33792
628,33792
629,33792
630,33728
631,33664
632,33728
633,33728
634,33664
635,33728
636,33792
637,33856
638,33856
639,33920
640,33856
641,33792
642,33664
643,33728
644,33856
645,34112
646,34304
647,34368
648,34432
649,34624
650,35072
651,35392
652,36288
653,37760
654,39168
655,39808
656,39168
657,37056
658,34240
659,31808
660,30400
661,29824
662,29888
663,30400
664,31232
665,32448
666,33024
667,33600
668,33984
669,34176
670,34368
671,34432
672,34368
673,34368
674,34432
675,34432
676,34304
677,34176
678,34112
679,34048
680,33984
681,34048
682,34112
683,34112
684,34048
685,34048
686,34112
687,34112
688,34112
689,34048
690,33984
691,33920
692,33920
693,33984
694,34112
695,34176
696,34048
697,33984
698,33984
699,34112
700,34240
701,34240
702,34240
703,34240
704,34304
705,34368
706,34304
707,34240
708,34304
709,34368
710,34368
711,34368
712,34432
713,34368
714,34304
715,34304
716,34368
717,34432
718,34432
719,34432
720,34432
721,34496
722,34432
723,34432
724,34496
725,34496
726,34432
727,34368
728,34368
729,34368
730,34304
731,34240
732,34176
733,34176
734,34112
735,34048
736,33984
737,33984
738,33856
739,33728
740,33664
741,33664
742,33728
743,33792
744,33920
745,34048
746,34048
747,33984
748,34048
749,34112
750,34176
751,34112
752,34112
753,34240
754,34304
755,34240
756,34112
757,34048
758,34048
759,33984
760,33984
761,33920
762,33984
763,33984
764,34048
765,34176
766,34304
767,34304
768,34240
769,34176
770,34240
771,34176
772,34112
773,34112
774,34176
775,34240
776,34176
777,34176
778,34176
779,34240
780,34240
781,34176
782,34112
783,34048
784,33984
785,33984
786,34048
787,34048
788,33984
789,33920
790,33920
791,33984
792,34048
793,34112
794,34048
795,33984
796,33920
797,33920
798,34048
799,34048
800,33984
801,33984
802,34112
803,34240
804,34240
805,34112
806,34240
807,34304
808,34368
809,34432
810,34432
811,34368
812,34304
813,34368
814,34496
815,34432
816,34496
817,34304
818,34112
819,33984
820,33920
821,33856
822,33856
823,33792
824,33728
825,33728
826,33728
827,33920
828,33984
829,33920
830,33856
831,34112
832,34112
833,33984
834,33792
835,33664
836,33664
837,33728
838,33792
839,33920
840,33984
841,33984
842,33984
843,34176
844,34496
845,34432
846,35008
847,35712
848,36992
849,38528
850,39680
851,40000
852,38848
853,36288
854,33344
855,31104
856,30080
857,29888
858,30272
859,31296
860,31360
861,31680
862,32960
863,33472
864,33984
865,34368
866,34368
867,34560
868,34624
869,34816
870,34880
871,34816
872,34688
873,34624
874,34560
875,34432
876,34304
877,33856
878,33856
879,33920
880,33856
881,33792
882,33856
883,33984
884,34048
885,34112
886,34240
887,34304
888,34304
889,34368
890,34304
891,34240
892,34176
893,34112
894,34240
895,34304
896,34240
897,34304
898,34304
899,34240
900,34112
901,34176
902,34304
903,34432
904,34432
905,34368
906,34368
907,34496
908,34496
909,34496
910,34560
911,34560
912,34688
913,34624
914,34560
915,34624
916,34560
917,34496
918,34432
919,34432
920,34432
921,34432
922,34368
923,34240
924,34112
925,34048
926,34048
927,34112
928,34176
929,34176
930,34112
931,34112
932,34048
933,33920
934,33856
935,33792
936,33920
937,33920
938,33984
939,34048
940,34048
941,33984
942,33920
943,33920
944,34048
945,34112
946,34112
947,34112
948,34176
949,34176
950,34112
951,33984
952,34048
953,34112
954,34176
955,34176
956,34112
957,34176
958,34240
959,34176
960,34176
961,34240
962,34176
963,34112
964,34176
965,34176
966,34240
967,34176
968,34112
969,34112
970,34048
971,33984
972,33920
973,33920
974,33984
975,34112
976,34176
977,34176
978,34240
979,34112
980,33920
981,33856
982,33856
983,33856
984,33792
985,33792
986,33856
987,33856
988,33856
989,33920
990,34048
991,34112
992,34048
993,34048
994,34048
995,33984
996,33856
997,33792
998,33920
999,34176
1000,34240
1001,34304
1002,34368
1003,34496
1004,34496
1005,34368
1006,34432
1007,34496
1008,34496
1009,34368
1010,34304
1011,34176
1012,33984
1013,33856
1014,33792
1015,33856
1016,33856
1017,33728
1018,33600
1019,33600
1020,33600
1021,33600
1022,33600
1023,33600
1024,33664
1025,33728
1026,33792
1027,33984
1028,34112
1029,34112
1030,34048
1031,33984
1032,33984
1033,33984
1034,33920
1035,33920
1036,34048
1037,34304
1038,34496
1039,34816
1040,35648
1041,36928
1042,38464
1043,39488
1044,39744
1045,38400
1046,35776
1047,33024
1048,31104
1049,30080
1050,29824
1051,30080
1052,30720
1053,31616
1054,32448
1055,33152
1056,33728
1057,34240
1058,34560
1059,34688
1060,34752
1061,34688
1062,34624
1063,34496
1064,34432
1065,34432
1066,34368
1067,34240
1068,34112
1069,33920
1070,33856
1071,33792
1072,33792
1073,33856
1074,33984
1075,34048
1076,34048
1077,34048
1078,34112
1079,34112
1080,34112
1081,34048
1082,34112
1083,34112
1084,34048
1085,33920
1086,33920
1087,33920
1088,33984
1089,34048
1090,34176
1091,34240
1092,34304
1093,34304
1094,34368
1095,34368
1096,34304
1097,34240
1098,34240
1099,34304
1100,34368
1101,34368
1102,34432
1103,34496
1104,34496
1105,34496
1106,34496
1107,34560
1108,34432
1109,34304
1110,34240
1111,34304
1112,34368
1113,34432
1114,34496
1115,34560
1116,34560
1117,34368
1118,34112
1119,34048
1120,34048
1121,33984
1122,33984
1123,33984
1124,33984
1125,33984
1126,33984
1127,33920
1128,33792
1129,33664
1130,33664
1131,33664
1132,33664
1133,33664
1134,33728
1135,33728
1136,33856
1137,33984
1138,34048
1139,34176
1140,34240
1141,34240
1142,34048
1143,33984
1144,33984
1145,33984
1146,33856
1147,33792
1148,33856
1149,33984
1150,34048
1151,34048
1152,34112
1153,34112
1154,34112
1155,34112
1156,34176
1157,34176
1158,34240
1159,34176
1160,34112
1161,34176
1162,34240
1163,34112
1164,33984
1165,33984
1166,33920
1167,33856
1168,33792
1169,33728
1170,33728
1171,33792
1172,33792
1173,33856
1174,33920
1175,33856
1176,33856
1177,33920
1178,34176
1179,34368
1180,34432
1181,34496
1182,34560
1183,34624
1184,34496
1185,34368
1186,34176
1187,34048
1188,33856
1189,33792
1190,33792
1191,33664
1192,33600
1193,33600
1194,33664
1195,33600
1196,33472
1197,33408
1198,33472
1199,33600
1200,33664
1201,33664
1202,33664
1203,33856
1204,34048
1205,34112
1206,34112
1207,34176
1208,34048
1209,33856
1210,33728
1211,33792
1212,33920
1213,33984
1214,34112
1215,34432
1216,35072
1217,36096
1218,37568
1219,39040
1220,39872
1221,39360
1222,37184
1223,34368
1224,31936
1225,30464
1226,29952
1227,30016
1228,30592
1229,31360
1230,32192
1231,32960
1232,33536
1233,33984
1234,34176
1235,34304
1236,34432
1237,34496
1238,34496
1239,34432
1240,34496
1241,34496
1242,34432
1243,34304
1244,34176
1245,34112
1246,34048
1247,34048
1248,34048
1249,34112
1250,34112
1251,34048
1252,34112
1253,34176
1254,34176
1255,34048
1256,33984
1257,34048
1258,34048
1259,33984
1260,33920
1261,33984
1262,34048
1263,33984
1264,33984
1265,34112
1266,34112
1267,34112
1268,34112
1269,34240
1270,34368
1271,34496
1272,34496
1273,34560
1274,34560
1275,34560
1276,34560
1277,34496
1278,34496
1279,34496
1280,34432
1281,34432
1282,34496
1283,34496
1284,34432
1285,34368
1286,34304
1287,34368
1288,34368
1289,34304
1290,34304
1291,34368
1292,34432
1293,34304
1294,34240
1295,34176
1296,34112
1297,34048
1298,34048
1299,34112
1300,34048
1301,33920
1302,33856
1303,33920
1304,33984
1305,33920
1306,33920
1307,33984
1308,34048
1309,33984
1310,33856
1311,33792
1312,33856
1313,33920
1314,33920
1315,34048
1316,34112
1317,34176
1318,34240
1319,34368
1320,34368
1321,34240
1322,34176
1323,34240
1324,34240
1325,34176
1326,33984
1327,33984
1328,34112
1329,34176
1330,34112
1331,34048
1332,34112
1333,34112
1334,34112
1335,34112
1336,34176
1337,34240
1338,34240
1339,34176
1340,34240
1341,34304
1342,34304
1343,34240
1344,34112
1345,33984
1346,33856
1347,33728
1348,33728
1349,33856
1350,33920
1351,33920
1352,33920
1353,33984
1354,34048
1355,34048
1356,34048
1357,34048
1358,34112
1359,34048
1360,34048
1361,34112
1362,34176
1363,34112
1364,34048
1365,34048
1366,34112
1367,34176
1368,34240
1369,34304
1370,34432
1371,34496
1372,34432
1373,34432
1374,34560
1375,34688
1376,34560
1377,34368
1378,34304
1379,34176
1380,33984
1381,33792
1382,33792
1383,33728
1384,33728
1385,33728
1386,33728
1387,33728
1388,33600
1389,33600
1390,33600
1391,33728
1392,33792
1393,33792
1394,33856
1395,33984
1396,34048
1397,33984
1398,33984
1399,34048
1400,33984
1401,33856
1402,33792
1403,33856
1404,34048
1405,34304
1406,34560
1407,35008
1408,35840
1409,37056
1410,38528
1411,39616
1412,39744
1413,38400
1414,35712
1415,32896
1416,30976
1417,30016
1418,29760
1419,30144
1420,30848
1421,31680
1422,32384
1423,33088
1424,33728
1425,34304
1426,34560
1427,34688
1428,34752
1429,34688
1430,34496
1431,34368
1432,34240
1433,34176
1434,34048
1435,33920
1436,33984
1437,33984
1438,34048
1439,34048
1440,34048
1441,34112
1442,34048
1443,33984
1444,34048
1445,34112
1446,34112
1447,34048
1448,34112
1449,34176
1450,34176
1451,34112
1452,34112
1453,34112
1454,34048
1455,33920
1456,33920
1457,34048
1458,34112
1459,34112
1460,34112
1461,34176
1462,34304
1463,34368
1464,34368
1465,34496
1466,34624
1467,34560
1468,34432
1469,34432
1470,34496
1471,34496
1472,34432
1473,34368
1474,34432
1475,34368
1476,34368
1477,34432
1478,34496
1479,34560
1480,34496
1481,34368
1482,34368
1483,34368
1484,34432
1485,34368
1486,34432
1487,34432
1488,34368
1489,34240
1490,34112
1491,33984
1492,33920
1493,33792
1494,33792
1495,33920
1496,33920
1497,33856
1498,33920
1499,33984
1500,33984
1501,33920
1502,34048
1503,34240
1504,34240
1505,34048
1506,33856
1507,33856
1508,33920
1509,34048
1510,34048
1511,34112
1512,34176
1513,34240
1514,34304
1515,34304
1516,34240
1517,34240
1518,34240
1519,34304
1520,34304
1521,34304
1522,34176
1523,34112
1524,34048
1525,34048
1526,34048
1527,34112
1528,34240
1529,34304
1530,34176
1531,33984
1532,33984
1533,34048
1534,34048
1535,34048
1536,34112
1537,34176
1538,34048
1539,33984
1540,33984
1541,34048
1542,34048
1543,34048
1544,34048
1545,33984
1546,33920
1547,33920
1548,33984
1549,34176
1550,34368
1551,34304
1552,34240
1553,34304
1554,34304
1555,34304
1556,34112
1557,33984
1558,33984
1559,34112
1560,34112
1561,34048
1562,33984
1563,34048
1564,34112
1565,34304
1566,34496
1567,34560
1568,34560
1569,34624
1570,34752
1571,34560
1572,34304
1573,34176
1574,34176
1575,34048
1576,33856
1577,33856
1578,33920
1579,33984
1580,33856
1581,33728
1582,33728
1583,33664
1584,33600
1585,33536
1586,33600
1587,33728
1588,33792
1589,33792
1590,33792
1591,33856
1592,33856
1593,33920
1594,33984
1595,33984
1596,33984
1597,33920
1598,34048
1599,34240
1600,34496
1601,34624
1602,34816
1603,35584
1604,36800
1605,38272
1606,39296
1607,39488
1608,38208
1609,35584
1610,32896
1611,30976
1612,30144
1613,29888
1614,30144
1615,30784
1616,31552
1617,32320
1618,32896
1619,33408
1620,33920
1621,34240
1622,34432
1623,34496
1624,34560
1625,34560
1626,34432
1627,34304
1628,34240
1629,34048
1630,33984
1631,33856
1632,33856
1633,33856
1634,33856
1635,33792
1636,33792
1637,33920
1638,33984
1639,33856
1640,33728
1641,33792
1642,33856
1643,33856
1644,33792
1645,33792
1646,33792
1647,33856
1648,33920
1649,34048
1650,34176
1651,34176
1652,34048
1653,33984
1654,34048
1655,34112
1656,34240
1657,34304
1658,34304
1659,34304
1660,34176
1661,34112
1662,34112
1663,34112
1664,34112
1665,34176
1666,34240
1667,34240
1668,34176
1669,34304
1670,34368
1671,34304
1672,34176
1673,34112
1674,34112
1675,34112
1676,34112
1677,34176
1678,34240
1679,34240
1680,34176
1681,34176
1682,34176
1683,34112
1684,33984
1685,33856
1686,33792
1687,33856
1688,33856
1689,33792
1690,33792
1691,33792
1692,33856
1693,33856
1694,33856
1695,33856
1696,33856
1697,33792
1698,33792
1699,33728
1700,33792
1701,33728
1702,33728
1703,33856
1704,33984
1705,34048
1706,33984
1707,34048
1708,34112
1709,34176
1710,34112
1711,34048
1712,34112
1713,34112
1714,34112
1715,34112
1716,34112
1717,34048
1718,33984
1719,33984
1720,34112
1721,34176
1722,34112
1723,33984
1724,33984
1725,33984
1726,33984
1727,33984
1728,34048
1729,34048
1730,33984
1731,33920
1732,33792
1733,33792
1734,33856
1735,33792
1736,33728
1737,33792
1738,33856
1739,33984
1740,34176
1741,34368
1742,34432
1743,34368
1744,34368
1745,34496
1746,34560
1747,34368
1748,34240
1749,34048
1750,33984
1751,33856
1752,33856
1753,33856
1754,33728
1755,33600
1756,33472
1757,33472
1758,33536
1759,33536
1760,33600
1761,33664
1762,33728
1763,33728
1764,33728
1765,33664
1766,33728
1767,33728
1768,33792
1769,33792
1770,33920
1771,33984
1772,33984
1773,33920
1774,33920
1775,34048
1776,34112
1777,34112
1778,34240
1779,34880
1780,36032
1781,37504
1782,38784
1783,39424
1784,38720
1785,36480
1786,33856
1787,31744
1788,30592
1789,30080
1790,30144
1791,30656
1792,31424
1793,32192
1794,32896
1795,33536
1796,33920
1797,34176
1798,34304
1799,34432
1800,34496
1801,34496
1802,34496
1803,34496
1804,34432
1805,34304
1806,34048
1807,33856
1808,33792
1809,33792
1810,33792
1811,33856
1812,33920
1813,33920
1814,33856
1815,33920
1816,33984
1817,34112
1818,34112
1819,34048
1820,33984
1821,34048
1822,34048
1823,34048
1824,34048
1825,34048
1826,33984
1827,33984
1828,34112
1829,34176
1830,34176
1831,34176
1832,34304
1833,34368
1834,34368
1835,34304
1836,34240
1837,34240
1838,34240
1839,34304
1840,34368
1841,34432
1842,34560
1843,34560
1844,34560
1845,34432
1846,34304
1847,34240
1848,34176
1849,34240
1850,34304
1851,34304
1852,34304
1853,34304
1854,34304
1855,34304
1856,34176
1857,34112
1858,34112
1859,34112
1860,34048
1861,33984
1862,33984
1863,33984
1864,33984
1865,33920
1866,33984
1867,33984
1868,33856
1869,33856
1870,33920
1871,33856
1872,33920
1873,33984
1874,34048
1875,34048
1876,33984
1877,33792
1878,33792
1879,33856
1880,33984
1881,34112
1882,34240
1883,34304
1884,34432
1885,34368
1886,34304
1887,34240
1888,34240
1889,34176
1890,34176
1891,34240
1892,34240
1893,34176
1894,34240
1895,34240
1896,34176
1897,34048
1898,33984
1899,34048
1900,34112
1901,34048
1902,33984
1903,33984
1904,33984
1905,33984
1906,33920
1907,33920
1908,34048
1909,34176
1910,34240
1911,34304
1912,34432
1913,34560
1914,34560
1915,34560
1916,34688
1917,34752
1918,34688
1919,34432
1920,34304
1921,34240
1922,34112
1923,33984
1924,33856
1925,33792
1926,33728
1927,33600
1928,33472
1929,33472
1930,33472
1931,33472
1932,33600
1933,33728
1934,33856
1935,33920
1936,34048
1937,34112
1938,34048
1939,33920
1940,33920
1941,33984
1942,34048
1943,34048
1944,34048
1945,34112
1946,34048
1947,34112
1948,34240
1949,34496
1950,35008
1951,35904
1952,37312
1953,38656
1954,39424
1955,39232
1956,37504
1957,34816
1958,32320
1959,30784
1960,30016
1961,29952
1962,30464
1963,31232
1964,32064
1965,32768
1966,33344
1967,33792
1968,34176
1969,34368
1970,34560
1971,34688
1972,34688
1973,34560
1974,34368
1975,34368
1976,34368
1977,34304
1978,34240
1979,34176
1980,34112
1981,34048
1982,33984
1983,33984
1984,34048
1985,33984
1986,33920
1987,33984
1988,34048
1989,34048
1990,34048
1991,34112
1992,34176
1993,34112
1994,34048
1995,34112
1996,34176
1997,34240
1998,34176
1999,34176
2000,34240
2001,34176
2002,34112
2003,34048
2004,34176
2005,34304
2006,34240
2007,34240
2008,34304
2009,34368
2010,34432
2011,34432
2012,34496
2013,34496
2014,34432
2015,34368
2016,34368
2017,34432
2018,34496
2019,34496
2020,34496
2021,34496
2022,34560
2023,34496
2024,34432
2025,34368
2026,34304
2027,34240
2028,34240
2029,34304
2030,34304
2031,34112
2032,33984
2033,33984
2034,34048
2035,33984
2036,33856
2037,33792
2038,33792
2039,33792
2040,33792
2041,33856
2042,33920
2043,33920
2044,33920
2045,33984
2046,34112
2047,34176
2048,34176
2049,34176
2050,34176
2051,34112
2052,34048
2053,34048
2054,34112
2055,34176
2056,34176
2057,34112
2058,34112
2059,34176
2060,34176
2061,34176
2062,34240
2063,34240
2064,34176
2065,34176
2066,34240
2067,34368
2068,34304
2069,34176
2070,34112
2071,34048
2072,33984
2073,33984
2074,33984
2075,34240
2076,34304
2077,34176
2078,34048
2079,34048
2080,34048
2081,33984
2082,33920
2083,33984
2084,34048
2085,34176
2086,34240
2087,34304
2088,34368
2089,34304
2090,34368
2091,34432
2092,34496
2093,34496
2094,34560
2095,34624
2096,34624
2097,34496
2098,34240
2099,34048
2100,33920
2101,33792
2102,33664
2103,33600
2104,33728
2105,33856
2106,33792
2107,33728
2108,33728
2109,33792
2110,33856
2111,33856
2112,33856
2113,33984
2114,33920
2115,33856
2116,33792
2117,33792
2118,33856
2119,33856
2120,33856
2121,33920
2122,33984
2123,34048
2124,34048
2125,34368
2126,34560
2127,34880
2128,35520
2129,36672
2130,38144
2131,39424
2132,39872
2133,39104
2134,36800
2135,33472
2136,31488
2137,30336
2138,29952
2139,30080
2140,30464
2141,31104
2142,31936
2143,32704
2144,33344
2145,33856
2146,34240
2147,34496
2148,34560
2149,34560
2150,34560
2151,34560
2152,34560
2153,34560
2154,34560
2155,34496
2156,34304
2157,34176
2158,34112
2159,34048
2160,33984
2161,33920
2162,33920
2163,33920
2164,33920
2165,33856
2166,33792
2167,33856
2168,33920
2169,33984
2170,34112
2171,34240
2172,34240
2173,34176
2174,34176
2175,34176
2176,34176
2177,34112
2178,34112
2179,34240
2180,34304
2181,34240
2182,34240
2183,34240
2184,34304
2185,34304
2186,34304
2187,34304
2188,34368
2189,34368
2190,34368
2191,34368
2192,34432
2193,34432
2194,34432
2195,34432
2196,34496
2197,34496
2198,34432
2199,34368
2200,34432
2201,34432
2202,34368
2203,34368
2204,34368
2205,34368
2206,34240
2207,34176
2208,34176
2209,34304
2210,34240
2211,34112
2212,33984
2213,33856
2214,33792
2215,33792
2216,33792
2217,33856
2218,33920
2219,33920
2220,33920
2221,33920
2222,33856
2223,33792
2224,33792
2225,33920
2226,34048
2227,34176
2228,34240
2229,34304
2230,34304
2231,34176
2232,34112
2233,34176
2234,34240
2235,34304
2236,34368
2237,34304
2238,34304
2239,34176
2240,34176
2241,34176
2242,34240
2243,34176
2244,34112
2245,34112
2246,34112
2247,33984
2248,33920
2249,33856
2250,33920
2251,34048
2252,34112
2253,34240
2254,34304
2255,34240
2256,34176
2257,34112
2258,34112
2259,34176
2260,34176
2261,34112
2262,34048
2263,34048
2264,34048
2265,34048
2266,33984
2267,34048
2268,34112
2269,34112
2270,34304
2271,34496
2272,34624
2273,34624
2274,34688
2275,34688
2276,34560
2277,34304
2278,34112
2279,34048
2280,33984
2281,33920
2282,33856
2283,33856
2284,33920
2285,33856
2286,33728
2287,33536
2288,33536
2289,33536
2290,33536
2291,33600
2292,33792
2293,33984
2294,33920
2295,33856
2296,33856
2297,33920
2298,33984
2299,33984
2300,34048
2301,33984
2302,33920
2303,33792
2304,33920
2305,34240
2306,34496
2307,34880
2308,35584
2309,36736
2310,38336
2311,39552
2312,39872
2313,38784
2314,36224
2315,33344
2316,31168
2317,30144
2318,29952
2319,30144
2320,30784
2321,31680
2322,32448
2323,33152
2324,33600
2325,33920
2326,34112
2327,34304
2328,34432
2329,34560
2330,34560
2331,34496
2332,34368
2333,34368
2334,34368
2335,34368
2336,34240
2337,34176
2338,34176
2339,34240
2340,34176
2341,34048
2342,34048
2343,34048
2344,34048
2345,33984
2346,33920
2347,33856
2348,33856
2349,33920
2350,33984
2351,34048
2352,34048
2353,34048
2354,34048
2355,34048
2356,34048
2357,34048
2358,34112
2359,34176
2360,34176
2361,34176
2362,34240
2363,34368
2364,34368
2365,34368
2366,34368
2367,34368
2368,34432
2369,34496
2370,34432
2371,34496
2372,34560
2373,34496
2374,34432
2375,34368
2376,34304
2377,34240
2378,34176
2379,34176
2380,34176
2381,34240
2382,34240
2383,34240
2384,34368
2385,34432
2386,34304
2387,34240
2388,34112
2389,34048
2390,33920
2391,33856
2392,33856
2393,33920
2394,33984
2395,33984
2396,33920
2397,33920
2398,33792
2399,33728
2400,33792
2401,33856
2402,33856
2403,33792
2404,33792
2405,33920
2406,33920
2407,33920
2408,33920
2409,33984
2410,33984
2411,34048
2412,34112
2413,34176
2414,34176
2415,34112
2416,34112
2417,34176
2418,34176
2419,34112
2420,34048
2421,34112
2422,34304
2423,34432
2424,34304
2425,34112
2426,33984
2427,33856
2428,33792
2429,33856
2430,34048
2431,34112
2432,34048
2433,33920
2434,33856
2435,33856
2436,33728
2437,33728
2438,33856
2439,34048
2440,34112
2441,34048
2442,34048
2443,34112
2444,34176
2445,34304
2446,34432
2447,34432
2448,34432
2449,34496
2450,34624
2451,34624
2452,34560
2453,34304
2454,33984
2455,33792
2456,33664
2457,33536
2458,33536
2459,33600
2460,33600
2461,33536
2462,33472
2463,33472
2464,33472
2465,33536
2466,33664
2467,33728
2468,33856
2469,33856
2470,33856
2471,33856
2472,33856
2473,33856
2474,33856
2475,33920
2476,33984
2477,33920
2478,33856
2479,33984
2480,34240
2481,34304
2482,34368
2483,34816
2484,35904
2485,37504
2486,38720
2487,39168
2488,38528
2489,36416
2490,33792
2491,31680
2492,30464
2493,30080
2494,30144
2495,30592
2496,31360
2497,32256
2498,32960
2499,33408
2500,33856
2501,34240
2502,34432
2503,34496
2504,34496
2505,34560
2506,34496
2507,34368
2508,34304
2509,34240
2510,34112
2511,33920
2512,33792
2513,33856
2514,33984
2515,33984
2516,33920
2517,33920
2518,33920
2519,33856
2520,33920
2521,33984
2522,33984
2523,33920
2524,33856
2525,33856
2526,33920
2527,33984
2528,33984
2529,33984
2530,34048
2531,34048
2532,34048
2533,33984
2534,34048
2535,34048
2536,34112
2537,34112
2538,34240
2539,34496
2540,34624
2541,34496
2542,34432
2543,34368
2544,34304
2545,34240
2546,34240
2547,34240
2548,34240
2549,34240
2550,34240
2551,34240
2552,34304
2553,34240
2554,34240
2555,34368
2556,34368
2557,34368
2558,34240
2559,34240
2560,34240
2561,34176
2562,34112
2563,34112
2564,34048
2565,33920
2566,33792
2567,33792
2568,33920
2569,33920
2570,33792
2571,33728
2572,33728
2573,33728
2574,33728
2575,33792
2576,33920
2577,33984
2578,33984
2579,33984
2580,34048
2581,34112
2582,34112
2583,34112
2584,34112
2585,34112
2586,34048
2587,33984
2588,34048
2589,34176
2590,34240
2591,34112
2592,34048
2593,34048
2594,33984
2595,33920
2596,33920
2597,34048
2598,34176
2599,34176
2600,34240
2601,34240
2602,34240
2603,34176
2604,34112
2605,34176
2606,34112
2607,34048
2608,34048
2609,34112
2610,34048
2611,34048
2612,34176
2613,34368
2614,34560
2615,34496
2616,34560
2617,34560
2618,34496
2619,34368
2620,34304
2621,34304
2622,34176
2623,33920
2624,33728
2625,33664
2626,33536
2627,33536
2628,33600
2629,33664
2630,33664
2631,33536
2632,33536
2633,33664
2634,33792
2635,33856
2636,33792
2637,33920
2638,33984
2639,33984
2640,33984
2641,33920
2642,33984
2643,34048
2644,33920
2645,33856
2646,33984
2647,34048
2648,34240
2649,34496
2650,34816
2651,35456
2652,36608
2653,36736
2654,39168
2655,39488
2656,38336
2657,35904
2658,33280
2659,31104
2660,30912
2661,30016
2662,30272
2663,30912
2664,31744
2665,32448
2666,33088
2667,33600
2668,33984
2669,34304
2670,34496
2671,34688
2672,34688
2673,34560
2674,34496
2675,34432
2676,34432
2677,34432
2678,34304
2679,34112
2680,33984
2681,33856
2682,33856
2683,33984
2684,34048
2685,34048
2686,33920
2687,33856
2688,33856
2689,33920
2690,33984
2691,34048
2692,34112
2693,34176
2694,34176
2695,34176
2696,34176
2697,34176
2698,34176
2699,34176
2700,34304
2701,34304
2702,34304
2703,34304
2704,34368
2705,34304
2706,34176
2707,34112
2708,34176
2709,34240
2710,34304
2711,34304
2712,34240
2713,34304
2714,34368
2715,34304
2716,34368
2717,34496
2718,34496
2719,34496
2720,34432
2721,34624
2722,34688
2723,34624
2724,34560
2725,34496
2726,34432
2727,34304
2728,34176
2729,34176
2730,34112
2731,33984
2732,33920
2733,33920
2734,33920
2735,33920
2736,33792
2737,33792
2738,33792
2739,33728
2740,33728
2741,33792
2742,33856
2743,33984
2744,33984
2745,33984
2746,33984
2747,34048
2748,33984
2749,34048
2750,33984
2751,34176
2752,34240
2753,34240
2754,34304
2755,34368
2756,34304
2757,34176
2758,34112
2759,34112
2760,34048
2761,34048
2762,34112
2763,34112
2764,34112
2765,34048
2766,34048
2767,34048
2768,34048
2769,34112
2770,34304
2771,34496
2772,34496
2773,34240
2774,34112
2775,33984
2776,33984
2777,33920
2778,33856
2779,33920
2780,33920
2781,33920
2782,33920
2783,34048
2784,34176
2785,34304
2786,34368
2787,34496
2788,34560
2789,34560
2790,34624
2791,34688
2792,34752
2793,34624
2794,34368
2795,34304
2796,33984
2797,33792
2798,33600
2799,33472
2800,33536
2801,33600
2802,33664
2803,33728
2804,33792
2805,33856
2806,33856
2807,33856
2808,33856
2809,33920
2810,33856
2811,33920
2812,33984
2813,34112
2814,34240
2815,34176
2816,34112
2817,34048
2818,33984
2819,33856
2820,33856
2821,33984
2822,34176
2823,34432
2824,35328
2825,35392
2826,37376
2827,38912
2828,39808
2829,39744
2830,38144
2831,35392
2832,32640
2833,30912
2834,30080
2835,29952
2836,30336
2837,31104
2838,32064
2839,32832
2840,33280
2841,33600
2842,33920
2843,34240
2844,34432
2845,34432
2846,34496
2847,34432
2848,34368
2849,34368
2850,34368
2851,34368
2852,34240
2853,34112
2854,34240
2855,34176
2856,34240
2857,34176
2858,34176
2859,34176
2860,34112
2861,33984
2862,34048
2863,34048
2864,34048
2865,33984
2866,33984
2867,34048
2868,34112
2869,34048
2870,33984
2871,34112
2872,34176
2873,34176
2874,34176
2875,34240
2876,34304
2877,34240
2878,34176
2879,34240
2880,34304
2881,34304
2882,34304
2883,34368
2884,34496
2885,34624
2886,34624
2887,34624
2888,34560
2889,34496
2890,34304
2891,34304
2892,34304
2893,34368
2894,34368
2895,34368
2896,34432
2897,34432
2898,34368
2899,34432
2900,34368
2901,34432
2902,34304
2903,34176
2904,34176
2905,34176
2906,34048
2907,33920
2908,33920
2909,33984
2910,33984
2911,33856
2912,33856
2913,33856
2914,33984
2915,33920
2916,33984
2917,33984
2918,33984
2919,33920
2920,33920
2921,33984
2922,34048
2923,34048
2924,34048
2925,34048
2926,34048
2927,34048
2928,34048
2929,34176
2930,34112
2931,34176
2932,34112
2933,34112
2934,34176
2935,34176
2936,34176
2937,34112
2938,34176
2939,34176
2940,34176
2941,34176
2942,34240
2943,34240
2944,34176
2945,34176
2946,34304
2947,34368
2948,34240
2949,33984
2950,33920
2951,33920
2952,33856
2953,33856
2954,33920
2955,33984
2956,33984
2957,33984
2958,33984
2959,34048
2960,34048
2961,34048
2962,34048
2963,34176
2964,34368
2965,34496
2966,34496
2967,34560
2968,34624
2969,34624
2970,34624
2971,34624
2972,34560
2973,34432
2974,34176
2975,33920
2976,33792
2977,33664
2978,33536
2979,33536
2980,33536
2981,33536
2982,33600
2983,33600
2984,33664
2985,33728
2986,33792
2987,33856
2988,33920
2989,33984
2990,33984
2991,33920
2992,34048
2993,34112
2994,34112
2995,33920
2996,33856
2997,33920
2998,33920
2999,33920
3000,34048
3001,34368
3002,34688
3003,35328
3004,36544
3005,38080
3006,39488
3007,39936
3008,39104
3009,36800
3010,33856
3011,31552
3012,30272
3013,29888
3014,30016
3015,30528
3016,31232
3017,32000
3018,32768
3019,33472
3020,33920
3021,34304
3022,34560
3023,34624
3024,34560
3025,34560
3026,34560
3027,34432
3028,34304
3029,34176
3030,34176
3031,34176
3032,34176
3033,34112
3034,34112
3035,34112
3036,33984
3037,33920
3038,33920
3039,33984
3040,33920
3041,33856
3042,33920
3043,33920
3044,33920
3045,33984
3046,34048
3047,34176
3048,34240
3049,34240
3050,34304
3051,34240
3052,34176
3053,34176
3054,34304
3055,34368
3056,34240
3057,34176
3058,34112
3059,34112
3060,34176
3061,34304
3062,34304
3063,34368
3064,34496
3065,34560
3066,34560
3067,34560
3068,34496
3069,34432
3070,34304
3071,34304
3072,34368
3073,34368
3074,34240
3075,34176
3076,34240
3077,34240
3078,34240
3079,34240
3080,34304
3081,34304
3082,34240
3083,34240
3084,34304
3085,34304
3086,34112
3087,33920
3088,33856
3089,33920
3090,33920
3091,33856
3092,33792
3093,33728
3094,33664
3095,33664
3096,33792
3097,33920
3098,33920
3099,33984
3100,34048
3101,34112
3102,34112
3103,34112
3104,34112
3105,34176
3106,34240
3107,34176
3108,34176
3109,34304
3110,34368
3111,34304
3112,34176
3113,34112
3114,34240
3115,34240
3116,34176
3117,34176
3118,34112
3119,34048
3120,33984
3121,33984
3122,34176
3123,34176
3124,34176
3125,34176
3126,34304
3127,34304
3128,34176
3129,34112
3130,34176
3131,34112
3132,33920
3133,33856
3134,33920
3135,34048
3136,34048
3137,34048
3138,34112
3139,34112
3140,34112
3141,34112
3142,34112
3143,34112
3144,34112
3145,33984
3146,34048
3147,34112
3148,34176
3149,34112
3150,33984
3151,33984
3152,33984
3153,34048
3154,34048
3155,34048
3156,34048
3157,34048
3158,34112
3159,34240
3160,34432
3161,34496
3162,34560
3163,34688
3164,34752
3165,34688
3166,34624
3167,34496
3168,34304
3169,34240
3170,34112
3171,33920
3172,33856
3173,33728
3174,33600
3175,33600
3176,33728
3177,33728
3178,33664
3179,33664
3180,33664
3181,33664
3182,33664
3183,33664
3184,33792
3185,33984
3186,33984
3187,33984
3188,34048
3189,34112
3190,34048
3191,34048
3192,34048
3193,34048
3194,33984
3195,33984
3196,34176
3197,34496
3198,34944
3199,35776
3200,37120
3201,38592
3202,39616
3203,39488
3204,37888
3205,35072
3206,32512
3207,30720
3208,29888
3209,29824
3210,30336
3211,30976
3212,31744
3213,32640
3214,33344
3215,33856
3216,34176
3217,34432
3218,34624
3219,34624
3220,34624
3221,34560
3222,34560
3223,34432
3224,34240
3225,34176
3226,34112
3227,34048
3228,33984
3229,33920
3230,33856
3231,33856
3232,33792
3233,33792
3234,33856
3235,33920
3236,33920
3237,33920
3238,33984
3239,34112
3240,34112
3241,34112
3242,34112
3243,34176
3244,34176
3245,34176
3246,34176
3247,34176
3248,34112
3249,34048
3250,33920
3251,33920
3252,33984
3253,34048
3254,34112
3255,34240
3256,34240
3257,34176
3258,34176
3259,34240
3260,34368
3261,34368
3262,34304
3263,34304
3264,34432
3265,34496
3266,34432
3267,34368
3268,34432
3269,34432
3270,34432
3271,34368
3272,34304
3273,34240
3274,34240
3275,34176
3276,34176
3277,34112
3278,34048
3279,33984
3280,34048
3281,33984
3282,33920
3283,33856
3284,33856
3285,33920
3286,33856
3287,33792
3288,33792
3289,33792
3290,33792
3291,33792
3292,33920
3293,34048
3294,34112
3295,34112
3296,34048
3297,34048
3298,34048
3299,33984
3300,33920
3301,33856
3302,33920
3303,33984
3304,34048
3305,34176
3306,34240
3307,34176
3308,34112
3309,34112
3310,34240
3311,34240
3312,34176
3313,34176
3314,34176
3315,34176
3316,34176
3317,34176
3318,34176
3319,34048
3320,33920
3321,33984
3322,34048
3323,33984
3324,33920
3325,33920
3326,33984
3327,33984
3328,33984
3329,33920
3330,33984
3331,34048
3332,33984
3333,33984
3334,33920
3335,33984
3336,33920
3337,33920
3338,33920
3339,33984
3340,34048
3341,34048
3342,34112
3343,34176
3344,34176
3345,34176
3346,34240
3347,34368
3348,34368
3349,34432
3350,34432
3351,34368
3352,34304
3353,34176
3354,34048
3355,33984
3356,33984
3357,33920
3358,33792
3359,33728
3360,33664
3361,33600
3362,33600
3363,33600
3364,33536
3365,33664
3366,33728
3367,33728
3368,33792
3369,33792
3370,33856
3371,33856
3372,33920
3373,34048
3374,33984
3375,33920
3376,33984
3377,34048
3378,33984
3379,33856
3380,33856
3381,33920
3382,34176
3383,34688
3384,35712
3385,37312
3386,38656
3387,39424
3388,38976
3389,37120
3390,34560
3391,32320
3392,30976
3393,30528
3394,30464
3395,30656
3396,31168
3397,32000
3398,32704
3399,33280
3400,33664
3401,34048
3402,34432
3403,34688
3404,34688
3405,34688
3406,34688
3407,34560
3408,34368
3409,34240
3410,34176
3411,34048
3412,33920
3413,33920
3414,33984
3415,33984
3416,33984
3417,33984
3418,33984
3419,33984
3420,33920
3421,33984
3422,34048
3423,34048
3424,34048
3425,34048
3426,34112
3427,34240
3428,34240
3429,34176
3430,34176
3431,34240
3432,34240
3433,34112
3434,34048
3435,34048
3436,34048
3437,34112
3438,34112
3439,34176
3440,34176
3441,34176
3442,34240
3443,34304
3444,34368
3445,34432
3446,34432
3447,34368
3448,34304
3449,34304
3450,34240
3451,34240
3452,34176
3453,34112
3454,34112
3455,34112
3456,34176
3457,34240
3458,34240
3459,34240
3460,34240
3461,34240
3462,34176
3463,34112
3464,33984
3465,33856
3466,33856
3467,33856
3468,33792
3469,33664
3470,33472
3471,33408
3472,33600
3473,33792
3474,33856
3475,33856
3476,33856
3477,33920
3478,33920
3479,33920
3480,34048
3481,34176
3482,34240
3483,34112
3484,33984
3485,33984
3486,33920
3487,33856
3488,33856
3489,33920
3490,34048
3491,34048
3492,34048
3493,34176
3494,34176
3495,34176
3496,34176
3497,34112
3498,34112
3499,34112
3500,34048
3501,34048
3502,34112
3503,34048
3504,34048
3505,34112
3506,34112
3507,34048
3508,33920
3509,33920
3510,33984
3511,33984
3512,33920
3513,33920
3514,34112
3515,34304
3516,34368
3517,34368
3518,34432
3519,34560
3520,34560
3521,34368
3522,34240
3523,34112
3524,34048
3525,33920
3526,33792
3527,33856
3528,33856
3529,33664
3530,33536
3531,33536
3532,33536
3533,33600
3534,33600
3535,33728
3536,33728
3537,33728
3538,33728
3539,33792
3540,33856
3541,33856
3542,33856
3543,33920
3544,33984
3545,33920
3546,33856
3547,33856
3548,33856
3549,33920
3550,34112
3551,34368
3552,34816
3553,35648
3554,36864
3555,38336
3556,39232
3557,39168
3558,37504
3559,34944
3560,32640
3561,31104
3562,30336
3563,30208
3564,30528
3565,31168
3566,31872
3567,32512
3568,33152
3569,33600
3570,33984
3571,34176
3572,34432
3573,34624
3574,34624
3575,34560
3576,34496
3577,34432
3578,34304
3579,34112
3580,34048
3581,33984
3582,33984
3583,33984
3584,34048
3585,33984
3586,33856
3587,33856
3588,33856
3589,33856
3590,33920
3591,34048
3592,34048
3593,34048
3594,34048
3595,34048
3596,34048
3597,34112
3598,34176
3599,34240
3600,34176
3601,34176
3602,34176
3603,34304
3604,34304
3605,34240
3606,34240
3607,34240
3608,34304
3609,34368
3610,34368
3611,34368
3612,34304
3613,34176
3614,34240
3615,34368
3616,34368
3617,34368
3618,34432
3619,34432
3620,34368
3621,34304
3622,34304
3623,34368
3624,34432
3625,34368
3626,34368
3627,34432
3628,34368
3629,34304
3630,34240
3631,34240
3632,34176
3633,33984
3634,33856
3635,33856
3636,33856
3637,33792
3638,33664
3639,33600
3640,33728
3641,33792
3642,33792
3643,33856
3644,33984
3645,33984
3646,34048
3647,34112
3648,34240
3649,34176
3650,33984
3651,33856
3652,33920
3653,33984
3654,33984
3655,34048
3656,34112
3657,34112
3658,34176
3659,34176
3660,34176
3661,34240
3662,34240
3663,34176
3664,34176
3665,34304
3666,34304
3667,34304
3668,34304
3669,34304
3670,34304
3671,34240
3672,34240
3673,34240
3674,34112
3675,33984
3676,33984
3677,34112
3678,34240
3679,34368
3680,34432
3681,34496
3682,34496
3683,34560
3684,34560
3685,34624
3686,34496
3687,34304
3688,34112
3689,34048
3690,33984
3691,33856
3692,33792
3693,33728
3694,33728
3695,33728
3696,33664
3697,33664
3698,33792
3699,33856
3700,33920
3701,33920
3702,33920
3703,33920
3704,33856
3705,33792
3706,33920
3707,34048
3708,34048
3709,33984
3710,33984
3711,34048
3712,33984
3713,33984
3714,34176
3715,34496
3716,34752
3717,35264
3718,36224
3719,37632
3720,38912
3721,39616
3722,38976
3723,36864
3724,34240
3725,32000
3726,30720
3727,30208
3728,30208
3729,30592
3730,31296
3731,32128
3732,32832
3733,33408
3734,33792
3735,34176
3736,34368
3737,34496
3738,34496
3739,34560
3740,34560
3741,34496
3742,34368
3743,34304
3744,34304
3745,34240
3746,34112
3747,33984
3748,33920
3749,33920
3750,33920
3751,33984
3752,34048
3753,34112
3754,34176
3755,34112
3756,33984
3757,33984
3758,33856
3759,33856
3760,33984
3761,34048
3762,34112
3763,34176
3764,34176
3765,34240
3766,34240
3767,34240
3768,34176
3769,34240
3770,34240
3771,34176
3772,34240
3773,34432
3774,34560
3775,34496
3776,34368
3777,34240
3778,34176
3779,34240
3780,34240
3781,34304
3782,34368
3783,34304
3784,34368
3785,34432
3786,34496
3787,34496
3788,34368
3789,34304
3790,34368
3791,34368
3792,34368
3793,34304
3794,34176
3795,34048
3796,33920
3797,33856
3798,33920
3799,33920
3800,33856
3801,33856
3802,33856
3803,33920
3804,33856
3805,33856
3806,33856
3807,33920
3808,33920
3809,33920
3810,33920
3811,33984
3812,33984
3813,33856
3814,33920
3815,34112
3816,34048
3817,33984
3818,33920
3819,34048
3820,34112
3821,34112
3822,34176
3823,34304
3824,34304
3825,34240
3826,34112
3827,34048
3828,33984
3829,34048
3830,34112
3831,34176
3832,34176
3833,34176
3834,34112
3835,34176
3836,34176
3837,34176
3838,34112
3839,34048
3840,34112
3841,34112
3842,34112
3843,34176
3844,34240
3845,34240
3846,34240
3847,34432
3848,34560
3849,34560
3850,34560
3851,34624
3852,34624
3853,34496
3854,34240
3855,34048
3856,33984
3857,33920
3858,33792
3859,33728
3860,33728
3861,33728
3862,33728
3863,33600
3864,33600
3865,33664
3866,33664
3867,33664
3868,33792
3869,33920
3870,33984
3871,34048
3872,34048
3873,33984
3874,33920
3875,33856
3876,33792
3877,33792
3878,33920
3879,33984
3880,33984
3881,34112
3882,34368
3883,34624
3884,35008
3885,35776
3886,36928
3887,38272
3888,39232
3889,39488
3890,38272
3891,35840
3892,33088
3893,31104
3894,30144
3895,30016
3896,30208
3897,30784
3898,31616
3899,32512
3900,33216
3901,33664
3902,34048
3903,34304
3904,34432
3905,34496
3906,34560
3907,34560
3908,34496
3909,34368
3910,34304
3911,34304
3912,34240
3913,34112
3914,34048
3915,34048
3916,34048
3917,33984
3918,33984
3919,34112
3920,34112
3921,34048
3922,33984
3923,33920
3924,33984
3925,33984
3926,33984
3927,34048
3928,34112
3929,34112
3930,34112
3931,34112
3932,34176
3933,34176
3934,34176
3935,34176
3936,34112
3937,34112
3938,34112
3939,34240
3940,34368
3941,34368
3942,34304
3943,34304
3944,34432
3945,34432
3946,34368
3947,34240
3948,34176
3949,34240
3950,34368
3951,34432
3952,34496
3953,34560
3954,34496
3955,34368
3956,34304
3957,34240
3958,34176
3959,34176
3960,34176
3961,34240
3962,34304
3963,34240
3964,34176
3965,34176
3966,34112
3967,33984
3968,33920
3969,33920
3970,33920
3971,33920
3972,33856
3973,33920
3974,33920
3975,33856
3976,33728
3977,33728
3978,33792
3979,33920
3980,33984
3981,34048
3982,34112
3983,34240
3984,34176
3985,34112
3986,34112
3987,34112
3988,34048
3989,33984
3990,34048
3991,34112
3992,34112
3993,34048
3994,34176
3995,34240
3996,34176
3997,34176
3998,34240
3999,34240
4000,34240
4001,34240
4002,34240
4003,34304
4004,34240
4005,34048
4006,33920
4007,33984
4008,33984
4009,33984
4010,34048
4011,34112
4012,34112
4013,34048
4014,33984
4015,33984
4016,34048
4017,34048
4018,34112
4019,34176
4020,34240
4021,34240
4022,34112
4023,34112
4024,34240
4025,34368
4026,34432
4027,34560
4028,34624
4029,34560
4030,34368
4031,34240
4032,34176
4033,34112
4034,33920
4035,33792
4036,33792
4037,33728
4038,33792
4039,33856
4040,33792
4041,33728
4042,33664
4043,33600
4044,33664
4045,33664
4046,33664
4047,33728
4048,33856
4049,33984
4050,34048
4051,33984
4052,33984
4053,33984
4054,33920
4055,33920
4056,33920
4057,34048
4058,34176
4059,34304
4060,34624
4061,35200
4062,36160
4063,37568
4064,39104
4065,39872
4066,39552
4067,37568
4068,34752
4069,32192
4070,30400
4071,29824
4072,29760
4073,30272
4074,31104
4075,32064
4076,32896
4077,33408
4078,33920
4079,34176
4080,34368
4081,34496
4082,34624
4083,34688
4084,34560
4085,34368
4086,34368
4087,34304
4088,34304
4089,34304
4090,34304
4091,34240
4092,34112
4093,34048
4094,34048
4095,34112
4096,34112
4097,34112
4098,34048
4099,34048
4100,33984
4101,33984
4102,33984
4103,33984
4104,34048
4105,34048
4106,34112
4107,34176
4108,34176
4109,34048
4110,34048
4111,34176
4112,34304
4113,34368
4114,34304
4115,34368
4116,34368
4117,34368
4118,34304
4119,34304
4120,34368
4121,34432
4122,34368
4123,34432
4124,34496
4125,34432
4126,34432
4127,34432
4128,34432
4129,34368
4130,34304
4131,34304
4132,34368
4133,34432
4134,34432
4135,34432
4136,34496
4137,34560
4138,34432
4139,34240
4140,34176
4141,34112
4142,34048
4143,33984
4144,34048
4145,34048
4146,33984
4147,33920
4148,33856
4149,33920
4150,33984
4151,33920
4152,33920
4153,33984
4154,33984
4155,33984
4156,33920
4157,34048
4158,34176
4159,34176
4160,34176
4161,34176
4162,34176
4163,34112
4164,34048
4165,34112
4166,34240
4167,34304
4168,34240
4169,34240
4170,34304
4171,34304
4172,34240
4173,34112
4174,34112
4175,34112
4176,34112
4177,34112
4178,34176
4179,34176
4180,34240
4181,34240
4182,34304
4183,34368
4184,34304
4185,34176
4186,34112
4187,34112
4188,34112
4189,34112
4190,34176
4191,34176
4192,34112
4193,34048
4194,34048
4195,33984
4196,33984
4197,34048
4198,34112
4199,34176
4200,34112
4201,33984
4202,33984
4203,34048
4204,34240
4205,34304
4206,34368
4207,34560
4208,34560
4209,34496
4210,34496
4211,34560
4212,34688
4213,34560
4214,34368
4215,34240
4216,34112
4217,33920
4218,33856
4219,33856
4220,33984
4221,33984
4222,33856
4223,33792
4224,33728
4225,33664
4226,33664
4227,33728
4228,33856
4229,33984
4230,33984
4231,33920
4232,33856
4233,33792
4234,33856
4235,33856
4236,33920
4237,34048
4238,34048
4239,33920
4240,33984
4241,34112
4242,34368
4243,34560
4244,35008
4245,35776
4246,37056
4247,38528
4248,39616
4249,39936
4250,38656
4251,36096
4252,33152
4253,31040
4254,29952
4255,29696
4256,30080
4257,30784
4258,31680
4259,32512
4260,33216
4261,33728
4262,34176
4263,34432
4264,34496
4265,34624
4266,34688
4267,34688
4268,34624
4269,34496
4270,34368
4271,34240
4272,34112
4273,34112
4274,34112
4275,34048
4276,33920
4277,33920
4278,33984
4279,34048
4280,34048
4281,34048
4282,34048
4283,34048
4284,33984
4285,34048
4286,34112
4287,34240
4288,34240
4289,34112
4290,34048
4291,34048
4292,34048
4293,34048
4294,34112
4295,34240
4296,34240
4297,34176
4298,34112
4299,34176
4300,34240
4301,34240
4302,34240
4303,34304
4304,34432
4305,34432
4306,34496
4307,34560
4308,34560
4309,34496
4310,34368
4311,34304
4312,34304
4313,34304
4314,34304
4315,34368
4316,34432
4317,34432
4318,34304
4319,34304
4320,34368
4321,34368
4322,34304
4323,34240
4324,34240
4325,34176
4326,34112
4327,34048
4328,34048
4329,34112
4330,34048
4331,33920
4332,33856
4333,33920
4334,33920
4335,33856
4336,33792
4337,33792
4338,33792
4339,33856
4340,33984
4341,34112
4342,34112
4343,34112
4344,34112
4345,34112
4346,34112
4347,34112
4348,34048
4349,34112
4350,34112
4351,34176
4352,34304
4353,34368
4354,34368
4355,34240
4356,34112
4357,34112
4358,34048
4359,34048
4360,34048
4361,34112
4362,34176
4363,34240
4364,34176
4365,34176
4366,34176
4367,34112
4368,33984
4369,33984
4370,34048
4371,34048
4372,34112
4373,34176
4374,34176
4375,34112
4376,33984
4377,33856
4378,33920
4379,33984
4380,33984
4381,33920
4382,33984
4383,33984
4384,33920
4385,33856
4386,33856
4387,33920
4388,33984
4389,33984
4390,34048
4391,34176
4392,34240
4393,34432
4394,34560
4395,34624
4396,34624
4397,34560
4398,34560
4399,34624
4400,34496
4401,34304
4402,34112
4403,33984
4404,33856
4405,33728
4406,33600
4407,33600
4408,33728
4409,33728
4410,33664
4411,33536
4412,33536
4413,33600
4414,33600
4415,33664
4416,33792
4417,33856
4418,33920
4419,33920
4420,34048
4421,34112
4422,34048
4423,33984
4424,33984
4425,33984
4426,33920
4427,33920
4428,34112
4429,34368
4430,34688
4431,36480
4432,38016
4433,39296
4434,39680
4435,39552
4436,38656
4437,33664
4438,31488
4439,30336
4440,30016
4441,30144
4442,30592
4443,31296
4444,32576
4445,32640
4446,33024
4447,33984
4448,34240
4449,34432
4450,34496
4451,34496
4452,34496
4453,34560
4454,34432
4455,34240
4456,34112
4457,34048
4458,34048
4459,33984
4460,34048
4461,34176
4462,34176
4463,34048
4464,33920
4465,33920
4466,33920
4467,33856
4468,33792
4469,33856
4470,33984
4471,34048
4472,34048
4473,33984
4474,33984
4475,33920
4476,33984
4477,34048
4478,34112
4479,34176
4480,34176
4481,34112
4482,34176
4483,34176
4484,34176
4485,34240
4486,34304
4487,34304
4488,34176
4489,34176
4490,34112
4491,34368
4492,34368
4493,34240
4494,34304
4495,34368
4496,34304
4497,34176
4498,34240
4499,34304
4500,34304
4501,34304
4502,34304
4503,34304
4504,34304
4505,34240
4506,34304
4507,34304
4508,34240
4509,34112
4510,34048
4511,33984
4512,33920
4513,33792
4514,33664
4515,33728
4516,33728
4517,33728
4518,33728
4519,33856
4520,33856
4521,33856
4522,33920
4523,33920
4524,33920
4525,33856
4526,33792
4527,33920
4528,34048
4529,34048
4530,33984
4531,34048
4532,34176
4533,34176
4534,34112
4535,34048
4536,33984
4537,33920
4538,33984
4539,34048
4540,34176
4541,34240
4542,34240
4543,34176
4544,34176
4545,34176
4546,34112
4547,34048
4548,34048
4549,34048
4550,34048
4551,34112
4552,34176
4553,34176
4554,34112
4555,33984
4556,33920
4557,33984
4558,33984
4559,33984
4560,33984
4561,34048
4562,34112
4563,34176
4564,34240
4565,34368
4566,34432
4567,34496
4568,34496
4569,34560
4570,34432
4571,34176
4572,33984
4573,33920
4574,33920
4575,33856
4576,33792
4577,33792
4578,33792
4579,33792
4580,33728
4581,33536
4582,33536
4583,33536
4584,33600
4585,33728
4586,33856
4587,33920
4588,33792
4589,33728
4590,33728
4591,33856
4592,33856
4593,33856
4594,33984
4595,33920
4596,33984
4597,33920
4598,33984
4599,34176
4600,34368
4601,34752
4602,35520
4603,36736
4604,38080
4605,39040
4606,39104
4607,37696
4608,35136
4609,32192
4610,31936
4611,30400
4612,30208
4613,30400
4614,31040
4615,31872
4616,32640
4617,33216
4618,33664
4619,34048
4620,34368
4621,34560
4622,34496
4623,34496
4624,34496
4625,34432
4626,34240
4627,34176
4628,34112
4629,34112
4630,33984
4631,33984
4632,33984
4633,33920
4634,33920
4635,33984
4636,33984
4637,33920
4638,33856
4639,33920
4640,33856
4641,33920
4642,33920
4643,33920
4644,34048
4645,34176
4646,34112
4647,34048
4648,34048
4649,34112
4650,34112
4651,34112
4652,34176
4653,34240
4654,34240
4655,34176
4656,34112
4657,34112
4658,34176
4659,34240
4660,34304
4661,34432
4662,34368
4663,34304
4664,34176
4665,34240
4666,34304
4667,34368
4668,34368
4669,34432
4670,34368
4671,34304
4672,34240
4673,34304
4674,34368
4675,34304
4676,34240
4677,34176
4678,34176
4679,34176
4680,34112
4681,34048
4682,34048
4683,34048
4684,33856
4685,33792
4686,33856
4687,33856
4688,33792
4689,33792
4690,33856
4691,33856
4692,33856
4693,33856
4694,33920
4695,33920
4696,33920
4697,33920
4698,33920
4699,33984
4700,33920
4701,34112
4702,34176
4703,34176
4704,34176
4705,34176
4706,34112
4707,34176
4708,34176
4709,34112
4710,34112
4711,34112
4712,34176
4713,34176
4714,34048
4715,33984
4716,34112
4717,34112
4718,34112
4719,34112
4720,34112
4721,34176
4722,34176
4723,34240
4724,34304
4725,34240
4726,34176
4727,34176
4728,34304
4729,34496
4730,34496
4731,34432
4732,34496
4733,34560
4734,34560
4735,34496
4736,34496
4737,34304
4738,34048
4739,33856
4740,33728
4741,33792
4742,33792
4743,33792
4744,33728
4745,33664
4746,33600
4747,33472
4748,33536
4749,33792
4750,33920
4751,33920
4752,33984
4753,33984
4754,33984
4755,33920
4756,33920
4757,33984
4758,34048
4759,33984
4760,33920
4761,34048
4762,34112
4763,34112
4764,34176
4765,34240
4766,34560
4767,35136
4768,36224
4769,37760
4770,38976
4771,39488
4772,38720
4773,36544
4774,33856
4775,31936
4776,30720
4777,30272
4778,30336
4779,30784
4780,31488
4781,32256
4782,33024
4783,33664
4784,34048
4785,34240
4786,34432
4787,34496
4788,34560
4789,34688
4790,34624
4791,34688
4792,34496
4793,34240
4794,34112
4795,34112
4796,34112
4797,34048
4798,34048
4799,34176
4800,34240
4801,34240
4802,34112
4803,33984
4804,33984
4805,33984
4806,33984
4807,34112
4808,34176
4809,34112
4810,33984
4811,34048
4812,34112
4813,34176
4814,34176
4815,34304
4816,34368
4817,34368
4818,34240
4819,34240
4820,34176
4821,34304
4822,34368
4823,34432
4824,34432
4825,34368
4826,34304
4827,34304
4828,34368
4829,34432
4830,34432
4831,34432
4832,34496
4833,34496
4834,34560
4835,34432
4836,34368
4837,34368
4838,34368
4839,34368
4840,34432
4841,34496
4842,34432
4843,34368
4844,34240
4845,34240
4846,34176
4847,34048
4848,33920
4849,33920
4850,33920
4851,33856
4852,33856
4853,33920
4854,33920
4855,33920
4856,33920
4857,33920
4858,33920
4859,33984
4860,34048
4861,34048
4862,34112
4863,34112
4864,34048
4865,33984
4866,34112
4867,34112
4868,34112
4869,34112
4870,34176
4871,34176
4872,34112
4873,34176
4874,34240
4875,34304
4876,34304
4877,34240
4878,34304
4879,34368
4880,34240
4881,34112
4882,34112
4883,34176
4884,34176
4885,34176
4886,34176
4887,34240
4888,34240
4889,34176
4890,34112
4891,34176
4892,34176
4893,34176
4894,34304
4895,34240
4896,34304
4897,34304
4898,34368
4899,34432
4900,34496
4901,34432
4902,34496
4903,34624
4904,34560
4905,34368
4906,34176
4907,34112
4908,34048
4909,33920
4910,33728
4911,33664
4912,33728
4913,33792
4914,33728
4915,33664
4916,33664
4917,33664
4918,33664
4919,33792
4920,33984
4921,34048
4922,33984
4923,33856
4924,33856
4925,33920
4926,33920
4927,33920
4928,33984
4929,33984
4930,33920
4931,33920
4932,34112
4933,34432
4934,34688
4935,34944
4936,35584
4937,36736
4938,38208
4939,39360
4940,39808
4941,38848
4942,36352
4943,33472
4944,31296
4945,30144
4946,29824
4947,30016
4948,30720
4949,31552
4950,32320
4951,33024
4952,33600
4953,34112
4954,34368
4955,34496
4956,34560
4957,34560
4958,34560
4959,34496
4960,34368
4961,34368
4962,34304
4963,34240
4964,34112
4965,34112
4966,34048
4967,33984
4968,33984
4969,34048
4970,34176
4971,34176
4972,33984
4973,33856
4974,33920
4975,33984
4976,33984
4977,33984
4978,34048
4979,34112
4980,34176
4981,34176
4982,34176
4983,34112
4984,34048
4985,34048
4986,34112
4987,34240
4988,34304
4989,34240
4990,34112
4991,34112
4992,34112
4993,34176
4994,34240
4995,34368
4996,34432
4997,34368
4998,34304
4999,34304
5000,34368
5001,34368
5002,34368
5003,34432
5004,34560
5005,34560
5006,34496
5007,34368
5008,34304
5009,34240
5010,34240
5011,34240
5012,34240
5013,34240
5014,34112
5015,34048
5016,34048
5017,34112
5018,34048
5019,33920
5020,33920
5021,33920
5022,33920
5023,33984
5024,33984
5025,34048
5026,33920
5027,33856
5028,33920
5029,33984
5030,34048
5031,33984
5032,33920
5033,33984
5034,33984
5035,33984
5036,34048
5037,34112
5038,34176
5039,34176
5040,34240
5041,34304
5042,34368
5043,34304
5044,34240
5045,34304
5046,34304
5047,34304
5048,34240
5049,34240
5050,34304
5051,34240
5052,34112
5053,34112
5054,34048
5055,33984
5056,33984
5057,34048
5058,34112
5059,34112
5060,34112
5061,34112
5062,34176
5063,34240
5064,34176
5065,34176
5066,34240
5067,34304
5068,34304
5069,34304
5070,34432
5071,34560
5072,34624
5073,34560
5074,34624
5075,34560
5076,34496
5077,34432
5078,34304
5079,34240
5080,34112
5081,33920
5082,33792
5083,33856
5084,33920
5085,33856
5086,33792
5087,33792
5088,33728
5089,33600
5090,33600
5091,33792
5092,33856
5093,33792
5094,33792
5095,33920
5096,33920
5097,33856
5098,33856
5099,33984
5100,34112
5101,34112
5102,34048
5103,33984
5104,34048
5105,34176
5106,34368
5107,34688
5108,35200
5109,36096
5110,37440
5111,38976
5112,39936
5113,39616
5114,37696
5115,34816
5116,32192
5117,30464
5118,29760
5119,29760
5120,30400
5121,31168
5122,32000
5123,32768
5124,33408
5125,33984
5126,34304
5127,34432
5128,34560
5129,34624
5130,34624
5131,34560
5132,34496
5133,34432
5134,34368
5135,34240
5136,34176
5137,34112
5138,34048
5139,33984
5140,34048
5141,34112
5142,34112
5143,33984
5144,33920
5145,33920
5146,33984
5147,33984
5148,34048
5149,34112
5150,34112
5151,34112
5152,34048
5153,34048
5154,34048
5155,34112
5156,34112
5157,34176
5158,34240
5159,34304
5160,34368
5161,34368
5162,34304
5163,34240
5164,34176
5165,34176
5166,34240
5167,34240
5168,34176
5169,34240
5170,34368
5171,34496
5172,34496
5173,34432
5174,34432
5175,34432
5176,34368
5177,34304
5178,34368
5179,34432
5180,34432
5181,34432
5182,34432
5183,34432
5184,34368
5185,34240
5186,34176
5187,34176
5188,34176
5189,34048
5190,33920
5191,33792
5192,33664
5193,33664
5194,33792
5195,33920
5196,33984
5197,33920
5198,33856
5199,33920
5200,34048
5201,34048
5202,34048
5203,34048
5204,34048
5205,34048
5206,33984
5207,33984
5208,34112
5209,34240
5210,34176
5211,34176
5212,34112
5213,34048
5214,33984
5215,33984
5216,34048
5217,34112
5218,34112
5219,34112
5220,34112
5221,34176
5222,34240
5223,34240
5224,34240
5225,34240
5226,34240
5227,34176
5228,34176
5229,34240
5230,34240
5231,34176
5232,34112
5233,34112
5234,34048
5235,33984
5236,33920
5237,33920
5238,33920
5239,33920
5240,33920
5241,33920
5242,33920
5243,33920
5244,33984
5245,34112
5246,34240
5247,34240
5248,34112
5249,34048
5250,34112
5251,34176
5252,34048
5253,34048
5254,34112
5255,34112
5256,34176
5257,34368
5258,34496
5259,34496
5260,34496
5261,34496
5262,34496
5263,34432
5264,34176
5265,34048
5266,34048
5267,33984
5268,33856
5269,33728
5270,33664
5271,33664
5272,33664
5273,33600
5274,33600
5275,33664
5276,33728
5277,33664
5278,33664
5279,33792
5280,33792
5281,33792
5282,33728
5283,33792
5284,33920
5285,33920
5286,33920
5287,33984
5288,34048
5289,34048
5290,33920
5291,34048
5292,34240
5293,34496
5294,35072
5295,36096
5296,37568
5297,38976
5298,39680
5299,39104
5300,36992
5301,34176
5302,31680
5303,30272
5304,29824
5305,30016
5306,30464
5307,31232
5308,32128
5309,32896
5310,33472
5311,33920
5312,34240
5313,34560
5314,34624
5315,34624
5316,34560
5317,34432
5318,34304
5319,34176
5320,34112
5321,34112
5322,34112
5323,34048
5324,34048
5325,34048
5326,33984
5327,33920
5328,33920
5329,33920
5330,33920
5331,33856
5332,33792
5333,33856
5334,33920
5335,33920
5336,33920
5337,34048
5338,34112
5339,34112
5340,34048
5341,34112
5342,34176
5343,34176
5344,34176
5345,34240
5346,34240
5347,34112
5348,34048
5349,34112
5350,34240
5351,34240
5352,34240
5353,34240
5354,34304
5355,34304
5356,34240
5357,34240
5358,34240
5359,34240
5360,34240
5361,34176
5362,34240
5363,34304
5364,34368
5365,34368
5366,34368
5367,34304
5368,34240
5369,34240
5370,34240
5371,34304
5372,34240
5373,34112
5374,33984
5375,33984
5376,33984
5377,33920
5378,33856
5379,33856
5380,33856
5381,33792
5382,33728
5383,33792
5384,33792
5385,33792
5386,33792
5387,33856
5388,33920
5389,33984
5390,33984
5391,34048
5392,34048
5393,34048
5394,33984
5395,34112
5396,34176
5397,34112
5398,34048
5399,34048
5400,34112
5401,34112
5402,34048
5403,34048
5404,34176
5405,34176
5406,34176
5407,34112
5408,34112
5409,34176
5410,34176
5411,34112
5412,34112
5413,34048
5414,33984
5415,33920
5416,33984
5417,34112
5418,34112
5419,34112
5420,34112
5421,34176
5422,34240
5423,34304
5424,34304
5425,34368
5426,34368
5427,34368
5428,34432
5429,34496
5430,34496
5431,34432
5432,34240
5433,34176
5434,34048
5435,33856
5436,33728
5437,33728
5438,33792
5439,33728
5440,33728
5441,33728
5442,33664
5443,33536
5444,33472
5445,33536
5446,33664
5447,33728
5448,33792
5449,33856
5450,33920
5451,33920
5452,33920
5453,33920
5454,34048
5455,34048
5456,34048
5457,33920
5458,33920
5459,34048
5460,34176
5461,34304
5462,34816
5463,35712
5464,37056
5465,38336
5466,39104
5467,38912
5468,37184
5469,34560
5470,32320
5471,31040
5472,30464
5473,30464
5474,30784
5475,31360
5476,32064
5477,32704
5478,33344
5479,33792
5480,34176
5481,34368
5482,34432
5483,34496
5484,34560
5485,34496
5486,34432
5487,34368
5488,34368
5489,34240
5490,34048
5491,33920
5492,33920
5493,33920
5494,33920
5495,33920
5496,33984
5497,33984
5498,33920
5499,33984
5500,34048
5501,34112
5502,34112
5503,34048
5504,34112
5505,34176
5506,34176
5507,34112
5508,34112
5509,34112
5510,34112
5511,34176
5512,34112
5513,34112
5514,34112
5515,34048
5516,34048
5517,34112
5518,34176
5519,34176
5520,34304
5521,34432
5522,34496
5523,34432
5524,34368
5525,34368
5526,34304
5527,34368
5528,34368
5529,34432
5530,34496
5531,34496
5532,34368
5533,34368
5534,34304
5535,34240
5536,34176
5537,34240
5538,34240
5539,34112
5540,33984
5541,33984
5542,34048
5543,34048
5544,33984
5545,33984
5546,33984
5547,33984
5548,33920
5549,33856
5550,33792
5551,33792
5552,33792
5553,33792
5554,33920
5555,34048
5556,34048
5557,33984
5558,33984
5559,34112
5560,34112
5561,34048
5562,34048
5563,34176
5564,34240
5565,34176
5566,34176
5567,34176
5568,34240
5569,34240
5570,34176
5571,34240
5572,34176
5573,34112
5574,34112
5575,34176
5576,34176
5577,34176
5578,34176
5579,34176
5580,34176
5581,34176
5582,34112
5583,34176
5584,34240
5585,34304
5586,34240
5587,34240
5588,34240
5589,34304
5590,34304
5591,34304
5592,34368
5593,34496
5594,34560
5595,34560
5596,34496
5597,34304
5598,34176
5599,34048
5600,33920
5601,33856
5602,33856
5603,33792
5604,33792
5605,33664
5606,33600
5607,33536
5608,33664
5609,33792
5610,33792
5611,33792
5612,33728
5613,33792
5614,33856
5615,33856
5616,33920
5617,33984
5618,34048
5619,33984
5620,34048
5621,34048
5622,33984
5623,33984
5624,34048
5625,34304
5626,34560
5627,35008
5628,35840
5629,37248
5630,38720
5631,39424
5632,39168
5633,37376
5634,34752
5635,32256
5636,30784
5637,30080
5638,30016
5639,30464
5640,31168
5641,31936
5642,32704
5643,33408
5644,33920
5645,34240
5646,34496
5647,34688
5648,34688
5649,34560
5650,34496
5651,34368
5652,34240
5653,34240
5654,34304
5655,34304
5656,34176
5657,33984
5658,33920
5659,33984
5660,33984
5661,33920
5662,33920
5663,34048
5664,34112
5665,34112
5666,34112
5667,34112
5668,34176
5669,34112
5670,34048
5671,34048
5672,34112
5673,34112
5674,34112
5675,34112
5676,34176
5677,34176
5678,34176
5679,34304
5680,34432
5681,34368
5682,34304
5683,34304
5684,34368
5685,34304
5686,34304
5687,34304
5688,34368
5689,34368
5690,34304
5691,34240
5692,34304
5693,34304
5694,34432
5695,34496
5696,34560
5697,34560
5698,34432
5699,34304
5700,34368
5701,34368
5702,34368
5703,34304
5704,34368
5705,34368
5706,34112
5707,33984
5708,33984
5709,34048
5710,34176
5711,34176
5712,34048
5713,33920
5714,33856
5715,33792
5716,33792
5717,33856
5718,33856
5719,33792
5720,33856
5721,34048
5722,34176
5723,34176
5724,34176
5725,34176
5726,34112
5727,34048
5728,34048
5729,34048
5730,34176
5731,34304
5732,34304
5733,34240
5734,34240
5735,34240
5736,34176
5737,34176
5738,34240
5739,34240
5740,34176
5741,34240
5742,34368
5743,34368
5744,34304
5745,34176
5746,34112
5747,34048
5748,34048
5749,34048
5750,34048
5751,34112
5752,34176
5753,34112
5754,34176
5755,34240
5756,34176
5757,34176
5758,34240
5759,34368
5760,34432
5761,34432
5762,34496
5763,34496
5764,34624
5765,34624
5766,34560
5767,34432
5768,34304
5769,34240
5770,34112
5771,33920
5772,33792
5773,33728
5774,33664
5775,33664
5776,33664
5777,33664
5778,33600
5779,33664
5780,33728
5781,33792
5782,33792
5783,33920
5784,33920
5785,33920
5786,33920
5787,33984
5788,34048
5789,34048
5790,33984
5791,33920
5792,33984
5793,34048
5794,34112
5795,34304
5796,34560
5797,34944
5798,35520
5799,36672
5800,38208
5801,39488
5802,39872
5803,38848
5804,36416
5805,33600
5806,31296
5807,30016
5808,29696
5809,30016
5810,30720
5811,31552
5812,32448
5813,33216
5814,33728
5815,34048
5816,34304
5817,34432
5818,34496
5819,34496
5820,34432
5821,34496
5822,34496
5823,34368
5824,34304
5825,34176
5826,34176
5827,34176
5828,34112
5829,34048
5830,33984
5831,33984
5832,33920
5833,33984
5834,34048
5835,34048
5836,33984
5837,33920
5838,34048
5839,34048
5840,34048
5841,34048
5842,34112
5843,34048
5844,33984
5845,34048
5846,34112
5847,34240
5848,34304
5849,34304
5850,34304
5851,34368
5852,34368
5853,34240
5854,34304
5855,34368
5856,34304
5857,34240
5858,34240
5859,34304
5860,34304
5861,34240
5862,34240
5863,34304
5864,34368
5865,34432
5866,34432
5867,34496
5868,34496
5869,34432
5870,34368
5871,34304
5872,34240
5873,34240
5874,34176
5875,34176
5876,34176
5877,34112
5878,34112
5879,34112
5880,34112
5881,34112
5882,33984
5883,33920
5884,33920
5885,33920
5886,33856
5887,33856
5888,33920
5889,34048
5890,34048
5891,33920
5892,33920
5893,33984
5894,33920
5895,33984
5896,34048
5897,34048
5898,34048
5899,34112
5900,34176
5901,34240
5902,34176
5903,34112
5904,34048
5905,34048
5906,34112
5907,34112
5908,34112
5909,34240
5910,34304
5911,34240
5912,34240
5913,34240
5914,34240
5915,34240
5916,34176
5917,34112
5918,34176
5919,34176
5920,34176
5921,34176
5922,34176
5923,34112
5924,33984
5925,33984
5926,34048
5927,33984
5928,33920
5929,33984
5930,34048
5931,34048
5932,33984
5933,33984
5934,34048
5935,34112
5936,34048
5937,34048
5938,34112
5939,34176
5940,34176
5941,34176
5942,34304
5943,34496
5944,34496
5945,34432
5946,34496
5947,34624
5948,34688
5949,34560
5950,34432
5951,34368
5952,34240
5953,34112
5954,33920
5955,33792
5956,33664
5957,33536
5958,33472
5959,33536
5960,33600
5961,33600
5962,33600
5963,33728
5964,33792
5965,33920
5966,33984
5967,34048
5968,34112
5969,34112
5970,34048
5971,33984
5972,33920
5973,33920
5974,33856
5975,33856
5976,33920
5977,34048
5978,34240
5979,34496
5980,35008
5981,35776
5982,36992
5983,38464
5984,39616
5985,39808
5986,38400
5987,35712
5988,32960
5989,30912
5990,29952
5991,29760
5992,30208
5993,30976
5994,31808
5995,32576
5996,33216
5997,33728
5998,34112
5999,34368
6000,34560
6001,34688
6002,34688
6003,34624
6004,34496
6005,34432
6006,34304
6007,34176
6008,34112
6009,34048
6010,34048
6011,33984
6012,33920
6013,33984
6014,33984
6015,33984
6016,33984
6017,33984
6018,34048
6019,34048
6020,34048
6021,34112
6022,34176
6023,34112
6024,34048
6025,34048
6026,34176
6027,34176
6028,34112
6029,34048
6030,34048
6031,34048
6032,33984
6033,34048
6034,34240
6035,34304
6036,34304
6037,34304
6038,34304
6039,34304
6040,34240
6041,34112
6042,34176
6043,34304
6044,34304
6045,34368
6046,34432
6047,34496
6048,34432
6049,34368
6050,34368
6051,34368
6052,34432
6053,34368
6054,34304
6055,34304
6056,34304
6057,34240
6058,34240
6059,34240
6060,34176
6061,34048
6062,33856
6063,33792
6064,33792
6065,33792
6066,33856
6067,33856
6068,33920
6069,33920
6070,33856
6071,33856
6072,33920
6073,33984
6074,33984
6075,33920
6076,33984
6077,33984
6078,33920
6079,33920
6080,34048
6081,34048
6082,33984
6083,33920
6084,33984
6085,34112
6086,34112
6087,34112
6088,34176
6089,34176
6090,34112
6091,34112
6092,34112
6093,34176
6094,34176
6095,34048
6096,34048
6097,34112
6098,34112
6099,34048
6100,34048
6101,34112
6102,34112
6103,34048
6104,33984
6105,34048
6106,34048
6107,33920
6108,33856
6109,33920
6110,33984
6111,33984
6112,33984
6113,33984
6114,33984
6115,33984
6116,33920
6117,33984
6118,34112
6119,34176
6120,34304
6121,34432
6122,34496
6123,34496
6124,34496
6125,34560
6126,34560
6127,34432
6128,34240
6129,34112
6130,33984
6131,33920
6132,33792
6133,33600
6134,33536
6135,33600
6136,33600
6137,33600
6138,33600
6139,33600
6140,33600
6141,33600
6142,33600
6143,33664
6144,33792
6145,33856
6146,33920
6147,34048
6148,34048
6149,33920
6150,33920
6151,34048
6152,34048
6153,33984
6154,33984
6155,34176
6156,34304
6157,34432
6158,35072
6159,36288
6160,37824
6161,38976
6162,39232
6163,38272
6164,35904
6165,33280
6166,31360
6167,30400
6168,30144
6169,30400
6170,31040
6171,31744
6172,32576
6173,33280
6174,33792
6175,34112
6176,34368
6177,34368
6178,34304
6179,34304
6180,34432
6181,34496
6182,34432
6183,34304
6184,34240
6185,34112
6186,33984
6187,33920
6188,33856
6189,33856
6190,33856
6191,33792
6192,33856
6193,33920
6194,33984
6195,33984
6196,33984
6197,33984
6198,33984
6199,33920
6200,33920
6201,34048
6202,34048
6203,34048
6204,33984
6205,34112
6206,34176
6207,34176
6208,34112
6209,34176
6210,34176
6211,34112
6212,34112
6213,34176
6214,34176
6215,34240
6216,34240
6217,34240
6218,34304
6219,34240
6220,34176
6221,34112
6222,34176
6223,34240
6224,34304
6225,34368
6226,34432
6227,34368
6228,34240
6229,34112
6230,34176
6231,34176
6232,34112
6233,34112
6234,34112
6235,34176
6236,34112
6237,34048
6238,34048
6239,34112
6240,34048
6241,33920
6242,33856
6243,33856
6244,33792
6245,33728
6246,33728
6247,33792
6248,33856
6249,33920
6250,33984
6251,33984
6252,34048
6253,33984
6254,33920
6255,33984
6256,34048
6257,34112
6258,34112
6259,34048
6260,33984
6261,33984
6262,34112
6263,34176
6264,34112
6265,34112
6266,34176
6267,34304
6268,34240
6269,34240
6270,34240
6271,34240
6272,34240
6273,34176
6274,34176
6275,34112
6276,34112
6277,34048
6278,34112
6279,34240
6280,34304
6281,34304
6282,34304
6283,34240
6284,34240
6285,34240
6286,34240
6287,34368
6288,34304
6289,34624
6290,34560
6291,34560
6292,34432
6293,34176
6294,33984
6295,33920
6296,33920
6297,33856
6298,33792
6299,33792
6300,33856
6301,33792
6302,33600
6303,33472
6304,33536
6305,33664
6306,33792
6307,33856
6308,33920
6309,33984
6310,33984
6311,33920
6312,33920
6313,33984
6314,33984
6315,33984
6316,33984
6317,34048
6318,34112
6319,34176
6320,34112
6321,34368
6322,34752
6323,35456
6324,36608
6325,38144
6326,39168
6327,39360
6328,38144
6329,35648
6330,33088
6331,31296
6332,30336
6333,30144
6334,30528
6335,30464
6336,31744
6337,32512
6338,33280
6339,33792
6340,34176
6341,34432
6342,34624
6343,34688
6344,34624
6345,34560
6346,34432
6347,34368
6348,34240
6349,34240
6350,34240
6351,34240
6352,34112
6353,34048
6354,33984
6355,33984
6356,33920
6357,33920
6358,33920
6359,33984
6360,33984
6361,33984
6362,34048
6363,34048
6364,34048
6365,33984
6366,34112
6367,34176
6368,34176
6369,34240
6370,34304
6371,34304
6372,34176
6373,34048
6374,34048
6375,34176
6376,34304
6377,34304
6378,34304
6379,34304
6380,34304
6381,34304
6382,34304
6383,34368
6384,34432
6385,34432
6386,34368
6387,34304
6388,34368
6389,34368
6390,34432
6391,34368
6392,34368
6393,34304
6394,34240
6395,34240
6396,34368
6397,34432
6398,34368
6399,34368
6400,34304
6401,34240
6402,34112
6403,33984
6404,33984
6405,33984
6406,33920
6407,33920
6408,33920
6409,33920
6410,33792
6411,33856
6412,33920
6413,34048
6414,33984
6415,33920
6416,33856
6417,33984
6418,34048
6419,34048
6420,34048
6421,34176
6422,34176
6423,34176
6424,34176
6425,34112
6426,34240
6427,34176
6428,34112
6429,34176
6430,34240
6431,34240
6432,34112
6433,34112
6434,34240
6435,34240
6436,34240
6437,34240
6438,34304
6439,34240
6440,34176
6441,34176
6442,34304
6443,34368
6444,34368
6445,34240
6446,34176
6447,34176
6448,34112
6449,34112
6450,34240
6451,34432
6452,34496
6453,34496
6454,34496
6455,34560
6456,34624
6457,34624
6458,34496
6459,34304
6460,34176
6461,34048
6462,33920
6463,33920
6464,33984
6465,33856
6466,33728
6467,33728
6468,33728
6469,33664
6470,33600
6471,33600
6472,33664
6473,33792
6474,33792
6475,33920
6476,33920
6477,33920
6478,33856
6479,33984
6480,34048
6481,34048
6482,34112
6483,34112
6484,34176
6485,34112
6486,34112
6487,34368
6488,34624
6489,35136
6490,36032
6491,37376
6492,38848
6493,39744
6494,39424
6495,37568
6496,34752
6497,32192
6498,30528
6499,29824
6500,29760
6501,30400
6502,31168
6503,32000
6504,32832
6505,33536
6506,33984
6507,34240
6508,34496
6509,34688
6510,34816
6511,34688
6512,34432
6513,34304
6514,34240
6515,34176
6516,34176
6517,34176
6518,34112
6519,34112
6520,34112
6521,34176
6522,34176
6523,33984
6524,33920
6525,33984
6526,34048
6527,34048
6528,34048
6529,34112
6530,34112
6531,34176
6532,34048
6533,33920
6534,33984
6535,34048
6536,34112
6537,34176
6538,34240
6539,34240
6540,34176
6541,34176
6542,34176
6543,34176
6544,34176
6545,34176
6546,34304
6547,34368
6548,34304
6549,34304
6550,34368
6551,34496
6552,34368
6553,34240
6554,34176
6555,34240
6556,34240
6557,34304
6558,34368
6559,34368
6560,34368
6561,34304
6562,34304
6563,34304
6564,34240
6565,34240
6566,34176
6567,34240
6568,34304
6569,34240
6570,34112
6571,34112
6572,34048
6573,33984
6574,33920
6575,33920
6576,33984
6577,33856
6578,33792
6579,33856
6580,33984
6581,33984
6582,33920
6583,33920
6584,33984
6585,33984
6586,34048
6587,34048
6588,34048
6589,34048
6590,33984
6591,33984
6592,34048
6593,34176
6594,34176
6595,34176
6596,34240
6597,34240
6598,34240
6599,34176
6600,34304
6601,34304
6602,34304
6603,34304
6604,34240
6605,34176
6606,34048
6607,33984
6608,34048
6609,34048
6610,34048
6611,34048
6612,34048
6613,34112
6614,34048
6615,34112
6616,34112
6617,34240
6618,34304
6619,34368
6620,34432
6621,34560
6622,34624
6623,34688
6624,34624
6625,34560
6626,34496
6627,34368
6628,34176
6629,34112
6630,33984
6631,33856
6632,33792
6633,33664
6634,33600
6635,33536
6636,33536
6637,33472
6638,33600
6639,33664
6640,33664
6641,33728
6642,33856
6643,33984
6644,33920
6645,33920
6646,33984
6647,34048
6648,34048
6649,34112
6650,34112
6651,34176
6652,34048
6653,33984
6654,33920
6655,34112
6656,34304
6657,34688
6658,35456
6659,36672
6660,38208
6661,39424
6662,39808
6663,38720
6664,36096
6665,33216
6666,31104
6667,30080
6668,29888
6669,30208
6670,30848
6671,31680
6672,32448
6673,33024
6674,33536
6675,33984
6676,34304
6677,34496
6678,34496
6679,34560
6680,34496
6681,34496
6682,34432
6683,34368
6684,34304
6685,34240
6686,34112
6687,34048
6688,33984
6689,33920
6690,33920
6691,33920
6692,33984
6693,34048
6694,34112
6695,34048
6696,34048
6697,33920
6698,33920
6699,33920
6700,34048
6701,34048
6702,34048
6703,33984
6704,33984
6705,34112
6706,34176
6707,34176
6708,34176
6709,34240
6710,34176
6711,34240
6712,34176
6713,34240
6714,34304
6715,34304
6716,34176
6717,34176
6718,34240
6719,34240
6720,34304
6721,34368
6722,34304
6723,34176
6724,34112
6725,34176
6726,34304
6727,34304
6728,34304
6729,34368
6730,34368
6731,34304
6732,34176
6733,34176
6734,34304
6735,34304
6736,34240
6737,34176
6738,34112
6739,34048
6740,34048
6741,34112
6742,34112
6743,33984
6744,33792
6745,33728
6746,33728
6747,33792
6748,33792
6749,33856
6750,33984
6751,34048
6752,34048
6753,33984
6754,34048
6755,33984
6756,33984
6757,33920
6758,33984
6759,34112
6760,34176
6761,34176
6762,34176
6763,34240
6764,34240
6765,34240
6766,34176
6767,34176
6768,34240
6769,34240
6770,34176
6771,34176
6772,34176
6773,34112
6774,34048
6775,34048
6776,34048
6777,34048
6778,34048
6779,34112
6780,34240
6781,34240
6782,34240
6783,34240
6784,34368
6785,34304
6786,34432
6787,34496
6788,34560
6789,34560
6790,34624
6791,34624
6792,34560
6793,34432
6794,34240
6795,34048
6796,33792
6797,33600
6798,33536
6799,33536
6800,33472
6801,33600
6802,33600
6803,33600
6804,33664
6805,33728
6806,33792
6807,33792
6808,33856
6809,33856
6810,33856
6811,33792
6812,33856
6813,33920
6814,33984
6815,33920
6816,33984
6817,34048
6818,34112
6819,34048
6820,34112
6821,34304
6822,34560
6823,34944
6824,35840
6825,37248
6826,38784
6827,39680
6828,39424
6829,37312
6830,34752
6831,32128
6832,30464
6833,29760
6834,29824
6835,30400
6836,31104
6837,32000
6838,32768
6839,33472
6840,33920
6841,34240
6842,34496
6843,34624
6844,34560
6845,34496
6846,34496
6847,34496
6848,34368
6849,34240
6850,34112
6851,34112
6852,34112
6853,34048
6854,34048
6855,33984
6856,33984
6857,33920
6858,33856
6859,33920
6860,33920
6861,33984
6862,33984
6863,34048
6864,34112
6865,34112
6866,34112
6867,34112
6868,34112
6869,34048
6870,34048
6871,34048
6872,34112
6873,34112
6874,34112
6875,34176
6876,34240
6877,34176
6878,34112
6879,34112
6880,34240
6881,34304
6882,34240
6883,34240
6884,34240
6885,34304
6886,34304
6887,34304
6888,34304
6889,34304
6890,34304
6891,34304
6892,34368
6893,34432
6894,34368
6895,34368
6896,34368
6897,34368
6898,34240
6899,34112
6900,34112
6901,34176
6902,34176
6903,34048
6904,34048
6905,34048
6906,33984
6907,33984
6908,34048
6909,34048
6910,34048
6911,33984
6912,33920
6913,33856
6914,33920
6915,33920
6916,33920
6917,33984
6918,33984
6919,33984
6920,33984
6921,34048
6922,34112
6923,34112
6924,34112
6925,34176
6926,34176
6927,34176
6928,34112
6929,34176
6930,34240
6931,34240
6932,34176
6933,34112
6934,34176
6935,34176
6936,34176
6937,34176
6938,34304
6939,34368
6940,34368
6941,34240
6942,34304
6943,34304
6944,34304
6945,34368
6946,34496
6947,34560
6948,34496
6949,34432
6950,34496
6951,34624
6952,34560
6953,34368
6954,34304
6955,34176
6956,33984
6957,33792
6958,33792
6959,33728
6960,33664
6961,33664
6962,33600
6963,33600
6964,33600
6965,33600
6966,33664
6967,33728
6968,33856
6969,33920
6970,33920
6971,34048
6972,34048
6973,34048
6974,33920
6975,33920
6976,33984
6977,33984
6978,33856
6979,33856
6980,33984
6981,34176
6982,34368
6983,34688
6984,35520
6985,36864
6986,38208
6987,39296
6988,39488
6989,38336
6990,35712
6991,32960
6992,31104
6993,30144
6994,30016
6995,30400
6996,31040
6997,31936
6998,32704
6999,33344
7000,33856
7001,34176
7002,34368
7003,34432
7004,34496
7005,34624
7006,34624
7007,34432
7008,34304
7009,34304
7010,34240
7011,34112
7012,34048
7013,33984
7014,34048
7015,34048
7016,33984
7017,33984
7018,33984
7019,33920
7020,33920
7021,33920
7022,33984
7023,33984
7024,33984
7025,34048
7026,34112
7027,34176
7028,34176
7029,34240
7030,34304
7031,34240
7032,34048
7033,33984
7034,34048
7035,34048
7036,34112
7037,34112
7038,34176
7039,34176
7040,34176
7041,34176
7042,34240
7043,34240
7044,34240
7045,34240
7046,34368
7047,34368
7048,34304
7049,34112
7050,34112
7051,34176
7052,34176
7053,34176
7054,34240
7055,34368
7056,34368
7057,34240
7058,34176
7059,34240
7060,34240
7061,34176
7062,34112
7063,34048
7064,33984
7065,33920
7066,33920
7067,33920
7068,33984
7069,33984
7070,33920
7071,33856
7072,33792
7073,33792
7074,33792
7075,33856
7076,33920
7077,33984
7078,33984
7079,33984
7080,34048
7081,34048
7082,34112
7083,34112
7084,34240
7085,34304
7086,34176
7087,34048
7088,34048
7089,34048
7090,34112
7091,34176
7092,34176
7093,34176
7094,34176
7095,34112
7096,34176
7097,34240
7098,34176
7099,34112
7100,34112
7101,34176
7102,34176
7103,34176
7104,34240
7105,34368
7106,34496
7107,34496
7108,34496
7109,34560
7110,34624
7111,34496
7112,34304
7113,34176
7114,34112
7115,33920
7116,33792
7117,33728
7118,33728
7119,33664
7120,33664
7121,33728
7122,33664
7123,33536
7124,33472
7125,33472
7126,33536
7127,33728
7128,33856
7129,33984
7130,33984
7131,33856
7132,33728
7133,33728
7134,33856
7135,33984
7136,33984
7137,33984
7138,33920
7139,33856
7140,33920
7141,34048
7142,34368
7143,34880
7144,35840
7145,37248
7146,38592
7147,39296
7148,38656
7149,36480
7150,34048
7151,31872
7152,30656
7153,30144
7154,30272
7155,30784
7156,31552
7157,32256
7158,32960
7159,33536
7160,33920
7161,34112
7162,34368
7163,34432
7164,34496
7165,34368
7166,34304
7167,34304
7168,34240
7169,34240
7170,34176
7171,34112
7172,34048
7173,33984
7174,33920
7175,33920
7176,33856
7177,33792
7178,33728
7179,33728
7180,33792
7181,33920
7182,33920
7183,33920
7184,34048
7185,34112
7186,34048
7187,33984
7188,34048
7189,34112
7190,34112
7191,34048
7192,34112
7193,34176
7194,34176
7195,34048
7196,34048
7197,33984
7198,33984
7199,33920
7200,33984
7201,34112
7202,34176
7203,34176
7204,34112
7205,34240
7206,34304
7207,34176
7208,34048
7209,34048
7210,34048
7211,34048
7212,34048
7213,34048
7214,34176
7215,34240
7216,34240
7217,34304
7218,34240
7219,34176
7220,34112
7221,34048
7222,33984
7223,33920
7224,33920
7225,33984
7226,33984
7227,33856
7228,33728
7229,33664
7230,33728
7231,33792
7232,33792
7233,33792
7234,33856
7235,33856
7236,33856
7237,33856
7238,33984
7239,34112
7240,34112
7241,34048
7242,34048
7243,34112
7244,34048
7245,34048
7246,34112
7247,34176
7248,34176
7249,34048
7250,34048
7251,34112
7252,34112
7253,34112
7254,34112
7255,34240
7256,34368
7257,34368
7258,34368
7259,34496
7260,34496
7261,34432
7262,34432
7263,34432
7264,34432
7265,34368
7266,34304
7267,34240
7268,34240
7269,34176
7270,33984
7271,33920
7272,33856
7273,33728
7274,33600
7275,33600
7276,33664
7277,33664
7278,33664
7279,33728
7280,33792
7281,33664
7282,33600
7283,33664
7284,33792
7285,33856
7286,33920
7287,33984
7288,34048
7289,34048
7290,33920
7291,33728
7292,33728
7293,33792
7294,33792
7295,33920
7296,34112
7297,34368
7298,34752
7299,35648
7300,36992
7301,38400
7302,39232
7303,38976
7304,37248
7305,34688
7306,32384
7307,30912
7308,30272
7309,30336
7310,30720
7311,31296
7312,32064
7313,32832
7314,33472
7315,33920
7316,34176
7317,34432
7318,34560
7319,34560
7320,34432
7321,34368
7322,34368
7323,34304
7324,34176
7325,34112
7326,34112
7327,34048
7328,33984
7329,33920
7330,33920
7331,33920
7332,33856
7333,33856
7334,33984
7335,34048
7336,33984
7337,33984
7338,33984
7339,34048
7340,34048
7341,34048
7342,34048
7343,34176
7344,34240
7345,34176
7346,34112
7347,34112
7348,34048
7349,33984
7350,33984
7351,34048
7352,34112
7353,34176
7354,34240
7355,34304
7356,34176
7357,34112
7358,34112
7359,34176
7360,34240
7361,34176
7362,34240
7363,34304
7364,34368
7365,34240
7366,34176
7367,34176
7368,34240
7369,34240
7370,34240
7371,34304
7372,34304
7373,34240
7374,34112
7375,34112
7376,34048
7377,33984
7378,33984
7379,34048
7380,34048
7381,33984
7382,33920
7383,33920
7384,33984
7385,33984
7386,33920
7387,33920
7388,33920
7389,33920
7390,33856
7391,33856
7392,33984
7393,34048
7394,34112
7395,34112
7396,34112
7397,34240
7398,34304
7399,34240
7400,34240
7401,34176
7402,34176
7403,34176
7404,34240
7405,34304
7406,34368
7407,34304
7408,34240
7409,34240
7410,34240
7411,34240
7412,34240
7413,34304
7414,34432
7415,34496
7416,34496
7417,34560
7418,34624
7419,34560
7420,34496
7421,34496
7422,34560
7423,34496
7424,34368
7425,34304
7426,34304
7427,34176
7428,33920
7429,33728
7430,33728
7431,33728
7432,33664
7433,33664
7434,33728
7435,33792
7436,33792
7437,33728
7438,33728
7439,33792
7440,33728
7441,33728
7442,33920
7443,34048
7444,34048
7445,34048
7446,34048
7447,34176
7448,34240
7449,34176
7450,34112
7451,34112
7452,34240
7453,34432
7454,34816
7455,35520
7456,36608
7457,38080
7458,39104
7459,39360
7460,38144
7461,35648
7462,32960
7463,31168
7464,30208
7465,30016
7466,30336
7467,31104
7468,32000
7469,32704
7470,33280
7471,33792
7472,34240
7473,34432
7474,34560
7475,34560
7476,34624
7477,34624
7478,34560
7479,34432
7480,34368
7481,34240
7482,34112
7483,34048
7484,34048
7485,34048
7486,33984
7487,33984
7488,33984
7489,33984
7490,33984
7491,34048
7492,34112
7493,34112
7494,34048
7495,34048
7496,34112
7497,34176
7498,34112
7499,33984
7500,33984
7501,34048
7502,34048
7503,33984
7504,34048
7505,34112
7506,34176
7507,34112
7508,34176
7509,34240
7510,34368
7511,34368
7512,34304
7513,34368
7514,34368
7515,34304
7516,34176
7517,34240
7518,34240
7519,34304
7520,34304
7521,34176
7522,34176
7523,34176
7524,34176
7525,34240
7526,34304
7527,34304
7528,34240
7529,34176
7530,34240
7531,34240
7532,34176
7533,34112
7534,34112
7535,34112
7536,33984
7537,33920
7538,33920
7539,33984
7540,33920
7541,33856
7542,33856
7543,33984
7544,33984
7545,33856
7546,33792
7547,33856
7548,33920
7549,34112
7550,34176
7551,34112
7552,34112
7553,34112
7554,34176
7555,34240
7556,34176
7557,34176
7558,34176
7559,34240
7560,34176
7561,34112
7562,34112
7563,34176
7564,34240
7565,34240
7566,34176
7567,34240
7568,34240
7569,34240
7570,34304
7571,34368
7572,34432
7573,34432
7574,34368
7575,34496
7576,34688
7577,34752
7578,34688
7579,34560
7580,34560
7581,34496
7582,34368
7583,34176
7584,34048
7585,33920
7586,33728
7587,33600
7588,33664
7589,33728
7590,33728
7591,33728
7592,33728
7593,33792
7594,33728
7595,33664
7596,33664
7597,33792
7598,33920
7599,33984
7600,34048
7601,34176
7602,34112
7603,33984
7604,33920
7605,33984
7606,33984
7607,33984
7608,33920
7609,33984
7610,34112
7611,34304
7612,34560
7613,35136
7614,36160
7615,37696
7616,39104
7617,39808
7618,39360
7619,37248
7620,34368
7621,31872
7622,30400
7623,29888
7624,29952
7625,30464
7626,31232
7627,32064
7628,32768
7629,33408
7630,34048
7631,34368
7632,34560
7633,34624
7634,34624
7635,34624
7636,34496
7637,34368
7638,34368
7639,34368
7640,34304
7641,34176
7642,34176
7643,34112
7644,34048
7645,34048
7646,34048
7647,34048
7648,33920
7649,33792
7650,33728
7651,33856
7652,33984
7653,33984
7654,34048
7655,34176
7656,34176
7657,34112
7658,34048
7659,34176
7660,34176
7661,34112
7662,34048
7663,34112
7664,34176
7665,34240
7666,34304
7667,34368
7668,34304
7669,34240
7670,34240
7671,34304
7672,34304
7673,34240
7674,34240
7675,34240
7676,34240
7677,34176
7678,34176
7679,34176
7680,34304
7681,34240
7682,34176
7683,34112
7684,34176
7685,34304
7686,34240
7687,34176
7688,34240
7689,34304
7690,34304
7691,34240
7692,34304
7693,34304
7694,34176
7695,33984
7696,33984
7697,33984
7698,33984
7699,33984
7700,33984
7701,33920
7702,33856
7703,33792
7704,33856
7705,33984
7706,34048
7707,34112
7708,34112
7709,34112
7710,34112
7711,34048
7712,34048
7713,34112
7714,34240
7715,34176
7716,34176
7717,34304
7718,34368
7719,34368
7720,34304
7721,34304
7722,34304
7723,34240
7724,34176
7725,34176
7726,34240
7727,34240
7728,34240
7729,34304
7730,34368
7731,34368
7732,34304
7733,34304
7734,34368
7735,34496
7736,34560
7737,34560
7738,34688
7739,34752
7740,34624
7741,34496
7742,34368
7743,34304
7744,34176
7745,33984
7746,33920
7747,33856
7748,33728
7749,33664
7750,33664
7751,33728
7752,33728
7753,33600
7754,33536
7755,33536
7756,33664
7757,33728
7758,33856
7759,33984
7760,34048
7761,34048
7762,33984
7763,33984
7764,33984
7765,33920
7766,33856
7767,33856
7768,33920
7769,33984
7770,34112
7771,34368
7772,34752
7773,35328
7774,36416
7775,37888
7776,39168
7777,39616
7778,38656
7779,36416
7780,33664
7781,31296
7782,30272
7783,29888
7784,30144
7785,30784
7786,31616
7787,32384
7788,33024
7789,33600
7790,33984
7791,34240
7792,34432
7793,34624
7794,34624
7795,34496
7796,34368
7797,34368
7798,34368
7799,34304
7800,34304
7801,34240
7802,34112
7803,33920
7804,33856
7805,33792
7806,33792
7807,33792
7808,33856
7809,33856
7810,33984
7811,33984
7812,33984
7813,34048
7814,34112
7815,34112
7816,34048
7817,34048
7818,33984
7819,33984
7820,34048
7821,34176
7822,34240
7823,34240
7824,34176
7825,34112
7826,34048
7827,34048
7828,34048
7829,34112
7830,34112
7831,34112
7832,34112
7833,34112
7834,34240
7835,34304
7836,34368
7837,34240
7838,34112
7839,34048
7840,33984
7841,33984
7842,34048
7843,34048
7844,34048
7845,34048
7846,34112
7847,34240
7848,34240
7849,34176
7850,34176
7851,34176
7852,34112
7853,34048
7854,34048
7855,34112
7856,34112
7857,34048
7858,33856
7859,33792
7860,33792
7861,33792
7862,33728
7863,33728
7864,33792
7865,33856
7866,33920
7867,33920
7868,33984
7869,34048
7870,34048
7871,34112
7872,34176
7873,34240
7874,34176
7875,34048
7876,34048
7877,34112
7878,34048
7879,34112
7880,34240
7881,34304
7882,34240
7883,34176
7884,34176
7885,34240
7886,34240
7887,34240
7888,34304
7889,34368
7890,34432
7891,34496
7892,34560
7893,34432
7894,34304
7895,34240
7896,34304
7897,34368
7898,34368
7899,34240
7900,34176
7901,34112
7902,34048
7903,33792
7904,33664
7905,33728
7906,33728
7907,33664
7908,33600
7909,33600
7910,33600
7911,33536
7912,33664
7913,33792
7914,33856
7915,33856
7916,33792
7917,33792
7918,33856
7919,33856
7920,33856
7921,33856
7922,33984
7923,34048
7924,33920
7925,33856
7926,33856
7927,34048
7928,34112
7929,34368
7930,35136
7931,36480
7932,37888
7933,38912
7934,39168
7935,38080
7936,35648
7937,33152
7938,31360
7939,30464
7940,30208
7941,30464
7942,30976
7943,31808
7944,32576
7945,33280
7946,33792
7947,34112
7948,34240
7949,34240
7950,34304
7951,34432
7952,34432
7953,34368
7954,34304
7955,34304
7956,34240
7957,34176
7958,34048
7959,33984
7960,33856
7961,33792
7962,33792
7963,33792
7964,33856
7965,33792
7966,33856
7967,33920
7968,33920
7969,33920
7970,33920
7971,33984
7972,34048
7973,34048
7974,34048
7975,34112
7976,34112
7977,34048
7978,34048
7979,34112
7980,34176
7981,34176
7982,34112
7983,34112
7984,34176
7985,34240
7986,34176
7987,34112
7988,34176
7989,34176
7990,34176
7991,34112
7992,34112
7993,34112
7994,34048
7995,34048
7996,34112
7997,34176
7998,34240
7999,34112
8000,34112
8001,34112
8002,34176
8003,34176
8004,34240
8005,34304
8006,34240
8007,34112
8008,34112
8009,34176
8010,34112
8011,34048
8012,33920
8013,33920
8014,33920
8015,33920
8016,33856
8017,33792
8018,33856
8019,33920
8020,33920
8021,33984
8022,33984
8023,33920
8024,33920
8025,33984
8026,34112
8027,34112
8028,34112
8029,34112
8030,34240
8031,34368
8032,34304
8033,34176
8034,34240
8035,34240
8036,34240
8037,34176
8038,34240
8039,34304
8040,34304
8041,34240
8042,34368
8043,34560
8044,34624
8045,34624
8046,34496
8047,34496
8048,34432
8049,34432
8050,34432
8051,34496
8052,34368
8053,34240
8054,34112
8055,34048
8056,33920
8057,33792
8058,33792
8059,33792
8060,33856
8061,33792
8062,33728
8063,33728
8064,33792
8065,33856
8066,33856
8067,33792
8068,33792
8069,33792
8070,33792
8071,33984
8072,34112
8073,34048
8074,33984
8075,33920
8076,33920
8077,33856
8078,33920
8079,34112
8080,34304
8081,34496
8082,34944
8083,35904
8084,37312
8085,38592
8086,39232
8087,38912
8088,37120
8089,34560
8090,32384
8091,31040
8092,30464
8093,30336
8094,30656
8095,31360
8096,32192
8097,32896
8098,33472
8099,33984
8100,34304
8101,34560
8102,34560
8103,34624
8104,34688
8105,34624
8106,34368
8107,34240
8108,34176
8109,34176
8110,34176
8111,34112
8112,34112
8113,34112
8114,34048
8115,33920
8116,33984
8117,34048
8118,34048
8119,34048
8120,33984
8121,34176
8122,34176
8123,34112
8124,34112
8125,34176
8126,34240
8127,34176
8128,34112
8129,34112
8130,34112
8131,34048
8132,34048
8133,34112
8134,34176
8135,34112
8136,34112
8137,34176
8138,34240
8139,34240
8140,34176
8141,34240
8142,34240
8143,34240
8144,34176
8145,34240
8146,34304
8147,34368
8148,34304
8149,34304
8150,34240
8151,34304
8152,34240
8153,34176
8154,34240
8155,34176
8156,34048
8157,34112
8158,34176
8159,34176
8160,34176
8161,34176
8162,34176
8163,34176
8164,34112
8165,34048
8166,33920
8167,33920
8168,33920
8169,33920
8170,33984
8171,33920
8172,33920
8173,33856
8174,33920
8175,34048
8176,34176
8177,34176
8178,34112
8179,34240
8180,34176
8181,34176
8182,34176
8183,34304
8184,34432
8185,34432
8186,34304
8187,34240
8188,34240
8189,34112
8190,33984
8191,34112
8192,34240
8193,34240
8194,34240
8195,34304
8196,34432
8197,34496
8198,34432
8199,34432
8200,34496
8201,34624
8202,34624
8203,34560
8204,34496
8205,34496
8206,34560
8207,34496
8208,34368
8209,34240
8210,34176
8211,33984
8212,33984
8213,33920
8214,33856
8215,33792
8216,33792
8217,33792
8218,33728
8219,33664
8220,33728
8221,33792
8222,33792
8223,33728
8224,33792
8225,33856
8226,33920
8227,33920
8228,33920
8229,33984
8230,34048
8231,34048
8232,34048
8233,33984
8234,33984
8235,34048
8236,34112
8237,34368
8238,34624
8239,35200
8240,36160
8241,37632
8242,39104
8243,39744
8244,39232
8245,37056
8246,34432
8247,32000
8248,30464
8249,29824
8250,29952
8251,30464
8252,31232
8253,32064
8254,33024
8255,33088
8256,33984
8257,34240
8258,34496
8259,34624
8260,34688
8261,34624
8262,34560
8263,34560
8264,34432
8265,34304
8266,34240
8267,34176
8268,34048
8269,33984
8270,33920
8271,34048
8272,33984
8273,33920
8274,33984
8275,34048
8276,33984
8277,33920
8278,33920
8279,33984
8280,34048
8281,34048
8282,34048
8283,34112
8284,34112
8285,34112
8286,34048
8287,34112
8288,34112
8289,34112
8290,34048
8291,34112
8292,34240
8293,34304
8294,34304
8295,34240
8296,34304
8297,34304
8298,34240
8299,34176
8300,34176
8301,34176
8302,34112
8303,34112
8304,34176
8305,34176
8306,34176
8307,34176
8308,34240
8309,34240
8310,34240
8311,34240
8312,34368
8313,34368
8314,34304
8315,34176
8316,34112
8317,34112
8318,34048
8319,34048
8320,34048
8321,34112
8322,34112
8323,34048
8324,33920
8325,33920
8326,33920
8327,33856
8328,33920
8329,34112
8330,34048
8331,34112
8332,34048
8333,34112
8334,34112
8335,34112
8336,34112
8337,34112
8338,34112
8339,34112
8340,34112
8341,34176
8342,34304
8343,34304
8344,34176
8345,34176
8346,34240
8347,34304
8348,34304
8349,34304
8350,34304
8351,34240
8352,34176
8353,34176
8354,34304
8355,34304
8356,34240
8357,34176
8358,34176
8359,34176
8360,34112
8361,34240
8362,34304
8363,34368
8364,34496
8365,34560
8366,34560
8367,34624
8368,34560
8369,34560
8370,34560
8371,34560
8372,34432
8373,34240
8374,34112
8375,34048
8376,33856
8377,33728
8378,33664
8379,33664
8380,33664
8381,33600
8382,33600
8383,33728
8384,33856
8385,33920
8386,33920
8387,33984
8388,34048
8389,33984
8390,33920
8391,33984
8392,34048
8393,34112
8394,34048
8395,33984
8396,33984
8397,33984
8398,33984
8399,34048
8400,34304
8401,34624
8402,35072
8403,36096
8404,37568
8405,39040
8406,39744
8407,39232
8408,37248
8409,34432
8410,31808
8411,30400
8412,29888
8413,30016
8414,30592
8415,31360
8416,32256
8417,33024
8418,33472
8419,33920
8420,33856
8421,34368
8422,34496
8423,34496
8424,34560
8425,34560
8426,34496
8427,34368
8428,34304
8429,34304
8430,34240
8431,34176
8432,34112
8433,34048
8434,33984
8435,33856
8436,33856
8437,33856
8438,33856
8439,33920
8440,33984
8441,34048
8442,34048
8443,33984
8444,33920
8445,33984
8446,34112
8447,34112
8448,34176
8449,34176
8450,34176
8451,34176
8452,34048
8453,34048
8454,34176
8455,34176
8456,34048
8457,34048
8458,34112
8459,34176
8460,34240
8461,34240
8462,34240
8463,34240
8464,34112
8465,34048
8466,34176
8467,34240
8468,34240
8469,34240
8470,34240
8471,34240
8472,34240
8473,34240
8474,34304
8475,34304
8476,34240
8477,34112
8478,34048
8479,34112
8480,34112
8481,34048
8482,34048
8483,34048
8484,34112
8485,34112
8486,33984
8487,33984
8488,33984
8489,33920
8490,33920
8491,33984
8492,34048
8493,34048
8494,34048
8495,33984
8496,34048
8497,34112
8498,34112
8499,34112
8500,34112
8501,34176
8502,34112
8503,34048
8504,34112
8505,34176
8506,34176
8507,34240
8508,34304
8509,34368
8510,34240
8511,34176
8512,34112
8513,34176
8514,34176
8515,34048
8516,34048
8517,34048
8518,34048
8519,34048
8520,34112
8521,34240
8522,34240
8523,34176
8524,34112
8525,34048
8526,34048
8527,33984
8528,33984
8529,34048
8530,34176
8531,34240
8532,34368
8533,34560
8534,34560
8535,34496
8536,34496
8537,34560
8538,34688
8539,34560
8540,34496
8541,34304
8542,34240
8543,34112
8544,33920
8545,33856
8546,33728
8547,33600
8548,33536
8549,33472
8550,33472
8551,33472
8552,33472
8553,33536
8554,33600
8555,33728
8556,33728
8557,33920
8558,34112
8559,34176
8560,34048
8561,34048
8562,34048
8563,33984
8564,33920
8565,33856
8566,33920
8567,34048
8568,34176
8569,34560
8570,34560
8571,35840
8572,37248
8573,38656
8574,39488
8575,39360
8576,37568
8577,34688
8578,32128
8579,30592
8580,29952
8581,29952
8582,30336
8583,31104
8584,32192
8585,32704
8586,33344
8587,33856
8588,34240
8589,34432
8590,34496
8591,34688
8592,34752
8593,34688
8594,34432
8595,34304
8596,34240
8597,34112
8598,33920
8599,33856
8600,33792
8601,33920
8602,33920
8603,33856
8604,33920
8605,33792
8606,33728
8607,33792
8608,33856
8609,33984
8610,34048
8611,34048
8612,34048
8613,34048
8614,34048
8615,34112
8616,34240
8617,34176
8618,34112
8619,33984
8620,33920
8621,33920
8622,33984
8623,33984
8624,34048
8625,34112
8626,34048
8627,33984
8628,33984
8629,34112
8630,34048
8631,34112
8632,34112
8633,34176
8634,34304
8635,34240
8636,34240
8637,34176
8638,34112
8639,33984
8640,33984
8641,34048
8642,34048
8643,34048
8644,34112
8645,34112
8646,34176
8647,34240
8648,34240
8649,34176
8650,34176
8651,34112
8652,33984
8653,33792
8654,33792
8655,33856
8656,33792
8657,33792
8658,33856
8659,33856
8660,33856
8661,33856
8662,33984
8663,34112
8664,34112
8665,34048
8666,34048
8667,34112
8668,34112
8669,34048
8670,34112
8671,34112
8672,34112
8673,34112
8674,34112
8675,34112
8676,34112
8677,34176
8678,34176
8679,34304
8680,34304
8681,34176
8682,34112
8683,34112
8684,34176
8685,34176
8686,34112
8687,34112
8688,34048
8689,34048
8690,33984
8691,34048
8692,34112
8693,34112
8694,34112
8695,34304
8696,34432
8697,34496
8698,34496
8699,34496
8700,34496
8701,34432
8702,34304
8703,34240
8704,34048
8705,33984
8706,33728
8707,33664
8708,33664
8709,33664
8710,33600
8711,33536
8712,33536
8713,33536
8714,33536
8715,33600
8716,33792
8717,33792
8718,33728
8719,33728
8720,33792
8721,33856
8722,33920
8723,33920
8724,33920
8725,34048
8726,34048
8727,33920
8728,33856
8729,33984
8730,34048
8731,33984
8732,34176
8733,34944
8734,36736
8735,37632
8736,38720
8737,39040
8738,38080
8739,35712
8740,33216
8741,31424
8742,30592
8743,30336
8744,30464
8745,31040
8746,31808
8747,32512
8748,33088
8749,33920
8750,33920
8751,34304
8752,34368
8753,34368
8754,34432
8755,34368
8756,34304
8757,34240
8758,34304
8759,34240
8760,34048
8761,33856
8762,33920
8763,33984
8764,33984
8765,33984
8766,34048
8767,33984
8768,33920
8769,33856
8770,33856
8771,33984
8772,34048
8773,34048
8774,34048
8775,34048
8776,33920
8777,33856
8778,33856
8779,33984
8780,33920
8781,34048
8782,34112
8783,34112
8784,34112
8785,34048
8786,34048
8787,34176
8788,34240
8789,34176
8790,34176
8791,34112
8792,33984
8793,33984
8794,34048
8795,34112
8796,34176
8797,34112
8798,34048
8799,33984
8800,34048
8801,34112
8802,34112
8803,34112
8804,34112
8805,34176
8806,34240
8807,34240
8808,34240
8809,34176
8810,34112
8811,34048
8812,33984
8813,33984
8814,33984
8815,33984
8816,33856
8817,33856
8818,33792
8819,33728
8820,33792
8821,33856
8822,33856
8823,33856
8824,34048
8825,34048
8826,34176
8827,34176
8828,34176
8829,34176
8830,34112
8831,34048
8832,34048
8833,34176
8834,34304
8835,34304
8836,34176
8837,34112
8838,34112
8839,34048
8840,34048
8841,34176
8842,34304
8843,34304
8844,34240
8845,34240
8846,34240
8847,34240
8848,34176
8849,34240
8850,34304
8851,34304
8852,34304
8853,34368
8854,34496
8855,34496
8856,34496
8857,34496
8858,34624
8859,34624
8860,34432
8861,34176
8862,34112
8863,34112
8864,33984
8865,33856
8866,33792
8867,33792
8868,33728
8869,33664
8870,33664
8871,33664
8872,33664
8873,33664
8874,33792
8875,33920
8876,33920
8877,33856
8878,33920
8879,33984
8880,33984
8881,33984
8882,33920
8883,33920
8884,33920
8885,33856
8886,33856
8887,33856
8888,33984
8889,34176
8890,34368
8891,34688
8892,35264
8893,36416
8894,37824
8895,38912
8896,39296
8897,38336
8898,36096
8899,33536
8900,31552
8901,30592
8902,30208
8903,30336
8904,30976
8905,31744
8906,32512
8907,33152
8908,33728
8909,34112
8910,34368
8911,34496
8912,34560
8913,34624
8914,34624
8915,34496
8916,34432
8917,34432
8918,34304
8919,34112
8920,34048
8921,34048
8922,34048
8923,33984
8924,33984
8925,33984
8926,33984
8927,33920
8928,33920
8929,34048
8930,34112
8931,34112
8932,34048
8933,34048
8934,34048
8935,33984
8936,33984
8937,34048
8938,34112
8939,34112
8940,34176
8941,34240
8942,34304
8943,34240
8944,34240
8945,34240
8946,34240
8947,34176
8948,34112
8949,34112
8950,34112
8951,34112
8952,34112
8953,34176
8954,34240
8955,34304
8956,34240
8957,34240
8958,34240
8959,34240
8960,34240
8961,34304
8962,34432
8963,34432
8964,34304
8965,34112
8966,34112
8967,34176
8968,34176
8969,34112
8970,34112
8971,34112
8972,34048
8973,34048
8974,34048
8975,34112
8976,34048
8977,33984
8978,33984
8979,34048
8980,34048
8981,34048
8982,34048
8983,34112
8984,34112
8985,34048
8986,33984
8987,34048
8988,34176
8989,34176
8990,34176
8991,34176
8992,34176
8993,34176
8994,34112
8995,34176
8996,34240
8997,34304
8998,34304
8999,34304
9000,34368
9001,34304
9002,34304
9003,34240
9004,34304
9005,34304
9006,34304
9007,34304
9008,34304
9009,34304
9010,34176
9011,34176
9012,34240
9013,34240
9014,34176
9015,34176
9016,34304
9017,34432
9018,34496
9019,34496
9020,34560
9021,34624
9022,34624
9023,34496
9024,34432
9025,34368
9026,34304
9027,34112
9028,33984
9029,33920
9030,33792
9031,33664
9032,33600
9033,33536
9034,33600
9035,33664
9036,33728
9037,33792
9038,33856
9039,33792
9040,33856
9041,33984
9042,34048
9043,33984
9044,33984
9045,34048
9046,34112
9047,34048
9048,33984
9049,33920
9050,33984
9051,34176
9052,34432
9053,34752
9054,35328
9055,36224
9056,37568
9057,38848
9058,39616
9059,39296
9060,37440
9061,34688
9062,32192
9063,30592
9064,29824
9065,29888
9066,30528
9067,31360
9068,32128
9069,32832
9070,33472
9071,33984
9072,34304
9073,34496
9074,34624
9075,34624
9076,34560
9077,34496
9078,34496
9079,34496
9080,34432
9081,34304
9082,34176
9083,34112
9084,34048
9085,34048
9086,34048
9087,34112
9088,34176
9089,34048
9090,33856
9091,33856
9092,33984
9093,34048
9094,34048
9095,34048
9096,34048
9097,33984
9098,33984
9099,34048
9100,34048
9101,33984
9102,33920
9103,33984
9104,34048
9105,34112
9106,34112
9107,34176
9108,34240
9109,34240
9110,34176
9111,34112
9112,34112
9113,34112
9114,34112
9115,34112
9116,34240
9117,34368
9118,34368
9119,34240
9120,34112
9121,34112
9122,33984
9123,33984
9124,34048
9125,34176
9126,34176
9127,34112
9128,34112
9129,34176
9130,34176
9131,34112
9132,34112
9133,34176
9134,34176
9135,34176
9136,34112
9137,34112
9138,34176
9139,34112
9140,34048
9141,34048
9142,33984
9143,33920
9144,33856
9145,34048
9146,34176
9147,34176
9148,34112
9149,34048
9150,34048
9151,34048
9152,33984
9153,33984
9154,34112
9155,34240
9156,34240
9157,34240
9158,34240
9159,34240
9160,34176
9161,34176
9162,34240
9163,34240
9164,34304
9165,34304
9166,34368
9167,34368
9168,34304
9169,34240
9170,34304
9171,34304
9172,34176
9173,34112
9174,34112
9175,34176
9176,34112
9177,34048
9178,34048
9179,34176
9180,34240
9181,34240
9182,34304
9183,34496
9184,34624
9185,34560
9186,34496
9187,34624
9188,34688
9189,34752
9190,34624
9191,34496
9192,34304
9193,34048
9194,33792
9195,33600
9196,33600
9197,33600
9198,33600
9199,33664
9200,33792
9201,33728
9202,33664
9203,33728
9204,33856
9205,33920
9206,33984
9207,34112
9208,34176
9209,34240
9210,34112
9211,34048
9212,34048
9213,34048
9214,33984
9215,33920
9216,33920
9217,34048
9218,34240
9219,34432
9220,34880
9221,35648
9222,36864
9223,38400
9224,39616
9225,39936
9226,38592
9227,35840
9228,32896
9229,30912
9230,29952
9231,29824
9232,30144
9233,30848
9234,31744
9235,32576
9236,33216
9237,33856
9238,34240
9239,34496
9240,34624
9241,34752
9242,34752
9243,34688
9244,34560
9245,34560
9246,34496
9247,34304
9248,34176
9249,34112
9250,34112
9251,34112
9252,34048
9253,33984
9254,33984
9255,34048
9256,33984
9257,33984
9258,34048
9259,34112
9260,34176
9261,34112
9262,34048
9263,34048
9264,34048
9265,33984
9266,33984
9267,33984
9268,33984
9269,33984
9270,34112
9271,34176
9272,34240
9273,34176
9274,34176
9275,34176
9276,34176
9277,34176
9278,34304
9279,34368
9280,34240
9281,34112
9282,34112
9283,34176
9284,34176
9285,34112
9286,34112
9287,34176
9288,34240
9289,34240
9290,34176
9291,34112
9292,34176
9293,34176
9294,34176
9295,34176
9296,34112
9297,34112
9298,34112
9299,34176
9300,34240
9301,34240
9302,34176
9303,34112
9304,34048
9305,34048
9306,33984
9307,33984
9308,34048
9309,33984
9310,33984
9311,33984
9312,34112
9313,34176
9314,34112
9315,34112
9316,34176
9317,34176
9318,34048
9319,33984
9320,34048
9321,34112
9322,34176
9323,34176
9324,34240
9325,34304
9326,34304
9327,34240
9328,34176
9329,34240
9330,34176
9331,34176
9332,34240
9333,34304
9334,34304
9335,34240
9336,34176
9337,34240
9338,34240
9339,34176
9340,34176
9341,34240
9342,34240
9343,34112
9344,34048
9345,33984
9346,34048
9347,33984
9348,33984
9349,33984
9350,34048
9351,34112
9352,34176
9353,34304
9354,34496
9355,34560
9356,34624
9357,34624
9358,34688
9359,34688
9360,34624
9361,34432
9362,34304
9363,34240
9364,34048
9365,33856
9366,33792
9367,33792
9368,33728
9369,33664
9370,33728
9371,33664
9372,33536
9373,33472
9374,33600
9375,33792
9376,33984
9377,33984
9378,33984
9379,33984
9380,34048
9381,33984
9382,33920
9383,33984
9384,34048
9385,33984
9386,33984
9387,33984
9388,34112
9389,34240
9390,34368
9391,34816
9392,35584
9393,36800
9394,38272
9395,39360
9396,39488
9397,38016
9398,35392
9399,32704
9400,30912
9401,30080
9402,29952
9403,30272
9404,31040
9405,31872
9406,32640
9407,33344
9408,33792
9409,34112
9410,34368
9411,34496
9412,34624
9413,34560
9414,34496
9415,34432
9416,34432
9417,34368
9418,34176
9419,34048
9420,34048
9421,33984
9422,33984
9423,33984
9424,33920
9425,33920
9426,33856
9427,33792
9428,33920
9429,33984
9430,33984
9431,33920
9432,33920
9433,33984
9434,33984
9435,33984
9436,33984
9437,34112
9438,34112
9439,34112
9440,34176
9441,34176
9442,34176
9443,34112
9444,33984
9445,33984
9446,33984
9447,33984
9448,33984
9449,34048
9450,34112
9451,34112
9452,34112
9453,34048
9454,34048
9455,33984
9456,33984
9457,33984
9458,34048
9459,34112
9460,34176
9461,34176
9462,34176
9463,34176
9464,34112
9465,34048
9466,34112
9467,34112
9468,34112
9469,34112
9470,34048
9471,34048
9472,34112
9473,34112
9474,34112
9475,33984
9476,33856
9477,33728
9478,33792
9479,33856
9480,33856
9481,33792
9482,33792
9483,33920
9484,33984
9485,34048
9486,34048
9487,34048
9488,34112
9489,34112
9490,34048
9491,34112
9492,34240
9493,34304
9494,34304
9495,34304
9496,34240
9497,34112
9498,34048
9499,34048
9500,34112
9501,34112
9502,34112
9503,34112
9504,34176
9505,34176
9506,34176
9507,34112
9508,34176
9509,34240
9510,34176
9511,34176
9512,34176
9513,34112
9514,34176
9515,34368
9516,34496
9517,34432
9518,34304
9519,34368
9520,34432
9521,34432
9522,34240
9523,34112
9524,34048
9525,34112
9526,33984
9527,33856
9528,33792
9529,33792
9530,33664
9531,33536
9532,33472
9533,33472
9534,33600
9535,33664
9536,33856
9537,33920
9538,33920
9539,33792
9540,33792
9541,33856
9542,33856
9543,33792
9544,33728
9545,33856
9546,33920
9547,33856
9548,33792
9549,33856
9550,33984
9551,34112
9552,34304
9553,34880
9554,36032
9555,37440
9556,38656
9557,39168
9558,38528
9559,36416
9560,33856
9561,31872
9562,30848
9563,30464
9564,30464
9565,30848
9566,31616
9567,32192
9568,32768
9569,33280
9570,33728
9571,34048
9572,34304
9573,34432
9574,34560
9575,34624
9576,34560
9577,34496
9578,34368
9579,34368
9580,34240
9581,34048
9582,33856
9583,33856
9584,33856
9585,33856
9586,33856
9587,33920
9588,33920
9589,33856
9590,33792
9591,33856
9592,33984
9593,33984
9594,34048
9595,34048
9596,34048
9597,33984
9598,33920
9599,33984
9600,34176
9601,34304
9602,34304
9603,34176
9604,34048
9605,33984
9606,33920
9607,33984
9608,34048
9609,34048
9610,34048
9611,34112
9612,34112
9613,34176
9614,34176
9615,34112
9616,34176
9617,34176
9618,34112
9619,34048
9620,33984
9621,33920
9622,33856
9623,33920
9624,34048
9625,34112
9626,34176
9627,34176
9628,34176
9629,34240
9630,34112
9631,33984
9632,33984
9633,34048
9634,34112
9635,34112
9636,34112
9637,34240
9638,34112
9639,33984
9640,33856
9641,33856
9642,33792
9643,33728
9644,33792
9645,33856
9646,33920
9647,33920
9648,33984
9649,34048
9650,34176
9651,34176
9652,34112
9653,34112
9654,34176
9655,34240
9656,34240
9657,34240
9658,34240
9659,34304
9660,34240
9661,34240
9662,34240
9663,34304
9664,34240
9665,34176
9666,34240
9667,34240
9668,34176
9669,34176
9670,34240
9671,34304
9672,34304
9673,34368
9674,34496
9675,34560
9676,34496
9677,34496
9678,34496
9679,34560
9680,34496
9681,34304
9682,34304
9683,34240
9684,34112
9685,33856
9686,33792
9687,33792
9688,33856
9689,33728
9690,33600
9691,33600
9692,33600
9693,33600
9694,33600
9695,33728
9696,33856
9697,33984
9698,34048
9699,34112
9700,34112
9701,34048
9702,33984
9703,33984
9704,34048
9705,34112
9706,34048
9707,34048
9708,34048
9709,34112
9710,34176
9711,34560
9712,35456
9713,36800
9714,38208
9715,39168
9716,39296
9717,38080
9718,35584
9719,33024
9720,31296
9721,30400
9722,30144
9723,30336
9724,31040
9725,31936
9726,32704
9727,33408
9728,33920
9729,34240
9730,34432
9731,34560
9732,34560
9733,34560
9734,34496
9735,34368
9736,34304
9737,34304
9738,34304
9739,34112
9740,33984
9741,33984
9742,34048
9743,33984
9744,33984
9745,34112
9746,34176
9747,34112
9748,34112
9749,34176
9750,34112
9751,34048
9752,33920
9753,33920
9754,33984
9755,34048
9756,34048
9757,34112
9758,34176
9759,34176
9760,34176
9761,34240
9762,34304
9763,34240
9764,34240
9765,34240
9766,34304
9767,34304
9768,34304
9769,34304
9770,34240
9771,34176
9772,34048
9773,33920
9774,33920
9775,33984
9776,33984
9777,34048
9778,34112
9779,34240
9780,34304
9781,34304
9782,34304
9783,34432
9784,34368
9785,34304
9786,34304
9787,34304
9788,34304
9789,34240
9790,34176
9791,34240
9792,34240
9793,34048
9794,33920
9795,33920
9796,33856
9797,33792
9798,33792
9799,33856
9800,33920
9801,33920
9802,33984
9803,34048
9804,34176
9805,34176
9806,34176
9807,34304
9808,34368
9809,34304
9810,34176
9811,34112
9812,34176
9813,34304
9814,34432
9815,34432
9816,34368
9817,34304
9818,34176
9819,34112
9820,34176
9821,34240
9822,34240
9823,34240
9824,34304
9825,34368
9826,34304
9827,34240
9828,34240
9829,34304
9830,34304
9831,34240
9832,34304
9833,34432
9834,34496
9835,34496
9836,34496
9837,34560
9838,34624
9839,34560
9840,34560
9841,34560
9842,34432
9843,34304
9844,34176
9845,34112
9846,33984
9847,33856
9848,33728
9849,33792
9850,33856
9851,33792
9852,33728
9853,33728
9854,33728
9855,33792
9856,33728
9857,33792
9858,33920
9859,33920
9860,33920
9861,33984
9862,33984
9863,33984
9864,33920
9865,33920
9866,33984
9867,33984
9868,33984
9869,33920
9870,34112
9871,34368
9872,34624
9873,35008
9874,35904
9875,37184
9876,38656
9877,39552
9878,39552
9879,38080
9880,35392
9881,32512
9882,30784
9883,29888
9884,29824
9885,30272
9886,30976
9887,31872
9888,32704
9889,33984
9890,33984
9891,34624
9892,34560
9893,34560
9894,34560
9895,34496
9896,34432
9897,34368
9898,34368
9899,34368
9900,34304
9901,34240
9902,34112
9903,34048
9904,33984
9905,33920
9906,33920
9907,34048
9908,34112
9909,34176
9910,34112
9911,34048
9912,33920
9913,33792
9914,33856
9915,33920
9916,33920
9917,33920
9918,33984
9919,34112
9920,34176
9921,34240
9922,34240
9923,34240
9924,34240
9925,34240
9926,34176
9927,34240
9928,34240
9929,34176
9930,34176
9931,34176
9932,34240
9933,34240
9934,34176
9935,34176
9936,34112
9937,34112
9938,34048
9939,33984
9940,34048
9941,33984
9942,33984
9943,33984
9944,34112
9945,34240
9946,34304
9947,34304
9948,34368
9949,34368
9950,34304
9951,34176
9952,34176
9953,34176
9954,34240
9955,34240
9956,34176
9957,34048
9958,33920
9959,33792
9960,33792
9961,33920
9962,33920
9963,33920
9964,33920
9965,33920
9966,34112
9967,34176
9968,34176
9969,34240
9970,34304
9971,34176
9972,34048
9973,34048
9974,34112
9975,34176
9976,34176
9977,34240
9978,34304
9979,34368
9980,34368
9981,34432
9982,34432
9983,34368
9984,34304
9985,34240
9986,34240
9987,34240
9988,34176
9989,34112
9990,34176
9991,34176
9992,34048
9993,34048
9994,34176
9995,34176
9996,34176
9997,34112
9998,34176
9999,34304
10000,34304
10001,34240
10002,34304
10003,34432
10004,34432
10005,34496
10006,34560
10007,34688
10008,34752
10009,34688
10010,34560
10011,34432
10012,34240
10013,34048
10014,33856
10015,33792
10016,33728
10017,33664
10018,33664
10019,33664
10020,33728
10021,33728
10022,33728
10023,33856
10024,33984
10025,33984
10026,33792
10027,33792
10028,33920
10029,33920
10030,33984
10031,34048
10032,34176
10033,34176
10034,34048
10035,33984
10036,33984
10037,34048
10038,34176
10039,34496
10040,34432
10041,35456
10042,36544
10043,38080
10044,39424
10045,39936
10046,38976
10047,36480
10048,33536
10049,31360
10050,30208
10051,29824
10052,30080
10053,30720
10054,31680
10055,31744
10056,33024
10057,33664
10058,34176
10059,34432
10060,34624
10061,34752
10062,34688
10063,34624
10064,34560
10065,34496
10066,34496
10067,34368
10068,34240
10069,34176
10070,34112
10071,34112
10072,33984
10073,33920
10074,33920
10075,33984
10076,33984
10077,34048
10078,34112
10079,34048
10080,33984
10081,33984
10082,34048
10083,34048
10084,34048
10085,33984
10086,34048
10087,34048
10088,34048
10089,34112
10090,34240
10091,34304
10092,34240
10093,34112
10094,34112
10095,34048
10096,34048
10097,34048
10098,34176
10099,34240
10100,34176
10101,34112
10102,34048
10103,34112
10104,34112
10105,34112
10106,34112
10107,34176
10108,34240
10109,34176
10110,34176
10111,34176
10112,34176
10113,34176
10114,34176
10115,34112
10116,34240
10117,34176
10118,34112
10119,34176
10120,34176
10121,34112
10122,34112
10123,34112
10124,34048
10125,33920
10126,33856
10127,33856
10128,33920
10129,33856
10130,33856
10131,33920
10132,34048
10133,34112
10134,34112
10135,34176
10136,34240
10137,34176
10138,34112
10139,34048
10140,34112
10141,34240
10142,34240
10143,34176
10144,34176
10145,34176
10146,34176
10147,34112
10148,34176
10149,34176
10150,34176
10151,34176
10152,34240
10153,34304
10154,34304
10155,34176
10156,34112
10157,34112
10158,34112
10159,34112
10160,34048
10161,34112
10162,34112
10163,34112
10164,34112
10165,34112
10166,34112
10167,34048
10168,33984
10169,33984
10170,33984
10171,33856
10172,33856
10173,33920
10174,33984
10175,33984
10176,33984
10177,34048
10178,34112
10179,34176
10180,34112
10181,34176
10182,34368
10183,34496
10184,34496
10185,34496
10186,34560
10187,34560
10188,34496
10189,34432
10190,34304
10191,34176
10192,33920
10193,33728
10194,33728
10195,33792
10196,33728
10197,33664
10198,33664
10199,33600
10200,33536
10201,33536
10202,33664
10203,33792
10204,33856
10205,33856
10206,33856
10207,33856
10208,33856
10209,33792
10210,33856
10211,33920
10212,33984
10213,33920
10214,33856
10215,33856
10216,33984
10217,34176
10218,34368
10219,34816
10220,35392
10221,36544
10222,38016
10223,39168
10224,39552
10225,38400
10226,35904
10227,33216
10228,31232
10229,30144
10230,29824
10231,30080
10232,30784
10233,31616
10234,32448
10235,33216
10236,33792
10237,34240
10238,34432
10239,34560
10240,34624
10241,34560
10242,34432
10243,34368
10244,34368
10245,34240
10246,34112
10247,34048
10248,33984
10249,33984
10250,33984
10251,33920
10252,33920
10253,33984
10254,33984
10255,33920
10256,33920
10257,33984
10258,34048
10259,34048
10260,34048
10261,34176
10262,34176
10263,34048
10264,33920
10265,33856
10266,33920
10267,33984
10268,33920
10269,33984
10270,34048
10271,34112
10272,34112
10273,34112
10274,34176
10275,34112
10276,34048
10277,34048
10278,34112
10279,34112
10280,34048
10281,34048
10282,34112
10283,34112
10284,34048
10285,34048
10286,34112
10287,34112
10288,33984
10289,33920
10290,33984
10291,34048
10292,34048
10293,33984
10294,34048
10295,34176
10296,34176
10297,34176
10298,34176
10299,34240
10300,34176
10301,34048
10302,33984
10303,33920
10304,33920
10305,33920
10306,33856
10307,33920
10308,33856
10309,33792
10310,33792
10311,33920
10312,33984
10313,33920
10314,33984
10315,34048
10316,34112
10317,34112
10318,34176
10319,34240
10320,34240
10321,34176
10322,34112
10323,34112
10324,34176
10325,34176
10326,34176
10327,34304
10328,34368
10329,34304
10330,34240
10331,34176
10332,34240
10333,34240
10334,34176
10335,34112
10336,34112
10337,34112
10338,34048
10339,34048
10340,34112
10341,34240
10342,34304
10343,34368
10344,34432
10345,34432
10346,34432
10347,34432
10348,34496
10349,34560
10350,34496
10351,34432
10352,34304
10353,34176
10354,33984
10355,33920
10356,33792
10357,33792
10358,33792
10359,33664
10360,33600
10361,33600
10362,33664
10363,33664
10364,33664
10365,33792
10366,33856
10367,33856
10368,33920
10369,34048
10370,34048
10371,34112
10372,34112
10373,34048
10374,33984
10375,33920
10376,33856
10377,33856
10378,33920
10379,34048
10380,34112
10381,34304
10382,34816
10383,35776
10384,37696
10385,37824
10386,39296
10387,38912
10388,36928
10389,34368
10390,32256
10391,30976
10392,30400
10393,30464
10394,30848
10395,31552
10396,32256
10397,32896
10398,33536
10399,33920
10400,34176
10401,34368
10402,34432
10403,34496
10404,34432
10405,34304
10406,34240
10407,34304
10408,34368
10409,34304
10410,34240
10411,34176
10412,34112
10413,33984
10414,33920
10415,33984
10416,34048
10417,34048
10418,34112
10419,34112
10420,34112
10421,34048
10422,33984
10423,33984
10424,34048
10425,33984
10426,33920
10427,33920
10428,34048
10429,34176
10430,34112
10431,34240
10432,34240
10433,34240
10434,34176
10435,34240
10436,34304
10437,34304
10438,34240
10439,34176
10440,34176
10441,34176
10442,34176
10443,34176
10444,34112
10445,34112
10446,34112
10447,34112
10448,34176
10449,34112
10450,34048
10451,33984
10452,34048
10453,34112
10454,34176
10455,34176
10456,34240
10457,34304
10458,34240
10459,34112
10460,34048
10461,34112
10462,34048
10463,33984
10464,33984
10465,34048
10466,34112
10467,34048
10468,34048
10469,34048
10470,33984
10471,33856
10472,33856
10473,33984
10474,34112
10475,34112
10476,34048
10477,34112
10478,34176
10479,34112
10480,34176
10481,34176
10482,34240
10483,34240
10484,34240
10485,34176
10486,34240
10487,34240
10488,34240
10489,34304
10490,34304
10491,34432
10492,34240
10493,34176
10494,34176
10495,34240
10496,34176
10497,34112
10498,34176
10499,34304
10500,34304
10501,34240
10502,34304
10503,34432
10504,34496
10505,34496
10506,34560
10507,34624
10508,34624
10509,34560
10510,34624
10511,34560
10512,34432
10513,34368
10514,34176
10515,34048
10516,33856
10517,33792
10518,33664
10519,33728
10520,33664
10521,33792
10522,33728
10523,33728
10524,33728
10525,33728
10526,33792
10527,33856
10528,33984
10529,33984
10530,33920
10531,33984
10532,34112
10533,34176
10534,34112
10535,34112
10536,34240
10537,34240
10538,34112
10539,33984
10540,34112
10541,34304
10542,34496
10543,35072
10544,36096
10545,37568
10546,38912
10547,39424
10548,38848
10549,36864
10550,34176
10551,32000
10552,30656
10553,30208
10554,30208
10555,30720
10556,31488
10557,32448
10558,33152
10559,33600
10560,33984
10561,34304
10562,34496
10563,34496
10564,34560
10565,34560
10566,34624
10567,34496
10568,34432
10569,34368
10570,34368
10571,34304
10572,34176
10573,34112
10574,34048
10575,33984
10576,33984
10577,33920
10578,33920
10579,33856
10580,33856
10581,33984
10582,34112
10583,34176
10584,34112
10585,34112
10586,34176
10587,34176
10588,34176
10589,34112
10590,34112
10591,34176
10592,34240
10593,34176
10594,34240
10595,34240
10596,34240
10597,34240
10598,34240
10599,34240
10600,34176
10601,34176
10602,34240
10603,34240
10604,34176
10605,34048
10606,34112
10607,34176
10608,34240
10609,34176
10610,34112
10611,34176
10612,34240
10613,34176
10614,34176
10615,34176
10616,34304
10617,34240
10618,34176
10619,34176
10620,34176
10621,34176
10622,34176
10623,34240
10624,34368
10625,34304
10626,34240
10627,34240
10628,34176
10629,33984
10630,33856
10631,33856
10632,33920
10633,33984
10634,33920
10635,33920
10636,33920
10637,33984
10638,34048
10639,34176
10640,34112
10641,34368
10642,34368
10643,34304
10644,34240
10645,34240
10646,34240
10647,34240
10648,34304
10649,34432
10650,34432
10651,34304
10652,34304
10653,34304
10654,34304
10655,34176
10656,34176
10657,34304
10658,34304
10659,34176
10660,34048
10661,34048
10662,34112
10663,34112
10664,34048
10665,34112
10666,34176
10667,34176
10668,34112
10669,34304
10670,34368
10671,34432
10672,34496
10673,34560
10674,34560
10675,34560
10676,34560
10677,34624
10678,34688
10679,34560
10680,34304
10681,34048
10682,33920
10683,33856
10684,33856
10685,33792
10686,33920
10687,33920
10688,33792
10689,33664
10690,33664
10691,33664
10692,33664
10693,33664
10694,33728
10695,33856
10696,33856
10697,33920
10698,34048
10699,34304
10700,34240
10701,34176
10702,34048
10703,33984
10704,33984
10705,33920
10706,33920
10707,34112
10708,34432
10709,34688
10710,35200
10711,36224
10712,37760
10713,39168
10714,39872
10715,39296
10716,37248
10717,34432
10718,31936
10719,30528
10720,29952
10721,29952
10722,30400
10723,31296
10724,32192
10725,32896
10726,33472
10727,33856
10728,34240
10729,34496
10730,34560
10731,34624
10732,34624
10733,34624
10734,34560
10735,34496
10736,34368
10737,34304
10738,34176
10739,34112
10740,34048
10741,33984
10742,33984
10743,33920
10744,33920
10745,33984
10746,33984
10747,33984
10748,33984
10749,34048
10750,33984
10751,33856
10752,33856
10753,33920
10754,34048
10755,34048
10756,34112
10757,34304
10758,34304
10759,34240
10760,34176
10761,34112
10762,34112
10763,34112
10764,34048
10765,34112
10766,34240
10767,34304
10768,34176
10769,34112
10770,34048
10771,34112
10772,33984
10773,33984
10774,34112
10775,34048
10776,34048
10777,34048
10778,34112
10779,34048
10780,34048
10781,34048
10782,34176
10783,34240
10784,34176
10785,34176
10786,34240
10787,34240
10788,34176
10789,34240
10790,34176
10791,34176
10792,34048
10793,33984
10794,33984
10795,34048
10796,33984
10797,33920
10798,33984
10799,34048
10800,34112
10801,34112
10802,34112
10803,34112
10804,34112
10805,34048
10806,34048
10807,34176
10808,34176
10809,34176
10810,34176
10811,34240
10812,34240
10813,34240
10814,34240
10815,34304
10816,34368
10817,34304
10818,34240
10819,34176
10820,34176
10821,34176
10822,34112
10823,34112
10824,34176
10825,34304
10826,34304
10827,34368
10828,34368
10829,34368
10830,34304
10831,34304
10832,34304
10833,34304
10834,34176
10835,34048
10836,34048
10837,34112
10838,34176
10839,34304
10840,34496
10841,34624
10842,34624
10843,34560
10844,34560
10845,34624
10846,34688
10847,34560
10848,34432
10849,34368
10850,34176
10851,33984
10852,33856
10853,33856
10854,33856
10855,33792
10856,33728
10857,33792
10858,33856
10859,33856
10860,33792
10861,33792
10862,33856
10863,33856
10864,33920
10865,33920
10866,33984
10867,33984
10868,33984
10869,33984
10870,33984
10871,33984
10872,33920
10873,33984
10874,34048
10875,34112
10876,34176
10877,34368
10878,34688
10879,35200
10880,36096
10881,37632
10882,39168
10883,39936
10884,39424
10885,37312
10886,34368
10887,31936
10888,30400
10889,29760
10890,29760
10891,30400
10892,31232
10893,32064
10894,32896
10895,33536
10896,33984
10897,34240
10898,34496
10899,34688
10900,34752
10901,34624
10902,34496
10903,34432
10904,34304
10905,34240
10906,34240
10907,34240
10908,34176
10909,33984
10910,33856
10911,33792
10912,33856
10913,33856
10914,33856
10915,33920
10916,33984
10917,33984
10918,33984
10919,34112
10920,34112
10921,34112
10922,33984
10923,34048
10924,34048
