,ECG
0,36800
1,36928
2,36672
3,36224
4,35520
5,34624
6,33792
7,33024
8,32512
9,32640
10,33088
11,33280
12,33344
13,33920
14,34688
15,35328
16,35712
17,35904
18,35840
19,35584
20,35264
21,34944
22,34752
23,34624
24,34496
25,34304
26,34112
27,34048
28,34112
29,34240
30,34304
31,34304
32,34304
33,34240
34,34240
35,34176
36,34176
37,34176
38,34176
39,34240
40,34240
41,34240
42,34304
43,34432
44,34368
45,34368
46,34432
47,34432
48,34240
49,33792
50,33472
51,33280
52,33152
53,33152
54,33472
55,33856
56,34048
57,34048
58,34112
59,34176
60,34048
61,33856
62,33664
63,33984
64,34624
65,35136
66,35456
67,35520
68,35520
69,35328
70,35008
71,34880
72,34880
73,34880
74,35008
75,35200
76,35264
77,35328
78,35392
79,35328
80,35136
81,34752
82,34304
83,34112
84,34048
85,34048
86,34048
87,34176
88,34176
89,33984
90,33728
91,33600
92,33728
93,33856
94,33728
95,33472
96,33344
97,33408
98,33664
99,33856
100,34048
101,34240
102,34240
103,33984
104,33792
105,33728
106,33920
107,34624
108,35776
109,37504
110,39424
111,41344
112,41984
113,40896
114,38720
115,35904
116,33088
117,30912
118,30016
119,30208
120,31168
121,32128
122,32832
123,33216
124,33472
125,33472
126,33408
127,33280
128,33024
129,32896
130,32960
131,33088
132,33280
133,33536
134,33664
135,33792
136,33856
137,33920
138,34048
139,34240
140,34304
141,34176
142,33856
143,33408
144,33152
145,33216
146,33408
147,33792
148,34240
149,34368
150,34368
151,34496
152,34752
153,35072
154,35328
155,35328
156,35264
157,35200
158,35136
159,34944
160,34752
161,34688
162,34560
163,34496
164,34432
165,34496
166,34432
167,34688
168,34880
169,35008
170,34880
171,34752
172,34752
173,34624
174,34560
175,34688
176,35072
177,35456
178,35776
179,35840
180,35712
181,35520
182,35264
183,34880
184,34624
185,34496
186,34304
187,34048
188,33792
189,33664
190,33664
191,33600
192,33536
193,33536
194,33536
195,33600
196,33728
197,33792
198,33728
199,33664
200,33728
201,33856
202,33856
203,33792
204,33664
205,33536
206,33344
207,33152
208,32960
209,32960
210,33280
211,33600
212,33856
213,34176
214,34432
215,34560
216,34624
217,34624
218,34560
219,34304
220,33984
221,33728
222,33664
223,33792
224,34048
225,34240
226,34304
227,34240
228,34240
229,34304
230,34240
231,33920
232,33792
233,33984
234,34112
235,33984
236,33856
237,33920
238,34112
239,34304
240,34304
241,34240
242,34176
243,34176
244,34112
245,34176
246,34304
247,34368
248,34368
249,33792
250,33536
251,34048
252,34496
253,34752
254,34944
255,34944
256,34944
257,34688
258,34432
259,34240
260,34240
261,34368
262,34560
263,34624
264,34624
265,34624
266,34816
267,35200
268,35328
269,35392
270,35328
271,35264
272,35264
273,35328
274,35520
275,35584
276,35584
277,35456
278,35392
279,35520
280,35456
281,34944
282,34432
283,33984
284,33536
285,33408
286,33408
287,33536
288,33856
289,34112
290,34176
291,34176
292,34240
293,34368
294,34624
295,34816
296,34752
297,34688
298,34688
299,34560
300,34304
301,33920
302,33536
303,33344
304,33408
305,34112
306,35584
307,37504
308,39872
309,41920
310,42496
311,41280
312,38784
313,36160
314,34112
315,32448
316,31232
317,30656
318,30784
319,31296
320,31936
321,32512
322,32768
323,32768
324,32640
325,32704
326,33152
327,33856
328,34368
329,34176
330,33664
331,33600
332,33408
333,33536
334,33728
335,33600
336,33344
337,33216
338,33280
339,33664
340,34112
341,34112
342,34048
343,34048
344,33920
345,33728
346,33856
347,33856
348,33344
349,33024
350,33280
351,33792
352,34176
353,34240
354,33920
355,33408
356,33408
357,33856
358,34112
359,34368
360,34816
361,35392
362,35712
363,35904
364,35968
365,35968
366,35904
367,35840
368,35776
369,35456
370,35136
371,35392
372,35392
373,35200
374,35072
375,35008
376,35072
377,35520
378,36032
379,35904
380,35328
381,34880
382,34816
383,34624
384,34304
385,33984
386,33856
387,33728
388,33664
389,33728
390,33856
391,33984
392,34176
393,34752
394,34880
395,34176
396,33664
397,33408
398,33344
399,33344
400,33408
401,33536
402,33728
403,33728
404,33728
405,33920
406,33984
407,33984
408,33856
409,33792
410,33920
411,34176
412,34304
413,34368
414,34496
415,34432
416,34304
417,34176
418,34240
419,34432
420,34240
421,34048
422,33984
423,34112
424,34240
425,34240
426,34112
427,33984
428,33920
429,33920
430,33920
431,33856
432,33920
433,33984
434,33984
435,33728
436,33472
437,33408
438,33536
439,33792
440,33856
441,33920
442,34112
443,34304
444,34496
445,34560
446,34624
447,34688
448,34624
449,34432
450,34304
451,34304
452,34432
453,34560
454,34688
455,34368
456,33536
457,32832
458,32832
459,33600
460,34880
461,35840
462,36480
463,36608
464,36480
465,36288
466,35904
467,35328
468,34688
469,34240
470,34112
471,34176
472,34240
473,34304
474,34496
475,34560
476,34432
477,34368
478,34496
479,34624
480,34496
481,34304
482,34176
483,33920
484,33664
485,33728
486,33984
487,34048
488,33344
489,32576
490,32512
491,32768
492,32832
493,33408
494,35136
495,37888
496,40640
497,43072
498,43392
499,41408
500,39168
501,36800
502,34752
503,33088
504,32128
505,31808
506,31936
507,32384
508,32832
509,33152
510,33408
511,33664
512,33664
513,33472
514,33280
515,33152
516,33024
517,32832
518,32704
519,32832
520,33344
521,33856
522,34240
523,34496
524,34560
525,34496
526,34496
527,34560
528,34624
529,34624
530,34496
531,34496
532,34432
533,34176
534,33920
535,33792
536,33792
537,33792
538,33856
539,34048
540,34304
541,34560
542,34688
543,34752
544,34432
545,33984
546,33856
547,34176
548,34624
549,34944
550,35008
551,34880
552,34688
553,34688
554,34880
555,34944
556,34816
557,34688
558,34560
559,34688
560,34944
561,35072
562,35264
563,35456
564,35456
565,35328
566,35200
567,35072
568,34752
569,34304
570,33920
571,33920
572,34176
573,34304
574,34240
575,34048
576,33856
577,33600
578,33280
579,33152
580,33280
581,33472
582,33664
583,33792
584,33856
585,33792
586,33728
587,33664
588,33536
589,33408
590,33408
591,33536
592,33728
593,34048
594,34240
595,34304
596,34240
597,34112
598,33920
599,33792
600,33664
601,33664
602,33792
603,33984
604,34112
605,34112
606,34112
607,34112
608,33984
609,33600
610,33344
611,33216
612,33408
613,33792
614,34304
615,34624
616,34624
617,34432
618,34112
619,33856
620,33856
621,34176
622,34304
623,34368
624,34240
625,34240
626,34432
627,34752
628,35008
629,35072
630,35072
631,35072
632,35008
633,35008
634,35072
635,35264
636,35328
637,35200
638,35008
639,34880
640,34688
641,34304
642,33920
643,33664
644,33536
645,33280
646,32832
647,32768
648,33024
649,33536
650,33920
651,34176
652,34240
653,34112
654,34112
655,34112
656,34048
657,33856
658,33856
659,33984
660,34048
661,33920
662,33600
663,33344
664,33216
665,33472
666,34368
667,35840
668,37760
669,40000
670,41536
671,41472
672,39936
673,37568
674,35328
675,33472
676,31936
677,30848
678,30464
679,30656
680,31104
681,32448
682,32960
683,33024
684,33792
685,34048
686,34176
687,34048
688,33600
689,33408
690,33216
691,33088
692,33280
693,33600
694,33600
695,33920
696,33920
697,33728
698,33664
699,33280
700,33472
701,33920
702,34560
703,35200
704,35200
705,34816
706,34560
707,34560
708,34496
709,34432
710,34688
711,34688
712,34752
713,34688
714,34752
715,34752
716,34880
717,34816
718,34624
719,34432
720,34368
721,34624
722,35008
723,35200
724,35136
725,35136
726,35136
727,35200
728,35200
729,35200
730,35200
731,35072
732,34880
733,34688
734,34624
735,34624
736,34752
737,34816
738,34752
739,34624
740,34560
741,34496
742,34368
743,34304
744,33728
745,33600
746,33600
747,33600
748,33600
749,33664
750,33728
751,33664
752,33472
753,33216
754,33152
755,32768
756,32960
757,33536
758,33728
759,33856
760,33856
761,33856
762,33792
763,33792
764,33728
765,33728
766,33664
767,33664
768,33600
769,33664
770,33728
771,33856
772,33984
773,33920
774,33792
775,33472
776,33152
777,33280
778,33792
779,34240
780,34560
781,34752
782,34688
783,34368
784,33856
785,33664
786,33920
787,34240
788,34176
789,34432
790,34432
791,34432
792,34432
793,34368
794,34176
795,34048
796,34176
797,34368
798,34176
799,34048
800,34304
801,34688
802,35072
803,35008
804,35008
805,34944
806,34880
807,34688
808,34368
809,34304
810,34176
811,34112
812,34176
813,34048
814,33664
815,33408
816,33472
817,33792
818,33792
819,34176
820,34176
821,33920
822,33792
823,33728
824,33664
825,33536
826,33664
827,33920
828,34048
829,33984
830,33856
831,33664
832,33472
833,33344
834,33536
835,34048
836,34816
837,36032
838,37824
839,39936
840,41408
841,41472
842,40128
843,37952
844,35584
845,33600
846,32128
847,31168
848,31040
849,30720
850,31104
851,31744
852,32448
853,32960
854,33152
855,33216
856,33280
857,33344
858,33408
859,33472
860,33600
861,33600
862,33728
863,33728
864,33728
865,33728
866,33664
867,33728
868,33920
869,33984
870,33920
871,33792
872,33536
873,33408
874,33536
875,33984
876,34368
877,34496
878,34560
879,34624
880,34688
881,34624
882,34496
883,34368
884,34112
885,34112
886,34304
887,34432
888,34432
889,34368
890,34304
891,34240
892,34304
893,34240
894,34752
895,34944
896,35008
897,35072
898,35136
899,35136
900,35072
901,35072
902,35008
903,35008
904,35072
905,35072
906,35008
907,34880
908,34816
909,34560
910,34304
911,34176
912,34048
913,34048
914,34048
915,34048
916,33856
917,33728
918,33664
919,33664
920,33600
921,33472
922,33408
923,33344
924,33408
925,33536
926,33664
927,33664
928,33600
929,33536
930,33472
931,33600
932,33792
933,33856
934,33856
935,33856
936,33728
937,33664
938,33728
939,33792
940,33856
941,33792
942,33664
943,33728
944,33920
945,34112
946,34176
947,33984
948,33728
949,33536
950,33728
951,34112
952,34304
953,34240
954,34240
955,34368
956,34496
957,34560
958,34560
959,34496
960,34496
961,34496
962,34496
963,34304
964,34240
965,34496
966,34816
967,35136
968,35072
969,35136
970,34880
971,34560
972,34304
973,34240
974,34368
975,34432
976,34496
977,34304
978,34048
979,33856
980,33792
981,33728
982,33600
983,33472
984,33472
985,33600
986,33728
987,33856
988,33984
989,34112
990,34048
991,33728
992,33600
993,33792
994,33984
995,34112
996,34112
997,33792
998,33664
999,33408
1000,33536
1001,34112
1002,35264
1003,36800
1004,38784
1005,40832
1006,41856
1007,41344
1008,39552
1009,36928
1010,34496
1011,32704
1012,31552
1013,31424
1014,31040
1015,31232
1016,31616
1017,31936
1018,32448
1019,33024
1020,33280
1021,33344
1022,33408
1023,33408
1024,33280
1025,33280
1026,33472
1027,33920
1028,33856
1029,34240
1030,34240
1031,34240
1032,34048
1033,33792
1034,33536
1035,33536
1036,33600
1037,33792
1038,34112
1039,34240
1040,34304
1041,34304
1042,34176
1043,33920
1044,33728
1045,33728
1046,33984
1047,34304
1048,34560
1049,34688
1050,34752
1051,34688
1052,34624
1053,34560
1054,34368
1055,34304
1056,34304
1057,34688
1058,34688
1059,35136
1060,35072
1061,35008
1062,34944
1063,35008
1064,35136
1065,35136
1066,35072
1067,35072
1068,35136
1069,35136
1070,34944
1071,34624
1072,34496
1073,34432
1074,34688
1075,34624
1076,34368
1077,34368
1078,34368
1079,34304
1080,34176
1081,34048
1082,33984
1083,33920
1084,33856
1085,33664
1086,33408
1087,33280
1088,33344
1089,33536
1090,33856
1091,33984
1092,33920
1093,33792
1094,33664
1095,33536
1096,33408
1097,33344
1098,33472
1099,33728
1100,33920
1101,33984
1102,33984
1103,33920
1104,33856
1105,33920
1106,34048
1107,34112
1108,34176
1109,34048
1110,33920
1111,33920
1112,33984
1113,34112
1114,34304
1115,34176
1116,34048
1117,34176
1118,34112
1119,34240
1120,34176
1121,34176
1122,34240
1123,34304
1124,34240
1125,34112
1126,34048
1127,34240
1128,34560
1129,34752
1130,34688
1131,34688
1132,34880
1133,34816
1134,35008
1135,35136
1136,35200
1137,35200
1138,35072
1139,34944
1140,34688
1141,34496
1142,34432
1143,34432
1144,34304
1145,34112
1146,33856
1147,33600
1148,33600
1149,33728
1150,33792
1151,33664
1152,33600
1153,33792
1154,34048
1155,34240
1156,34240
1157,34176
1158,34112
1159,34048
1160,33984
1161,33792
1162,33472
1163,33408
1164,33280
1165,33280
1166,33344
1167,33536
1168,34112
1169,35200
1170,36800
1171,38848
1172,40960
1173,42176
1174,41664
1175,40000
1176,37440
1177,34176
1178,33856
1179,31552
1180,31040
1181,31104
1182,31488
1183,31936
1184,32256
1185,32640
1186,32896
1187,33152
1188,33344
1189,33536
1190,33728
1191,33728
1192,33600
1193,33600
1194,33728
1195,33792
1196,33920
1197,33984
1198,33920
1199,33728
1200,33536
1201,33344
1202,33280
1203,33536
1204,33984
1205,34176
1206,34240
1207,34240
1208,34176
1209,34496
1210,34560
1211,34624
1212,34496
1213,34368
1214,34432
1215,34624
1216,34688
1217,34624
1218,34560
1219,34560
1220,34624
1221,34688
1222,34688
1223,34624
1224,34560
1225,34496
1226,34560
1227,34752
1228,35008
1229,35072
1230,35008
1231,35072
1232,35200
1233,35328
1234,35328
1235,35328
1236,35456
1237,35520
1238,35456
1239,35264
1240,35136
1241,35008
1242,34880
1243,34752
1244,34560
1245,34304
1246,34112
1247,33984
1248,33920
1249,33792
1250,33728
1251,33792
1252,33856
1253,33792
1254,33600
1255,33344
1256,33344
1257,33600
1258,33856
1259,34048
1260,34176
1261,34176
1262,34176
1263,34176
1264,34112
1265,33920
1266,33792
1267,33664
1268,33664
1269,34048
1270,34240
1271,34304
1272,34176
1273,34048
1274,33984
1275,34048
1276,34048
1277,33984
1278,34048
1279,34048
1280,33920
1281,33856
1282,34112
1283,34048
1284,34432
1285,34496
1286,34432
1287,34240
1288,34048
1289,34048
1290,34112
1291,34304
1292,34496
1293,34624
1294,34624
1295,34688
1296,34816
1297,34816
1298,34816
1299,34880
1300,35008
1301,35136
1302,35072
1303,34944
1304,34816
1305,34944
1306,35136
1307,35264
1308,35008
1309,34624
1310,34368
1311,34240
1312,34176
1313,34048
1314,33920
1315,33728
1316,33472
1317,33344
1318,33408
1319,33536
1320,33664
1321,33728
1322,33728
1323,33728
1324,33792
1325,33856
1326,33920
1327,33984
1328,33920
1329,33984
1330,33920
1331,33600
1332,33152
1333,32832
1334,32768
1335,33344
1336,34880
1337,36864
1338,39168
1339,41472
1340,42496
1341,41920
1342,39040
1343,38592
1344,34688
1345,32704
1346,31488
1347,30848
1348,30848
1349,31232
1350,31744
1351,32320
1352,32896
1353,33152
1354,33280
1355,33344
1356,33344
1357,33216
1358,33088
1359,33152
1360,33408
1361,33728
1362,33920
1363,33984
1364,33984
1365,33984
1366,33920
1367,33920
1368,34048
1369,34176
1370,34304
1371,34304
1372,34304
1373,34240
1374,34176
1375,34112
1376,34048
1377,34112
1378,34240
1379,34304
1380,34304
1381,34240
1382,34176
1383,34176
1384,34240
1385,34368
1386,34496
1387,34560
1388,34496
1389,34432
1390,34624
1391,34880
1392,35072
1393,35200
1394,35264
1395,35264
1396,35136
1397,34944
1398,35008
1399,35136
1400,35136
1401,35136
1402,35136
1403,35136
1404,35136
1405,35136
1406,35072
1407,34944
1408,34688
1409,34368
1410,34048
1411,33856
1412,33856
1413,33984
1414,34048
1415,34048
1416,33984
1417,33920
1418,33856
1419,33920
1420,33920
1421,33728
1422,33600
1423,33472
1424,33408
1425,33216
1426,33216
1427,33408
1428,33600
1429,33792
1430,33792
1431,33856
1432,33664
1433,33600
1434,33728
1435,33728
1436,33664
1437,33664
1438,33664
1439,33664
1440,33728
1441,33792
1442,33920
1443,34048
1444,34112
1445,34112
1446,34176
1447,34304
1448,34240
1449,34304
1450,34304
1451,34304
1452,34240
1453,34048
1454,33792
1455,33792
1456,33920
1457,33920
1458,33920
1459,33920
1460,33984
1461,34176
1462,34304
1463,34304
1464,34304
1465,34304
1466,34240
1467,34240
1468,34368
1469,34432
1470,34496
1471,34560
1472,34624
1473,34752
1474,34944
1475,35008
1476,35136
1477,35392
1478,35392
1479,35264
1480,35072
1481,35008
1482,34880
1483,34688
1484,34304
1485,33984
1486,33856
1487,33728
1488,33664
1489,33600
1490,33600
1491,33600
1492,33600
1493,33600
1494,33600
1495,33600
1496,33600
1497,33536
1498,33536
1499,33664
1500,33920
1501,33920
1502,33728
1503,33600
1504,33536
1505,33344
1506,33152
1507,33088
1508,33280
1509,33984
1510,35264
1511,36992
1512,39168
1513,41216
1514,42112
1515,41216
1516,39040
1517,36352
1518,33984
1519,32256
1520,31360
1521,30912
1522,31040
1523,31040
1524,31680
1525,32000
1526,32256
1527,32448
1528,32640
1529,33024
1530,33408
1531,33664
1532,33920
1533,33984
1534,33984
1535,33920
1536,33792
1537,33472
1538,33344
1539,33408
1540,33792
1541,34112
1542,34176
1543,34048
1544,33984
1545,33984
1546,34112
1547,34176
1548,34240
1549,34304
1550,34304
1551,34368
1552,34368
1553,34304
1554,34304
1555,34304
1556,34368
1557,34432
1558,34560
1559,34624
1560,34688
1561,34816
1562,34944
1563,34944
1564,34944
1565,34944
1566,34880
1567,34816
1568,34816
1569,34944
1570,35136
1571,35200
1572,35264
1573,35328
1574,35264
1575,35136
1576,34944
1577,34880
1578,34880
1579,34880
1580,34816
1581,34944
1582,35072
1583,35072
1584,35072
1585,35008
1586,34688
1587,34304
1588,34112
1589,33984
1590,33984
1591,33856
1592,33792
1593,33728
1594,33664
1595,33600
1596,33536
1597,33408
1598,33280
1599,33280
1600,33344
1601,33536
1602,33728
1603,33856
1604,33920
1605,33920
1606,33984
1607,33984
1608,33984
1609,33920
1610,33856
1611,33792
1612,33856
1613,33984
1614,34112
1615,34176
1616,34176
1617,34112
1618,33984
1619,33984
1620,34048
1621,34112
1622,34176
1623,34240
1624,34368
1625,34368
1626,34496
1627,34560
1628,34368
1629,34112
1630,34112
1631,34176
1632,34304
1633,34368
1634,34368
1635,34240
1636,34048
1637,33920
1638,34048
1639,34240
1640,34304
1641,34368
1642,34432
1643,34496
1644,34624
1645,34688
1646,34752
1647,34880
1648,34944
1649,35072
1650,35328
1651,35584
1652,35648
1653,35584
1654,35264
1655,35008
1656,34816
1657,34496
1658,34240
1659,33920
1660,33664
1661,33408
1662,33408
1663,33536
1664,33664
1665,33792
1666,33792
1667,33664
1668,33728
1669,33792
1670,33920
1671,33920
1672,33856
1673,33856
1674,33792
1675,33920
1676,33920
1677,33792
1678,33600
1679,33344
1680,33280
1681,33344
1682,33600
1683,34240
1684,35392
1685,37120
1686,39232
1687,41280
1688,42112
1689,41408
1690,39424
1691,36864
1692,34560
1693,32640
1694,31488
1695,30976
1696,30912
1697,31168
1698,31744
1699,32320
1700,32640
1701,32832
1702,32896
1703,33024
1704,33408
1705,33728
1706,33856
1707,33920
1708,33920
1709,33984
1710,34048
1711,34048
1712,33920
1713,33792
1714,33728
1715,33856
1716,33856
1717,33920
1718,34048
1719,34112
1720,34048
1721,33984
1722,33984
1723,34048
1724,34176
1725,34304
1726,34368
1727,34432
1728,34496
1729,34560
1730,34624
1731,34496
1732,34304
1733,34304
1734,34496
1735,34688
1736,34880
1737,34880
1738,34752
1739,34688
1740,34688
1741,34752
1742,34816
1743,34880
1744,35008
1745,35136
1746,35072
1747,34944
1748,34944
1749,34880
1750,34752
1751,34752
1752,35008
1753,35072
1754,35008
1755,34688
1756,34432
1757,34432
1758,34688
1759,34816
1760,34752
1761,34560
1762,34368
1763,34112
1764,33984
1765,33856
1766,33728
1767,33664
1768,33664
1769,33600
1770,33472
1771,33472
1772,33408
1773,33408
1774,33408
1775,33536
1776,33728
1777,33792
1778,33792
1779,33536
1780,33408
1781,33664
1782,33984
1783,34176
1784,34176
1785,34176
1786,34176
1787,34176
1788,34176
1789,34368
1790,34368
1791,34240
1792,34112
1793,34048
1794,33984
1795,33984
1796,34112
1797,34176
1798,34176
1799,34240
1800,34240
1801,34176
1802,34112
1803,34112
1804,34176
1805,34112
1806,34112
1807,34048
1808,33920
1809,33792
1810,33920
1811,33984
1812,33984
1813,34112
1814,34560
1815,35008
1816,35200
1817,35136
1818,34880
1819,34752
1820,34944
1821,35264
1822,35456
1823,35520
1824,35520
1825,35520
1826,35392
1827,35008
1828,34624
1829,34496
1830,34368
1831,34240
1832,33984
1833,33728
1834,33472
1835,33344
1836,33408
1837,33536
1838,33536
1839,33600
1840,33536
1841,33600
1842,33792
1843,33920
1844,33856
1845,33600
1846,33472
1847,33664
1848,33920
1849,33984
1850,33984
1851,33856
1852,33664
1853,33536
1854,33472
1855,33856
1856,34944
1857,36544
1858,38656
1859,40640
1860,41600
1861,41152
1862,39360
1863,36800
1864,34496
1865,32768
1866,31680
1867,31168
1868,31168
1869,31360
1870,31744
1871,32192
1872,32512
1873,32640
1874,32768
1875,33088
1876,33408
1877,33664
1878,33856
1879,33856
1880,33664
1881,33472
1882,33408
1883,33408
1884,33536
1885,33664
1886,33792
1887,33856
1888,33920
1889,33984
1890,34112
1891,34112
1892,33984
1893,33984
1894,33984
1895,33920
1896,33984
1897,34048
1898,34112
1899,34240
1900,34304
1901,34368
1902,34304
1903,34240
1904,34240
1905,34304
1906,34432
1907,34624
1908,34816
1909,34816
1910,34688
1911,34560
1912,34624
1913,34752
1914,34944
1915,35008
1916,34816
1917,34624
1918,34624
1919,34688
1920,34752
1921,34816
1922,34880
1923,34944
1924,34944
1925,34752
1926,34496
1927,34304
1928,34304
1929,34304
1930,34368
1931,34432
1932,34368
1933,34112
1934,33984
1935,34112
1936,34240
1937,34112
1938,33792
1939,33536
1940,33472
1941,33472
1942,33408
1943,33472
1944,33408
1945,33344
1946,33280
1947,33472
1948,33600
1949,33600
1950,33536
1951,33472
1952,33536
1953,33536
1954,33600
1955,33664
1956,33856
1957,33984
1958,34048
1959,34112
1960,34176
1961,34240
1962,34176
1963,34112
1964,33920
1965,33792
1966,33792
1967,33920
1968,34048
1969,34176
1970,34176
1971,34112
1972,33984
1973,33920
1974,33920
1975,33984
1976,34048
1977,34048
1978,34048
1979,34112
1980,34048
1981,34048
1982,34112
1983,34240
1984,34304
1985,34304
1986,34304
1987,34176
1988,33984
1989,33984
1990,34176
1991,34496
1992,34688
1993,34816
1994,35008
1995,35136
1996,35200
1997,35264
1998,35200
1999,35136
2000,34880
2001,34688
2002,34624
2003,34752
2004,34688
2005,34432
2006,34048
2007,33600
2008,33408
2009,33472
2010,33472
2011,33280
2012,33088
2013,33216
2014,33472
2015,33792
2016,34048
2017,34112
2018,34048
2019,33856
2020,33600
2021,33536
2022,33472
2023,33472
2024,33536
2025,33536
2026,33472
2027,33536
2028,33664
2029,34048
2030,35008
2031,36416
2032,38208
2033,40192
2034,41536
2035,41408
2036,39872
2037,37504
2038,35072
2039,33088
2040,32000
2041,31424
2042,31232
2043,31232
2044,31360
2045,31808
2046,32384
2047,32768
2048,33024
2049,33216
2050,33472
2051,33792
2052,33920
2053,33984
2054,33984
2055,33856
2056,33792
2057,33856
2058,33984
2059,34048
2060,33984
2061,33984
2062,34048
2063,34112
2064,34176
2065,34240
2066,34112
2067,33856
2068,33600
2069,33536
2070,33536
2071,33536
2072,33728
2073,34112
2074,34496
2075,34624
2076,34688
2077,34752
2078,34816
2079,34816
2080,34816
2081,34624
2082,34496
2083,34496
2084,34496
2085,34496
2086,34560
2087,34752
2088,34880
2089,34944
2090,35008
2091,35008
2092,35072
2093,35008
2094,34880
2095,34880
2096,34880
2097,34880
2098,34816
2099,34944
2100,35008
2101,34880
2102,34688
2103,34624
2104,34560
2105,34496
2106,34496
2107,34368
2108,34176
2109,33984
2110,33856
2111,33792
2112,33792
2113,33664
2114,33344
2115,33216
2116,33216
2117,33344
2118,33600
2119,33664
2120,33600
2121,33536
2122,33600
2123,33664
2124,33728
2125,33792
2126,33856
2127,33920
2128,33856
2129,33728
2130,33600
2131,33472
2132,33536
2133,33792
2134,33920
2135,33920
2136,33792
2137,33728
2138,33792
2139,33920
2140,34048
2141,34176
2142,34240
2143,34304
2144,34304
2145,34240
2146,34112
2147,34112
2148,34176
2149,34176
2150,34048
2151,33984
2152,33984
2153,33984
2154,34048
2155,34112
2156,34176
2157,34112
2158,34112
2159,34112
2160,34176
2161,34176
2162,34176
2163,34048
2164,34048
2165,34176
2166,34368
2167,34304
2168,34304
2169,34432
2170,34560
2171,34688
2172,34816
2173,34944
2174,35072
2175,35200
2176,35200
2177,35200
2178,35200
2179,35264
2180,35328
2181,35200
2182,34880
2183,34176
2184,33664
2185,33536
2186,33664
2187,33792
2188,33792
2189,33792
2190,33728
2191,33664
2192,33600
2193,33536
2194,33472
2195,33472
2196,33536
2197,33408
2198,33408
2199,33728
2200,34176
2201,34368
2202,34304
2203,33984
2204,33664
2205,33408
2206,33344
2207,33536
2208,34304
2209,35648
2210,37248
2211,39360
2212,41280
2213,41792
2214,40576
2215,38272
2216,35840
2217,33664
2218,32128
2219,31232
2220,30848
2221,30976
2222,31360
2223,31808
2224,32320
2225,32576
2226,32768
2227,33088
2228,33344
2229,33344
2230,33152
2231,33152
2232,33408
2233,33792
2234,33920
2235,33920
2236,33920
2237,33984
2238,34048
2239,34048
2240,33920
2241,33664
2242,33472
2243,33536
2244,33728
2245,33984
2246,34176
2247,34240
2248,34304
2249,34240
2250,34240
2251,34304
2252,34368
2253,34304
2254,34176
2255,34112
2256,34112
2257,34048
2258,34048
2259,34112
2260,34240
2261,34496
2262,34688
2263,34816
2264,34880
2265,34944
2266,34944
2267,34944
2268,34880
2269,34752
2270,34880
2271,35200
2272,35328
2273,35392
2274,35328
2275,35200
2276,35136
2277,35136
2278,35008
2279,34816
2280,34688
2281,34624
2282,34560
2283,34496
2284,34368
2285,34112
2286,33856
2287,33728
2288,33600
2289,33536
2290,33600
2291,33664
2292,33728
2293,33728
2294,33664
2295,33536
2296,33664
2297,33856
2298,33920
2299,33792
2300,33600
2301,33472
2302,33600
2303,33664
2304,33792
2305,33856
2306,33856
2307,33792
2308,33728
2309,33856
2310,33984
2311,33920
2312,33792
2313,33728
2314,33792
2315,33792
2316,33920
2317,33984
2318,33984
2319,33920
2320,33920
2321,33920
2322,33792
2323,33792
2324,34048
2325,34432
2326,34688
2327,34560
2328,34432
2329,34240
2330,34048
2331,33920
2332,33920
2333,33984
2334,34112
2335,34240
2336,34240
2337,34176
2338,34112
2339,34048
2340,34176
2341,34368
2342,34432
2343,34304
2344,34176
2345,34048
2346,33984
2347,33984
2348,33984
2349,34240
2350,34432
2351,34368
2352,34240
2353,34432
2354,34816
2355,35072
2356,35200
2357,35456
2358,35648
2359,35648
2360,35392
2361,35136
2362,34752
2363,34560
2364,34368
2365,34112
2366,33920
2367,33792
2368,33536
2369,33344
2370,33280
2371,33344
2372,33536
2373,33600
2374,33664
2375,33728
2376,33792
2377,33792
2378,33792
2379,33920
2380,33984
2381,34048
2382,33984
2383,33920
2384,33728
2385,33344
2386,32896
2387,32768
2388,33152
2389,34304
2390,35776
2391,37632
2392,39744
2393,41664
2394,42240
2395,41216
2396,38912
2397,36224
2398,33728
2399,31936
2400,30976
2401,30720
2402,30976
2403,31424
2404,31872
2405,32320
2406,32576
2407,32832
2408,33088
2409,33280
2410,33408
2411,33664
2412,33600
2413,33472
2414,33472
2415,33536
2416,33664
2417,33792
2418,33856
2419,33856
2420,33920
2421,33984
2422,34048
2423,34048
2424,33984
2425,33920
2426,33984
2427,34048
2428,34240
2429,34304
2430,34304
2431,34112
2432,34048
2433,34176
2434,34240
2435,34304
2436,34496
2437,34560
2438,34624
2439,34560
2440,34432
2441,34368
2442,34368
2443,34560
2444,34624
2445,34560
2446,34752
2447,34880
2448,34880
2449,34752
2450,34816
2451,35072
2452,35328
2453,35456
2454,35456
2455,35456
2456,35392
2457,35328
2458,35200
2459,35200
2460,35136
2461,34944
2462,34816
2463,34688
2464,34368
2465,33984
2466,33856
2467,33920
2468,34048
2469,34048
2470,33920
2471,33600
2472,33472
2473,33536
2474,33536
2475,33600
2476,33664
2477,33792
2478,33920
2479,34048
2480,33920
2481,33792
2482,33664
2483,33728
2484,33728
2485,33664
2486,33664
2487,33664
2488,33792
2489,33920
2490,33984
2491,34048
2492,33920
2493,33792
2494,33728
2495,33728
2496,33792
2497,33920
2498,33984
2499,34048
2500,33792
2501,33728
2502,33984
2503,34240
2504,34368
2505,34368
2506,34304
2507,34304
2508,34176
2509,34176
2510,34176
2511,34176
2512,34176
2513,33984
2514,33856
2515,33856
2516,33920
2517,33984
2518,34176
2519,34304
2520,34368
2521,34304
2522,34368
2523,34496
2524,34432
2525,34624
2526,34624
2527,34688
2528,34624
2529,35008
2530,35200
2531,35392
2532,35456
2533,35392
2534,35136
2535,34944
2536,34816
2537,34752
2538,34560
2539,34304
2540,34048
2541,33728
2542,33280
2543,33152
2544,33088
2545,33408
2546,33664
2547,33664
2548,33664
2549,33792
2550,33856
2551,33920
2552,33984
2553,33984
2554,33920
2555,33984
2556,33984
2557,33984
2558,33920
2559,33664
2560,33408
2561,33344
2562,33600
2563,34240
2564,35264
2565,36864
2566,38912
2567,40896
2568,41792
2569,41088
2570,39168
2571,36736
2572,34368
2573,32448
2574,31168
2575,30528
2576,30464
2577,30976
2578,31744
2579,32448
2580,32960
2581,33344
2582,33600
2583,33664
2584,33664
2585,33664
2586,33600
2587,33600
2588,33536
2589,33600
2590,33664
2591,33792
2592,33920
2593,33984
2594,34048
2595,34048
2596,33920
2597,33664
2598,33472
2599,33472
2600,33664
2601,33984
2602,34240
2603,34432
2604,34496
2605,34496
2606,34432
2607,34432
2608,34560
2609,34752
2610,34752
2611,34688
2612,34560
2613,34560
2614,34624
2615,34624
2616,34624
2617,34560
2618,34560
2619,34752
2620,34944
2621,35008
2622,35008
2623,34944
2624,34880
2625,34816
2626,34816
2627,34816
2628,34752
2629,34560
2630,34496
2631,34624
2632,34880
2633,35136
2634,35328
2635,35328
2636,35200
2637,35008
2638,34816
2639,34624
2640,34368
2641,34048
2642,33792
2643,33728
2644,33792
2645,33920
2646,33920
2647,33792
2648,33664
2649,33664
2650,33728
2651,33728
2652,33664
2653,33664
2654,33664
2655,33728
2656,33856
2657,33920
2658,33792
2659,33728
2660,33728
2661,33792
2662,33792
2663,33920
2664,34112
2665,34240
2666,34176
2667,33984
2668,33728
2669,33664
2670,33856
2671,34176
2672,34432
2673,34496
2674,34432
2675,34432
2676,34368
2677,34304
2678,34176
2679,34048
2680,33984
2681,34112
2682,34240
2683,34368
2684,34368
2685,34176
2686,33856
2687,33664
2688,33792
2689,34048
2690,34304
2691,34432
2692,34432
2693,34304
2694,34304
2695,34496
2696,34688
2697,34752
2698,34752
2699,34752
2700,34816
2701,34752
2702,34752
2703,34880
2704,35136
2705,35392
2706,35456
2707,35328
2708,35200
2709,35008
2710,34752
2711,34240
2712,33792
2713,33600
2714,33536
2715,33600
2716,33664
2717,33728
2718,33728
2719,33728
2720,33664
2721,33728
2722,33856
2723,33984
2724,34048
2725,34048
2726,34048
2727,33984
2728,33920
2729,33920
2730,33792
2731,33536
2732,33280
2733,33152
2734,33216
2735,33536
2736,34496
2737,36032
2738,37760
2739,39936
2740,41472
2741,41536
2742,40192
2743,38016
2744,35712
2745,33664
2746,32192
2747,31360
2748,31104
2749,31168
2750,31552
2751,32000
2752,32512
2753,32768
2754,33024
2755,33216
2756,33344
2757,33472
2758,33536
2759,33600
2760,33664
2761,33792
2762,33792
2763,33728
2764,33792
2765,33792
2766,33856
2767,33920
2768,33856
2769,33792
2770,33728
2771,33792
2772,33856
2773,33920
2774,33920
2775,33920
2776,33920
2777,34112
2778,34240
2779,34304
2780,34304
2781,34368
2782,34432
2783,34496
2784,34496
2785,34368
2786,34432
2787,34432
2788,34432
2789,34496
2790,34560
2791,34688
2792,34752
2793,34880
2794,34816
2795,34624
2796,34432
2797,34560
2798,34816
2799,35008
2800,35200
2801,35136
2802,35008
2803,35072
2804,35072
2805,35008
2806,34880
2807,34880
2808,34880
2809,34880
2810,34752
2811,34560
2812,34304
2813,34112
2814,33984
2815,33920
2816,33920
2817,33856
2818,33856
2819,33792
2820,33664
2821,33472
2822,33408
2823,33600
2824,33728
2825,33600
2826,33408
2827,33472
2828,33664
2829,33792
2830,33856
2831,33856
2832,33728
2833,33664
2834,33728
2835,33856
2836,33856
2837,33984
2838,34112
2839,34048
2840,33920
2841,33792
2842,33792
2843,33792
2844,33856
2845,33856
2846,33856
2847,34112
2848,34240
2849,34240
2850,34176
2851,34176
2852,34112
2853,33984
2854,33792
2855,33792
2856,33856
2857,33984
2858,34048
2859,34112
2860,34240
2861,34176
2862,34176
2863,34240
2864,34368
2865,34432
2866,34496
2867,34496
2868,34496
2869,34560
2870,34560
2871,34496
2872,34624
2873,34752
2874,34816
2875,34880
2876,35008
2877,35136
2878,35328
2879,35392
2880,35136
2881,34624
2882,34304
2883,34176
2884,34048
2885,33728
2886,33536
2887,33728
2888,33792
2889,33792
2890,33728
2891,33664
2892,33600
2893,33536
2894,33600
2895,33664
2896,33728
2897,33728
2898,33792
2899,33792
2900,33792
2901,33792
2902,33728
2903,33536
2904,33216
2905,32960
2906,32960
2907,33408
2908,34304
2909,35520
2910,37056
2911,39168
2912,41280
2913,41920
2914,40960
2915,38784
2916,36352
2917,33920
2918,32256
2919,31232
2920,30720
2921,30720
2922,31040
2923,31488
2924,32000
2925,32384
2926,32704
2927,33024
2928,33280
2929,33408
2930,33472
2931,33536
2932,33536
2933,33536
2934,33600
2935,33664
2936,33600
2937,33536
2938,33600
2939,33728
2940,33856
2941,33920
2942,33920
2943,33920
2944,34048
2945,34176
2946,34240
2947,34112
2948,33920
2949,33856
2950,33984
2951,34176
2952,34240
2953,34176
2954,34112
2955,34048
2956,34048
2957,34048
2958,34112
2959,34432
2960,34560
2961,34688
2962,34624
2963,34560
2964,34624
2965,34752
2966,34944
2967,34944
2968,34880
2969,34944
2970,35008
2971,35072
2972,35136
2973,35200
2974,35200
2975,35136
2976,34944
2977,34624
2978,34496
2979,34560
2980,34688
2981,34816
2982,34688
2983,34560
2984,34432
2985,34240
2986,34112
2987,33856
2988,33600
2989,33472
2990,33472
2991,33536
2992,33664
2993,33664
2994,33664
2995,33728
2996,33792
2997,33856
2998,33856
2999,33792
3000,33792
3001,33728
3002,33728
3003,33728
3004,33792
3005,33792
3006,33664
3007,33728
3008,33856
3009,34048
3010,34112
3011,34048
3012,33856
3013,33792
3014,33792
3015,33792
3016,33792
3017,33856
3018,33984
3019,34176
3020,34240
3021,34304
3022,34368
3023,34368
3024,34304
3025,34176
3026,34048
3027,34048
3028,34048
3029,34048
3030,33920
3031,33792
3032,33792
3033,33984
3034,34112
3035,34176
3036,34176
3037,34176
3038,34048
3039,33984
3040,34048
3041,34176
3042,34240
3043,34432
3044,34688
3045,34880
3046,34944
3047,34816
3048,34752
3049,34816
3050,34880
3051,35072
3052,35328
3053,35456
3054,35392
3055,35200
3056,34880
3057,34624
3058,34304
3059,34112
3060,33856
3061,33664
3062,33536
3063,33408
3064,33344
3065,33472
3066,33600
3067,33728
3068,33728
3069,33664
3070,33536
3071,33536
3072,33728
3073,33984
3074,34176
3075,34112
3076,33920
3077,33792
3078,33664
3079,33472
3080,33408
3081,33472
3082,33664
3083,34240
3084,35392
3085,36992
3086,38976
3087,41024
3088,41984
3089,41344
3090,39360
3091,36736
3092,34240
3093,32192
3094,30784
3095,30336
3096,30464
3097,31040
3098,31680
3099,32320
3100,32832
3101,33216
3102,33344
3103,33472
3104,33600
3105,33728
3106,33856
3107,33920
3108,33920
3109,33984
3110,34048
3111,34176
3112,34240
3113,34240
3114,34112
3115,33920
3116,33920
3117,34048
3118,34048
3119,34112
3120,34112
3121,34176
3122,34176
3123,34176
3124,34112
3125,34240
3126,34432
3127,34496
3128,34432
3129,34432
3130,34496
3131,34560
3132,34496
3133,34304
3134,34304
3135,34496
3136,34816
3137,35136
3138,35392
3139,35456
3140,35520
3141,35456
3142,35392
3143,35200
3144,35136
3145,35008
3146,34944
3147,34880
3148,35072
3149,35328
3150,35584
3151,35712
3152,35584
3153,35392
3154,35200
3155,35008
3156,34816
3157,34816
3158,34752
3159,34624
3160,34368
3161,34112
3162,34112
3163,34176
3164,34176
3165,34048
3166,33984
3167,33792
3168,33728
3169,33728
3170,33856
3171,34048
3172,34048
3173,33856
3174,33728
3175,33856
3176,33984
3177,34048
3178,34048
3179,34112
3180,34112
3181,34176
3182,34176
3183,34240
3184,34368
3185,34432
3186,34240
3187,33856
3188,33600
3189,33728
3190,34112
3191,34496
3192,34560
3193,34560
3194,34432
3195,34368
3196,34240
3197,34240
3198,34304
3199,34304
3200,34240
3201,34304
3202,34560
3203,34688
3204,34688
3205,34688
3206,34624
3207,34432
3208,34368
3209,34368
3210,34432
3211,34496
3212,34432
3213,34368
3214,34304
3215,34240
3216,34304
3217,34624
3218,34688
3219,34752
3220,34880
3221,35072
3222,35200
3223,35200
3224,35136
3225,35072
3226,35008
3227,35008
3228,35072
3229,35200
3230,35328
3231,35584
3232,35776
3233,35648
3234,35328
3235,34944
3236,34624
3237,34368
3238,33984
3239,33664
3240,33472
3241,33408
3242,33536
3243,33792
3244,33984
3245,34048
3246,33984
3247,33920
3248,33920
3249,34048
3250,33984
3251,33792
3252,33792
3253,33984
3254,34048
3255,34048
3256,33920
3257,33792
3258,33664
3259,33728
3260,34176
3261,35264
3262,37440
3263,38784
3264,40768
3265,41856
3266,41600
3267,40064
3268,37824
3269,35584
3270,33664
3271,32192
3272,31232
3273,30720
3274,30848
3275,31424
3276,32256
3277,33024
3278,33216
3279,33536
3280,33792
3281,33920
3282,33984
3283,33984
3284,34048
3285,34240
3286,34240
3287,34176
3288,34112
3289,34112
3290,34112
3291,34048
3292,33920
3293,33856
3294,33920
3295,34112
3296,34240
3297,34048
3298,33856
3299,33856
3300,34048
3301,34176
3302,34368
3303,34368
3304,34304
3305,34176
3306,34176
3307,34624
3308,34880
3309,35136
3310,35264
3311,35328
3312,35264
3313,35136
3314,35008
3315,34944
3316,35008
3317,35072
3318,35200
3319,35264
3320,35136
3321,35072
3322,35008
3323,34944
3324,34880
3325,34880
3326,34880
3327,34944
3328,35136
3329,35200
3330,35072
3331,34816
3332,34752
3333,35008
3334,35264
3335,35200
3336,34944
3337,34560
3338,34368
3339,34240
3340,34176
3341,34112
3342,33920
3343,33728
3344,33664
3345,33664
3346,33664
3347,33664
3348,33664
3349,33728
3350,33792
3351,33792
3352,33792
3353,33792
3354,33728
3355,33856
3356,33920
3357,33792
3358,33792
3359,33920
3360,33984
3361,33984
3362,33984
3363,34048
3364,33984
3365,33984
3366,34048
3367,33984
3368,33920
3369,33920
3370,33984
3371,34048
3372,34112
3373,34176
3374,34176
3375,34240
3376,34240
3377,34304
3378,34368
3379,34496
3380,34496
3381,34432
3382,34368
3383,34304
3384,34112
3385,33984
3386,33984
3387,33984
3388,34112
3389,34112
3390,34176
3391,34304
3392,34496
3393,34688
3394,34816
3395,34816
3396,34816
3397,34880
3398,35008
3399,35264
3400,35456
3401,35584
3402,35520
3403,35392
3404,35200
3405,34880
3406,34560
3407,34432
3408,34240
3409,34048
3410,33856
3411,33792
3412,33536
3413,33408
3414,33344
3415,33536
3416,33792
3417,33920
3418,33920
3419,33792
3420,33728
3421,33728
3422,33600
3423,33408
3424,33408
3425,33472
3426,33472
3427,33728
3428,33728
3429,33728
3430,33664
3431,33664
3432,34112
3433,34880
3434,36032
3435,37696
3436,39744
3437,41216
3438,41280
3439,40064
3440,37952
3441,35712
3442,32768
3443,31936
3444,31040
3445,30784
3446,30976
3447,31424
3448,31936
3449,32384
3450,32704
3451,32896
3452,33088
3453,33344
3454,33600
3455,33856
3456,33920
3457,33856
3458,33600
3459,33408
3460,33408
3461,33600
3462,33728
3463,33792
3464,33792
3465,33920
3466,34048
3467,34048
3468,33984
3469,33984
3470,33984
3471,34112
3472,34112
3473,34048
3474,34048
3475,34112
3476,34176
3477,34176
3478,34240
3479,34304
3480,34368
3481,34368
3482,34368
3483,34368
3484,34368
3485,34496
3486,34560
3487,34624
3488,34624
3489,34624
3490,34688
3491,34688
3492,34816
3493,35136
3494,35264
3495,35264
3496,35264
3497,35200
3498,35200
3499,35008
3500,34816
3501,34688
3502,34624
3503,34688
3504,34816
3505,34880
3506,34944
3507,34816
3508,34624
3509,34496
3510,34368
3511,34112
3512,33920
3513,33792
3514,33792
3515,33728
3516,33664
3517,33600
3518,33600
3519,33536
3520,33536
3521,33536
3522,33600
3523,33600
3524,33600
3525,33664
3526,33600
3527,33600
3528,33728
3529,33664
3530,33536
3531,33600
3532,33792
3533,33856
3534,33856
3535,33920
3536,34048
3537,34176
3538,34176
3539,34112
3540,33920
3541,33728
3542,33856
3543,33984
3544,34176
3545,34112
3546,34048
3547,33984
3548,34048
3549,34112
3550,34176
3551,34048
3552,33984
3553,33984
3554,34048
3555,34112
3556,34176
3557,34176
3558,34240
3559,34304
3560,34176
3561,33920
3562,33856
3563,34048
3564,34368
3565,34496
3566,34624
3567,34688
3568,34752
3569,34688
3570,34624
3571,34688
3572,34688
3573,34688
3574,34816
3575,34944
3576,35136
3577,35200
3578,35136
3579,35008
3580,34944
3581,34816
3582,34496
3583,34176
3584,33856
3585,33600
3586,33408
3587,33216
3588,33024
3589,33024
3590,33216
3591,33344
3592,33408
3593,33536
3594,33792
3595,34048
3596,33984
3597,33920
3598,33856
3599,33856
3600,33792
3601,33728
3602,33536
3603,33280
3604,33152
3605,33088
3606,33280
3607,33856
3608,34944
3609,36352
3610,38208
3611,40256
3612,41536
3613,41280
3614,39424
3615,36864
3616,34432
3617,32512
3618,31360
3619,30912
3620,30912
3621,31168
3622,31616
3623,32000
3624,32448
3625,32960
3626,33280
3627,33408
3628,33472
3629,33536
3630,33600
3631,33600
3632,33600
3633,33600
3634,33536
3635,33408
3636,33408
3637,33600
3638,33728
3639,33792
3640,33728
3641,33664
3642,33600
3643,33600
3644,33728
3645,33920
3646,34112
3647,34240
3648,34240
3649,34176
3650,34176
3651,34304
3652,34432
3653,34432
3654,34304
3655,34176
3656,34112
3657,34176
3658,34304
3659,34368
3660,34368
3661,34304
3662,34240
3663,34240
3664,34368
3665,34688
3666,35008
3667,35200
3668,35200
3669,35200
3670,35200
3671,35136
3672,35008
3673,34944
3674,34944
3675,34944
3676,34944
3677,34880
3678,34688
3679,34496
3680,34368
3681,34304
3682,34240
3683,34176
3684,34176
3685,34112
3686,33920
3687,33792
3688,33664
3689,33664
3690,33600
3691,33664
3692,33664
3693,33536
3694,33408
3695,33408
3696,33536
3697,33600
3698,33600
3699,33600
3700,33536
3701,33472
3702,33472
3703,33472
3704,33536
3705,33600
3706,33600
3707,33600
3708,33664
3709,33856
3710,33984
3711,33920
3712,33728
3713,33600
3714,33600
3715,33728
3716,33792
3717,33792
3718,33856
3719,33920
3720,33984
3721,33984
3722,33984
3723,33920
3724,33920
3725,33920
3726,33920
3727,33984
3728,34048
3729,34048
3730,33984
3731,33856
3732,33856
3733,33920
3734,34048
3735,34048
3736,34112
3737,34112
3738,34176
3739,34112
3740,33984
3741,33856
3742,33792
3743,33792
3744,33856
3745,34112
3746,34432
3747,34624
3748,34688
3749,34688
3750,34688
3751,34688
3752,34752
3753,34944
3754,35072
3755,35072
3756,34944
3757,34752
3758,34624
3759,34496
3760,34368
3761,34176
3762,34048
3763,33920
3764,33600
3765,33216
3766,33024
3767,33088
3768,33216
3769,33344
3770,33472
3771,33536
3772,33536
3773,33600
3774,33664
3775,33664
3776,33664
3777,33664
3778,33536
3779,33344
3780,33280
3781,33216
3782,33152
3783,33152
3784,33472
3785,34240
3786,35520
3787,37120
3788,39104
3789,40896
3790,41472
3791,40384
3792,38272
3793,35840
3794,33600
3795,31936
3796,30848
3797,30464
3798,30656
3799,31232
3800,31616
3801,31872
3802,32128
3803,32576
3804,33024
3805,33344
3806,33472
3807,33408
3808,33408
3809,33472
3810,33536
3811,33600
3812,33728
3813,33664
3814,33536
3815,33472
3816,33536
3817,33664
3818,33728
3819,33856
3820,33920
3821,33728
3822,33600
3823,33728
3824,33856
3825,34048
3826,34176
3827,34240
3828,34240
3829,34112
3830,33984
3831,34048
3832,34176
3833,34304
3834,34432
3835,34432
3836,34304
3837,34240
3838,34368
3839,34496
3840,34624
3841,34688
3842,34752
3843,34816
3844,34816
3845,34688
3846,34560
3847,34496
3848,34560
3849,34816
3850,35072
3851,35264
3852,35392
3853,35392
3854,35328
3855,35328
3856,35200
3857,35008
3858,34688
3859,34304
3860,34048
3861,33856
3862,33792
3863,33920
3864,33856
3865,33792
3866,33728
3867,33664
3868,33536
3869,33536
3870,33536
3871,33472
3872,33344
3873,33280
3874,33408
3875,33472
3876,33536
3877,33664
3878,33792
3879,33664
3880,33600
3881,33536
3882,33600
3883,33728
3884,33728
3885,33664
3886,33536
3887,33472
3888,33536
3889,33728
3890,33920
3891,34048
3892,34048
3893,33984
3894,33856
3895,33792
3896,33920
3897,34048
3898,34048
3899,34112
3900,34176
3901,34240
3902,34176
3903,33984
3904,33984
3905,33920
3906,33920
3907,33984
3908,33984
3909,33920
3910,33920
3911,33920
3912,33984
3913,34112
3914,34176
3915,34240
3916,34304
3917,34304
3918,34112
3919,33984
3920,33856
3921,33792
3922,33792
3923,33920
3924,33920
3925,33856
3926,33920
3927,34048
3928,34240
3929,34368
3930,34432
3931,34496
3932,34496
3933,34496
3934,34496
3935,34560
3936,34560
3937,34624
3938,34880
3939,35136
3940,35456
3941,35520
3942,35584
3943,35392
3944,35008
3945,34560
3946,34176
3947,33792
3948,33472
3949,33408
3950,33344
3951,33344
3952,33344
3953,33408
3954,33408
3955,33472
3956,33600
3957,33664
3958,33664
3959,33536
3960,33472
3961,33600
3962,33728
3963,33856
3964,33920
3965,33856
3966,33728
3967,33600
3968,33536
3969,33664
3970,34304
3971,35392
3972,36928
3973,39040
3974,41152
3975,42048
3976,41216
3977,39104
3978,36416
3979,33856
3980,31936
3981,30912
3982,30528
3983,30720
3984,31104
3985,31488
3986,32000
3987,32576
3988,33024
3989,33280
3990,33408
3991,33408
3992,33280
3993,33216
3994,33408
3995,33728
3996,33920
3997,34048
3998,33984
3999,33920
4000,33856
4001,33920
4002,33984
4003,33792
4004,33664
4005,33600
4006,33472
4007,33472
4008,33536
4009,33792
4010,34048
4011,34176
4012,34304
4013,34368
4014,34368
4015,34176
4016,34048
4017,34048
4018,34176
4019,34304
4020,34560
4021,34688
4022,34688
4023,34688
4024,34752
4025,34816
4026,34880
4027,34816
4028,34752
4029,34816
4030,34816
4031,34816
4032,34880
4033,34944
4034,34944
4035,34944
4036,34944
4037,35008
4038,35008
4039,35008
4040,35008
4041,34880
4042,34816
4043,34816
4044,34752
4045,34688
4046,34624
4047,34496
4048,34304
4049,34048
4050,33856
4051,33600
4052,33408
4053,33216
4054,33152
4055,33088
4056,33216
4057,33472
4058,33728
4059,33856
4060,33920
4061,33792
4062,33728
4063,33600
4064,33536
4065,33536
4066,33600
4067,33728
4068,33856
4069,33792
4070,33792
4071,33792
4072,33856
4073,33792
4074,33728
4075,33792
4076,33792
4077,33856
4078,33984
4079,34112
4080,34112
4081,34048
4082,33856
4083,33792
4084,33856
4085,33920
4086,33920
4087,33856
4088,33920
4089,34176
4090,34304
4091,34368
4092,34368
4093,34432
4094,34496
4095,34496
4096,34432
4097,34368
4098,34368
4099,34304
4100,34304
4101,34240
4102,34176
4103,34048
4104,33856
4105,33600
4106,33472
4107,33728
4108,34112
4109,34496
4110,34688
4111,34688
4112,34752
4113,34816
4114,34880
4115,35008
4116,35136
4117,35328
4118,35392
4119,35392
4120,35328
4121,35136
4122,34880
4123,34560
4124,34240
4125,33856
4126,33664
4127,33536
4128,33408
4129,33216
4130,33088
4131,33152
4132,33408
4133,33600
4134,33728
4135,33664
4136,33536
4137,33536
4138,33472
4139,33536
4140,33856
4141,34048
4142,34048
4143,33920
4144,33728
4145,33536
4146,33536
4147,33792
4148,34752
4149,35904
4150,37696
4151,39744
4152,41280
4153,41408
4154,40064
4155,37760
4156,35328
4157,33408
4158,32064
4159,31232
4160,30848
4161,30912
4162,31296
4163,31872
4164,32256
4165,32576
4166,32768
4167,33088
4168,33280
4169,33472
4170,33600
4171,33728
4172,33920
4173,34048
4174,34048
4175,33984
4176,33984
4177,33856
4178,33664
4179,33536
4180,33536
4181,33600
4182,33600
4183,33600
4184,33600
4185,33600
4186,33600
4187,33728
4188,33920
4189,34112
4190,34240
4191,34368
4192,34496
4193,34560
4194,34432
4195,34368
4196,34432
4197,34560
4198,34688
4199,34624
4200,34624
4201,34624
4202,34624
4203,34688
4204,34752
4205,34688
4206,34624
4207,34560
4208,34560
4209,34496
4210,34560
4211,34752
4212,34752
4213,34688
4214,34688
4215,34944
4216,35200
4217,35264
4218,35264
4219,34944
4220,34688
4221,34560
4222,34496
4223,34432
4224,34304
4225,34112
4226,34048
4227,34048
4228,33984
4229,33920
4230,33728
4231,33472
4232,33216
4233,33152
4234,33152
4235,33216
4236,33280
4237,33152
4238,32960
4239,32832
4240,33152
4241,33600
4242,33984
4243,34048
4244,34112
4245,34240
4246,34176
4247,34048
4248,33856
4249,33664
4250,33600
4251,33728
4252,33920
4253,34048
4254,34112
4255,34048
4256,33984
4257,33984
4258,33984
4259,33984
4260,33856
4261,33728
4262,33792
4263,33856
4264,34048
4265,34112
4266,34176
4267,34240
4268,34240
4269,34176
4270,34048
4271,34048
4272,34112
4273,34176
4274,34176
4275,34112
4276,33984
4277,33920
4278,33920
4279,33984
4280,34112
4281,34112
4282,34048
4283,33984
4284,33984
4285,33920
4286,33856
4287,33984
4288,34112
4289,34368
4290,34560
4291,34496
4292,34624
4293,34816
4294,35072
4295,35328
4296,35456
4297,35456
4298,35200
4299,34944
4300,34688
4301,34624
4302,34560
4303,34432
4304,34176
4305,33920
4306,33664
4307,33472
4308,33408
4309,33472
4310,33536
4311,33536
4312,33664
4313,33792
4314,33792
4315,33856
4316,33856
4317,33856
4318,33792
4319,33920
4320,34112
4321,33984
4322,33792
4323,33536
4324,33408
4325,33280
4326,33408
4327,33920
4328,34048
4329,36224
4330,38080
4331,40256
4332,41536
4333,41344
4334,39680
4335,37184
4336,34688
4337,32768
4338,31552
4339,30976
4340,30720
4341,30720
4342,31104
4343,31744
4344,32512
4345,33152
4346,33536
4347,33728
4348,33728
4349,33664
4350,33472
4351,33344
4352,33344
4353,33536
4354,33536
4355,33664
4356,33664
4357,33728
4358,33856
4359,33920
4360,33984
4361,33984
4362,33984
4363,34048
4364,34112
4365,34048
4366,34048
4367,33984
4368,33984
4369,33920
4370,33984
4371,33984
4372,34112
4373,34304
4374,34304
4375,34304
4376,34304
4377,34240
4378,34368
4379,34432
4380,34560
4381,34560
4382,34496
4383,34368
4384,34368
4385,34752
4386,34944
4387,35136
4388,35136
4389,35136
4390,35136
4391,34944
4392,34944
4393,35072
4394,35200
4395,35200
4396,35136
4397,35008
4398,34816
4399,34752
4400,34752
4401,34752
4402,34688
4403,34560
4404,34368
4405,34048
4406,33856
4407,33856
4408,33920
4409,33856
4410,33856
4411,33600
4412,33408
4413,33216
4414,33216
4415,33536
4416,33728
4417,33920
4418,33920
4419,33792
4420,33728
4421,33856
4422,33984
4423,33984
4424,33920
4425,33856
4426,33856
4427,33984
4428,34048
4429,34048
4430,34048
4431,33984
4432,33920
4433,33856
4434,33728
4435,33600
4436,33664
4437,33920
4438,34176
4439,34240
4440,34240
4441,34048
4442,33792
4443,33536
4444,33472
4445,33856
4446,34176
4447,34304
4448,34304
4449,34176
4450,34048
4451,33984
4452,33984
4453,34176
4454,34368
4455,34496
4456,34496
4457,34496
4458,34368
4459,34176
4460,34048
4461,33920
4462,33856
4463,33856
4464,33856
4465,33984
4466,34112
4467,34176
4468,34112
4469,34048
4470,34176
4471,34432
4472,34624
4473,34560
4474,34432
4475,34496
4476,34624
4477,34752
4478,34816
4479,34880
4480,35072
4481,35264
4482,35328
4483,35392
4484,35264
4485,35008
4486,34688
4487,34368
4488,33984
4489,33664
4490,33536
4491,33536
4492,33536
4493,33472
4494,33408
4495,33344
4496,33472
4497,33536
4498,33664
4499,33728
4500,33728
4501,33728
4502,33728
4503,33920
4504,33856
4505,33984
4506,33792
4507,33472
4508,33024
4509,32768
4510,32832
4511,33280
4512,34368
4513,35904
4514,37824
4515,39936
4516,41472
4517,41536
4518,40064
4519,37824
4520,35584
4521,33408
4522,31872
4523,31104
4524,30912
4525,31168
4526,31552
4527,31872
4528,32256
4529,32704
4530,33024
4531,33216
4532,33280
4533,33472
4534,33536
4535,33664
4536,33792
4537,33792
4538,33664
4539,33536
4540,33472
4541,33600
4542,33792
4543,33856
4544,33856
4545,33792
4546,33728
4547,33792
4548,33792
4549,33792
4550,33856
4551,33984
4552,34240
4553,34432
4554,34496
4555,34432
4556,34368
4557,34432
4558,34432
4559,34496
4560,34432
4561,34304
4562,34240
4563,34304
4564,34496
4565,34560
4566,34624
4567,34688
4568,34816
4569,34816
4570,34752
4571,34688
4572,34560
4573,34624
4574,34880
4575,35072
4576,35200
4577,35264
4578,35328
4579,35392
4580,35456
4581,35456
4582,35136
4583,34688
4584,34176
4585,33984
4586,34048
4587,34432
4588,34624
4589,34624
4590,34432
4591,34112
4592,33792
4593,33536
4594,33408
4595,33280
4596,33216
4597,33280
4598,33408
4599,33600
4600,33728
4601,33856
4602,33984
4603,33920
4604,33856
4605,33728
4606,33600
4607,33600
4608,33728
4609,33792
4610,33728
4611,33600
4612,33472
4613,33600
4614,33792
4615,33856
4616,33920
4617,33984
4618,33984
4619,33984
4620,34048
4621,34048
4622,33984
4623,33728
4624,33728
4625,33856
4626,34112
4627,34368
4628,34496
4629,34432
4630,34240
4631,34112
4632,34112
4633,34048
4634,34112
4635,34112
4636,34112
4637,34240
4638,34304
4639,34304
4640,34240
4641,34176
4642,34048
4643,33984
4644,33984
4645,33920
4646,33920
4647,33984
4648,34112
4649,34176
4650,34176
4651,34048
4652,33856
4653,33792
4654,33856
4655,34112
4656,34432
4657,34624
4658,34688
4659,34688
4660,34688
4661,34752
4662,34816
4663,35008
4664,35264
4665,35456
4666,35584
4667,35584
4668,35328
4669,34880
4670,34624
4671,34432
4672,34176
4673,33856
4674,33536
4675,33280
4676,33216
4677,33280
4678,33408
4679,33472
4680,33472
4681,33280
4682,33152
4683,33152
4684,33344
4685,33600
4686,33920
4687,34176
4688,34240
4689,34240
4690,34048
4691,33792
4692,33344
4693,32832
4694,32640
4695,32960
4696,33792
4697,35072
4698,36736
4699,39040
4700,40960
4701,41984
4702,41152
4703,39168
4704,36480
4705,33984
4706,32064
4707,31040
4708,30592
4709,30656
4710,30976
4711,31552
4712,32064
4713,32576
4714,33024
4715,33280
4716,33472
4717,33600
4718,33600
4719,33600
4720,33600
4721,33792
4722,33856
4723,33856
4724,33920
4725,33792
4726,33664
4727,33664
4728,33728
4729,33792
4730,33856
4731,33728
4732,33664
4733,33792
4734,33920
4735,34176
4736,34368
4737,34496
4738,34432
4739,34304
4740,34112
4741,34048
4742,34112
4743,34240
4744,34240
4745,34240
4746,34368
4747,34496
4748,34560
4749,34624
4750,34688
4751,34688
4752,34816
4753,34944
4754,35008
4755,35008
4756,34944
4757,35008
4758,35008
4759,35072
4760,35200
4761,35200
4762,35072
4763,35072
4764,35072
4765,35008
4766,34880
4767,34816
4768,34752
4769,34560
4770,34432
4771,34432
4772,34432
4773,34368
4774,34368
4775,34304
4776,34240
4777,34112
4778,33984
4779,33792
4780,33664
4781,33536
4782,33408
4783,33280
4784,33280
4785,33344
4786,33344
4787,33344
4788,33408
4789,33600
4790,33792
4791,33984
4792,34112
4793,34048
4794,33920
4795,33792
4796,33856
4797,33856
4798,33856
4799,33856
4800,33920
4801,33984
4802,33984
4803,34048
4804,34112
4805,34048
4806,33856
4807,33664
4808,33728
4809,33856
4810,33920
4811,33984
4812,34112
4813,34304
4814,34304
4815,34304
4816,34368
4817,34432
4818,34560
4819,34560
4820,34432
4821,34304
4822,34304
4823,34240
4824,34176
4825,34240
4826,34368
4827,34304
4828,34240
4829,34240
4830,34304
4831,34304
4832,34240
4833,34176
4834,34176
4835,34048
4836,33984
4837,34048
4838,34048
4839,33984
4840,33920
4841,33920
4842,34176
4843,34496
4844,34560
4845,34688
4846,34752
4847,34688
4848,34560
4849,34560
4850,34816
4851,35264
4852,35584
4853,35648
4854,35648
4855,35648
4856,35520
4857,35392
4858,35136
4859,34944
4860,34624
4861,34304
4862,34112
4863,33856
4864,33600
4865,33600
4866,33664
4867,33792
4868,33920
4869,34048
4870,34048
4871,33856
4872,33600
4873,33472
4874,33600
4875,33856
4876,33984
4877,34048
4878,34048
4879,33984
4880,33920
4881,33664
4882,33536
4883,33472
4884,33664
4885,34368
4886,35456
4887,37056
4888,39104
4889,41088
4890,41856
4891,41088
4892,39232
4893,36864
4894,34496
4895,32640
4896,31552
4897,31040
4898,31104
4899,31424
4900,31936
4901,32384
4902,32640
4903,32704
4904,32960
4905,33280
4906,33536
4907,33728
4908,33920
4909,34048
4910,34112
4911,34112
4912,33984
4913,33920
4914,33920
4915,33984
4916,34112
4917,34176
4918,34048
4919,33984
4920,33984
4921,34112
4922,34176
4923,34240
4924,34240
4925,34368
4926,34496
4927,34560
4928,34560
4929,34496
4930,34432
4931,34496
4932,34496
4933,34560
4934,34496
4935,34304
4936,34240
4937,34368
4938,34496
4939,34752
4940,34944
4941,35072
4942,34944
4943,34880
4944,35072
4945,35328
4946,35520
4947,35520
4948,35392
4949,35264
4950,35264
4951,35200
4952,35072
4953,35072
4954,35200
4955,35328
4956,35328
4957,35136
4958,35008
4959,34752
4960,34432
4961,34240
4962,34240
4963,34304
4964,34304
4965,34176
4966,34176
4967,34176
4968,34112
4969,33984
4970,33856
4971,33728
4972,33664
4973,33600
4974,33600
4975,33664
4976,33600
4977,33472
4978,33600
4979,33792
4980,33920
4981,33984
4982,34048
4983,34048
4984,33984
4985,33920
4986,33984
4987,34112
4988,34176
4989,34240
4990,34176
4991,33984
4992,33792
4993,33664
4994,33728
4995,33920
4996,34048
4997,34240
4998,34496
4999,34688
5000,34688
5001,34688
5002,34624
5003,34624
5004,34560
5005,34560
5006,34432
5007,34304
5008,34304
5009,34432
5010,34304
5011,34112
5012,33984
5013,34048
5014,34176
5015,34304
5016,34432
5017,34432
5018,34368
5019,34240
5020,34176
5021,34176
5022,34240
5023,34368
5024,34368
5025,34240
5026,34048
5027,33856
5028,33856
5029,33856
5030,33984
5031,34112
5032,34176
5033,34176
5034,34176
5035,34240
5036,34368
5037,34560
5038,34752
5039,34816
5040,34816
5041,34560
5042,34368
5043,34560
5044,34944
5045,35264
5046,35456
5047,35712
5048,35776
5049,35712
5050,35520
5051,35264
5052,35008
5053,34752
5054,34368
5055,34112
5056,33920
5057,33792
5058,33792
5059,33856
5060,33856
5061,33920
5062,33920
5063,33792
5064,33664
5065,33600
5066,33600
5067,33664
5068,33728
5069,33792
5070,33920
5071,33920
5072,33920
5073,33792
5074,33344
5075,33024
5076,33024
5077,33408
5078,34176
5079,35456
5080,37120
5081,39168
5082,41344
5083,42432
5084,41856
5085,39744
5086,36800
5087,34048
5088,32128
5089,31168
5090,30976
5091,31104
5092,31616
5093,31872
5094,32192
5095,32576
5096,32896
5097,33280
5098,33472
5099,33536
5100,33536
5101,33408
5102,33408
5103,33408
5104,33600
5105,33728
5106,33856
5107,33920
5108,33856
5109,33856
5110,33856
5111,33920
5112,33920
5113,34048
5114,34112
5115,34112
5116,34176
5117,34240
5118,34240
5119,34176
5120,34112
5121,34112
5122,34176
5123,34240
5124,34240
5125,34176
5126,33984
5127,34048
5128,34368
5129,34688
5130,34944
5131,34944
5132,34944
5133,35008
5134,35136
5135,35072
5136,35008
5137,34944
5138,34880
5139,34880
5140,35008
5141,35200
5142,35264
5143,35264
5144,35200
5145,35136
5146,35200
5147,35264
5148,35328
5149,35264
5150,35072
5151,34944
5152,34752
5153,34496
5154,34176
5155,33856
5156,33792
5157,33920
5158,33984
5159,33984
5160,33920
5161,33856
5162,33792
5163,33728
5164,33728
5165,33792
5166,33664
5167,33408
5168,33344
5169,33280
5170,33344
5171,33536
5172,33664
5173,33792
5174,33792
5175,33792
5176,33664
5177,33600
5178,33664
5179,33728
5180,33792
5181,33792
5182,33664
5183,33600
5184,33600
5185,33536
5186,33600
5187,33728
5188,33856
5189,34048
5190,34240
5191,34368
5192,34496
5193,34432
5194,34368
5195,34176
5196,34048
5197,33984
5198,33920
5199,33792
5200,33728
5201,33664
5202,33856
5203,34176
5204,34304
5205,34240
5206,34112
5207,34112
5208,34048
5209,34112
5210,34240
5211,34304
5212,34240
5213,34176
5214,34048
5215,33920
5216,33984
5217,34112
5218,34112
5219,34112
5220,34048
5221,33984
5222,33856
5223,33920
5224,34048
5225,34112
5226,34304
5227,34432
5228,34432
5229,34432
5230,34368
5231,34432
5232,34560
5233,34688
5234,34688
5235,34624
5236,34560
5237,34560
5238,34688
5239,34944
5240,35136
5241,35136
5242,35072
5243,35008
5244,34816
5245,34688
5246,34752
5247,34816
5248,34752
5249,34560
5250,34368
5251,34112
5252,33920
5253,33792
5254,33728
5255,33600
5256,33408
5257,33344
5258,33408
5259,33536
5260,33664
5261,33792
5262,33856
5263,33856
5264,33856
5265,33920
5266,33984
5267,33920
5268,33856
5269,33600
5270,33344
5271,33216
5272,33856
5273,34560
5274,35968
5275,37888
5276,40128
5277,41792
5278,41856
5279,40448
5280,38080
5281,35456
5282,33088
5283,31488
5284,30784
5285,30656
5286,30976
5287,31424
5288,31808
5289,32256
5290,32576
5291,32960
5292,33344
5293,33536
5294,33664
5295,33600
5296,33536
5297,33664
5298,33792
5299,33920
5300,33856
5301,33856
5302,33856
5303,33792
5304,33792
5305,33664
5306,33536
5307,33600
5308,33728
5309,33984
5310,34048
5311,34112
5312,34112
5313,34048
5314,33984
5315,33920
5316,33920
5317,34048
5318,34112
5319,34176
5320,34176
5321,34240
5322,34432
5323,34560
5324,34560
5325,34560
5326,34560
5327,34624
5328,34752
5329,34816
5330,34816
5331,34944
5332,35008
5333,35008
5334,35008
5335,35008
5336,34880
5337,34752
5338,34688
5339,34752
5340,34944
5341,35072
5342,35008
5343,34816
5344,34688
5345,34688
5346,34752
5347,34816
5348,34752
5349,34624
5350,34496
5351,34368
5352,34176
5353,34048
5354,33984
5355,33664
5356,33344
5357,33216
5358,33280
5359,33344
5360,33472
5361,33600
5362,33600
5363,33600
5364,33664
5365,33664
5366,33664
5367,33600
5368,33536
5369,33536
5370,33472
5371,33536
5372,33664
5373,33728
5374,33856
5375,33856
5376,33792
5377,33920
5378,33920
5379,33920
5380,33920
5381,33984
5382,34048
5383,34112
5384,34112
5385,34048
5386,34048
5387,34048
5388,34112
5389,34048
5390,33984
5391,33984
5392,33984
5393,33920
5394,33984
5395,34048
5396,34048
5397,34112
5398,34176
5399,34112
5400,34048
5401,34048
5402,34176
5403,34176
5404,34176
5405,34112
5406,34048
5407,34112
5408,34112
5409,34176
5410,34176
5411,33984
5412,33920
5413,34048
5414,34240
5415,34432
5416,34560
5417,34624
5418,34752
5419,34944
5420,35008
5421,35072
5422,35072
5423,35008
5424,35072
5425,35072
5426,35008
5427,34816
5428,34688
5429,34560
5430,34368
5431,34240
5432,34048
5433,33792
5434,33600
5435,33536
5436,33536
5437,33664
5438,33664
5439,33792
5440,33792
5441,33728
5442,33728
5443,33856
5444,33920
5445,33984
5446,33984
5447,34176
5448,34176
5449,33856
5450,33472
5451,33216
5452,33280
5453,33664
5454,34496
5455,35712
5456,37312
5457,39360
5458,41216
5459,41856
5460,40960
5461,39104
5462,36864
5463,34624
5464,32704
5465,31488
5466,30976
5467,31040
5468,31296
5469,31744
5470,32320
5471,32768
5472,33088
5473,33280
5474,33472
5475,33600
5476,33600
5477,33536
5478,33536
5479,33664
5480,33728
5481,33792
5482,33856
5483,33792
5484,33856
5485,33856
5486,33856
5487,33728
5488,33600
5489,33472
5490,33600
5491,33856
5492,34112
5493,34304
5494,34496
5495,34560
5496,34624
5497,34688
5498,34560
5499,34432
5500,34496
5501,34624
5502,34624
5503,34560
5504,34432
5505,34368
5506,34240
5507,34176
5508,34304
5509,34432
5510,34624
5511,34816
5512,35136
5513,35136
5514,35136
5515,35072
5516,35008
5517,34944
5518,34816
5519,34816
5520,34944
5521,35008
5522,35008
5523,35008
5524,35008
5525,34944
5526,34944
5527,34880
5528,34752
5529,34560
5530,34304
5531,34176
5532,34112
5533,34048
5534,33984
5535,33728
5536,33472
5537,33280
5538,33280
5539,33344
5540,33536
5541,33600
5542,33728
5543,33728
5544,33792
5545,33792
5546,33792
5547,33792
5548,33728
5549,33664
5550,33536
5551,33472
5552,33664
5553,33856
5554,33984
5555,33984
5556,34048
5557,34048
5558,34048
5559,33984
5560,33920
5561,33856
5562,33856
5563,33920
5564,33920
5565,33920
5566,33920
5567,33920
5568,33920
5569,33920
5570,33664
5571,33408
5572,33408
5573,33600
5574,33920
5575,34176
5576,34368
5577,34432
5578,34432
5579,34432
5580,34368
5581,34176
5582,34112
5583,34176
5584,34240
5585,34176
5586,33984
5587,33920
5588,33792
5589,33728
5590,33920
5591,34304
5592,34560
5593,34624
5594,34688
5595,34688
5596,34752
5597,34816
5598,34944
5599,35200
5600,35328
5601,35456
5602,35392
5603,35136
5604,34880
5605,34624
5606,34432
5607,34304
5608,34112
5609,33920
5610,33856
5611,33792
5612,33664
5613,33536
5614,33408
5615,33280
5616,33216
5617,33216
5618,33344
5619,33600
5620,33920
5621,34176
5622,34304
5623,34304
5624,34176
5625,33984
5626,33792
5627,33472
5628,33216
5629,33216
5630,33472
5631,34048
5632,35136
5633,36672
5634,38528
5635,40576
5636,41664
5637,41344
5638,39744
5639,37504
5640,35136
5641,33024
5642,31616
5643,30912
5644,30784
5645,30976
5646,31360
5647,31744
5648,32192
5649,32704
5650,33280
5651,33600
5652,33792
5653,33856
5654,33856
5655,33856
5656,33728
5657,33664
5658,33728
5659,33728
5660,33792
5661,33920
5662,33984
5663,33984
5664,33984
5665,33920
5666,33856
5667,33856
5668,33728
5669,33600
5670,33600
5671,33920
5672,34368
5673,34688
5674,34688
5675,34560
5676,34432
5677,34432
5678,34496
5679,34560
5680,34560
5681,34496
5682,34432
5683,34432
5684,34496
5685,34432
5686,34496
5687,34624
5688,34688
5689,34752
5690,34752
5691,34752
5692,34880
5693,35136
5694,35392
5695,35456
5696,35392
5697,35328
5698,35264
5699,35264
5700,35200
5701,35072
5702,34944
5703,34880
5704,34816
5705,34816
5706,34688
5707,34496
5708,34304
5709,34048
5710,33984
5711,33984
5712,33920
5713,33856
5714,33792
5715,33600
5716,33280
5717,33088
5718,33024
5719,33216
5720,33536
5721,33920
5722,34048
5723,34112
5724,34176
5725,34112
5726,34048
5727,33984
5728,33856
5729,33856
5730,33984
5731,33984
5732,33920
5733,33856
5734,33728
5735,33792
5736,33856
5737,33856
5738,33792
5739,33728
5740,33792
5741,33984
5742,34240
5743,34176
5744,33984
5745,33920
5746,34112
5747,34176
5748,34176
5749,34048
5750,34048
5751,34048
5752,34048
5753,34112
5754,34176
5755,34240
5756,34240
5757,34176
5758,34176
5759,34176
5760,34240
5761,34240
5762,34240
5763,34240
5764,34304
5765,34240
5766,34176
5767,34176
5768,34176
5769,34112
5770,34112
5771,34240
5772,34432
5773,34752
5774,34944
5775,35008
5776,35136
5777,35200
5778,35136
5779,35008
5780,35072
5781,35072
5782,34880
5783,34624
5784,34304
5785,33920
5786,33664
5787,33408
5788,33280
5789,33280
5790,33216
5791,33344
5792,33472
5793,33600
5794,33600
5795,33600
5796,33536
5797,33472
5798,33600
5799,33664
5800,33664
5801,33664
5802,33728
5803,33792
5804,33792
5805,33664
5806,33536
5807,33536
5808,33984
5809,34880
5810,36288
5811,38208
5812,40384
5813,41728
5814,41664
5815,40064
5816,37568
5817,35008
5818,32960
5819,31488
5820,30784
5821,30592
5822,30784
5823,31104
5824,31616
5825,32064
5826,32512
5827,33088
5828,33536
5829,33792
5830,33792
5831,33728
5832,33600
5833,33536
5834,33536
5835,33664
5836,33728
5837,33792
5838,33792
5839,33856
5840,33920
5841,33984
5842,34048
5843,34112
5844,34112
5845,34048
5846,34048
5847,34048
5848,34048
5849,33984
5850,33984
5851,33920
5852,33856
5853,33920
5854,34112
5855,34368
5856,34496
5857,34496
5858,34432
5859,34304
5860,34176
5861,34240
5862,34432
5863,34560
5864,34496
5865,34496
5866,34752
5867,35072
5868,35328
5869,35456
5870,35392
5871,35200
5872,35072
5873,35008
5874,35072
5875,35136
5876,35136
5877,35072
5878,34944
5879,34816
5880,34752
5881,34752
5882,34624
5883,34368
5884,34112
5885,33984
5886,33984
5887,33984
5888,33984
5889,34048
5890,33984
5891,33920
5892,33792
5893,33728
5894,33664
5895,33600
5896,33536
5897,33472
5898,33344
5899,33280
5900,33344
5901,33472
5902,33536
5903,33600
5904,33600
5905,33664
5906,33664
5907,33472
5908,33344
5909,33536
5910,33856
5911,34048
5912,34112
5913,33984
5914,33984
5915,34048
5916,34176
5917,34304
5918,34368
5919,34304
5920,34112
5921,33920
5922,33856
5923,33920
5924,33856
5925,33792
5926,33728
5927,33792
5928,33920
5929,34112
5930,34176
5931,34176
5932,34176
5933,34304
5934,34432
5935,34496
5936,34432
5937,34304
5938,34240
5939,34112
5940,33984
5941,33984
5942,34176
5943,34496
5944,34688
5945,34688
5946,34752
5947,34816
5948,34880
5949,34944
5950,35072
5951,35264
5952,35520
5953,35584
5954,35520
5955,35328
5956,35072
5957,34816
5958,34752
5959,34560
5960,34176
5961,33856
5962,33536
5963,33408
5964,33536
5965,33600
5966,33536
5967,33472
5968,33536
5969,33728
5970,33856
5971,33856
5972,33920
5973,33920
5974,33920
5975,33856
5976,33728
5977,33728
5978,33728
5979,33600
5980,33408
5981,33344
5982,33408
5983,33792
5984,34624
5985,35904
5986,37632
5987,39808
5988,41664
5989,42048
5990,40896
5991,38528
5992,35840
5993,33344
5994,31616
5995,30784
5996,30656
5997,31040
5998,31680
5999,32320
6000,32896
6001,33216
6002,33280
6003,33280
6004,33408
6005,33600
6006,33664
6007,33664
6008,33600
6009,33600
6010,33664
6011,33664
6012,33728
6013,33856
6014,33984
6015,33920
6016,33856
6017,33920
6018,33984
6019,34048
6020,34048
6021,34112
6022,34176
6023,34176
6024,34176
6025,34240
6026,34240
6027,34112
6028,33984
6029,34048
6030,34176
6031,34368
6032,34496
6033,34560
6034,34624
6035,34880
6036,35008
6037,35072
6038,35136
6039,35072
6040,34944
6041,34880
6042,34880
6043,35008
6044,35072
6045,35072
6046,35072
6047,35136
6048,35264
6049,35264
6050,35200
6051,35072
6052,35008
6053,35008
6054,34944
6055,34816
6056,34688
6057,34624
6058,34560
6059,34368
6060,34304
6061,34304
6062,34240
6063,34112
6064,34048
6065,34048
6066,34048
6067,33920
6068,33792
6069,33792
6070,33728
6071,33728
6072,33792
6073,33792
6074,33664
6075,33536
6076,33408
6077,33344
6078,33408
6079,33728
6080,34048
6081,34176
6082,34112
6083,33984
6084,33920
6085,33856
6086,33856
6087,33984
6088,34112
6089,34240
6090,34304
6091,34368
6092,34368
6093,34304
6094,34240
6095,34240
6096,34176
6097,33984
6098,33984
6099,34112
6100,34304
6101,34432
6102,34496
6103,34368
6104,34176
6105,34368
6106,34624
6107,34752
6108,34816
6109,34752
6110,34688
6111,34560
6112,34496
6113,34304
6114,34112
6115,34048
6116,34048
6117,34112
6118,34304
6119,34496
6120,34560
6121,34560
6122,34432
6123,34432
6124,34496
6125,34432
6126,34304
6127,34304
6128,34432
6129,34752
6130,34944
6131,34944
6132,35008
6133,35008
6134,35008
6135,35200
6136,35392
6137,35648
6138,35840
6139,35904
6140,35776
6141,35200
6142,34816
6143,34432
6144,33920
6145,33664
6146,33792
6147,33920
6148,33984
6149,33984
6150,33920
6151,33856
6152,33792
6153,33984
6154,34112
6155,34048
6156,34176
6157,34304
6158,34240
6159,34240
6160,34176
6161,34176
6162,34176
6163,33920
6164,33600
6165,33408
6166,33472
6167,33920
6168,34880
6169,36480
6170,36480
6171,40896
6172,42240
6173,41920
6174,40000
6175,37568
6176,35136
6177,33152
6178,31872
6179,31232
6180,31232
6181,31424
6182,31808
6183,32384
6184,32384
6185,33216
6186,33408
6187,33536
6188,33664
6189,33664
6190,33664
6191,33664
6192,33728
6193,33728
6194,33792
6195,33920
6196,33984
6197,33920
6198,33856
6199,33856
6200,33856
6201,34048
6202,34240
6203,34176
6204,34432
6205,34368
6206,34368
6207,34368
6208,34496
6209,34560
6210,34496
6211,34432
6212,34368
6213,34368
6214,34432
6215,34368
6216,34688
6217,34752
6218,34688
6219,34752
6220,34944
6221,35072
6222,35008
6223,34752
6224,34688
6225,34944
6226,35200
6227,35392
6228,35392
6229,35328
6230,35200
6231,35328
6232,35520
6233,35648
6234,35520
6235,35456
6236,35392
6237,35392
6238,35392
6239,35264
6240,35136
6241,35008
6242,34944
6243,34944
6244,34880
6245,34688
6246,34112
6247,33920
6248,33856
6249,34048
6250,34112
6251,34048
6252,33984
6253,33984
6254,33920
6255,33856
6256,33856
6257,33792
6258,33728
6259,33664
6260,33728
6261,33792
6262,33856
6263,33984
6264,33984
6265,33920
6266,33792
6267,33792
6268,33984
6269,34176
6270,34304
6271,34368
6272,34240
6273,34112
6274,33984
6275,33920
6276,33984
6277,34112
6278,34176
6279,34240
6280,34176
6281,34112
6282,34112
6283,34176
6284,34112
6285,34048
6286,34112
6287,34176
6288,34240
6289,34240
6290,34240
6291,34176
6292,34112
6293,34048
6294,33984
6295,34048
6296,34048
6297,34112
6298,33984
6299,33792
6300,33792
6301,34112
6302,34432
6303,34560
6304,34560
6305,34560
6306,34368
6307,34240
6308,34112
6309,34048
6310,34112
6311,34176
6312,34304
6313,34432
6314,34432
6315,34240
6316,34240
6317,34304
6318,34432
6319,34624
6320,34560
6321,35008
6322,35072
6323,35072
6324,35136
6325,35328
6326,35456
6327,35520
6328,35392
6329,35136
6330,34944
6331,34816
6332,34560
6333,34176
6334,33792
6335,33600
6336,33600
6337,33792
6338,33856
6339,33920
6340,34048
6341,34112
6342,34112
6343,34112
6344,33920
6345,33728
6346,33600
6347,33664
6348,33728
6349,33984
6350,33920
6351,33984
6352,33792
6353,33344
6354,32960
6355,32768
6356,33024
6357,33920
6358,35328
6359,37120
6360,39168
6361,41344
6362,42432
6363,41664
6364,39232
6365,39040
6366,34368
6367,32384
6368,31360
6369,30848
6370,30784
6371,30912
6372,31232
6373,31616
6374,32192
6375,32832
6376,33280
6377,33600
6378,33728
6379,33728
6380,33664
6381,33664
6382,33728
6383,33792
6384,33920
6385,34048
6386,34112
6387,34112
6388,34240
6389,34304
6390,34240
6391,34112
6392,34048
6393,34048
6394,34048
6395,34048
6396,34240
6397,34368
6398,34560
6399,34560
6400,34496
6401,34432
6402,34496
6403,34688
6404,34816
6405,34752
6406,34624
6407,34624
6408,34880
6409,35072
6410,35008
6411,35200
6412,35328
6413,35392
6414,35456
6415,35520
6416,35648
6417,35712
6418,35648
6419,35520
6420,35392
6421,35520
6422,35840
6423,36032
6424,36032
6425,35904
6426,35840
6427,35712
6428,35520
6429,35328
6430,35072
6431,34816
6432,34688
6433,34752
6434,34880
6435,34816
6436,34432
6437,34048
6438,33920
6439,33920
6440,33856
6441,33856
6442,33792
6443,33792
6444,33856
6445,34048
6446,34048
6447,33856
6448,33472
6449,33024
6450,32960
6451,33344
6452,33856
6453,34176
6454,34048
6455,33728
6456,33792
6457,34112
6458,34368
6459,34560
6460,34432
6461,34240
6462,34176
6463,34240
6464,34240
6465,34112
6466,33984
6467,34048
6468,34176
6469,34240
6470,34176
6471,34240
6472,34240
6473,34368
6474,34496
6475,34368
6476,34112
6477,33920
6478,33792
6479,33856
6480,33984
6481,34176
6482,34368
6483,34432
6484,34432
6485,34368
6486,34112
6487,33856
6488,33792
6489,33920
6490,34240
6491,34624
6492,34880
6493,34816
6494,34368
6495,33920
6496,33728
6497,33920
6498,34240
6499,34368
6500,34304
6501,34240
6502,34176
6503,34048
6504,33856
6505,33664
6506,33600
6507,33792
6508,33920
6509,34432
6510,35008
6511,35456
6512,35392
6513,35072
6514,34752
6515,34816
6516,35072
6517,35328
6518,35456
6519,35200
6520,34688
6521,34432
6522,34368
6523,33984
6524,33472
6525,33344
6526,32960
6527,32704
6528,33088
6529,33536
6530,33792
6531,33664
6532,33152
6533,32384
6534,32064
6535,32128
6536,32832
6537,33600
6538,34048
6539,34240
6540,34240
6541,34176
6542,34240
6543,34176
6544,33792
6545,33408
6546,33216
6547,33024
6548,33152
6549,34048
6550,35584
6551,37696
6552,40064
6553,41920
6554,42240
6555,40896
6556,38528
6557,35968
6558,33600
6559,31744
6560,30656
6561,30336
6562,30464
6563,30848
6564,31488
6565,32064
6566,32512
6567,32704
6568,32768
6569,32960
6570,33280
6571,33536
6572,33728
6573,33856
6574,33792
6575,33600
6576,33536
6577,33600
6578,33728
6579,33856
6580,33856
6581,33856
6582,33984
6583,34112
6584,34176
6585,34176
6586,34240
6587,34304
6588,34304
6589,34304
6590,34240
6591,34304
6592,34240
6593,34112
6594,34176
6595,34240
6596,34304
6597,34368
6598,34560
6599,34752
6600,34880
6601,34880
6602,34816
6603,34752
6604,34688
6605,34624
6606,34816
6607,35008
6608,35200
6609,35264
6610,35072
6611,34816
6612,34880
6613,35136
6614,35328
6615,35392
6616,35520
6617,35648
6618,35520
6619,35264
6620,35264
6621,35392
6622,35392
6623,35200
6624,34944
6625,34688
6626,34496
6627,34240
6628,33856
6629,33536
6630,33344
6631,33280
6632,33280
6633,33280
6634,33600
6635,34176
6636,34624
6637,34176
6638,33408
6639,32768
6640,32512
6641,32576
6642,32448
6643,32064
6644,32192
6645,32640
6646,33152
6647,33664
6648,34112
6649,34304
6650,34432
6651,34304
6652,33984
6653,33792
6654,33792
6655,33856
6656,34176
6657,34176
6658,34048
6659,34304
6660,34304
6661,34112
6662,33920
6663,33920
6664,33856
6665,33536
6666,33344
6667,33216
6668,33152
6669,33280
6670,33728
6671,34176
6672,34496
6673,34368
6674,34048
6675,34048
6676,34368
6677,34688
6678,34752
6679,34368
6680,33984
6681,33664
6682,33600
6683,33728
6684,33920
6685,33920
6686,33920
6687,33920
6688,33920
6689,34112
6690,34240
6691,34368
6692,34496
6693,34624
6694,34560
6695,34496
6696,34368
6697,33984
6698,33792
6699,33984
6700,34496
6701,34688
6702,34496
6703,34112
6704,33984
6705,33984
6706,34048
6707,34304
6708,34496
6709,34624
6710,34752
6711,34880
6712,34880
6713,34752
6714,34624
6715,34496
6716,34240
6717,33920
6718,33728
6719,33728
6720,33856
6721,33920
6722,33856
6723,33600
6724,33472
6725,33408
6726,33344
6727,33152
6728,33152
6729,33216
6730,33216
6731,33280
6732,33344
6733,33472
6734,33664
6735,33536
6736,33280
6737,33152
6738,33280
6739,33664
6740,34560
6741,35968
6742,38208
6743,40256
6744,41728
6745,41728
6746,40192
6747,37952
6748,35584
6749,33472
6750,31936
6751,31040
6752,30784
6753,30912
6754,31296
6755,31872
6756,32448
6757,32768
6758,33088
6759,33216
6760,33216
6761,33216
6762,33216
6763,33408
6764,33536
6765,33664
6766,33664
6767,33728
6768,33728
6769,33728
6770,33664
6771,33664
6772,33792
6773,33856
6774,33920
6775,33984
6776,33984
6777,33984
6778,34112
6779,34368
6780,34496
6781,34496
6782,34432
6783,34304
6784,34112
6785,33920
6786,33984
6787,34240
6788,34432
6789,34560
6790,34560
6791,34560
6792,34496
6793,34496
6794,34560
6795,34368
6796,34496
6797,34816
6798,35072
6799,35264
6800,35392
6801,35456
6802,35328
6803,35200
6804,35072
6805,35008
6806,35008
6807,34944
6808,34944
6809,34944
6810,34944
6811,34816
6812,34688
6813,34496
6814,34432
6815,34176
6816,33856
6817,33600
6818,33728
6819,33920
6820,34112
6821,34176
6822,34176
6823,34048
6824,33728
6825,33536
6826,33344
6827,33216
6828,33152
6829,33280
6830,33344
6831,33472
6832,33664
6833,33792
6834,33920
6835,33856
6836,33664
6837,33536
6838,33536
6839,33600
6840,33664
6841,33792
6842,33792
6843,33664
6844,33664
6845,33728
6846,33792
6847,33856
6848,33664
6849,33472
6850,33472
6851,33536
6852,33728
6853,33920
6854,34176
6855,34368
6856,34432
6857,34368
6858,34304
6859,34112
6860,33920
6861,33856
6862,33792
6863,33728
6864,33664
6865,33728
6866,33792
6867,33920
6868,33856
6869,33920
6870,34176
6871,34368
6872,34304
6873,34112
6874,33984
6875,33984
6876,34112
6877,33792
6878,33344
6879,33408
6880,33984
6881,34560
6882,34816
6883,34944
6884,35008
6885,35136
6886,35328
6887,35456
6888,35520
6889,35456
6890,35264
6891,34944
6892,34496
6893,34240
6894,33984
6895,33856
6896,33792
6897,33856
6898,33792
6899,33792
6900,33664
6901,33408
6902,33280
6903,33472
6904,33664
6905,33792
6906,33856
6907,34048
6908,34112
6909,34112
6910,34048
6911,33984
6912,33856
6913,33792
6914,33536
6915,33280
6916,33216
6917,33472
6918,34112
6919,35328
6920,36992
6921,39168
6922,41216
6923,42048
6924,41344
6925,39360
6926,36928
6927,34688
6928,32832
6929,31552
6930,30976
6931,30912
6932,30976
6933,31360
6934,31744
6935,32000
6936,32320
6937,32960
6938,33344
6939,33728
6940,34048
6941,34048
6942,33792
6943,33728
6944,33728
6945,33792
6946,33792
6947,33664
6948,33536
6949,33472
6950,33472
6951,33664
6952,33920
6953,33984
6954,34048
6955,34112
6956,34176
6957,34112
6958,34048
6959,33984
6960,34048
6961,34048
6962,34048
6963,33792
6964,33664
6965,33856
6966,34368
6967,34816
6968,35008
6969,35008
6970,34944
6971,34816
6972,34880
6973,34944
6974,35072
6975,35200
6976,35200
6977,35200
6978,35264
6979,35200
6980,35008
6981,34688
6982,34560
6983,34560
6984,34624
6985,34624
6986,34624
6987,34880
6988,35328
6989,35584
6990,35520
6991,35328
6992,35136
6993,35072
6994,34880
6995,34624
6996,34368
6997,34176
6998,34112
6999,33920
7000,33728
7001,33536
7002,33344
7003,33408
7004,33536
7005,33472
7006,33280
7007,33152
7008,33280
7009,33344
7010,33408
7011,33408
7012,33536
7013,33600
7014,33664
7015,33856
7016,33920
7017,33856
7018,33600
7019,33408
7020,33472
7021,33728
7022,33728
7023,33664
7024,33920
7025,34112
7026,34240
7027,34240
7028,34304
7029,34432
7030,34368
7031,34368
7032,34368
7033,34432
7034,34368
7035,34304
7036,34176
7037,34176
7038,34112
7039,34048
7040,33984
7041,34048
7042,34112
7043,34240
7044,34240
7045,34112
7046,34112
7047,34176
7048,34176
7049,33984
7050,33920
7051,33856
7052,33984
7053,34240
7054,34560
7055,34624
7056,34368
7057,33984
7058,33920
7059,34048
7060,34048
7061,33920
7062,33728
7063,33792
7064,33728
7065,33536
7066,33792
7067,34304
7068,34368
7069,33856
7070,34304
7071,35136
7072,35328
7073,35136
7074,35264
7075,35456
7076,35136
7077,34432
7078,34240
7079,34304
7080,34560
7081,35008
7082,35200
7083,35328
7084,35264
7085,35008
7086,34688
7087,34112
7088,33600
7089,32960
7090,32384
7091,32064
7092,32320
7093,33088
7094,33600
7095,33536
7096,33024
7097,33024
7098,34048
7099,35200
7100,35456
7101,35264
7102,34752
7103,34304
7104,33664
7105,33408
7106,33856
7107,35008
7108,36544
7109,38592
7110,40896
7111,42240
7112,41984
7113,40256
7114,37696
7115,35008
7116,33088
7117,32128
7118,31296
7119,30656
7120,30976
7121,31488
7122,31424
7123,31488
7124,31744
7125,32000
7126,32128
7127,32384
7128,32640
7129,33024
7130,33344
7131,33408
7132,33536
7133,33920
7134,34176
7135,34304
7136,34176
7137,33984
7138,33856
7139,33792
7140,33728
7141,33600
7142,33600
7143,33728
7144,33920
7145,34240
7146,34432
7147,34176
7148,34048
7149,34304
7150,34624
7151,34880
7152,34816
7153,34688
7154,34624
7155,34752
7156,34752
7157,34496
7158,34176
7159,33984
7160,34048
7161,34368
7162,34688
7163,34816
7164,35008
7165,35264
7166,35648
7167,35840
7168,35968
7169,35968
7170,35776
7171,35712
7172,35712
7173,35712
7174,35712
7175,35520
7176,35200
7177,34752
7178,34688
7179,34944
7180,34944
7181,34816
7182,34560
7183,34176
7184,33856
7185,33600
7186,33472
7187,33472
7188,33472
7189,33408
7190,33280
7191,33152
7192,33152
7193,33088
7194,32960
7195,32832
7196,32896
7197,33024
7198,33088
7199,33152
7200,33152
7201,33216
7202,33344
7203,33472
7204,33664
7205,33728
7206,33728
7207,33728
7208,33664
7209,33664
7210,33664
7211,33664
7212,33728
7213,33792
7214,33856
7215,33856
7216,33664
7217,33472
7218,33408
7219,33536
7220,33600
7221,33536
7222,33344
7223,33344
7224,33408
7225,33664
7226,34112
7227,34624
7228,34816
7229,34880
7230,34816
7231,34688
7232,34560
7233,34304
7234,34048
7235,33792
7236,33664
7237,33728
7238,33792
7239,33728
7240,33664
7241,33664
7242,33728
7243,33856
7244,34048
7245,34304
7246,34432
7247,34432
7248,34496
7249,34560
7250,34560
7251,34176
7252,33664
7253,33664
7254,33920
7255,34432
7256,35200
7257,35968
7258,36096
7259,35904
7260,35648
7261,35264
7262,34944
7263,34752
7264,34432
7265,34048
7266,33472
7267,32960
7268,32960
7269,32896
7270,32960
7271,33088
7272,33088
7273,33088
7274,32960
7275,32960
7276,33216
7277,33472
7278,33344
7279,33216
7280,33024
7281,32832
7282,32704
7283,32768
7284,33216
7285,33472
7286,33536
7287,33600
7288,33984
7289,34944
7290,36352
7291,38144
7292,40128
7293,41600
7294,41920
7295,40704
7296,38208
7297,34688
7298,33408
7299,32128
7300,31296
7301,30912
7302,30848
7303,31232
7304,31808
7305,32384
7306,32832
7307,33024
7308,32960
7309,32768
7310,32768
7311,33152
7312,33728
7313,33792
7314,33792
7315,33664
7316,33472
7317,33216
7318,33088
7319,33152
7320,33280
7321,33728
7322,34112
7323,34304
7324,34304
7325,34368
7326,34432
7327,34112
7328,33984
7329,33920
7330,33984
7331,34048
7332,34176
7333,34240
7334,34368
7335,34432
7336,34368
7337,34240
7338,34368
7339,34688
7340,34752
7341,34880
7342,35008
7343,35008
7344,35008
7345,35008
7346,35008
7347,34880
7348,34752
7349,34880
7350,35200
7351,35456
7352,35456
7353,35392
7354,35456
7355,35392
7356,35328
7357,35328
7358,35392
7359,35392
7360,35200
7361,34880
7362,34560
7363,34368
7364,34176
7365,34048
7366,34112
7367,34176
7368,34112
7369,34112
7370,33920
7371,33664
7372,33600
7373,33664
7374,33920
7375,34112
7376,34176
7377,34048
7378,33920
7379,33600
7380,33152
7381,32896
7382,33152
7383,33536
7384,33856
7385,33984
7386,33856
7387,33728
7388,33664
7389,33728
7390,33728
7391,33920
7392,34176
7393,34432
7394,34560
7395,34560
7396,34432
7397,34368
7398,34304
7399,34368
7400,34304
7401,34240
7402,33984
7403,33792
7404,33600
7405,33536
7406,33600
7407,33728
7408,34048
7409,34304
7410,34240
7411,34304
7412,34560
7413,34880
7414,35008
7415,34688
7416,34368
7417,34688
7418,34944
7419,35200
7420,35328
7421,35328
7422,35200
7423,35136
7424,34944
7425,34880
7426,35072
7427,35136
7428,35136
7429,35008
7430,34816
7431,34624
7432,34240
7433,34048
7434,33728
7435,33408
7436,33088
7437,33024
7438,33024
7439,33408
7440,33856
7441,34176
7442,34176
7443,34112
7444,34240
7445,34432
7446,34624
7447,34624
7448,34560
7449,34560
7450,34432
7451,34176
7452,33920
7453,33792
7454,33664
7455,33280
7456,32960
7457,33024
7458,33472
7459,34240
7460,35456
7461,36992
7462,39808
7463,40832
7464,41600
7465,41024
7466,39232
7467,36736
7468,34240
7469,32448
7470,31488
7471,31168
7472,31168
7473,31488
7474,32064
7475,32576
7476,32832
7477,33088
7478,33280
7479,33536
7480,33728
7481,33472
7482,33088
7483,32768
7484,32640
7485,32832
7486,33024
7487,33216
7488,33472
7489,33728
7490,33792
7491,33792
7492,33792
7493,33792
7494,33728
7495,33600
7496,33408
7497,33536
7498,33920
7499,34304
7500,34624
7501,34688
7502,34752
7503,34752
7504,34624
7505,34496
7506,34304
7507,34176
7508,34176
7509,34368
7510,34560
7511,34624
7512,34752
7513,34816
7514,34816
7515,34816
7516,34880
7517,35008
7518,35008
7519,35008
7520,34880
7521,34624
7522,34560
7523,34496
7524,34560
7525,35008
7526,35456
7527,35840
7528,36096
7529,36032
7530,35712
7531,35200
7532,34752
7533,34304
7534,33984
7535,34048
7536,34048
7537,34048
7538,33920
7539,33728
7540,33728
7541,33792
7542,33792
7543,33600
7544,33472
7545,33408
7546,33344
7547,33280
7548,33536
7549,33984
7550,34240
7551,34240
7552,34112
7553,33984
7554,33856
7555,33728
7556,33600
7557,33536
7558,33600
7559,33664
7560,33664
7561,33664
7562,33664
7563,33728
7564,33728
7565,33792
7566,33792
7567,33792
7568,33728
7569,33600
7570,33280
7571,33344
7572,33792
7573,34304
7574,34496
7575,34368
7576,34176
7577,33984
7578,33856
7579,33856
7580,34112
7581,34304
7582,34432
7583,34432
7584,34240
7585,34048
7586,34048
7587,34112
7588,34496
7589,34560
7590,34368
7591,34240
7592,34304
7593,34752
7594,35200
7595,35520
7596,35712
7597,35456
7598,34816
7599,34240
7600,34112
7601,34432
7602,34624
7603,34496
7604,34304
7605,34048
7606,33728
7607,33344
7608,33408
7609,33664
7610,33792
7611,33664
7612,33600
7613,33792
7614,33856
7615,33920
7616,33920
7617,33792
7618,33664
7619,33536
7620,33536
7621,33600
7622,33536
7623,33472
7624,33472
7625,33408
7626,33536
7627,34112
7628,35456
7629,37184
7630,39296
7631,41152
7632,41792
7633,41024
7634,38976
7635,36480
7636,34112
7637,32192
7638,31104
7639,30784
7640,30848
7641,31232
7642,31744
7643,32192
7644,32384
7645,32512
7646,32832
7647,33088
7648,33280
7649,33600
7650,33792
7651,33856
7652,33920
7653,33856
7654,33792
7655,33664
7656,33728
7657,33728
7658,33600
7659,33408
7660,33472
7661,33600
7662,33856
7663,34112
7664,34368
7665,34496
7666,34560
7667,34560
7668,34624
7669,34624
7670,34560
7671,34496
7672,34304
7673,34112
7674,33920
7675,33984
7676,34240
7677,34432
7678,34560
7679,34624
7680,34624
7681,34432
7682,34176
7683,34112
7684,34368
7685,34432
7686,34496
7687,34560
7688,34816
7689,35072
7690,35328
7691,35456
7692,35392
7693,35456
7694,35520
7695,35328
7696,34944
7697,34432
7698,34304
7699,34240
7700,34304
7701,34432
7702,34560
7703,34624
7704,34496
7705,34496
7706,34304
7707,34112
7708,33920
7709,33728
7710,33600
7711,33408
7712,33024
7713,32576
7714,32576
7715,33024
7716,33536
7717,33856
7718,33792
7719,33664
7720,33600
7721,33728
7722,33920
7723,33920
7724,33664
7725,33408
7726,33344
7727,33472
7728,33792
7729,33920
7730,33856
7731,33856
7732,34112
7733,34304
7734,34176
7735,33920
7736,33600
7737,33600
7738,33856
7739,34176
7740,34432
7741,34688
7742,34816
7743,34816
7744,34624
7745,34560
7746,34624
7747,34816
7748,34944
7749,35200
7750,35392
7751,35328
7752,35200
7753,35072
7754,34944
7755,34688
7756,34304
7757,33984
7758,33664
7759,33344
7760,33216
7761,33344
7762,33600
7763,33728
7764,33792
7765,33728
7766,33600
7767,33600
7768,33536
7769,33216
7770,32832
7771,32960
7772,33408
7773,33664
7774,33920
7775,33984
7776,33984
7777,33728
7778,33280
7779,33088
7780,33088
7781,33152
7782,33536
7783,34496
7784,36032
7785,38016
7786,40256
7787,41600
7788,41344
7789,39680
7790,37312
7791,34816
7792,32704
7793,31360
7794,30848
7795,30912
7796,31360
7797,31680
7798,31872
7799,31936
7800,31936
7801,32000
7802,32448
7803,33024
7804,33536
7805,33792
7806,33920
7807,33920
7808,33920
7809,33920
7810,33856
7811,33792
7812,33536
7813,33408
7814,33536
7815,33664
7816,33792
7817,33792
7818,33856
7819,33792
7820,33664
7821,33728
7822,33984
7823,34304
7824,34304
7825,34176
7826,34112
7827,34112
7828,34112
7829,34240
7830,34368
7831,34496
7832,34496
7833,34432
7834,34432
7835,34368
7836,34176
7837,34112
7838,34496
7839,34880
7840,35072
7841,35200
7842,35200
7843,34944
7844,34688
7845,34688
7846,34816
7847,34688
7848,34688
7849,34944
7850,35328
7851,35584
7852,35584
7853,35392
7854,35200
7855,34688
7856,34176
7857,33856
7858,33984
7859,34112
7860,33984
7861,33600
7862,33344
7863,33472
7864,33344
7865,33216
7866,33216
7867,33152
7868,32896
7869,32768
7870,32832
7871,33152
7872,33408
7873,33536
7874,33728
7875,33856
7876,33920
7877,33984
7878,33984
7879,33920
7880,33792
7881,33664
7882,33600
7883,33728
7884,33856
7885,33856
7886,33920
7887,33856
7888,33728
7889,33600
7890,33536
7891,33792
7892,34112
7893,34368
7894,34560
7895,34752
7896,34752
7897,34688
7898,34624
7899,34560
7900,34688
7901,34944
7902,35200
7903,35392
7904,35456
7905,35456
7906,35456
7907,35200
7908,34880
7909,34496
7910,34112
7911,33600
7912,32832
7913,32448
7914,32640
7915,33088
7916,33472
7917,33728
7918,33856
7919,33856
7920,33856
7921,33920
7922,33856
7923,33792
7924,33728
7925,33664
7926,33664
7927,33600
7928,33536
7929,33472
7930,33408
7931,33216
7932,32896
7933,32704
7934,32768
7935,33216
7936,34176
7937,35648
7938,37696
7939,39936
7940,41536
7941,41792
7942,40832
7943,38720
7944,36288
7945,34048
7946,32256
7947,31168
7948,30848
7949,31040
7950,31552
7951,32064
7952,32512
7953,32768
7954,33024
7955,33152
7956,33280
7957,33216
7958,33088
7959,33280
7960,33536
7961,33600
7962,33600
7963,33792
7964,34176
7965,34368
7966,34304
7967,34112
7968,33920
7969,33984
7970,34112
7971,34240
7972,34176
7973,33984
7974,33920
7975,33856
7976,33792
7977,33984
7978,34240
7979,34496
7980,34624
7981,34624
7982,34560
7983,34560
7984,34560
7985,34496
7986,34688
7987,34816
7988,34752
7989,34688
7990,34624
7991,34752
7992,34944
7993,35008
7994,35008
7995,35008
7996,35136
7997,35136
7998,35136
7999,35008
8000,34944
8001,35008
8002,35072
8003,35008
8004,35136
8005,35072
8006,34944
8007,34752
8008,34432
8009,34176
8010,34240
8011,34304
8012,34240
8013,33856
8014,33536
8015,33408
8016,33536
8017,33792
8018,33856
8019,33792
8020,33728
8021,33728
8022,33792
8023,33792
8024,33792
8025,33664
8026,33472
8027,33536
8028,33792
8029,33920
8030,33856
8031,33984
8032,33920
8033,33856
8034,33984
8035,34048
8036,34048
8037,34048
8038,34048
8039,33920
8040,33792
8041,33728
8042,33792
8043,34112
8044,34432
8045,34368
8046,34624
8047,34560
8048,34560
8049,34816
8050,34944
8051,35008
8052,35008
8053,35072
8054,35392
8055,35648
8056,35712
8057,35712
8058,35584
8059,35200
8060,35136
8061,34240
8062,33792
8063,33728
8064,33344
8065,33344
8066,33408
8067,33472
8068,33344
8069,33344
8070,33600
8071,33728
8072,33664
8073,33536
8074,33344
8075,33408
8076,33600
8077,33856
8078,33856
8079,33792
8080,33728
8081,33920
8082,33792
8083,33344
8084,32960
8085,32960
8086,33408
8087,34432
8088,35904
8089,38080
8090,38080
8091,41536
8092,41792
8093,41600
8094,38464
8095,35968
8096,33920
8097,32384
8098,31616
8099,31296
8100,31424
8101,31744
8102,32192
8103,32448
8104,32704
8105,32704
8106,33216
8107,33216
8108,33024
8109,33088
8110,33216
8111,33280
8112,33536
8113,33728
8114,33984
8115,34176
8116,34368
8117,34304
8118,34112
8119,33984
8120,33984
8121,34048
8122,34112
8123,34048
8124,33984
8125,33984
8126,34048
8127,34176
8128,34368
8129,34368
8130,34368
8131,34368
8132,34240
8133,34112
8134,34240
8135,34176
8136,34304
8137,34304
8138,34496
8139,34688
8140,34752
8141,34816
8142,34944
8143,35008
8144,34944
8145,34944
8146,34880
8147,34944
8148,35072
8149,35200
8150,35328
8151,35392
8152,35456
8153,35392
8154,35328
8155,35200
8156,35072
8157,34880
8158,34688
8159,34560
8160,34496
8161,34304
8162,34176
8163,34112
8164,33920
8165,33728
8166,33472
8167,33280
8168,33344
8169,33472
8170,33664
8171,33728
8172,33792
8173,33856
8174,33920
8175,33920
8176,33920
8177,33728
8178,33600
8179,33408
8180,33344
8181,33472
8182,33600
8183,33728
8184,33792
8185,33920
8186,33984
8187,34176
8188,34368
8189,34304
8190,33984
8191,33664
8192,33664
8193,33920
8194,34176
8195,34368
8196,34432
8197,34432
8198,34368
8199,34368
8200,34304
8201,34304
8202,34368
8203,34496
8204,34624
8205,34624
8206,34560
8207,34560
8208,34624
8209,34816
8210,35008
8211,35136
8212,35136
8213,35072
8214,35008
8215,35008
8216,34944
8217,34880
8218,34816
8219,34560
8220,34176
8221,33728
8222,33472
8223,33600
8224,33856
8225,33984
8226,33984
8227,33920
8228,33856
8229,33856
8230,33792
8231,33664
8232,33472
8233,33216
8234,33088
8235,33216
8236,33408
8237,33728
8238,33920
8239,33984
8240,33792
8241,33536
8242,33280
8243,33216
8244,33344
8245,33920
8246,35264
8247,37248
8248,39616
8249,41536
8250,41856
8251,40576
8252,38272
8253,35840
8254,33600
8255,32192
8256,31424
8257,31040
8258,30784
8259,30848
8260,31424
8261,32256
8262,32896
8263,33088
8264,33024
8265,33216
8266,33472
8267,33728
8268,33856
8269,33856
8270,33664
8271,33344
8272,33216
8273,33408
8274,33664
8275,33984
8276,34176
8277,34240
8278,34176
8279,34048
8280,33984
8281,33984
8282,34112
8283,34176
8284,34176
8285,34112
8286,34176
8287,34240
8288,34176
8289,34112
8290,34176
8291,34112
8292,34112
8293,34240
8294,34496
8295,34688
8296,34752
8297,34752
8298,34752
8299,34816
8300,34752
8301,34624
8302,34560
8303,34624
8304,34816
8305,35008
8306,35136
8307,35200
8308,35200
8309,35072
8310,34816
8311,34560
8312,34496
8313,34688
8314,35072
8315,35328
8316,35264
8317,35072
8318,34944
8319,34816
8320,34624
8321,34368
8322,34048
8323,33792
8324,33664
8325,33600
8326,33600
8327,33536
8328,33472
8329,33408
8330,33472
8331,33408
8332,33344
8333,33408
8334,33344
8335,33280
8336,33280
8337,33344
8338,33472
8339,33664
8340,33792
8341,33664
8342,33600
8343,33600
8344,33600
8345,33536
8346,33536
8347,33728
8348,33984
8349,34048
8350,34176
8351,34368
8352,34304
8353,34112
8354,33920
8355,33792
8356,33856
8357,33984
8358,34176
8359,34176
8360,34112
8361,34112
8362,34048
8363,34048
8364,34048
8365,33984
8366,33920
8367,33856
8368,33792
8369,33792
8370,33920
8371,34112
8372,34368
8373,34688
8374,35072
8375,35072
8376,34880
8377,34816
8378,34880
8379,35008
8380,35136
8381,35200
8382,35264
8383,35392
8384,35392
8385,35200
8386,34944
8387,34624
8388,34240
8389,33856
8390,33600
8391,33344
8392,33152
8393,33152
8394,33216
8395,33280
8396,33344
8397,33536
8398,33728
8399,33728
8400,33728
8401,33600
8402,33408
8403,33408
8404,33600
8405,33792
8406,33984
8407,34048
8408,33920
8409,33664
8410,33344
8411,33152
8412,33344
8413,34240
8414,35584
8415,37376
8416,39360
8417,40960
8418,41280
8419,40192
8420,38336
8421,36032
8422,33856
8423,32256
8424,31296
8425,30912
8426,30912
8427,31168
8428,31616
8429,32320
8430,32832
8431,33152
8432,33344
8433,33472
8434,33600
8435,33536
8436,33536
8437,33536
8438,33600
8439,33792
8440,33792
8441,33792
8442,33728
8443,33792
8444,33728
8445,33472
8446,33472
8447,33664
8448,34048
8449,34240
8450,34304
8451,34240
8452,34048
8453,33984
8454,33856
8455,33856
8456,33984
8457,34240
8458,34432
8459,34624
8460,34752
8461,34752
8462,34624
8463,34560
8464,34432
8465,34304
8466,34368
8467,34624
8468,34880
8469,35072
8470,35136
8471,35136
8472,35072
8473,35008
8474,34880
8475,34816
8476,34752
8477,34816
8478,34880
8479,34944
8480,35072
8481,35328
8482,35392
8483,35072
8484,34880
8485,34752
8486,34752
8487,34688
8488,34560
8489,34432
8490,34112
8491,33792
8492,33472
8493,33344
8494,33344
8495,33344
8496,33472
8497,33600
8498,33728
8499,33856
8500,33792
8501,33664
8502,33472
8503,33408
8504,33408
8505,33408
8506,33472
8507,33536
8508,33664
8509,33920
8510,34048
8511,34112
8512,34112
8513,34112
8514,34048
8515,34048
8516,34048
8517,34048
8518,34112
8519,33984
8520,34048
8521,34048
8522,34048
8523,34048
8524,34176
8525,34240
8526,34304
8527,34176
8528,34048
8529,33856
8530,33728
8531,33856
8532,34048
8533,34176
8534,34048
8535,34048
8536,34112
8537,34176
8538,34048
8539,33792
8540,33600
8541,33856
8542,34240
8543,34560
8544,34560
8545,34368
8546,34176
8547,34112
8548,34304
8549,34560
8550,34752
8551,34752
8552,34688
8553,34752
8554,34816
8555,35008
8556,35200
8557,35264
8558,35328
8559,35264
8560,35072
8561,34944
8562,34944
8563,34816
8564,34496
8565,34240
8566,33920
8567,33600
8568,33472
8569,33472
8570,33472
8571,33536
8572,33472
8573,33344
8574,33344
8575,33536
8576,33728
8577,33728
8578,33600
8579,33600
8580,33600
8581,33728
8582,33856
8583,33856
8584,33600
8585,33280
8586,33088
8587,33024
8588,33152
8589,33728
8590,34816
8591,36416
8592,38464
8593,40576
8594,41792
8595,41344
8596,39424
8597,36864
8598,34368
8599,32384
8600,31232
8601,30784
8602,30848
8603,31168
8604,31616
8605,32064
8606,32448
8607,32704
8608,32832
8609,32832
8610,33024
8611,33344
8612,33600
8613,33792
8614,33856
8615,33920
8616,33984
8617,34048
8618,33984
8619,33856
8620,33728
8621,33664
8622,33728
8623,33792
8624,33792
8625,33792
8626,33728
8627,33536
8628,33536
8629,33856
8630,34304
8631,34496
8632,34432
8633,34240
8634,34112
8635,34176
8636,34304
8637,34432
8638,34496
8639,34432
8640,34496
8641,34560
8642,34624
8643,34752
8644,34880
8645,35008
8646,35136
8647,35136
8648,35200
8649,35136
8650,35072
8651,35008
8652,35072
8653,35072
8654,35072
8655,35072
8656,35200
8657,35264
8658,35200
8659,35136
8660,34880
8661,34688
8662,34432
8663,34112
8664,33984
8665,34112
8666,34368
8667,34432
8668,34304
8669,34240
8670,34176
8671,34048
8672,33920
8673,33664
8674,33472
8675,33472
8676,33600
8677,33664
8678,33600
8679,33536
8680,33536
8681,33536
8682,33408
8683,33408
8684,33600
8685,33792
8686,33856
8687,33920
8688,33920
8689,33792
8690,33728
8691,33728
8692,33728
8693,33728
8694,33920
8695,34112
8696,34176
8697,34176
8698,33984
8699,33664
8700,33664
8701,33920
8702,34176
8703,34368
8704,34432
8705,34432
8706,34304
8707,34112
8708,33984
8709,33984
8710,34176
8711,34368
8712,34304
8713,34048
8714,34048
8715,34112
8716,34176
8717,34176
8718,34112
8719,34112
8720,34048
8721,34048
8722,33856
8723,33792
8724,33792
8725,33984
8726,33984
8727,34048
8728,34048
8729,34048
8730,34048
8731,34048
8732,33984
8733,33664
8734,33600
8735,33856
8736,34368
8737,34816
8738,35008
8739,35136
8740,35072
8741,35008
8742,35008
8743,35072
8744,35200
8745,35328
8746,35392
8747,35392
8748,35328
8749,35200
8750,35072
8751,34944
8752,34752
8753,34560
8754,34240
8755,33792
8756,33344
8757,32896
8758,32704
8759,32768
8760,33152
8761,33600
8762,33984
8763,34112
8764,34240
8765,34176
8766,34176
8767,34112
8768,33920
8769,33856
8770,33792
8771,33792
8772,33728
8773,33472
8774,33152
8775,33024
8776,33216
8777,33600
8778,34624
8779,36032
8780,37696
8781,39680
8782,41664
8783,41856
8784,40576
8785,38208
8786,35584
8787,33408
8788,31808
8789,30976
8790,30784
8791,31104
8792,31616
8793,32128
8794,32448
8795,32768
8796,33088
8797,33344
8798,33408
8799,33536
8800,33792
8801,33984
8802,34048
8803,34048
8804,34048
8805,33984
8806,33984
8807,34112
8808,34112
8809,34112
8810,34112
8811,34048
8812,33984
8813,33920
8814,33792
8815,33792
8816,33920
8817,33984
8818,33984
8819,34112
8820,34240
8821,34432
8822,34496
8823,34368
8824,34432
8825,34496
8826,34496
8827,34560
8828,34752
8829,34816
8830,34816
8831,34816
8832,34688
8833,34624
8834,34752
8835,34880
8836,35008
8837,35200
8838,35136
8839,35008
8840,35072
8841,35136
8842,35264
8843,35264
8844,35136
8845,34944
8846,34944
8847,35072
8848,35136
8849,35200
8850,35200
8851,35200
8852,35136
8853,34944
8854,34688
8855,34368
8856,33856
8857,33280
8858,33088
8859,33216
8860,33408
8861,33664
8862,33728
8863,33728
8864,33664
8865,33664
8866,33664
8867,33728
8868,33728
8869,33664
8870,33600
8871,33536
8872,33728
8873,33856
8874,33920
8875,33920
8876,33728
8877,33536
8878,33600
8879,33792
8880,33920
8881,33984
8882,33984
8883,33920
8884,33920
8885,33984
8886,34048
8887,34240
8888,34368
8889,34432
8890,34368
8891,34304
8892,34304
8893,34176
8894,33920
8895,33728
8896,33664
8897,33856
8898,34048
8899,34176
8900,34176
8901,34176
8902,34176
8903,34176
8904,34176
8905,34240
8906,34304
8907,34304
8908,34240
8909,34112
8910,33984
8911,33984
8912,34048
8913,34048
8914,34176
8915,34368
8916,34560
8917,34560
8918,34560
8919,34624
8920,34624
8921,34560
8922,34624
8923,34816
8924,35136
8925,35456
8926,35648
8927,35584
8928,35328
8929,35136
8930,34880
8931,34624
8932,34304
8933,34048
8934,33664
8935,33344
8936,33216
8937,33344
8938,33408
8939,33344
8940,33344
8941,33472
8942,33728
8943,33984
8944,33920
8945,33856
8946,33792
8947,33792
8948,33792
8949,33856
8950,33856
8951,33728
8952,33408
8953,33088
8954,32960
8955,33408
8956,34496
8957,35840
8958,37440
8959,39424
8960,41152
8961,41536
8962,40448
8963,38272
8964,35840
8965,33664
8966,32064
8967,31296
8968,31168
8969,31296
8970,31552
8971,31936
8972,32448
8973,32832
8974,33024
8975,32960
8976,32768
8977,32768
8978,33024
8979,33536
8980,33984
8981,34240
8982,34304
8983,34304
8984,34112
8985,33920
8986,33600
8987,33344
8988,33408
8989,33664
8990,33856
8991,33856
8992,34048
8993,34240
8994,34496
8995,34624
8996,34624
8997,34368
8998,34240
8999,34048
9000,33984
9001,33984
9002,33920
9003,33856
9004,34048
9005,34240
9006,34496
9007,34752
9008,34752
9009,34688
9010,34688
9011,34752
9012,34880
9013,34944
9014,34944
9015,34880
9016,34752
9017,34816
9018,35008
9019,35136
9020,35200
9021,35200
9022,35136
9023,35072
9024,35072
9025,35072
9026,35072
9027,34944
9028,34688
9029,34432
9030,34112
9031,34048
9032,34176
9033,34304
9034,34304
9035,34048
9036,33920
9037,33984
9038,33920
9039,33792
9040,33728
9041,33664
9042,33600
9043,33472
9044,33536
9045,33600
9046,33472
9047,33408
9048,33280
9049,33344
9050,33664
9051,33856
9052,33920
9053,33792
9054,33600
9055,33600
9056,33728
9057,33856
9058,33792
9059,33792
9060,33984
9061,33984
9062,33792
9063,33664
9064,33664
9065,33920
9066,34176
9067,34240
9068,34304
9069,34368
9070,34432
9071,34368
9072,34176
9073,34112
9074,33920
9075,33600
9076,33600
9077,33920
9078,34304
9079,34368
9080,34240
9081,34048
9082,34048
9083,34048
9084,34048
9085,34048
9086,33856
9087,33792
9088,34112
9089,34560
9090,34816
9091,34816
9092,34880
9093,34880
9094,34944
9095,34944
9096,34752
9097,34368
9098,34368
9099,34688
9100,35200
9101,35584
9102,35712
9103,35456
9104,35008
9105,34496
9106,33856
9107,33472
9108,33344
9109,33472
9110,33536
9111,33600
9112,33728
9113,33664
9114,33600
9115,33536
9116,33472
9117,33536
9118,33728
9119,33856
9120,33792
9121,33728
9122,33664
9123,33600
9124,33664
9125,33536
9126,33216
9127,33088
9128,33344
9129,34048
9130,35264
9131,36928
9132,38976
9133,40832
9134,41600
9135,41024
9136,39104
9137,36800
9138,34496
9139,32640
9140,31360
9141,30912
9142,31104
9143,31360
9144,31808
9145,32192
9146,32640
9147,33024
9148,33280
9149,33472
9150,33600
9151,33728
9152,33856
9153,33920
9154,33792
9155,33536
9156,33472
9157,33664
9158,33728
9159,33728
9160,33728
9161,33728
9162,33856
9163,33984
9164,34112
9165,34240
9166,34304
9167,34176
9168,34048
9169,33984
9170,34112
9171,34368
9172,34496
9173,34496
9174,34368
9175,34368
9176,34368
9177,34240
9178,34240
9179,34240
9180,34240
9181,34368
9182,34560
9183,34624
9184,34624
9185,34560
9186,34496
9187,34624
9188,34816
9189,35136
9190,35200
9191,35136
9192,35136
9193,35136
9194,35200
9195,35072
9196,35072
9197,35136
9198,35200
9199,35136
9200,34944
9201,34752
9202,34560
9203,34496
9204,34368
9205,34240
9206,33984
9207,33728
9208,33408
9209,33152
9210,33152
9211,33472
9212,33728
9213,33792
9214,33536
9215,33088
9216,33024
9217,33536
9218,33856
9219,34112
9220,34240
9221,34176
9222,34112
9223,34048
9224,33856
9225,33664
9226,33600
9227,33664
9228,33536
9229,33280
9230,33216
9231,33472
9232,33792
9233,33856
9234,33920
9235,34048
9236,34048
9237,34112
9238,34112
9239,34048
9240,33984
9241,34048
9242,34112
9243,34048
9244,33984
9245,33984
9246,34048
9247,34176
9248,34240
9249,34304
9250,34176
9251,34048
9252,33792
9253,33856
9254,33984
9255,34048
9256,34304
9257,34560
9258,34880
9259,34880
9260,34688
9261,34560
9262,34880
9263,35072
9264,35328
9265,35456
9266,35520
9267,35520
9268,35456
9269,35200
9270,34816
9271,34432
9272,34048
9273,33792
9274,33472
9275,33216
9276,33024
9277,32960
9278,33088
9279,33280
9280,33536
9281,33664
9282,33792
9283,33920
9284,33792
9285,33728
9286,33600
9287,33536
9288,33536
9289,33664
9290,33664
9291,33536
9292,33088
9293,32960
9294,33024
9295,33280
9296,34048
9297,35328
9298,37056
9299,39168
9300,40960
9301,41472
9302,40704
9303,38848
9304,36608
9305,34368
9306,32640
9307,31168
9308,30848
9309,30784
9310,31104
9311,31680
9312,32256
9313,32640
9314,32896
9315,33024
9316,33152
9317,33472
9318,33600
9319,33664
9320,33600
9321,33536
9322,33472
9323,33344
9324,33280
9325,33408
9326,33728
9327,33984
9328,34112
9329,33984
9330,33920
9331,34048
9332,34368
9333,34496
9334,34432
9335,34176
9336,33920
9337,33792
9338,33856
9339,33984
9340,34048
9341,34176
9342,34240
9343,34304
9344,34368
9345,34496
9346,34496
9347,34496
9348,34368
9349,34304
9350,34432
9351,34624
9352,34816
9353,34880
9354,34944
9355,35072
9356,35200
9357,35264
9358,35264
9359,35200
9360,35200
9361,35072
9362,34880
9363,34816
9364,35008
9365,35200
9366,35200
9367,34944
9368,34816
9369,34496
9370,34176
9371,34112
9372,34176
9373,34176
9374,34112
9375,34048
9376,33984
9377,33984
9378,33792
9379,33536
9380,33408
9381,33344
9382,33344
9383,33280
9384,33088
9385,32832
9386,33152
9387,33600
9388,33856
9389,33856
9390,33856
9391,33792
9392,33920
9393,33920
9394,33792
9395,33664
9396,33728
9397,33856
9398,33856
9399,34048
9400,34112
9401,34048
9402,34048
9403,33984
9404,33920
9405,33856
9406,33920
9407,34048
9408,34048
9409,34048
9410,34176
9411,34240
9412,34048
9413,33920
9414,33856
9415,33856
9416,34048
9417,34176
9418,34368
9419,34496
9420,34624
9421,34624
9422,34496
9423,34432
9424,34496
9425,34688
9426,34688
9427,34816
9428,34816
9429,34944
9430,34944
9431,34816
9432,34944
9433,35072
9434,35200
9435,35264
9436,35072
9437,34752
9438,34624
9439,34560
9440,34496
9441,34496
9442,34432
9443,34176
9444,33920
9445,33600
9446,33472
9447,33472
9448,33600
9449,33600
9450,33536
9451,33600
9452,33728
9453,33728
9454,33728
9455,33664
9456,33600
9457,33536
9458,33472
9459,33472
9460,33536
9461,33536
9462,33408
9463,33280
9464,33472
9465,33984
9466,35072
9467,36608
9468,38464
9469,40512
9470,41856
9471,41472
9472,38400
9473,36992
9474,34560
9475,32832
9476,31680
9477,31168
9478,30976
9479,31104
9480,31488
9481,32000
9482,32448
9483,32896
9484,33408
9485,33600
9486,33536
9487,33408
9488,33408
9489,33600
9490,33920
9491,34112
9492,34112
9493,34048
9494,33984
9495,34112
9496,34304
9497,34368
9498,34240
9499,34048
9500,33920
9501,33984
9502,34176
9503,34304
9504,34304
9505,34176
9506,33984
9507,34048
9508,34176
9509,34240
9510,34240
9511,34176
9512,34112
9513,34112
9514,34176
9515,34560
9516,34816
9517,35008
9518,35200
9519,35200
9520,35200
9521,35136
9522,35008
9523,34944
9524,35008
9525,35008
9526,35072
9527,35136
9528,35136
9529,35200
9530,35392
9531,35456
9532,35392
9533,35264
9534,35072
9535,34880
9536,34816
9537,34944
9538,35008
9539,34944
9540,34752
9541,34432
9542,34176
9543,33984
9544,33984
9545,33984
9546,33920
9547,33856
9548,33664
9549,33600
9550,33664
9551,33664
9552,33600
9553,33600
9554,33728
9555,33856
9556,33792
9557,33664
9558,33600
9559,33664
9560,33728
9561,33792
9562,33856
9563,33856
9564,33856
9565,33984
9566,34048
9567,34112
9568,34112
9569,33984
9570,33792
9571,33792
9572,33920
9573,34048
9574,34112
9575,34176
9576,34240
9577,34176
9578,34048
9579,33856
9580,33920
9581,34240
9582,34496
9583,34624
9584,34688
9585,34624
9586,34560
9587,34368
9588,34112
9589,34048
9590,34112
9591,34240
9592,34368
9593,34368
9594,34432
9595,34368
9596,34368
9597,34368
9598,34304
9599,34176
9600,34304
9601,34560
9602,34752
9603,34816
9604,34944
9605,35008
9606,35072
9607,35200
9608,35136
9609,35072
9610,35200
9611,35328
9612,35392
9613,35328
9614,35136
9615,34816
9616,34496
9617,34112
9618,33792
9619,33536
9620,33344
9621,33344
9622,33472
9623,33536
9624,33472
9625,33408
9626,33408
9627,33536
9628,33664
9629,33664
9630,33856
9631,34048
9632,34112
9633,34112
9634,34112
9635,33984
9636,33792
9637,33472
9638,33152
9639,33216
9640,33728
9641,34944
9642,36480
9643,38400
9644,40448
9645,41664
9646,41216
9647,39296
9648,36672
9649,34048
9650,32384
9651,31360
9652,31104
9653,31360
9654,31744
9655,32128
9656,32512
9657,32832
9658,33088
9659,33344
9660,33408
9661,33344
9662,33344
9663,33472
9664,33664
9665,33856
9666,33920
9667,33920
9668,34048
9669,34048
9670,33984
9671,33792
9672,33792
9673,33984
9674,34048
9675,33984
9676,33984
9677,34112
9678,34240
9679,34240
9680,34176
9681,34048
9682,34176
9683,34368
9684,34432
9685,34496
9686,34496
9687,34560
9688,34560
9689,34560
9690,34688
9691,34880
9692,35008
9693,35008
9694,35072
9695,35072
9696,35072
9697,34944
9698,34816
9699,34816
9700,35008
9701,35328
9702,35648
9703,35776
9704,35648
9705,35520
9706,35328
9707,35264
9708,35200
9709,35072
9710,35136
9711,35264
9712,35328
9713,35136
9714,34944
9715,34624
9716,34368
9717,34176
9718,34048
9719,34048
9720,34112
9721,34112
9722,34048
9723,33920
9724,33728
9725,33600
9726,33600
9727,33536
9728,33536
9729,33536
9730,33536
9731,33792
9732,34048
9733,34176
9734,34112
9735,34048
9736,33984
9737,33920
9738,33792
9739,33728
9740,33984
9741,34048
9742,34112
9743,34176
9744,34048
9745,34048
9746,33984
9747,33984
9748,34048
9749,34176
9750,34368
9751,34432
9752,34496
9753,34560
9754,34496
9755,34432
9756,34304
9757,34240
9758,34240
9759,34432
9760,34496
9761,34560
9762,34496
9763,34368
9764,34240
9765,34176
9766,34240
9767,34304
9768,34304
9769,34112
9770,33984
9771,34048
9772,34112
9773,34048
9774,34240
9775,34368
9776,34496
9777,34560
9778,34944
9779,35200
9780,35392
9781,35392
9782,35200
9783,35136
9784,35136
9785,35136
9786,35456
9787,35520
9788,35456
9789,35456
9790,35328
9791,35136
9792,34752
9793,34496
9794,34304
9795,34048
9796,33728
9797,33536
9798,33536
9799,33664
9800,33792
9801,33856
9802,33856
9803,33792
9804,33728
9805,33728
9806,33728
9807,33792
9808,33728
9809,33728
9810,33792
9811,33920
9812,34048
9813,33984
9814,33792
9815,33664
9816,33280
9817,33344
9818,33344
9819,34624
9820,35968
9821,37824
9822,39872
9823,41408
9824,41664
9825,40320
9826,38080
9827,35648
9828,33536
9829,32000
9830,31872
9831,30976
9832,31040
9833,31040
9834,31552
9835,32064
9836,32704
9837,33280
9838,33664
9839,33856
9840,33920
9841,33856
9842,33792
9843,33728
9844,33728
9845,33664
9846,33472
9847,33536
9848,33536
9849,33984
9850,34112
9851,34112
9852,34048
9853,34048
9854,34048
9855,34048
9856,33984
9857,33984
9858,33920
9859,33984
9860,34176
9861,34368
9862,34432
9863,34432
9864,34304
9865,34112
9866,33984
9867,34048
9868,34304
9869,34560
9870,34688
9871,34560
9872,34560
9873,34432
9874,34304
9875,34368
9876,34816
9877,35200
9878,35328
9879,35520
9880,35648
9881,35520
9882,35328
9883,35200
9884,35072
9885,35136
9886,35264
9887,35328
9888,35328
9889,35136
9890,35136
9891,35072
9892,34880
9893,34688
9894,34496
9895,34304
9896,34176
9897,34048
9898,33856
9899,33536
9900,33344
9901,33408
9902,33536
9903,33600
9904,33664
9905,33600
9906,33536
9907,33536
9908,33408
9909,33408
9910,33408
9911,33472
9912,33600
9913,33792
9914,33792
9915,33664
9916,33664
9917,33728
9918,33792
9919,33664
9920,33600
9921,33664
9922,33856
9923,33920
9924,33792
9925,33728
9926,33664
9927,33600
9928,33408
9929,33280
9930,33472
9931,33728
9932,33984
9933,34112
9934,34176
9935,34112
9936,33920
9937,33920
9938,33984
9939,34112
9940,34240
9941,34240
9942,34112
9943,34048
9944,34048
9945,33984
9946,33984
9947,33920
9948,33856
9949,33920
9950,33920
9951,33792
9952,33728
9953,33728
9954,33728
9955,33792
9956,33920
9957,34048
9958,34176
9959,34240
9960,34304
9961,34304
9962,34240
9963,34304
9964,34496
9965,34816
9966,35072
9967,35136
9968,35200
9969,35328
9970,35392
9971,35264
9972,35072
9973,35136
9974,35136
9975,34880
9976,34496
9977,33920
9978,33408
9979,33152
9980,33152
9981,33280
9982,33472
9983,33600
9984,33600
9985,33536
9986,33472
9987,33536
9988,33664
9989,33728
9990,33664
9991,33664
9992,33664
9993,33664
9994,33664
9995,33600
9996,33408
9997,33280
9998,33216
9999,33280
10000,33408
10001,34048
10002,35264
10003,36928
10004,38976
10005,41024
10006,41792
10007,40896
10008,38848
10009,36224
10010,33792
10011,32064
10012,31104
10013,30720
10014,30848
10015,31232
10016,31744
10017,32256
10018,32768
10019,33024
10020,33088
10021,33088
10022,33088
10023,33152
10024,33408
10025,33728
10026,33920
10027,33984
10028,33984
10029,34112
10030,34176
10031,34112
10032,33920
10033,33856
10034,33856
10035,33856
10036,33856
10037,33920
10038,34048
10039,34048
10040,33984
10041,34048
10042,34176
10043,34304
10044,34368
10045,34304
10046,34304
10047,34304
10048,34304
10049,34368
10050,34496
10051,34432
10052,34432
10053,34624
10054,34688
10055,34688
10056,34624
10057,34752
10058,35008
10059,35072
10060,35072
10061,34944
10062,34752
10063,34752
10064,34944
10065,35072
10066,35264
10067,35456
10068,35584
10069,35520
10070,35520
10071,35328
10072,34944
10073,34624
10074,34496
10075,34624
10076,34816
10077,34752
10078,34560
10079,34368
10080,34048
10081,33856
10082,33728
10083,33728
10084,33664
10085,33600
10086,33472
10087,33408
10088,33280
10089,33280
10090,33472
10091,33600
10092,33664
10093,33664
10094,33728
10095,33728
10096,33728
10097,33536
10098,33408
10099,33472
10100,33728
10101,33984
10102,34112
10103,34240
10104,34240
10105,34176
10106,34048
10107,33920
10108,33856
10109,33792
10110,33664
10111,33536
10112,33600
10113,33664
10114,33728
10115,33792
10116,33984
10117,34304
10118,34432
10119,34368
10120,34368
10121,34368
10122,34432
10123,34496
10124,34496
10125,34368
10126,34240
10127,33984
10128,33792
10129,33728
10130,33792
10131,33792
10132,33728
10133,33856
10134,34176
10135,34432
10136,34624
10137,34752
10138,34816
10139,34880
10140,34944
10141,34944
10142,35072
10143,35200
10144,35264
10145,35264
10146,35264
10147,35264
10148,35200
10149,35072
10150,34880
10151,34688
10152,34560
10153,34304
10154,33984
10155,33728
10156,33664
10157,33728
10158,33728
10159,33728
10160,33536
10161,33472
10162,33536
10163,33664
10164,33664
10165,33728
10166,33792
10167,33728
10168,33664
10169,33664
10170,33600
10171,33408
10172,32960
10173,32576
10174,32512
10175,32832
10176,33536
10177,34560
10178,35776
10179,37376
10180,39424
10181,41024
10182,41280
10183,39872
10184,37568
10185,35136
10186,33024
10187,31424
10188,30592
10189,30336
10190,30400
10191,30720
10192,31360
10193,31872
10194,32320
10195,32640
10196,32768
10197,32896
10198,32960
10199,32896
10200,32768
10201,32768
10202,32896
10203,33088
10204,33216
10205,33152
10206,33088
10207,33152
10208,33024
10209,32960
10210,32896
10211,32960
10212,33024
10213,33152
10214,33216
10215,33280
10216,33408
10217,33408
10218,33408
10219,33408
10220,33280
10221,33280
10222,33280
10223,33408
10224,33344
10225,33344
10226,33408
10227,33472
10228,33664
10229,33792
10230,33984
10231,34176
10232,34240
10233,34304
10234,34368
10235,34496
10236,34624
10237,34560
10238,34368
10239,34368
10240,34496
10241,34560
10242,34624
10243,34624
10244,34624
10245,34688
10246,34688
10247,34688
10248,34624
10249,34496
10250,34176
10251,33920
10252,33792
10253,33664
10254,33472
10255,33408
10256,33536
10257,33664
10258,33472
10259,33152
10260,33088
10261,33216
10262,33408
10263,33472
10264,33472
10265,33472
10266,33472
10267,33472
10268,33472
10269,33536
10270,33536
10271,33536
10272,33408
10273,33408
10274,33408
10275,33408
10276,33344
10277,33280
10278,33344
10279,33344
10280,33408
10281,33664
10282,33856
10283,33984
10284,34048
10285,34176
10286,34112
10287,33984
10288,33920
10289,33920
10290,33792
10291,33728
10292,33728
10293,33920
10294,34176
10295,34304
10296,34240
10297,34176
10298,34048
10299,33920
10300,33856
10301,33856
10302,33984
10303,34240
10304,34432
10305,34432
10306,34368
10307,34368
10308,34432
10309,34688
10310,35008
10311,35136
10312,35264
10313,35392
10314,35456
10315,35456
10316,35200
10317,34816
10318,34304
10319,33856
10320,33664
10321,33600
10322,33536
10323,33472
10324,33472
10325,33472
10326,33536
10327,33664
10328,33728
10329,33792
10330,33984
10331,34048
10332,33984
10333,33856
10334,33792
10335,33728
10336,33728
10337,33664
10338,33600
10339,33472
10340,33344
10341,33216
10342,33280
10343,33728
10344,34880
10345,36288
10346,38080
10347,40256
10348,41792
10349,41920
10350,40448
10351,38080
10352,35648
10353,33536
10354,31936
10355,31104
10356,30976
10357,31360
10358,31744
10359,32192
10360,32576
10361,32896
10362,33088
10363,33152
10364,33408
10365,33600
10366,33728
10367,33856
10368,33920
10369,33792
10370,33664
10371,33728
10372,33920
10373,34048
10374,34240
10375,34240
10376,34176
10377,34240
10378,34368
10379,34432
10380,34368
10381,34432
10382,34624
10383,34752
10384,34752
10385,34688
10386,34624
10387,34560
10388,34432
10389,34432
10390,34624
10391,34816
10392,34880
10393,34816
10394,34880
10395,35008
10396,35136
10397,35200
10398,35328
10399,35264
10400,35072
10401,34944
10402,35136
10403,35456
10404,35776
10405,35712
10406,35584
10407,35520
10408,35392
10409,35392
10410,35392
10411,35456
10412,35392
10413,35328
10414,35264
10415,35200
10416,35008
10417,34816
10418,34752
10419,34752
10420,34624
10421,34496
10422,34304
10423,34112
10424,33920
10425,33728
10426,33728
10427,33856
10428,33856
10429,33792
10430,33792
10431,33792
10432,33600
10433,33664
10434,33920
10435,34240
10436,34368
10437,34240
10438,34176
10439,34176
10440,34176
10441,34176
10442,34176
10443,34176
10444,34240
10445,34368
10446,34560
10447,34624
10448,34560
10449,34560
10450,34560
10451,34496
10452,34304
10453,34048
10454,33856
10455,33792
10456,33856
10457,34048
10458,34432
10459,34880
10460,35008
10461,34944
10462,34816
10463,34688
10464,34688
10465,34816
10466,34816
10467,34816
10468,34752
10469,34752
10470,34688
10471,34624
10472,34560
10473,34496
10474,34496
10475,34496
10476,34496
10477,34432
10478,34240
10479,34240
10480,34432
10481,34624
10482,34752
10483,34752
10484,34880
10485,34944
10486,34880
10487,34880
10488,34880
10489,34944
10490,35136
10491,35456
10492,35840
10493,36224
10494,36416
10495,36352
10496,36032
10497,35520
10498,35072
10499,34624
10500,34240
10501,33984
10502,33856
10503,33856
10504,33856
10505,33728
10506,33792
10507,33728
10508,33664
10509,33728
10510,33856
10511,33984
10512,34048
10513,34048
10514,34112
10515,34048
10516,33856
10517,33664
10518,33472
10519,33280
10520,33216
10521,33344
10522,33792
10523,34624
10524,35776
10525,37376
10526,39296
10527,41088
10528,41664
10529,40512
10530,38208
10531,35840
10532,33728
10533,32128
10534,31296
10535,31040
10536,31168
10537,31552
10538,32000
10539,32384
10540,32768
10541,33024
10542,33280
10543,33408
10544,33472
10545,33472
10546,33472
10547,33344
10548,33216
10549,33216
10550,33280
10551,33600
10552,33984
10553,34112
10554,34176
10555,34176
10556,34048
10557,33920
10558,33856
10559,33856
10560,33856
10561,33920
10562,33984
10563,34048
10564,34176
10565,34240
10566,34368
10567,34496
10568,34496
10569,34496
10570,34624
10571,34688
10572,34688
10573,34752
10574,34880
10575,34944
10576,34880
10577,34752
10578,34752
10579,34944
10580,34944
10581,34944
10582,35072
10583,35264
10584,35456
10585,35520
10586,35456
10587,35328
10588,35264
10589,35328
10590,35456
10591,35520
10592,35648
10593,35584
10594,35392
10595,35072
10596,34816
10597,34560
10598,34368
10599,34304
10600,34240
10601,34176
10602,34176
10603,34112
10604,34048
10605,33920
10606,33792
10607,33792
10608,33792
10609,33856
10610,33920
10611,33792
10612,33728
10613,33728
10614,33792
10615,33792
10616,33664
10617,33664
10618,33856
10619,34112
10620,34176
10621,34176
10622,33984
10623,33792
10624,33856
10625,33984
10626,34240
10627,34496
10628,34624
10629,34688
10630,34688
10631,34624
10632,34560
10633,34496
10634,34432
10635,34368
10636,34368
10637,34432
10638,34432
10639,34368
10640,34112
10641,33920
10642,33920
10643,34176
10644,34496
10645,34688
10646,34688
10647,34688
10648,34624
10649,34432
10650,34240
10651,34304
10652,34368
10653,34432
10654,34368
10655,34240
10656,34304
10657,34304
10658,34240
10659,34304
10660,34432
10661,34368
10662,34240
10663,34176
10664,34176
10665,34432
10666,34816
10667,35008
10668,35072
10669,35136
10670,35200
10671,35328
10672,35520
10673,35584
10674,35648
10675,35648
10676,35584
10677,35456
10678,35392
10679,35328
10680,35200
10681,34944
10682,34624
10683,34368
10684,34048
10685,33792
10686,33600
10687,33536
10688,33472
10689,33472
10690,33536
10691,33472
10692,33536
10693,33792
10694,33984
10695,34240
10696,34432
10697,34496
10698,34432
10699,34304
10700,34240
10701,34112
10702,33856
10703,33472
10704,33280
10705,33280
10706,33664
10707,34752
10708,36288
10709,38208
10710,40384
10711,41920
10712,41920
10713,40448
10714,37824
10715,35328
10716,33152
10717,31488
10718,31040
10719,30976
10720,31296
10721,31616
10722,32064
10723,32640
10724,33088
10725,33344
10726,33600
10727,33728
10728,33856
10729,33920
10730,33920
10731,33920
10732,34048
10733,34112
10734,34112
10735,34112
10736,33984
10737,33856
10738,33728
10739,33664
10740,33792
10741,33920
10742,34048
10743,34240
10744,34368
10745,34176
10746,34176
10747,34368
10748,34624
10749,34752
10750,34880
10751,34944
10752,34880
10753,34688
10754,34560
10755,34560
10756,34624
10757,34752
10758,34944
10759,35072
10760,35008
10761,34944
10762,35008
10763,34944
10764,35008
10765,35072
10766,35200
10767,35264
10768,35264
10769,35264
10770,35264
10771,35200
10772,35328
10773,35456
10774,35392
10775,35328
10776,35328
10777,35392
10778,35328
10779,35264
10780,35072
10781,34816
10782,34624
10783,34432
10784,34240
10785,33984
10786,33728
10787,33600
10788,33536
10789,33408
10790,33216
10791,33216
10792,33536
10793,33792
10794,33984
10795,34112
10796,34112
10797,34048
10798,33984
10799,33728
10800,33664
10801,33728
10802,33792
10803,33856
10804,33856
10805,33792
10806,33728
10807,33664
10808,33728
10809,33856
10810,33920
10811,33856
10812,33792
10813,33792
10814,33984
10815,34048
10816,34048
10817,34048
10818,34176
10819,34240
10820,34240
10821,34112
10822,33984
10823,33920
10824,33792
10825,33728
10826,33728
10827,33984
10828,34240
10829,34368
10830,34496
10831,34560
10832,34560
10833,34496
10834,34368
10835,34304
10836,34240
10837,34176
10838,34112
10839,34112
10840,34176
10841,34176
10842,34112
10843,34048
10844,34048
10845,33920
10846,33856
10847,33792
10848,33856
10849,33920
10850,33856
10851,33920
10852,34112
10853,34240
10854,34240
10855,34112
10856,34112
10857,34304
10858,34624
10859,34880
10860,34944
10861,34816
10862,34752
10863,34752
10864,34880
10865,35072
10866,35136
10867,35264
10868,35264
10869,35264
10870,35264
10871,35136
10872,35008
10873,34624
10874,34176
10875,33856
10876,33664
10877,33536
10878,33472
10879,33472
10880,33472
10881,33408
10882,33344
10883,33344
10884,33408
10885,33664
10886,33792
10887,33792
10888,33728
10889,33728
10890,33728
10891,33728
10892,33792
10893,33856
10894,33728
10895,33600
10896,33536
10897,33920
10898,34560
10899,35712
10900,37376
10901,39488
10902,41280
10903,41664
10904,40512
10905,38336
10906,35904
10907,33536
10908,31744
10909,30592
10910,30208
10911,30400
10912,30912
10913,31680
10914,32512
10915,33024
10916,33344
10917,33600
10918,33664
10919,33600
10920,33472
10921,33472
10922,33536
10923,33664
10924,33728
