,ECG
0,33856
1,33856
2,33792
3,33792
4,33792
5,33792
6,33728
7,33792
8,33792
9,33792
10,33792
11,33792
12,33856
13,33984
14,34048
15,34176
16,34304
17,34432
18,34432
19,34496
20,34496
21,34560
22,34560
23,34688
24,34752
25,34816
26,34816
27,34688
28,34560
29,34496
30,34368
31,34176
32,33984
33,33664
34,33472
35,33280
36,33216
37,33216
38,33216
39,33216
40,33280
41,33280
42,33344
43,33408
44,33408
45,33472
46,33472
47,33472
48,33536
49,33472
50,33472
51,33472
52,33472
53,33600
54,34112
55,35136
56,36800
57,39296
58,42624
59,45824
60,47680
61,47424
62,45312
63,41664
64,37312
65,33216
66,30144
67,28224
68,27392
69,27264
70,27776
71,28672
72,29568
73,30400
74,31040
75,31488
76,31872
77,32192
78,32448
79,32640
80,32832
81,32896
82,33024
83,33152
84,33216
85,33280
86,33344
87,33472
88,33472
89,33536
90,33600
91,33664
92,33664
93,33728
94,33792
95,33792
96,33856
97,33920
98,33984
99,33984
100,34048
101,34112
102,34176
103,34176
104,34240
105,34240
106,34304
107,34304
108,34368
109,34368
110,34432
111,34496
112,34496
113,34496
114,34432
115,34432
116,34368
117,34368
118,34304
119,34240
120,34176
121,34048
122,33984
123,33920
124,33856
125,33728
126,33600
127,33536
128,33472
129,33344
130,33216
131,33088
132,33024
133,32960
134,32896
135,32896
136,32896
137,32960
138,32960
139,32960
140,33024
141,33024
142,33088
143,33152
144,33152
145,33280
146,33344
147,33344
148,33408
149,33472
150,33472
151,33600
152,33728
153,33856
154,33920
155,33984
156,33984
157,34048
158,34048
159,34048
160,34112
161,34112
162,34112
163,34048
164,34048
165,34048
166,33984
167,33984
168,33984
169,33984
170,33984
171,33984
172,33920
173,33920
174,33920
175,33856
176,33856
177,33856
178,33856
179,33856
180,33856
181,33792
182,33792
183,33792
184,33792
185,33792
186,33792
187,33856
188,33856
189,33792
190,33792
191,33792
192,33792
193,33792
194,33792
195,33792
196,33792
197,33792
198,33792
199,33792
200,33792
201,33856
202,33856
203,33920
204,33920
205,33920
206,33920
207,33920
208,33856
209,33856
210,33920
211,33984
212,34048
213,34176
214,34304
215,34368
216,34368
217,34368
218,34432
219,34496
220,34496
221,34560
222,34624
223,34752
224,34752
225,34688
226,34560
227,34368
228,34304
229,34176
230,33984
231,33728
232,33536
233,33344
234,33152
235,33088
236,33088
237,33152
238,33152
239,33216
240,33280
241,33344
242,33344
243,33408
244,33472
245,33472
246,33472
247,33536
248,33536
249,33472
250,33408
251,33472
252,33984
253,34624
254,35904
255,37952
256,40896
257,44352
258,47168
259,47808
260,46656
261,43712
262,39552
263,35200
264,31488
265,28992
266,27648
267,27200
268,27456
269,28224
270,29184
271,30016
272,30720
273,31360
274,31744
275,32064
276,32320
277,32512
278,32704
279,32832
280,32960
281,33024
282,33152
283,33216
284,33280
285,33344
286,33408
287,33472
288,33536
289,33536
290,33600
291,33664
292,33664
293,33728
294,33792
295,33792
296,33792
297,33856
298,33920
299,33984
300,33984
301,34048
302,34112
303,34176
304,34240
305,34240
306,34304
307,34368
308,34432
309,34432
310,34432
311,34432
312,34432
313,34368
314,34368
315,34304
316,34304
317,34240
318,34176
319,34112
320,34048
321,33920
322,33856
323,33792
324,33664
325,33536
326,33408
327,33344
328,33216
329,33152
330,33088
331,32960
332,32960
333,32960
334,32896
335,32896
336,32896
337,32960
338,32960
339,32960
340,33024
341,33152
342,33152
343,33152
344,33216
345,33280
346,33280
347,33344
348,33472
349,33472
350,33536
351,33600
352,33600
353,33664
354,33728
355,33728
356,33792
357,33792
358,33792
359,33792
360,33792
361,33856
362,33856
363,33856
364,33856
365,33856
366,33856
367,33856
368,33856
369,33792
370,33792
371,33856
372,33792
373,33792
374,33792
375,33728
376,33728
377,33728
378,33792
379,33792
380,33728
381,33728
382,33728
383,33728
384,33728
385,33728
386,33792
387,33792
388,33728
389,33728
390,33728
391,33728
392,33728
393,33792
394,33792
395,33792
396,33792
397,33792
398,33792
399,33856
400,33856
401,33792
402,33792
403,33792
404,33792
405,33792
406,33792
407,33856
408,33856
409,33920
410,33984
411,34048
412,34176
413,34240
414,34304
415,34368
416,34368
417,34432
418,34432
419,34432
420,34560
421,34624
422,34688
423,34624
424,34560
425,34432
426,34304
427,34176
428,33984
429,33664
430,33408
431,33216
432,33152
433,33088
434,33088
435,33152
436,33152
437,33216
438,33280
439,33344
440,33344
441,33344
442,33408
443,33408
444,33472
445,33472
446,33408
447,33344
448,33280
449,33280
450,33536
451,34240
452,35520
453,37696
454,41088
455,44096
456,46912
457,48000
458,47104
459,44288
460,40128
461,35712
462,31872
463,29248
464,27712
465,27136
466,27200
467,27904
468,28800
469,29696
470,30400
471,31040
472,31488
473,31808
474,32064
475,32320
476,32512
477,32704
478,32768
479,32832
480,32960
481,33024
482,33152
483,33216
484,33280
485,33344
486,33408
487,33472
488,33536
489,33536
490,33664
491,33728
492,33728
493,33792
494,33856
495,33856
496,33856
497,33920
498,33984
499,34048
500,34112
501,34176
502,34240
503,34304
504,34304
505,34368
506,34432
507,34432
508,34432
509,34496
510,34496
511,34560
512,34496
513,34432
514,34432
515,34368
516,34304
517,34240
518,34176
519,34112
520,33984
521,33856
522,33728
523,33600
524,33472
525,33408
526,33280
527,33216
528,33152
529,33088
530,33024
531,32960
532,32896
533,32832
534,32832
535,32896
536,32960
537,32960
538,32960
539,32960
540,33088
541,33152
542,33152
543,33216
544,33344
545,33344
546,33408
547,33408
548,33472
549,33536
550,33600
551,33600
552,33664
553,33664
554,33664
555,33728
556,33728
557,33792
558,33792
559,33792
560,33792
561,33792
562,33792
563,33856
564,33856
565,33856
566,33792
567,33792
568,33792
569,33792
570,33792
571,33792
572,33792
573,33792
574,33792
575,33792
576,33728
577,33728
578,33728
579,33728
580,33664
581,33664
582,33728
583,33728
584,33728
585,33728
586,33728
587,33728
588,33792
589,33792
590,33792
591,33792
592,33792
593,33792
594,33792
595,33792
596,33792
597,33792
598,33728
599,33728
600,33792
601,33792
602,33792
603,33920
604,34048
605,34112
606,34240
607,34304
608,34368
609,34432
610,34496
611,34496
612,34560
613,34560
614,34688
615,34688
616,34688
617,34624
618,34496
619,34432
620,34304
621,34176
622,33984
623,33664
624,33472
625,33280
626,33216
627,33152
628,33152
629,33152
630,33152
631,33216
632,33280
633,33344
634,33408
635,33472
636,33472
637,33472
638,33472
639,33472
640,33408
641,33408
642,33280
643,33408
644,33920
645,34880
646,36608
647,39104
648,42432
649,45888
650,47680
651,47552
652,45568
653,41920
654,37568
655,33408
656,30272
657,27840
658,27328
659,27264
660,27776
661,28672
662,29568
663,30400
664,31040
665,31552
666,31936
667,32192
668,32448
669,32640
670,32768
671,32896
672,33024
673,33152
674,33216
675,33280
676,33344
677,33408
678,33536
679,33600
680,33600
681,33664
682,33728
683,33728
684,33792
685,33856
686,33920
687,33984
688,33920
689,33984
690,33984
691,34048
692,34112
693,34176
694,34240
695,34304
696,34368
697,34368
698,34432
699,34496
700,34560
701,34560
702,34560
703,34560
704,34496
705,34496
706,34432
707,34432
708,34368
709,34240
710,34176
711,34112
712,34048
713,33984
714,33920
715,33856
716,33728
717,33600
718,33536
719,33408
720,33344
721,33216
722,33152
723,33088
724,33024
725,33024
726,32960
727,33024
728,33088
729,33088
730,33024
731,33088
732,33152
733,33152
734,33280
735,33344
736,33408
737,33472
738,33472
739,33536
740,33536
741,33600
742,33664
743,33664
744,33728
745,33792
746,33792
747,33792
748,33856
749,33856
750,33856
751,33792
752,33856
753,33856
754,33856
755,33856
756,33920
757,33920
758,33920
759,33984
760,33984
761,33920
762,33920
763,33856
764,33920
765,33856
766,33856
767,33920
768,33920
769,33856
770,33856
771,33856
772,33856
773,33856
774,33856
775,33856
776,33856
777,33856
778,33792
779,33856
780,33856
781,33856
782,33920
783,33920
784,33856
785,33920
786,33856
787,33856
788,33856
789,33856
790,33856
791,33920
792,33856
793,33856
794,33920
795,33920
796,33984
797,34048
798,34176
799,34240
800,34368
801,34368
802,34432
803,34496
804,34560
805,34560
806,34624
807,34624
808,34880
809,34880
810,34880
811,34752
812,34624
813,34496
814,34432
815,34176
816,33920
817,33664
818,33472
819,33280
820,33216
821,33216
822,33152
823,33280
824,33280
825,33280
826,33344
827,33408
828,33472
829,33472
830,33472
831,33536
832,33536
833,33536
834,33536
835,33472
836,33472
837,33408
838,34112
839,35200
840,36864
841,39488
842,42816
843,46016
844,47744
845,47424
846,45184
847,41472
848,37120
849,33088
850,30080
851,28160
852,28096
853,27392
854,27968
855,28928
856,29824
857,30592
858,31232
859,31616
860,32000
861,32320
862,32512
863,32704
864,32896
865,33024
866,33152
867,33152
868,33280
869,33408
870,33472
871,33536
872,33600
873,33600
874,33664
875,33728
876,33728
877,33728
878,33792
879,33856
880,33920
881,33984
882,33920
883,34048
884,34112
885,34176
886,34240
887,34240
888,34304
889,34304
890,34368
891,34432
892,34496
893,34496
894,34560
895,34560
896,34560
897,34560
898,34560
899,34496
900,34432
901,34368
902,34304
903,34240
904,34176
905,34112
906,34048
907,33984
908,33856
909,33728
910,33664
911,33536
912,33472
913,33344
914,33280
915,33152
916,33088
917,33024
918,32960
919,32960
920,32960
921,33024
922,33024
923,33088
924,33088
925,33088
926,33152
927,33152
928,33216
929,33280
930,33344
931,33408
932,33472
933,33536
934,33600
935,33600
936,33664
937,33664
938,33728
939,33792
940,33792
941,33856
942,33856
943,33856
944,33920
945,33920
946,33856
947,33856
948,33920
949,33920
950,33920
951,33920
952,33920
953,33920
954,33920
955,33920
956,33920
957,33920
958,33920
959,33920
960,33856
961,33856
962,33792
963,33792
964,33792
965,33792
966,33792
967,33856
968,33856
969,33856
970,33856
971,33856
972,33856
973,33856
974,33792
975,33792
976,33792
977,33792
978,33856
979,33856
980,33856
981,33856
982,33856
983,33856
984,33856
985,33856
986,33856
987,33856
988,33856
989,33920
990,33984
991,33984
992,33984
993,33984
994,33984
995,33984
996,33984
997,33984
998,33984
999,34048
1000,34176
1001,34240
1002,34368
1003,34432
1004,34496
1005,34496
1006,34560
1007,34560
1008,34560
1009,34560
1010,34688
1011,34752
1012,34816
1013,34752
1014,34688
1015,34560
1016,34432
1017,34304
1018,34112
1019,33856
1020,33600
1021,33408
1022,33280
1023,33280
1024,33280
1025,33280
1026,33344
1027,33408
1028,33408
1029,33408
1030,33472
1031,33472
1032,33536
1033,33536
1034,33536
1035,33600
1036,33600
1037,33600
1038,33536
1039,33536
1040,33792
1041,34496
1042,35712
1043,37760
1044,40704
1045,44160
1046,46976
1047,47872
1048,46848
1049,43968
1050,39872
1051,35520
1052,31808
1053,29184
1054,27712
1055,27264
1056,27456
1057,28160
1058,29056
1059,29888
1060,30656
1061,31168
1062,31616
1063,31936
1064,32256
1065,32448
1066,32576
1067,32768
1068,32896
1069,33024
1070,33088
1071,33152
1072,33280
1073,33344
1074,33408
1075,33472
1076,33472
1077,33536
1078,33600
1079,33600
1080,33664
1081,33728
1082,33792
1083,33856
1084,33856
1085,33856
1086,33920
1087,33920
1088,33984
1089,34048
1090,34112
1091,34112
1092,34176
1093,34240
1094,34240
1095,34304
1096,34368
1097,34368
1098,34432
1099,34368
1100,34368
1101,34304
1102,34304
1103,34240
1104,34176
1105,34112
1106,34048
1107,33984
1108,33920
1109,33856
1110,33792
1111,33728
1112,33664
1113,33536
1114,33472
1115,33408
1116,33344
1117,33216
1118,33152
1119,33088
1120,33088
1121,33024
1122,33024
1123,32960
1124,32960
1125,33024
1126,33024
1127,33088
1128,33152
1129,33216
1130,33280
1131,33344
1132,33344
1133,33344
1134,33408
1135,33472
1136,33472
1137,33536
1138,33600
1139,33600
1140,33664
1141,33664
1142,33728
1143,33792
1144,33792
1145,33856
1146,33856
1147,33920
1148,33920
1149,33920
1150,33984
1151,33984
1152,33984
1153,33984
1154,33984
1155,33984
1156,33984
1157,33984
1158,33984
1159,33984
1160,33984
1161,33984
1162,33984
1163,33920
1164,33920
1165,33920
1166,33920
1167,33920
1168,33920
1169,33920
1170,33920
1171,33920
1172,33984
1173,33984
1174,33920
1175,33856
1176,33856
1177,33856
1178,33856
1179,33856
1180,33920
1181,33920
1182,33920
1183,33920
1184,33920
1185,33920
1186,33920
1187,33920
1188,33984
1189,33984
1190,33920
1191,33920
1192,33984
1193,33984
1194,33984
1195,33984
1196,33920
1197,33920
1198,33920
1199,33920
1200,33920
1201,33984
1202,34048
1203,34112
1204,34240
1205,34368
1206,34496
1207,34560
1208,34560
1209,34560
1210,34560
1211,34624
1212,34624
1213,34752
1214,34816
1215,34944
1216,34944
1217,34880
1218,34752
1219,34688
1220,34624
1221,34496
1222,34240
1223,33984
1224,33728
1225,33536
1226,33408
1227,33408
1228,33408
1229,33408
1230,33472
1231,33536
1232,33600
1233,33600
1234,33664
1235,33664
1236,33728
1237,33728
1238,33792
1239,33792
1240,33792
1241,33728
1242,33600
1243,33536
1244,33792
1245,34496
1246,35840
1247,37952
1248,41216
1249,44416
1250,47168
1251,48192
1252,47360
1253,44544
1254,40512
1255,36096
1256,32320
1257,29632
1258,28032
1259,27392
1260,27456
1261,28096
1262,28992
1263,29824
1264,30592
1265,31232
1266,31680
1267,32064
1268,32384
1269,32576
1270,32768
1271,32896
1272,33024
1273,33152
1274,33216
1275,33344
1276,33472
1277,33536
1278,33600
1279,33664
1280,33664
1281,33664
1282,33728
1283,33792
1284,33856
1285,33920
1286,33920
1287,33984
1288,34048
1289,34048
1290,34112
1291,34112
1292,34176
1293,34240
1294,34304
1295,34304
1296,34368
1297,34368
1298,34432
1299,34496
1300,34496
1301,34560
1302,34560
1303,34560
1304,34624
1305,34624
1306,34624
1307,34560
1308,34496
1309,34432
1310,34368
1311,34304
1312,34240
1313,34176
1314,34112
1315,34048
1316,33920
1317,33792
1318,33664
1319,33600
1320,33472
1321,33408
1322,33344
1323,33280
1324,33152
1325,33088
1326,33088
1327,33088
1328,33088
1329,33152
1330,33152
1331,33216
1332,33216
1333,33280
1334,33344
1335,33408
1336,33472
1337,33472
1338,33536
1339,33600
1340,33664
1341,33728
1342,33792
1343,33856
1344,33856
1345,33856
1346,33920
1347,33984
1348,33984
1349,33984
1350,34048
1351,34048
1352,34112
1353,34112
1354,34112
1355,34112
1356,34112
1357,34176
1358,34176
1359,34176
1360,34176
1361,34176
1362,34176
1363,34176
1364,34112
1365,34112
1366,34112
1367,34112
1368,34176
1369,34176
1370,34112
1371,34112
1372,34112
1373,34112
1374,34112
1375,34048
1376,34048
1377,34048
1378,34048
1379,34048
1380,34048
1381,34048
1382,34048
1383,34048
1384,34048
1385,34112
1386,34112
1387,34048
1388,34048
1389,34048
1390,34048
1391,34048
1392,34112
1393,34112
1394,34112
1395,34048
1396,34048
1397,34112
1398,34112
1399,34112
1400,34176
1401,34112
1402,34112
1403,34112
1404,34112
1405,34176
1406,34304
1407,34432
1408,34496
1409,34624
1410,34624
1411,34624
1412,34624
1413,34624
1414,34688
1415,34752
1416,34816
1417,34880
1418,34880
1419,34816
1420,34752
1421,34688
1422,34624
1423,34496
1424,34240
1425,33984
1426,33728
1427,33536
1428,33408
1429,33408
1430,33408
1431,33472
1432,33536
1433,33536
1434,33600
1435,33600
1436,33664
1437,33664
1438,33728
1439,33728
1440,33728
1441,33728
1442,33728
1443,33664
1444,33472
1445,33472
1446,33856
1447,34688
1448,36288
1449,38720
1450,41920
1451,45248
1452,47808
1453,48192
1454,46720
1455,43456
1456,39168
1457,34816
1458,31232
1459,28928
1460,27776
1461,27392
1462,27712
1463,28480
1464,29312
1465,30208
1466,30848
1467,31424
1468,31872
1469,32192
1470,32448
1471,32640
1472,32832
1473,32960
1474,33088
1475,33152
1476,33280
1477,33344
1478,33408
1479,33472
1480,33536
1481,33600
1482,33664
1483,33728
1484,33728
1485,33792
1486,33792
1487,33856
1488,33920
1489,33920
1490,33984
1491,33984
1492,34048
1493,34112
1494,34176
1495,34240
1496,34240
1497,34304
1498,34368
1499,34368
1500,34432
1501,34496
1502,34560
1503,34560
1504,34560
1505,34560
1506,34560
1507,34560
1508,34560
1509,34496
1510,34432
1511,34368
1512,34304
1513,34176
1514,34112
1515,34048
1516,33984
1517,33856
1518,33792
1519,33664
1520,33536
1521,33408
1522,33344
1523,33280
1524,33216
1525,33152
1526,33152
1527,33088
1528,33088
1529,33152
1530,33152
1531,33152
1532,33152
1533,33216
1534,33216
1535,33280
1536,33280
1537,33344
1538,33344
1539,33408
1540,33472
1541,33536
1542,33600
1543,33600
1544,33664
1545,33728
1546,33728
1547,33792
1548,33856
1549,33856
1550,33856
1551,33920
1552,33920
1553,33920
1554,33920
1555,33984
1556,33984
1557,33984
1558,33920
1559,33984
1560,33984
1561,33984
1562,33984
1563,33984
1564,33984
1565,33920
1566,33920
1567,33856
1568,33920
1569,33856
1570,33856
1571,33856
1572,33856
1573,33856
1574,33792
1575,33792
1576,33792
1577,33792
1578,33792
1579,33792
1580,33792
1581,33792
1582,33792
1583,33856
1584,33856
1585,33856
1586,33856
1587,33856
1588,33856
1589,33920
1590,33920
1591,33920
1592,33856
1593,33856
1594,33856
1595,33856
1596,33856
1597,33920
1598,33920
1599,33920
1600,33920
1601,33920
1602,33984
1603,33920
1604,33984
1605,33984
1606,34048
1607,34176
1608,34304
1609,34432
1610,34496
1611,34496
1612,34496
1613,34496
1614,34560
1615,34560
1616,34624
1617,34752
1618,34816
1619,34752
1620,34688
1621,34560
1622,34496
1623,34432
1624,34304
1625,34048
1626,33856
1627,33600
1628,33408
1629,33280
1630,33280
1631,33280
1632,33344
1633,33344
1634,33408
1635,33472
1636,33536
1637,33600
1638,33600
1639,33664
1640,33664
1641,33664
1642,33664
1643,33664
1644,33600
1645,33472
1646,33536
1647,33984
1648,34880
1649,36416
1650,38848
1651,42048
1652,45376
1653,47680
1654,47808
1655,46144
1656,42688
1657,38336
1658,34112
1659,30720
1660,28544
1661,27520
1662,27264
1663,27712
1664,28544
1665,29440
1666,30272
1667,30912
1668,31488
1669,31872
1670,32192
1671,32448
1672,32640
1673,32832
1674,32960
1675,33088
1676,33152
1677,33280
1678,33344
1679,33408
1680,33472
1681,33600
1682,33664
1683,33664
1684,33728
1685,33728
1686,33792
1687,33792
1688,33856
1689,33856
1690,33920
1691,33984
1692,34048
1693,34112
1694,34112
1695,34176
1696,34176
1697,34240
1698,34304
1699,34304
1700,34368
1701,34368
1702,34432
1703,34496
1704,34560
1705,34560
1706,34560
1707,34560
1708,34560
1709,34496
1710,34432
1711,34368
1712,34304
1713,34240
1714,34176
1715,34112
1716,33984
1717,33856
1718,33792
1719,33728
1720,33600
1721,33472
1722,33344
1723,33280
1724,33152
1725,33088
1726,33024
1727,32960
1728,32960
1729,32960
1730,32960
1731,32960
1732,33024
1733,33024
1734,33088
1735,33088
1736,33152
1737,33216
1738,33216
1739,33280
1740,33344
1741,33344
1742,33408
1743,33472
1744,33536
1745,33600
1746,33664
1747,33664
1748,33664
1749,33664
1750,33728
1751,33728
1752,33792
1753,33856
1754,33856
1755,33920
1756,33920
1757,33856
1758,33856
1759,33920
1760,33920
1761,33920
1762,33920
1763,33920
1764,33920
1765,33920
1766,33856
1767,33856
1768,33856
1769,33856
1770,33920
1771,33920
1772,33920
1773,33920
1774,33856
1775,33856
1776,33856
1777,33856
1778,33856
1779,33856
1780,33856
1781,33856
1782,33856
1783,33856
1784,33856
1785,33856
1786,33856
1787,33856
1788,33920
1789,33920
1790,33920
1791,33984
1792,33984
1793,33984
1794,33920
1795,33920
1796,33920
1797,33920
1798,33920
1799,33984
1800,33920
1801,33920
1802,33920
1803,33984
1804,33984
1805,33984
1806,33984
1807,33984
1808,34048
1809,34112
1810,34176
1811,34304
1812,34432
1813,34496
1814,34496
1815,34496
1816,34560
1817,34560
1818,34624
1819,34688
1820,34816
1821,34880
1822,34880
1823,34752
1824,34624
1825,34560
1826,34496
1827,34368
1828,34240
1829,33984
1830,33728
1831,33536
1832,33472
1833,33408
1834,33408
1835,33408
1836,33472
1837,33536
1838,33600
1839,33600
1840,33664
1841,33664
1842,33664
1843,33664
1844,33664
1845,33664
1846,33664
1847,33664
1848,33600
1849,33664
1850,33984
1851,34752
1852,36032
1853,38144
1854,41088
1855,44480
1856,47168
1857,47936
1858,46720
1859,43776
1860,39680
1861,35392
1862,31744
1863,29248
1864,27840
1865,27392
1866,27648
1867,28352
1868,29312
1869,30144
1870,30848
1871,31360
1872,31872
1873,32192
1874,32448
1875,32704
1876,32896
1877,33024
1878,33088
1879,33152
1880,33280
1881,33344
1882,33472
1883,33472
1884,33600
1885,33664
1886,33728
1887,33728
1888,33792
1889,33792
1890,33856
1891,33920
1892,33920
1893,33984
1894,34048
1895,34048
1896,34112
1897,34176
1898,34176
1899,34240
1900,34304
1901,34368
1902,34368
1903,34496
1904,34496
1905,34560
1906,34560
1907,34624
1908,34624
1909,34624
1910,34624
1911,34624
1912,34624
1913,34560
1914,34496
1915,34432
1916,34368
1917,34304
1918,34176
1919,34112
1920,34048
1921,33920
1922,33792
1923,33664
1924,33536
1925,33408
1926,33344
1927,33216
1928,33152
1929,33088
1930,33088
1931,33024
1932,32960
1933,33024
1934,33024
1935,33024
1936,33024
1937,33024
1938,33088
1939,33152
1940,33216
1941,33216
1942,33280
1943,33344
1944,33344
1945,33408
1946,33472
1947,33536
1948,33600
1949,33600
1950,33664
1951,33664
1952,33728
1953,33728
1954,33792
1955,33792
1956,33856
1957,33856
1958,33920
1959,33920
1960,33920
1961,33920
1962,33984
1963,33984
1964,33984
1965,33920
1966,33920
1967,33920
1968,33984
1969,33920
1970,33920
1971,33920
1972,33920
1973,33920
1974,33920
1975,33920
1976,33856
1977,33856
1978,33856
1979,33856
1980,33856
1981,33856
1982,33856
1983,33920
1984,33920
1985,33920
1986,33920
1987,33920
1988,33920
1989,33856
1990,33920
1991,33920
1992,33920
1993,33920
1994,33920
1995,33920
1996,33920
1997,33920
1998,33920
1999,33920
2000,33920
2001,33920
2002,33920
2003,33920
2004,33920
2005,33984
2006,33984
2007,33984
2008,33984
2009,33920
2010,33920
2011,33920
2012,33920
2013,34048
2014,34112
2015,34176
2016,34304
2017,34368
2018,34432
2019,34432
2020,34432
2021,34432
2022,34496
2023,34496
2024,34624
2025,34752
2026,34816
2027,34752
2028,34624
2029,34432
2030,34368
2031,34304
2032,34240
2033,34048
2034,33792
2035,33600
2036,33408
2037,33280
2038,33280
2039,33280
2040,33344
2041,33344
2042,33408
2043,33472
2044,33472
2045,33536
2046,33536
2047,33600
2048,33600
2049,33664
2050,33664
2051,33600
2052,33536
2053,33472
2054,33536
2055,34048
2056,35072
2057,36736
2058,39616
2059,42624
2060,45888
2061,47872
2062,47872
2063,46016
2064,42560
2065,38208
2066,33984
2067,30656
2068,28544
2069,27456
2070,27200
2071,27584
2072,28416
2073,29376
2074,30208
2075,30848
2076,31424
2077,31872
2078,32192
2079,32448
2080,32640
2081,32832
2082,32960
2083,33024
2084,33088
2085,33152
2086,33216
2087,33280
2088,33408
2089,33472
2090,33600
2091,33600
2092,33664
2093,33728
2094,33792
2095,33792
2096,33792
2097,33856
2098,33920
2099,33920
2100,33984
2101,34048
2102,34112
2103,34176
2104,34176
2105,34240
2106,34240
2107,34368
2108,34432
2109,34496
2110,34560
2111,34560
2112,34624
2113,34688
2114,34688
2115,34688
2116,34624
2117,34560
2118,34496
2119,34432
2120,34368
2121,34368
2122,34304
2123,34240
2124,34176
2125,34048
2126,33920
2127,33792
2128,33728
2129,33536
2130,33472
2131,33344
2132,33280
2133,33216
2134,33152
2135,33088
2136,33088
2137,33024
2138,33024
2139,33088
2140,33088
2141,33088
2142,33152
2143,33152
2144,33216
2145,33280
2146,33344
2147,33408
2148,33472
2149,33472
2150,33472
2151,33536
2152,33600
2153,33664
2154,33664
2155,33728
2156,33792
2157,33792
2158,33856
2159,33920
2160,33920
2161,33920
2162,33920
2163,33984
2164,33984
2165,33984
2166,33984
2167,33920
2168,33920
2169,33920
2170,33920
2171,33984
2172,33984
2173,33984
2174,33984
2175,33984
2176,33984
2177,33984
2178,33984
2179,33984
2180,33984
2181,33984
2182,33920
2183,33920
2184,33856
2185,33856
2186,33856
2187,33856
2188,33856
2189,33856
2190,33856
2191,33856
2192,33856
2193,33856
2194,33920
2195,33856
2196,33856
2197,33856
2198,33856
2199,33920
2200,33920
2201,33920
2202,33920
2203,33920
2204,33984
2205,33984
2206,33984
2207,34048
2208,34048
2209,34048
2210,34048
2211,33984
2212,33984
2213,33984
2214,33984
2215,33984
2216,33984
2217,34048
2218,34112
2219,34176
2220,34240
2221,34368
2222,34432
2223,34432
2224,34432
2225,34432
2226,34432
2227,34432
2228,34496
2229,34560
2230,34688
2231,34752
2232,34688
2233,34624
2234,34496
2235,34432
2236,34368
2237,34240
2238,34048
2239,33792
2240,33600
2241,33472
2242,33408
2243,33344
2244,33408
2245,33408
2246,33472
2247,33536
2248,33536
2249,33536
2250,33600
2251,33600
2252,33664
2253,33664
2254,33664
2255,33664
2256,33664
2257,33536
2258,33408
2259,33536
2260,34048
2261,35136
2262,36992
2263,39552
2264,42944
2265,46144
2266,48000
2267,47872
2268,45824
2269,42176
2270,37824
2271,33664
2272,30464
2273,28416
2274,27456
2275,27200
2276,27648
2277,28544
2278,29440
2279,30336
2280,31040
2281,31552
2282,31936
2283,32256
2284,32512
2285,32704
2286,32832
2287,32960
2288,33088
2289,33152
2290,33216
2291,33280
2292,33408
2293,33408
2294,33472
2295,33536
2296,33600
2297,33664
2298,33728
2299,33728
2300,33792
2301,33856
2302,33856
2303,33856
2304,33920
2305,33984
2306,33984
2307,34048
2308,34112
2309,34176
2310,34176
2311,34176
2312,34304
2313,34368
2314,34432
2315,34496
2316,34560
2317,34560
2318,34624
2319,34624
2320,34560
2321,34560
2322,34560
2323,34496
2324,34432
2325,34368
2326,34240
2327,34176
2328,34048
2329,33920
2330,33856
2331,33728
2332,33664
2333,33536
2334,33408
2335,33280
2336,33216
2337,33088
2338,33024
2339,33024
2340,32960
2341,32960
2342,32896
2343,32960
2344,32960
2345,32960
2346,32960
2347,33024
2348,33024
2349,33088
2350,33152
2351,33216
2352,33344
2353,33344
2354,33408
2355,33408
2356,33472
2357,33536
2358,33600
2359,33600
2360,33664
2361,33728
2362,33792
2363,33792
2364,33792
2365,33856
2366,33856
2367,33856
2368,33856
2369,33856
2370,33856
2371,33856
2372,33920
2373,33920
2374,33920
2375,33920
2376,33984
2377,33984
2378,33984
2379,33984
2380,33984
2381,33984
2382,33984
2383,33984
2384,33920
2385,33920
2386,33920
2387,33920
2388,33920
2389,33984
2390,33920
2391,33920
2392,33856
2393,33856
2394,33856
2395,33856
2396,33856
2397,33856
2398,33856
2399,33856
2400,33856
2401,33856
2402,33920
2403,33920
2404,33856
2405,33920
2406,33920
2407,33920
2408,33920
2409,33920
2410,33920
2411,33984
2412,33920
2413,33920
2414,33920
2415,33920
2416,33920
2417,33920
2418,33920
2419,33920
2420,33920
2421,33920
2422,33920
2423,33984
2424,33984
2425,33984
2426,34048
2427,34176
2428,34304
2429,34368
2430,34432
2431,34432
2432,34432
2433,34432
2434,34432
2435,34432
2436,34496
2437,34560
2438,34688
2439,34752
2440,34688
2441,34560
2442,34496
2443,34432
2444,34368
2445,34304
2446,34048
2447,33792
2448,33600
2449,33472
2450,33344
2451,33344
2452,33344
2453,33344
2454,33408
2455,33472
2456,33472
2457,33536
2458,33536
2459,33536
2460,33600
2461,33600
2462,33664
2463,33664
2464,33600
2465,33536
2466,33472
2467,33728
2468,34496
2469,35712
2470,37696
2471,40576
2472,44160
2473,46912
2474,48064
2475,47168
2476,44480
2477,40448
2478,36032
2479,32128
2480,29440
2481,27840
2482,27200
2483,27328
2484,27968
2485,28928
2486,29824
2487,30592
2488,31168
2489,31616
2490,32000
2491,32320
2492,32512
2493,32704
2494,32832
2495,32960
2496,33088
2497,33216
2498,33280
2499,33344
2500,33408
2501,33472
2502,33600
2503,33600
2504,33600
2505,33664
2506,33728
2507,33792
2508,33792
2509,33856
2510,33856
2511,33920
2512,33920
2513,33984
2514,34048
2515,34048
2516,34112
2517,34176
2518,34240
2519,34304
2520,34368
2521,34368
2522,34432
2523,34496
2524,34560
2525,34560
2526,34560
2527,34624
2528,34624
2529,34624
2530,34624
2531,34496
2532,34432
2533,34368
2534,34304
2535,34240
2536,34176
2537,34048
2538,33920
2539,33856
2540,33728
2541,33600
2542,33472
2543,33344
2544,33216
2545,33152
2546,33024
2547,32960
2548,32896
2549,32896
2550,32896
2551,32896
2552,32960
2553,33024
2554,33088
2555,33088
2556,33152
2557,33152
2558,33216
2559,33216
2560,33280
2561,33344
2562,33344
2563,33408
2564,33472
2565,33536
2566,33536
2567,33600
2568,33664
2569,33728
2570,33728
2571,33728
2572,33792
2573,33856
2574,33856
2575,33856
2576,33856
2577,33920
2578,33856
2579,33920
2580,33920
2581,33920
2582,33920
2583,33920
2584,33920
2585,33920
2586,33920
2587,33920
2588,33920
2589,33920
2590,33920
2591,33920
2592,33920
2593,33920
2594,33856
2595,33856
2596,33856
2597,33856
2598,33856
2599,33792
2600,33856
2601,33856
2602,33792
2603,33856
2604,33856
2605,33856
2606,33856
2607,33792
2608,33792
2609,33792
2610,33792
2611,33792
2612,33792
2613,33856
2614,33792
2615,33856
2616,33856
2617,33856
2618,33856
2619,33856
2620,33856
2621,33920
2622,33856
2623,33920
2624,33920
2625,33984
2626,33984
2627,33984
2628,33984
2629,33984
2630,33984
2631,33920
2632,33920
2633,33920
2634,33984
2635,33984
2636,34112
2637,34240
2638,34304
2639,34368
2640,34432
2641,34368
2642,34368
2643,34432
2644,34368
2645,34496
2646,34560
2647,34624
2648,34752
2649,34752
2650,34688
2651,34496
2652,34432
2653,34368
2654,34304
2655,34176
2656,33920
2657,33664
2658,33472
2659,33344
2660,33344
2661,33280
2662,33280
2663,33344
2664,33408
2665,33408
2666,33472
2667,33472
2668,33536
2669,33536
2670,33536
2671,33600
2672,33600
2673,33600
2674,33600
2675,33472
2676,33472
2677,33728
2678,34432
2679,35712
2680,37760
2681,42240
2682,42624
2683,46976
2684,48000
2685,46976
2686,44224
2687,40128
2688,35712
2689,31936
2690,29312
2691,27776
2692,27200
2693,27328
2694,27968
2695,28928
2696,29888
2697,30592
2698,31232
2699,31680
2700,32000
2701,32320
2702,32512
2703,32704
2704,32832
2705,32960
2706,33024
2707,33088
2708,33152
2709,33280
2710,33344
2711,33472
2712,33408
2713,33536
2714,33600
2715,33664
2716,33664
2717,33728
2718,33728
2719,33792
2720,33792
2721,33856
2722,33856
2723,33920
2724,33984
2725,34048
2726,34112
2727,34048
2728,34176
2729,34176
2730,34240
2731,34304
2732,34368
2733,34432
2734,34496
2735,34496
2736,34560
2737,34624
2738,34560
2739,34560
2740,34496
2741,34432
2742,34368
2743,34304
2744,34240
2745,34176
2746,34048
2747,33984
2748,33856
2749,33728
2750,33600
2751,33472
2752,33344
2753,33216
2754,33088
2755,33024
2756,32896
2757,32896
2758,32832
2759,32832
2760,32832
2761,32832
2762,32832
2763,32832
2764,32896
2765,32896
2766,32960
2767,33024
2768,33024
2769,33088
2770,33152
2771,33280
2772,33216
2773,33280
2774,33344
2775,33408
2776,33408
2777,33472
2778,33472
2779,33536
2780,33536
2781,33600
2782,33600
2783,33600
2784,33664
2785,33728
2786,33728
2787,33728
2788,33728
2789,33728
2790,33728
2791,33728
2792,33792
2793,33792
2794,33856
2795,33856
2796,33856
2797,33792
2798,33792
2799,33792
2800,33792
2801,33856
2802,33856
2803,33792
2804,33792
2805,33792
2806,33792
2807,33792
2808,33792
2809,33792
2810,33792
2811,33792
2812,33792
2813,33792
2814,33728
2815,33728
2816,33792
2817,33728
2818,33792
2819,33792
2820,33792
2821,33792
2822,33792
2823,33792
2824,33792
2825,33792
2826,33792
2827,33792
2828,33856
2829,33856
2830,33856
2831,33856
2832,33792
2833,33856
2834,33856
2835,33856
2836,33792
2837,33792
2838,33792
2839,33792
2840,33792
2841,33856
2842,33920
2843,34048
2844,34112
2845,34176
2846,34240
2847,34240
2848,34176
2849,34176
2850,34304
2851,34368
2852,34368
2853,34496
2854,34560
2855,34688
2856,34688
2857,34624
2858,34560
2859,34432
2860,34240
2861,33920
2862,33856
2863,33600
2864,33344
2865,33216
2866,33152
2867,33152
2868,33152
2869,33216
2870,33280
2871,33280
2872,33408
2873,33472
2874,33472
2875,33472
2876,33408
2877,33472
2878,33536
2879,33600
2880,33536
2881,33344
2882,33152
2883,33216
2884,33536
2885,34432
2886,35968
2887,38400
2888,41664
2889,44992
2890,47360
2891,47808
2892,46400
2893,43200
2894,38912
2895,34560
2896,30912
2897,28480
2898,27264
2899,26816
2900,27136
2901,27904
2902,28864
2903,29760
2904,30464
2905,31040
2906,31488
2907,31808
2908,32064
2909,32320
2910,32512
2911,32640
2912,32832
2913,32896
2914,32960
2915,33024
2916,33088
2917,33216
2918,33216
2919,33280
2920,33344
2921,33408
2922,33472
2923,33472
2924,33536
2925,33600
2926,33728
2927,33856
2928,33920
2929,33920
2930,33856
2931,33856
2932,33920
2933,34048
2934,34176
2935,34304
2936,34304
2937,34304
2938,34240
2939,34304
2940,34368
2941,34496
2942,34624
2943,34624
2944,34560
2945,34560
2946,34560
2947,34560
2948,34496
2949,34496
2950,34432
2951,34432
2952,34368
2953,34240
2954,34048
2955,33856
2956,33728
2957,33664
2958,33600
2959,33472
2960,33344
2961,33280
2962,33280
2963,33408
2964,33408
2965,33280
2966,33152
2967,33024
2968,33024
2969,33024
2970,33152
2971,33280
2972,33408
2973,33472
2974,33472
2975,33408
2976,33408
2977,33408
2978,33536
2979,33600
2980,33600
2981,33664
2982,33728
2983,33792
2984,33728
2985,33728
2986,33792
2987,33792
2988,33792
2989,33920
2990,34048
2991,34176
2992,34240
2993,34240
2994,34240
2995,34240
2996,34240
2997,34240
2998,34112
2999,34048
3000,33984
3001,33856
3002,33792
3003,33792
3004,33792
3005,33792
3006,33728
3007,33792
3008,33856
3009,33792
3010,33856
3011,33920
3012,34176
3013,34560
3014,34752
3015,34752
3016,34368
3017,33920
3018,33536
3019,33344
3020,33344
3021,33408
3022,33408
3023,33536
3024,33664
3025,33728
3026,33920
3027,34048
3028,34048
3029,34048
3030,34048
3031,33984
3032,33984
3033,33920
3034,33792
3035,33600
3036,33600
3037,33728
3038,33664
3039,33536
3040,33536
3041,33600
3042,33728
3043,33856
3044,33984
3045,34112
3046,34112
3047,34048
3048,34112
3049,34112
3050,34176
3051,34240
3052,34176
3053,34176
3054,34240
3055,34240
3056,34176
3057,34048
3058,33792
3059,33728
3060,33728
3061,33536
3062,33216
3063,32896
3064,32640
3065,32512
3066,32512
3067,32576
3068,32576
3069,32576
3070,32704
3071,32768
3072,32832
3073,32896
3074,32832
3075,32832
3076,32704
3077,32640
3078,32640
3079,32768
3080,32768
3081,32640
3082,32576
3083,32896
3084,33664
3085,35200
3086,37632
3087,40832
3088,44224
3089,46720
3090,47424
3091,46208
3092,43136
3093,38784
3094,34624
3095,30976
3096,28416
3097,26944
3098,26432
3099,26624
3100,27392
3101,28352
3102,29376
3103,30144
3104,30720
3105,31168
3106,31552
3107,31872
3108,32128
3109,32320
3110,32448
3111,32576
3112,32704
3113,32768
3114,32896
3115,33024
3116,33152
3117,33216
3118,33280
3119,33280
3120,33344
3121,33408
3122,33536
3123,33664
3124,33728
3125,33792
3126,33920
3127,34048
3128,34112
3129,34112
3130,34048
3131,34112
3132,34304
3133,34432
3134,34624
3135,34752
3136,34880
3137,35008
3138,35008
3139,34944
3140,35008
3141,35136
3142,35200
3143,35264
3144,35328
3145,35328
3146,35392
3147,35328
3148,35264
3149,35328
3150,35328
3151,35328
3152,35200
3153,35072
3154,34944
3155,34816
3156,34624
3157,34432
3158,34304
3159,34176
3160,34048
3161,33920
3162,33792
3163,33664
3164,33600
3165,33536
3166,33472
3167,33472
3168,33472
3169,33472
3170,33536
3171,33536
3172,33600
3173,33600
3174,33600
3175,33664
3176,33728
3177,33792
3178,33856
3179,33920
3180,33984
3181,33984
3182,34112
3183,34240
3184,34304
3185,34368
3186,34432
3187,34368
3188,34368
3189,34368
3190,34432
3191,34624
3192,34816
3193,34944
3194,35008
3195,35072
3196,35072
3197,35072
3198,35008
3199,34944
3200,34880
3201,34816
3202,34752
3203,34688
3204,34624
3205,34560
3206,34560
3207,34496
3208,34432
3209,34432
3210,34432
3211,34368
3212,34368
3213,34368
3214,34304
3215,34240
3216,34240
3217,34240
3218,34304
3219,34368
3220,34368
3221,34368
3222,34368
3223,34368
3224,34368
3225,34304
3226,34368
3227,34368
3228,34432
3229,34496
3230,34496
3231,34496
3232,34624
3233,34688
3234,34752
3235,34752
3236,34816
3237,34816
3238,34880
3239,34944
3240,35008
3241,35200
3242,35328
3243,35328
3244,35200
3245,35072
3246,34880
3247,34688
3248,34560
3249,34368
3250,34112
3251,33920
3252,33728
3253,33664
3254,33600
3255,33664
3256,33728
3257,33856
3258,33984
3259,34112
3260,34240
3261,34368
3262,34496
3263,34560
3264,34624
3265,34624
3266,34560
3267,34432
3268,34176
3269,33984
3270,33792
3271,33984
3272,34624
3273,35968
3274,38080
3275,41024
3276,44544
3277,47552
3278,48768
3279,48000
3280,45440
3281,41536
3282,36800
3283,33216
3284,30208
3285,28416
3286,27584
3287,27520
3288,28032
3289,28928
3290,29888
3291,30656
3292,31232
3293,31680
3294,32064
3295,32320
3296,32512
3297,32704
3298,32832
3299,33024
3300,33216
3301,33344
3302,33408
3303,33472
3304,33536
3305,33664
3306,33728
3307,33792
3308,33856
3309,33920
3310,33920
3311,34048
3312,34112
3313,34112
3314,34176
3315,34176
3316,34176
3317,34176
3318,34240
3319,34304
3320,34368
3321,34432
3322,34432
3323,34496
3324,34560
3325,34624
3326,34688
3327,34752
3328,34752
3329,34816
3330,34880
3331,34944
3332,34944
3333,34944
3334,34944
3335,35200
3336,35520
3337,35840
3338,35904
3339,35968
3340,35840
3341,35648
3342,35392
3343,35200
3344,35008
3345,34816
3346,34560
3347,34368
3348,34176
3349,33984
3350,33856
3351,33728
3352,33600
3353,33472
3354,33344
3355,33344
3356,33408
3357,33472
3358,33536
3359,33600
3360,33536
3361,33536
3362,33536
3363,33600
3364,33728
3365,33792
3366,33856
3367,33920
3368,33984
3369,33984
3370,33984
3371,34048
3372,34048
3373,34048
3374,34048
3375,34048
3376,33984
3377,33984
3378,34048
3379,34112
3380,34176
3381,34240
3382,34240
3383,34240
3384,34048
3385,33856
3386,33728
3387,33728
3388,33728
3389,33728
3390,33792
3391,33792
3392,33792
3393,33856
3394,33920
3395,33984
3396,33984
3397,34048
3398,34112
3399,34176
3400,34176
3401,34048
3402,34048
3403,34048
3404,33984
3405,34048
3406,34048
3407,34048
3408,34112
3409,34176
3410,34240
3411,34368
3412,34496
3413,34624
3414,34688
3415,34752
3416,34880
3417,35008
3418,35072
3419,35072
3420,35072
3421,35200
3422,35200
3423,35200
3424,35136
3425,35008
3426,34880
3427,34752
3428,34624
3429,34496
3430,34240
3431,34048
3432,33856
3433,33792
3434,33792
3435,33792
3436,33792
3437,33856
3438,33920
3439,33984
3440,34048
3441,34112
3442,34112
3443,34176
3444,34176
3445,34176
3446,34176
3447,34176
3448,34112
3449,33920
3450,33920
3451,34304
3452,35072
3453,36608
3454,38848
3455,41984
3456,45504
3457,48192
3458,48832
3459,47616
3460,44544
3461,40384
3462,36032
3463,32256
3464,29632
3465,28224
3466,27712
3467,27904
3468,28608
3469,29568
3470,30464
3471,31232
3472,31936
3473,32384
3474,32768
3475,33088
3476,33280
3477,33408
3478,33536
3479,33664
3480,33728
3481,33792
3482,33920
3483,34048
3484,34176
3485,34240
3486,34304
3487,34368
3488,34432
3489,34432
3490,34496
3491,34496
3492,34560
3493,34624
3494,34624
3495,34688
3496,34688
3497,34752
3498,34816
3499,34816
3500,34816
3501,34880
3502,34944
3503,34944
3504,35008
3505,35072
3506,35136
3507,35200
3508,35264
3509,35328
3510,35328
3511,35328
3512,35328
3513,35264
3514,35200
3515,35136
3516,35136
3517,35072
3518,34944
3519,34880
3520,34816
3521,34688
3522,34560
3523,34432
3524,34304
3525,34176
3526,33984
3527,33856
3528,33792
3529,33664
3530,33600
3531,33600
3532,33600
3533,33600
3534,33600
3535,33600
3536,33664
3537,33728
3538,33728
3539,33792
3540,33856
3541,33920
3542,33984
3543,34048
3544,34048
3545,34112
3546,34176
3547,34240
3548,34304
3549,34304
3550,34368
3551,34368
3552,34368
3553,34432
3554,34496
3555,34496
3556,34560
3557,34560
3558,34560
3559,34560
3560,34560
3561,34624
3562,34624
3563,34624
3564,34560
3565,34624
3566,34624
3567,34688
3568,34688
3569,34688
3570,34688
3571,34688
3572,34624
3573,34624
3574,34688
3575,34816
3576,34944
3577,35008
3578,35008
3579,35008
3580,35008
3581,35008
3582,35008
3583,35008
3584,35008
3585,35008
3586,35008
3587,34944
3588,34880
3589,34880
3590,35008
3591,35072
3592,35200
3593,35200
3594,35264
3595,35328
3596,35456
3597,35584
3598,35648
3599,35648
3600,35712
3601,35776
3602,35712
3603,35648
3604,35520
3605,35392
3606,35264
3607,35072
3608,34752
3609,34496
3610,34240
3611,34112
3612,33984
3613,33984
3614,33984
3615,34048
3616,34112
3617,34176
3618,34240
3619,34240
3620,34240
3621,34240
3622,34240
3623,34304
3624,34304
3625,34240
3626,34176
3627,33920
3628,33728
3629,33728
3630,34240
3631,35328
3632,37312
3633,40256
3634,43712
3635,46976
3636,48896
3637,48960
3638,47232
3639,43776
3640,39488
3641,35328
3642,31872
3643,29568
3644,28288
3645,27904
3646,28096
3647,28672
3648,29568
3649,30400
3650,31104
3651,31744
3652,32256
3653,32640
3654,32960
3655,33216
3656,33408
3657,33472
3658,33664
3659,33792
3660,33920
3661,34048
3662,34176
3663,34240
3664,34304
3665,34304
3666,34240
3667,34304
3668,34304
3669,34368
3670,34368
3671,34432
3672,34432
3673,34496
3674,34496
3675,34496
3676,34560
3677,34560
3678,34624
3679,34688
3680,34752
3681,34816
3682,34944
3683,35008
3684,35072
3685,35072
3686,35136
3687,35200
3688,35136
3689,35136
3690,35072
3691,35072
3692,35072
3693,35008
3694,34944
3695,34944
3696,34944
3697,35072
3698,35136
3699,35200
3700,35136
3701,35072
3702,34880
3703,34688
3704,34432
3705,34240
3706,33984
3707,33856
3708,33664
3709,33600
3710,33536
3711,33472
3712,33472
3713,33408
3714,33408
3715,33408
3716,33408
3717,33408
3718,33408
3719,33472
3720,33664
3721,33792
3722,33984
3723,33984
3724,33984
3725,33984
3726,34048
3727,34112
3728,34176
3729,34176
3730,34176
3731,34176
3732,34240
3733,34304
3734,34368
3735,34368
3736,34368
3737,34368
3738,34368
3739,34304
3740,34368
3741,34368
3742,34432
3743,34496
3744,34496
3745,34432
3746,34432
3747,34368
3748,34368
3749,34368
3750,34368
3751,34304
3752,34304
3753,34368
3754,34304
3755,34304
3756,34240
3757,34176
3758,34112
3759,34048
3760,33984
3761,33984
3762,33984
3763,33984
3764,34048
3765,34112
3766,34240
3767,34368
3768,34432
3769,34496
3770,34496
3771,34496
3772,34560
3773,34688
3774,34752
3775,34816
3776,34944
3777,35072
3778,35008
3779,34944
3780,34880
3781,34752
3782,34624
3783,34432
3784,34240
3785,33984
3786,33792
3787,33664
3788,33472
3789,33472
3790,33536
3791,33664
3792,33792
3793,33728
3794,33600
3795,33536
3796,33536
3797,33600
3798,33600
3799,33664
3800,33728
3801,33792
3802,33728
3803,33664
3804,33536
3805,33536
3806,33728
3807,34368
3808,35584
3809,37696
3810,40768
3811,44288
3812,47296
3813,48448
3814,47488
3815,44992
3816,41088
3817,36736
3818,32768
3819,29824
3820,28032
3821,27200
3822,27264
3823,27904
3824,28864
3825,29760
3826,30656
3827,31296
3828,31744
3829,32064
3830,32256
3831,32448
3832,32640
3833,32832
3834,32960
3835,33024
3836,33088
3837,33216
3838,33216
3839,33280
3840,33408
3841,33536
3842,33728
3843,33856
3844,33856
3845,33920
3846,33920
3847,33920
3848,33856
3849,33856
3850,33856
3851,33984
3852,34112
3853,34176
3854,34176
3855,34176
3856,34112
3857,34112
3858,34176
3859,34304
3860,34368
3861,34432
3862,34496
3863,34560
3864,34624
3865,34688
3866,34752
3867,34752
3868,34688
3869,34624
3870,34496
3871,34496
3872,34368
3873,34240
3874,34048
3875,33984
3876,33856
3877,33728
3878,33600
3879,33536
3880,33408
3881,33216
3882,33024
3883,32896
3884,32832
3885,32704
3886,32576
3887,32448
3888,32448
3889,32512
3890,32512
3891,32576
3892,32640
3893,32768
3894,32832
3895,32832
3896,32896
3897,32960
3898,33088
3899,33216
3900,33216
3901,33216
3902,33280
3903,33408
3904,33472
3905,33472
3906,33536
3907,33536
3908,33472
3909,33536
3910,33536
3911,33600
3912,33664
3913,33728
3914,33792
3915,33792
3916,33792
3917,33792
3918,33856
3919,33856
3920,33792
3921,33792
3922,33856
3923,33856
3924,33920
3925,33920
3926,33984
3927,34048
3928,34048
3929,33920
3930,33856
3931,33792
3932,33792
3933,33792
3934,33728
3935,33728
3936,33792
3937,33792
3938,33792
3939,33728
3940,33728
3941,33728
3942,33792
3943,33856
3944,33920
3945,33920
3946,33856
3947,33792
3948,33856
3949,33920
3950,34048
3951,34112
3952,34240
3953,34304
3954,34432
3955,34560
3956,34624
3957,34624
3958,34688
3959,34688
3960,34688
3961,34624
3962,34496
3963,34240
3964,34176
3965,34048
3966,33920
3967,33664
3968,33408
3969,33280
3970,33216
3971,33152
3972,33152
3973,33088
3974,33088
3975,33152
3976,33216
3977,33280
3978,33280
3979,33408
3980,33408
3981,33472
3982,33472
3983,33472
3984,33408
3985,33280
3986,33152
3987,33344
3988,33728
3989,34496
3990,35904
3991,38208
3992,41472
3993,45120
3994,47936
3995,48704
3996,47488
3997,44224
3998,39744
3999,35200
4000,31360
4001,28864
4002,27456
4003,27008
4004,27328
4005,28224
4006,29184
4007,30144
4008,30848
4009,31424
4010,31744
4011,32064
4012,32192
4013,32320
4014,32512
4015,32640
4016,32768
4017,32960
4018,33024
4019,33088
4020,33088
4021,33152
4022,33344
4023,33536
4024,33600
4025,33600
4026,33600
4027,33600
4028,33536
4029,33664
4030,33664
4031,33664
4032,33856
4033,33920
4034,33984
4035,33984
4036,33920
4037,33984
4038,34176
4039,34240
4040,34112
4041,34048
4042,34048
4043,34112
4044,34176
4045,34304
4046,34368
4047,34496
4048,34496
4049,34560
4050,34560
4051,34560
4052,34496
4053,34496
4054,34368
4055,34176
4056,33984
4057,33792
4058,33664
4059,33472
4060,33280
4061,33216
4062,33216
4063,33152
4064,32960
4065,32768
4066,32640
4067,32640
4068,32640
4069,32576
4070,32512
4071,32448
4072,32448
4073,32512
4074,32512
4075,32512
4076,32576
4077,32640
4078,32704
4079,32832
4080,32896
4081,32896
4082,32896
4083,32960
4084,33088
4085,33216
4086,33344
4087,33408
4088,33472
4089,33536
4090,33600
4091,33664
4092,33600
4093,33536
4094,33472
4095,33472
4096,33536
4097,33472
4098,33472
4099,33472
4100,33472
4101,33472
4102,33472
4103,33600
4104,33728
4105,33856
4106,33792
4107,33728
4108,33664
4109,33600
4110,33600
4111,33536
4112,33600
4113,33728
4114,33792
4115,33792
4116,33664
4117,33472
4118,33408
4119,33408
4120,33472
4121,33600
4122,33600
4123,33600
4124,33664
4125,33728
4126,33792
4127,33856
4128,33920
4129,33920
4130,33856
4131,33664
4132,33472
4133,33408
4134,33344
4135,33472
4136,33536
4137,33600
4138,33600
4139,33664
4140,33728
4141,33792
4142,33792
4143,33856
4144,33920
4145,33856
4146,33728
4147,33728
4148,33792
4149,33920
4150,33984
4151,34048
4152,34048
4153,34112
4154,34240
4155,34304
4156,34368
4157,34368
4158,34432
4159,34496
4160,34624
4161,34624
4162,34624
4163,34560
4164,34496
4165,34368
4166,34304
4167,34112
4168,33920
4169,33664
4170,33472
4171,33344
4172,33216
4173,33088
4174,32960
4175,33024
4176,33152
4177,33216
4178,33216
4179,33216
4180,33216
4181,33216
4182,33216
4183,33216
4184,33216
4185,33216
4186,33216
4187,33088
4188,32896
4189,33024
4190,33472
4191,34432
4192,35968
4193,38208
4194,41344
4195,44864
4196,47488
4197,47936
4198,46528
4199,43136
4200,38720
4201,34368
4202,30784
4203,28352
4204,27136
4205,26752
4206,27072
4207,27904
4208,28864
4209,29760
4210,30464
4211,31040
4212,31488
4213,31808
4214,32064
4215,32256
4216,32448
4217,32576
4218,32704
4219,32832
4220,32896
4221,33024
4222,33088
4223,33152
4224,33152
4225,33152
4226,33152
4227,33152
4228,33216
4229,33344
4230,33408
4231,33472
4232,33600
4233,33664
4234,33792
4235,33792
4236,33792
4237,33856
4238,33920
4239,33920
4240,33920
4241,33920
4242,34048
4243,34176
4244,34176
4245,34176
4246,34240
4247,34304
4248,34368
4249,34432
4250,34496
4251,34496
4252,34432
4253,34432
4254,34432
4255,34432
4256,34432
4257,34304
4258,34176
4259,34048
4260,33792
4261,33664
4262,33536
4263,33344
4264,33216
4265,33152
4266,33024
4267,32960
4268,32832
4269,32768
4270,32640
4271,32576
4272,32576
4273,32640
4274,32640
4275,32704
4276,32704
4277,32768
4278,32896
4279,32960
4280,32896
4281,32832
4282,32768
4283,32832
4284,32960
4285,33024
4286,33216
4287,33536
4288,33664
4289,33792
4290,33792
4291,33792
4292,33856
4293,33920
4294,33984
4295,33984
4296,33920
4297,33856
4298,33792
4299,33792
4300,33728
4301,33728
4302,33728
4303,33664
4304,33664
4305,33728
4306,33728
4307,33856
4308,33920
4309,33920
4310,33920
4311,33856
4312,33792
4313,33792
4314,33728
4315,33728
4316,33728
4317,33664
4318,33664
4319,33600
4320,33600
4321,33664
4322,33664
4323,33664
4324,33728
4325,33728
4326,33728
4327,33728
4328,33728
4329,33792
4330,33728
4331,33728
4332,33728
4333,33792
4334,33792
4335,33728
4336,33728
4337,33664
4338,33728
4339,33728
4340,33728
4341,33728
4342,33728
4343,33728
4344,33792
4345,33856
4346,33920
4347,33920
4348,33856
4349,33856
4350,33856
4351,33792
4352,33792
4353,33792
4354,33792
4355,33792
4356,33728
4357,33728
4358,33792
4359,33792
4360,33792
4361,33920
4362,34048
4363,34176
4364,34176
4365,34176
4366,34176
4367,34240
4368,34304
4369,34432
4370,34432
4371,34496
4372,34496
4373,34560
4374,34496
4375,34432
4376,34304
4377,34176
4378,34112
4379,33920
4380,33728
4381,33472
4382,33280
4383,33216
4384,33152
4385,33216
4386,33216
4387,33216
4388,33216
4389,33152
4390,33152
4391,33152
4392,33216
4393,33280
4394,33280
4395,33280
4396,33344
4397,33344
4398,33344
4399,33216
4400,33152
4401,33280
4402,33920
4403,37184
4404,40000
4405,43456
4406,47232
4407,47424
4408,48064
4409,45440
4410,41472
4411,36864
4412,32640
4413,29568
4414,27712
4415,26816
4416,26752
4417,27264
4418,28224
4419,29184
4420,29952
4421,30656
4422,31232
4423,31616
4424,31936
4425,32192
4426,32384
4427,32512
4428,32704
4429,32832
4430,32896
4431,32960
4432,33088
4433,33088
4434,33152
4435,33216
4436,33344
4437,33280
4438,33408
4439,33536
4440,33600
4441,33600
4442,33536
4443,33600
4444,33600
4445,33664
4446,33600
4447,33664
4448,33728
4449,33792
4450,33728
4451,33792
4452,33728
4453,33920
4454,34048
4455,34112
4456,34176
4457,34368
4458,34432
4459,34496
4460,34496
4461,34496
4462,34432
4463,34368
4464,34304
4465,34304
4466,34240
4467,34176
4468,34112
4469,33984
4470,33856
4471,33792
4472,33728
4473,33664
4474,33600
4475,33536
4476,33344
4477,33216
4478,33152
4479,33024
4480,32896
4481,32768
4482,32704
4483,32704
4484,32704
4485,32704
4486,32704
4487,32768
4488,32832
4489,32960
4490,33024
4491,33024
4492,32960
4493,33024
4494,33088
4495,33152
4496,33344
4497,33344
4498,33536
4499,33536
4500,33536
4501,33472
4502,33472
4503,33472
4504,33536
4505,33536
4506,33600
4507,33664
4508,33664
4509,33664
4510,33728
4511,33728
4512,33728
4513,33728
4514,33792
4515,33856
4516,33856
4517,33920
4518,33920
4519,33920
4520,33856
4521,33728
4522,33664
4523,33600
4524,33536
4525,33536
4526,33600
4527,33536
4528,33536
4529,33600
4530,33664
4531,33664
4532,33664
4533,33664
4534,33664
4535,33728
4536,33728
4537,33792
4538,33728
4539,33728
4540,33664
4541,33664
4542,33664
4543,33728
4544,33728
4545,33728
4546,33792
4547,33792
4548,33792
4549,33792
4550,33856
4551,33856
4552,33856
4553,33856
4554,33920
4555,33920
4556,33984
4557,33920
4558,34048
4559,33984
4560,33920
4561,33920
4562,33920
4563,33856
4564,33856
4565,33920
4566,33984
4567,34112
4568,34240
4569,34368
4570,34368
4571,34368
4572,34304
4573,34432
4574,34496
4575,34560
4576,34624
4577,34688
4578,34688
4579,34688
4580,34624
4581,34560
4582,34432
4583,34368
4584,34304
4585,34176
4586,33984
4587,33728
4588,33536
4589,33408
4590,33344
4591,33344
4592,33344
4593,33344
4594,33344
4595,33344
4596,33408
4597,33408
4598,33472
4599,33536
4600,33536
4601,33600
4602,33536
4603,33664
4604,33600
4605,33408
4606,33280
4607,33408
4608,34048
4609,35328
4610,37376
4611,40256
4612,43712
4613,46720
4614,48192
4615,47616
4616,44416
4617,44096
4618,36928
4619,32896
4620,29952
4621,28096
4622,27200
4623,27136
4624,27648
4625,28544
4626,29504
4627,30336
4628,30976
4629,31552
4630,31936
4631,32384
4632,32320
4633,32640
4634,32832
4635,32960
4636,33088
4637,33216
4638,33280
4639,33344
4640,33408
4641,33472
4642,33536
4643,33600
4644,33664
4645,33664
4646,33728
4647,33664
4648,33792
4649,33920
4650,33920
4651,33856
4652,33856
4653,33856
4654,33920
4655,33984
4656,33984
4657,34048
4658,34112
4659,34240
4660,34368
4661,34496
4662,34496
4663,34624
4664,34688
4665,34752
4666,34752
4667,34688
4668,34560
4669,34496
4670,34432
4671,34432
4672,34432
4673,34432
4674,34368
4675,34240
4676,34112
4677,34048
4678,33984
4679,33856
4680,33728
4681,33600
4682,33536
4683,33472
4684,33280
4685,33152
4686,32960
4687,32896
4688,32832
4689,32832
4690,32896
4691,32896
4692,32960
4693,32896
4694,32896
4695,32896
4696,32896
4697,32960
4698,33024
4699,33152
4700,33280
4701,33280
4702,33280
4703,33344
4704,33408
4705,33472
4706,33536
4707,33472
4708,33536
4709,33536
4710,33536
4711,33600
4712,33664
4713,33728
4714,33728
4715,33792
4716,33856
4717,33920
4718,33920
4719,33984
4720,33984
4721,33920
4722,33856
4723,33856
4724,33856
4725,33856
4726,33920
4727,33920
4728,33920
4729,33920
4730,33920
4731,33920
4732,33920
4733,33920
4734,33856
4735,33856
4736,33920
4737,33920
4738,33984
4739,33984
4740,33920
4741,33856
4742,33792
4743,33728
4744,33728
4745,33728
4746,33728
4747,33792
4748,33856
4749,33856
4750,33856
4751,33856
4752,33792
4753,33856
4754,33920
4755,33920
4756,33920
4757,33920
4758,33984
4759,33984
4760,33984
4761,33984
4762,33920
4763,33856
4764,33856
4765,33856
4766,33856
4767,33856
4768,33920
4769,33984
4770,34112
4771,34240
4772,34368
4773,34496
4774,34496
4775,34496
4776,34496
4777,34496
4778,34496
4779,34432
4780,34432
4781,34624
4782,34560
4783,34624
4784,34560
4785,34432
4786,34368
4787,34304
4788,34240
4789,34048
4790,33792
4791,33536
4792,33344
4793,33280
4794,33216
4795,33216
4796,33344
4797,33408
4798,33536
4799,33600
4800,33536
4801,33472
4802,33472
4803,33472
4804,33536
4805,33600
4806,33600
4807,33536
4808,33408
4809,33280
4810,33408
4811,34624
4812,34688
4813,37120
4814,39872
4815,43392
4816,46592
4817,48256
4818,47808
4819,45504
4820,41600
4821,37184
4822,33024
4823,29888
4824,27968
4825,27008
4826,27008
4827,27520
4828,28480
4829,29504
4830,30336
4831,30976
4832,31552
4833,32000
4834,32320
4835,32512
4836,32704
4837,32832
4838,32960
4839,33024
4840,33088
4841,33152
4842,33216
4843,33280
4844,33344
4845,33408
4846,33536
4847,33600
4848,33600
4849,33664
4850,33664
4851,33728
4852,33728
4853,33792
4854,33856
4855,33856
4856,33920
4857,33984
4858,34048
4859,34112
4860,34112
4861,34112
4862,34112
4863,34176
4864,34304
4865,34368
4866,34496
4867,34560
4868,34624
4869,34688
4870,34688
4871,34688
4872,34624
4873,34496
4874,34432
4875,34368
4876,34304
4877,34304
4878,34304
4879,34176
4880,34048
4881,33856
4882,33728
4883,33600
4884,33472
4885,33408
4886,33344
4887,33216
4888,33088
4889,32960
4890,32896
4891,32832
4892,32768
4893,32768
4894,32832
4895,32896
4896,32896
4897,32896
4898,32896
4899,32832
4900,32896
4901,32960
4902,33024
4903,33088
4904,33152
4905,33216
4906,33280
4907,33344
4908,33408
4909,33536
4910,33536
4911,33536
4912,33600
4913,33600
4914,33664
4915,33728
4916,33728
4917,33728
4918,33792
4919,33728
4920,33664
4921,33664
4922,33664
4923,33728
4924,33792
4925,33856
4926,33856
4927,33920
4928,33920
4929,33984
4930,33984
4931,33984
4932,33856
4933,33792
4934,33792
4935,33728
4936,33728
4937,33792
4938,33728
4939,33728
4940,33728
4941,33792
4942,33792
4943,33792
4944,33792
4945,33856
4946,33856
4947,33856
4948,33792
4949,33728
4950,33728
4951,33728
4952,33792
4953,33792
4954,33728
4955,33728
4956,33728
4957,33792
4958,33792
4959,33792
4960,33792
4961,33792
4962,33792
4963,33856
4964,33856
4965,33856
4966,33920
4967,33984
4968,34048
4969,33984
4970,33920
4971,33856
4972,33920
4973,34048
4974,34176
4975,34240
4976,34304
4977,34304
4978,34304
4979,34304
4980,34304
4981,34432
4982,34560
4983,34688
4984,34688
4985,34624
4986,34496
4987,34368
4988,34368
4989,34368
4990,34176
4991,33920
4992,33664
4993,33408
4994,33280
4995,33216
4996,33216
4997,33216
4998,33280
4999,33280
5000,33280
5001,33280
5002,33344
5003,33408
5004,33472
5005,33472
5006,33472
5007,33472
5008,33472
5009,33472
5010,33344
5011,33216
5012,33344
5013,33984
5014,35200
5015,37120
5016,39936
5017,43392
5018,46528
5019,48192
5020,47808
5021,45568
5022,41792
5023,37312
5024,33152
5025,29952
5026,27968
5027,27008
5028,26944
5029,27456
5030,28416
5031,29376
5032,30208
5033,30912
5034,31552
5035,32128
5036,32640
5037,32960
5038,33280
5039,33472
5040,33600
5041,33600
5042,33600
5043,33600
5044,33600
5045,33664
5046,33728
5047,33792
5048,33856
5049,33856
5050,33920
5051,33920
5052,33920
5053,33920
5054,33920
5055,33984
5056,34048
5057,34112
5058,34112
5059,34112
5060,34112
5061,34112
5062,34176
5063,34304
5064,34368
5065,34368
5066,34432
5067,34496
5068,34496
5069,34560
5070,34560
5071,34624
5072,34624
5073,34624
5074,34560
5075,34560
5076,34496
5077,34432
5078,34368
5079,34240
5080,34240
5081,34176
5082,34112
5083,34048
5084,33920
5085,33792
5086,33600
5087,33408
5088,33280
5089,33216
5090,33088
5091,32960
5092,32832
5093,32768
5094,32768
5095,32768
5096,32768
5097,32768
5098,32832
5099,32896
5100,32960
5101,33024
5102,33088
5103,33088
5104,33088
5105,33088
5106,33152
5107,33216
5108,33280
5109,33344
5110,33408
5111,33536
5112,33600
5113,33600
5114,33664
5115,33664
5116,33728
5117,33728
5118,33792
5119,33792
5120,33792
5121,33728
5122,33728
5123,33728
5124,33728
5125,33728
5126,33792
5127,33792
5128,33792
5129,33728
5130,33728
5131,33728
5132,33792
5133,33792
5134,33792
5135,33792
5136,33792
5137,33856
5138,33856
5139,33856
5140,33856
5141,33728
5142,33664
5143,33600
5144,33664
5145,33664
5146,33600
5147,33600
5148,33664
5149,33664
5150,33728
5151,33728
5152,33728
5153,33728
5154,33728
5155,33792
5156,33856
5157,33856
5158,33920
5159,33920
5160,33920
5161,33920
5162,33920
5163,33984
5164,33920
5165,33856
5166,33728
5167,33728
5168,33792
5169,33856
5170,33920
5171,33920
5172,33984
5173,33920
5174,33984
5175,34112
5176,34176
5177,34368
5178,34368
5179,34368
5180,34368
5181,34432
5182,34432
5183,34496
5184,34624
5185,34752
5186,34752
5187,34560
5188,34496
5189,34432
5190,34368
5191,34304
5192,34176
5193,34048
5194,33792
5195,33600
5196,33472
5197,33344
5198,33344
5199,33344
5200,33408
5201,33472
5202,33472
5203,33472
5204,33472
5205,33472
5206,33536
5207,33600
5208,33728
5209,33728
5210,33664
5211,33600
5212,33408
5213,33152
5214,33088
5215,33472
5216,34496
5217,36224
5218,38848
5219,42176
5220,45568
5221,47872
5222,48192
5223,46464
5224,43200
5225,39168
5226,34880
5227,31360
5228,28992
5229,27648
5230,27200
5231,27456
5232,28224
5233,29120
5234,29952
5235,30592
5236,31168
5237,31616
5238,32000
5239,32256
5240,32448
5241,32640
5242,32832
5243,32960
5244,33088
5245,33152
5246,33216
5247,33280
5248,33344
5249,33472
5250,33536
5251,33600
5252,33664
5253,33664
5254,33664
5255,33728
5256,33792
5257,33856
5258,33920
5259,33984
5260,34048
5261,34048
5262,34048
5263,34112
5264,34176
5265,34240
5266,34304
5267,34368
5268,34368
5269,34368
5270,34368
5271,34432
5272,34432
5273,34496
5274,34496
5275,34496
5276,34560
5277,34560
5278,34560
5279,34560
5280,34496
5281,34432
5282,34304
5283,34176
5284,34112
5285,33984
5286,33920
5287,33792
5288,33664
5289,33472
5290,33344
5291,33216
5292,33152
5293,33088
5294,33088
5295,33024
5296,32960
5297,32896
5298,32896
5299,32896
5300,32896
5301,32960
5302,33024
5303,33024
5304,33088
5305,33152
5306,33280
5307,33280
5308,33280
5309,33280
5310,33280
5311,33344
5312,33408
5313,33536
5314,33600
5315,33664
5316,33728
5317,33728
5318,33728
5319,33792
5320,33856
5321,33920
5322,33856
5323,33856
5324,33856
5325,33920
5326,33920
5327,33920
5328,33920
5329,33920
5330,33920
5331,33984
5332,33984
5333,33984
5334,33984
5335,33984
5336,33984
5337,33984
5338,33920
5339,33856
5340,33856
5341,33792
5342,33856
5343,33856
5344,33920
5345,33920
5346,33856
5347,33856
5348,33792
5349,33792
5350,33856
5351,33856
5352,33856
5353,33920
5354,33920
5355,33920
5356,33792
5357,33792
5358,33792
5359,33792
5360,33792
5361,33856
5362,33920
5363,33920
5364,33920
5365,33920
5366,33920
5367,33920
5368,33984
5369,33984
5370,34048
5371,34048
5372,34048
5373,34112
5374,34112
5375,34112
5376,34176
5377,34176
5378,34304
5379,34368
5380,34432
5381,34496
5382,34560
5383,34560
5384,34560
5385,34560
5386,34688
5387,34752
5388,34816
5389,34816
5390,34752
5391,34688
5392,34624
5393,34496
5394,34304
5395,34112
5396,33920
5397,33728
5398,33600
5399,33472
5400,33408
5401,33344
5402,33344
5403,33344
5404,33408
5405,33472
5406,33536
5407,33600
5408,33664
5409,33664
5410,33728
5411,33792
5412,33856
5413,33792
5414,33664
5415,33536
5416,33600
5417,34112
5418,35328
5419,37120
5420,39872
5421,43392
5422,46720
5423,48640
5424,48448
5425,46336
5426,42496
5427,37952
5428,33664
5429,30400
5430,28416
5431,27520
5432,27456
5433,28096
5434,28928
5435,29824
5436,30592
5437,31232
5438,31744
5439,32192
5440,32576
5441,32832
5442,33024
5443,33152
5444,33280
5445,33472
5446,33600
5447,33728
5448,33792
5449,33856
5450,33920
5451,33920
5452,33920
5453,33920
5454,33984
5455,34048
5456,34112
5457,34176
5458,34176
5459,34240
5460,34304
5461,34368
5462,34368
5463,34368
5464,34432
5465,34496
5466,34560
5467,34624
5468,34688
5469,34688
5470,34752
5471,34816
5472,34880
5473,34944
5474,35008
5475,35008
5476,35072
5477,35072
5478,35008
5479,34944
5480,34880
5481,34752
5482,34688
5483,34688
5484,34560
5485,34560
5486,34496
5487,34368
5488,34240
5489,34112
5490,34048
5491,33984
5492,33856
5493,33792
5494,33728
5495,33600
5496,33536
5497,33408
5498,33344
5499,33408
5500,33408
5501,33408
5502,33472
5503,33472
5504,33536
5505,33600
5506,33728
5507,33792
5508,33856
5509,33920
5510,33984
5511,34048
5512,34048
5513,34176
5514,34240
5515,34304
5516,34368
5517,34432
5518,34432
5519,34432
5520,34432
5521,34432
5522,34496
5523,34496
5524,34560
5525,34624
5526,34688
5527,34688
5528,34752
5529,34688
5530,34688
5531,34688
5532,34752
5533,34752
5534,34752
5535,34752
5536,34688
5537,34688
5538,34752
5539,34752
5540,34752
5541,34752
5542,34688
5543,34624
5544,34624
5545,34688
5546,34688
5547,34688
5548,34688
5549,34752
5550,34752
5551,34752
5552,34816
5553,34816
5554,34816
5555,34752
5556,34816
5557,34816
5558,34880
5559,34880
5560,34816
5561,34752
5562,34752
5563,34752
5564,34752
5565,34816
5566,34816
5567,34880
5568,34880
5569,34880
5570,34880
5571,34880
5572,34880
5573,34944
5574,34944
5575,34944
5576,34944
5577,34944
5578,35008
5579,35072
5580,35136
5581,35264
5582,35392
5583,35456
5584,35456
5585,35456
5586,35456
5587,35456
5588,35520
5589,35520
5590,35648
5591,35712
5592,35712
5593,35648
5594,35584
5595,35456
5596,35392
5597,35264
5598,35072
5599,34816
5600,34560
5601,34432
5602,34368
5603,34368
5604,34368
5605,34432
5606,34432
5607,34496
5608,34560
5609,34560
5610,34560
5611,34560
5612,34560
5613,34624
5614,34624
5615,34688
5616,34624
5617,34496
5618,34368
5619,34496
5620,35072
5621,36160
5622,38080
5623,40896
5624,44416
5625,47808
5626,49600
5627,49280
5628,46912
5629,42944
5630,38336
5631,34112
5632,30976
5633,29120
5634,28224
5635,28160
5636,28736
5637,29632
5638,30528
5639,31360
5640,32000
5641,32512
5642,32896
5643,33280
5644,33536
5645,33664
5646,33792
5647,33920
5648,34048
5649,34176
5650,34240
5651,34368
5652,34432
5653,34496
5654,34496
5655,34560
5656,34624
5657,34624
5658,34688
5659,34752
5660,34816
5661,34816
5662,34816
5663,34880
5664,34880
5665,34944
5666,35008
5667,35136
5668,35136
5669,35136
5670,35136
5671,35200
5672,35264
5673,35328
5674,35392
5675,35392
5676,35456
5677,35520
5678,35584
5679,35584
5680,35648
5681,35584
5682,35520
5683,35392
5684,35328
5685,35264
5686,35200
5687,35200
5688,35072
5689,34880
5690,34752
5691,34688
5692,34624
5693,34560
5694,34432
5695,34304
5696,34240
5697,34112
5698,34048
5699,33984
5700,33920
5701,33920
5702,33856
5703,33856
5704,33856
5705,33856
5706,33856
5707,33920
5708,33920
5709,33984
5710,34112
5711,34176
5712,34240
5713,34240
5714,34240
5715,34240
5716,34304
5717,34432
5718,34560
5719,34624
5720,34688
5721,34624
5722,34688
5723,34688
5724,34688
5725,34688
5726,34688
5727,34688
5728,34688
5729,34688
5730,34752
5731,34752
5732,34816
5733,34816
5734,34816
5735,34752
5736,34752
5737,34752
5738,34752
5739,34752
5740,34752
5741,34752
5742,34752
5743,34688
5744,34688
5745,34688
5746,34688
5747,34688
5748,34624
5749,34624
5750,34560
5751,34560
5752,34560
5753,34624
5754,34624
5755,34624
5756,34624
5757,34624
5758,34688
5759,34688
5760,34752
5761,34688
5762,34624
5763,34560
5764,34560
5765,34560
5766,34560
5767,34560
5768,34624
5769,34624
5770,34624
5771,34624
5772,34560
5773,34560
5774,34624
5775,34624
5776,34624
5777,34624
5778,34624
5779,34560
5780,34624
5781,34688
5782,34752
5783,34880
5784,34944
5785,34944
5786,35008
5787,35008
5788,35072
5789,35136
5790,35136
5791,35200
5792,35264
5793,35328
5794,35328
5795,35200
5796,35136
5797,35008
5798,34944
5799,34816
5800,34624
5801,34432
5802,34176
5803,33984
5804,33856
5805,33792
5806,33792
5807,33792
5808,33792
5809,33856
5810,33856
5811,33856
5812,33920
5813,33920
5814,33920
5815,33984
5816,33984
5817,34048
5818,34048
5819,33920
5820,33728
5821,33664
5822,34048
5823,35008
5824,36800
5825,39168
5826,42496
5827,46016
5828,48448
5829,48768
5830,47168
5831,43776
5832,39104
5833,34880
5834,31296
5835,28928
5836,27648
5837,27328
5838,27712
5839,28544
5840,29504
5841,30336
5842,31040
5843,31552
5844,32000
5845,32256
5846,32512
5847,32768
5848,32896
5849,33024
5850,33152
5851,33280
5852,33408
5853,33536
5854,33600
5855,33664
5856,33728
5857,33728
5858,33792
5859,33856
5860,33920
5861,33984
5862,33984
5863,33920
5864,33856
5865,33856
5866,33920
5867,33984
5868,34048
5869,34112
5870,34176
5871,34304
5872,34368
5873,34432
5874,34432
5875,34432
5876,34368
5877,34368
5878,34432
5879,34432
5880,34432
5881,34496
5882,34496
5883,34496
5884,34432
5885,34304
5886,34304
5887,34240
5888,34240
5889,34176
5890,34112
5891,33984
5892,33856
5893,33792
5894,33728
5895,33600
5896,33536
5897,33408
5898,33280
5899,33152
5900,33088
5901,32960
5902,32896
5903,32832
5904,32832
5905,32896
5906,32896
5907,32960
5908,32960
5909,32960
5910,32896
5911,32960
5912,32960
5913,33024
5914,33088
5915,33152
5916,33216
5917,33280
5918,33344
5919,33408
5920,33408
5921,33472
5922,33536
5923,33536
5924,33600
5925,33664
5926,33728
5927,33728
5928,33792
5929,33792
5930,33728
5931,33664
5932,33600
5933,33600
5934,33664
5935,33728
5936,33728
5937,33792
5938,33792
5939,33792
5940,33792
5941,33728
5942,33728
5943,33728
5944,33728
5945,33728
5946,33664
5947,33664
5948,33664
5949,33664
5950,33664
5951,33664
5952,33664
5953,33600
5954,33600
5955,33600
5956,33664
5957,33728
5958,33728
5959,33728
5960,33728
5961,33728
5962,33728
5963,33728
5964,33728
5965,33792
5966,33792
5967,33792
5968,33792
5969,33792
5970,33856
5971,33856
5972,33792
5973,33792
5974,33728
5975,33728
5976,33728
5977,33664
5978,33664
5979,33600
5980,33664
5981,33728
5982,33856
5983,33920
5984,34048
5985,34176
5986,34240
5987,34176
5988,34176
5989,34176
5990,34240
5991,34304
5992,34432
5993,34496
5994,34496
5995,34432
5996,34304
5997,34240
5998,34176
5999,33984
6000,33792
6001,33536
6002,33280
6003,33088
6004,32960
6005,32896
6006,32960
6007,33024
6008,33088
6009,33152
6010,33152
6011,33152
6012,33216
6013,33216
6014,33216
6015,33280
6016,33280
6017,33344
6018,33344
6019,33216
6020,32960
6021,32832
6022,33024
6023,33856
6024,35520
6025,37888
6026,41152
6027,44608
6028,47232
6029,48064
6030,47040
6031,44096
6032,39680
6033,35456
6034,31616
6035,28928
6036,27392
6037,26752
6038,26816
6039,27456
6040,28352
6041,29248
6042,30144
6043,30656
6044,31104
6045,31488
6046,31744
6047,31872
6048,32064
6049,32192
6050,32320
6051,32448
6052,32576
6053,32704
6054,32832
6055,32896
6056,32960
6057,33024
6058,33088
6059,33152
6060,33152
6061,33216
6062,33280
6063,33344
6064,33344
6065,33344
6066,33344
6067,33280
6068,33280
6069,33344
6070,33408
6071,33536
6072,33664
6073,33664
6074,33728
6075,33856
6076,33920
6077,33920
6078,33984
6079,33984
6080,33984
6081,33984
6082,34048
6083,34048
6084,33984
6085,33856
6086,33792
6087,33728
6088,33728
6089,33664
6090,33664
6091,33536
6092,33472
6093,33344
6094,33280
6095,33280
6096,33216
6097,33152
6098,33088
6099,32960
6100,32896
6101,32832
6102,32768
6103,32704
6104,32640
6105,32640
6106,32640
6107,32576
6108,32640
6109,32704
6110,32704
6111,32832
6112,32960
6113,33024
6114,33024
6115,33088
6116,33216
6117,33280
6118,33280
6119,33280
6120,33344
6121,33344
6122,33408
6123,33472
6124,33472
6125,33536
6126,33536
6127,33600
6128,33536
6129,33536
6130,33536
6131,33600
6132,33664
6133,33664
6134,33664
6135,33664
6136,33728
6137,33728
6138,33792
6139,33728
6140,33664
6141,33600
6142,33600
6143,33600
6144,33600
6145,33536
6146,33472
6147,33472
6148,33536
6149,33536
6150,33600
6151,33600
6152,33600
6153,33600
6154,33600
6155,33600
6156,33536
6157,33536
6158,33536
6159,33536
6160,33536
6161,33472
6162,33536
6163,33536
6164,33536
6165,33472
6166,33472
6167,33472
6168,33472
6169,33472
6170,33536
6171,33600
6172,33664
6173,33664
6174,33664
6175,33792
6176,33920
6177,34048
6178,34048
6179,34112
6180,34176
6181,34112
6182,34112
6183,34176
6184,34304
6185,34368
6186,34368
6187,34304
6188,34240
6189,34176
6190,34112
6191,33984
6192,33664
6193,33472
6194,33280
6195,33152
6196,33088
6197,33088
6198,33024
6199,33024
6200,33088
6201,33152
6202,33152
6203,33088
6204,33088
6205,33152
6206,33216
6207,33280
6208,33344
6209,33344
6210,33280
6211,33152
6212,32960
6213,32960
6214,33344
6215,34304
6216,36160
6217,38848
6218,42240
6219,45632
6220,47808
6221,47936
6222,45504
6223,38400
6224,34112
6225,30720
6226,28480
6227,27264
6228,26944
6229,26944
6230,28032
6231,28928
6232,29824
6233,30528
6234,31104
6235,31424
6236,31808
6237,31744
6238,32256
6239,32448
6240,32576
6241,32768
6242,32896
6243,33024
6244,32960
6245,33152
6246,33152
6247,33280
6248,33344
6249,33408
6250,33408
6251,33472
6252,33472
6253,33536
6254,33536
6255,33600
6256,33664
6257,33728
6258,33728
6259,33792
6260,33728
6261,33792
6262,33792
6263,33856
6264,33920
6265,33984
6266,34048
6267,33984
6268,34112
6269,34112
6270,34176
6271,34176
6272,34112
6273,34112
6274,34112
6275,34112
6276,33984
6277,33920
6278,33856
6279,33792
6280,33728
6281,33664
6282,33600
6283,33536
6284,33472
6285,33408
6286,33344
6287,33280
6288,33152
6289,33088
6290,32960
6291,32832
6292,32832
6293,32768
6294,32768
6295,32768
6296,32768
6297,32704
6298,32768
6299,32768
6300,32768
6301,32832
6302,32960
6303,33024
6304,33152
6305,33216
6306,33216
6307,33280
6308,33280
6309,33344
6310,33408
6311,33408
6312,33472
6313,33472
6314,33536
6315,33600
6316,33600
6317,33664
6318,33664
6319,33664
6320,33664
6321,33664
6322,33664
6323,33664
6324,33728
6325,33728
6326,33728
6327,33792
6328,33728
6329,33728
6330,33728
6331,33728
6332,33728
6333,33664
6334,33664
6335,33664
6336,33664
6337,33600
6338,33600
6339,33536
6340,33536
6341,33600
6342,33536
6343,33536
6344,33600
6345,33600
6346,33664
6347,33664
6348,33664
6349,33600
6350,33536
6351,33536
6352,33600
6353,33664
6354,33728
6355,33728
6356,33728
6357,33664
6358,33856
6359,33984
6360,34048
6361,34112
6362,34176
6363,34240
6364,34304
6365,34304
6366,34304
6367,34368
6368,34496
6369,34624
6370,34624
6371,34624
6372,34496
6373,34368
6374,34240
6375,34112
6376,33920
6377,33600
6378,33344
6379,33152
6380,33024
6381,33024
6382,33024
6383,33024
6384,33088
6385,33088
6386,33152
6387,33152
6388,33216
6389,33280
6390,33344
6391,33344
6392,33408
6393,33472
6394,33408
6395,33280
6396,33088
6397,33152
6398,33664
6399,34688
6400,36480
6401,39168
6402,42688
6403,46080
6404,48064
6405,47936
6406,45824
6407,41664
6408,37504
6409,33280
6410,30016
6411,28032
6412,27072
6413,26880
6414,27456
6415,28352
6416,29632
6417,29696
6418,30656
6419,31104
6420,31488
6421,31744
6422,32000
6423,32256
6424,32448
6425,32576
6426,32704
6427,32768
6428,32896
6429,33024
6430,33088
6431,33216
6432,33152
6433,33280
6434,33344
6435,33408
6436,33472
6437,33472
6438,33472
6439,33472
6440,33472
6441,33536
6442,33600
6443,33664
6444,33728
6445,33792
6446,33856
6447,33792
6448,34048
6449,34112
6450,34112
6451,34112
6452,34112
6453,34112
6454,34112
6455,34112
6456,34176
6457,34176
6458,34176
6459,34176
6460,34176
6461,34112
6462,34112
6463,34048
6464,33984
6465,33920
6466,33856
6467,33792
6468,33728
6469,33600
6470,33472
6471,33344
6472,33216
6473,33152
6474,33088
6475,32960
6476,32896
6477,32768
6478,32768
6479,32768
6480,32768
6481,32768
6482,32768
6483,32832
6484,32896
6485,32960
6486,33024
6487,33024
6488,33024
6489,33088
6490,33152
6491,33280
6492,33280
6493,33344
6494,33344
6495,33408
6496,33408
6497,33472
6498,33536
6499,33600
6500,33664
6501,33728
6502,33728
6503,33792
6504,33792
6505,33792
6506,33792
6507,33792
6508,33792
6509,33856
6510,33856
6511,33856
6512,33856
6513,33856
6514,33792
6515,33792
6516,33728
6517,33792
6518,33792
6519,33856
6520,33856
6521,33792
6522,33792
6523,33792
6524,33792
6525,33792
6526,33792
6527,33856
6528,33792
6529,33728
6530,33664
6531,33728
6532,33792
6533,33856
6534,33792
6535,33792
6536,33792
6537,33728
6538,33792
6539,33792
6540,33792
6541,33792
6542,33920
6543,34112
6544,34176
6545,34176
6546,34176
6547,34240
6548,34368
6549,34496
6550,34560
6551,34624
6552,34688
6553,34752
6554,34752
6555,34688
6556,34560
6557,34368
6558,34240
6559,34048
6560,33856
6561,33600
6562,33408
6563,33280
6564,33152
6565,33088
6566,33152
6567,33088
6568,33152
6569,33216
6570,33280
6571,33280
6572,33344
6573,33344
6574,33408
6575,33536
6576,33536
6577,33536
6578,33472
6579,33280
6580,33088
6581,33216
6582,33728
6583,34752
6584,36544
6585,39232
6586,42688
6587,46080
6588,48000
6589,47872
6590,45824
6591,42112
6592,37632
6593,33408
6594,30208
6595,28160
6596,27072
6597,27008
6598,27456
6599,28352
6600,29248
6601,30080
6602,30720
6603,31168
6604,31488
6605,31744
6606,32000
6607,32256
6608,32448
6609,32704
6610,32832
6611,33024
6612,32960
6613,33088
6614,33152
6615,33216
6616,33280
6617,33408
6618,33472
6619,33472
6620,33472
6621,33472
6622,33536
6623,33536
6624,33600
6625,33664
6626,33728
6627,33792
6628,33792
6629,33856
6630,33920
6631,33984
6632,34048
6633,34112
6634,34112
6635,34176
6636,34304
6637,34304
6638,34304
6639,34304
6640,34304
6641,34304
6642,34304
6643,34304
6644,34304
6645,34176
6646,34112
6647,34048
6648,33984
6649,33920
6650,33792
6651,33728
6652,33664
6653,33600
6654,33472
6655,33408
6656,33216
6657,33152
6658,33024
6659,32960
6660,32832
6661,32832
6662,32832
6663,32768
6664,32768
6665,32704
6666,32704
6667,32768
6668,32768
6669,32832
6670,32896
6671,32960
6672,32960
6673,33088
6674,33152
6675,33216
6676,33344
6677,33408
6678,33408
6679,33408
6680,33472
6681,33536
6682,33600
6683,33600
6684,33600
6685,33664
6686,33664
6687,33664
6688,33728
6689,33792
6690,33792
6691,33856
6692,33856
6693,33856
6694,33920
6695,33984
6696,33984
6697,33856
6698,33728
6699,33664
6700,33664
6701,33664
6702,33728
6703,33792
6704,33792
6705,33792
6706,33792
6707,33792
6708,33792
6709,33728
6710,33728
6711,33728
6712,33728
6713,33728
6714,33792
6715,33856
6716,33792
6717,33728
6718,33664
6719,33728
6720,33728
6721,33728
6722,33728
6723,33728
6724,33728
6725,33728
6726,33728
6727,33728
6728,33792
6729,33920
6730,34112
6731,34240
6732,34240
6733,34176
6734,34176
6735,34304
6736,34432
6737,34496
6738,34624
6739,34752
6740,34816
6741,34816
6742,34752
6743,34624
6744,34496
6745,34368
6746,34240
6747,34048
6748,33728
6749,33472
6750,33280
6751,33152
6752,33088
6753,33088
6754,33088
6755,33216
6756,33280
6757,33280
6758,33344
6759,33344
6760,33344
6761,33536
6762,33472
6763,33600
6764,33600
6765,33536
6766,33408
6767,33152
6768,33024
6769,33216
6770,33920
6771,35328
6772,37632
6773,40704
6774,44160
6775,46976
6776,48064
6777,47232
6778,44544
6779,40512
6780,36160
6781,32320
6782,29632
6783,27968
6784,27264
6785,27200
6786,27712
6787,28608
6788,29440
6789,30272
6790,30912
6791,31488
6792,31744
6793,32064
6794,32320
6795,32512
6796,32704
6797,32832
6798,32960
6799,33024
6800,33088
6801,33216
6802,33280
6803,33344
6804,33408
6805,33408
6806,33472
6807,33536
6808,33536
6809,33600
6810,33664
6811,33728
6812,33728
6813,33856
6814,33856
6815,33920
6816,33920
6817,33920
6818,33920
6819,33984
6820,34048
6821,34176
6822,34240
6823,34240
6824,34304
6825,34368
6826,34432
6827,34496
6828,34496
6829,34432
6830,34432
6831,34432
6832,34368
6833,34368
6834,34240
6835,34176
6836,34112
6837,33984
6838,33920
6839,33920
6840,33856
6841,33792
6842,33664
6843,33536
6844,33408
6845,33344
6846,33216
6847,33088
6848,33024
6849,33024
6850,32960
6851,32896
6852,32896
6853,32896
6854,32896
6855,32960
6856,33024
6857,33024
6858,33088
6859,33152
6860,33216
6861,33344
6862,33344
6863,33408
6864,33408
6865,33472
6866,33536
6867,33600
6868,33536
6869,33536
6870,33536
6871,33536
6872,33600
6873,33728
6874,33728
6875,33728
6876,33792
6877,33856
6878,33856
6879,33920
6880,33984
6881,33984
6882,33920
6883,33920
6884,33920
6885,33920
6886,33856
6887,33792
6888,33792
6889,33792
6890,33792
6891,33792
6892,33792
6893,33856
6894,33856
6895,33920
6896,33856
6897,33920
6898,33920
6899,33920
6900,33856
6901,33792
6902,33792
6903,33792
6904,33728
6905,33792
6906,33856
6907,33856
6908,33856
6909,33792
6910,33856
6911,33856
6912,33920
6913,33920
6914,33856
6915,33856
6916,33856
6917,33920
6918,34048
6919,34176
6920,34240
6921,34240
6922,34176
6923,34176
6924,34240
6925,34368
6926,34496
6927,34560
6928,34688
6929,34752
6930,34816
6931,34816
6932,34752
6933,34624
6934,34560
6935,34368
6936,34176
6937,33856
6938,33536
6939,33344
6940,33280
6941,33216
6942,33216
6943,33216
6944,33280
6945,33344
6946,33408
6947,33472
6948,33472
6949,33536
6950,33536
6951,33600
6952,33600
6953,33664
6954,33664
6955,33600
6956,33408
6957,33152
6958,33280
6959,33920
6960,35264
6961,37440
6962,40512
6963,44160
6964,46912
6965,48128
6966,47424
6967,44800
6968,40896
6969,36480
6970,32576
6971,29696
6972,28096
6973,27392
6974,27328
6975,27840
6976,28736
6977,29632
6978,30464
6979,31040
6980,31488
6981,31872
6982,32192
6983,32384
6984,32576
6985,32768
6986,32960
6987,33024
6988,33152
6989,33216
6990,33280
6991,33408
6992,33472
6993,33536
6994,33600
6995,33664
6996,33728
6997,33728
6998,33792
6999,33920
7000,33920
7001,33920
7002,33920
7003,33920
7004,33984
7005,33984
7006,34048
7007,34048
7008,34112
7009,34176
7010,34304
7011,34368
7012,34368
7013,34368
7014,34368
7015,34432
7016,34432
7017,34496
7018,34432
7019,34432
7020,34368
7021,34368
7022,34368
7023,34368
7024,34304
7025,34240
7026,34112
7027,34048
7028,33920
7029,33792
7030,33664
7031,33600
7032,33472
7033,33344
7034,33280
7035,33216
7036,33152
7037,33024
7038,32960
7039,32896
7040,32832
7041,32832
7042,32896
7043,32960
7044,33024
7045,33024
7046,33088
7047,33152
7048,33216
7049,33280
7050,33280
7051,33344
7052,33344
7053,33408
7054,33472
7055,33472
7056,33536
7057,33600
7058,33600
7059,33664
7060,33728
7061,33792
7062,33856
7063,33856
7064,33920
7065,33920
7066,33920
7067,33920
7068,33920
7069,33920
7070,33920
7071,33920
7072,33984
7073,34048
7074,34048
7075,33984
7076,33920
7077,33856
7078,33856
7079,33856
7080,33856
7081,33920
7082,33920
7083,33920
7084,33920
7085,33920
7086,33920
7087,33856
7088,33856
7089,33792
7090,33856
7091,33856
7092,33920
7093,33856
7094,33792
7095,33728
7096,33792
7097,33792
7098,33856
7099,33856
7100,33856
7101,33856
7102,33856
7103,33856
7104,33856
7105,33856
7106,33856
7107,33920
7108,33984
7109,34112
7110,34240
7111,34304
7112,34368
7113,34368
7114,34432
7115,34432
7116,34496
7117,34496
7118,34560
7119,34624
7120,34688
7121,34752
7122,34752
7123,34688
7124,34624
7125,34496
7126,34368
7127,34176
7128,33920
7129,33664
7130,33472
7131,33344
7132,33344
7133,33344
7134,33344
7135,33344
7136,33280
7137,33280
7138,33344
7139,33344
7140,33408
7141,33472
7142,33472
7143,33536
7144,33536
7145,33472
7146,33408
7147,33344
7148,33216
7149,33408
7150,33984
7151,35136
7152,37056
7153,39872
7154,43328
7155,46528
7156,48128
7157,47616
7158,45120
7159,41216
7160,36864
7161,32704
7162,29696
7163,27904
7164,27136
7165,27136
7166,27712
7167,28672
7168,29504
7169,30272
7170,30912
7171,31424
7172,31808
7173,32128
7174,32384
7175,32576
7176,32704
7177,32832
7178,32960
7179,33024
7180,33088
7181,33152
7182,33216
7183,33280
7184,33344
7185,33408
7186,33536
7187,33600
7188,33728
7189,33728
7190,33792
7191,33792
7192,33792
7193,33856
7194,33920
7195,33920
7196,34048
7197,34112
7198,34176
7199,34176
7200,34112
7201,34112
7202,34176
7203,34240
7204,34304
7205,34432
7206,34496
7207,34624
7208,34560
7209,34560
7210,34560
7211,34560
7212,34496
7213,34432
7214,34304
7215,34176
7216,34176
7217,34048
7218,33984
7219,33856
7220,33728
7221,33600
7222,33408
7223,33280
7224,33152
7225,33088
7226,33024
7227,33024
7228,32960
7229,32896
7230,32832
7231,32768
7232,32704
7233,32704
7234,32768
7235,32832
7236,32896
7237,32960
7238,32960
7239,33024
7240,33088
7241,33152
7242,33280
7243,33280
7244,33344
7245,33408
7246,33408
7247,33408
7248,33472
7249,33536
7250,33600
7251,33664
7252,33664
7253,33664
7254,33728
7255,33792
7256,33856
7257,33856
7258,33856
7259,33856
7260,33792
7261,33792
7262,33856
7263,33856
7264,33920
7265,33920
7266,33920
7267,33920
7268,33984
7269,33920
7270,33856
7271,33856
7272,33856
7273,33856
7274,33856
7275,33856
7276,33792
7277,33792
7278,33792
7279,33792
7280,33792
7281,33792
7282,33792
7283,33792
7284,33728
7285,33728
7286,33792
7287,33856
7288,33856
7289,33920
7290,33920
7291,33920
7292,33856
7293,33856
7294,33856
7295,33792
7296,33728
7297,33792
7298,33792
7299,33856
7300,33856
7301,33856
7302,33920
7303,33984
7304,34048
7305,34048
7306,33984
7307,33920
7308,33920
7309,33920
7310,33920
7311,33984
7312,34048
7313,34176
7314,34240
7315,34368
7316,34432
7317,34432
7318,34496
7319,34496
7320,34496
7321,34560
7322,34688
7323,34816
7324,34880
7325,34816
7326,34688
7327,34560
7328,34432
7329,34368
7330,34240
7331,34048
7332,33792
7333,33536
7334,33408
7335,33344
7336,33280
7337,33280
7338,33344
7339,33408
7340,33408
7341,33408
7342,33408
7343,33408
7344,33472
7345,33472
7346,33536
7347,33600
7348,33600
7349,33536
7350,33408
7351,33280
7352,33344
7353,33856
7354,34880
7355,36672
7356,39296
7357,42752
7358,46144
7359,48064
7360,47872
7361,45824
7362,42048
7363,37568
7364,33408
7365,30208
7366,28224
7367,27328
7368,27200
7369,27840
7370,28544
7371,29440
7372,30208
7373,30848
7374,31296
7375,31744
7376,32064
7377,32320
7378,32512
7379,32640
7380,32768
7381,32896
7382,33024
7383,33088
7384,33216
7385,33216
7386,33280
7387,33344
7388,33408
7389,33472
7390,33536
7391,33600
7392,33600
7393,33664
7394,33664
7395,33664
7396,33728
7397,33792
7398,33856
7399,33856
7400,33856
7401,33856
7402,33920
7403,33920
7404,34048
7405,34112
7406,34176
7407,34304
7408,34368
7409,34432
7410,34432
7411,34432
7412,34432
7413,34432
7414,34368
7415,34368
7416,34304
7417,34240
7418,34176
7419,34176
7420,34048
7421,33984
7422,33856
7423,33792
7424,33664
7425,33536
7426,33472
7427,33408
7428,33344
7429,33152
7430,33024
7431,32896
7432,32832
7433,32832
7434,32832
7435,32768
7436,32704
7437,32704
7438,32768
7439,32832
7440,32896
7441,32960
7442,33024
7443,33088
7444,33088
7445,33088
7446,33152
7447,33152
7448,33280
7449,33344
7450,33472
7451,33536
7452,33536
7453,33536
7454,33600
7455,33664
7456,33728
7457,33728
7458,33792
7459,33728
7460,33728
7461,33664
7462,33664
7463,33664
7464,33728
7465,33792
7466,33792
7467,33792
7468,33856
7469,33856
7470,33856
7471,33920
7472,33920
7473,33856
7474,33856
7475,33856
7476,33856
7477,33792
7478,33792
7479,33728
7480,33728
7481,33664
7482,33664
7483,33664
7484,33664
7485,33728
7486,33728
7487,33728
7488,33728
7489,33664
7490,33664
7491,33728
7492,33728
7493,33792
7494,33792
7495,33792
7496,33728
7497,33728
7498,33792
7499,33856
7500,33856
7501,33856
7502,33728
7503,33728
7504,33728
7505,33728
7506,33792
7507,33792
7508,33856
7509,33856
7510,33856
7511,33792
7512,33792
7513,33856
7514,33856
7515,33856
7516,33856
7517,33920
7518,34048
7519,34176
7520,34240
7521,34240
7522,34304
7523,34304
7524,34304
7525,34304
7526,34368
7527,34496
7528,34560
7529,34624
7530,34624
7531,34560
7532,34432
7533,34368
7534,34304
7535,34176
7536,33984
7537,33728
7538,33472
7539,33280
7540,33216
7541,33216
7542,33280
7543,33280
7544,33344
7545,33408
7546,33408
7547,33408
7548,33408
7549,33408
7550,33408
7551,33472
7552,33536
7553,33536
7554,33536
7555,33408
7556,33216
7557,33088
7558,33344
7559,34112
7560,35648
7561,37952
7562,41088
7563,44480
7564,47104
7565,48000
7566,46976
7567,44096
7568,40000
7569,35648
7570,31936
7571,29312
7572,27840
7573,27200
7574,27200
7575,27776
7576,28608
7577,29504
7578,30272
7579,30912
7580,31424
7581,31744
7582,32000
7583,32192
7584,32448
7585,32640
7586,32768
7587,32896
7588,33024
7589,33024
7590,33088
7591,33152
7592,33216
7593,33344
7594,33408
7595,33472
7596,33472
7597,33536
7598,33536
7599,33600
7600,33664
7601,33728
7602,33728
7603,33728
7604,33792
7605,33792
7606,33856
7607,33920
7608,33984
7609,33984
7610,34048
7611,34048
7612,34112
7613,34176
7614,34240
7615,34240
7616,34304
7617,34368
7618,34368
7619,34368
7620,34368
7621,34304
7622,34304
7623,34304
7624,34304
7625,34240
7626,34048
7627,33920
7628,33792
7629,33664
7630,33600
7631,33536
7632,33472
7633,33408
7634,33280
7635,33152
7636,33024
7637,32960
7638,32960
7639,32960
7640,32896
7641,32832
7642,32832
7643,32896
7644,32960
7645,32960
7646,32960
7647,32960
7648,33024
7649,33024
7650,33152
7651,33152
7652,33216
7653,33344
7654,33344
7655,33472
7656,33536
7657,33600
7658,33664
7659,33664
7660,33664
7661,33728
7662,33728
7663,33728
7664,33728
7665,33728
7666,33792
7667,33856
7668,33920
7669,33920
7670,33920
7671,33920
7672,33920
7673,33920
7674,33984
7675,33984
7676,33920
7677,33920
7678,33920
7679,33920
7680,33856
7681,33856
7682,33792
7683,33792
7684,33792
7685,33856
7686,33792
7687,33792
7688,33728
7689,33792
7690,33856
7691,33856
7692,33856
7693,33856
7694,33792
7695,33792
7696,33728
7697,33728
7698,33792
7699,33856
7700,33856
7701,33856
7702,33792
7703,33728
7704,33728
7705,33728
7706,33792
7707,33792
7708,33792
7709,33792
7710,33856
7711,33856
7712,33920
7713,33856
7714,33856
7715,33856
7716,33920
7717,33984
7718,33984
7719,33984
7720,34048
7721,34048
7722,34176
7723,34304
7724,34304
7725,34368
7726,34368
7727,34368
7728,34432
7729,34496
7730,34624
7731,34688
7732,34688
7733,34688
7734,34560
7735,34560
7736,34496
7737,34432
7738,34240
7739,33984
7740,33664
7741,33408
7742,33344
7743,33344
7744,33344
7745,33280
7746,33280
7747,33280
7748,33344
7749,33408
7750,33536
7751,33536
7752,33600
7753,33600
7754,33600
7755,33600
7756,33600
7757,33472
7758,33280
7759,33152
7760,33344
7761,34048
7762,35584
7763,37632
7764,40640
7765,44096
7766,46976
7767,48192
7768,47424
7769,44864
7770,40896
7771,36608
7772,32704
7773,29824
7774,28032
7775,27200
7776,27200
7777,27712
7778,28544
7779,29504
7780,30336
7781,30976
7782,31488
7783,31872
7784,32192
7785,32384
7786,32576
7787,32768
7788,32960
7789,33024
7790,33088
7791,33152
7792,33216
7793,33280
7794,33344
7795,33408
7796,33472
7797,33536
7798,33536
7799,33600
7800,33600
7801,33728
7802,33792
7803,33856
7804,33856
7805,33856
7806,33856
7807,33856
7808,33920
7809,33984
7810,34048
7811,34112
7812,34176
7813,34176
7814,34240
7815,34304
7816,34368
7817,34432
7818,34496
7819,34560
7820,34496
7821,34496
7822,34496
7823,34496
7824,34496
7825,34432
7826,34368
7827,34240
7828,34176
7829,34112
7830,34048
7831,33920
7832,33728
7833,33536
7834,33408
7835,33344
7836,33280
7837,33216
7838,33088
7839,33024
7840,32896
7841,32896
7842,32896
7843,32896
7844,32896
7845,32896
7846,32832
7847,32832
7848,32960
7849,33024
7850,33088
7851,33152
7852,33216
7853,33280
7854,33344
7855,33344
7856,33344
7857,33408
7858,33472
7859,33536
7860,33600
7861,33664
7862,33664
7863,33728
7864,33792
7865,33856
7866,33856
7867,33856
7868,33920
7869,33920
7870,33920
7871,33920
7872,33920
7873,33984
7874,33984
7875,33920
7876,33920
7877,33984
7878,33984
7879,33984
7880,33984
7881,33984
7882,33984
7883,33920
7884,33920
7885,33856
7886,33856
7887,33856
7888,33856
7889,33792
7890,33792
7891,33792
7892,33792
7893,33856
7894,33792
7895,33792
7896,33856
7897,33856
7898,33856
7899,33792
7900,33728
7901,33728
7902,33728
7903,33792
7904,33856
7905,33856
7906,33856
7907,33792
7908,33792
7909,33792
7910,33792
7911,33792
7912,33856
7913,33856
7914,33920
7915,33920
7916,33856
7917,33920
7918,33920
7919,33920
7920,33920
7921,33920
7922,33920
7923,33856
7924,33856
7925,33920
7926,33920
7927,33984
7928,34048
7929,34176
7930,34368
7931,34432
7932,34432
7933,34432
7934,34432
7935,34496
7936,34496
7937,34496
7938,34624
7939,34688
7940,34752
7941,34752
7942,34688
7943,34560
7944,34432
7945,34304
7946,34112
7947,33984
7948,33728
7949,33536
7950,33344
7951,33280
7952,33280
7953,33216
7954,33280
7955,33344
7956,33408
7957,33408
7958,33408
7959,33472
7960,33472
7961,33600
7962,33664
7963,33728
7964,33728
7965,33600
7966,33344
7967,33152
7968,33280
7969,33920
7970,34944
7971,36800
7972,39488
7973,43008
7974,46336
7975,48256
7976,48128
7977,46016
7978,42240
7979,37696
7980,33472
7981,30272
7982,28224
7983,27200
7984,27072
7985,27584
7986,28480
7987,29376
7988,30144
7989,30784
7990,31232
7991,31616
7992,32000
7993,32192
7994,32448
7995,32640
7996,32768
7997,32896
7998,33024
7999,33152
8000,33216
8001,33216
8002,33280
8003,33344
8004,33408
8005,33536
8006,33600
8007,33664
8008,33664
8009,33664
8010,33728
8011,33792
8012,33792
8013,33856
8014,33856
8015,33856
8016,33856
8017,33920
8018,34048
8019,34112
8020,34176
8021,34240
8022,34304
8023,34304
8024,34368
8025,34432
8026,34496
8027,34496
8028,34496
8029,34496
8030,34496
8031,34560
8032,34496
8033,34496
8034,34432
8035,34368
8036,34240
8037,34176
8038,34112
8039,33984
8040,33856
8041,33728
8042,33408
8043,33344
8044,33152
8045,33088
8046,32960
8047,32896
8048,32832
8049,32832
8050,32832
8051,32832
8052,32768
8053,32768
8054,32832
8055,32896
8056,32960
8057,33088
8058,33024
8059,33088
8060,33088
8061,33152
8062,33216
8063,33280
8064,33280
8065,33344
8066,33344
8067,33344
8068,33472
8069,33536
8070,33600
8071,33664
8072,33728
8073,33728
8074,33664
8075,33728
8076,33792
8077,33792
8078,33792
8079,33792
8080,33792
8081,33792
8082,33792
8083,33856
8084,33856
8085,33856
8086,33856
8087,33856
8088,33856
8089,33792
8090,33856
8091,33856
8092,33856
8093,33792
8094,33728
8095,33792
8096,33792
8097,33856
8098,33856
8099,33792
8100,33792
8101,33792
8102,33728
8103,33728
8104,33664
8105,33728
8106,33728
8107,33728
8108,33728
8109,33792
8110,33792
8111,33792
8112,33792
8113,33792
8114,33792
8115,33792
8116,33792
8117,33792
8118,33792
8119,33792
8120,33920
8121,33984
8122,33920
8123,33856
8124,33856
8125,33856
8126,33856
8127,33792
8128,33856
8129,33920
8130,33984
8131,33920
8132,33920
8133,33920
8134,33920
8135,33984
8136,34048
8137,34112
8138,34240
8139,34368
8140,34368
8141,34368
8142,34304
8143,34368
8144,34304
8145,34368
8146,34496
8147,34624
8148,34688
8149,34688
8150,34560
8151,34432
8152,34304
8153,34304
8154,34240
8155,34112
8156,33920
8157,33664
8158,33472
8159,33280
8160,33216
8161,33216
8162,33216
8163,33216
8164,33216
8165,33280
8166,33280
8167,33344
8168,33408
8169,33472
8170,33472
8171,33472
8172,33408
8173,33472
8174,33344
8175,33216
8176,33280
8177,33664
8178,34560
8179,36096
8180,38464
8181,41728
8182,45184
8183,47680
8184,48256
8185,46784
8186,43456
8187,39104
8188,34624
8189,31040
8190,28608
8191,27328
8192,26880
8193,27136
8194,28032
8195,28928
8196,29760
8197,30528
8198,31040
8199,31488
8200,31808
8201,32128
8202,32128
8203,32512
8204,32704
8205,32768
8206,32896
8207,32896
8208,33024
8209,33088
8210,33088
8211,33152
8212,33216
8213,33280
8214,33344
8215,33408
8216,33472
8217,33472
8218,33536
8219,33600
8220,33664
8221,33728
8222,33728
8223,33792
8224,33856
8225,33856
8226,33920
8227,33984
8228,34048
8229,34112
8230,34176
8231,34304
8232,34240
8233,34432
8234,34368
8235,34368
8236,34368
8237,34368
8238,34432
8239,34432
8240,34432
8241,34368
8242,34304
8243,34240
8244,34176
8245,34112
8246,33984
8247,33856
8248,33728
8249,33600
8250,33472
8251,33408
8252,33344
8253,33216
8254,33152
8255,33088
8256,32960
8257,32832
8258,32768
8259,32704
8260,32704
8261,32704
8262,32704
8263,32768
8264,32832
8265,32832
8266,32896
8267,33024
8268,33152
8269,33216
8270,33152
8271,33216
8272,33280
8273,33280
8274,33344
8275,33472
8276,33472
8277,33408
8278,33472
8279,33536
8280,33600
8281,33664
8282,33664
8283,33728
8284,33792
8285,33856
8286,33856
8287,33856
8288,33856
8289,33856
8290,33856
8291,33920
8292,33856
8293,33984
8294,33856
8295,33792
8296,33728
8297,33728
8298,33728
8299,33792
8300,33792
8301,33856
8302,33856
8303,33856
8304,33856
8305,33856
8306,33856
8307,33856
8308,33856
8309,33792
8310,33728
8311,33728
8312,33792
8313,33856
8314,33856
8315,33792
8316,33728
8317,33664
8318,33664
8319,33728
8320,33792
8321,33856
8322,33792
8323,33856
8324,33856
8325,33856
8326,33856
8327,33920
8328,33856
8329,33856
8330,33792
8331,33856
8332,33856
8333,33920
8334,33920
8335,33856
8336,33856
8337,33856
8338,33856
8339,33856
8340,33920
8341,33984
8342,34112
8343,34240
8344,34304
8345,34368
8346,34304
8347,34304
8348,34304
8349,34304
8350,34368
8351,34560
8352,34496
8353,34560
8354,34560
8355,34496
8356,34432
8357,34368
8358,34304
8359,34176
8360,33920
8361,33728
8362,33536
8363,33344
8364,33280
8365,33216
8366,33216
8367,33280
8368,33280
8369,33280
8370,33344
8371,33344
8372,33408
8373,33408
8374,33408
8375,33408
8376,33472
8377,33472
8378,33408
8379,33216
8380,33024
8381,33216
8382,33856
8383,35200
8384,37376
8385,40448
8386,43904
8387,46848
8388,48192
8389,47552
8390,44992
8391,41152
8392,36864
8393,32960
8394,30016
8395,28160
8396,27136
8397,27136
8398,27584
8399,28416
8400,29312
8401,30080
8402,30720
8403,31296
8404,31744
8405,32064
8406,32384
8407,32576
8408,32704
8409,32768
8410,32832
8411,32896
8412,32960
8413,33024
8414,33152
8415,33280
8416,33344
8417,33408
8418,33472
8419,33536
8420,33600
8421,33664
8422,33664
8423,33664
8424,33728
8425,33792
8426,33856
8427,33792
8428,33920
8429,33984
8430,33984
8431,33984
8432,34048
8433,34048
8434,34112
8435,34176
8436,34304
8437,34368
8438,34432
8439,34496
8440,34496
8441,34496
8442,34432
8443,34496
8444,34496
8445,34432
8446,34432
8447,34368
8448,34368
8449,34304
8450,34240
8451,34176
8452,33984
8453,33792
8454,33664
8455,33600
8456,33472
8457,33408
8458,33344
8459,33216
8460,33152
8461,33024
8462,32896
8463,32896
8464,32832
8465,32832
8466,32960
8467,33024
8468,33024
8469,32960
8470,33024
8471,33024
8472,33088
8473,33088
8474,33152
8475,33280
8476,33344
8477,33408
8478,33472
8479,33536
8480,33536
8481,33536
8482,33536
8483,33600
8484,33664
8485,33792
8486,33920
8487,33856
8488,33856
8489,33792
8490,33792
8491,33856
8492,33920
8493,33856
8494,33920
8495,33920
8496,33920
8497,33984
8498,33920
8499,33920
8500,33920
8501,33920
8502,33984
8503,33984
8504,33984
8505,33984
8506,33920
8507,33920
8508,33920
8509,33920
8510,33856
8511,33792
8512,33792
8513,33792
8514,33792
8515,33792
8516,33856
8517,33792
8518,33920
8519,33856
8520,33856
8521,33856
8522,33856
8523,33920
8524,33920
8525,33920
8526,33984
8527,34048
8528,33984
8529,33920
8530,33856
8531,33856
8532,33792
8533,33856
8534,33920
8535,33920
8536,33920
8537,33920
8538,33984
8539,34048
8540,34176
8541,34240
8542,34432
8543,34496
8544,34496
8545,34496
8546,34496
8547,34432
8548,34496
8549,34560
8550,34688
8551,34752
8552,34816
8553,34752
8554,34624
8555,34496
8556,34432
8557,34368
8558,34240
8559,34048
8560,33792
8561,33536
8562,33408
8563,33344
8564,33344
8565,33344
8566,33408
8567,33472
8568,33472
8569,33536
8570,33536
8571,33600
8572,33600
8573,33600
8574,33536
8575,33600
8576,33600
8577,33536
8578,33280
8579,33152
8580,33344
8581,34048
8582,35456
8583,37760
8584,40640
8585,44096
8586,47104
8587,48448
8588,47680
8589,44992
8590,40960
8591,34624
8592,34048
8593,29568
8594,27840
8595,27072
8596,27072
8597,27712
8598,28608
8599,29504
8600,30272
8601,30976
8602,31552
8603,32000
8604,32256
8605,32448
8606,32640
8607,32576
8608,32832
8609,32896
8610,33088
8611,33216
8612,33344
8613,33408
8614,33472
8615,33408
8616,33472
8617,33536
8618,33600
8619,33664
8620,33728
8621,33792
8622,33792
8623,33792
8624,33792
8625,33792
8626,33792
8627,33856
8628,33984
8629,34048
8630,34112
8631,34176
8632,34176
8633,34304
8634,34304
8635,34368
8636,34368
8637,34368
8638,34432
8639,34496
8640,34496
8641,34560
8642,34496
8643,34496
8644,34432
8645,34368
8646,34304
8647,34240
8648,34176
8649,34112
8650,33984
8651,33792
8652,33728
8653,33536
8654,33408
8655,33344
8656,33280
8657,33152
8658,33088
8659,33024
8660,32960
8661,32896
8662,32832
8663,32832
8664,32896
8665,32960
8666,32960
8667,32896
8668,32896
8669,32960
8670,33024
8671,33024
8672,33088
8673,33152
8674,33216
8675,33280
8676,33344
8677,33408
8678,33408
8679,33472
8680,33536
8681,33664
8682,33664
8683,33664
8684,33664
8685,33664
8686,33664
8687,33728
8688,33792
8689,33792
8690,33856
8691,33856
8692,33856
8693,33920
8694,33920
8695,33920
8696,33984
8697,33984
8698,34048
8699,33984
8700,33920
8701,33856
8702,33856
8703,33856
8704,33856
8705,33792
8706,33792
8707,33792
8708,33792
8709,33792
8710,33792
8711,33792
8712,33856
8713,33856
8714,33920
8715,33984
8716,33984
8717,33984
8718,33920
8719,33856
8720,33792
8721,33792
8722,33792
8723,33792
8724,33792
8725,33856
8726,33856
8727,33856
8728,33920
8729,33920
8730,33920
8731,33920
8732,33920
8733,33920
8734,33920
8735,33856
8736,33920
8737,33984
8738,34112
8739,34176
8740,34240
8741,34368
8742,34304
8743,34432
8744,34432
8745,34496
8746,34560
8747,34560
8748,34560
8749,34624
8750,34688
8751,34688
8752,34624
8753,34560
8754,34496
8755,34432
8756,34304
8757,34240
8758,33984
8759,33792
8760,33536
8761,33344
8762,33280
8763,33280
8764,33280
8765,33344
8766,33344
8767,33344
8768,33344
8769,33344
8770,33472
8771,33536
8772,33536
8773,33600
8774,33600
8775,33600
8776,33600
8777,33408
8778,33344
8779,33600
8780,34368
8781,35776
8782,37888
8783,40896
8784,44416
8785,47296
8786,48320
8787,47360
8788,44544
8789,40320
8790,35840
8791,32000
8792,29312
8793,27776
8794,27200
8795,27392
8796,28096
8797,29056
8798,29824
8799,30528
8800,31104
8801,31616
8802,32064
8803,32320
8804,32512
8805,32640
8806,32768
8807,32832
8808,33024
8809,33152
8810,33216
8811,33344
8812,33408
8813,33472
8814,33536
8815,33600
8816,33600
8817,33664
8818,33728
8819,33792
8820,33856
8821,33792
8822,33792
8823,33856
8824,33856
8825,33920
8826,33984
8827,34048
8828,34112
8829,34176
8830,34240
8831,34240
8832,34304
8833,34368
8834,34432
8835,34496
8836,34624
8837,34624
8838,34688
8839,34688
8840,34624
8841,34560
8842,34560
8843,34432
8844,34368
8845,34240
8846,34112
8847,34048
8848,33984
8849,33984
8850,33920
8851,33856
8852,33728
8853,33664
8854,33536
8855,33344
8856,33216
8857,33152
8858,33024
8859,32960
8860,32960
8861,32960
8862,32960
8863,32960
8864,32960
8865,32960
8866,33024
8867,33088
8868,33152
8869,33152
8870,33216
8871,33280
8872,33408
8873,33408
8874,33472
8875,33472
8876,33536
8877,33536
8878,33600
8879,33664
8880,33728
8881,33792
8882,33856
8883,33856
8884,33856
8885,33920
8886,33984
8887,33984
8888,34048
8889,34048
8890,34112
8891,34112
8892,34048
8893,34048
8894,34048
8895,34048
8896,33984
8897,34048
8898,34112
8899,34112
8900,34112
8901,34048
8902,34048
8903,34048
8904,34048
8905,34048
8906,34048
8907,33984
8908,33984
8909,33984
8910,33984
8911,33984
8912,33984
8913,34048
8914,33984
8915,33984
8916,33984
8917,34048
8918,34112
8919,34112
8920,34048
8921,33984
8922,33984
8923,33984
8924,34048
8925,34048
8926,34048
8927,34048
8928,34112
8929,34112
8930,34112
8931,34112
8932,34112
8933,34048
8934,34048
8935,34048
8936,34048
8937,34112
8938,34112
8939,34176
8940,34240
8941,34240
8942,34240
8943,34368
8944,34496
8945,34624
8946,34688
8947,34752
8948,34688
8949,34688
8950,34688
8951,34688
8952,34752
8953,34880
8954,34944
8955,35008
8956,35008
8957,34880
8958,34752
8959,34688
8960,34560
8961,34432
8962,34240
8963,34048
8964,33856
8965,33664
8966,33536
8967,33536
8968,33536
8969,33472
8970,33472
8971,33536
8972,33600
8973,33664
8974,33728
8975,33792
8976,33856
8977,33856
8978,33920
8979,33920
8980,33856
8981,33664
8982,33536
8983,33728
8984,34304
8985,35520
8986,37504
8987,40384
8988,43968
8989,47040
8990,48512
8991,47936
8992,45440
8993,41344
8994,36864
8995,32896
8996,29888
8997,28032
8998,27136
8999,27008
9000,27648
9001,28544
9002,29504
9003,30336
9004,31040
9005,31488
9006,31872
9007,32128
9008,32256
9009,32448
9010,32768
9011,32960
9012,33024
9013,33024
9014,32960
9015,33024
9016,33088
9017,33216
9018,33344
9019,33472
9020,33536
9021,33600
9022,33664
9023,33728
9024,33792
9025,33856
9026,33856
9027,33856
9028,33856
9029,33856
9030,33920
9031,34048
9032,34112
9033,34176
9034,34176
9035,34176
9036,34176
9037,34176
9038,34240
9039,34304
9040,34368
9041,34496
9042,34560
9043,34624
9044,34624
9045,34624
9046,34560
9047,34560
9048,34560
9049,34496
9050,34432
9051,34240
9052,34112
9053,33984
9054,33920
9055,33856
9056,33664
9057,33408
9058,33216
9059,33024
9060,32960
9061,32960
9062,32960
9063,32896
9064,32960
9065,32960
9066,32960
9067,32832
9068,32768
9069,32768
9070,32896
9071,32960
9072,33024
9073,33024
9074,33024
9075,33088
9076,33088
9077,33216
9078,33280
9079,33408
9080,33536
9081,33728
9082,33792
9083,33792
9084,33664
9085,33600
9086,33600
9087,33664
9088,33792
9089,33856
9090,33856
9091,33984
9092,33984
9093,33984
9094,33984
9095,33920
9096,33920
9097,33920
9098,33920
9099,33984
9100,34048
9101,34112
9102,34048
9103,33984
9104,33984
9105,33920
9106,33920
9107,33920
9108,33920
9109,33920
9110,33920
9111,33920
9112,33984
9113,33984
9114,33920
9115,33856
9116,33856
9117,33920
9118,33920
9119,33984
9120,33984
9121,33984
9122,33920
9123,33920
9124,33856
9125,33792
9126,33792
9127,33728
9128,33792
9129,33856
9130,33920
9131,33920
9132,33920
9133,33920
9134,33984
9135,33984
9136,33984
9137,34048
9138,34048
9139,34112
9140,34112
9141,34176
9142,34240
9143,34240
9144,34368
9145,34496
9146,34560
9147,34624
9148,34624
9149,34560
9150,34560
9151,34560
9152,34688
9153,34752
9154,34816
9155,34816
9156,34688
9157,34624
9158,34560
9159,34432
9160,34368
9161,34176
9162,33984
9163,33792
9164,33664
9165,33536
9166,33408
9167,33408
9168,33472
9169,33472
9170,33536
9171,33600
9172,33664
9173,33728
9174,33728
9175,33728
9176,33664
9177,33664
9178,33728
9179,33664
9180,33536
9181,33344
9182,33408
9183,33920
9184,35008
9185,36672
9186,39296
9187,42624
9188,45824
9189,47872
9190,47936
9191,46208
9192,42752
9193,38400
9194,34112
9195,30720
9196,28544
9197,27392
9198,27136
9199,27520
9200,28352
9201,29248
9202,30080
9203,30720
9204,31232
9205,31616
9206,32000
9207,32256
9208,32512
9209,32704
9210,32832
9211,32960
9212,33088
9213,33280
9214,33280
9215,33280
9216,33344
9217,33344
9218,33408
9219,33536
9220,33600
9221,33600
9222,33664
9223,33664
9224,33664
9225,33664
9226,33728
9227,33792
9228,33856
9229,33920
9230,33920
9231,33984
9232,34112
9233,34176
9234,34240
9235,34240
9236,34304
9237,34368
9238,34432
9239,34496
9240,34560
9241,34560
9242,34560
9243,34560
9244,34560
9245,34560
9246,34496
9247,34432
9248,34368
9249,34304
9250,34240
9251,34176
9252,34048
9253,33984
9254,33920
9255,33856
9256,33728
9257,33600
9258,33472
9259,33408
9260,33280
9261,33152
9262,33088
9263,33024
9264,33024
9265,33024
9266,33024
9267,33024
9268,33088
9269,33024
9270,33024
9271,33024
9272,33088
9273,33088
9274,33152
9275,33216
9276,33280
9277,33344
9278,33472
9279,33536
9280,33600
9281,33664
9282,33728
9283,33792
9284,33856
9285,33920
9286,33920
9287,33984
9288,33984
9289,34048
9290,34048
9291,33984
9292,34048
9293,34048
9294,34112
9295,34112
9296,34112
9297,34112
9298,34112
9299,34112
9300,34048
9301,34048
9302,34048
9303,34048
9304,34048
9305,33984
9306,33984
9307,33984
9308,33984
9309,33984
9310,33984
9311,33920
9312,33920
9313,33920
9314,33920
9315,33920
9316,33920
9317,33984
9318,34048
9319,34048
9320,34048
9321,34112
9322,34048
9323,33984
9324,33984
9325,33984
9326,33984
9327,33920
9328,33856
9329,33920
9330,33984
9331,34112
9332,34176
9333,34304
9334,34368
9335,34432
9336,34432
9337,34496
9338,34560
9339,34624
9340,34816
9341,34944
9342,34944
9343,34944
9344,34880
9345,34816
9346,34752
9347,34624
9348,34432
9349,34112
9350,33792
9351,33600
9352,33472
9353,33408
9354,33408
9355,33408
9356,33472
9357,33472
9358,33472
9359,33472
9360,33536
9361,33600
9362,33664
9363,33728
9364,33728
9365,33792
9366,33856
9367,33792
9368,33536
9369,33280
9370,33408
9371,34048
9372,35456
9373,37760
9374,40896
9375,44352
9376,47040
9377,48192
9378,47552
9379,44864
9380,41280
9381,37056
9382,33216
9383,30336
9384,28544
9385,27712
9386,27584
9387,28032
9388,28864
9389,29760
9390,30464
9391,31168
9392,31680
9393,32064
9394,32384
9395,32640
9396,32832
9397,33024
9398,33152
9399,33280
9400,33472
9401,33600
9402,33664
9403,33728
9404,33792
9405,33856
9406,33856
9407,33984
9408,34048
9409,34112
9410,34112
9411,34048
9412,34112
9413,34176
9414,34176
9415,34240
9416,34304
9417,34368
9418,34432
9419,34496
9420,34560
9421,34624
9422,34624
9423,34752
9424,34752
9425,34752
9426,34816
9427,34816
9428,34880
9429,34880
9430,34880
9431,34944
9432,34880
9433,34880
9434,34880
9435,34880
9436,34816
9437,34816
9438,34688
9439,34560
9440,34432
9441,34368
9442,34240
9443,34176
9444,34048
9445,33920
9446,33792
9447,33728
9448,33600
9449,33536
9450,33472
9451,33408
9452,33408
9453,33472
9454,33536
9455,33536
9456,33472
9457,33536
9458,33600
9459,33600
9460,33600
9461,33600
9462,33664
9463,33728
9464,33792
9465,33856
9466,33856
9467,33856
9468,33984
9469,34048
9470,34112
9471,34112
9472,34176
9473,34176
9474,34176
9475,34240
9476,34240
9477,34304
9478,34304
9479,34368
9480,34368
9481,34368
9482,34432
9483,34432
9484,34432
9485,34432
9486,34496
9487,34432
9488,34368
9489,34368
9490,34368
9491,34368
9492,34368
9493,34304
9494,34240
9495,34240
9496,34240
9497,34240
9498,34240
9499,34176
9500,34176
9501,34176
9502,34176
9503,34176
9504,34240
9505,34240
9506,34304
9507,34368
9508,34496
9509,34560
9510,34560
9511,34624
9512,34624
9513,34688
9514,34816
9515,34944
9516,35072
9517,35136
9518,35264
9519,35200
9520,35136
9521,35008
9522,34944
9523,34816
9524,34752
9525,34624
9526,34432
9527,34112
9528,33856
9529,33728
9530,33600
9531,33536
9532,33536
9533,33600
9534,33664
9535,33728
9536,33728
9537,33792
9538,33856
9539,33920
9540,33984
9541,33984
9542,33984
9543,33984
9544,33920
9545,33792
9546,33664
9547,33664
9548,34112
9549,35200
9550,36736
9551,39296
9552,42688
9553,46016
9554,48256
9555,48512
9556,46848
9557,43456
9558,39104
9559,34816
9560,31360
9561,29056
9562,27904
9563,27584
9564,27904
9565,28736
9566,29568
9567,30400
9568,31040
9569,31616
9570,32064
9571,32384
9572,32640
9573,32832
9574,33024
9575,33152
9576,33280
9577,33408
9578,33472
9579,33600
9580,33600
9581,33664
9582,33728
9583,33792
9584,33856
9585,33920
9586,33984
9587,34048
9588,34112
9589,34176
9590,34176
9591,34176
9592,34240
9593,34240
9594,34240
9595,34368
9596,34432
9597,34560
9598,34624
9599,34624
9600,34624
9601,34688
9602,34752
9603,34816
9604,34880
9605,34944
9606,34944
9607,34944
9608,34944
9609,34880
9610,34816
9611,34752
9612,34752
9613,34752
9614,34688
9615,34560
9616,34432
9617,34304
9618,34112
9619,34048
9620,33920
9621,33792
9622,33728
9623,33600
9624,33472
9625,33408
9626,33280
9627,33216
9628,33088
9629,33024
9630,33024
9631,33024
9632,33024
9633,33088
9634,33216
9635,33216
9636,33216
9637,33280
9638,33344
9639,33344
9640,33472
9641,33536
9642,33536
9643,33536
9644,33600
9645,33728
9646,33792
9647,33856
9648,33920
9649,33920
9650,33920
9651,33984
9652,34048
9653,34112
9654,34112
9655,34112
9656,34176
9657,34176
9658,34112
9659,34112
9660,34112
9661,34112
9662,34176
9663,34176
9664,34176
9665,34112
9666,34048
9667,34048
9668,34048
9669,34112
9670,34176
9671,34176
9672,34176
9673,34112
9674,34112
9675,34048
9676,34048
9677,34112
9678,34112
9679,34176
9680,34176
9681,34112
9682,34048
9683,34048
9684,34112
9685,34176
9686,34368
9687,34560
9688,34688
9689,34752
9690,34624
9691,34624
9692,34688
9693,34752
9694,35008
9695,35200
9696,35200
9697,35072
9698,34880
9699,34880
9700,35008
9701,34944
9702,34624
9703,34304
9704,33920
9705,33600
9706,33472
9707,33472
9708,33472
9709,33536
9710,33664
9711,33856
9712,33856
9713,33472
9714,33152
9715,33216
9716,33408
9717,33600
9718,33856
9719,34048
9720,34048
9721,33600
9722,33088
9723,32768
9724,32576
9725,32640
9726,33216
9727,34432
9728,36288
9729,39040
9730,42688
9731,46336
9732,48640
9733,48768
9734,46976
9735,43328
9736,38784
9737,34304
9738,30656
9739,28352
9740,27200
9741,26944
9742,27456
9743,28416
9744,29440
9745,30272
9746,30912
9747,31488
9748,31808
9749,32128
9750,32512
9751,32768
9752,32960
9753,33152
9754,33216
9755,33280
9756,33280
9757,33344
9758,33472
9759,33600
9760,33728
9761,33792
9762,33856
9763,33856
9764,33856
9765,33856
9766,33920
9767,33984
9768,34112
9769,34112
9770,34112
9771,34112
9772,34176
9773,34112
9774,34048
9775,34048
9776,34112
9777,34240
9778,34368
9779,34560
9780,34624
9781,34688
9782,34688
9783,34816
9784,34880
9785,34816
9786,34752
9787,34752
9788,34880
9789,34816
9790,34688
9791,34496
9792,34496
9793,34496
9794,34432
9795,34304
9796,34112
9797,33984
9798,33792
9799,33664
9800,33536
9801,33472
9802,33344
9803,33216
9804,33152
9805,33024
9806,32960
9807,32960
9808,32896
9809,32960
9810,32960
9811,33024
9812,33088
9813,33152
9814,33280
9815,33344
9816,33344
9817,33408
9818,33472
9819,33536
9820,33600
9821,33664
9822,33664
9823,33728
9824,33728
9825,33792
9826,33856
9827,33920
9828,33984
9829,33984
9830,34048
9831,33984
9832,33984
9833,34048
9834,34112
9835,34176
9836,34112
9837,34048
9838,33984
9839,33984
9840,33920
9841,33920
9842,33920
9843,33920
9844,33920
9845,33920
9846,33984
9847,33984
9848,33984
9849,34048
9850,34048
9851,34048
9852,34048
9853,34048
9854,34048
9855,34048
9856,33984
9857,33920
9858,33920
9859,33920
9860,33984
9861,33984
9862,34112
9863,34112
9864,34176
9865,34240
9866,34368
9867,34304
9868,34496
9869,34560
9870,34624
9871,34688
9872,34752
9873,34880
9874,34944
9875,35008
9876,35072
9877,35072
9878,35008
9879,34944
9880,34752
9881,34624
9882,34496
9883,34304
9884,34112
9885,33856
9886,33664
9887,33536
9888,33472
9889,33472
9890,33472
9891,33536
9892,33536
9893,33536
9894,33536
9895,33600
9896,33600
9897,33536
9898,33536
9899,33600
9900,33664
9901,33664
9902,33728
9903,33600
9904,33472
9905,33600
9906,34112
9907,35200
9908,36992
9909,39680
9910,43136
9911,46400
9912,48128
9913,47808
9914,45632
9915,41856
9916,37504
9917,33344
9918,30144
9919,29888
9920,27520
9921,27392
9922,27904
9923,28800
9924,29696
9925,30400
9926,31168
9927,31168
9928,31552
9929,32192
9930,32448
9931,32576
9932,32768
9933,32896
9934,33024
9935,33088
9936,33216
9937,33280
9938,33344
9939,33472
9940,33472
9941,33536
9942,33536
9943,33600
9944,33664
9945,33664
9946,33728
9947,33728
9948,33792
9949,33856
9950,33856
9951,33920
9952,33920
9953,33984
9954,34048
9955,34112
9956,34176
9957,34176
9958,34176
9959,34240
9960,34240
9961,34304
9962,34368
9963,34368
9964,34368
9965,34368
9966,34368
9967,34368
9968,34304
9969,34240
9970,34240
9971,34240
9972,34176
9973,34048
9974,33920
9975,33856
9976,33728
9977,33664
9978,33536
9979,33344
9980,33216
9981,33088
9982,32960
9983,32832
9984,32704
9985,32640
9986,32640
9987,32640
9988,32640
9989,32640
9990,32640
9991,32704
9992,32768
9993,32832
9994,32896
9995,32960
9996,32960
9997,32960
9998,33024
9999,33088
10000,33152
10001,33216
10002,33216
10003,33344
10004,33408
10005,33472
10006,33536
10007,33600
10008,33600
10009,33664
10010,33664
10011,33728
10012,33728
10013,33728
10014,33728
10015,33728
10016,33728
10017,33664
10018,33792
10019,33792
10020,33856
10021,33856
10022,33792
10023,33792
10024,33792
10025,33792
10026,33792
10027,33792
10028,33856
10029,33792
10030,33792
10031,33792
10032,33728
10033,33792
10034,33792
10035,33792
10036,33792
10037,33792
10038,33792
10039,33792
10040,33792
10041,33856
10042,33856
10043,33856
10044,33856
10045,33920
10046,33920
10047,33920
10048,33920
10049,34048
10050,34176
10051,34240
10052,34240
10053,34304
10054,34304
10055,34432
10056,34496
10057,34560
10058,34688
10059,34752
10060,34880
10061,34880
10062,34752
10063,34624
10064,34496
10065,34304
10066,34176
10067,33856
10068,33600
10069,33408
10070,33280
10071,33216
10072,33152
10073,33088
10074,33152
10075,33216
10076,33344
10077,33280
10078,33408
10079,33408
10080,33408
10081,33472
10082,33472
10083,33472
10084,33472
10085,33472
10086,33344
10087,33152
10088,33216
10089,33728
10090,34880
10091,36800
10092,39680
10093,43136
10094,46336
10095,48064
10096,47872
10097,45696
10098,41728
10099,37440
10100,33344
10101,30208
10102,28288
10103,27328
10104,27200
10105,27648
10106,28672
10107,28800
10108,30144
10109,30784
10110,31296
10111,31744
10112,32064
10113,32320
10114,32448
10115,32576
10116,32704
10117,32832
10118,32960
10119,33024
10120,33152
10121,33280
10122,33344
10123,33472
10124,33536
10125,33600
10126,33664
10127,33600
10128,33664
10129,33728
10130,33728
10131,33792
10132,33728
10133,33728
10134,33792
10135,33856
10136,33920
10137,34048
10138,34112
10139,34176
10140,34240
10141,34304
10142,34368
10143,34496
10144,34496
10145,34432
10146,34432
10147,34432
10148,34432
10149,34432
10150,34368
10151,34304
10152,34240
10153,34240
10154,34240
10155,34176
10156,34112
10157,34048
10158,33984
10159,33920
10160,33856
10161,33728
10162,33600
10163,33472
10164,33280
10165,33152
10166,33024
10167,32960
10168,32832
10169,32768
10170,32768
10171,32768
10172,32832
10173,32896
10174,32960
10175,32960
10176,32960
10177,33024
10178,33024
10179,33088
10180,33152
10181,33216
10182,33280
10183,33344
10184,33408
10185,33472
10186,33472
10187,33472
10188,33408
10189,33408
10190,33408
10191,33472
10192,33536
10193,33600
10194,33664
10195,33792
10196,33856
10197,33856
10198,33792
10199,33856
10200,33856
10201,33856
10202,33856
10203,33920
10204,33920
10205,33856
10206,33792
10207,33728
10208,33728
10209,33728
10210,33792
10211,33728
10212,33728
10213,33728
10214,33728
10215,33728
10216,33728
10217,33792
10218,33792
10219,33792
10220,33856
10221,33792
10222,33728
10223,33664
10224,33664
10225,33664
10226,33728
10227,33664
10228,33984
10229,34048
10230,34112
10231,34176
10232,34176
10233,34240
10234,34368
10235,34432
10236,34560
10237,34688
10238,34752
10239,34752
10240,34688
10241,34496
10242,34432
10243,34304
10244,34176
10245,33984
10246,33664
10247,33408
10248,33216
10249,33152
10250,33088
10251,33152
10252,33152
10253,33216
10254,33280
10255,33280
10256,33344
10257,33408
10258,33408
10259,33408
10260,33472
10261,33472
10262,33472
10263,33472
10264,33344
10265,33152
10266,33024
10267,33216
10268,33984
10269,35456
10270,37760
10271,41600
10272,44352
10273,46976
10274,47872
10275,46912
10276,44032
10277,40128
10278,35712
10279,32256
10280,29568
10281,28032
10282,27328
10283,27328
10284,27840
10285,28672
10286,29568
10287,30336
10288,30976
10289,31424
10290,31872
10291,32192
10292,32448
10293,32640
10294,32768
10295,32832
10296,32896
10297,32960
10298,33024
10299,33088
10300,33152
10301,33280
10302,33280
10303,33408
10304,33536
10305,33600
10306,33664
10307,33728
10308,33792
10309,33856
10310,33920
10311,33920
10312,33984
10313,33984
10314,34048
10315,34048
10316,34112
10317,34048
10318,34112
10319,34176
10320,34176
10321,34304
10322,34368
10323,34432
10324,34432
10325,34496
10326,34496
10327,34560
10328,34560
10329,34496
10330,34496
10331,34432
10332,34368
10333,34304
10334,34240
10335,34112
10336,34048
10337,33984
10338,33856
10339,33728
10340,33600
10341,33472
10342,33344
10343,33216
10344,33152
10345,33088
10346,33024
10347,32960
10348,32960
10349,32896
10350,32896
10351,32896
10352,32896
10353,32960
10354,33024
10355,33088
10356,33152
10357,33216
10358,33216
10359,33280
10360,33344
10361,33344
10362,33408
10363,33472
10364,33472
10365,33536
10366,33536
10367,33664
10368,33728
10369,33792
10370,33856
10371,33856
10372,33856
10373,33856
10374,33856
10375,33856
10376,33920
10377,33856
10378,33984
10379,33984
10380,33984
10381,33984
10382,33984
10383,34048
10384,34048
10385,34048
10386,33984
10387,33984
10388,33920
10389,33920
10390,33856
10391,33856
10392,33792
10393,33856
10394,33792
10395,33792
10396,33856
10397,33792
10398,33792
10399,33792
10400,33792
10401,33792
10402,33856
10403,33920
10404,34048
10405,34176
10406,34240
10407,34240
10408,34240
10409,34240
10410,34304
10411,34432
10412,34496
10413,34624
10414,34752
10415,34752
10416,34752
10417,34624
10418,34496
10419,34368
10420,34240
10421,34048
10422,33856
10423,33600
10424,33344
10425,33280
10426,33216
10427,33216
10428,33280
10429,33344
10430,33344
10431,33344
10432,33344
10433,33408
10434,33472
10435,33472
10436,33536
10437,33536
10438,33472
10439,33408
10440,33408
10441,33280
10442,33152
10443,33280
10444,33792
10445,34944
10446,36736
10447,39488
10448,42944
10449,46208
10450,48000
10451,47296
10452,47104
10453,41984
10454,37504
10455,33280
10456,30080
10457,28160
10458,27136
10459,27008
10460,27584
10461,28416
10462,29376
10463,30144
10464,30784
10465,31296
10466,31616
10467,31936
10468,32256
10469,32512
10470,32704
10471,32768
10472,32768
10473,32896
10474,32960
10475,33024
10476,33088
10477,33088
10478,33216
10479,33280
10480,33408
10481,33664
10482,33600
10483,33856
10484,33856
10485,33792
10486,33792
10487,33792
10488,33856
10489,33856
10490,33920
10491,33984
10492,34048
10493,34176
10494,34240
10495,34304
10496,34368
10497,34368
10498,34496
10499,34560
10500,34560
10501,34560
10502,34624
10503,34624
10504,34624
10505,34624
10506,34560
10507,34432
10508,34368
10509,34368
10510,34304
10511,34240
10512,34112
10513,33984
10514,33856
10515,33664
10516,33472
10517,33344
10518,33280
10519,33216
10520,33088
10521,33024
10522,32896
10523,32832
10524,32768
10525,32768
10526,32832
10527,32768
10528,32768
10529,32768
10530,32832
10531,32896
10532,32960
10533,33088
10534,33216
10535,33216
10536,33216
10537,33280
10538,33280
10539,33280
10540,33280
10541,33408
10542,33344
10543,33472
10544,33536
10545,33600
10546,33664
10547,33728
10548,33728
10549,33728
10550,33728
10551,33728
10552,33728
10553,33728
10554,33856
10555,33920
10556,33920
10557,33856
10558,33728
10559,33728
10560,33792
10561,33856
10562,33856
10563,33792
10564,33792
10565,33792
10566,33792
10567,33792
10568,33792
10569,33856
10570,33856
10571,33792
10572,33728
10573,33728
10574,33728
10575,33728
10576,33792
10577,33856
10578,33856
10579,33792
10580,33728
10581,33728
10582,33728
10583,33728
10584,33792
10585,33792
10586,33792
10587,33920
10588,34048
10589,34176
10590,34304
10591,34304
10592,34240
10593,34304
10594,34368
10595,34496
10596,34560
10597,34688
10598,34816
10599,34880
10600,34880
10601,34624
10602,34560
10603,34368
10604,34240
10605,34112
10606,33920
10607,33664
10608,33536
10609,33344
10610,33280
10611,33216
10612,33152
10613,33152
10614,33152
10615,33152
10616,33152
10617,33216
10618,33280
10619,33344
10620,33408
10621,33408
10622,33472
10623,33472
10624,33472
10625,33344
10626,33280
10627,33472
10628,33984
10629,35008
10630,36672
10631,40960
10632,41344
10633,46144
10634,48064
10635,47872
10636,45760
10637,41920
10638,37376
10639,33088
10640,30080
10641,28224
10642,27328
10643,27264
10644,27776
10645,28672
10646,29824
10647,30272
10648,30848
10649,31296
10650,31616
10651,31872
10652,32128
10653,32384
10654,32512
10655,32640
10656,32768
10657,32896
10658,33024
10659,33088
10660,33216
10661,33408
10662,33408
10663,33536
10664,33600
10665,33664
10666,33728
10667,33728
10668,33728
10669,33728
10670,33728
10671,33792
10672,33792
10673,33856
10674,33920
10675,33984
10676,34112
10677,34176
10678,34176
10679,34240
10680,34240
10681,34304
10682,34368
10683,34432
10684,34560
10685,34560
10686,34560
10687,34560
10688,34560
10689,34560
10690,34560
10691,34496
10692,34368
10693,34304
10694,34176
10695,34048
10696,33920
10697,33856
10698,33728
10699,33664
10700,33536
10701,33472
10702,33344
10703,33280
10704,33216
10705,33088
10706,32896
10707,32768
10708,32704
10709,32704
10710,32704
10711,32768
10712,32768
10713,32832
10714,32832
10715,32832
10716,32896
10717,32960
10718,33024
10719,33088
10720,33216
10721,33344
10722,33472
10723,33472
10724,33408
10725,33408
10726,33408
10727,33472
10728,33536
10729,33600
10730,33664
10731,33728
10732,33728
10733,33792
10734,33792
10735,33792
10736,33792
10737,33792
10738,33792
10739,33856
10740,33856
10741,33856
10742,33856
10743,33792
10744,33792
10745,33792
10746,33792
10747,33856
10748,33792
10749,33792
10750,33792
10751,33792
10752,33792
10753,33792
10754,33792
10755,33792
10756,33856
10757,33856
10758,33856
10759,33856
10760,33856
10761,33856
10762,33856
10763,33792
10764,33792
10765,33792
10766,33856
10767,33856
10768,33792
10769,33792
10770,33792
10771,33792
10772,33792
10773,33856
10774,33856
10775,33920
10776,33920
10777,33920
10778,33920
10779,33920
10780,33920
10781,33920
10782,33920
10783,33920
10784,33984
10785,34048
10786,34176
10787,34240
10788,34304
10789,34240
10790,34304
10791,34368
10792,34432
10793,34496
10794,34624
10795,34688
10796,34752
10797,34816
10798,34816
10799,34752
10800,34624
10801,34432
10802,34304
10803,34112
10804,33856
10805,33600
10806,33408
10807,33280
10808,33152
10809,33088
10810,33088
10811,33152
10812,33216
10813,33216
10814,33216
10815,33280
10816,33344
10817,33344
10818,33408
10819,33408
10820,33408
10821,33344
10822,33344
10823,33216
10824,33088
10825,33152
10826,33664
10827,34816
10828,36672
10829,39360
10830,42816
10831,46080
10832,47936
10833,47808
10834,45504
10835,41920
10836,37376
10837,33216
10838,30080
10839,28160
10840,27200
10841,27072
10842,27584
10843,28480
10844,29312
10845,30016
10846,30656
10847,31104
10848,31552
10849,31936
10850,32128
10851,32320
10852,32448
10853,32640
10854,32768
10855,32896
10856,32960
10857,33024
10858,33088
10859,33152
10860,33152
10861,33216
10862,33280
10863,33344
10864,33472
10865,33536
10866,33600
10867,33664
10868,33664
10869,33728
10870,33728
10871,33728
10872,33792
10873,33792
10874,33856
10875,33920
10876,33984
10877,34112
10878,34112
10879,34176
10880,34176
10881,34240
10882,34304
10883,34368
10884,34432
10885,34432
10886,34496
10887,34432
10888,34432
10889,34368
10890,34304
10891,34240
10892,34176
10893,34112
10894,33984
10895,33856
10896,33792
10897,33728
10898,33664
10899,33536
10900,33408
10901,33216
10902,33152
10903,33088
10904,32960
10905,32896
10906,32832
10907,32768
10908,32768
10909,32768
10910,32768
10911,32768
10912,32832
10913,32896
10914,32896
10915,32960
10916,32960
10917,33024
10918,33088
10919,33152
10920,33216
10921,33280
10922,33344
10923,33408
10924,33408
