,ECG
0,33344
1,33216
2,33216
3,33280
4,33344
5,33344
6,33280
7,33280
8,33280
9,33280
10,33344
11,33408
12,33472
13,33472
14,33472
15,33536
16,33664
17,33664
18,33664
19,33600
20,33600
21,33600
22,33664
23,33728
24,33792
25,33920
26,33984
27,34048
28,34112
29,34112
30,34112
31,33984
32,33920
33,33920
34,33920
35,33984
36,33984
37,33920
38,33856
39,33792
40,33792
41,33792
42,33792
43,33792
44,33856
45,33856
46,33856
47,33856
48,33856
49,33984
50,33984
51,33920
52,33856
53,33792
54,33856
55,33856
56,33984
57,34048
58,34112
59,34176
60,34240
61,34304
62,34304
63,34240
64,34240
65,34304
66,34496
67,34688
68,34816
69,34880
70,34880
71,34816
72,34816
73,34752
74,34688
75,34432
76,34176
77,33792
78,33472
79,33216
80,33088
81,33024
82,33088
83,33152
84,33152
85,33152
86,33216
87,33344
88,33408
89,33472
90,33600
91,33600
92,33536
93,33280
94,33024
95,32704
96,32704
97,33152
98,34112
99,35968
100,38720
101,42368
102,45952
103,48192
104,48384
105,46528
106,42816
107,38208
108,33792
109,30400
110,28352
111,27328
112,27136
113,27712
114,28416
115,29248
116,29952
117,30528
118,31040
119,31488
120,31936
121,32256
122,32512
123,32704
124,32832
125,32960
126,33024
127,33152
128,33280
129,33344
130,33472
131,33536
132,33664
133,33728
134,33728
135,33728
136,33664
137,33600
138,33600
139,33856
140,33984
141,34112
142,34176
143,34240
144,34304
145,34368
146,34496
147,34560
148,34624
149,34560
150,34560
151,34560
152,34496
153,34496
154,34432
155,34432
156,34368
157,34304
158,34176
159,34048
160,33856
161,33728
162,33600
163,33472
164,33344
165,33344
166,33344
167,33344
168,33280
169,33280
170,33280
171,33216
172,33216
173,33152
174,33280
175,33216
176,33152
177,33152
178,33216
179,33216
180,33280
181,33344
182,33408
183,33408
184,33408
185,33472
186,33536
187,33600
188,33600
189,33792
190,33792
191,33664
192,33600
193,33600
194,33728
195,33792
196,33792
197,33792
198,33856
199,33856
200,33920
201,33920
202,33984
203,33984
204,33984
205,34048
206,34048
207,33984
208,33920
209,33856
210,33920
211,33920
212,33856
213,33792
214,33728
215,33728
216,33728
217,33728
218,33792
219,33792
220,33792
221,33792
222,33792
223,33792
224,33728
225,33728
226,33728
227,33728
228,33856
229,33920
230,34112
231,34240
232,34304
233,34304
234,34368
235,34496
236,34624
237,34752
238,34816
239,34880
240,34880
241,34816
242,34752
243,34688
244,34496
245,34304
246,34112
247,33920
248,33728
249,33408
250,33152
251,33024
252,32960
253,32960
254,32960
255,33024
256,33088
257,33216
258,33280
259,33344
260,33344
261,33344
262,33344
263,33344
264,33216
265,33024
266,32896
267,33152
268,33984
269,35712
270,38272
271,41792
272,45376
273,47744
274,48256
275,46720
276,43264
277,38016
278,37760
279,30784
280,28480
281,27328
282,27008
283,27456
284,28352
285,29248
286,30144
287,30848
288,31296
289,31680
290,32000
291,32256
292,32512
293,32704
294,32832
295,32960
296,33088
297,33216
298,33280
299,33344
300,33408
301,33472
302,33536
303,33536
304,33664
305,33664
306,33728
307,33856
308,33984
309,34112
310,34112
311,34048
312,34048
313,34048
314,34176
315,34304
316,34368
317,34496
318,34560
319,34624
320,34624
321,34688
322,34688
323,34560
324,34432
325,34368
326,34432
327,34368
328,34176
329,33920
330,33792
331,33664
332,33664
333,33664
334,33664
335,33664
336,33664
337,33664
338,33664
339,33600
340,33600
341,33600
342,33536
343,33536
344,33536
345,33472
346,33472
347,33408
348,33472
349,33472
350,33536
351,33536
352,33536
353,33600
354,33664
355,33664
356,33728
357,33792
358,33792
359,33856
360,33920
361,33984
362,33920
363,33984
364,33984
365,33984
366,33920
367,33984
368,33984
369,34048
370,34048
371,34112
372,34112
373,34176
374,34176
375,34176
376,34176
377,34176
378,34112
379,34112
380,34176
381,34176
382,34112
383,33984
384,33856
385,33856
386,33856
387,33856
388,33920
389,33984
390,33984
391,33984
392,33984
393,33920
394,33920
395,33984
396,33984
397,34112
398,34240
399,34432
400,34560
401,34624
402,34560
403,34496
404,34560
405,34624
406,34688
407,34816
408,35008
409,35200
410,35328
411,35392
412,35328
413,35264
414,35136
415,34944
416,34688
417,34432
418,34112
419,33856
420,33664
421,33472
422,33408
423,33344
424,33344
425,33408
426,33472
427,33536
428,33536
429,33600
430,33728
431,33920
432,34048
433,33984
434,33792
435,33472
436,33216
437,33216
438,33728
439,35008
440,37248
441,40448
442,44032
443,46976
444,48320
445,47744
446,45312
447,41536
448,37248
449,33280
450,30272
451,28352
452,27456
453,27392
454,27904
455,28736
456,29696
457,30528
458,31232
459,31744
460,32192
461,32576
462,32896
463,33152
464,33280
465,33344
466,33408
467,33536
468,33600
469,33728
470,33792
471,33856
472,33856
473,33920
474,34048
475,34176
476,34240
477,34240
478,34368
479,34432
480,34496
481,34560
482,34560
483,34560
484,34624
485,34624
486,34688
487,34752
488,34752
489,34816
490,34816
491,34816
492,34816
493,34816
494,34816
495,34752
496,34624
497,34496
498,34432
499,34368
500,34304
501,34304
502,34240
503,34176
504,34112
505,34048
506,34112
507,34176
508,34112
509,33984
510,33856
511,33728
512,33664
513,33664
514,33664
515,33600
516,33600
517,33600
518,33600
519,33664
520,33664
521,33728
522,33792
523,33856
524,33856
525,33920
526,33984
527,34048
528,34176
529,34240
530,34240
531,34176
532,34048
533,33984
534,34048
535,34112
536,34176
537,34240
538,34240
539,34304
540,34368
541,34432
542,34432
543,34432
544,34496
545,34496
546,34432
547,34304
548,34240
549,34112
550,34112
551,34112
552,34176
553,34304
554,34304
555,34176
556,34112
557,34048
558,33984
559,34048
560,34048
561,34112
562,34112
563,34112
564,34176
565,34304
566,34368
567,34496
568,34560
569,34624
570,34688
571,34880
572,35072
573,35072
574,35072
575,35200
576,35328
577,35392
578,35392
579,35328
580,35136
581,34880
582,34624
583,34368
584,34112
585,33856
586,33664
587,33472
588,33408
589,33408
590,33472
591,33472
592,33600
593,33728
594,33856
595,33920
596,33920
597,33920
598,33856
599,33856
600,33792
601,33536
602,33344
603,33280
604,33600
605,34432
606,36224
607,38912
608,42304
609,45824
610,48064
611,48384
612,46720
613,43328
614,39040
615,34816
616,31424
617,28928
618,28032
619,27776
620,28032
621,28736
622,29632
623,30464
624,31104
625,31616
626,32000
627,32320
628,32640
629,32832
630,33088
631,33216
632,33344
633,33408
634,33472
635,33536
636,33728
637,33792
638,33856
639,33984
640,34048
641,34176
642,34240
643,34304
644,34304
645,34304
646,34304
647,34432
648,34432
649,34496
650,34560
651,34688
652,34752
653,34752
654,34752
655,34688
656,34624
657,34624
658,34752
659,34816
660,34816
661,34752
662,34560
663,34368
664,34176
665,34176
666,34304
667,34304
668,34176
669,33984
670,33920
671,33984
672,34048
673,34048
674,34048
675,34048
676,33984
677,33920
678,33856
679,33792
680,33664
681,33600
682,33600
683,33728
684,33856
685,33920
686,33920
687,33856
688,33856
689,33856
690,33984
691,34048
692,34112
693,34240
694,34368
695,34368
696,34240
697,34240
698,34304
699,34304
700,34112
701,34048
702,34048
703,33984
704,34048
705,34112
706,34112
707,34112
708,34048
709,34112
710,34240
711,34240
712,34176
713,34240
714,34304
715,34304
716,34240
717,34240
718,34240
719,34240
720,34176
721,34240
722,34304
723,34240
724,34304
725,34496
726,34688
727,34752
728,34624
729,34624
730,34688
731,34816
732,34880
733,34944
734,35072
735,35136
736,35136
737,35072
738,35072
739,35008
740,34880
741,34688
742,34432
743,34112
744,33792
745,33536
746,33472
747,33472
748,33408
749,33344
750,33280
751,33408
752,33536
753,33536
754,33472
755,33408
756,33536
757,33792
758,33920
759,34048
760,33984
761,33728
762,33280
763,33152
764,33728
765,35264
766,37824
767,42304
768,44992
769,47552
770,48192
771,46912
772,43648
773,39488
774,35200
775,31488
776,28928
777,27520
778,27136
779,27456
780,28288
781,29248
782,30400
783,30976
784,31680
785,32256
786,32960
787,33472
788,33472
789,33024
790,32640
791,32512
792,32576
793,32832
794,33088
795,33280
796,33472
797,33664
798,33792
799,33920
800,34048
801,34240
802,34432
803,34496
804,34432
805,34496
806,34560
807,34560
808,34496
809,34496
810,34688
811,34816
812,34752
813,34624
814,34560
815,34560
816,34624
817,34624
818,34688
819,34752
820,34752
821,34752
822,34752
823,34688
824,34688
825,34688
826,34688
827,34496
828,34240
829,34112
830,34112
831,34112
832,33920
833,33728
834,33600
835,33536
836,33536
837,33536
838,33728
839,33984
840,34112
841,33984
842,33728
843,33600
844,33600
845,33728
846,33600
847,33472
848,33344
849,33280
850,33408
851,33536
852,33728
853,33920
854,33984
855,34048
856,34176
857,34368
858,34496
859,34560
860,34368
861,34240
862,34368
863,34432
864,34304
865,34304
866,34240
867,34176
868,34112
869,34048
870,34048
871,34112
872,34240
873,34304
874,34368
875,34368
876,34368
877,34432
878,34432
879,34496
880,34560
881,34624
882,34752
883,34880
884,35008
885,34944
886,34688
887,34560
888,34496
889,34560
890,34560
891,34624
892,34880
893,35200
894,35328
895,35264
896,35136
897,34944
898,34752
899,34624
900,34496
901,34304
902,33984
903,33600
904,33472
905,33536
906,33472
907,33344
908,33408
909,33600
910,33664
911,33600
912,33600
913,33664
914,33600
915,33664
916,33728
917,33856
918,33792
919,33792
920,33920
921,34560
922,35584
923,37376
924,40192
925,43776
926,47104
927,48832
928,48576
929,46336
930,42496
931,37888
932,33216
933,30144
934,28096
935,27072
936,26880
937,27392
938,28416
939,29696
940,30720
941,31296
942,31808
943,32320
944,32768
945,33152
946,33344
947,33472
948,33472
949,33536
950,33728
951,33920
952,34048
953,34048
954,34048
955,34048
956,34048
957,34112
958,34240
959,34368
960,34560
961,34752
962,34944
963,35072
964,34944
965,34688
966,34496
967,34496
968,34560
969,34688
970,34880
971,35136
972,35328
973,35456
974,35456
975,35200
976,35008
977,34880
978,34816
979,34816
980,34880
981,34944
982,35072
983,35136
984,35072
985,34944
986,34880
987,34816
988,34688
989,34560
990,34432
991,34368
992,34368
993,34368
994,34368
995,34304
996,34176
997,34112
998,34048
999,34048
1000,34048
1001,34240
1002,34304
1003,34240
1004,34112
1005,33984
1006,33984
1007,34048
1008,34112
1009,34176
1010,34240
1011,34368
1012,34496
1013,34560
1014,34752
1015,34816
1016,34752
1017,34560
1018,34496
1019,34496
1020,34496
1021,34432
1022,34304
1023,34240
1024,34304
1025,34432
1026,34432
1027,34432
1028,34496
1029,34560
1030,34624
1031,34560
1032,34624
1033,34560
1034,34432
1035,34304
1036,34304
1037,34432
1038,34496
1039,34688
1040,34880
1041,34944
1042,35008
1043,35072
1044,35264
1045,35392
1046,35520
1047,35584
1048,35584
1049,35712
1050,35712
1051,35584
1052,35328
1053,35136
1054,35008
1055,34816
1056,34688
1057,34496
1058,34304
1059,34112
1060,34048
1061,34048
1062,34240
1063,34560
1064,34624
1065,34368
1066,34048
1067,33856
1068,33856
1069,33856
1070,33984
1071,34048
1072,34176
1073,34240
1074,34304
1075,34304
1076,34368
1077,34752
1078,35648
1079,37248
1080,39936
1081,43584
1082,48384
1083,49280
1084,49344
1085,47424
1086,43840
1087,39232
1088,35072
1089,31808
1090,29760
1091,28736
1092,28224
1093,28416
1094,29184
1095,30272
1096,31232
1097,32384
1098,32704
1099,33216
1100,33664
1101,33856
1102,33984
1103,34112
1104,34240
1105,34432
1106,34624
1107,34816
1108,34816
1109,34752
1110,34816
1111,34816
1112,34880
1113,34880
1114,34944
1115,35008
1116,35008
1117,35072
1118,35136
1119,35264
1120,35392
1121,35584
1122,35648
1123,35520
1124,35392
1125,35264
1126,35392
1127,35584
1128,35520
1129,35456
1130,35456
1131,35456
1132,35520
1133,35456
1134,35392
1135,35328
1136,35264
1137,35200
1138,35200
1139,35200
1140,35328
1141,35392
1142,35328
1143,35200
1144,35136
1145,35072
1146,35008
1147,34880
1148,34816
1149,34752
1150,34688
1151,34752
1152,34752
1153,34752
1154,34688
1155,34624
1156,34560
1157,34560
1158,34496
1159,34496
1160,34624
1161,34688
1162,34688
1163,34688
1164,34688
1165,34752
1166,34816
1167,34816
1168,34880
1169,34944
1170,34944
1171,34880
1172,34880
1173,34880
1174,34880
1175,34880
1176,34816
1177,34816
1178,34880
1179,35008
1180,35072
1181,35136
1182,35136
1183,35136
1184,35136
1185,35072
1186,35072
1187,35072
1188,35136
1189,35328
1190,35520
1191,35712
1192,35712
1193,35840
1194,35840
1195,35840
1196,35904
1197,36096
1198,36288
1199,36416
1200,36352
1201,36160
1202,36032
1203,36096
1204,36288
1205,36352
1206,36224
1207,35904
1208,35648
1209,35456
1210,35200
1211,34944
1212,34624
1213,34304
1214,34240
1215,34368
1216,34432
1217,34688
1218,35008
1219,35072
1220,34688
1221,34240
1222,34048
1223,33920
1224,33856
1225,33920
1226,34112
1227,34112
1228,34176
1229,34560
1230,35200
1231,36416
1232,40192
1233,41920
1234,45888
1235,49088
1236,49984
1237,48768
1238,45888
1239,41408
1240,36416
1241,32064
1242,28992
1243,27264
1244,26624
1245,26880
1246,27712
1247,29056
1248,30080
1249,31104
1250,31872
1251,32448
1252,32960
1253,33280
1254,33536
1255,33856
1256,34048
1257,34176
1258,34176
1259,34304
1260,34368
1261,34368
1262,34432
1263,34496
1264,34560
1265,34688
1266,34816
1267,34944
1268,35072
1269,35072
1270,34880
1271,34624
1272,34432
1273,34432
1274,34496
1275,34688
1276,34944
1277,35072
1278,35200
1279,35264
1280,35264
1281,35328
1282,35456
1283,35584
1284,35776
1285,35584
1286,35328
1287,35008
1288,34752
1289,34688
1290,34624
1291,34432
1292,34240
1293,34240
1294,34304
1295,34432
1296,34624
1297,35008
1298,35264
1299,35136
1300,34688
1301,34304
1302,33920
1303,33664
1304,33536
1305,33600
1306,33728
1307,33792
1308,33792
1309,33664
1310,33600
1311,33600
1312,33600
1313,33600
1314,33664
1315,33728
1316,33792
1317,33856
1318,33920
1319,33984
1320,33920
1321,33856
1322,33856
1323,34048
1324,34240
1325,34176
1326,33984
1327,33984
1328,34176
1329,34112
1330,33856
1331,33728
1332,33792
1333,33856
1334,33920
1335,34048
1336,34240
1337,34368
1338,34432
1339,34368
1340,34432
1341,34496
1342,34624
1343,34752
1344,34880
1345,34880
1346,34944
1347,35008
1348,35200
1349,35328
1350,35456
1351,35584
1352,35520
1353,35264
1354,35072
1355,35008
1356,34816
1357,34624
1358,34432
1359,34240
1360,34048
1361,33856
1362,33664
1363,33472
1364,33280
1365,33216
1366,33216
1367,33216
1368,33280
1369,33344
1370,33408
1371,33472
1372,33536
1373,33472
1374,33408
1375,33408
1376,33472
1377,33600
1378,33664
1379,34048
1380,34688
1381,35648
1382,37312
1383,40064
1384,43520
1385,46720
1386,48128
1387,47232
1388,44480
1389,40320
1390,35776
1391,31488
1392,28288
1393,26432
1394,25664
1395,25792
1396,26496
1397,27520
1398,28544
1399,29376
1400,30080
1401,30592
1402,30976
1403,31232
1404,31488
1405,31808
1406,32128
1407,32448
1408,32576
1409,32512
1410,32576
1411,32576
1412,32512
1413,32512
1414,32576
1415,32768
1416,32960
1417,33152
1418,33472
1419,33536
1420,33536
1421,33536
1422,33664
1423,33856
1424,33984
1425,34176
1426,34368
1427,34432
1428,34240
1429,33984
1430,33856
1431,33792
1432,33792
1433,33856
1434,33984
1435,34112
1436,34240
1437,34304
1438,34304
1439,34432
1440,34432
1441,34304
1442,34240
1443,34304
1444,34176
1445,33856
1446,33664
1447,33600
1448,33600
1449,33472
1450,33344
1451,33216
1452,33216
1453,33216
1454,33216
1455,33280
1456,33408
1457,33472
1458,33536
1459,33600
1460,33664
1461,33600
1462,33472
1463,33408
1464,33472
1465,33536
1466,33664
1467,33728
1468,33728
1469,33792
1470,33792
1471,33792
1472,33920
1473,34048
1474,34176
1475,34112
1476,34048
1477,33984
1478,33920
1479,33984
1480,34112
1481,34240
1482,34304
1483,34176
1484,34048
1485,33920
1486,33920
1487,33920
1488,34048
1489,34240
1490,34368
1491,34432
1492,34432
1493,34368
1494,34432
1495,34496
1496,34560
1497,34624
1498,34752
1499,34816
1500,34816
1501,34816
1502,34752
1503,34752
1504,34624
1505,34496
1506,34304
1507,34176
1508,33984
1509,33728
1510,33472
1511,33216
1512,33152
1513,33088
1514,33088
1515,33088
1516,33088
1517,33088
1518,33152
1519,33216
1520,33344
1521,33408
1522,33344
1523,33280
1524,33280
1525,33024
1526,32640
1527,32256
1528,32128
1529,32640
1530,34112
1531,36608
1532,40000
1533,43776
1534,46912
1535,48256
1536,47680
1537,44864
1538,40704
1539,36544
1540,32576
1541,29568
1542,27712
1543,26944
1544,26944
1545,27456
1546,28288
1547,29184
1548,30016
1549,30592
1550,30976
1551,31360
1552,31744
1553,32064
1554,32320
1555,32512
1556,32768
1557,32896
1558,33088
1559,33344
1560,33536
1561,33600
1562,33600
1563,33664
1564,33728
1565,33792
1566,33920
1567,33984
1568,33984
1569,34048
1570,34112
1571,34176
1572,34176
1573,34112
1574,34112
1575,34240
1576,34368
1577,34368
1578,34240
1579,34112
1580,34112
1581,34176
1582,34240
1583,34304
1584,34368
1585,34304
1586,34368
1587,34304
1588,34368
1589,34368
1590,34368
1591,34176
1592,33984
1593,33856
1594,33920
1595,33984
1596,33856
1597,33728
1598,33664
1599,33664
1600,33664
1601,33664
1602,33728
1603,33728
1604,33664
1605,33664
1606,33664
1607,33664
1608,33728
1609,33856
1610,34112
1611,34112
1612,33984
1613,33856
1614,33920
1615,33856
1616,33856
1617,33856
1618,33792
1619,33792
1620,33792
1621,33792
1622,33920
1623,34048
1624,34176
1625,34240
1626,34240
1627,34304
1628,34432
1629,34496
1630,34432
1631,34304
1632,34176
1633,34112
1634,34048
1635,34112
1636,34240
1637,34368
1638,34496
1639,34560
1640,34560
1641,34560
1642,34688
1643,34752
1644,34944
1645,35072
1646,35200
1647,35392
1648,35456
1649,35392
1650,35136
1651,34880
1652,34624
1653,34368
1654,33984
1655,33600
1656,33280
1657,32960
1658,32768
1659,32704
1660,32704
1661,32768
1662,32896
1663,32960
1664,33152
1665,33280
1666,33472
1667,33600
1668,33664
1669,33536
1670,33408
1671,33344
1672,33088
1673,32896
1674,32960
1675,33536
1676,35072
1677,37632
1678,41216
1679,44992
1680,48000
1681,49088
1682,48320
1683,45504
1684,41408
1685,36928
1686,32960
1687,29952
1688,28288
1689,27392
1690,27264
1691,27776
1692,28608
1693,29568
1694,30336
1695,30912
1696,31360
1697,31744
1698,32128
1699,32448
1700,32768
1701,32960
1702,33216
1703,33344
1704,33536
1705,33664
1706,33600
1707,33600
1708,33728
1709,33856
1710,33920
1711,33920
1712,33920
1713,33856
1714,33920
1715,33984
1716,34048
1717,34112
1718,34112
1719,34176
1720,34304
1721,34368
1722,34496
1723,34560
1724,34688
1725,34816
1726,34880
1727,34880
1728,34880
1729,34880
1730,34688
1731,34496
1732,34240
1733,34112
1734,34112
1735,34176
1736,34112
1737,34048
1738,33984
1739,33984
1740,34048
1741,34048
1742,34048
1743,34048
1744,34048
1745,34112
1746,34112
1747,34112
1748,34112
1749,34048
1750,34048
1751,33856
1752,33728
1753,33664
1754,33600
1755,33536
1756,33408
1757,33408
1758,33536
1759,33600
1760,33664
1761,33728
1762,33728
1763,33792
1764,33920
1765,34048
1766,34176
1767,34240
1768,34368
1769,34368
1770,34368
1771,34304
1772,34176
1773,34112
1774,34176
1775,34176
1776,34368
1777,34496
1778,34496
1779,34432
1780,34368
1781,34432
1782,34496
1783,34624
1784,34624
1785,34688
1786,34752
1787,34880
1788,35008
1789,35072
1790,35072
1791,35136
1792,35136
1793,35136
1794,35072
1795,35072
1796,35008
1797,34944
1798,34624
1799,34240
1800,33792
1801,33408
1802,33152
1803,32960
1804,32896
1805,32832
1806,32960
1807,33024
1808,33024
1809,33024
1810,33088
1811,33088
1812,33216
1813,33472
1814,33664
1815,33920
1816,33920
1817,33600
1818,33152
1819,32960
1820,33344
1821,34624
1822,37120
1823,40512
1824,44032
1825,47360
1826,49024
1827,48704
1828,46400
1829,42496
1830,38016
1831,33856
1832,30656
1833,28416
1834,27520
1835,27264
1836,27648
1837,28544
1838,29504
1839,30400
1840,31040
1841,31552
1842,32000
1843,32320
1844,32576
1845,32832
1846,33024
1847,33152
1848,33152
1849,33216
1850,33344
1851,33536
1852,33600
1853,33664
1854,33664
1855,33856
1856,33984
1857,34176
1858,34368
1859,34368
1860,34240
1861,34112
1862,34048
1863,34112
1864,34240
1865,34432
1866,34688
1867,34752
1868,34688
1869,34560
1870,34496
1871,34432
1872,34496
1873,34496
1874,34560
1875,34560
1876,34560
1877,34560
1878,34624
1879,34752
1880,34752
1881,34368
1882,33920
1883,33664
1884,33664
1885,33728
1886,33856
1887,33792
1888,33728
1889,33664
1890,33664
1891,33600
1892,33600
1893,33600
1894,33664
1895,33600
1896,33600
1897,33600
1898,33664
1899,33728
1900,33792
1901,33920
1902,33984
1903,33792
1904,33536
1905,33344
1906,33216
1907,33216
1908,33408
1909,33536
1910,33664
1911,33792
1912,33920
1913,33984
1914,33984
1915,34048
1916,34048
1917,34112
1918,34176
1919,34176
1920,34304
1921,34368
1922,34432
1923,34304
1924,34176
1925,34176
1926,34176
1927,34176
1928,34304
1929,34368
1930,34368
1931,34368
1932,34496
1933,34624
1934,34816
1935,34944
1936,35072
1937,35072
1938,35072
1939,35072
1940,35008
1941,34944
1942,34816
1943,34752
1944,34624
1945,34560
1946,34496
1947,34304
1948,33856
1949,33408
1950,33216
1951,33280
1952,33344
1953,33408
1954,33344
1955,33344
1956,33408
1957,33472
1958,33664
1959,33920
1960,33920
1961,33856
1962,33600
1963,33408
1964,33472
1965,34176
1966,35712
1967,38400
1968,38784
1969,45568
1970,48512
1971,49600
1972,48576
1973,45632
1974,41408
1975,36864
1976,32832
1977,29824
1978,28096
1979,27328
1980,27392
1981,28032
1982,28928
1983,29888
1984,30720
1985,31424
1986,32000
1987,32448
1988,32832
1989,33088
1990,33152
1991,33088
1992,33088
1993,33088
1994,33152
1995,33216
1996,33344
1997,33408
1998,33600
1999,33728
2000,33920
2001,34112
2002,34176
2003,34240
2004,34240
2005,34240
2006,34368
2007,34432
2008,34368
2009,34432
2010,34496
2011,34624
2012,34880
2013,34816
2014,34688
2015,34368
2016,34240
2017,34304
2018,34432
2019,34496
2020,34560
2021,34496
2022,34496
2023,34432
2024,34368
2025,34240
2026,34176
2027,34048
2028,34048
2029,34112
2030,34240
2031,34240
2032,34048
2033,33792
2034,33664
2035,33600
2036,33600
2037,33536
2038,33536
2039,33536
2040,33600
2041,33664
2042,33664
2043,33600
2044,33536
2045,33472
2046,33408
2047,33472
2048,33600
2049,33664
2050,33664
2051,33728
2052,33728
2053,33664
2054,33664
2055,33600
2056,33664
2057,33728
2058,33792
2059,33792
2060,33856
2061,33984
2062,34112
2063,34048
2064,34112
2065,34048
2066,34048
2067,33984
2068,33984
2069,33984
2070,34048
2071,34176
2072,34368
2073,34560
2074,34816
2075,34816
2076,34752
2077,34304
2078,34240
2079,34432
2080,34688
2081,34816
2082,34816
2083,34880
2084,34880
2085,34752
2086,34560
2087,34432
2088,34304
2089,34240
2090,34176
2091,33984
2092,33728
2093,33600
2094,33408
2095,33280
2096,33216
2097,33152
2098,33152
2099,33152
2100,33280
2101,33344
2102,33344
2103,33280
2104,33152
2105,33152
2106,33216
2107,33216
2108,33152
2109,33088
2110,33088
2111,33344
2112,34240
2113,36096
2114,38912
2115,42560
2116,46208
2117,48640
2118,48832
2119,47040
2120,43520
2121,39232
2122,34944
2123,31168
2124,28608
2125,27136
2126,26688
2127,26880
2128,27712
2129,28736
2130,29632
2131,30400
2132,31104
2133,31552
2134,31936
2135,32320
2136,32768
2137,33024
2138,33024
2139,32832
2140,32768
2141,32896
2142,33088
2143,33216
2144,33344
2145,33280
2146,33216
2147,33280
2148,33472
2149,33600
2150,33728
2151,33792
2152,33856
2153,33984
2154,34112
2155,34240
2156,34304
2157,34432
2158,34432
2159,34496
2160,34496
2161,34496
2162,34560
2163,34560
2164,34496
2165,34368
2166,34368
2167,34368
2168,34368
2169,34368
2170,34240
2171,34112
2172,33984
2173,33920
2174,33856
2175,33856
2176,33920
2177,33984
2178,33920
2179,33792
2180,33792
2181,33856
2182,33792
2183,33728
2184,33664
2185,33664
2186,33600
2187,33408
2188,33216
2189,33152
2190,33024
2191,32896
2192,32960
2193,33088
2194,33216
2195,33344
2196,33536
2197,33728
2198,33792
2199,33856
2200,33984
2201,33984
2202,34112
2203,34304
2204,34432
2205,34304
2206,34112
2207,33984
2208,33856
2209,33792
2210,33792
2211,33856
2212,33984
2213,34048
2214,34176
2215,34240
2216,34304
2217,34304
2218,34240
2219,34240
2220,34240
2221,34368
2222,34560
2223,34624
2224,34624
2225,34624
2226,34624
2227,34688
2228,34752
2229,34880
2230,34880
2231,34816
2232,34752
2233,34816
2234,34880
2235,34880
2236,34624
2237,34432
2238,34240
2239,34112
2240,33920
2241,33664
2242,33408
2243,33280
2244,33216
2245,33152
2246,33280
2247,33408
2248,33536
2249,33536
2250,33408
2251,33344
2252,33344
2253,33472
2254,33472
2255,33472
2256,33472
2257,33344
2258,33152
2259,33216
2260,33728
2261,35072
2262,37312
2263,40640
2264,44416
2265,47552
2266,48896
2267,48128
2268,45312
2269,41024
2270,36288
2271,32192
2272,29056
2273,27520
2274,26816
2275,26944
2276,27712
2277,28672
2278,29568
2279,30336
2280,30976
2281,31424
2282,31808
2283,32128
2284,32384
2285,32576
2286,32768
2287,32896
2288,33216
2289,33536
2290,33728
2291,33664
2292,33408
2293,33152
2294,33152
2295,33216
2296,33280
2297,33408
2298,33472
2299,33600
2300,33664
2301,33792
2302,33920
2303,34048
2304,34112
2305,34176
2306,34368
2307,34624
2308,34688
2309,34560
2310,34304
2311,34176
2312,34112
2313,34176
2314,34240
2315,34304
2316,34368
2317,34368
2318,34432
2319,34368
2320,34304
2321,34240
2322,34176
2323,34176
2324,34176
2325,34112
2326,34048
2327,34048
2328,33984
2329,34048
2330,33984
2331,33856
2332,33536
2333,33344
2334,33216
2335,33152
2336,33216
2337,33280
2338,33344
2339,33408
2340,33472
2341,33536
2342,33600
2343,33792
2344,33920
2345,33984
2346,34048
2347,33984
2348,33920
2349,33792
2350,33728
2351,33664
2352,33728
2353,33920
2354,34048
2355,34112
2356,34112
2357,34176
2358,34176
2359,34240
2360,34240
2361,34240
2362,34240
2363,34304
2364,34304
2365,34368
2366,34304
2367,34368
2368,34432
2369,34496
2370,34496
2371,34368
2372,34176
2373,34176
2374,34176
2375,34240
2376,34304
2377,34432
2378,34368
2379,34432
2380,34560
2381,34688
2382,34816
2383,34880
2384,35008
2385,35072
2386,35136
2387,35136
2388,35008
2389,34816
2390,34688
2391,34560
2392,34304
2393,33920
2394,33536
2395,33344
2396,33216
2397,33152
2398,33088
2399,33088
2400,33152
2401,33280
2402,33344
2403,33344
2404,33408
2405,33536
2406,33600
2407,33728
2408,33856
2409,33856
2410,33664
2411,33472
2412,33600
2413,34176
2414,35648
2415,37952
2416,41280
2417,44928
2418,47680
2419,48576
2420,47424
2421,44416
2422,40128
2423,35648
2424,31872
2425,29312
2426,27904
2427,27392
2428,27584
2429,28288
2430,29184
2431,30080
2432,30784
2433,31296
2434,31744
2435,32128
2436,32448
2437,32640
2438,32768
2439,32832
2440,32896
2441,32960
2442,32960
2443,33024
2444,33024
2445,33152
2446,33280
2447,33408
2448,33536
2449,33664
2450,33792
2451,33920
2452,33984
2453,34048
2454,34176
2455,34304
2456,34304
2457,34240
2458,34304
2459,34432
2460,34560
2461,34496
2462,34432
2463,34304
2464,34368
2465,34368
2466,34432
2467,34496
2468,34496
2469,34496
2470,34624
2471,34688
2472,34688
2473,34496
2474,34304
2475,34112
2476,33984
2477,33920
2478,33792
2479,33664
2480,33600
2481,33600
2482,33600
2483,33536
2484,33536
2485,33472
2486,33408
2487,33408
2488,33472
2489,33536
2490,33536
2491,33600
2492,33664
2493,33536
2494,33280
2495,33088
2496,33088
2497,33152
2498,33280
2499,33408
2500,33536
2501,33664
2502,33792
2503,33920
2504,34048
2505,34176
2506,34112
2507,33984
2508,33920
2509,33920
2510,33984
2511,34048
2512,34240
2513,34304
2514,34304
2515,34240
2516,34112
2517,34048
2518,33984
2519,33856
2520,33856
2521,33920
2522,33920
2523,33856
2524,33792
2525,33792
2526,33792
2527,33856
2528,33920
2529,33984
2530,34048
2531,34048
2532,33984
2533,33984
2534,34112
2535,34176
2536,34176
2537,34368
2538,34432
2539,34368
2540,34240
2541,34240
2542,34304
2543,34304
2544,34496
2545,34624
2546,34752
2547,34816
2548,34752
2549,34560
2550,34432
2551,34304
2552,34112
2553,33920
2554,33728
2555,33664
2556,33664
2557,33664
2558,33664
2559,33728
2560,33664
2561,33472
2562,33408
2563,33408
2564,33472
2565,33536
2566,33536
2567,33664
2568,33792
2569,33792
2570,33600
2571,33472
2572,33728
2573,34496
2574,35840
2575,38144
2576,41344
2577,44800
2578,47488
2579,48512
2580,47488
2581,44544
2582,40320
2583,35904
2584,32256
2585,29696
2586,28352
2587,27776
2588,27904
2589,28544
2590,29376
2591,30208
2592,30976
2593,31616
2594,32192
2595,32640
2596,32960
2597,33024
2598,33088
2599,33088
2600,33152
2601,33216
2602,33408
2603,33600
2604,33792
2605,33984
2606,33984
2607,33984
2608,33984
2609,34048
2610,34176
2611,34304
2612,34368
2613,34368
2614,34304
2615,34368
2616,34432
2617,34560
2618,34560
2619,34624
2620,34624
2621,34752
2622,34880
2623,34880
2624,34880
2625,34880
2626,34880
2627,34880
2628,34944
2629,34944
2630,34944
2631,34944
2632,34816
2633,34688
2634,34624
2635,34432
2636,34176
2637,33920
2638,33792
2639,33728
2640,33728
2641,33792
2642,33856
2643,33920
2644,33920
2645,33792
2646,33728
2647,33728
2648,33664
2649,33600
2650,33600
2651,33536
2652,33472
2653,33472
2654,33472
2655,33536
2656,33600
2657,33664
2658,33664
2659,33728
2660,33856
2661,33920
2662,33984
2663,33984
2664,34048
2665,34112
2666,34048
2667,34112
2668,34176
2669,34240
2670,34240
2671,34240
2672,34304
2673,34304
2674,34368
2675,34432
2676,34432
2677,34432
2678,34368
2679,34368
2680,34368
2681,34368
2682,34368
2683,34432
2684,34368
2685,34240
2686,34240
2687,34240
2688,34240
2689,34240
2690,34304
2691,34432
2692,34432
2693,34304
2694,34240
2695,34240
2696,34304
2697,34368
2698,34496
2699,34624
2700,34752
2701,34752
2702,34752
2703,34752
2704,34880
2705,35072
2706,35072
2707,35136
2708,35200
2709,35200
2710,35072
2711,34944
2712,34880
2713,34816
2714,34752
2715,34496
2716,34176
2717,33920
2718,33792
2719,33600
2720,33472
2721,33408
2722,33344
2723,33408
2724,33472
2725,33472
2726,33536
2727,33600
2728,33664
2729,33728
2730,33792
2731,33792
2732,33792
2733,33536
2734,33280
2735,33344
2736,33920
2737,35072
2738,37056
2739,39936
2740,43584
2741,46912
2742,48768
2743,48448
2744,46016
2745,41984
2746,37376
2747,32512
2748,30208
2749,28416
2750,27648
2751,27712
2752,28288
2753,29056
2754,29824
2755,30528
2756,31104
2757,31616
2758,32000
2759,32320
2760,32576
2761,32768
2762,33088
2763,33216
2764,33280
2765,33472
2766,33600
2767,33664
2768,33792
2769,33856
2770,33728
2771,33728
2772,33728
2773,33792
2774,33920
2775,33984
2776,34048
2777,34112
2778,34176
2779,34432
2780,34688
2781,34816
2782,34816
2783,34752
2784,34752
2785,34752
2786,34752
2787,34752
2788,34688
2789,34624
2790,34560
2791,34560
2792,34624
2793,34688
2794,34688
2795,34624
2796,34496
2797,34304
2798,34240
2799,34176
2800,34176
2801,34176
2802,34048
2803,33984
2804,33856
2805,33792
2806,33664
2807,33536
2808,33536
2809,33600
2810,33600
2811,33600
2812,33536
2813,33536
2814,33600
2815,33600
2816,33536
2817,33472
2818,33472
2819,33536
2820,33600
2821,33600
2822,33728
2823,33728
2824,33792
2825,33856
2826,33792
2827,33792
2828,33856
2829,34048
2830,34240
2831,34432
2832,34624
2833,34816
2834,34880
2835,34624
2836,34176
2837,33856
2838,33856
2839,33856
2840,33856
2841,33856
2842,33984
2843,34176
2844,34368
2845,34560
2846,34880
2847,35072
2848,34944
2849,34560
2850,34560
2851,34880
2852,34752
2853,34240
2854,33664
2855,33216
2856,32896
2857,32640
2858,32576
2859,32768
2860,33216
2861,33728
2862,34304
2863,34944
2864,35392
2865,35520
2866,35840
2867,36800
2868,36928
2869,35968
2870,34240
2871,33088
2872,32832
2873,33088
2874,33600
2875,33920
2876,34176
2877,34240
2878,34304
2879,34304
2880,34112
2881,33920
2882,33664
2883,33536
2884,33600
2885,33792
2886,33920
2887,33856
2888,33728
2889,33728
2890,33728
2891,33792
2892,33920
2893,33984
2894,34048
2895,33984
2896,33856
2897,33664
2898,33408
2899,33216
2900,33536
2901,34624
2902,36544
2903,39424
2904,43200
2905,46656
2906,48768
2907,48832
2908,46848
2909,43072
2910,38464
2911,34176
2912,30912
2913,28992
2914,27968
2915,27904
2916,28672
2917,29696
2918,30336
2919,30784
2920,31104
2921,31488
2922,31872
2923,32384
2924,32704
2925,32896
2926,33024
2927,33088
2928,33152
2929,33280
2930,33408
2931,33536
2932,33600
2933,33728
2934,33920
2935,33984
2936,34112
2937,34304
2938,34560
2939,34688
2940,34624
2941,34304
2942,34112
2943,34176
2944,34176
2945,34176
2946,34432
2947,34752
2948,34880
2949,34752
2950,34752
2951,34688
2952,34624
2953,34688
2954,34880
2955,35072
2956,35136
2957,35008
2958,34880
2959,34688
2960,34368
2961,34048
2962,33984
2963,34112
2964,34240
2965,34176
2966,34048
2967,33920
2968,33920
2969,33984
2970,34112
2971,34112
2972,34048
2973,33984
2974,33856
2975,33792
2976,33728
2977,33664
2978,33600
2979,33600
2980,33920
2981,34240
2982,34112
2983,33664
2984,33344
2985,33280
2986,33216
2987,33280
2988,33472
2989,33600
2990,33664
2991,33792
2992,33920
2993,34112
2994,34176
2995,34240
2996,34368
2997,34368
2998,34432
2999,34624
3000,34880
3001,34944
3002,34688
3003,34368
3004,34112
3005,33920
3006,33920
3007,34112
3008,34176
3009,34112
3010,34048
3011,33920
3012,33984
3013,34048
3014,34176
3015,34304
3016,34240
3017,34048
3018,33984
3019,34048
3020,34112
3021,34112
3022,34112
3023,34176
3024,34496
3025,34752
3026,34944
3027,35392
3028,35648
3029,35264
3030,34496
3031,33536
3032,32768
3033,32448
3034,32576
3035,33216
3036,33920
3037,34240
3038,34304
3039,34432
3040,34752
3041,35072
3042,35328
3043,35200
3044,34944
3045,34688
3046,34432
3047,34240
3048,34048
3049,33792
3050,33536
3051,33280
3052,33152
3053,33152
3054,33280
3055,33472
3056,33664
3057,33792
3058,33792
3059,33728
3060,33728
3061,33728
3062,33728
3063,33664
3064,33664
3065,33408
3066,33152
3067,32960
3068,33088
3069,33856
3070,35904
3071,39040
3072,42944
3073,46528
3074,48448
3075,48448
3076,46464
3077,41216
3078,38400
3079,34752
3080,31680
3081,29568
3082,28288
3083,27776
3084,28096
3085,28864
3086,29760
3087,30528
3088,31104
3089,31488
3090,31872
3091,32192
3092,32576
3093,32704
3094,32832
3095,32960
3096,33088
3097,33216
3098,33344
3099,33472
3100,33600
3101,33664
3102,33728
3103,33856
3104,33984
3105,34176
3106,34304
3107,34496
3108,34624
3109,34752
3110,34816
3111,34880
3112,34752
3113,34560
3114,34304
3115,34240
3116,34368
3117,34368
3118,34432
3119,34368
3120,34368
3121,34368
3122,34240
3123,34176
3124,34176
3125,34240
3126,34304
3127,34240
3128,34176
3129,34112
3130,34176
3131,34176
3132,34176
3133,34112
3134,34048
3135,34048
3136,33984
3137,34048
3138,33984
3139,33984
3140,33920
3141,33920
3142,33856
3143,33728
3144,33664
3145,33664
3146,33600
3147,33536
3148,33536
3149,33536
3150,33600
3151,33600
3152,33728
3153,33728
3154,33792
3155,33920
3156,33984
3157,34112
3158,34176
3159,34176
3160,34176
3161,34112
3162,34176
3163,34176
3164,34240
3165,34240
3166,34304
3167,34368
3168,34304
3169,34304
3170,34304
3171,34368
3172,34432
3173,34432
3174,34432
3175,34432
3176,34368
3177,34304
3178,34304
3179,34240
3180,34176
3181,34112
3182,34048
3183,33984
3184,33920
3185,33984
3186,33984
3187,34048
3188,34176
3189,34304
3190,34368
3191,34368
3192,34304
3193,34368
3194,34496
3195,34624
3196,34816
3197,35008
3198,35008
3199,35136
3200,35136
3201,35072
3202,34944
3203,34752
3204,34560
3205,34432
3206,34240
3207,33920
3208,33600
3209,33408
3210,33344
3211,33344
3212,33344
3213,33344
3214,33408
3215,33472
3216,33472
3217,33536
3218,33600
3219,33664
3220,33664
3221,33664
3222,33792
3223,33792
3224,33600
3225,33408
3226,33600
3227,34240
3228,35776
3229,38016
3230,41408
3231,44928
3232,47616
3233,48384
3234,47360
3235,44032
3236,39680
3237,35392
3238,31808
3239,29376
3240,27904
3241,27328
3242,27456
3243,28096
3244,28992
3245,29952
3246,30784
3247,31424
3248,31936
3249,32256
3250,32576
3251,32832
3252,33024
3253,33216
3254,33344
3255,33472
3256,33600
3257,33664
3258,33792
3259,33856
3260,33920
3261,33984
3262,34048
3263,34048
3264,34112
3265,34176
3266,34240
3267,34304
3268,34368
3269,34432
3270,34496
3271,34496
3272,34496
3273,34560
3274,34560
3275,34624
3276,34688
3277,34688
3278,34688
3279,34752
3280,34752
3281,34752
3282,34752
3283,34688
3284,34624
3285,34560
3286,34432
3287,34368
3288,34304
3289,34240
3290,34176
3291,34112
3292,34112
3293,34112
3294,34176
3295,34176
3296,34112
3297,34048
3298,33920
3299,33856
3300,33728
3301,33728
3302,33664
3303,33664
3304,33664
3305,33600
3306,33664
3307,33664
3308,33664
3309,33728
3310,33856
3311,33920
3312,33984
3313,34048
3314,34176
3315,34176
3316,34176
3317,34176
3318,34240
3319,34240
3320,34240
3321,34304
3322,34304
3323,34304
3324,34304
3325,34368
3326,34368
3327,34432
3328,34432
3329,34432
3330,34432
3331,34432
3332,34432
3333,34368
3334,34368
3335,34304
3336,34304
3337,34304
3338,34304
3339,34304
3340,34304
3341,34240
3342,34304
3343,34304
3344,34432
3345,34560
3346,34624
3347,34688
3348,34688
3349,34688
3350,34816
3351,35008
3352,35072
3353,35072
3354,35136
3355,35264
3356,35328
3357,35328
3358,35200
3359,35072
3360,34880
3361,34752
3362,34560
3363,34368
3364,34048
3365,33856
3366,33664
3367,33600
3368,33600
3369,33600
3370,33600
3371,33664
3372,33664
3373,33728
3374,33728
3375,33792
3376,33856
3377,33856
3378,33920
3379,33856
3380,33728
3381,33536
3382,33408
3383,33792
3384,34560
3385,36352
3386,39040
3387,42496
3388,45888
3389,48064
3390,48320
3391,46912
3392,43840
3393,39808
3394,35712
3395,32128
3396,29568
3397,28032
3398,27456
3399,27584
3400,28224
3401,29184
3402,30080
3403,30848
3404,31488
3405,31936
3406,32320
3407,32640
3408,32896
3409,33088
3410,33216
3411,33344
3412,33472
3413,33536
3414,33664
3415,33728
3416,33792
3417,33856
3418,33920
3419,33984
3420,34048
3421,34112
3422,34176
3423,34240
3424,34304
3425,34304
3426,34368
3427,34368
3428,34432
3429,34432
3430,34496
3431,34560
3432,34624
3433,34624
3434,34624
3435,34688
3436,34752
3437,34752
3438,34752
3439,34752
3440,34688
3441,34560
3442,34496
3443,34368
3444,34240
3445,34176
3446,34112
3447,34112
3448,34048
3449,34048
3450,33984
3451,33920
3452,33856
3453,33856
3454,33792
3455,33792
3456,33728
3457,33728
3458,33728
3459,33728
3460,33728
3461,33664
3462,33664
3463,33664
3464,33664
3465,33728
3466,33728
3467,33792
3468,33792
3469,33856
3470,33920
3471,33984
3472,34048
3473,34112
3474,34112
3475,34112
3476,34176
3477,34176
3478,34240
3479,34240
3480,34240
3481,34240
3482,34240
3483,34240
3484,34240
3485,34240
3486,34240
3487,34240
3488,34240
3489,34240
3490,34240
3491,34240
3492,34304
3493,34368
3494,34368
3495,34368
3496,34368
3497,34432
3498,34496
3499,34560
3500,34624
3501,34624
3502,34624
3503,34752
3504,34816
3505,34944
3506,35008
3507,35072
3508,35136
3509,35200
3510,35200
3511,35136
3512,34944
3513,34816
3514,34624
3515,34432
3516,34176
3517,33920
3518,33664
3519,33536
3520,33408
3521,33408
3522,33472
3523,33472
3524,33536
3525,33536
3526,33600
3527,33664
3528,33664
3529,33728
3530,33792
3531,33856
3532,33792
3533,33600
3534,33472
3535,33536
3536,34048
3537,35200
3538,37248
3539,40192
3540,43776
3541,46848
3542,48384
3543,48064
3544,45888
3545,42176
3546,37824
3547,33600
3548,30656
3549,28672
3550,27648
3551,27456
3552,27904
3553,28736
3554,29696
3555,30464
3556,31168
3557,31680
3558,32064
3559,32384
3560,32640
3561,32832
3562,33024
3563,33216
3564,33344
3565,33472
3566,33600
3567,33728
3568,33792
3569,33792
3570,33856
3571,33856
3572,33920
3573,34048
3574,34048
3575,34112
3576,34176
3577,34240
3578,34304
3579,34368
3580,34432
3581,34496
3582,34560
3583,34624
3584,34752
3585,34816
3586,34816
3587,34816
3588,34752
3589,34816
3590,34752
3591,34688
3592,34624
3593,34560
3594,34496
3595,34368
3596,34304
3597,34240
3598,34240
3599,34176
3600,34112
3601,34112
3602,34112
3603,34112
3604,34112
3605,34048
3606,33984
3607,33920
3608,33856
3609,33792
3610,33728
3611,33664
3612,33600
3613,33600
3614,33600
3615,33600
3616,33600
3617,33600
3618,33664
3619,33728
3620,33728
3621,33792
3622,33856
3623,33920
3624,33920
3625,33984
3626,34048
3627,34048
3628,34048
3629,34112
3630,34112
3631,34112
3632,34176
3633,34176
3634,34176
3635,34240
3636,34240
3637,34240
3638,34304
3639,34304
3640,34304
3641,34304
3642,34304
3643,34368
3644,34304
3645,34304
3646,34304
3647,34304
3648,34368
3649,34432
3650,34496
3651,34624
3652,34688
3653,34688
3654,34688
3655,34752
3656,34816
3657,34944
3658,35008
3659,35072
3660,35200
3661,35264
3662,35264
3663,35200
3664,35072
3665,34880
3666,34688
3667,34560
3668,34304
3669,33984
3670,33728
3671,33600
3672,33472
3673,33408
3674,33408
3675,33408
3676,33472
3677,33536
3678,33600
3679,33664
3680,33728
3681,33792
3682,33792
3683,33792
3684,33792
3685,33664
3686,33536
3687,33536
3688,33856
3689,34624
3690,36224
3691,38784
3692,42240
3693,45824
3694,47936
3695,48320
3696,46976
3697,43776
3698,38912
3699,35328
3700,31808
3701,29376
3702,27968
3703,27456
3704,27712
3705,28480
3706,29376
3707,30208
3708,30976
3709,31488
3710,31936
3711,32256
3712,32576
3713,32832
3714,33024
3715,33152
3716,33280
3717,33408
3718,33536
3719,33600
3720,33664
3721,33728
3722,33856
3723,34048
3724,34048
3725,34112
3726,34112
3727,34240
3728,34368
3729,34496
3730,34496
3731,34432
3732,34432
3733,34496
3734,34624
3735,34816
3736,34816
3737,34944
3738,34944
3739,34688
3740,34496
3741,34304
3742,33984
3743,33472
3744,33152
3745,33088
3746,33280
3747,33600
3748,33856
3749,34048
3750,34240
3751,34368
3752,34368
3753,34368
3754,34304
3755,34240
3756,34240
3757,34240
3758,34176
3759,34176
3760,34240
3761,34368
3762,34496
3763,34496
3764,34432
3765,34368
3766,34240
3767,34048
3768,33920
3769,33856
3770,33856
3771,33920
3772,33984
3773,33920
3774,33920
3775,33792
3776,33792
3777,33984
3778,34048
3779,33984
3780,33984
3781,34048
3782,34176
3783,34304
3784,34304
3785,34368
3786,34368
3787,34368
3788,34304
3789,34368
3790,34368
3791,34368
3792,34304
3793,34304
3794,34304
3795,34176
3796,34176
3797,34240
3798,34176
3799,34240
3800,34240
3801,34304
3802,34432
3803,34368
3804,34560
3805,34560
3806,34560
3807,34624
3808,34752
3809,34816
3810,34816
3811,34880
3812,35008
3813,35136
3814,35200
3815,35200
3816,34944
3817,34624
3818,34368
3819,34240
3820,34048
3821,33792
3822,33472
3823,33280
3824,33152
3825,33152
3826,33152
3827,33216
3828,33280
3829,33280
3830,33280
3831,33280
3832,33344
3833,33408
3834,33472
3835,33472
3836,33472
3837,33472
3838,33536
3839,33664
3840,34112
3841,35072
3842,36992
3843,40128
3844,44032
3845,47360
3846,48832
3847,48256
3848,45760
3849,41920
3850,37568
3851,33280
3852,29952
3853,27648
3854,26560
3855,26368
3856,26880
3857,27904
3858,28992
3859,29888
3860,30592
3861,31104
3862,31552
3863,31936
3864,32192
3865,32384
3866,32576
3867,32768
3868,32896
3869,33024
3870,33152
3871,33216
3872,33280
3873,33408
3874,33472
3875,33536
3876,33536
3877,33600
3878,33600
3879,33664
3880,33728
3881,33728
3882,33728
3883,33728
3884,33856
3885,33920
3886,33984
3887,34112
3888,34112
3889,34112
3890,34112
3891,34112
3892,34112
3893,34176
3894,34176
3895,34176
3896,34048
3897,34048
3898,33984
3899,33920
3900,33984
3901,34112
3902,34112
3903,34048
3904,34048
3905,33984
3906,33984
3907,33920
3908,33920
3909,33792
3910,33664
3911,33472
3912,33408
3913,33408
3914,33344
3915,33280
3916,33152
3917,33088
3918,33024
3919,33024
3920,33024
3921,33088
3922,33152
3923,33152
3924,33216
3925,33344
3926,33408
3927,33472
3928,33536
3929,33600
3930,33600
3931,33664
3932,33728
3933,33728
3934,33792
3935,33792
3936,33792
3937,33856
3938,33856
3939,33856
3940,33856
3941,33856
3942,33920
3943,33920
3944,33984
3945,33984
3946,33920
3947,33920
3948,33920
3949,33920
3950,33920
3951,34048
3952,34176
3953,34304
3954,34432
3955,34496
3956,34496
3957,34560
3958,34560
3959,34624
3960,34688
3961,34752
3962,34752
3963,34816
3964,34880
3965,34944
3966,34752
3967,34560
3968,34432
3969,34304
3970,34112
3971,33984
3972,33664
3973,33344
3974,33152
3975,33088
3976,33088
3977,33152
3978,33152
3979,33152
3980,33216
3981,33216
3982,33280
3983,33344
3984,33408
3985,33408
3986,33472
3987,33536
3988,33664
3989,33920
3990,34304
3991,35008
3992,36288
3993,38528
3994,41856
3995,45440
3996,48064
3997,48576
3998,47040
3999,43712
4000,39296
4001,34688
4002,30848
4003,28352
4004,27136
4005,26752
4006,27136
4007,28032
4008,28992
4009,29952
4010,30720
4011,31296
4012,31744
4013,32064
4014,32384
4015,32576
4016,32768
4017,32960
4018,33152
4019,33344
4020,33472
4021,33600
4022,33664
4023,33792
4024,33856
4025,33984
4026,34112
4027,34176
4028,34240
4029,34304
4030,34368
4031,34432
4032,34560
4033,34624
4034,34688
4035,34752
4036,34880
4037,34944
4038,35008
4039,35008
4040,35072
4041,35136
4042,35136
4043,35200
4044,35200
4045,35200
4046,35200
4047,35136
4048,35136
4049,35072
4050,35072
4051,35008
4052,35008
4053,34944
4054,34944
4055,34944
4056,34944
4057,34944
4058,34944
4059,34880
4060,34816
4061,34816
4062,34752
4063,34688
4064,34688
4065,34688
4066,34688
4067,34624
4068,34560
4069,34560
4070,34496
4071,34560
4072,34624
4073,34688
4074,34752
4075,34880
4076,34944
4077,34944
4078,35008
4079,35136
4080,35200
4081,35264
4082,35328
4083,35392
4084,35456
4085,35520
4086,35520
4087,35520
4088,35520
4089,35520
4090,35520
4091,35456
4092,35520
4093,35520
4094,35584
4095,35584
4096,35584
4097,35584
4098,35520
4099,35520
4100,35520
4101,35520
4102,35584
4103,35648
4104,35712
4105,35904
4106,35968
4107,35968
4108,36032
4109,36096
4110,36160
4111,36224
4112,36352
4113,36352
4114,36416
4115,36480
4116,36544
4117,36608
4118,36544
4119,36352
4120,36224
4121,36096
4122,35968
4123,35712
4124,35520
4125,35264
4126,35136
4127,35072
4128,35072
4129,35136
4130,35136
4131,35200
4132,35264
4133,35328
4134,35456
4135,35456
4136,35456
4137,35456
4138,35520
4139,35584
4140,35456
4141,35328
4142,35328
4143,35712
4144,36736
4145,38656
4146,41600
4147,45248
4148,48576
4149,50368
4150,50176
4151,48128
4152,44416
4153,40064
4154,35968
4155,32704
4156,30528
4157,29440
4158,29248
4159,29632
4160,30528
4161,31488
4162,32320
4163,33024
4164,33536
4165,33984
4166,34304
4167,34560
4168,34752
4169,34944
4170,35008
4171,35136
4172,35264
4173,35264
4174,35328
4175,35264
4176,35264
4177,35264
4178,35328
4179,35392
4180,35520
4181,35584
4182,35712
4183,35776
4184,35840
4185,35904
4186,35968
4187,36096
4188,36096
4189,36160
4190,36224
4191,36288
4192,36288
4193,36352
4194,36352
4195,36352
4196,36352
4197,36352
4198,36288
4199,36288
4200,36224
4201,36096
4202,36032
4203,35968
4204,35904
4205,35840
4206,35712
4207,35648
4208,35584
4209,35584
4210,35520
4211,35456
4212,35392
4213,35328
4214,35264
4215,35136
4216,35008
4217,34944
4218,34816
4219,34688
4220,34624
4221,34624
4222,34688
4223,34688
4224,34752
4225,34752
4226,34816
4227,34880
4228,35008
4229,35072
4230,35136
4231,35200
4232,35264
4233,35328
4234,35392
4235,35456
4236,35456
4237,35456
4238,35520
4239,35584
4240,35584
4241,35584
4242,35584
4243,35584
4244,35584
4245,35584
4246,35648
4247,35648
4248,35648
4249,35648
4250,35584
4251,35520
4252,35520
4253,35584
4254,35648
4255,35712
4256,35712
4257,35712
4258,35776
4259,35904
4260,35968
4261,35968
4262,35904
4263,35968
4264,36032
4265,36096
4266,36160
4267,36032
4268,35904
4269,35712
4270,35584
4271,35392
4272,35136
4273,34816
4274,34560
4275,34368
4276,34304
4277,34240
4278,34240
4279,34304
4280,34368
4281,34368
4282,34432
4283,34432
4284,34432
4285,34304
4286,34048
4287,33920
4288,33856
4289,33856
4290,33600
4291,33664
4292,34112
4293,35328
4294,37440
4295,40576
4296,44288
4297,47552
4298,49024
4299,48512
4300,46016
4301,42112
4302,37632
4303,33536
4304,30336
4305,28416
4306,27520
4307,27520
4308,28224
4309,29184
4310,30080
4311,30848
4312,31552
4313,32064
4314,32512
4315,32960
4316,33408
4317,33600
4318,33600
4319,33536
4320,33472
4321,33536
4322,33664
4323,33856
4324,33984
4325,34176
4326,34304
4327,34368
4328,34432
4329,34432
4330,34112
4331,33792
4332,33600
4333,33536
4334,33728
4335,33856
4336,34048
4337,34304
4338,34624
4339,34944
4340,35200
4341,35072
4342,34624
4343,34240
4344,34048
4345,33984
4346,33984
4347,34240
4348,34560
4349,34752
4350,34432
4351,34112
4352,34176
4353,34240
4354,34496
4355,34752
4356,34560
4357,34624
4358,34944
4359,35328
4360,35328
4361,35008
4362,34432
4363,33344
4364,32576
4365,32320
4366,32448
4367,32640
4368,32768
4369,32832
4370,33024
4371,33280
4372,33600
4373,34240
4374,34944
4375,35136
4376,34944
4377,34624
4378,34304
4379,33856
4380,33280
4381,33088
4382,33216
4383,33152
4384,33024
4385,33152
4386,33600
4387,33984
4388,34048
4389,34240
4390,34496
4391,34816
4392,35328
4393,35648
4394,35584
4395,35136
4396,34624
4397,33920
4398,33344
4399,33152
4400,33088
4401,33280
4402,33536
4403,33792
4404,34176
4405,34944
4406,35648
4407,35968
4408,35776
4409,35392
4410,34944
4411,34688
4412,34240
4413,33920
4414,33856
4415,34048
4416,34496
4417,34816
4418,34880
4419,34624
4420,34624
4421,34560
4422,34112
4423,33792
4424,33664
4425,33728
4426,33664
4427,33728
4428,33792
4429,33728
4430,33664
4431,33728
4432,33664
4433,33600
4434,33728
4435,33856
4436,34048
4437,34560
4438,34624
4439,34176
4440,33792
4441,34304
4442,35904
4443,37760
4444,40640
4445,44160
4446,47296
4447,48704
4448,48192
4449,45952
4450,42048
4451,37504
4452,33152
4453,29824
4454,27648
4455,26624
4456,26368
4457,26816
4458,27648
4459,28608
4460,29376
4461,30016
4462,30720
4463,31488
4464,32128
4465,32128
4466,32000
4467,32064
4468,32320
4469,32576
4470,32832
4471,32896
4472,33024
4473,33408
4474,33536
4475,33536
4476,33600
4477,33600
4478,33664
4479,33792
4480,33792
4481,33792
4482,33536
4483,33728
4484,33984
4485,34048
4486,34112
4487,34176
4488,34304
4489,34432
4490,34688
4491,34944
4492,34944
4493,34688
4494,34368
4495,34432
4496,34752
4497,35264
4498,35264
4499,34688
4500,34176
4501,33856
4502,33856
4503,34048
4504,34240
4505,34432
4506,34688
4507,34688
4508,34240
4509,33792
4510,33728
4511,33664
4512,33536
4513,33216
4514,32960
4515,32896
4516,32832
4517,32768
4518,32768
4519,32768
4520,32576
4521,32448
4522,32448
4523,32576
4524,32768
4525,33088
4526,33344
4527,33472
4528,33536
4529,33344
4530,33216
4531,33344
4532,33408
4533,33408
4534,33280
4535,33216
4536,33216
4537,33344
4538,33472
4539,33600
4540,33664
4541,33664
4542,33728
4543,33856
4544,33920
4545,33984
4546,33984
4547,33920
4548,33856
4549,33856
4550,33856
4551,34048
4552,34368
4553,34432
4554,34304
4555,34176
4556,34048
4557,34048
4558,34048
4559,34112
4560,34240
4561,34240
4562,34368
4563,34432
4564,34496
4565,34496
4566,34432
4567,34368
4568,34240
4569,33984
4570,33728
4571,33472
4572,33152
4573,32896
4574,32704
4575,32512
4576,32512
4577,32576
4578,32704
4579,32960
4580,33024
4581,33088
4582,33152
4583,33152
4584,33280
4585,33216
4586,33280
4587,33536
4588,33856
4589,34176
4590,34496
4591,35392
4592,37696
4593,40320
4594,43776
4595,46720
4596,47488
4597,46080
4598,43264
4599,39104
4600,34560
4601,30592
4602,27904
4603,26624
4604,26304
4605,26688
4606,27456
4607,28544
4608,29632
4609,30656
4610,31424
4611,32448
4612,33856
4613,34304
4614,33280
4615,31744
4616,31168
4617,31168
4618,31296
4619,31488
4620,32000
4621,32448
4622,32768
4623,33024
4624,33344
4625,33344
4626,33344
4627,33472
4628,33600
4629,33792
4630,33920
4631,33856
4632,33856
4633,33984
4634,34304
4635,34368
4636,34176
4637,34048
4638,34048
4639,34304
4640,34368
4641,34368
4642,34176
4643,33984
4644,33792
4645,33984
4646,34112
4647,34112
4648,34112
4649,34176
4650,34304
4651,34432
4652,34752
4653,35072
4654,35072
4655,34624
4656,34048
4657,33600
4658,33280
4659,33024
4660,32832
4661,32768
4662,32704
4663,32768
4664,32640
4665,32512
4666,33088
4667,33344
4668,33344
4669,33472
4670,33280
4671,33088
4672,32960
4673,33152
4674,33344
4675,33216
4676,32960
4677,32832
4678,32960
4679,33280
4680,33472
4681,33472
4682,33408
4683,33472
4684,33856
4685,33984
4686,34048
4687,34048
4688,33920
4689,33856
4690,33792
4691,33728
4692,33856
4693,34048
4694,33984
4695,33920
4696,33920
4697,33920
4698,34112
4699,34112
4700,33920
4701,33600
4702,33280
4703,33280
4704,33600
4705,34368
4706,34816
4707,35136
4708,35200
4709,35136
4710,35008
4711,34816
4712,34624
4713,34496
4714,34304
4715,34240
4716,34048
4717,33856
4718,33472
4719,33088
4720,32960
4721,33216
4722,33600
4723,33792
4724,33728
4725,33600
4726,33536
4727,33664
4728,33728
4729,33664
4730,33792
4731,33728
4732,33536
4733,33536
4734,33728
4735,34112
4736,34688
4737,35456
4738,37056
4739,39488
4740,42752
4741,45760
4742,47424
4743,46784
4744,44800
4745,41408
4746,36928
4747,32576
4748,29248
4749,26816
4750,25600
4751,25280
4752,25728
4753,26816
4754,27968
4755,29056
4756,29888
4757,31040
4758,31936
4759,32640
4760,32896
4761,33088
4762,33280
4763,33408
4764,33536
4765,33792
4766,34048
4767,33920
4768,33408
4769,33088
4770,32960
4771,32832
4772,32384
4773,32000
4774,32000
4775,32576
4776,33216
4777,33728
4778,34112
4779,34560
4780,35136
4781,35392
4782,35328
4783,35264
4784,35200
4785,35328
4786,35392
4787,35328
4788,35264
4789,35328
4790,35520
4791,35840
4792,36096
4793,36224
4794,36480
4795,36864
4796,37312
4797,37504
4798,37376
4799,36992
4800,36544
4801,36032
4802,35904
4803,35776
4804,35328
4805,34880
4806,34688
4807,34496
4808,34560
4809,34944
4810,35264
4811,35712
4812,36288
4813,36672
4814,36736
4815,36416
4816,36032
4817,35584
4818,35328
4819,34944
4820,34816
4821,34880
4822,35072
4823,35200
4824,35392
4825,35584
4826,35648
4827,35776
4828,35904
4829,35968
4830,35968
4831,36032
4832,35776
4833,35456
4834,35392
4835,35456
4836,35456
4837,35456
4838,35328
4839,35136
4840,35136
4841,35136
4842,35200
4843,35264
4844,35328
4845,35456
4846,35456
4847,35456
4848,35520
4849,35520
4850,35456
4851,35392
4852,35456
4853,35520
4854,35584
4855,35520
4856,35520
4857,35584
4858,35648
4859,35648
4860,35392
4861,35072
4862,34688
4863,34560
4864,34432
4865,34368
4866,34240
4867,33984
4868,33664
4869,33344
4870,33280
4871,33344
4872,33472
4873,33600
4874,33664
4875,33664
4876,33600
4877,33536
4878,33536
4879,33600
4880,33792
4881,34048
4882,34304
4883,34624
4884,34944
4885,35712
4886,37248
4887,39680
4888,42752
4889,45760
4890,47232
4891,46656
4892,44224
4893,40448
4894,36224
4895,32384
4896,29696
4897,28096
4898,27584
4899,27648
4900,28160
4901,28992
4902,29888
4903,30592
4904,31296
4905,31936
4906,32384
4907,32768
4908,32896
4909,33088
4910,33216
4911,33344
4912,33536
4913,33664
4914,33856
4915,33984
4916,34048
4917,34112
4918,34240
4919,34368
4920,34560
4921,34688
4922,34880
4923,34880
4924,34944
4925,35008
4926,35136
4927,35200
4928,35264
4929,35328
4930,35328
4931,35328
4932,35328
4933,35328
4934,35328
4935,35328
4936,35264
4937,35136
4938,35072
4939,34944
4940,34944
4941,34944
4942,34880
4943,34880
4944,34816
4945,34816
4946,34816
4947,34752
4948,34752
4949,34752
4950,34752
4951,34752
4952,34752
4953,34688
4954,34688
4955,34624
4956,34560
4957,34304
4958,34176
4959,34048
4960,34048
4961,33984
4962,33984
4963,33920
4964,33856
4965,33792
4966,33728
4967,33856
4968,33920
4969,34112
4970,34304
4971,34240
4972,34112
4973,34048
4974,34112
4975,34176
4976,34240
4977,34176
4978,34176
4979,34176
4980,34176
4981,34176
4982,34240
4983,34240
4984,34304
4985,34304
4986,34304
4987,34304
4988,34304
4989,34368
4990,34496
4991,34624
4992,34624
4993,34560
4994,34432
4995,34432
4996,34496
4997,34560
4998,34688
4999,34752
5000,34816
5001,34880
5002,35072
5003,35328
5004,35520
5005,35584
5006,35456
5007,35200
5008,34880
5009,34688
5010,34496
5011,34304
5012,34048
5013,33920
5014,33792
5015,33792
5016,33856
5017,33984
5018,33984
5019,33984
5020,33984
5021,33984
5022,34048
5023,34112
5024,34176
5025,34240
5026,34240
5027,34176
5028,33920
5029,33664
5030,33664
5031,34176
5032,35584
5033,38016
5034,41408
5035,44800
5036,47168
5037,47744
5038,46592
5039,43904
5040,40192
5041,36032
5042,32192
5043,29504
5044,27968
5045,27392
5046,27520
5047,28032
5048,28864
5049,29696
5050,30528
5051,31168
5052,31680
5053,32128
5054,32448
5055,32768
5056,33024
5057,33280
5058,33344
5059,33472
5060,33600
5061,33600
5062,33664
5063,33792
5064,33920
5065,33984
5066,34048
5067,34048
5068,34048
5069,34176
5070,34304
5071,34432
5072,34368
5073,34304
5074,34176
5075,34176
5076,34048
5077,34048
5078,34048
5079,34048
5080,33984
5081,33856
5082,33728
5083,33664
5084,33664
5085,33664
5086,33728
5087,33792
5088,33792
5089,33792
5090,33856
5091,33856
5092,33856
5093,33856
5094,33856
5095,33792
5096,33664
5097,33600
5098,33536
5099,33472
5100,33408
5101,33344
5102,33344
5103,33280
5104,33280
5105,33152
5106,32960
5107,32832
5108,32704
5109,32704
5110,32704
5111,32832
5112,33024
5113,33152
5114,33152
5115,33088
5116,33024
5117,33152
5118,33216
5119,33408
5120,33472
5121,33472
5122,33344
5123,33280
5124,33216
5125,33280
5126,33280
5127,33344
5128,33408
5129,33536
5130,33600
5131,33600
5132,33792
5133,33984
5134,34176
5135,34304
5136,34496
5137,34496
5138,34624
5139,34752
5140,34880
5141,34944
5142,34944
5143,34880
5144,34944
5145,35072
5146,35264
5147,35392
5148,35328
5149,35200
5150,35136
5151,35008
5152,34816
5153,34560
5154,34176
5155,33856
5156,33536
5157,33344
5158,33216
5159,33152
5160,33216
5161,33344
5162,33600
5163,33600
5164,33600
5165,33536
5166,33472
5167,33472
5168,33536
5169,33664
5170,33728
5171,33600
5172,33280
5173,33152
5174,33408
5175,34304
5176,35968
5177,40256
5178,41920
5179,45248
5180,47360
5181,47552
5182,46016
5183,42880
5184,39104
5185,35072
5186,31680
5187,29312
5188,27776
5189,27072
5190,27008
5191,27392
5192,28224
5193,29248
5194,30144
5195,30976
5196,31552
5197,32000
5198,32256
5199,32448
5200,32640
5201,32832
5202,33088
5203,33216
5204,33280
5205,33280
5206,33344
5207,33344
5208,33408
5209,33536
5210,33664
5211,33728
5212,33792
5213,33920
5214,34048
5215,34112
5216,34112
5217,34048
5218,33856
5219,33792
5220,33792
5221,33920
5222,34048
5223,34048
5224,34048
5225,33984
5226,33856
5227,33792
5228,33728
5229,33728
5230,33856
5231,33856
5232,33792
5233,33792
5234,33792
5235,33664
5236,33536
5237,33408
5238,33408
5239,33408
5240,33344
5241,33280
5242,33344
5243,33408
5244,33472
5245,33472
5246,33536
5247,33536
5248,33536
5249,33536
5250,33536
5251,33536
5252,33600
5253,33600
5254,33408
5255,33280
5256,33216
5257,33344
5258,33344
5259,33472
5260,33536
5261,33600
5262,33600
5263,33664
5264,33792
5265,33856
5266,33920
5267,33920
5268,33728
5269,33664
5270,33792
5271,33920
5272,33984
5273,34048
5274,34112
5275,34112
5276,34048
5277,34112
5278,34240
5279,34368
5280,34496
5281,34496
5282,34560
5283,34624
5284,34688
5285,34752
5286,34880
5287,34944
5288,35008
5289,35008
5290,35008
5291,35008
5292,34944
5293,34816
5294,34560
5295,34240
5296,33920
5297,33536
5298,33280
5299,33216
5300,33152
5301,33088
5302,33088
5303,33088
5304,33152
5305,33280
5306,33280
5307,33280
5308,33280
5309,33344
5310,33408
5311,33472
5312,33472
5313,33344
5314,33216
5315,33280
5316,33664
5317,34624
5318,36416
5319,39040
5320,42496
5321,45824
5322,47680
5323,47552
5324,45760
5325,42304
5326,38016
5327,33728
5328,30016
5329,28032
5330,26816
5331,26560
5332,26944
5333,27776
5334,28864
5335,29888
5336,30720
5337,31296
5338,31808
5339,32192
5340,32448
5341,32640
5342,32768
5343,32960
5344,33088
5345,33280
5346,33408
5347,33472
5348,33472
5349,33536
5350,33600
5351,33664
5352,33664
5353,33728
5354,33792
5355,33920
5356,33984
5357,33984
5358,33920
5359,33920
5360,33920
5361,34048
5362,34176
5363,34240
5364,34240
5365,34240
5366,34304
5367,34496
5368,34624
5369,34624
5370,34560
5371,34496
5372,34368
5373,34240
5374,34112
5375,34112
5376,34048
5377,33984
5378,33920
5379,33856
5380,33728
5381,33664
5382,33664
5383,33600
5384,33600
5385,33536
5386,33536
5387,33536
5388,33472
5389,33472
5390,33536
5391,33536
5392,33536
5393,33472
5394,33344
5395,33344
5396,33344
5397,33344
5398,33344
5399,33280
5400,33344
5401,33408
5402,33472
5403,33536
5404,33664
5405,33728
5406,33728
5407,33856
5408,33920
5409,33984
5410,33856
5411,33792
5412,33856
5413,33920
5414,33920
5415,33984
5416,33984
5417,34048
5418,34176
5419,34304
5420,34432
5421,34560
5422,34560
5423,34624
5424,34624
5425,34752
5426,34816
5427,34752
5428,34752
5429,34816
5430,34880
5431,34880
5432,34880
5433,34752
5434,34560
5435,34368
5436,34176
5437,33984
5438,33664
5439,33344
5440,33088
5441,32960
5442,32896
5443,32896
5444,32960
5445,33024
5446,33088
5447,33152
5448,33216
5449,33216
5450,33280
5451,33344
5452,33408
5453,33472
5454,33408
5455,33152
5456,33088
5457,33472
5458,34368
5459,35904
5460,38272
5461,41600
5462,45120
5463,47552
5464,47936
5465,46400
5466,43264
5467,38976
5468,34496
5469,30848
5470,28416
5471,27136
5472,26752
5473,27008
5474,27776
5475,28800
5476,29824
5477,30592
5478,31296
5479,31808
5480,32128
5481,32384
5482,32512
5483,32640
5484,32768
5485,32960
5486,33024
5487,33152
5488,33280
5489,33344
5490,33472
5491,33536
5492,33536
5493,33536
5494,33600
5495,33792
5496,33856
5497,33920
5498,33920
5499,33920
5500,33984
5501,33984
5502,34048
5503,34112
5504,34048
5505,33984
5506,33792
5507,33728
5508,33856
5509,34112
5510,34368
5511,34560
5512,34752
5513,34688
5514,34624
5515,34496
5516,34432
5517,34432
5518,34432
5519,34432
5520,34432
5521,34432
5522,34432
5523,34496
5524,34496
5525,34496
5526,34432
5527,34496
5528,34496
5529,34496
5530,34496
5531,34560
5532,34624
5533,34688
5534,34816
5535,34944
5536,35072
5537,35136
5538,35136
5539,35200
5540,35264
5541,35264
5542,35328
5543,35328
5544,35392
5545,35520
5546,35584
5547,35584
5548,35584
5549,35584
5550,35520
5551,35584
5552,35584
5553,35584
5554,35584
5555,35584
5556,35520
5557,35520
5558,35520
5559,35520
5560,35584
5561,35712
5562,35776
5563,35776
5564,35712
5565,35648
5566,35712
5567,35840
5568,35904
5569,35904
5570,35840
5571,35904
5572,36032
5573,36096
5574,35904
5575,35712
5576,35456
5577,35200
5578,34944
5579,34752
5580,34496
5581,34176
5582,33856
5583,33728
5584,33664
5585,33664
5586,33728
5587,33856
5588,33920
5589,33920
5590,33856
5591,33856
5592,33856
5593,33856
5594,33920
5595,33984
5596,33920
5597,33728
5598,33600
5599,34496
5600,36096
5601,38720
5602,42240
5603,42560
5604,48640
5605,49344
5606,48064
5607,44800
5608,40512
5609,35968
5610,32064
5611,29248
5612,27648
5613,27008
5614,27136
5615,27776
5616,28736
5617,29632
5618,30400
5619,31040
5620,31552
5621,31936
5622,32256
5623,32512
5624,32768
5625,32960
5626,33088
5627,33280
5628,33344
5629,33472
5630,33536
5631,33600
5632,33664
5633,33664
5634,33792
5635,33856
5636,33920
5637,34048
5638,34176
5639,34240
5640,34368
5641,34432
5642,34496
5643,34496
5644,34560
5645,34624
5646,34688
5647,34752
5648,34752
5649,34944
5650,34944
5651,34880
5652,34816
5653,34816
5654,34816
5655,34752
5656,34752
5657,34688
5658,34560
5659,34368
5660,34240
5661,34176
5662,34112
5663,34048
5664,34048
5665,34048
5666,34048
5667,33984
5668,33856
5669,33856
5670,33792
5671,33728
5672,33664
5673,33600
5674,33600
5675,33664
5676,33664
5677,33664
5678,33600
5679,33664
5680,33664
5681,33728
5682,33792
5683,33792
5684,33920
5685,33920
5686,33984
5687,34048
5688,34048
5689,34112
5690,34176
5691,34176
5692,34112
5693,34112
5694,34048
5695,33984
5696,34048
5697,34048
5698,34176
5699,34304
5700,34432
5701,34624
5702,34752
5703,34752
5704,34944
5705,35008
5706,34944
5707,35008
5708,34944
5709,35008
5710,34880
5711,34944
5712,35072
5713,35136
5714,35072
5715,34944
5716,34752
5717,34496
5718,34304
5719,34176
5720,33984
5721,33728
5722,33408
5723,33280
5724,33152
5725,33152
5726,33280
5727,33280
5728,33344
5729,33408
5730,33472
5731,33600
5732,33600
5733,33600
5734,33664
5735,33792
5736,33792
5737,33728
5738,33856
5739,34304
5740,35200
5741,36800
5742,39552
5743,43136
5744,46656
5745,48768
5746,48640
5747,46400
5748,42816
5749,38080
5750,33728
5751,30400
5752,28288
5753,27264
5754,27136
5755,27584
5756,28480
5757,29440
5758,30336
5759,30976
5760,31552
5761,32000
5762,32384
5763,32640
5764,32832
5765,32960
5766,33088
5767,33216
5768,33344
5769,33408
5770,33536
5771,33536
5772,33600
5773,33664
5774,33792
5775,33856
5776,33920
5777,33920
5778,33984
5779,34048
5780,34048
5781,34176
5782,34240
5783,34304
5784,34368
5785,34432
5786,34560
5787,34624
5788,34624
5789,34688
5790,34688
5791,34752
5792,34752
5793,34688
5794,34624
5795,34560
5796,34560
5797,34496
5798,34368
5799,34304
5800,34240
5801,34176
5802,34112
5803,34048
5804,33984
5805,33856
5806,33728
5807,33600
5808,33536
5809,33408
5810,33344
5811,33280
5812,33280
5813,33280
5814,33280
5815,33216
5816,33216
5817,33216
5818,33152
5819,33216
5820,33280
5821,33344
5822,33344
5823,33344
5824,33408
5825,33472
5826,33600
5827,33664
5828,33728
5829,33792
5830,33856
5831,33920
5832,33920
5833,33920
5834,33920
5835,33920
5836,33920
5837,33984
5838,34048
5839,34112
5840,34176
5841,34240
5842,34368
5843,34432
5844,34624
5845,34688
5846,34752
5847,34688
5848,34752
5849,34880
5850,35072
5851,35136
5852,35136
5853,35072
5854,35008
5855,35072
5856,35072
5857,35008
5858,34880
5859,34688
5860,34560
5861,34432
5862,34176
5863,33856
5864,33600
5865,33408
5866,33280
5867,33216
5868,33216
5869,33216
5870,33152
5871,33088
5872,33088
5873,33152
5874,33280
5875,33344
5876,33344
5877,33344
5878,33344
5879,33280
5880,33152
5881,33152
5882,33600
5883,34688
5884,36736
5885,39808
5886,43584
5887,47040
5888,48768
5889,48448
5890,46144
5891,42240
5892,37632
5893,33280
5894,29952
5895,27904
5896,26944
5897,26816
5898,27328
5899,28224
5900,29184
5901,30016
5902,30656
5903,31168
5904,31616
5905,31936
5906,32192
5907,32384
5908,32640
5909,32832
5910,32960
5911,32960
5912,33024
5913,33088
5914,33152
5915,33280
5916,33344
5917,33472
5918,33536
5919,33600
5920,33664
5921,33792
5922,33856
5923,33920
5924,33984
5925,34112
5926,34176
5927,34240
5928,34240
5929,34240
5930,34368
5931,34368
5932,34432
5933,34496
5934,34560
5935,34624
5936,34624
5937,34560
5938,34496
5939,34432
5940,34432
5941,34432
5942,34368
5943,34240
5944,34112
5945,34048
5946,33984
5947,33920
5948,33920
5949,33856
5950,33856
5951,33856
5952,33792
5953,33792
5954,33728
5955,33728
5956,33728
5957,33664
5958,33600
5959,33536
5960,33600
5961,33600
5962,33664
5963,33600
5964,33600
5965,33664
5966,33728
5967,33856
5968,33920
5969,33984
5970,34048
5971,34112
5972,34112
5973,34112
5974,34240
5975,34304
5976,34368
5977,34304
5978,34304
5979,34240
5980,34240
5981,34240
5982,34240
5983,34304
5984,34304
5985,34368
5986,34432
5987,34496
5988,34560
5989,34624
5990,34688
5991,34688
5992,34688
5993,34688
5994,34816
5995,34944
5996,34944
5997,34944
5998,35008
5999,35072
6000,35136
6001,35072
6002,34944
6003,34688
6004,34560
6005,34432
6006,34240
6007,33984
6008,33728
6009,33472
6010,33344
6011,33280
6012,33280
6013,33280
6014,33280
6015,33344
6016,33344
6017,33408
6018,33472
6019,33472
6020,33536
6021,33600
6022,33600
6023,33536
6024,33344
6025,33280
6026,33472
6027,34240
6028,35840
6029,38400
6030,41920
6031,45568
6032,48192
6033,48704
6034,47360
6035,44160
6036,39744
6037,35264
6038,31488
6039,28928
6040,27456
6041,26880
6042,27072
6043,27840
6044,28736
6045,29632
6046,30464
6047,31040
6048,31552
6049,31936
6050,32256
6051,32576
6052,32768
6053,32960
6054,33088
6055,33216
6056,33344
6057,33472
6058,33600
6059,33664
6060,33664
6061,33792
6062,33856
6063,33920
6064,33920
6065,33984
6066,34048
6067,34176
6068,34176
6069,34240
6070,34304
6071,34368
6072,34432
6073,34496
6074,34560
6075,34624
6076,34688
6077,34688
6078,34752
6079,34752
6080,34688
6081,34624
6082,34560
6083,34496
6084,34432
6085,34368
6086,34304
6087,34240
6088,34176
6089,34112
6090,34048
6091,33984
6092,33920
6093,33856
6094,33792
6095,33728
6096,33664
6097,33600
6098,33600
6099,33600
6100,33536
6101,33536
6102,33472
6103,33472
6104,33408
6105,33408
6106,33408
6107,33408
6108,33472
6109,33472
6110,33472
6111,33536
6112,33664
6113,33792
6114,33856
6115,33920
6116,33984
6117,34048
6118,34112
6119,34176
6120,34176
6121,34176
6122,34176
6123,34112
6124,34112
6125,34176
6126,34176
6127,34240
6128,34240
6129,34304
6130,34304
6131,34368
6132,34368
6133,34368
6134,34368
6135,34368
6136,34368
6137,34368
6138,34432
6139,34496
6140,34624
6141,34688
6142,34752
6143,34752
6144,34752
6145,34816
6146,34944
6147,35008
6148,35072
6149,35136
6150,35264
6151,35328
6152,35328
6153,35200
6154,35008
6155,34816
6156,34624
6157,34496
6158,34304
6159,34048
6160,33792
6161,33664
6162,33536
6163,33536
6164,33536
6165,33600
6166,33664
6167,33728
6168,33792
6169,33856
6170,33920
6171,33984
6172,33984
6173,33984
6174,33920
6175,33920
6176,33792
6177,33856
6178,34368
6179,35520
6180,37568
6181,40640
6182,44160
6183,47104
6184,48320
6185,47680
6186,45248
6187,41408
6188,37056
6189,33088
6190,30144
6191,28352
6192,27584
6193,27584
6194,28224
6195,29120
6196,30080
6197,30912
6198,31552
6199,32064
6200,32512
6201,32832
6202,33088
6203,33280
6204,33472
6205,33600
6206,33664
6207,33792
6208,33920
6209,33984
6210,34048
6211,34176
6212,34304
6213,34304
6214,34368
6215,34368
6216,34432
6217,34496
6218,34560
6219,34560
6220,34624
6221,34688
6222,34688
6223,34752
6224,34880
6225,34944
6226,35008
6227,35008
6228,35072
6229,35136
6230,35200
6231,35200
6232,35264
6233,35200
6234,35200
6235,35136
6236,35072
6237,35072
6238,35008
6239,34944
6240,34880
6241,34752
6242,34624
6243,34560
6244,34560
6245,34560
6246,34496
6247,34432
6248,34304
6249,34240
6250,34176
6251,34112
6252,34112
6253,34048
6254,33984
6255,33984
6256,33984
6257,34048
6258,34048
6259,34112
6260,34176
6261,34176
6262,34176
6263,34176
6264,34240
6265,34304
6266,34368
6267,34496
6268,34560
6269,34560
6270,34624
6271,34688
6272,34816
6273,34880
6274,34944
6275,34880
6276,34880
6277,34816
6278,34816
6279,34880
6280,34880
6281,34880
6282,34944
6283,34944
6284,34944
6285,34944
6286,34944
6287,35008
6288,35008
6289,35008
6290,35008
6291,34880
6292,34880
6293,34816
6294,34816
6295,34880
6296,34880
6297,34944
6298,35072
6299,35200
6300,35328
6301,35392
6302,35392
6303,35392
6304,35392
6305,35456
6306,35520
6307,35648
6308,35776
6309,35904
6310,35968
6311,35904
6312,35776
6313,35648
6314,35456
6315,35328
6316,35200
6317,35008
6318,34752
6319,34496
6320,34240
6321,34176
6322,34176
6323,34176
6324,34240
6325,34240
6326,34240
6327,34240
6328,34304
6329,34368
6330,34368
6331,34368
6332,34432
6333,34432
6334,34368
6335,34176
6336,34176
6337,34560
6338,35520
6339,37248
6340,39936
6341,43392
6342,46720
6343,48640
6344,48576
6345,46720
6346,43264
6347,38464
6348,34752
6349,31360
6350,29184
6351,28032
6352,27776
6353,28224
6354,29120
6355,30080
6356,30912
6357,31552
6358,32064
6359,32512
6360,32896
6361,33152
6362,33408
6363,33600
6364,33728
6365,33792
6366,33792
6367,33856
6368,33856
6369,33920
6370,33984
6371,34048
6372,34048
6373,34112
6374,34240
6375,34240
6376,34240
6377,34304
6378,34368
6379,34496
6380,34624
6381,34752
6382,34880
6383,34944
6384,35008
6385,35136
6386,35200
6387,35264
6388,35328
6389,35328
6390,35392
6391,35392
6392,35328
6393,35264
6394,35136
6395,35008
6396,34944
6397,34880
6398,34752
6399,34688
6400,34688
6401,34624
6402,34560
6403,34496
6404,34432
6405,34432
6406,34368
6407,34304
6408,34176
6409,34112
6410,34048
6411,34048
6412,33984
6413,33920
6414,33920
6415,33920
6416,33984
6417,33984
6418,33984
6419,33984
6420,33984
6421,33984
6422,34048
6423,34048
6424,34048
6425,34112
6426,34176
6427,34240
6428,34304
6429,34368
6430,34432
6431,34496
6432,34560
6433,34560
6434,34624
6435,34688
6436,34752
6437,34816
6438,34816
6439,34816
6440,34752
6441,34752
6442,34688
6443,34688
6444,34688
6445,34752
6446,34752
6447,34752
6448,34752
6449,34752
6450,34752
6451,34752
6452,34752
6453,34688
6454,34688
6455,34688
6456,34688
6457,34688
6458,34688
6459,34688
6460,34688
6461,34752
6462,34880
6463,35008
6464,35072
6465,35072
6466,35072
6467,35136
6468,35264
6469,35328
6470,35392
6471,35456
6472,35456
6473,35456
6474,35520
6475,35456
6476,35328
6477,35200
6478,35072
6479,34944
6480,34688
6481,34432
6482,34112
6483,33984
6484,33920
6485,33856
6486,33856
6487,33920
6488,33920
6489,33984
6490,33984
6491,34048
6492,34176
6493,34176
6494,34176
6495,34240
6496,34176
6497,33984
6498,33856
6499,33984
6500,34496
6501,35648
6502,37568
6503,40448
6504,43968
6505,47040
6506,48448
6507,48000
6508,45760
6509,41984
6510,37568
6511,33408
6512,30272
6513,28352
6514,27456
6515,27392
6516,27904
6517,28928
6518,29824
6519,30656
6520,31360
6521,31872
6522,32256
6523,32576
6524,32768
6525,32960
6526,33088
6527,33280
6528,33344
6529,33344
6530,33344
6531,33280
6532,33280
6533,33280
6534,33344
6535,33344
6536,33344
6537,33408
6538,33536
6539,33600
6540,33728
6541,33792
6542,33920
6543,33984
6544,33984
6545,34048
6546,34112
6547,34176
6548,34240
6549,34304
6550,34368
6551,34432
6552,34560
6553,34688
6554,34688
6555,34688
6556,34688
6557,34752
6558,34752
6559,34752
6560,34688
6561,34560
6562,34496
6563,34368
6564,34304
6565,34240
6566,34176
6567,34112
6568,34048
6569,33984
6570,33920
6571,33856
6572,33728
6573,33600
6574,33472
6575,33408
6576,33408
6577,33344
6578,33344
6579,33344
6580,33344
6581,33344
6582,33344
6583,33408
6584,33472
6585,33472
6586,33536
6587,33664
6588,33728
6589,33728
6590,33792
6591,33856
6592,33920
6593,33984
6594,33984
6595,34048
6596,34112
6597,34176
6598,34176
6599,34176
6600,34240
6601,34240
6602,34240
6603,34240
6604,34240
6605,34240
6606,34240
6607,34240
6608,34176
6609,34176
6610,34112
6611,34112
6612,34176
6613,34304
6614,34368
6615,34496
6616,34560
6617,34624
6618,34560
6619,34560
6620,34624
6621,34816
6622,34880
6623,34816
6624,34752
6625,34816
6626,34816
6627,34880
6628,34816
6629,34688
6630,34624
6631,34432
6632,34176
6633,33984
6634,33664
6635,33408
6636,33280
6637,33216
6638,33152
6639,33216
6640,33216
6641,33280
6642,33344
6643,33408
6644,33472
6645,33600
6646,33664
6647,33728
6648,33728
6649,33664
6650,33536
6651,33344
6652,33408
6653,33856
6654,34944
6655,36800
6656,39680
6657,43200
6658,46464
6659,48064
6660,47680
6661,45568
6662,40640
6663,37312
6664,33216
6665,30080
6666,28160
6667,27264
6668,27136
6669,27712
6670,28608
6671,29632
6672,30400
6673,31040
6674,31552
6675,31936
6676,32256
6677,32512
6678,32768
6679,32896
6680,33088
6681,33216
6682,33408
6683,33472
6684,33472
6685,33536
6686,33600
6687,33664
6688,33664
6689,33792
6690,33792
6691,33792
6692,33792
6693,33792
6694,33856
6695,33984
6696,34048
6697,34112
6698,34176
6699,34304
6700,34368
6701,34432
6702,34496
6703,34560
6704,34624
6705,34688
6706,34688
6707,34688
6708,34688
6709,34688
6710,34560
6711,34496
6712,34432
6713,34304
6714,34176
6715,34048
6716,33984
6717,33856
6718,33792
6719,33664
6720,33536
6721,33408
6722,33344
6723,33216
6724,33216
6725,33152
6726,33088
6727,33088
6728,33088
6729,33024
6730,33024
6731,33024
6732,33024
6733,33024
6734,33088
6735,33088
6736,33088
6737,33152
6738,33216
6739,33280
6740,33344
6741,33408
6742,33408
6743,33472
6744,33536
6745,33600
6746,33600
6747,33664
6748,33664
6749,33728
6750,33792
6751,33856
6752,33856
6753,33856
6754,33856
6755,33920
6756,33984
6757,34048
6758,34048
6759,34048
6760,33984
6761,33984
6762,33984
6763,33984
6764,33984
6765,33920
6766,33920
6767,33920
6768,33920
6769,33920
6770,33920
6771,33920
6772,33920
6773,33920
6774,33920
6775,33920
6776,33920
6777,33984
6778,34048
6779,34176
6780,34304
6781,34304
6782,34304
6783,34304
6784,34432
6785,34560
6786,34688
6787,34752
6788,34816
6789,34944
6790,35008
6791,34944
6792,34880
6793,34688
6794,34560
6795,34432
6796,34240
6797,33984
6798,33728
6799,33472
6800,33280
6801,33152
6802,33152
6803,33152
6804,33216
6805,33216
6806,33216
6807,33280
6808,33280
6809,33344
6810,33344
6811,33408
6812,33408
6813,33344
6814,33216
6815,33088
6816,33152
6817,33728
6818,34752
6819,36544
6820,39360
6821,42816
6822,46016
6823,47744
6824,47616
6825,45696
6826,42112
6827,37696
6828,33472
6829,30144
6830,28032
6831,27008
6832,26816
6833,27328
6834,28224
6835,29248
6836,30144
6837,30912
6838,31424
6839,31872
6840,32192
6841,32448
6842,32768
6843,32832
6844,32960
6845,33088
6846,33216
6847,33344
6848,33408
6849,33472
6850,33536
6851,33536
6852,33600
6853,33664
6854,33728
6855,33792
6856,33792
6857,33856
6858,33920
6859,33984
6860,34112
6861,34176
6862,34240
6863,34304
6864,34368
6865,34432
6866,34496
6867,34560
6868,34624
6869,34688
6870,34688
6871,34752
6872,34752
6873,34688
6874,34688
6875,34624
6876,34496
6877,34432
6878,34304
6879,34240
6880,34176
6881,34112
6882,33984
6883,33920
6884,33856
6885,33856
6886,33792
6887,33664
6888,33600
6889,33472
6890,33408
6891,33344
6892,33280
6893,33216
6894,33152
6895,33088
6896,33088
6897,33152
6898,33152
6899,33216
6900,33216
6901,33280
6902,33280
6903,33344
6904,33408
6905,33536
6906,33600
6907,33664
6908,33728
6909,33792
6910,33856
6911,33792
6912,33856
6913,33856
6914,33856
6915,33792
6916,33856
6917,33920
6918,33920
6919,33984
6920,33984
6921,34048
6922,34048
6923,34048
6924,34048
6925,34048
6926,33984
6927,33984
6928,33920
6929,33920
6930,33856
6931,33856
6932,33856
6933,33856
6934,33856
6935,33792
6936,33728
6937,33728
6938,33728
6939,33664
6940,33664
6941,33664
6942,33664
6943,33664
6944,33664
6945,33664
6946,33664
6947,33664
6948,33600
6949,33600
6950,33664
6951,33792
6952,33984
6953,34112
6954,34176
6955,34240
6956,34240
6957,34368
6958,34496
6959,34624
6960,34688
6961,34816
6962,35008
6963,34944
6964,34944
6965,34944
6966,34816
6967,34688
6968,34496
6969,34368
6970,34176
6971,33920
6972,33664
6973,33472
6974,33344
6975,33280
6976,33280
6977,33280
6978,33280
6979,33408
6980,33472
6981,33536
6982,33664
6983,33728
6984,33664
6985,33664
6986,33600
6987,33536
6988,33344
6989,33216
6990,33344
6991,33984
6992,35456
6993,37696
6994,40896
6995,44480
6996,47296
6997,48448
6998,47488
6999,44992
7000,41024
7001,36544
7002,32512
7003,29568
7004,27840
7005,27072
7006,27072
7007,28096
7008,28672
7009,29632
7010,30528
7011,31168
7012,31744
7013,32192
7014,32512
7015,32704
7016,32896
7017,33088
7018,33216
7019,33344
7020,33408
7021,33472
7022,33536
7023,33600
7024,33600
7025,33664
7026,33728
7027,33792
7028,33856
7029,33856
7030,33920
7031,33984
7032,34048
7033,34112
7034,34240
7035,34240
7036,34304
7037,34432
7038,34496
7039,34560
7040,34624
7041,34624
7042,34688
7043,34688
7044,34752
7045,34752
7046,34688
7047,34688
7048,34624
7049,34560
7050,34496
7051,34432
7052,34304
7053,34240
7054,34176
7055,34048
7056,33984
7057,33984
7058,33984
7059,33920
7060,33856
7061,33728
7062,33664
7063,33600
7064,33536
7065,33472
7066,33472
7067,33408
7068,33344
7069,33344
7070,33280
7071,33280
7072,33344
7073,33344
7074,33344
7075,33408
7076,33472
7077,33472
7078,33472
7079,33536
7080,33600
7081,33664
7082,33792
7083,33792
7084,33792
7085,33856
7086,33856
7087,33920
7088,33920
7089,33920
7090,33920
7091,33920
7092,33984
7093,34048
7094,34048
7095,34112
7096,34112
7097,34112
7098,34112
7099,34112
7100,34176
7101,34176
7102,34112
7103,34048
7104,34048
7105,34048
7106,34048
7107,34048
7108,34112
7109,34112
7110,34048
7111,34112
7112,34176
7113,34112
7114,34112
7115,34048
7116,34048
7117,34048
7118,34048
7119,34048
7120,34048
7121,34112
7122,34112
7123,34176
7124,34176
7125,34176
7126,34112
7127,34112
7128,34112
7129,34112
7130,34112
7131,34176
7132,34176
7133,34240
7134,34240
7135,34240
7136,34240
7137,34368
7138,34432
7139,34496
7140,34624
7141,34624
7142,34688
7143,34688
7144,34752
7145,34880
7146,34944
7147,35008
7148,35136
7149,35200
7150,35264
7151,35200
7152,35072
7153,34944
7154,34816
7155,34688
7156,34496
7157,34240
7158,33920
7159,33664
7160,33472
7161,33408
7162,33408
7163,33472
7164,33536
7165,33600
7166,33600
7167,33664
7168,33664
7169,33728
7170,33728
7171,33792
7172,33792
7173,33728
7174,33472
7175,33280
7176,33408
7177,33984
7178,35392
7179,37440
7180,40512
7181,44160
7182,47232
7183,48640
7184,48128
7185,45760
7186,41792
7187,37248
7188,33088
7189,29888
7190,27968
7191,27008
7192,26944
7193,27584
7194,28544
7195,29568
7196,30400
7197,31104
7198,31616
7199,32064
7200,32384
7201,32640
7202,32832
7203,32960
7204,33152
7205,33280
7206,33408
7207,33536
7208,33600
7209,33600
7210,33664
7211,33728
7212,33792
7213,33856
7214,33856
7215,33984
7216,34048
7217,34112
7218,34176
7219,34240
7220,34304
7221,34368
7222,34368
7223,34432
7224,34496
7225,34496
7226,34560
7227,34560
7228,34624
7229,34688
7230,34752
7231,34752
7232,34752
7233,34688
7234,34624
7235,34560
7236,34496
7237,34432
7238,34368
7239,34304
7240,34176
7241,34048
7242,33920
7243,33856
7244,33792
7245,33728
7246,33728
7247,33664
7248,33664
7249,33600
7250,33600
7251,33536
7252,33536
7253,33536
7254,33472
7255,33408
7256,33344
7257,33280
7258,33344
7259,33344
7260,33408
7261,33472
7262,33472
7263,33472
7264,33536
7265,33600
7266,33664
7267,33728
7268,33856
7269,33856
7270,33920
7271,33984
7272,33984
7273,33984
7274,34048
7275,34048
7276,34112
7277,34112
7278,34112
7279,34112
7280,34048
7281,34048
7282,34048
7283,34112
7284,34112
7285,34112
7286,34112
7287,34176
7288,34112
7289,34048
7290,34048
7291,34048
7292,34048
7293,34112
7294,34048
7295,34048
7296,34048
7297,34048
7298,33984
7299,33984
7300,33984
7301,34048
7302,34048
7303,34048
7304,34048
7305,34048
7306,34048
7307,33984
7308,33984
7309,34048
7310,34048
7311,34112
7312,34112
7313,34112
7314,34048
7315,34048
7316,34048
7317,34112
7318,34112
7319,34112
7320,34176
7321,34240
7322,34176
7323,34176
7324,34176
7325,34176
7326,34176
7327,34304
7328,34368
7329,34496
7330,34496
7331,34496
7332,34560
7333,34688
7334,34752
7335,34816
7336,34880
7337,35008
7338,35136
7339,35136
7340,35072
7341,35008
7342,34816
7343,34688
7344,34560
7345,34432
7346,34112
7347,33792
7348,33536
7349,33408
7350,33408
7351,33408
7352,33408
7353,33472
7354,33536
7355,33600
7356,33600
7357,33664
7358,33728
7359,33728
7360,33728
7361,33664
7362,33600
7363,33344
7364,33152
7365,33216
7366,33792
7367,35008
7368,37056
7369,39936
7370,43584
7371,46848
7372,48512
7373,48256
7374,46080
7375,42240
7376,37760
7377,33472
7378,30208
7379,28160
7380,27136
7381,26944
7382,27456
7383,28416
7384,29376
7385,30272
7386,31040
7387,31616
7388,32064
7389,32384
7390,32640
7391,32832
7392,32960
7393,33088
7394,33152
7395,33280
7396,33408
7397,33536
7398,33600
7399,33664
7400,33728
7401,33728
7402,33792
7403,33856
7404,33920
7405,33984
7406,33984
7407,33984
7408,34048
7409,34048
7410,34112
7411,34176
7412,34240
7413,34304
7414,34368
7415,34432
7416,34496
7417,34688
7418,34624
7419,34624
7420,34624
7421,34560
7422,34496
7423,34432
7424,34432
7425,34368
7426,34240
7427,34176
7428,34112
7429,33984
7430,33856
7431,33792
7432,33728
7433,33664
7434,33600
7435,33536
7436,33472
7437,33408
7438,33408
7439,33408
7440,33408
7441,33408
7442,33408
7443,33344
7444,33344
7445,33344
7446,33344
7447,33280
7448,33344
7449,33344
7450,33408
7451,33472
7452,33472
7453,33536
7454,33600
7455,33664
7456,33664
7457,33728
7458,33792
7459,33792
7460,33792
7461,33856
7462,33920
7463,33920
7464,33984
7465,34048
7466,34112
7467,34048
7468,33984
7469,34048
7470,34048
7471,33984
7472,33920
7473,33856
7474,33920
7475,33920
7476,33920
7477,33920
7478,33920
7479,33920
7480,33920
7481,33920
7482,33920
7483,33920
7484,33856
7485,33856
7486,33792
7487,33792
7488,33792
7489,33856
7490,33856
7491,33792
7492,33792
7493,33792
7494,33728
7495,33728
7496,33728
7497,33728
7498,33792
7499,33856
7500,33856
7501,33856
7502,33856
7503,33792
7504,33792
7505,33792
7506,33856
7507,33856
7508,33920
7509,33920
7510,33984
7511,34112
7512,34240
7513,34368
7514,34496
7515,34560
7516,34560
7517,34560
7518,34624
7519,34688
7520,34816
7521,34880
7522,35008
7523,35072
7524,35072
7525,35008
7526,34880
7527,34688
7528,34496
7529,34368
7530,34176
7531,33920
7532,33664
7533,33600
7534,33408
7535,33280
7536,33280
7537,33344
7538,33408
7539,33408
7540,33408
7541,33408
7542,33408
7543,33472
7544,33472
7545,33536
7546,33536
7547,33408
7548,33344
7549,33024
7550,33088
7551,33600
7552,34944
7553,37184
7554,40320
7555,43904
7556,46912
7557,48256
7558,47744
7559,45376
7560,41472
7561,36928
7562,32768
7563,29568
7564,27584
7565,26624
7566,26560
7567,27136
7568,28096
7569,29120
7570,30016
7571,30720
7572,31232
7573,31680
7574,32064
7575,32320
7576,32512
7577,32704
7578,32832
7579,32896
7580,32960
7581,33152
7582,33280
7583,33280
7584,33344
7585,33344
7586,33408
7587,33472
7588,33600
7589,33664
7590,33728
7591,33792
7592,33792
7593,33856
7594,33920
7595,33984
7596,34112
7597,34176
7598,34240
7599,34304
7600,34304
7601,34432
7602,34496
7603,34560
7604,34624
7605,34560
7606,34560
7607,34496
7608,34496
7609,34496
7610,34496
7611,34432
7612,34304
7613,34176
7614,34048
7615,33984
7616,33920
7617,33856
7618,33856
7619,33856
7620,33856
7621,33856
7622,33792
7623,33792
7624,33728
7625,33664
7626,33600
7627,33600
7628,33536
7629,33536
7630,33536
7631,33472
7632,33472
7633,33472
7634,33536
7635,33600
7636,33664
7637,33664
7638,33728
7639,33728
7640,33792
7641,33920
7642,33984
7643,34048
7644,34112
7645,34176
7646,34240
7647,34240
7648,34240
7649,34240
7650,34304
7651,34304
7652,34368
7653,34432
7654,34432
7655,34368
7656,34432
7657,34496
7658,34496
7659,34560
7660,34560
7661,34560
7662,34560
7663,34560
7664,34496
7665,34496
7666,34496
7667,34496
7668,34496
7669,34432
7670,34368
7671,34368
7672,34368
7673,34368
7674,34368
7675,34368
7676,34368
7677,34432
7678,34432
7679,34432
7680,34496
7681,34496
7682,34496
7683,34496
7684,34496
7685,34560
7686,34624
7687,34624
7688,34624
7689,34560
7690,34560
7691,34560
7692,34624
7693,34688
7694,34880
7695,35008
7696,35136
7697,35200
7698,35200
7699,35264
7700,35328
7701,35392
7702,35392
7703,35520
7704,35584
7705,35712
7706,35776
7707,35776
7708,35648
7709,35392
7710,35264
7711,35136
7712,34880
7713,34624
7714,34304
7715,34176
7716,34112
7717,34048
7718,34048
7719,34112
7720,34112
7721,34176
7722,34176
7723,34240
7724,34304
7725,34304
7726,34304
7727,34304
7728,34304
7729,34112
7730,33792
7731,33600
7732,33856
7733,34624
7734,36224
7735,38720
7736,42176
7737,45824
7738,48512
7739,49344
7740,48320
7741,45376
7742,41152
7743,36672
7744,32768
7745,29888
7746,28224
7747,27584
7748,27648
7749,28288
7750,29248
7751,30272
7752,31168
7753,31872
7754,32448
7755,32832
7756,33152
7757,33408
7758,33600
7759,33728
7760,33856
7761,33984
7762,34112
7763,34240
7764,34240
7765,34304
7766,34432
7767,34496
7768,34560
7769,34624
7770,34624
7771,34688
7772,34688
7773,34752
7774,34880
7775,34880
7776,34944
7777,35008
7778,35072
7779,35136
7780,35200
7781,35264
7782,35328
7783,35392
7784,35392
7785,35392
7786,35328
7787,35328
7788,35264
7789,35264
7790,35200
7791,35136
7792,35136
7793,35008
7794,34944
7795,34816
7796,34752
7797,34688
7798,34624
7799,34624
7800,34560
7801,34496
7802,34432
7803,34368
7804,34240
7805,34176
7806,34112
7807,34112
7808,34048
7809,33984
7810,33984
7811,33984
7812,34048
7813,34048
7814,34112
7815,34176
7816,34176
7817,34240
7818,34304
7819,34304
7820,34368
7821,34368
7822,34368
7823,34432
7824,34496
7825,34496
7826,34496
7827,34560
7828,34624
7829,34688
7830,34752
7831,34816
7832,34816
7833,34880
7834,34880
7835,34880
7836,34880
7837,34944
7838,34944
7839,34880
7840,34880
7841,34880
7842,34880
7843,34880
7844,34944
7845,34944
7846,34880
7847,34880
7848,34816
7849,34816
7850,34816
7851,34816
7852,34816
7853,34752
7854,34752
7855,34752
7856,34752
7857,34816
7858,34816
7859,34752
7860,34752
7861,34752
7862,34752
7863,34816
7864,34880
7865,34880
7866,34880
7867,34880
7868,34880
7869,35008
7870,35136
7871,35264
7872,35328
7873,35392
7874,35392
7875,35392
7876,35520
7877,35584
7878,35648
7879,35712
7880,35776
7881,35904
7882,35904
7883,35776
7884,35584
7885,35456
7886,35328
7887,35200
7888,35008
7889,34752
7890,34496
7891,34304
7892,34112
7893,34048
7894,34048
7895,34112
7896,34176
7897,34176
7898,34240
7899,34240
7900,34240
7901,34240
7902,34304
7903,34304
7904,34304
7905,34176
7906,33984
7907,33856
7908,34112
7909,34816
7910,36352
7911,38784
7912,42240
7913,45760
7914,48448
7915,49280
7916,48256
7917,45248
7918,40896
7919,36288
7920,32384
7921,29568
7922,27968
7923,27264
7924,27456
7925,28160
7926,29184
7927,30144
7928,30976
7929,31616
7930,32064
7931,32448
7932,32768
7933,33024
7934,33216
7935,33344
7936,33472
7937,33600
7938,33664
7939,33792
7940,33856
7941,33920
7942,33856
7943,33856
7944,33920
7945,33984
7946,34048
7947,34112
7948,34176
7949,34240
7950,34368
7951,34432
7952,34496
7953,34560
7954,34624
7955,34688
7956,34752
7957,34880
7958,34944
7959,34944
7960,35008
7961,35008
7962,35072
7963,35072
7964,35072
7965,35008
7966,35008
7967,34944
7968,34880
7969,34816
7970,34752
7971,34624
7972,34560
7973,34496
7974,34432
7975,34368
7976,34304
7977,34240
7978,34176
7979,34112
7980,34048
7981,33984
7982,33984
7983,33920
7984,33856
7985,33792
7986,33728
7987,33728
7988,33728
7989,33728
7990,33792
7991,33792
7992,33792
7993,33856
7994,33920
7995,33984
7996,34048
7997,34048
7998,34112
7999,34176
8000,34240
8001,34304
8002,34368
8003,34432
8004,34432
8005,34432
8006,34432
8007,34496
8008,34560
8009,34560
8010,34560
8011,34624
8012,34624
8013,34624
8014,34624
8015,34560
8016,34560
8017,34560
8018,34560
8019,34560
8020,34560
8021,34624
8022,34560
8023,34560
8024,34560
8025,34560
8026,34496
8027,34496
8028,34496
8029,34496
8030,34496
8031,34496
8032,34496
8033,34432
8034,34432
8035,34368
8036,34432
8037,34432
8038,34432
8039,34496
8040,34560
8041,34688
8042,34816
8043,34880
8044,34944
8045,34944
8046,34944
8047,35072
8048,35136
8049,35200
8050,35264
8051,35392
8052,35456
8053,35456
8054,35392
8055,35264
8056,35072
8057,34880
8058,34688
8059,34432
8060,34112
8061,33920
8062,33856
8063,33792
8064,33728
8065,33728
8066,33728
8067,33728
8068,33792
8069,33792
8070,33856
8071,33920
8072,33984
8073,33984
8074,34048
8075,33984
8076,33792
8077,33536
8078,33472
8079,33728
8080,34688
8081,36480
8082,39232
8083,42752
8084,46208
8085,48320
8086,48640
8087,47168
8088,43840
8089,39552
8090,35200
8091,31552
8092,28992
8093,27712
8094,27200
8095,27456
8096,28224
8097,29248
8098,30144
8099,30912
8100,31552
8101,32000
8102,32320
8103,32576
8104,32768
8105,32960
8106,33152
8107,33344
8108,33408
8109,33472
8110,33600
8111,33664
8112,33792
8113,33856
8114,33856
8115,33920
8116,33856
8117,33856
8118,33920
8119,33984
8120,34048
8121,34112
8122,34176
8123,34176
8124,34240
8125,34304
8126,34368
8127,34432
8128,34496
8129,34560
8130,34624
8131,34624
8132,34688
8133,34688
8134,34624
8135,34560
8136,34496
8137,34432
8138,34368
8139,34368
8140,34240
8141,34176
8142,34112
8143,34112
8144,34048
8145,33984
8146,33920
8147,33856
8148,33728
8149,33664
8150,33664
8151,33600
8152,33600
8153,33600
8154,33600
8155,33536
8156,33472
8157,33344
8158,33344
8159,33280
8160,33280
8161,33280
8162,33344
8163,33408
8164,33472
8165,33536
8166,33536
8167,33600
8168,33664
8169,33728
8170,33792
8171,33792
8172,33856
8173,33856
8174,33920
8175,33984
8176,34048
8177,34112
8178,34112
8179,34048
8180,34048
8181,34048
8182,34112
8183,34112
8184,34112
8185,34112
8186,34112
8187,34112
8188,34112
8189,34112
8190,34176
8191,34176
8192,34176
8193,34112
8194,34048
8195,34048
8196,33984
8197,33984
8198,33984
8199,33984
8200,34048
8201,34112
8202,34240
8203,34304
8204,34368
8205,34304
8206,34368
8207,34432
8208,34560
8209,34624
8210,34752
8211,34752
8212,34880
8213,34944
8214,35008
8215,34944
8216,34880
8217,34752
8218,34560
8219,34368
8220,34176
8221,33920
8222,33600
8223,33472
8224,33344
8225,33280
8226,33280
8227,33280
8228,33344
8229,33408
8230,33408
8231,33408
8232,33472
8233,33536
8234,33536
8235,33536
8236,33600
8237,33536
8238,33344
8239,33088
8240,33216
8241,33728
8242,34944
8243,37120
8244,40192
8245,43776
8246,46784
8247,48256
8248,47808
8249,45440
8250,41600
8251,37184
8252,33152
8253,30080
8254,28160
8255,27264
8256,27136
8257,27584
8258,28416
8259,29312
8260,30080
8261,30784
8262,31296
8263,31744
8264,32128
8265,32384
8266,32640
8267,32896
8268,33024
8269,33152
8270,33280
8271,33408
8272,33536
8273,33600
8274,33728
8275,33728
8276,33728
8277,33792
8278,33856
8279,33920
8280,33984
8281,34048
8282,34048
8283,34112
8284,34112
8285,34240
8286,34304
8287,34432
8288,34496
8289,34560
8290,34624
8291,34688
8292,34688
8293,34752
8294,34816
8295,34816
8296,34816
8297,34816
8298,34752
8299,34752
8300,34688
8301,34624
8302,34496
8303,34432
8304,34304
8305,34176
8306,34112
8307,34048
8308,33984
8309,33856
8310,33792
8311,33728
8312,33728
8313,33664
8314,33600
8315,33600
8316,33536
8317,33472
8318,33472
8319,33472
8320,33472
8321,33472
8322,33472
8323,33472
8324,33472
8325,33536
8326,33600
8327,33664
8328,33728
8329,33856
8330,33920
8331,33984
8332,34048
8333,34112
8334,34112
8335,34048
8336,34112
8337,34112
8338,34112
8339,34176
8340,34176
8341,34176
8342,34176
8343,34176
8344,34240
8345,34240
8346,34304
8347,34304
8348,34304
8349,34304
8350,34240
8351,34240
8352,34176
8353,34176
8354,34240
8355,34304
8356,34304
8357,34240
8358,34176
8359,34176
8360,34112
8361,34112
8362,34240
8363,34304
8364,34432
8365,34496
8366,34560
8367,34496
8368,34560
8369,34624
8370,34752
8371,34816
8372,34880
8373,35008
8374,35136
8375,35200
8376,35136
8377,35008
8378,34816
8379,34624
8380,34432
8381,34304
8382,34048
8383,33792
8384,33600
8385,33472
8386,33472
8387,33472
8388,33472
8389,33472
8390,33536
8391,33536
8392,33472
8393,33472
8394,33536
8395,33600
8396,33600
8397,33664
8398,33600
8399,33408
8400,33344
8401,33472
8402,34048
8403,35328
8404,37440
8405,40640
8406,44288
8407,47424
8408,48512
8409,47808
8410,45120
8411,40960
8412,36416
8413,32448
8414,29504
8415,27840
8416,27136
8417,27200
8418,27840
8419,28864
8420,29824
8421,30656
8422,31296
8423,31744
8424,32192
8425,32512
8426,32768
8427,33024
8428,33216
8429,33344
8430,33472
8431,33600
8432,33728
8433,33728
8434,33728
8435,33728
8436,33792
8437,33856
8438,33920
8439,33920
8440,34048
8441,34176
8442,34304
8443,34240
8444,34304
8445,34368
8446,34368
8447,34496
8448,34560
8449,34688
8450,34688
8451,34752
8452,34816
8453,34880
8454,34880
8455,34816
8456,34752
8457,34688
8458,34688
8459,34624
8460,34560
8461,34560
8462,34560
8463,34560
8464,34496
8465,34432
8466,34368
8467,34368
8468,34240
8469,34176
8470,34176
8471,34112
8472,33984
8473,33856
8474,33792
8475,33600
8476,33472
8477,33408
8478,33408
8479,33344
8480,33344
8481,33344
8482,33408
8483,33408
8484,33408
8485,33408
8486,33408
8487,33408
8488,33472
8489,33536
8490,33664
8491,33664
8492,33728
8493,33728
8494,33792
8495,33856
8496,33920
8497,33984
8498,33984
8499,34048
8500,34048
8501,34048
8502,34048
8503,34112
8504,34176
8505,34176
8506,34176
8507,34112
8508,34112
8509,34048
8510,33984
8511,33984
8512,34048
8513,34048
8514,34048
8515,33984
8516,33984
8517,34048
8518,34176
8519,34304
8520,34368
8521,34432
8522,34432
8523,34496
8524,34496
8525,34560
8526,34688
8527,34752
8528,34816
8529,34752
8530,34816
8531,34880
8532,35008
8533,34944
8534,34816
8535,34688
8536,34560
8537,34368
8538,34304
8539,34112
8540,33856
8541,33600
8542,33472
8543,33408
8544,33408
8545,33280
8546,33216
8547,33216
8548,33280
8549,33344
8550,33408
8551,33472
8552,33600
8553,33664
8554,33728
8555,33728
8556,33600
8557,33600
8558,33856
8559,34496
8560,35776
8561,37952
8562,41216
8563,44864
8564,47744
8565,48576
8566,47424
8567,44416
8568,40064
8569,35520
8570,31616
8571,28928
8572,27328
8573,26752
8574,27008
8575,27776
8576,28736
8577,29696
8578,30528
8579,31168
8580,31616
8581,31936
8582,32256
8583,32384
8584,32512
8585,32704
8586,32896
8587,33088
8588,33152
8589,33216
8590,33280
8591,33344
8592,33344
8593,33344
8594,33344
8595,33408
8596,33408
8597,33600
8598,33664
8599,33728
8600,33792
8601,33856
8602,33984
8603,34048
8604,34112
8605,34176
8606,34304
8607,34304
8608,34304
8609,34304
8610,34368
8611,34432
8612,34432
8613,34368
8614,34304
8615,34240
8616,34176
8617,34176
8618,34240
8619,34176
8620,34112
8621,33984
8622,33856
8623,33856
8624,33920
8625,33920
8626,33792
8627,33664
8628,33536
8629,33472
8630,33408
8631,33280
8632,33216
8633,33152
8634,33152
8635,33088
8636,33088
8637,33152
8638,33152
8639,33152
8640,33216
8641,33216
8642,33344
8643,33344
8644,33408
8645,33472
8646,33536
8647,33664
8648,33728
8649,33728
8650,33792
8651,33792
8652,33792
8653,33856
8654,33920
8655,33920
8656,33920
8657,33920
8658,33920
8659,33920
8660,33984
8661,34048
8662,34112
8663,34112
8664,34112
8665,34112
8666,34112
8667,34112
8668,34112
8669,34176
8670,34304
8671,34368
8672,34496
8673,34560
8674,34624
8675,34624
8676,34624
8677,34752
8678,34880
8679,34944
8680,35008
8681,35072
8682,35200
8683,35328
8684,35328
8685,35264
8686,35136
8687,35072
8688,34944
8689,34816
8690,34560
8691,34240
8692,33984
8693,33920
8694,33920
8695,33920
8696,33920
8697,33920
8698,34048
8699,34112
8700,34112
8701,34112
8702,34240
8703,34240
8704,34304
8705,34368
8706,34304
8707,34176
8708,33920
8709,33920
8710,34304
8711,35392
8712,37376
8713,40320
8714,44032
8715,47424
8716,49408
8717,49280
8718,47232
8719,43456
8720,38912
8721,34624
8722,31104
8723,28992
8724,28032
8725,27840
8726,28288
8727,29120
8728,30080
8729,30912
8730,31616
8731,32128
8732,32640
8733,32832
8734,33024
8735,33280
8736,33472
8737,33600
8738,33728
8739,33856
8740,33984
8741,34048
8742,34112
8743,34176
8744,34304
8745,34432
8746,34560
8747,34624
8748,34688
8749,34688
8750,34624
8751,34624
8752,34624
8753,34624
8754,34688
8755,34816
8756,34944
8757,35072
8758,35136
8759,35200
8760,35264
8761,35328
8762,35456
8763,35456
8764,35456
8765,35456
8766,35392
8767,35264
8768,35200
8769,35136
8770,35072
8771,35008
8772,35008
8773,34944
8774,34880
8775,34816
8776,34688
8777,34688
8778,34624
8779,34560
8780,34496
8781,34496
8782,34496
8783,34496
8784,34432
8785,34432
8786,34432
8787,34432
8788,34432
8789,34432
8790,34432
8791,34432
8792,34496
8793,34496
8794,34496
8795,34624
8796,34688
8797,34752
8798,34816
8799,34816
8800,34880
8801,34944
8802,35008
8803,35072
8804,35136
8805,35264
8806,35264
8807,35264
8808,35264
8809,35264
8810,35264
8811,35264
8812,35264
8813,35200
8814,35136
8815,35136
8816,35136
8817,35200
8818,35264
8819,35392
8820,35648
8821,35776
8822,35840
8823,35840
8824,35776
8825,35840
8826,35904
8827,35968
8828,35968
8829,35904
8830,35968
8831,35968
8832,35968
8833,35904
8834,35776
8835,35648
8836,35584
8837,35328
8838,35136
8839,34880
8840,34624
8841,34432
8842,34368
8843,34432
8844,34432
8845,34496
8846,34560
8847,34624
8848,34688
8849,34688
8850,34688
8851,34752
8852,34752
8853,34752
8854,34688
8855,34560
8856,34432
8857,34752
8858,35584
8859,37120
8860,39424
8861,42880
8862,46720
8863,49600
8864,50432
8865,49152
8866,45888
8867,39360
8868,36288
8869,32704
8870,30144
8871,28736
8872,28288
8873,28672
8874,29568
8875,30592
8876,31360
8877,32000
8878,32576
8879,32960
8880,33344
8881,33664
8882,33920
8883,34112
8884,34240
8885,34368
8886,34432
8887,34560
8888,34688
8889,34752
8890,34880
8891,34944
8892,35008
8893,35072
8894,35136
8895,35264
8896,35328
8897,35456
8898,35520
8899,35584
8900,35648
8901,35776
8902,35904
8903,35968
8904,36032
8905,36096
8906,36160
8907,36224
8908,36288
8909,36352
8910,36416
8911,36416
8912,36416
8913,36352
8914,36288
8915,36160
8916,36032
8917,35904
8918,35776
8919,35648
8920,35648
8921,35584
8922,35520
8923,35456
8924,35328
8925,35264
8926,35136
8927,35136
8928,35072
8929,35008
8930,34944
8931,34880
8932,34880
8933,34880
8934,34880
8935,34944
8936,35008
8937,35136
8938,35200
8939,35136
8940,35136
8941,35200
8942,35392
8943,35392
8944,35328
8945,35200
8946,35200
8947,35328
8948,35584
8949,35648
8950,35520
8951,35328
8952,35136
8953,35008
8954,35136
8955,35264
8956,35328
8957,35392
8958,35456
8959,35584
8960,35840
8961,36032
8962,36096
8963,35840
8964,35456
8965,35072
8966,34880
8967,34880
8968,34880
8969,35008
8970,35136
8971,35392
8972,35648
8973,35712
8974,35904
8975,36096
8976,36224
8977,36224
8978,36224
8979,36288
8980,36480
8981,36544
8982,36224
8983,35776
8984,35584
8985,35520
8986,35008
8987,34304
8988,33728
8989,33600
8990,33856
8991,33856
8992,33600
8993,33344
8994,33280
8995,33472
8996,34304
8997,35328
8998,35520
8999,34688
9000,33344
9001,32576
9002,32448
9003,32640
9004,32960
9005,33344
9006,33984
9007,34944
9008,36160
9009,38144
9010,41280
9011,44992
9012,48000
9013,49216
9014,48448
9015,45696
9016,41600
9017,35200
9018,32960
9019,30016
9020,28032
9021,26944
9022,26944
9023,27712
9024,28736
9025,29632
9026,30336
9027,30976
9028,31616
9029,32256
9030,32576
9031,32768
9032,32960
9033,33024
9034,32960
9035,33024
9036,33088
9037,33280
9038,33536
9039,33664
9040,33664
9041,33792
9042,33920
9043,33920
9044,33856
9045,33856
9046,33920
9047,34048
9048,34048
9049,33984
9050,33920
9051,34112
9052,34432
9053,34496
9054,34240
9055,34112
9056,34112
9057,34112
9058,34048
9059,34112
9060,34112
9061,34048
9062,34112
9063,34112
9064,34112
9065,34240
9066,34432
9067,34432
9068,34304
9069,34112
9070,34112
9071,34176
9072,34176
9073,34048
9074,33856
9075,33856
9076,33920
9077,33792
9078,33600
9079,33536
9080,33472
9081,33344
9082,33280
9083,33280
9084,33216
9085,33152
9086,32960
9087,32768
9088,32704
9089,32768
9090,32896
9091,33024
9092,33408
9093,33536
9094,33472
9095,33408
9096,33152
9097,33088
9098,33408
9099,33664
9100,33600
9101,33664
9102,33600
9103,33536
9104,33216
9105,33152
9106,33024
9107,32960
9108,33024
9109,33152
9110,33344
9111,33472
9112,33600
9113,33600
9114,33536
9115,33344
9116,33088
9117,32896
9118,33152
9119,33280
9120,33280
9121,33216
9122,33344
9123,33408
9124,33472
9125,33472
9126,33344
9127,33216
9128,33088
9129,32896
9130,32576
9131,32256
9132,32128
9133,32384
9134,32832
9135,32832
9136,32320
9137,31488
9138,31104
9139,31104
9140,31296
9141,31616
9142,32064
9143,32576
9144,32768
9145,32512
9146,32256
9147,32576
9148,32896
9149,32832
9150,32640
9151,32640
9152,32960
9153,33728
9154,34752
9155,36288
9156,38592
9157,42176
9158,46080
9159,48256
9160,48640
9161,47296
9162,43776
9163,39040
9164,34560
9165,30976
9166,28480
9167,27072
9168,26688
9169,27200
9170,28416
9171,29760
9172,31104
9173,32448
9174,33408
9175,33920
9176,34176
9177,34048
9178,33472
9179,33024
9180,33024
9181,33472
9182,34368
9183,35200
9184,35456
9185,34816
9186,33984
9187,33728
9188,34176
9189,34944
9190,35072
9191,34432
9192,33984
9193,33920
9194,34688
9195,35904
9196,36288
9197,34816
9198,33216
9199,32768
9200,32896
9201,33792
9202,34624
9203,34816
9204,34496
9205,34112
9206,34368
9207,34752
9208,35200
9209,35648
9210,35456
9211,34816
9212,34368
9213,34112
9214,34304
9215,34688
9216,34432
9217,34112
9218,34048
9219,34880
9220,35904
9221,35776
9222,34880
9223,33920
9224,33024
9225,32320
9226,32448
9227,33088
9228,33344
9229,32768
9230,32384
9231,32320
9232,32704
9233,33216
9234,33664
9235,33600
9236,33728
9237,33728
9238,33280
9239,32832
9240,33280
9241,34368
9242,34304
9243,33216
9244,32576
9245,32576
9246,32896
9247,33152
9248,33152
9249,33280
9250,33408
9251,33792
9252,34176
9253,34176
9254,34112
9255,34368
9256,34368
9257,34048
9258,33984
9259,33728
9260,33536
9261,33280
9262,33344
9263,33344
9264,33664
9265,33856
9266,33984
9267,33920
9268,34112
9269,34176
9270,34432
9271,35008
9272,35136
9273,35008
9274,33728
9275,33216
9276,33024
9277,32960
9278,32960
9279,32896
9280,32640
9281,32448
9282,32320
9283,32256
9284,32192
9285,32064
9286,32000
9287,32064
9288,32384
9289,32704
9290,32768
9291,32576
9292,32192
9293,31872
9294,31872
9295,32064
9296,32256
9297,32512
9298,32768
9299,33024
9300,33600
9301,34688
9302,36672
9303,39616
9304,42816
9305,45184
9306,45504
9307,43968
9308,40960
9309,36864
9310,32512
9311,28992
9312,26688
9313,25728
9314,25728
9315,26304
9316,27264
9317,28352
9318,29184
9319,29888
9320,30400
9321,30848
9322,31168
9323,31424
9324,31488
9325,31616
9326,31744
9327,31872
9328,32000
9329,32000
9330,32064
9331,32192
9332,32320
9333,32448
9334,32576
9335,32704
9336,32768
9337,32832
9338,32896
9339,32896
9340,32896
9341,32960
9342,33024
9343,33152
9344,33280
9345,33344
9346,33408
9347,33408
9348,33408
9349,33408
9350,33472
9351,33536
9352,33664
9353,33792
9354,33856
9355,33984
9356,33984
9357,33792
9358,33472
9359,33152
9360,33088
9361,33216
9362,33280
9363,33280
9364,33216
9365,33280
9366,33408
9367,33664
9368,33856
9369,33984
9370,33920
9371,33664
9372,33152
9373,32768
9374,32640
9375,32832
9376,33344
9377,33536
9378,33024
9379,32384
9380,32192
9381,32384
9382,32576
9383,32896
9384,33408
9385,33856
9386,33728
9387,33472
9388,33472
9389,33600
9390,33856
9391,33984
9392,33856
9393,33728
9394,33984
9395,34048
9396,33792
9397,33536
9398,33408
9399,33344
9400,33408
9401,33472
9402,33728
9403,34240
9404,34624
9405,34496
9406,34112
9407,34368
9408,34880
9409,34688
9410,33984
9411,33728
9412,33984
9413,34240
9414,34112
9415,34048
9416,34176
9417,34432
9418,34560
9419,34688
9420,34752
9421,34688
9422,34624
9423,34560
9424,34432
9425,33984
9426,33728
9427,33408
9428,33024
9429,32960
9430,32896
9431,32704
9432,32576
9433,32768
9434,33024
9435,33216
9436,33088
9437,32960
9438,33024
9439,33216
9440,33472
9441,33664
9442,33472
9443,33088
9444,33024
9445,33536
9446,34816
9447,37120
9448,40384
9449,43904
9450,46016
9451,46400
9452,45440
9453,42752
9454,38720
9455,34432
9456,30848
9457,28352
9458,27264
9459,27008
9460,27392
9461,28160
9462,29120
9463,30208
9464,31104
9465,31872
9466,32512
9467,33280
9468,33728
9469,33408
9470,33088
9471,33152
9472,33280
9473,33152
9474,33216
9475,33344
9476,33536
9477,33664
9478,33728
9479,33856
9480,33920
9481,34048
9482,34048
9483,34112
9484,34304
9485,34496
9486,34496
9487,34496
9488,34496
9489,34432
9490,34368
9491,34368
9492,34304
9493,34304
9494,34368
9495,34560
9496,34688
9497,34688
9498,34624
9499,34624
9500,34624
9501,34624
9502,34496
9503,34240
9504,33984
9505,33728
9506,33600
9507,33536
9508,33600
9509,33600
9510,33728
9511,33792
9512,33664
9513,33408
9514,33088
9515,32960
9516,33152
9517,33280
9518,33408
9519,33408
9520,33408
9521,33408
9522,33472
9523,33600
9524,33664
9525,33792
9526,33856
9527,33856
9528,33920
9529,33984
9530,34240
9531,34368
9532,34048
9533,33664
9534,33536
9535,33600
9536,33600
9537,33536
9538,33536
9539,33664
9540,33728
9541,33792
9542,33856
9543,33984
9544,34112
9545,34368
9546,34560
9547,34496
9548,34304
9549,34176
9550,34176
9551,34176
9552,34240
9553,34304
9554,34432
9555,34560
9556,34816
9557,34944
9558,35136
9559,35520
9560,35520
9561,35008
9562,35008
9563,35072
9564,34624
9565,33984
9566,33536
9567,33280
9568,33152
9569,33088
9570,33152
9571,33216
9572,33216
9573,33280
9574,33216
9575,33280
9576,33408
9577,33536
9578,33728
9579,33792
9580,33728
9581,33600
9582,33536
9583,33472
9584,33472
9585,33472
9586,33600
9587,34048
9588,35008
9589,36736
9590,39296
9591,42624
9592,45632
9593,47040
9594,46592
9595,44544
9596,41216
9597,37184
9598,33152
9599,30080
9600,28224
9601,27456
9602,27456
9603,27840
9604,28544
9605,29504
9606,30528
9607,31296
9608,31872
9609,32320
9610,32704
9611,32960
9612,33152
9613,33344
9614,33536
9615,33600
9616,33664
9617,33664
9618,33792
9619,33856
9620,33856
9621,33856
9622,33920
9623,33984
9624,34048
9625,33984
9626,33920
9627,33984
9628,33984
9629,33984
9630,33920
9631,34048
9632,34176
9633,34176
9634,34112
9635,34176
9636,34304
9637,34432
9638,34432
9639,34752
9640,35072
9641,34880
9642,34496
9643,34304
9644,34176
9645,34048
9646,33920
9647,33920
9648,33856
9649,33664
9650,33600
9651,33664
9652,33792
9653,33792
9654,33728
9655,33728
9656,33728
9657,33792
9658,33664
9659,33536
9660,33408
9661,33344
9662,33408
9663,33344
9664,33280
9665,33216
9666,33280
9667,33472
9668,33472
9669,33408
9670,33344
9671,33408
9672,33408
9673,33472
9674,33472
9675,33472
9676,33600
9677,33600
9678,33472
9679,33408
9680,33408
9681,33344
9682,33472
9683,33600
9684,33600
9685,33664
9686,33792
9687,33856
9688,33920
9689,33920
9690,33984
9691,34176
9692,34368
9693,34496
9694,34432
9695,34304
9696,34304
9697,34432
9698,34560
9699,34624
9700,34688
9701,34752
9702,34688
9703,34688
9704,34688
9705,34688
9706,34624
9707,34624
9708,34496
9709,34304
9710,34112
9711,33792
9712,33600
9713,33472
9714,33152
9715,32960
9716,32960
9717,32832
9718,32768
9719,32832
9720,32960
9721,33152
9722,33280
9723,33408
9724,33408
9725,33408
9726,33408
9727,33344
9728,33344
9729,33728
9730,34560
9731,36032
9732,38208
9733,41280
9734,44416
9735,46592
9736,46912
9737,45568
9738,42752
9739,39040
9740,35008
9741,31488
9742,28928
9743,27648
9744,27136
9745,27200
9746,27840
9747,28800
9748,29824
9749,30720
9750,31424
9751,31936
9752,32320
9753,32704
9754,32960
9755,33088
9756,33216
9757,33344
9758,33472
9759,33536
9760,33600
9761,33664
9762,33792
9763,33856
9764,33920
9765,33856
9766,33856
9767,33792
9768,33792
9769,33920
9770,33984
9771,34048
9772,34112
9773,34176
9774,34368
9775,34624
9776,34752
9777,34624
9778,34432
9779,34368
9780,34432
9781,34560
9782,34624
9783,34560
9784,34624
9785,34560
9786,34496
9787,34432
9788,34368
9789,34304
9790,34240
9791,34112
9792,34048
9793,34048
9794,33984
9795,33920
9796,33856
9797,33792
9798,33792
9799,33792
9800,33792
9801,33728
9802,33664
9803,33664
9804,33664
9805,33728
9806,33728
9807,33664
9808,33600
9809,33536
9810,33472
9811,33408
9812,33472
9813,33472
9814,33472
9815,33472
9816,33600
9817,33664
9818,33664
9819,33792
9820,33920
9821,33920
9822,33920
9823,33920
9824,34048
9825,34112
9826,34112
9827,34112
9828,34112
9829,34176
9830,34368
9831,34432
9832,34496
9833,34560
9834,34560
9835,34688
9836,34752
9837,34816
9838,34944
9839,34944
9840,34944
9841,35008
9842,35200
9843,35328
9844,35392
9845,35392
9846,35264
9847,34944
9848,34752
9849,34560
9850,34432
9851,34240
9852,33984
9853,33792
9854,33664
9855,33536
9856,33408
9857,33408
9858,33408
9859,33408
9860,33472
9861,33472
9862,33536
9863,33536
9864,33664
9865,33792
9866,33856
9867,33792
9868,33728
9869,33536
9870,33408
9871,33792
9872,34816
9873,36608
9874,39296
9875,42752
9876,45824
9877,47488
9878,47168
9879,45184
9880,41792
9881,37760
9882,33792
9883,30528
9884,28480
9885,27456
9886,27328
9887,27648
9888,28352
9889,29312
9890,30464
9891,31424
9892,32064
9893,32448
9894,32768
9895,32960
9896,33216
9897,33408
9898,33536
9899,33600
9900,33600
9901,33600
9902,33664
9903,33792
9904,33984
9905,34112
9906,34048
9907,33920
9908,33920
9909,34048
9910,34048
9911,33984
9912,33920
9913,33920
9914,33920
9915,33984
9916,34112
9917,34240
9918,34304
9919,34304
9920,34368
9921,34368
9922,34496
9923,34560
9924,34624
9925,34624
9926,34624
9927,34560
9928,34432
9929,34432
9930,34496
9931,34432
9932,34368
9933,34176
9934,33920
9935,33792
9936,33728
9937,33728
9938,33728
9939,33664
9940,33600
9941,33600
9942,33536
9943,33536
9944,33536
9945,33536
9946,33472
9947,33408
9948,33408
9949,33408
9950,33408
9951,33408
9952,33408
9953,33408
9954,33472
9955,33472
9956,33536
9957,33536
9958,33664
9959,33728
9960,33856
9961,33984
9962,33984
9963,34048
9964,34048
9965,34048
9966,33984
9967,33984
9968,34048
9969,34112
9970,34112
9971,34176
9972,34240
9973,34304
9974,34368
9975,34368
9976,34496
9977,34688
9978,34752
9979,34880
9980,35008
9981,34944
9982,34880
9983,34944
9984,35072
9985,35136
9986,35072
9987,35008
9988,35008
9989,35008
9990,34944
9991,34880
9992,34816
9993,34688
9994,34496
9995,34304
9996,34048
9997,33728
9998,33472
9999,33344
10000,33216
10001,33216
10002,33344
10003,33472
10004,33600
10005,33600
10006,33664
10007,33664
10008,33664
10009,33728
10010,33728
10011,33792
10012,33728
10013,33600
10014,33600
10015,33984
10016,34944
10017,36544
10018,38912
10019,42176
10020,45568
10021,47744
10022,47680
10023,45824
10024,42240
10025,37888
10026,33472
10027,29952
10028,27904
10029,26944
10030,26880
10031,27584
10032,28608
10033,29632
10034,30464
10035,31104
10036,31680
10037,32192
10038,32640
10039,32960
10040,33216
10041,33408
10042,33536
10043,33664
10044,33600
10045,33600
10046,33664
10047,33728
10048,33664
10049,33600
10050,33664
10051,33792
10052,33920
10053,33984
10054,34048
10055,34176
10056,34304
10057,34304
10058,34304
10059,34368
10060,34432
10061,34368
10062,34432
10063,34496
10064,34560
10065,34624
10066,34688
10067,34880
10068,35072
10069,35200
10070,35264
10071,35136
10072,34944
10073,34880
10074,34752
10075,34560
10076,34368
10077,34240
10078,34112
10079,34112
10080,34048
10081,33984
10082,33856
10083,33792
10084,33664
10085,33536
10086,33472
10087,33344
10088,33280
10089,33216
10090,33088
10091,33088
10092,33152
10093,33344
10094,33344
10095,33152
10096,32960
10097,32896
10098,32960
10099,33024
10100,33088
10101,33152
10102,33280
10103,33472
10104,33600
10105,33728
10106,33920
10107,33984
10108,33984
10109,33920
10110,33984
10111,34048
10112,34112
10113,34240
10114,34240
10115,34176
10116,34304
10117,34560
10118,34688
10119,34560
10120,34304
10121,34048
10122,33856
10123,33856
10124,33920
10125,34048
10126,34240
10127,34432
10128,34688
10129,34816
10130,34752
10131,34752
10132,34880
10133,34944
10134,35008
10135,35008
10136,35008
10137,34944
10138,34880
10139,34880
10140,34880
10141,34752
10142,34624
10143,34560
10144,34432
10145,34304
10146,34048
10147,33856
10148,33664
10149,33536
10150,33408
10151,33344
10152,33344
10153,33344
10154,33408
10155,33536
10156,33600
10157,33664
10158,33664
10159,33728
10160,33728
10161,33728
10162,33664
10163,33536
10164,33536
10165,33984
10166,34880
10167,36352
10168,38656
10169,41728
10170,45056
10171,47296
10172,47552
10173,45952
10174,42752
10175,38464
10176,33984
10177,30400
10178,28032
10179,26944
10180,26752
10181,27200
10182,28096
10183,29248
10184,30336
10185,31168
10186,31744
10187,32128
10188,32448
10189,32704
10190,33024
10191,33216
10192,33280
10193,33344
10194,33408
10195,33472
10196,33536
10197,33600
10198,33728
10199,33792
10200,33792
10201,33792
10202,33856
10203,33856
10204,33792
10205,33728
10206,33792
10207,33984
10208,34176
10209,34176
10210,34176
10211,34240
10212,34304
10213,34368
10214,34432
10215,34560
10216,34688
10217,34816
10218,34880
10219,34816
10220,34752
10221,34752
10222,34752
10223,34816
10224,34816
10225,34816
10226,34944
10227,34944
10228,34624
10229,34176
10230,33920
10231,33792
10232,33728
10233,33664
10234,33536
10235,33408
10236,33280
10237,33280
10238,33216
10239,33216
10240,33152
10241,33152
10242,33152
10243,33216
10244,33216
10245,33216
10246,33280
10247,33280
10248,33280
10249,33216
10250,33216
10251,33280
10252,33408
10253,33472
10254,33472
10255,33536
10256,33600
10257,33664
10258,33600
10259,33600
10260,33664
10261,33728
10262,33792
10263,33856
10264,33920
10265,33920
10266,33920
10267,33920
10268,33920
10269,33856
10270,33856
10271,33984
10272,34112
10273,34240
10274,34176
10275,34048
10276,33984
10277,33984
10278,33920
10279,33856
10280,33920
10281,33984
10282,33984
10283,34048
10284,34112
10285,34240
10286,34368
10287,34368
10288,34432
10289,34432
10290,34432
10291,34560
10292,34688
10293,34816
10294,35008
10295,35072
10296,35072
10297,35008
10298,34880
10299,34752
10300,34560
10301,34432
10302,34304
10303,34176
10304,33984
10305,33856
10306,33600
10307,33408
10308,33216
10309,33152
10310,33216
10311,33280
10312,33408
10313,33472
10314,33600
10315,33792
10316,33920
10317,33920
10318,33792
10319,33664
10320,33600
10321,33536
10322,33280
10323,33280
10324,33664
10325,34624
10326,36288
10327,38976
10328,41984
10329,44992
10330,46720
10331,46592
10332,44864
10333,41792
10334,37888
10335,33984
10336,30720
10337,28352
10338,27392
10339,27136
10340,27456
10341,28224
10342,29312
10343,30336
10344,31168
10345,31744
10346,32192
10347,32512
10348,32832
10349,33024
10350,33216
10351,33408
10352,33536
10353,33728
10354,33728
10355,33664
10356,33664
10357,33728
10358,33792
10359,33792
10360,33728
10361,33728
10362,33728
10363,33792
10364,33920
10365,33984
10366,33984
10367,34048
10368,34176
10369,34240
10370,34240
10371,34304
10372,34496
10373,34624
10374,34688
10375,34688
10376,34688
10377,34752
10378,34752
10379,34752
10380,34752
10381,34752
10382,34624
10383,34560
10384,34496
10385,34432
10386,34304
10387,34240
10388,34240
10389,34112
10390,34048
10391,33984
10392,33920
10393,33792
10394,33728
10395,33600
10396,33408
10397,33280
10398,33216
10399,33216
10400,33216
10401,33344
10402,33344
10403,33344
10404,33280
10405,33344
10406,33408
10407,33408
10408,33408
10409,33344
10410,33344
10411,33408
10412,33536
10413,33536
10414,33536
10415,33536
10416,33600
10417,33664
10418,33792
10419,33856
10420,33984
10421,34048
10422,34112
10423,34176
10424,34176
10425,34240
10426,34240
10427,34240
10428,34240
10429,34304
10430,34304
10431,34304
10432,34240
10433,34176
10434,34176
10435,34240
10436,34176
10437,34112
10438,34176
10439,34176
10440,34176
10441,34176
10442,34304
10443,34368
10444,34368
10445,34304
10446,34176
10447,34048
10448,34048
10449,34112
10450,34176
10451,34112
10452,34048
10453,33920
10454,33920
10455,33920
10456,33920
10457,34048
10458,34176
10459,34304
10460,34368
10461,34432
10462,34560
10463,34752
10464,34816
10465,34816
10466,34752
10467,34816
10468,34944
10469,35072
10470,35136
10471,35008
10472,34816
10473,34624
10474,34432
10475,34240
10476,33984
10477,33728
10478,33408
10479,33216
10480,33152
10481,33152
10482,33152
10483,33280
10484,33408
10485,33472
10486,33536
10487,33536
10488,33536
10489,33536
10490,33600
10491,33664
10492,33728
10493,33600
10494,33408
10495,33344
10496,33792
10497,34816
10498,36608
10499,39168
10500,42496
10501,45504
10502,47104
10503,46720
10504,44864
10505,41600
10506,37568
10507,33408
10508,30080
10509,27968
10510,26944
10511,26688
10512,27136
10513,27968
10514,29056
10515,30144
10516,31104
10517,31808
10518,32256
10519,32640
10520,32896
10521,33088
10522,33152
10523,33280
10524,33280
10525,33344
10526,33408
10527,33472
10528,33536
10529,33600
10530,33728
10531,33728
10532,33728
10533,33728
10534,33728
10535,33792
10536,33856
10537,33920
10538,33984
10539,33984
10540,34048
10541,34112
10542,34240
10543,34368
10544,34368
10545,34368
10546,34368
10547,34496
10548,34560
10549,34496
10550,34496
10551,34496
10552,34560
10553,34496
10554,34496
10555,34560
10556,34560
10557,34432
10558,34304
10559,34240
10560,34176
10561,34112
10562,34112
10563,33984
10564,33920
10565,33856
10566,33728
10567,33600
10568,33472
10569,33408
10570,33280
10571,33216
10572,33152
10573,33152
10574,33152
10575,33280
10576,33344
10577,33344
10578,33280
10579,33216
10580,33280
10581,33344
10582,33280
10583,33280
10584,33280
10585,33344
10586,33472
10587,33600
10588,33664
10589,33664
10590,33536
10591,33536
10592,33664
10593,33792
10594,33856
10595,33792
10596,33856
10597,33856
10598,33792
10599,33792
10600,33856
10601,33920
10602,33984
10603,33984
10604,33984
10605,34048
10606,34048
10607,34112
10608,34240
10609,34240
10610,34176
10611,34048
10612,33920
10613,33856
10614,33856
10615,33856
10616,33792
10617,33792
10618,33792
10619,33856
10620,33856
10621,33920
10622,33984
10623,33984
10624,33920
10625,33920
10626,33920
10627,33856
10628,33856
10629,33856
10630,33856
10631,33856
10632,33920
10633,33984
10634,33984
10635,34048
10636,34048
10637,33984
10638,33920
10639,33984
10640,34048
10641,34176
10642,34304
10643,34368
10644,34432
10645,34496
10646,34624
10647,34624
10648,34624
10649,34688
10650,34688
10651,34752
10652,34752
10653,34688
10654,34624
10655,34496
10656,34432
10657,34304
10658,33920
10659,33600
10660,33344
10661,33152
10662,33024
10663,33024
10664,33024
10665,33088
10666,33088
10667,33088
10668,33152
10669,33216
10670,33280
10671,33344
10672,33408
10673,33536
10674,33600
10675,33536
10676,33408
10677,33216
10678,33344
10679,33984
10680,35264
10681,37248
10682,40704
10683,43648
10684,46464
10685,47552
10686,46720
10687,44352
10688,40384
10689,36224
10690,32192
10691,29248
10692,27520
10693,26880
10694,26944
10695,27456
10696,28288
10697,29696
10698,30336
10699,31168
10700,31808
10701,32320
10702,32640
10703,32896
10704,33088
10705,33216
10706,33280
10707,33344
10708,33408
10709,33536
10710,33664
10711,33728
10712,33792
10713,33856
10714,33792
10715,33728
10716,33664
10717,33728
10718,33792
10719,33856
10720,33984
10721,34176
10722,34240
10723,34240
10724,34240
10725,34304
10726,34432
10727,34560
10728,34560
10729,34624
10730,34624
10731,34752
10732,34816
10733,34752
10734,34688
10735,34688
10736,34624
10737,34560
10738,34560
10739,34560
10740,34496
10741,34432
10742,34368
10743,34304
10744,34176
10745,34176
10746,34112
10747,34048
10748,33984
10749,33920
10750,33728
10751,33536
10752,33408
10753,33344
10754,33280
10755,33280
10756,33280
10757,33280
10758,33152
10759,33088
10760,33152
10761,33216
10762,33344
10763,33344
10764,33472
10765,33472
10766,33536
10767,33536
10768,33600
10769,33664
10770,33792
10771,33984
10772,34048
10773,33920
10774,33856
10775,33856
10776,33984
10777,34112
10778,34176
10779,34240
10780,34176
10781,34176
10782,34176
10783,34176
10784,34240
10785,34304
10786,34304
10787,34240
10788,34240
10789,34368
10790,34496
10791,34368
10792,34176
10793,34176
10794,34176
10795,34176
10796,34112
10797,34112
10798,34176
10799,34176
10800,34176
10801,34176
10802,34176
10803,34176
10804,34240
10805,34176
10806,34112
10807,34048
10808,34048
10809,34112
10810,34048
10811,34112
10812,34176
10813,34176
10814,34176
10815,34240
10816,34240
10817,34240
10818,34176
10819,34048
10820,34048
10821,34048
10822,34176
10823,34240
10824,34304
10825,34304
10826,34240
10827,34176
10828,34176
10829,34176
10830,34304
10831,34496
10832,34688
10833,34688
10834,34688
10835,34688
10836,34752
10837,34880
10838,35008
10839,35008
10840,35072
10841,35136
10842,35136
10843,35072
10844,35008
10845,34880
10846,34752
10847,34560
10848,34496
10849,34368
10850,34112
10851,33856
10852,33664
10853,33600
10854,33600
10855,33664
10856,33600
10857,33600
10858,33536
10859,33536
10860,33600
10861,33664
10862,33728
10863,33728
10864,33792
10865,33792
10866,33728
10867,33536
10868,33408
10869,33600
10870,34432
10871,35840
10872,38080
10873,41088
10874,44608
10875,47424
10876,48256
10877,47168
10878,44416
10879,40320
10880,35840
10881,31808
10882,28992
10883,27264
10884,26560
10885,26624
10886,27264
10887,28288
10888,29440
10889,30528
10890,31424
10891,32064
10892,32576
10893,32704
10894,32960
10895,33152
10896,33280
10897,33408
10898,33600
10899,33600
10900,33472
10901,33472
10902,33472
10903,33536
10904,33600
10905,33664
10906,33728
10907,33920
10908,33920
10909,33984
10910,34048
10911,34048
10912,34048
10913,34048
10914,34048
10915,34112
10916,34240
10917,34304
10918,34432
10919,34496
10920,34560
10921,34624
10922,34752
10923,34816
10924,34816
