,ECG
0,33536
1,33536
2,33536
3,33408
4,33344
5,33344
6,33344
7,33408
8,33472
9,33472
10,33600
11,33600
12,33600
13,33600
14,33664
15,33792
16,33920
17,33984
18,33920
19,33920
20,33856
21,33856
22,33984
23,34048
24,34112
25,34240
26,34304
27,34432
28,34560
29,34624
30,34688
31,34688
32,34752
33,34752
34,34752
35,34688
36,34752
37,34816
38,34880
39,34944
40,34880
41,34752
42,34624
43,34496
44,34304
45,34048
46,33728
47,33472
48,33344
49,33216
50,33216
51,33280
52,33408
53,33472
54,33472
55,33472
56,33536
57,33472
58,33472
59,33536
60,33600
61,33664
62,33664
63,33600
64,33472
65,33600
66,34176
67,35200
68,36992
69,39680
70,43264
71,46080
72,47552
73,46912
74,44544
75,40960
76,36800
77,32960
78,30144
79,28352
80,27584
81,27392
82,27776
83,28544
84,29504
85,30528
86,31232
87,31872
88,32384
89,32704
90,32896
91,33088
92,33216
93,33408
94,33536
95,33664
96,33792
97,33920
98,34048
99,34112
100,34112
101,34112
102,34176
103,34240
104,34368
105,34432
106,34432
107,34432
108,34496
109,34624
110,34688
111,34688
112,34752
113,34688
114,34688
115,34752
116,34816
117,34816
118,34816
119,34880
120,35008
121,35072
122,35072
123,35072
124,35008
125,34944
126,34880
127,34816
128,34752
129,34560
130,34496
131,34432
132,34368
133,34240
134,34112
135,34112
136,34048
137,33920
138,33792
139,33728
140,33664
141,33600
142,33536
143,33536
144,33536
145,33472
146,33344
147,33408
148,33472
149,33536
150,33600
151,33600
152,33600
153,33728
154,33856
155,33920
156,33792
157,33728
158,33728
159,33792
160,33856
161,33920
162,33984
163,34112
164,34176
165,34304
166,34368
167,34496
168,34560
169,34688
170,34688
171,34624
172,34688
173,34816
174,34944
175,34944
176,34944
177,35008
178,35072
179,35136
180,35136
181,35008
182,34880
183,34752
184,34560
185,34304
186,33984
187,33664
188,33408
189,33280
190,33280
191,33280
192,33344
193,33408
194,33408
195,33408
196,33408
197,33472
198,33536
199,33600
200,33728
201,33792
202,33728
203,33600
204,33472
205,33728
206,34368
207,35712
208,37632
209,40448
210,43968
211,47040
212,48192
213,47168
214,44416
215,40384
216,35840
217,31808
218,29056
219,27584
220,27072
221,27136
222,27776
223,28800
224,29760
225,30656
226,31360
227,31872
228,32320
229,32704
230,32960
231,33088
232,33152
233,33280
234,33408
235,33472
236,33536
237,33536
238,33600
239,33664
240,33728
241,33792
242,33856
243,33920
244,34048
245,34112
246,34048
247,34112
248,34176
249,34304
250,34304
251,34432
252,34496
253,34496
254,34496
255,34496
256,34496
257,34560
258,34624
259,34752
260,34880
261,34944
262,34880
263,34880
264,34880
265,34816
266,34752
267,34688
268,34560
269,34496
270,34432
271,34304
272,34176
273,34112
274,34048
275,33984
276,33792
277,33664
278,33536
279,33472
280,33472
281,33408
282,33344
283,33216
284,33152
285,33088
286,33088
287,33152
288,33216
289,33280
290,33344
291,33472
292,33472
293,33536
294,33600
295,33664
296,33792
297,33856
298,33792
299,33728
300,33728
301,33792
302,33792
303,33856
304,33920
305,34112
306,34240
307,34432
308,34560
309,34624
310,34688
311,34752
312,34880
313,34944
314,34880
315,34816
316,34816
317,34880
318,34880
319,34880
320,34880
321,34816
322,34688
323,34496
324,34240
325,33920
326,33728
327,33536
328,33280
329,33152
330,33088
331,33152
332,33280
333,33344
334,33472
335,33472
336,33536
337,33600
338,33664
339,33664
340,33728
341,33792
342,33728
343,33600
344,33664
345,34176
346,35328
347,37184
348,39936
349,43456
350,46592
351,48000
352,47424
353,45056
354,41280
355,36672
356,32768
357,29696
358,27968
359,27264
360,27264
361,27776
362,28672
363,29696
364,30592
365,31296
366,31872
367,32320
368,32704
369,32960
370,33088
371,33216
372,33344
373,33472
374,33600
375,33664
376,33792
377,33856
378,33920
379,34048
380,34112
381,34176
382,34176
383,34112
384,34176
385,34240
386,34304
387,34368
388,34496
389,34560
390,34624
391,34624
392,34624
393,34688
394,34816
395,34880
396,34880
397,34944
398,35008
399,35072
400,35072
401,35008
402,34944
403,34944
404,34944
405,34944
406,34880
407,34688
408,34560
409,34496
410,34368
411,34304
412,34240
413,34176
414,34112
415,33984
416,33856
417,33664
418,33600
419,33472
420,33344
421,33280
422,33216
423,33216
424,33216
425,33280
426,33280
427,33280
428,33344
429,33408
430,33472
431,33472
432,33536
433,33664
434,33664
435,33728
436,33728
437,33792
438,33792
439,33856
440,33856
441,33920
442,33920
443,33920
444,33984
445,34112
446,34240
447,34368
448,34496
449,34560
450,34624
451,34688
452,34880
453,34944
454,35072
455,35136
456,35136
457,35136
458,35136
459,35072
460,34944
461,34752
462,34560
463,34304
464,34048
465,33792
466,33536
467,33344
468,33280
469,33280
470,33216
471,33152
472,33216
473,33280
474,33344
475,33408
476,33536
477,33536
478,33536
479,33536
480,33536
481,33536
482,33472
483,33472
484,33856
485,34624
486,36032
487,38208
488,41280
489,44672
490,47232
491,47488
492,46016
493,43008
494,38912
495,34688
496,31040
497,28672
498,27392
499,27008
500,27328
501,28096
502,29056
503,30016
504,30784
505,31488
506,31936
507,32320
508,32576
509,32768
510,32896
511,33024
512,33088
513,33280
514,33408
515,33600
516,33664
517,33664
518,33728
519,33792
520,33856
521,33984
522,34048
523,34048
524,34112
525,34176
526,34176
527,34240
528,34304
529,34368
530,34368
531,34432
532,34432
533,34560
534,34688
535,34816
536,34816
537,34816
538,34880
539,34880
540,34944
541,35008
542,35008
543,34944
544,34816
545,34752
546,34624
547,34560
548,34432
549,34368
550,34240
551,34176
552,34112
553,33984
554,33856
555,33792
556,33664
557,33536
558,33408
559,33344
560,33344
561,33344
562,33344
563,33344
564,33344
565,33344
566,33344
567,33344
568,33344
569,33344
570,33344
571,33344
572,33408
573,33472
574,33536
575,33600
576,33728
577,33792
578,33856
579,33920
580,33984
581,34048
582,34112
583,34112
584,34176
585,34240
586,34240
587,34240
588,34368
589,34496
590,34560
591,34624
592,34688
593,34816
594,35008
595,35200
596,35200
597,35200
598,35136
599,35072
600,35072
601,35136
602,35072
603,34880
604,34688
605,34432
606,34048
607,33728
608,33472
609,33344
610,33280
611,33216
612,33216
613,33280
614,33280
615,33344
616,33472
617,33536
618,33600
619,33600
620,33536
621,33600
622,33600
623,33600
624,33536
625,33664
626,34176
627,35008
628,36672
629,39168
630,42432
631,45376
632,46912
633,46400
634,44416
635,41152
636,37248
637,33408
638,30400
639,28480
640,27520
641,27328
642,27776
643,28608
644,29632
645,30528
646,31296
647,31872
648,32320
649,32640
650,32896
651,33088
652,33216
653,33344
654,33472
655,33536
656,33536
657,33600
658,33664
659,33792
660,33856
661,33920
662,33984
663,34112
664,34176
665,34176
666,34240
667,34304
668,34432
669,34496
670,34560
671,34624
672,34688
673,34752
674,34816
675,34880
676,34944
677,35072
678,35136
679,35072
680,35008
681,34880
682,34816
683,34816
684,34880
685,35008
686,35008
687,34944
688,34944
689,34880
690,34816
691,34752
692,34688
693,34560
694,34432
695,34304
696,34176
697,33984
698,33792
699,33664
700,33536
701,33472
702,33408
703,33344
704,33344
705,33408
706,33408
707,33408
708,33408
709,33472
710,33600
711,33664
712,33728
713,33664
714,33664
715,33664
716,33664
717,33728
718,33792
719,33856
720,33920
721,33984
722,34048
723,34112
724,34176
725,34240
726,34304
727,34368
728,34432
729,34496
730,34560
731,34624
732,34624
733,34688
734,34752
735,34752
736,34752
737,34880
738,35072
739,35200
740,35264
741,35200
742,35136
743,35136
744,35200
745,35136
746,35008
747,34944
748,34752
749,34496
750,34240
751,33920
752,33664
753,33408
754,33280
755,33280
756,33344
757,33344
758,33344
759,33344
760,33280
761,33280
762,33344
763,33472
764,33600
765,33664
766,33664
767,33600
768,33536
769,33664
770,34240
771,35264
772,36992
773,39616
774,43072
775,46528
776,48448
777,47936
778,45504
779,41536
780,36864
781,32448
782,29184
783,27392
784,26752
785,26944
786,27712
787,28672
788,29632
789,30528
790,31232
791,31680
792,32064
793,32384
794,32640
795,32896
796,33152
797,33344
798,33472
799,33536
800,33600
801,33600
802,33664
803,33728
804,33856
805,33920
806,33920
807,33856
808,33856
809,33920
810,33984
811,34048
812,34112
813,34240
814,34368
815,34432
816,34496
817,34624
818,34688
819,34816
820,34880
821,34944
822,35008
823,35072
824,35136
825,35200
826,35200
827,35200
828,35136
829,35072
830,35072
831,35072
832,35008
833,35008
834,34944
835,34752
836,34560
837,34368
838,34176
839,33984
840,33856
841,33728
842,33600
843,33344
844,33152
845,33088
846,33088
847,33088
848,33024
849,32960
850,32960
851,33024
852,33088
853,33152
854,33216
855,33216
856,33280
857,33280
858,33344
859,33408
860,33472
861,33536
862,33600
863,33600
864,33536
865,33472
866,33472
867,33472
868,33536
869,33664
870,33728
871,33856
872,33856
873,33920
874,33984
875,34048
876,34176
877,34304
878,34368
879,34432
880,34496
881,34496
882,34496
883,34560
884,34688
885,34816
886,34816
887,34816
888,34752
889,34816
890,34880
891,34944
892,34880
893,34688
894,34496
895,34240
896,34048
897,33792
898,33536
899,33344
900,33216
901,33280
902,33344
903,33280
904,33280
905,33280
906,33280
907,33344
908,33472
909,33536
910,33536
911,33536
912,33600
913,33600
914,33600
915,33856
916,34432
917,35520
918,37376
919,40128
920,43520
921,46336
922,47360
923,46272
924,43584
925,39680
926,35200
927,31616
928,28928
929,27648
930,27200
931,27328
932,28032
933,28992
934,30080
935,30912
936,31552
937,32000
938,32320
939,32576
940,32832
941,33024
942,33152
943,33280
944,33344
945,33408
946,33408
947,33536
948,33664
949,33728
950,33792
951,33856
952,33920
953,34048
954,34048
955,34048
956,34112
957,34176
958,34240
959,34304
960,34304
961,34304
962,34368
963,34432
964,34496
965,34624
966,34688
967,34752
968,34880
969,35008
970,35200
971,35264
972,35264
973,35264
974,35200
975,35136
976,35136
977,35072
978,35008
979,35008
980,34880
981,34752
982,34560
983,34368
984,34176
985,33984
986,33792
987,33664
988,33536
989,33408
990,33344
991,33216
992,33152
993,33088
994,33088
995,33152
996,33216
997,33280
998,33344
999,33344
1000,33408
1001,33472
1002,33536
1003,33536
1004,33536
1005,33536
1006,33600
1007,33600
1008,33600
1009,33664
1010,33792
1011,33856
1012,33920
1013,33984
1014,34048
1015,34112
1016,34176
1017,34240
1018,34304
1019,34240
1020,34240
1021,34176
1022,34240
1023,34240
1024,34304
1025,34368
1026,34496
1027,34624
1028,34688
1029,34752
1030,34816
1031,34880
1032,34880
1033,34944
1034,35072
1035,35136
1036,35200
1037,35200
1038,35264
1039,35264
1040,35200
1041,35008
1042,34880
1043,34688
1044,34496
1045,34240
1046,33920
1047,33728
1048,33536
1049,33472
1050,33408
1051,33408
1052,33408
1053,33472
1054,33472
1055,33536
1056,33600
1057,33664
1058,33728
1059,33792
1060,33856
1061,33856
1062,33792
1063,33728
1064,33984
1065,34688
1066,35968
1067,38016
1068,41088
1069,44480
1070,46976
1071,47488
1072,45952
1073,42816
1074,38848
1075,34560
1076,30912
1077,28736
1078,27456
1079,27200
1080,27520
1081,28416
1082,29376
1083,30336
1084,31040
1085,31616
1086,32064
1087,32384
1088,32704
1089,33024
1090,33216
1091,33472
1092,33664
1093,33792
1094,33856
1095,33920
1096,33984
1097,34048
1098,34048
1099,34112
1100,34240
1101,34368
1102,34432
1103,34496
1104,34688
1105,34816
1106,34944
1107,34944
1108,35008
1109,35072
1110,35200
1111,35264
1112,35328
1113,35392
1114,35392
1115,35520
1116,35584
1117,35520
1118,35392
1119,35520
1120,35712
1121,35712
1122,35712
1123,35648
1124,35648
1125,35712
1126,35648
1127,35712
1128,35712
1129,35648
1130,35392
1131,35136
1132,34880
1133,34560
1134,34304
1135,34112
1136,33984
1137,33792
1138,33664
1139,33600
1140,33472
1141,33280
1142,33152
1143,33024
1144,33088
1145,33152
1146,33152
1147,33088
1148,33088
1149,33088
1150,33152
1151,33344
1152,33472
1153,33600
1154,33664
1155,33728
1156,33792
1157,33728
1158,33664
1159,33664
1160,33792
1161,33920
1162,33920
1163,34048
1164,34048
1165,33984
1166,33856
1167,33856
1168,33920
1169,33920
1170,34048
1171,34240
1172,34368
1173,34496
1174,34560
1175,34560
1176,34560
1177,34496
1178,34432
1179,34432
1180,34432
1181,34496
1182,34560
1183,34624
1184,34624
1185,34624
1186,34752
1187,34816
1188,34880
1189,35008
1190,34880
1191,34752
1192,34752
1193,34752
1194,34752
1195,34688
1196,34560
1197,34368
1198,34240
1199,34048
1200,33920
1201,33856
1202,33600
1203,33472
1204,33280
1205,33216
1206,33280
1207,33344
1208,33344
1209,33344
1210,33408
1211,33536
1212,33728
1213,33856
1214,33856
1215,33856
1216,33856
1217,33920
1218,34240
1219,34880
1220,36096
1221,38208
1222,41344
1223,44864
1224,47488
1225,48000
1226,46528
1227,43776
1228,39104
1229,35328
1230,31424
1231,28608
1232,26944
1233,26432
1234,26560
1235,27200
1236,28288
1237,29504
1238,30592
1239,31296
1240,32000
1241,32576
1242,32832
1243,33088
1244,33408
1245,33664
1246,33728
1247,33792
1248,33728
1249,33536
1250,33408
1251,33472
1252,33600
1253,33856
1254,34112
1255,34176
1256,34304
1257,34240
1258,34048
1259,33984
1260,34176
1261,34304
1262,34240
1263,34240
1264,34304
1265,34368
1266,34304
1267,34304
1268,34496
1269,34624
1270,34688
1271,34816
1272,34880
1273,35072
1274,35264
1275,35520
1276,35584
1277,35456
1278,35264
1279,35200
1280,35200
1281,35200
1282,35008
1283,34880
1284,34816
1285,34816
1286,34688
1287,34496
1288,34368
1289,34240
1290,33984
1291,33728
1292,33536
1293,33408
1294,33216
1295,32960
1296,32896
1297,33024
1298,33088
1299,32960
1300,32768
1301,32640
1302,32576
1303,32576
1304,32576
1305,32576
1306,32640
1307,32832
1308,33088
1309,33408
1310,33472
1311,33408
1312,33280
1313,33344
1314,33408
1315,33536
1316,33664
1317,33664
1318,33664
1319,33664
1320,33728
1321,33728
1322,33792
1323,33920
1324,34048
1325,34176
1326,34368
1327,34496
1328,34496
1329,34304
1330,34112
1331,34112
1332,33984
1333,33984
1334,33984
1335,33984
1336,34176
1337,34496
1338,34688
1339,34752
1340,34752
1341,34752
1342,34816
1343,34880
1344,34944
1345,34880
1346,34688
1347,34560
1348,34624
1349,34688
1350,34688
1351,34624
1352,34496
1353,34560
1354,34368
1355,33984
1356,33600
1357,33280
1358,33024
1359,32960
1360,32960
1361,33024
1362,33152
1363,33216
1364,33216
1365,33088
1366,33024
1367,32960
1368,33024
1369,33216
1370,33344
1371,33536
1372,33856
1373,34368
1374,35200
1375,36224
1376,37824
1377,40320
1378,43776
1379,47232
1380,49024
1381,48576
1382,46400
1383,42944
1384,38848
1385,34880
1386,31680
1387,29888
1388,29312
1389,29632
1390,30464
1391,31680
1392,32768
1393,33920
1394,34304
1395,34752
1396,35200
1397,35456
1398,35648
1399,35648
1400,35776
1401,35904
1402,36160
1403,36352
1404,36544
1405,36672
1406,36736
1407,36800
1408,36864
1409,36864
1410,36864
1411,36928
1412,36928
1413,36928
1414,36992
1415,36992
1416,36992
1417,36928
1418,36928
1419,36928
1420,36928
1421,36928
1422,36992
1423,37120
1424,37120
1425,36992
1426,36992
1427,36864
1428,36800
1429,36736
1430,36800
1431,36928
1432,37056
1433,36992
1434,36992
1435,37056
1436,37056
1437,36864
1438,36800
1439,36736
1440,36672
1441,36480
1442,36352
1443,36160
1444,35904
1445,35776
1446,35648
1447,35520
1448,35456
1449,35392
1450,35328
1451,35136
1452,35008
1453,35072
1454,35072
1455,35072
1456,35136
1457,35264
1458,35392
1459,35456
1460,35520
1461,35584
1462,35584
1463,35648
1464,35648
1465,35648
1466,35648
1467,35776
1468,35968
1469,35968
1470,35904
1471,35904
1472,35904
1473,35904
1474,35968
1475,36096
1476,36160
1477,36160
1478,36160
1479,36224
1480,36288
1481,36288
1482,36288
1483,36288
1484,36288
1485,36352
1486,36288
1487,36160
1488,36160
1489,36160
1490,36224
1491,36224
1492,36224
1493,36352
1494,36416
1495,36352
1496,36352
1497,36352
1498,36416
1499,36480
1500,36544
1501,36544
1502,36480
1503,36416
1504,36352
1505,36160
1506,35904
1507,35712
1508,35456
1509,35328
1510,35072
1511,34816
1512,34624
1513,34432
1514,34240
1515,34176
1516,34240
1517,34304
1518,34432
1519,34496
1520,34624
1521,34624
1522,34560
1523,34624
1524,34624
1525,34688
1526,34752
1527,34816
1528,35008
1529,35648
1530,36992
1531,39232
1532,42112
1533,45504
1534,48128
1535,48576
1536,47040
1537,43968
1538,39744
1539,35392
1540,31744
1541,29248
1542,28160
1543,27904
1544,28288
1545,29312
1546,30272
1547,31040
1548,31680
1549,32192
1550,32640
1551,33024
1552,33344
1553,33536
1554,33728
1555,33792
1556,33856
1557,33984
1558,34112
1559,34240
1560,34368
1561,34432
1562,34496
1563,34560
1564,34560
1565,34624
1566,34688
1567,34688
1568,34752
1569,34816
1570,34816
1571,34880
1572,34880
1573,34944
1574,34944
1575,34944
1576,35008
1577,35072
1578,35072
1579,35008
1580,35008
1581,35136
1582,35200
1583,35328
1584,35328
1585,35264
1586,35200
1587,35136
1588,35072
1589,35008
1590,34944
1591,34816
1592,34688
1593,34560
1594,34496
1595,34432
1596,34368
1597,34240
1598,34112
1599,33984
1600,33920
1601,33856
1602,33728
1603,33664
1604,33536
1605,33472
1606,33408
1607,33408
1608,33344
1609,33344
1610,33344
1611,33280
1612,33344
1613,33408
1614,33536
1615,33600
1616,33664
1617,33728
1618,33664
1619,33792
1620,33920
1621,33984
1622,33984
1623,33984
1624,33984
1625,34048
1626,34048
1627,34048
1628,34048
1629,34048
1630,34112
1631,34112
1632,34112
1633,34112
1634,34176
1635,34176
1636,34176
1637,34240
1638,34240
1639,34240
1640,34240
1641,34176
1642,34240
1643,34368
1644,34496
1645,34688
1646,34688
1647,34688
1648,34688
1649,34752
1650,34880
1651,35008
1652,35136
1653,35264
1654,35328
1655,35328
1656,35328
1657,35200
1658,35072
1659,34880
1660,34624
1661,34368
1662,33984
1663,33920
1664,33792
1665,33472
1666,33408
1667,33344
1668,33280
1669,33344
1670,33408
1671,33536
1672,33600
1673,33664
1674,33728
1675,33792
1676,33792
1677,33856
1678,33792
1679,33728
1680,33792
1681,34240
1682,35136
1683,36800
1684,39360
1685,42688
1686,45952
1687,47808
1688,47680
1689,45696
1690,42176
1691,37888
1692,33856
1693,30656
1694,28672
1695,27712
1696,27520
1697,27968
1698,28800
1699,29760
1700,30656
1701,31360
1702,31872
1703,32256
1704,32640
1705,32896
1706,33088
1707,33280
1708,33216
1709,33536
1710,33664
1711,33792
1712,33856
1713,33920
1714,33984
1715,34112
1716,34176
1717,34240
1718,34304
1719,34368
1720,34432
1721,34496
1722,34560
1723,34624
1724,34688
1725,34752
1726,34752
1727,34816
1728,34880
1729,35008
1730,35072
1731,35136
1732,35200
1733,35200
1734,35264
1735,35264
1736,35200
1737,35008
1738,34944
1739,34880
1740,34880
1741,34944
1742,35008
1743,35072
1744,35008
1745,35008
1746,34944
1747,34880
1748,34816
1749,34688
1750,34624
1751,34560
1752,34368
1753,34240
1754,34176
1755,34048
1756,33984
1757,33920
1758,33856
1759,33728
1760,33664
1761,33536
1762,33536
1763,33472
1764,33472
1765,33472
1766,33536
1767,33536
1768,33472
1769,33664
1770,33728
1771,33856
1772,33920
1773,33984
1774,34048
1775,34112
1776,34176
1777,34176
1778,34240
1779,34304
1780,34304
1781,34368
1782,34432
1783,34432
1784,34432
1785,34432
1786,34432
1787,34496
1788,34496
1789,34496
1790,34560
1791,34624
1792,34688
1793,34752
1794,34880
1795,35008
1796,35008
1797,35008
1798,35008
1799,35136
1800,35200
1801,35328
1802,35328
1803,35392
1804,35456
1805,35520
1806,35456
1807,35328
1808,35200
1809,35008
1810,34816
1811,34624
1812,34240
1813,34112
1814,33856
1815,33728
1816,33728
1817,33728
1818,33728
1819,33728
1820,33728
1821,33792
1822,33856
1823,33920
1824,33984
1825,34048
1826,34048
1827,33984
1828,33920
1829,33728
1830,33728
1831,34112
1832,35072
1833,36736
1834,39296
1835,42752
1836,46208
1837,48320
1838,48448
1839,46720
1840,43456
1841,39296
1842,34880
1843,31488
1844,29120
1845,27840
1846,27456
1847,27712
1848,28480
1849,29440
1850,30400
1851,31168
1852,31744
1853,32256
1854,32640
1855,32960
1856,33152
1857,33472
1858,33408
1859,33664
1860,33792
1861,33920
1862,34048
1863,34112
1864,34176
1865,34240
1866,34304
1867,34304
1868,34368
1869,34432
1870,34432
1871,34496
1872,34560
1873,34496
1874,34688
1875,34752
1876,34752
1877,34752
1878,34816
1879,34944
1880,35008
1881,35072
1882,35136
1883,35200
1884,35264
1885,35328
1886,35264
1887,35328
1888,35264
1889,35328
1890,35264
1891,35200
1892,35136
1893,35072
1894,35008
1895,34944
1896,34816
1897,34752
1898,34688
1899,34560
1900,34432
1901,34304
1902,34176
1903,34048
1904,33984
1905,33856
1906,33792
1907,33728
1908,33664
1909,33600
1910,33536
1911,33536
1912,33536
1913,33536
1914,33536
1915,33600
1916,33664
1917,33728
1918,33728
1919,33856
1920,33920
1921,33920
1922,33984
1923,34048
1924,34112
1925,34176
1926,34240
1927,34304
1928,34368
1929,34432
1930,34432
1931,34432
1932,34496
1933,34432
1934,34496
1935,34496
1936,34560
1937,34624
1938,34688
1939,34816
1940,34944
1941,35008
1942,35008
1943,35072
1944,35072
1945,35136
1946,35264
1947,35328
1948,35328
1949,35328
1950,35328
1951,35392
1952,35392
1953,35392
1954,35328
1955,35136
1956,35008
1957,34880
1958,34688
1959,34368
1960,34048
1961,33856
1962,33728
1963,33664
1964,33664
1965,33728
1966,33728
1967,33792
1968,33856
1969,33920
1970,33984
1971,33984
1972,34048
1973,34048
1974,33984
1975,33920
1976,33792
1977,34112
1978,34112
1979,35520
1980,37376
1981,40256
1982,43776
1983,47040
1984,48704
1985,48320
1986,46208
1987,42560
1988,38144
1989,33920
1990,30592
1991,28544
1992,27520
1993,27328
1994,27712
1995,28544
1996,29568
1997,30464
1998,31168
1999,31744
2000,32192
2001,32448
2002,32704
2003,32960
2004,33088
2005,33216
2006,33344
2007,33472
2008,33536
2009,33664
2010,33728
2011,33792
2012,33856
2013,33920
2014,33984
2015,34048
2016,34112
2017,34176
2018,34240
2019,34304
2020,34368
2021,34432
2022,34432
2023,34496
2024,34560
2025,34624
2026,34688
2027,34752
2028,34880
2029,34944
2030,35008
2031,35072
2032,35136
2033,35200
2034,35200
2035,35200
2036,35200
2037,35264
2038,35200
2039,35136
2040,35072
2041,34944
2042,34880
2043,34752
2044,34688
2045,34560
2046,34432
2047,34304
2048,34176
2049,34048
2050,33920
2051,33856
2052,33792
2053,33728
2054,33600
2055,33600
2056,33536
2057,33600
2058,33600
2059,33600
2060,33664
2061,33664
2062,33728
2063,33792
2064,33856
2065,33920
2066,33984
2067,34048
2068,34112
2069,34176
2070,34240
2071,34240
2072,34304
2073,34368
2074,34432
2075,34496
2076,34496
2077,34496
2078,34496
2079,34560
2080,34624
2081,34624
2082,34752
2083,34880
2084,34944
2085,35072
2086,35072
2087,35136
2088,35200
2089,35328
2090,35456
2091,35520
2092,35520
2093,35520
2094,35584
2095,35712
2096,35712
2097,35584
2098,35456
2099,35264
2100,35072
2101,34880
2102,34688
2103,34368
2104,34112
2105,33856
2106,33792
2107,33792
2108,33792
2109,33856
2110,33856
2111,33984
2112,34048
2113,34112
2114,34112
2115,34176
2116,34176
2117,34176
2118,34112
2119,33920
2120,33792
2121,33920
2122,34688
2123,36096
2124,38336
2125,41792
2126,45184
2127,48128
2128,49216
2129,48320
2130,45632
2131,41600
2132,37120
2133,33152
2134,30144
2135,28288
2136,27520
2137,27456
2138,28032
2139,28928
2140,29888
2141,30720
2142,31424
2143,31936
2144,32384
2145,32704
2146,32960
2147,33216
2148,33344
2149,33472
2150,33664
2151,33792
2152,33856
2153,33920
2154,33984
2155,34048
2156,34112
2157,34240
2158,34304
2159,34368
2160,34368
2161,34432
2162,34432
2163,34496
2164,34560
2165,34624
2166,34688
2167,34752
2168,34816
2169,34880
2170,34944
2171,35008
2172,35072
2173,35136
2174,35200
2175,35200
2176,35328
2177,35328
2178,35392
2179,35392
2180,35328
2181,35328
2182,35264
2183,35200
2184,35072
2185,35008
2186,34880
2187,34816
2188,34688
2189,34560
2190,34432
2191,34368
2192,34240
2193,34176
2194,34048
2195,33920
2196,33856
2197,33792
2198,33728
2199,33728
2200,33664
2201,33664
2202,33664
2203,33664
2204,33728
2205,33728
2206,33792
2207,33856
2208,33856
2209,33856
2210,33920
2211,33984
2212,33984
2213,34048
2214,34112
2215,34176
2216,34240
2217,34304
2218,34368
2219,34368
2220,34368
2221,34368
2222,34368
2223,34432
2224,34432
2225,34432
2226,34496
2227,34560
2228,34688
2229,34816
2230,35008
2231,35072
2232,35072
2233,35072
2234,35136
2235,35264
2236,35392
2237,35456
2238,35456
2239,35456
2240,35456
2241,35520
2242,35584
2243,35520
2244,35328
2245,35136
2246,34944
2247,34688
2248,34432
2249,34112
2250,33856
2251,33664
2252,33664
2253,33664
2254,33664
2255,33728
2256,33792
2257,33856
2258,33920
2259,33984
2260,33984
2261,34048
2262,34048
2263,34048
2264,33984
2265,33728
2266,33664
2267,33984
2268,34816
2269,36416
2270,38912
2271,42304
2272,45888
2273,48384
2274,48960
2275,47616
2276,44480
2277,40192
2278,35648
2279,32000
2280,29376
2281,27968
2282,27392
2283,27584
2284,28352
2285,29312
2286,30272
2287,31040
2288,31616
2289,32064
2290,32448
2291,32768
2292,33024
2293,33216
2294,33344
2295,33472
2296,33600
2297,33664
2298,33728
2299,33856
2300,33920
2301,33984
2302,34048
2303,34112
2304,34176
2305,34304
2306,34368
2307,34432
2308,34496
2309,34496
2310,34560
2311,34624
2312,34688
2313,34688
2314,34752
2315,34816
2316,34880
2317,34944
2318,35008
2319,35072
2320,35136
2321,35200
2322,35200
2323,35264
2324,35264
2325,35328
2326,35264
2327,35264
2328,35200
2329,35072
2330,35008
2331,34944
2332,34880
2333,34816
2334,34688
2335,34624
2336,34496
2337,34368
2338,34240
2339,34112
2340,33984
2341,33856
2342,33728
2343,33664
2344,33600
2345,33536
2346,33536
2347,33536
2348,33600
2349,33600
2350,33664
2351,33664
2352,33728
2353,33792
2354,33792
2355,33856
2356,33856
2357,33920
2358,33984
2359,34048
2360,34048
2361,34112
2362,34176
2363,34240
2364,34304
2365,34304
2366,34304
2367,34304
2368,34304
2369,34368
2370,34368
2371,34368
2372,34368
2373,34432
2374,34432
2375,34496
2376,34560
2377,34624
2378,34752
2379,34944
2380,35008
2381,35008
2382,35008
2383,35072
2384,35200
2385,35264
2386,35328
2387,35328
2388,35328
2389,35328
2390,35328
2391,35264
2392,35200
2393,35008
2394,34816
2395,34688
2396,34496
2397,34176
2398,33920
2399,33664
2400,33536
2401,33536
2402,33536
2403,33600
2404,33664
2405,33728
2406,33792
2407,33792
2408,33856
2409,33856
2410,33920
2411,33984
2412,33984
2413,33920
2414,33792
2415,33856
2416,34304
2417,35264
2418,36928
2419,39488
2420,42944
2421,46400
2422,48448
2423,48384
2424,46400
2425,42432
2426,38272
2427,33984
2428,30592
2429,28544
2430,27520
2431,27392
2432,27904
2433,28864
2434,29888
2435,30720
2436,31360
2437,31872
2438,32256
2439,32576
2440,32832
2441,33024
2442,33152
2443,33280
2444,33408
2445,33536
2446,33600
2447,33664
2448,33792
2449,33920
2450,33920
2451,33984
2452,34048
2453,34112
2454,34176
2455,34176
2456,34240
2457,34304
2458,34432
2459,34432
2460,34496
2461,34560
2462,34688
2463,34752
2464,34752
2465,34880
2466,34880
2467,34944
2468,34944
2469,35008
2470,35008
2471,35008
2472,35072
2473,35072
2474,35072
2475,35072
2476,35008
2477,35008
2478,34944
2479,34880
2480,34880
2481,34816
2482,34752
2483,34624
2484,34496
2485,34432
2486,34304
2487,34176
2488,34048
2489,33856
2490,33728
2491,33600
2492,33536
2493,33472
2494,33472
2495,33408
2496,33408
2497,33472
2498,33472
2499,33536
2500,33536
2501,33600
2502,33664
2503,33664
2504,33728
2505,33728
2506,33792
2507,33856
2508,33920
2509,33920
2510,33984
2511,33984
2512,34048
2513,34048
2514,34112
2515,34176
2516,34176
2517,34176
2518,34240
2519,34240
2520,34240
2521,34240
2522,34240
2523,34304
2524,34368
2525,34304
2526,34304
2527,34304
2528,34368
2529,34368
2530,34432
2531,34496
2532,34624
2533,34752
2534,34816
2535,34880
2536,34816
2537,34880
2538,35008
2539,35072
2540,35200
2541,35264
2542,35328
2543,35328
2544,35328
2545,35264
2546,35136
2547,34944
2548,34752
2549,34560
2550,34304
2551,34048
2552,33792
2553,33600
2554,33472
2555,33472
2556,33472
2557,33472
2558,33600
2559,33664
2560,33664
2561,33728
2562,33728
2563,33792
2564,33792
2565,33856
2566,33856
2567,33792
2568,33600
2569,33664
2570,34048
2571,34944
2572,36608
2573,39168
2574,42624
2575,46016
2576,48128
2577,48256
2578,46528
2579,43200
2580,38848
2581,34496
2582,30976
2583,28672
2584,27456
2585,27200
2586,27584
2587,28480
2588,29440
2589,30400
2590,31104
2591,31744
2592,32128
2593,32448
2594,32768
2595,32960
2596,33088
2597,33216
2598,33408
2599,33536
2600,33664
2601,33728
2602,33792
2603,33856
2604,33920
2605,33920
2606,33984
2607,34048
2608,34112
2609,34176
2610,34304
2611,34304
2612,34368
2613,34432
2614,34496
2615,34560
2616,34560
2617,34560
2618,34624
2619,34688
2620,34752
2621,34816
2622,34880
2623,34944
2624,34944
2625,35008
2626,35008
2627,35008
2628,35008
2629,34944
2630,34944
2631,34880
2632,34816
2633,34752
2634,34688
2635,34560
2636,34496
2637,34432
2638,34304
2639,34240
2640,34176
2641,34048
2642,33984
2643,33920
2644,33856
2645,33792
2646,33664
2647,33600
2648,33536
2649,33472
2650,33472
2651,33536
2652,33536
2653,33600
2654,33536
2655,33536
2656,33536
2657,33600
2658,33600
2659,33664
2660,33792
2661,33856
2662,33920
2663,33984
2664,34048
2665,34112
2666,34176
2667,34176
2668,34240
2669,34240
2670,34240
2671,34304
2672,34304
2673,34304
2674,34368
2675,34368
2676,34368
2677,34368
2678,34432
2679,34432
2680,34368
2681,34368
2682,34368
2683,34368
2684,34432
2685,34432
2686,34432
2687,34432
2688,34432
2689,34368
2690,34304
2691,34304
2692,34304
2693,34368
2694,34496
2695,34624
2696,34752
2697,34752
2698,34816
2699,34816
2700,34880
2701,35008
2702,35136
2703,35200
2704,35328
2705,35392
2706,35392
2707,35392
2708,35328
2709,35136
2710,34944
2711,34752
2712,34496
2713,34240
2714,33984
2715,33728
2716,33600
2717,33536
2718,33536
2719,33600
2720,33600
2721,33600
2722,33600
2723,33664
2724,33728
2725,33728
2726,33728
2727,33728
2728,33728
2729,33664
2730,33600
2731,33472
2732,33664
2733,34304
2734,35520
2735,37504
2736,40384
2737,43968
2738,47104
2739,48512
2740,47872
2741,45440
2742,41536
2743,37120
2744,33024
2745,30016
2746,28224
2747,27456
2748,27456
2749,28096
2750,29056
2751,30016
2752,30784
2753,31424
2754,31936
2755,32320
2756,32640
2757,32832
2758,33088
2759,33216
2760,33344
2761,33472
2762,33536
2763,33664
2764,33728
2765,33792
2766,33792
2767,33856
2768,33920
2769,33984
2770,34112
2771,34176
2772,34176
2773,34240
2774,34304
2775,34368
2776,34432
2777,34496
2778,34496
2779,34496
2780,34560
2781,34624
2782,34688
2783,34752
2784,34816
2785,34880
2786,34880
2787,34880
2788,34880
2789,34880
2790,34880
2791,34880
2792,34816
2793,34752
2794,34752
2795,34688
2796,34624
2797,34496
2798,34432
2799,34368
2800,34304
2801,34176
2802,34112
2803,34048
2804,33984
2805,33920
2806,33856
2807,33728
2808,33664
2809,33664
2810,33600
2811,33600
2812,33600
2813,33536
2814,33472
2815,33472
2816,33472
2817,33472
2818,33600
2819,33664
2820,33728
2821,33792
2822,33792
2823,33856
2824,33920
2825,33920
2826,33920
2827,33984
2828,33984
2829,34048
2830,34112
2831,34112
2832,34112
2833,34176
2834,34176
2835,34176
2836,34240
2837,34240
2838,34240
2839,34304
2840,34304
2841,34304
2842,34304
2843,34304
2844,34304
2845,34240
2846,34240
2847,34240
2848,34240
2849,34240
2850,34240
2851,34240
2852,34176
2853,34176
2854,34176
2855,34176
2856,34240
2857,34240
2858,34368
2859,34432
2860,34560
2861,34560
2862,34624
2863,34688
2864,34816
2865,34944
2866,35072
2867,35136
2868,35264
2869,35328
2870,35264
2871,35264
2872,35136
2873,35008
2874,34752
2875,34560
2876,34240
2877,33984
2878,33728
2879,33536
2880,33408
2881,33408
2882,33408
2883,33408
2884,33472
2885,33472
2886,33536
2887,33600
2888,33600
2889,33664
2890,33728
2891,33728
2892,33728
2893,33664
2894,33536
2895,33536
2896,33792
2897,34496
2898,35904
2899,38144
2900,41344
2901,44864
2902,47360
2903,48064
2904,46912
2905,44096
2906,39872
2907,35648
2908,31616
2909,29184
2910,27712
2911,27136
2912,27328
2913,28032
2914,28992
2915,29888
2916,30656
2917,31296
2918,31808
2919,32128
2920,32448
2921,32704
2922,32896
2923,33024
2924,33152
2925,33280
2926,33408
2927,33472
2928,33536
2929,33600
2930,33664
2931,33728
2932,33856
2933,33920
2934,33920
2935,34048
2936,34112
2937,34112
2938,34176
2939,34240
2940,34304
2941,34304
2942,34368
2943,34368
2944,34432
2945,34496
2946,34560
2947,34624
2948,34688
2949,34752
2950,34816
2951,34816
2952,34816
2953,34816
2954,34816
2955,34752
2956,34688
2957,34624
2958,34560
2959,34432
2960,34368
2961,34304
2962,34240
2963,34176
2964,34112
2965,34048
2966,33984
2967,33920
2968,33856
2969,33792
2970,33728
2971,33664
2972,33600
2973,33600
2974,33536
2975,33536
2976,33472
2977,33472
2978,33472
2979,33408
2980,33344
2981,33408
2982,33408
2983,33472
2984,33536
2985,33600
2986,33728
2987,33792
2988,33856
2989,33920
2990,33984
2991,34048
2992,34112
2993,34176
2994,34176
2995,34240
2996,34176
2997,34176
2998,34176
2999,34176
3000,34176
3001,34240
3002,34304
3003,34304
3004,34304
3005,34304
3006,34304
3007,34304
3008,34240
3009,34240
3010,34240
3011,34240
3012,34176
3013,34176
3014,34112
3015,34112
3016,34112
3017,34112
3018,34112
3019,34176
3020,34240
3021,34368
3022,34496
3023,34560
3024,34560
3025,34560
3026,34688
3027,34816
3028,34944
3029,35008
3030,35136
3031,35264
3032,35328
3033,35328
3034,35264
3035,35136
3036,34944
3037,34688
3038,34432
3039,34176
3040,33856
3041,33664
3042,33536
3043,33472
3044,33408
3045,33408
3046,33408
3047,33472
3048,33536
3049,33600
3050,33664
3051,33728
3052,33792
3053,33792
3054,33792
3055,33728
3056,33600
3057,33408
3058,33344
3059,33664
3060,34560
3061,36224
3062,38848
3063,42304
3064,45696
3065,47872
3066,48128
3067,46592
3068,43392
3069,39232
3070,35008
3071,31296
3072,29056
3073,27648
3074,27264
3075,27456
3076,28160
3077,29120
3078,30016
3079,30848
3080,31488
3081,31936
3082,32320
3083,32640
3084,32896
3085,33088
3086,33280
3087,33344
3088,33472
3089,33536
3090,33600
3091,33728
3092,33792
3093,33856
3094,33920
3095,33984
3096,34048
3097,34048
3098,34112
3099,34176
3100,34240
3101,34304
3102,34368
3103,34432
3104,34432
3105,34496
3106,34560
3107,34624
3108,34688
3109,34752
3110,34816
3111,34880
3112,34880
3113,34880
3114,34880
3115,34880
3116,34880
3117,34816
3118,34816
3119,34752
3120,34688
3121,34560
3122,34496
3123,34432
3124,34368
3125,34304
3126,34304
3127,34304
3128,34240
3129,34176
3130,34112
3131,34048
3132,33984
3133,33920
3134,33856
3135,33856
3136,33792
3137,33728
3138,33664
3139,33664
3140,33600
3141,33600
3142,33600
3143,33664
3144,33664
3145,33728
3146,33792
3147,33856
3148,33920
3149,33984
3150,33984
3151,34048
3152,34112
3153,34176
3154,34176
3155,34240
3156,34240
3157,34240
3158,34176
3159,34240
3160,34304
3161,34368
3162,34368
3163,34432
3164,34432
3165,34432
3166,34432
3167,34432
3168,34432
3169,34368
3170,34368
3171,34304
3172,34304
3173,34304
3174,34304
3175,34240
3176,34240
3177,34240
3178,34240
3179,34240
3180,34304
3181,34368
3182,34496
3183,34560
3184,34624
3185,34624
3186,34624
3187,34752
3188,34880
3189,35008
3190,35072
3191,35136
3192,35200
3193,35200
3194,35200
3195,35136
3196,35008
3197,34816
3198,34624
3199,34368
3200,34112
3201,33856
3202,33664
3203,33472
3204,33408
3205,33344
3206,33344
3207,33408
3208,33472
3209,33472
3210,33472
3211,33536
3212,33600
3213,33664
3214,33664
3215,33664
3216,33664
3217,33536
3218,33344
3219,33280
3220,33536
3221,34496
3222,36032
3223,39040
3224,42048
3225,45440
3226,47872
3227,48384
3228,47040
3229,43968
3230,39872
3231,35456
3232,31808
3233,29184
3234,27776
3235,27200
3236,27456
3237,28096
3238,29184
3239,29888
3240,30656
3241,31296
3242,31808
3243,32192
3244,32448
3245,32704
3246,32960
3247,33088
3248,33280
3249,33344
3250,33472
3251,33536
3252,33536
3253,33600
3254,33664
3255,33728
3256,33792
3257,33920
3258,33920
3259,33984
3260,34048
3261,34112
3262,34176
3263,34304
3264,34304
3265,34368
3266,34432
3267,34496
3268,34496
3269,34560
3270,34560
3271,34624
3272,34688
3273,34752
3274,34816
3275,34880
3276,34880
3277,34880
3278,34816
3279,34752
3280,34688
3281,34688
3282,34624
3283,34560
3284,34496
3285,34432
3286,34304
3287,34240
3288,34176
3289,34112
3290,33984
3291,33920
3292,33792
3293,33792
3294,33728
3295,33664
3296,33600
3297,33536
3298,33536
3299,33472
3300,33536
3301,33536
3302,33536
3303,33536
3304,33536
3305,33600
3306,33600
3307,33664
3308,33664
3309,33728
3310,33728
3311,33792
3312,33856
3313,33920
3314,33984
3315,34048
3316,34048
3317,34112
3318,34112
3319,34176
3320,34176
3321,34240
3322,34240
3323,34304
3324,34304
3325,34304
3326,34368
3327,34304
3328,34368
3329,34304
3330,34304
3331,34304
3332,34368
3333,34304
3334,34304
3335,34304
3336,34304
3337,34304
3338,34304
3339,34432
3340,34560
3341,34624
3342,34688
3343,34688
3344,34688
3345,34752
3346,34880
3347,35008
3348,35072
3349,35136
3350,35264
3351,35392
3352,35392
3353,35392
3354,35200
3355,35008
3356,34688
3357,34432
3358,34112
3359,33856
3360,33664
3361,33536
3362,33472
3363,33408
3364,33472
3365,33472
3366,33472
3367,33536
3368,33600
3369,33600
3370,33600
3371,33664
3372,33728
3373,33792
3374,33792
3375,33728
3376,33536
3377,33408
3378,33664
3379,34432
3380,35904
3381,38272
3382,41600
3383,45120
3384,47744
3385,48512
3386,47296
3387,44288
3388,40064
3389,35648
3390,31872
3391,29184
3392,27648
3393,27136
3394,27264
3395,27968
3396,28928
3397,29888
3398,30656
3399,31232
3400,31744
3401,32128
3402,32448
3403,32640
3404,33024
3405,33152
3406,33280
3407,33344
3408,33408
3409,33536
3410,33600
3411,33600
3412,33728
3413,33664
3414,33792
3415,33856
3416,33920
3417,33984
3418,34048
3419,34112
3420,34176
3421,34240
3422,34304
3423,34304
3424,34368
3425,34432
3426,34496
3427,34560
3428,34624
3429,34688
3430,34688
3431,34752
3432,34752
3433,34688
3434,34752
3435,34816
3436,34816
3437,34752
3438,34688
3439,34624
3440,34560
3441,34496
3442,34432
3443,34304
3444,34176
3445,34176
3446,34112
3447,33984
3448,33920
3449,33856
3450,33792
3451,33728
3452,33664
3453,33600
3454,33600
3455,33536
3456,33472
3457,33408
3458,33408
3459,33408
3460,33408
3461,33408
3462,33472
3463,33408
3464,33472
3465,33664
3466,33664
3467,33728
3468,33792
3469,33856
3470,33920
3471,33920
3472,33984
3473,34048
3474,34112
3475,34176
3476,34176
3477,34176
3478,34176
3479,34176
3480,34240
3481,34240
3482,34304
3483,34304
3484,34304
3485,34304
3486,34304
3487,34304
3488,34368
3489,34368
3490,34368
3491,34432
3492,34560
3493,34560
3494,34624
3495,34816
3496,34816
3497,34880
3498,34880
3499,34944
3500,35008
3501,35072
3502,35136
3503,35200
3504,35264
3505,35328
3506,35264
3507,35072
3508,35008
3509,34688
3510,34496
3511,34176
3512,33856
3513,33664
3514,33536
3515,33536
3516,33536
3517,33536
3518,33600
3519,33600
3520,33600
3521,33664
3522,33664
3523,33728
3524,33792
3525,33856
3526,33856
3527,33792
3528,33664
3529,33536
3530,33536
3531,33984
3532,35072
3533,36864
3534,39552
3535,43264
3536,46336
3537,48384
3538,48320
3539,46272
3540,42688
3541,38208
3542,33920
3543,30592
3544,28416
3545,27392
3546,27200
3547,27648
3548,28544
3549,29568
3550,30528
3551,31168
3552,31872
3553,31872
3554,32448
3555,32704
3556,32960
3557,33152
3558,33280
3559,33408
3560,33472
3561,33536
3562,33600
3563,33728
3564,33792
3565,33856
3566,33984
3567,34112
3568,34048
3569,34176
3570,34240
3571,34240
3572,34304
3573,34304
3574,34368
3575,34496
3576,34560
3577,34560
3578,34624
3579,34752
3580,34816
3581,34816
3582,34816
3583,34880
3584,34944
3585,34944
3586,34944
3587,34944
3588,34880
3589,34880
3590,34816
3591,34752
3592,34688
3593,34560
3594,34496
3595,34368
3596,34240
3597,34176
3598,34112
3599,34176
3600,34112
3601,33984
3602,33856
3603,33728
3604,33664
3605,33600
3606,33536
3607,33472
3608,33408
3609,33408
3610,33344
3611,33344
3612,33408
3613,33344
3614,33408
3615,33472
3616,33536
3617,33600
3618,33600
3619,33664
3620,33728
3621,33792
3622,33856
3623,33920
3624,33920
3625,34048
3626,34048
3627,34048
3628,34112
3629,34112
3630,34112
3631,34112
3632,34176
3633,34176
3634,34240
3635,34304
3636,34240
3637,34240
3638,34240
3639,34176
3640,34240
3641,34176
3642,34240
3643,34176
3644,34432
3645,34560
3646,34624
3647,34688
3648,34624
3649,34624
3650,34688
3651,34816
3652,34944
3653,34944
3654,35008
3655,35008
3656,35008
3657,35008
3658,34944
3659,34816
3660,34688
3661,34496
3662,34304
3663,34048
3664,33728
3665,33472
3666,33344
3667,33280
3668,33216
3669,33280
3670,33280
3671,33344
3672,33344
3673,33344
3674,33408
3675,33472
3676,33536
3677,33536
3678,33600
3679,33664
3680,33536
3681,33472
3682,33536
3683,33984
3684,35072
3685,36864
3686,39552
3687,43072
3688,46464
3689,48192
3690,47808
3691,45632
3692,41792
3693,37248
3694,32960
3695,29824
3696,28032
3697,27200
3698,27136
3699,27776
3700,28736
3701,29632
3702,30592
3703,30592
3704,31552
3705,31936
3706,32256
3707,32512
3708,32704
3709,32960
3710,33152
3711,33280
3712,33344
3713,33408
3714,33472
3715,33536
3716,33600
3717,33728
3718,33728
3719,33856
3720,33984
3721,34048
3722,34048
3723,34112
3724,34112
3725,34112
3726,34176
3727,34240
3728,34304
3729,34368
3730,34432
3731,34560
3732,34624
3733,34688
3734,34752
3735,34816
3736,34880
3737,34944
3738,34944
3739,34944
3740,34944
3741,34944
3742,34880
3743,34752
3744,34688
3745,34560
3746,34560
3747,34560
3748,34496
3749,34304
3750,34176
3751,34112
3752,33984
3753,33984
3754,33856
3755,33728
3756,33664
3757,33536
3758,33536
3759,33472
3760,33408
3761,33408
3762,33408
3763,33344
3764,33408
3765,33408
3766,33408
3767,33408
3768,33408
3769,33536
3770,33600
3771,33728
3772,33920
3773,34112
3774,34368
3775,34624
3776,34624
3777,34432
3778,34368
3779,34496
3780,34496
3781,33920
3782,33216
3783,32768
3784,32640
3785,32768
3786,32960
3787,33280
3788,33536
3789,33792
3790,34048
3791,34304
3792,34624
3793,34560
3794,34880
3795,35136
3796,35584
3797,35840
3798,35648
3799,35200
3800,34880
3801,34624
3802,34368
3803,34112
3804,34048
3805,34112
3806,34112
3807,34048
3808,34048
3809,33984
3810,33856
3811,33664
3812,33472
3813,33408
3814,33344
3815,33280
3816,33344
3817,33344
3818,33344
3819,33408
3820,33408
3821,33472
3822,33536
3823,33600
3824,33664
3825,33792
3826,33856
3827,33856
3828,33856
3829,33984
3830,34304
3831,35072
3832,36608
3833,39168
3834,42688
3835,46272
3836,48704
3837,48960
3838,47104
3839,43520
3840,38976
3841,34432
3842,30656
3843,28352
3844,27200
3845,27008
3846,27520
3847,28608
3848,29760
3849,30656
3850,31424
3851,31936
3852,32512
3853,32512
3854,33024
3855,33344
3856,33600
3857,33728
3858,33856
3859,33920
3860,33984
3861,34048
3862,34112
3863,34176
3864,34240
3865,34304
3866,34432
3867,34560
3868,34496
3869,34624
3870,34624
3871,34752
3872,34816
3873,34816
3874,34816
3875,34816
3876,34880
3877,34880
3878,34944
3879,34944
3880,35008
3881,35072
3882,35136
3883,35072
3884,35008
3885,35008
3886,35072
3887,35072
3888,35008
3889,34880
3890,34944
3891,35328
3892,35648
3893,35392
3894,34752
3895,34176
3896,33984
3897,33920
3898,33920
3899,33984
3900,33920
3901,33664
3902,33344
3903,33024
3904,32768
3905,32832
3906,32960
3907,33344
3908,33728
3909,33792
3910,33280
3911,32768
3912,32512
3913,32448
3914,32896
3915,33472
3916,33728
3917,33856
3918,33856
3919,33856
3920,33984
3921,34112
3922,34240
3923,34176
3924,34048
3925,34048
3926,34176
3927,34752
3928,35264
3929,35520
3930,35072
3931,34432
3932,33984
3933,33792
3934,33856
3935,34112
3936,34368
3937,34432
3938,34432
3939,34432
3940,34560
3941,34752
3942,35008
3943,34944
3944,35200
3945,35264
3946,35456
3947,35328
3948,35072
3949,34944
3950,34688
3951,34368
3952,34112
3953,33792
3954,33536
3955,33344
3956,33152
3957,33152
3958,33216
3959,33344
3960,33280
3961,32960
3962,32768
3963,32512
3964,32384
3965,32384
3966,32448
3967,32640
3968,32896
3969,33088
3970,33280
3971,33408
3972,33664
3973,34240
3974,35200
3975,36736
3976,39232
3977,42688
3978,46400
3979,48768
3980,48960
3981,47040
3982,43392
3983,38784
3984,34240
3985,30592
3986,28224
3987,27072
3988,26880
3989,27456
3990,28480
3991,29504
3992,30400
3993,31104
3994,31616
3995,32000
3996,32256
3997,32384
3998,32640
3999,32832
4000,33088
4001,33408
4002,33600
4003,33728
4004,33728
4005,33664
4006,33728
4007,33856
4008,33920
4009,33920
4010,33920
4011,33920
4012,33984
4013,33984
4014,33984
4015,33984
4016,34048
4017,34112
4018,34176
4019,34368
4020,34432
4021,34560
4022,34688
4023,34816
4024,34944
4025,35008
4026,35008
4027,34944
4028,34880
4029,34816
4030,34752
4031,34752
4032,34816
4033,34816
4034,34752
4035,34560
4036,34560
4037,34560
4038,34432
4039,34368
4040,34368
4041,34368
4042,34240
4043,34112
4044,33984
4045,33920
4046,33856
4047,33792
4048,33728
4049,33600
4050,33472
4051,33344
4052,33280
4053,33216
4054,33280
4055,33344
4056,33472
4057,33536
4058,33600
4059,33664
4060,33728
4061,33792
4062,33856
4063,33920
4064,33984
4065,33920
4066,33920
4067,33920
4068,33984
4069,34048
4070,34112
4071,34176
4072,34240
4073,34240
4074,34112
4075,34176
4076,34304
4077,34432
4078,34688
4079,34816
4080,34752
4081,34816
4082,34944
4083,35072
4084,35072
4085,35136
4086,35200
4087,35200
4088,35200
4089,35136
4090,34944
4091,34624
4092,34368
4093,34112
4094,33920
4095,33728
4096,33408
4097,33152
4098,33088
4099,33088
4100,33088
4101,33088
4102,33088
4103,33216
4104,33216
4105,33280
4106,33344
4107,33408
4108,33408
4109,33408
4110,33408
4111,33408
4112,33600
4113,33792
4114,34240
4115,35072
4116,36480
4117,38656
4118,41856
4119,45312
4120,47936
4121,48064
4122,46400
4123,42944
4124,38912
4125,34496
4126,30848
4127,28480
4128,27328
4129,27072
4130,27584
4131,28480
4132,29504
4133,30400
4134,31104
4135,31616
4136,32064
4137,32384
4138,32704
4139,32896
4140,33088
4141,33216
4142,33344
4143,33408
4144,33472
4145,33536
4146,33536
4147,33600
4148,33664
4149,33728
4150,33792
4151,33856
4152,33856
4153,33856
4154,33792
4155,33792
4156,33792
4157,33856
4158,33984
4159,34112
4160,34112
4161,34112
4162,34048
4163,34048
4164,34048
4165,34048
4166,34048
4167,33984
4168,33920
4169,33920
4170,33856
4171,33792
4172,33664
4173,33600
4174,33536
4175,33408
4176,33344
4177,33280
4178,33216
4179,33152
4180,33088
4181,33024
4182,33088
4183,33152
4184,33088
4185,33024
4186,33024
4187,33024
4188,33024
4189,33024
4190,33024
4191,33024
4192,32960
4193,32960
4194,32960
4195,33024
4196,33024
4197,33088
4198,33088
4199,33152
4200,33280
4201,33408
4202,33472
4203,33536
4204,33600
4205,33664
4206,33728
4207,33792
4208,33792
4209,33856
4210,33856
4211,33920
4212,33856
4213,33920
4214,33984
4215,34048
4216,34112
4217,34240
4218,34240
4219,34304
4220,34368
4221,34496
4222,34688
4223,34816
4224,34880
4225,34880
4226,34944
4227,34944
4228,35008
4229,35008
4230,34880
4231,34624
4232,34368
4233,34176
4234,33984
4235,33664
4236,33408
4237,33216
4238,33152
4239,33152
4240,33216
4241,33216
4242,33152
4243,33152
4244,33216
4245,33280
4246,33472
4247,33472
4248,33472
4249,33472
4250,33536
4251,33536
4252,33472
4253,33600
4254,33984
4255,34944
4256,36864
4257,39936
4258,43712
4259,46976
4260,48448
4261,47808
4262,45184
4263,41088
4264,36544
4265,32576
4266,29760
4267,28160
4268,27456
4269,27584
4270,28224
4271,29248
4272,30016
4273,30784
4274,31296
4275,31744
4276,32128
4277,32384
4278,32640
4279,32896
4280,33088
4281,33280
4282,33472
4283,33600
4284,33664
4285,33664
4286,33792
4287,33920
4288,33856
4289,33920
4290,33920
4291,33984
4292,34048
4293,34112
4294,34176
4295,34240
4296,34368
4297,34432
4298,34496
4299,34624
4300,34688
4301,34752
4302,34752
4303,34752
4304,34816
4305,34816
4306,34816
4307,34816
4308,34752
4309,34752
4310,34688
4311,34624
4312,34560
4313,34432
4314,34304
4315,34240
4316,34112
4317,34048
4318,33920
4319,33856
4320,33856
4321,33856
4322,33856
4323,33856
4324,33856
4325,33792
4326,33728
4327,33600
4328,33536
4329,33536
4330,33472
4331,33408
4332,33408
4333,33408
4334,33408
4335,33472
4336,33472
4337,33536
4338,33600
4339,33600
4340,33600
4341,33664
4342,33664
4343,33664
4344,33728
4345,33792
4346,33856
4347,33856
4348,33856
4349,33920
4350,33984
4351,34048
4352,34112
4353,34240
4354,34368
4355,34432
4356,34496
4357,34496
4358,34560
4359,34560
4360,34688
4361,34752
4362,34880
4363,34880
4364,34880
4365,34816
4366,34752
4367,34560
4368,34432
4369,34240
4370,34112
4371,33920
4372,33600
4373,33344
4374,33088
4375,33024
4376,32960
4377,33024
4378,33088
4379,33152
4380,33216
4381,33216
4382,33216
4383,33216
4384,33280
4385,33344
4386,33344
4387,33344
4388,33216
4389,32960
4390,32896
4391,33344
4392,34240
4393,36480
4394,39296
4395,43008
4396,46464
4397,48256
4398,48064
4399,46016
4400,42368
4401,38080
4402,33920
4403,30656
4404,28480
4405,27392
4406,27136
4407,27456
4408,28288
4409,29184
4410,30080
4411,30848
4412,31488
4413,31936
4414,32256
4415,32576
4416,32832
4417,33024
4418,33152
4419,33344
4420,33472
4421,33536
4422,33600
4423,33664
4424,33792
4425,33920
4426,33984
4427,34112
4428,34176
4429,34240
4430,34240
4431,34304
4432,34368
4433,34432
4434,34432
4435,34496
4436,34560
4437,34624
4438,34688
4439,34688
4440,34688
4441,34688
4442,34688
4443,34752
4444,34944
4445,34880
4446,34752
4447,34560
4448,34432
4449,34240
4450,34240
4451,34240
4452,34240
4453,34112
4454,34048
4455,33984
4456,33984
4457,33984
4458,34048
4459,34048
4460,34048
4461,34048
4462,34112
4463,34176
4464,34176
4465,34112
4466,34048
4467,33984
4468,33984
4469,33920
4470,33920
4471,33920
4472,33984
4473,34112
4474,34176
4475,34112
4476,34112
4477,34176
4478,34240
4479,34240
4480,34176
4481,34240
4482,34240
4483,34304
4484,34304
4485,34304
4486,34304
4487,34368
4488,34496
4489,34688
4490,34752
4491,34816
4492,34752
4493,34880
4494,35072
4495,35136
4496,34944
4497,34880
4498,34880
4499,34816
4500,34688
4501,34752
4502,34752
4503,34752
4504,34624
4505,34560
4506,34432
4507,34176
4508,33856
4509,33536
4510,33344
4511,33216
4512,33216
4513,33088
4514,32896
4515,32768
4516,32768
4517,32832
4518,32960
4519,33088
4520,33280
4521,33408
4522,33536
4523,33600
4524,33536
4525,33408
4526,33472
4527,34176
4528,35584
4529,38016
4530,41536
4531,45376
4532,48448
4533,49216
4534,48128
4535,45184
4536,41024
4537,36544
4538,32384
4539,29312
4540,27392
4541,26560
4542,26560
4543,27200
4544,28224
4545,29184
4546,30144
4547,30976
4548,31552
4549,32064
4550,32256
4551,32384
4552,32640
4553,32832
4554,33088
4555,33280
4556,33408
4557,33408
4558,33344
4559,33344
4560,33408
4561,33472
4562,33600
4563,33664
4564,33792
4565,33856
4566,33984
4567,34048
4568,34048
4569,34112
4570,34240
4571,34304
4572,34304
4573,34368
4574,34368
4575,34368
4576,34368
4577,34368
4578,34432
4579,34432
4580,34496
4581,34496
4582,34496
4583,34432
4584,34368
4585,34304
4586,34240
4587,34240
4588,34176
4589,34048
4590,33984
4591,33984
4592,33984
4593,34048
4594,34048
4595,34112
4596,34048
4597,33984
4598,33920
4599,33792
4600,33728
4601,33600
4602,33472
4603,33536
4604,33472
4605,33472
4606,33472
4607,33536
4608,33472
4609,33408
4610,33408
4611,33600
4612,33664
4613,33728
4614,33856
4615,33920
4616,33920
4617,33920
4618,33920
4619,33984
4620,33984
4621,34112
4622,34240
4623,34368
4624,34496
4625,34560
4626,34688
4627,34688
4628,34624
4629,34624
4630,34752
4631,34816
4632,34880
4633,34880
4634,34944
4635,35008
4636,35072
4637,35072
4638,34880
4639,34688
4640,34496
4641,34368
4642,34112
4643,33792
4644,33472
4645,33216
4646,33024
4647,33024
4648,33088
4649,33088
4650,33152
4651,33152
4652,33216
4653,33344
4654,33408
4655,33472
4656,33472
4657,33536
4658,33536
4659,33536
4660,33664
4661,34048
4662,34752
4663,36032
4664,38272
4665,41536
4666,45248
4667,47936
4668,48320
4669,46720
4670,43456
4671,39040
4672,34432
4673,30656
4674,28288
4675,27008
4676,26688
4677,27072
4678,27968
4679,29056
4680,29952
4681,30720
4682,31360
4683,31872
4684,32192
4685,32448
4686,32640
4687,32832
4688,33024
4689,33152
4690,33280
4691,33408
4692,33472
4693,33472
4694,33536
4695,33600
4696,33664
4697,33728
4698,33792
4699,33920
4700,33920
4701,33920
4702,33856
4703,33856
4704,33920
4705,33984
4706,34048
4707,34112
4708,34240
4709,34304
4710,34240
4711,34240
4712,34368
4713,34496
4714,34560
4715,34560
4716,34560
4717,34624
4718,34688
4719,34560
4720,34432
4721,34304
4722,34176
4723,34048
4724,33984
4725,33984
4726,33984
4727,33920
4728,33856
4729,33792
4730,33728
4731,33728
4732,33664
4733,33664
4734,33600
4735,33472
4736,33408
4737,33408
4738,33344
4739,33344
4740,33344
4741,33344
4742,33344
4743,33344
4744,33344
4745,33344
4746,33408
4747,33472
4748,33536
4749,33600
4750,33664
4751,33728
4752,33728
4753,33728
4754,33792
4755,33792
4756,33792
4757,34048
4758,34240
4759,34432
4760,34560
4761,34624
4762,34688
4763,34752
4764,34880
4765,35008
4766,35072
4767,35008
4768,34944
4769,34944
4770,35008
4771,34944
4772,34816
4773,34624
4774,34368
4775,34240
4776,34112
4777,33856
4778,33600
4779,33280
4780,33152
4781,33088
4782,33024
4783,33024
4784,33088
4785,33152
4786,33216
4787,33344
4788,33408
4789,33472
4790,33472
4791,33472
4792,33408
4793,33472
4794,33600
4795,33920
4796,34560
4797,35584
4798,37440
4799,40512
4800,44160
4801,47296
4802,48256
4803,47040
4804,44096
4805,39808
4806,35328
4807,31424
4808,28800
4809,27456
4810,27008
4811,27328
4812,28160
4813,29184
4814,30016
4815,30656
4816,31232
4817,31680
4818,32064
4819,32384
4820,32640
4821,32768
4822,32832
4823,32960
4824,33152
4825,33280
4826,33408
4827,33472
4828,33472
4829,33536
4830,33536
4831,33664
4832,33792
4833,33856
4834,33920
4835,33920
4836,33920
4837,33984
4838,34048
4839,34048
4840,34112
4841,34176
4842,34240
4843,34304
4844,34304
4845,34368
4846,34432
4847,34496
4848,34496
4849,34560
4850,34560
4851,34496
4852,34496
4853,34496
4854,34432
4855,34304
4856,34240
4857,34176
4858,34112
4859,34048
4860,33984
4861,33920
4862,33856
4863,33856
4864,33792
4865,33728
4866,33728
4867,33664
4868,33600
4869,33536
4870,33472
4871,33408
4872,33344
4873,33344
4874,33344
4875,33344
4876,33344
4877,33408
4878,33408
4879,33472
4880,33472
4881,33472
4882,33536
4883,33536
4884,33600
4885,33664
4886,33728
4887,33792
4888,33856
4889,33792
4890,33792
4891,33856
4892,33984
4893,34176
4894,34304
4895,34368
4896,34496
4897,34560
4898,34624
4899,34688
4900,34752
4901,34816
4902,34816
4903,34816
4904,34816
4905,34816
4906,34752
4907,34560
4908,34368
4909,34240
4910,34048
4911,33920
4912,33664
4913,33344
4914,33024
4915,32960
4916,32832
4917,32768
4918,32768
4919,32768
4920,32704
4921,32704
4922,32768
4923,32832
4924,32896
4925,32896
4926,32832
4927,32832
4928,32896
4929,33024
4930,33152
4931,33536
4932,34176
4933,35648
4934,38016
4935,41472
4936,45056
4937,47424
4938,47616
4939,45824
4940,42304
4941,37888
4942,33664
4943,30336
4944,28224
4945,27136
4946,26944
4947,27392
4948,28224
4949,29120
4950,29824
4951,30528
4952,31040
4953,31488
4954,31808
4955,32000
4956,32256
4957,32512
4958,32768
4959,32896
4960,33024
4961,33216
4962,33344
4963,33536
4964,33664
4965,33856
4966,33920
4967,34048
4968,34112
4969,34304
4970,34432
4971,34496
4972,34560
4973,34624
4974,34688
4975,34816
4976,34944
4977,34944
4978,35008
4979,35072
4980,35072
4981,35072
4982,35072
4983,35072
4984,35008
4985,35008
4986,34880
4987,34816
4988,34752
4989,34688
4990,34624
4991,34560
4992,34560
4993,34432
4994,34368
4995,34240
4996,34176
4997,34112
4998,34048
4999,34048
5000,33984
5001,33920
5002,33920
5003,33792
5004,33728
5005,33664
5006,33664
5007,33536
5008,33536
5009,33536
5010,33472
5011,33472
5012,33536
5013,33536
5014,33600
5015,33664
5016,33728
5017,33728
5018,33792
5019,33856
5020,33920
5021,33920
5022,33984
5023,33984
5024,34048
5025,34112
5026,34112
5027,34112
5028,34176
5029,34240
5030,34432
5031,34624
5032,34688
5033,34624
5034,34624
5035,34816
5036,34880
5037,34944
5038,34944
5039,34944
5040,35072
5041,35072
5042,34880
5043,34688
5044,34624
5045,34624
5046,34560
5047,34368
5048,34112
5049,33984
5050,33792
5051,33664
5052,33600
5053,33600
5054,33664
5055,33728
5056,33792
5057,33920
5058,33984
5059,34112
5060,34176
5061,34176
5062,34240
5063,34304
5064,34176
5065,33856
5066,33536
5067,33600
5068,34432
5069,35968
5070,38656
5071,42432
5072,46336
5073,49024
5074,49600
5075,48192
5076,44928
5077,40640
5078,36160
5079,32128
5080,29184
5081,27520
5082,26880
5083,27008
5084,27584
5085,28608
5086,29632
5087,30464
5088,31232
5089,31744
5090,32128
5091,32384
5092,32640
5093,32832
5094,33024
5095,33216
5096,33344
5097,33472
5098,33536
5099,33600
5100,33664
5101,33728
5102,33792
5103,33856
5104,33920
5105,33984
5106,34048
5107,34048
5108,34048
5109,34048
5110,34048
5111,34112
5112,34112
5113,34112
5114,34112
5115,34176
5116,34176
5117,34240
5118,34240
5119,34240
5120,34240
5121,34176
5122,34112
5123,33984
5124,33920
5125,33856
5126,33856
5127,33792
5128,33792
5129,33728
5130,33728
5131,33728
5132,33728
5133,33792
5134,33728
5135,33728
5136,33728
5137,33728
5138,33792
5139,33728
5140,33600
5141,33536
5142,33472
5143,33408
5144,33408
5145,33408
5146,33408
5147,33344
5148,33408
5149,33408
5150,33408
5151,33472
5152,33536
5153,33600
5154,33600
5155,33600
5156,33728
5157,33792
5158,33856
5159,33856
5160,33856
5161,33920
5162,33920
5163,34048
5164,34112
5165,34240
5166,34368
5167,34368
5168,34304
5169,34304
5170,34368
5171,34560
5172,34560
5173,34560
5174,34624
5175,34624
5176,34688
5177,34688
5178,34560
5179,34304
5180,34112
5181,34048
5182,33856
5183,33600
5184,33280
5185,33024
5186,32832
5187,32704
5188,32704
5189,32704
5190,32768
5191,32832
5192,32960
5193,33024
5194,33088
5195,33152
5196,33152
5197,33152
5198,33152
5199,33152
5200,33088
5201,33152
5202,33600
5203,34752
5204,36608
5205,39680
5206,43328
5207,46720
5208,48384
5209,47808
5210,45248
5211,41216
5212,36800
5213,32768
5214,29824
5215,28032
5216,27200
5217,27136
5218,27904
5219,28672
5220,29568
5221,30400
5222,31040
5223,31872
5224,32128
5225,32320
5226,32512
5227,32704
5228,32896
5229,33024
5230,33216
5231,33216
5232,33472
5233,33536
5234,33664
5235,33600
5236,33792
5237,33856
5238,33920
5239,33984
5240,34048
5241,34112
5242,34176
5243,34240
5244,34304
5245,34432
5246,34368
5247,34496
5248,34432
5249,34560
5250,34496
5251,34560
5252,34624
5253,34688
5254,34688
5255,34688
5256,34624
5257,34560
5258,34496
5259,34368
5260,34304
5261,34240
5262,34240
5263,34176
5264,34176
5265,34112
5266,34112
5267,34048
5268,34048
5269,34048
5270,33920
5271,33856
5272,33856
5273,33728
5274,33664
5275,33664
5276,33600
5277,33536
5278,33536
5279,33536
5280,33600
5281,33664
5282,33728
5283,33728
5284,33792
5285,33792
5286,33856
5287,33792
5288,33984
5289,34048
5290,34048
5291,34112
5292,34240
5293,34304
5294,34368
5295,34432
5296,34496
5297,34624
5298,34752
5299,34816
5300,34816
5301,34880
5302,34944
5303,35072
5304,35264
5305,35328
5306,35264
5307,35200
5308,35200
5309,35200
5310,35328
5311,35264
5312,35136
5313,35008
5314,34880
5315,34688
5316,34432
5317,34176
5318,33856
5319,33600
5320,33472
5321,33408
5322,33408
5323,33408
5324,33408
5325,33408
5326,33472
5327,33536
5328,33600
5329,33664
5330,33792
5331,33792
5332,33728
5333,33408
5334,33216
5335,33344
5336,33984
5337,35968
5338,36224
5339,41280
5340,45056
5341,48000
5342,49152
5343,48320
5344,45632
5345,41600
5346,37248
5347,33344
5348,30400
5349,28544
5350,27712
5351,27776
5352,27712
5353,28352
5354,29888
5355,30720
5356,31424
5357,31936
5358,32320
5359,32640
5360,32896
5361,33088
5362,33280
5363,33408
5364,33536
5365,33664
5366,33728
5367,33792
5368,33856
5369,33856
5370,33920
5371,33984
5372,34048
5373,34176
5374,34304
5375,34368
5376,34432
5377,34432
5378,34432
5379,34432
5380,34496
5381,34560
5382,34624
5383,34560
5384,34752
5385,34752
5386,34816
5387,34816
5388,34816
5389,34816
5390,34816
5391,34816
5392,34752
5393,34688
5394,34624
5395,34560
5396,34432
5397,34432
5398,34368
5399,34304
5400,34176
5401,34176
5402,34112
5403,34112
5404,34112
5405,34048
5406,34048
5407,33984
5408,33920
5409,33856
5410,33856
5411,33792
5412,33792
5413,33792
5414,33728
5415,33728
5416,33728
5417,33728
5418,33792
5419,33792
5420,33856
5421,33856
5422,33920
5423,33984
5424,34048
5425,34112
5426,34176
5427,34240
5428,34176
5429,34240
5430,34240
5431,34368
5432,34496
5433,34624
5434,34752
5435,34816
5436,34880
5437,34880
5438,35008
5439,35136
5440,35136
5441,35136
5442,35136
5443,35072
5444,35264
5445,35264
5446,35200
5447,35136
5448,35008
5449,34752
5450,34624
5451,34368
5452,34048
5453,33792
5454,33536
5455,33408
5456,33408
5457,33408
5458,33408
5459,33536
5460,33536
5461,33536
5462,33472
5463,33472
5464,33472
5465,33472
5466,33472
5467,33408
5468,33280
5469,33152
5470,33344
5471,34048
5472,35520
5473,37952
5474,41344
5475,45056
5476,47872
5477,48832
5478,47808
5479,44992
5480,40768
5481,36288
5482,32320
5483,29504
5484,27840
5485,27200
5486,27200
5487,27968
5488,28032
5489,29696
5490,30528
5491,31168
5492,31744
5493,32128
5494,32448
5495,32704
5496,32832
5497,32960
5498,33024
5499,33152
5500,33280
5501,33280
5502,33536
5503,33664
5504,33728
5505,33856
5506,33920
5507,33984
5508,34048
5509,34112
5510,34176
5511,34240
5512,34240
5513,34368
5514,34432
5515,34496
5516,34560
5517,34560
5518,34560
5519,34624
5520,34688
5521,34688
5522,34688
5523,34688
5524,34752
5525,34752
5526,34752
5527,34752
5528,34688
5529,34688
5530,34560
5531,34496
5532,34432
5533,34368
5534,34304
5535,34304
5536,34240
5537,34112
5538,34112
5539,33984
5540,33984
5541,33984
5542,33920
5543,33792
5544,33728
5545,33664
5546,33536
5547,33536
5548,33472
5549,33536
5550,33536
5551,33600
5552,33664
5553,33728
5554,33728
5555,33792
5556,33856
5557,33856
5558,33856
5559,33920
5560,34048
5561,34112
5562,34176
5563,34112
5564,34176
5565,34240
5566,34304
5567,34304
5568,34368
5569,34432
5570,34560
5571,34688
5572,34752
5573,34880
5574,34880
5575,34944
5576,35008
5577,35200
5578,35264
5579,35264
5580,35264
5581,35264
5582,35264
5583,35264
5584,35200
5585,35072
5586,34880
5587,34688
5588,34560
5589,34368
5590,34048
5591,33792
5592,33600
5593,33536
5594,33472
5595,33408
5596,33408
5597,33472
5598,33536
5599,33536
5600,33536
5601,33600
5602,33664
5603,33664
5604,33728
5605,33600
5606,33408
5607,33408
5608,33344
5609,34496
5610,36032
5611,38464
5612,41792
5613,45440
5614,48128
5615,48832
5616,47552
5617,44416
5618,40064
5619,35456
5620,31552
5621,28928
5622,27520
5623,27008
5624,27264
5625,28032
5626,29056
5627,29952
5628,30656
5629,31296
5630,31744
5631,32128
5632,32512
5633,32704
5634,32960
5635,33152
5636,33216
5637,33408
5638,33408
5639,33600
5640,33664
5641,33728
5642,33792
5643,33856
5644,33984
5645,34048
5646,34112
5647,34112
5648,34112
5649,34112
5650,34240
5651,34304
5652,34432
5653,34368
5654,34496
5655,34560
5656,34560
5657,34688
5658,34752
5659,34752
5660,34816
5661,34880
5662,34880
5663,34880
5664,34880
5665,34944
5666,34880
5667,34816
5668,34752
5669,34624
5670,34496
5671,34432
5672,34368
5673,34304
5674,34240
5675,34176
5676,34048
5677,33984
5678,33856
5679,33728
5680,33664
5681,33600
5682,33536
5683,33536
5684,33536
5685,33472
5686,33472
5687,33536
5688,33536
5689,33600
5690,33600
5691,33664
5692,33728
5693,33728
5694,33728
5695,33792
5696,33856
5697,33984
5698,33984
5699,33984
5700,34048
5701,34112
5702,34112
5703,34176
5704,34176
5705,34176
5706,34112
5707,34176
5708,34176
5709,34240
5710,34368
5711,34368
5712,34432
5713,34368
5714,34432
5715,34496
5716,34560
5717,34688
5718,34752
5719,34816
5720,34816
5721,34880
5722,35008
5723,35072
5724,35136
5725,35200
5726,35200
5727,35200
5728,35200
5729,35136
5730,35008
5731,34816
5732,34688
5733,34560
5734,34368
5735,34112
5736,33792
5737,33536
5738,33472
5739,33408
5740,33408
5741,33408
5742,33472
5743,33472
5744,33536
5745,33536
5746,33536
5747,33600
5748,33600
5749,33664
5750,33728
5751,33664
5752,33600
5753,33664
5754,34112
5755,35072
5756,36928
5757,40640
5758,41088
5759,45952
5760,48000
5761,48000
5762,46144
5763,42624
5764,38208
5765,33856
5766,30464
5767,28288
5768,27264
5769,27008
5770,27456
5771,28352
5772,29440
5773,30144
5774,30848
5775,31424
5776,31872
5777,32128
5778,32384
5779,32576
5780,32832
5781,32960
5782,33152
5783,33216
5784,33280
5785,33408
5786,33472
5787,33536
5788,33664
5789,33728
5790,33792
5791,33792
5792,33856
5793,33920
5794,33984
5795,34048
5796,34112
5797,34112
5798,34176
5799,34240
5800,34304
5801,34368
5802,34432
5803,34496
5804,34560
5805,34624
5806,34688
5807,34688
5808,34688
5809,34688
5810,34688
5811,34688
5812,34624
5813,34624
5814,34624
5815,34560
5816,34432
5817,34368
5818,34304
5819,34176
5820,34112
5821,34048
5822,33984
5823,33920
5824,33856
5825,33792
5826,33792
5827,33664
5828,33600
5829,33536
5830,33536
5831,33472
5832,33472
5833,33472
5834,33472
5835,33472
5836,33536
5837,33536
5838,33600
5839,33664
5840,33728
5841,33792
5842,33792
5843,33856
5844,33856
5845,33856
5846,33920
5847,33984
5848,33984
5849,34112
5850,34176
5851,34240
5852,34304
5853,34304
5854,34304
5855,34368
5856,34368
5857,34368
5858,34368
5859,34368
5860,34368
5861,34368
5862,34432
5863,34368
5864,34432
5865,34432
5866,34432
5867,34432
5868,34432
5869,34496
5870,34432
5871,34432
5872,34432
5873,34432
5874,34496
5875,34560
5876,34688
5877,34688
5878,34624
5879,34752
5880,34880
5881,34944
5882,35072
5883,35200
5884,35264
5885,35328
5886,35328
5887,35328
5888,35264
5889,35136
5890,34944
5891,34752
5892,34560
5893,34304
5894,33984
5895,33792
5896,33664
5897,33536
5898,33536
5899,33536
5900,33600
5901,33664
5902,33728
5903,33728
5904,33728
5905,33792
5906,33728
5907,33728
5908,33728
5909,33664
5910,33472
5911,33344
5912,33664
5913,34496
5914,35968
5915,38336
5916,41600
5917,45184
5918,47808
5919,48576
5920,47360
5921,44288
5922,40256
5923,35776
5924,32000
5925,29376
5926,27840
5927,27264
5928,27392
5929,28096
5930,29120
5931,30016
5932,30784
5933,31424
5934,31872
5935,32320
5936,32576
5937,32832
5938,33024
5939,33216
5940,33344
5941,33472
5942,33600
5943,33664
5944,33728
5945,33792
5946,33856
5947,33984
5948,34048
5949,34112
5950,34176
5951,34176
5952,34176
5953,34176
5954,34176
5955,34304
5956,34368
5957,34496
5958,34496
5959,34560
5960,34624
5961,34688
5962,34752
5963,34816
5964,34880
5965,34944
5966,35008
5967,35008
5968,35072
5969,35008
5970,34944
5971,34880
5972,34816
5973,34752
5974,34688
5975,34624
5976,34560
5977,34496
5978,34432
5979,34304
5980,34240
5981,34176
5982,34048
5983,33920
5984,33856
5985,33792
5986,33728
5987,33664
5988,33664
5989,33600
5990,33536
5991,33536
5992,33600
5993,33600
5994,33600
5995,33600
5996,33664
5997,33728
5998,33728
5999,33792
6000,33792
6001,33856
6002,33920
6003,33920
6004,34048
6005,34112
6006,34112
6007,34176
6008,34304
6009,34304
6010,34304
6011,34304
6012,34304
6013,34304
6014,34240
6015,34240
6016,34304
6017,34368
6018,34368
6019,34432
6020,34368
6021,34432
6022,34432
6023,34432
6024,34496
6025,34496
6026,34496
6027,34432
6028,34432
6029,34496
6030,34432
6031,34368
6032,34368
6033,34304
6034,34304
6035,34240
6036,34240
6037,34240
6038,34304
6039,34432
6040,34560
6041,34624
6042,34688
6043,34752
6044,34816
6045,34880
6046,35008
6047,35136
6048,35264
6049,35328
6050,35328
6051,35328
6052,35328
6053,35200
6054,35008
6055,34816
6056,34624
6057,34368
6058,34112
6059,33856
6060,33664
6061,33536
6062,33472
6063,33536
6064,33600
6065,33600
6066,33600
6067,33664
6068,33728
6069,33728
6070,33792
6071,33856
6072,33856
6073,33856
6074,33728
6075,33600
6076,33664
6077,34112
6078,35136
6079,36864
6080,39552
6081,43008
6082,46400
6083,48384
6084,48320
6085,46400
6086,42176
6087,38336
6088,33984
6089,30656
6090,28480
6091,27328
6092,27072
6093,27520
6094,28416
6095,29440
6096,30336
6097,31104
6098,31680
6099,32128
6100,32448
6101,32768
6102,32896
6103,33088
6104,33216
6105,33344
6106,33472
6107,33536
6108,33600
6109,33664
6110,33792
6111,33792
6112,33920
6113,34048
6114,34048
6115,34112
6116,34112
6117,34176
6118,34240
6119,34240
6120,34304
6121,34368
6122,34432
6123,34560
6124,34624
6125,34688
6126,34688
6127,34688
6128,34752
6129,34816
6130,34880
6131,34944
6132,34944
6133,34880
6134,34880
6135,34816
6136,34816
6137,34688
6138,34624
6139,34496
6140,34432
6141,34432
6142,34368
6143,34304
6144,34240
6145,34176
6146,34112
6147,33984
6148,33856
6149,33728
6150,33728
6151,33664
6152,33600
6153,33600
6154,33536
6155,33536
6156,33536
6157,33536
6158,33536
6159,33536
6160,33600
6161,33600
6162,33664
6163,33728
6164,33728
6165,33664
6166,33728
6167,33728
6168,33792
6169,33856
6170,33920
6171,33984
6172,34048
6173,34048
6174,34112
6175,34176
6176,34176
6177,34176
6178,34176
6179,34240
6180,34240
6181,34304
6182,34304
6183,34304
6184,34368
6185,34368
6186,34368
6187,34368
6188,34368
6189,34368
6190,34368
6191,34368
6192,34368
6193,34368
6194,34368
6195,34368
6196,34304
6197,34304
6198,34368
6199,34368
6200,34304
6201,34304
6202,34240
6203,34176
6204,34176
6205,34240
6206,34240
6207,34176
6208,34240
6209,34240
6210,34240
6211,34176
6212,34176
6213,34176
6214,34240
6215,34240
6216,34240
6217,34368
6218,34496
6219,34560
6220,34624
6221,34624
6222,34624
6223,34688
6224,34816
6225,34944
6226,35072
6227,35136
6228,35200
6229,35200
6230,35200
6231,35200
6232,35136
6233,34944
6234,34752
6235,34560
6236,34240
6237,33920
6238,33728
6239,33536
6240,33408
6241,33408
6242,33408
6243,33472
6244,33472
6245,33536
6246,33600
6247,33600
6248,33664
6249,33728
6250,33728
6251,33728
6252,33664
6253,33536
6254,33344
6255,33344
6256,33856
6257,35072
6258,36992
6259,39872
6260,43392
6261,46656
6262,48384
6263,48256
6264,46208
6265,42560
6266,38208
6267,33920
6268,30400
6269,28416
6270,27264
6271,26944
6272,27328
6273,28160
6274,29120
6275,30080
6276,30848
6277,31488
6278,31936
6279,32320
6280,32512
6281,32704
6282,32832
6283,33024
6284,33152
6285,33280
6286,33408
6287,33536
6288,33600
6289,33664
6290,33728
6291,33792
6292,33856
6293,33856
6294,33920
6295,33984
6296,34048
6297,34112
6298,34176
6299,34176
6300,34240
6301,34368
6302,34432
6303,34560
6304,34560
6305,34560
6306,34560
6307,34624
6308,34624
6309,34624
6310,34688
6311,34688
6312,34752
6313,34752
6314,34752
6315,34688
6316,34624
6317,34560
6318,34432
6319,34368
6320,34304
6321,34240
6322,34176
6323,34112
6324,34048
6325,34048
6326,33984
6327,33984
6328,33920
6329,33856
6330,33856
6331,33792
6332,33792
6333,33728
6334,33664
6335,33664
6336,33664
6337,33664
6338,33664
6339,33664
6340,33664
6341,33728
6342,33728
6343,33728
6344,33792
6345,33792
6346,33856
6347,33984
6348,34048
6349,34112
6350,34240
6351,34304
6352,34304
6353,34304
6354,34304
6355,34368
6356,34368
6357,34432
6358,34496
6359,34496
6360,34496
6361,34496
6362,34560
6363,34624
6364,34624
6365,34624
6366,34624
6367,34624
6368,34560
6369,34560
6370,34560
6371,34560
6372,34496
6373,34496
6374,34496
6375,34496
6376,34432
6377,34432
6378,34368
6379,34304
6380,34304
6381,34304
6382,34304
6383,34304
6384,34368
6385,34368
6386,34368
6387,34304
6388,34304
6389,34304
6390,34304
6391,34304
6392,34304
6393,34304
6394,34304
6395,34304
6396,34368
6397,34368
6398,34368
6399,34304
6400,34368
6401,34432
6402,34496
6403,34624
6404,34752
6405,34816
6406,34880
6407,34880
6408,34880
6409,35008
6410,35072
6411,35136
6412,35200
6413,35264
6414,35328
6415,35328
6416,35264
6417,35136
6418,35008
6419,34816
6420,34688
6421,34496
6422,34240
6423,33984
6424,33792
6425,33600
6426,33600
6427,33536
6428,33536
6429,33600
6430,33664
6431,33728
6432,33728
6433,33728
6434,33792
6435,33792
6436,33792
6437,33792
6438,33664
6439,33408
6440,33280
6441,33664
6442,34624
6443,36416
6444,38976
6445,42432
6446,46080
6447,48576
6448,49024
6449,47552
6450,44288
6451,39808
6452,35264
6453,31424
6454,28800
6455,27328
6456,26816
6457,27072
6458,27904
6459,28864
6460,29888
6461,30656
6462,31296
6463,31808
6464,32192
6465,32512
6466,32768
6467,33024
6468,33152
6469,33280
6470,33408
6471,33536
6472,33600
6473,33664
6474,33728
6475,33792
6476,33856
6477,33920
6478,33920
6479,33984
6480,34048
6481,34112
6482,34176
6483,34240
6484,34240
6485,34304
6486,34304
6487,34432
6488,34496
6489,34560
6490,34560
6491,34624
6492,34688
6493,34752
6494,34752
6495,34816
6496,34880
6497,34880
6498,34880
6499,34816
6500,34816
6501,34752
6502,34624
6503,34560
6504,34496
6505,34432
6506,34304
6507,34176
6508,34176
6509,34112
6510,34048
6511,34048
6512,33984
6513,33920
6514,33792
6515,33728
6516,33664
6517,33664
6518,33664
6519,33600
6520,33600
6521,33664
6522,33664
6523,33600
6524,33600
6525,33600
6526,33664
6527,33664
6528,33664
6529,33664
6530,33728
6531,33792
6532,33856
6533,33856
6534,33920
6535,33984
6536,33984
6537,34048
6538,34112
6539,34176
6540,34240
6541,34304
6542,34304
6543,34304
6544,34304
6545,34368
6546,34368
6547,34432
6548,34432
6549,34432
6550,34432
6551,34496
6552,34432
6553,34432
6554,34432
6555,34432
6556,34368
6557,34368
6558,34368
6559,34304
6560,34304
6561,34304
6562,34304
6563,34304
6564,34304
6565,34304
6566,34304
6567,34304
6568,34304
6569,34240
6570,34240
6571,34240
6572,34240
6573,34176
6574,34176
6575,34240
6576,34240
6577,34240
6578,34240
6579,34240
6580,34304
6581,34304
6582,34304
6583,34304
6584,34304
6585,34304
6586,34304
6587,34368
6588,34496
6589,34624
6590,34688
6591,34752
6592,34816
6593,34880
6594,34944
6595,35072
6596,35136
6597,35136
6598,35136
6599,35200
6600,35264
6601,35264
6602,35136
6603,35008
6604,34880
6605,34688
6606,34496
6607,34304
6608,34048
6609,33792
6610,33600
6611,33536
6612,33536
6613,33536
6614,33536
6615,33536
6616,33600
6617,33664
6618,33664
6619,33728
6620,33728
6621,33792
6622,33792
6623,33728
6624,33600
6625,33472
6626,33536
6627,34112
6628,35264
6629,37184
6630,40000
6631,43520
6632,46848
6633,48704
6634,48448
6635,46336
6636,42496
6637,37888
6638,33536
6639,30144
6640,28032
6641,26944
6642,26816
6643,27328
6644,28288
6645,29312
6646,30272
6647,31040
6648,31616
6649,32064
6650,32384
6651,32640
6652,32896
6653,33024
6654,33088
6655,33152
6656,33280
6657,33344
6658,33408
6659,33536
6660,33600
6661,33728
6662,33792
6663,33856
6664,33856
6665,33920
6666,33984
6667,34048
6668,34048
6669,34112
6670,34176
6671,34176
6672,34240
6673,34368
6674,34432
6675,34496
6676,34560
6677,34560
6678,34624
6679,34688
6680,34688
6681,34752
6682,34752
6683,34752
6684,34752
6685,34752
6686,34688
6687,34624
6688,34560
6689,34432
6690,34304
6691,34240
6692,34176
6693,34048
6694,33984
6695,33920
6696,33856
6697,33792
6698,33792
6699,33728
6700,33664
6701,33664
6702,33600
6703,33600
6704,33536
6705,33472
6706,33472
6707,33472
6708,33472
6709,33536
6710,33536
6711,33600
6712,33600
6713,33664
6714,33728
6715,33728
6716,33728
6717,33792
6718,33792
6719,33856
6720,33920
6721,33920
6722,33920
6723,33920
6724,33984
6725,34048
6726,34048
6727,34112
6728,34176
6729,34240
6730,34304
6731,34304
6732,34368
6733,34368
6734,34432
6735,34432
6736,34496
6737,34432
6738,34432
6739,34432
6740,34432
6741,34432
6742,34432
6743,34368
6744,34368
6745,34304
6746,34304
6747,34176
6748,34176
6749,34176
6750,34176
6751,34176
6752,34176
6753,34176
6754,34176
6755,34176
6756,34176
6757,34176
6758,34176
6759,34176
6760,34176
6761,34240
6762,34240
6763,34240
6764,34240
6765,34240
6766,34240
6767,34240
6768,34240
6769,34240
6770,34240
6771,34240
6772,34240
6773,34240
6774,34368
6775,34496
6776,34560
6777,34688
6778,34752
6779,34752
6780,34752
6781,34816
6782,34944
6783,35008
6784,35072
6785,35072
6786,35136
6787,35200
6788,35136
6789,35072
6790,34944
6791,34816
6792,34688
6793,34496
6794,34240
6795,33984
6796,33728
6797,33600
6798,33536
6799,33472
6800,33472
6801,33536
6802,33536
6803,33600
6804,33664
6805,33728
6806,33792
6807,33728
6808,33792
6809,33792
6810,33664
6811,33472
6812,33216
6813,33344
6814,34048
6815,35520
6816,37952
6817,41216
6818,44864
6819,47808
6820,48896
6821,48064
6822,45312
6823,41280
6824,36800
6825,32832
6826,29888
6827,28032
6828,27200
6829,27136
6830,27648
6831,28544
6832,29568
6833,30400
6834,31168
6835,31744
6836,32192
6837,32512
6838,32768
6839,32960
6840,33088
6841,33280
6842,33408
6843,33536
6844,33600
6845,33664
6846,33664
6847,33792
6848,33856
6849,33920
6850,33984
6851,34048
6852,34048
6853,34112
6854,34112
6855,34176
6856,34304
6857,34304
6858,34368
6859,34432
6860,34496
6861,34560
6862,34624
6863,34752
6864,34752
6865,34816
6866,34880
6867,34944
6868,34944
6869,34944
6870,34880
6871,34880
6872,34816
6873,34816
6874,34752
6875,34688
6876,34624
6877,34496
6878,34368
6879,34240
6880,34176
6881,34112
6882,34048
6883,33984
6884,33920
6885,33856
6886,33856
6887,33792
6888,33728
6889,33664
6890,33664
6891,33664
6892,33664
6893,33600
6894,33600
6895,33600
6896,33664
6897,33664
6898,33664
6899,33664
6900,33600
6901,33600
6902,33600
6903,33664
6904,33792
6905,33920
6906,33984
6907,34048
6908,34048
6909,34048
6910,34112
6911,34176
6912,34304
6913,34368
6914,34368
6915,34304
6916,34304
6917,34368
6918,34368
6919,34432
6920,34432
6921,34432
6922,34432
6923,34432
6924,34432
6925,34496
6926,34496
6927,34496
6928,34496
6929,34432
6930,34432
6931,34368
6932,34304
6933,34304
6934,34304
6935,34240
6936,34240
6937,34240
6938,34240
6939,34240
6940,34176
6941,34176
6942,34176
6943,34176
6944,34176
6945,34176
6946,34304
6947,34368
6948,34496
6949,34624
6950,34688
6951,34688
6952,34688
6953,34752
6954,34816
6955,34880
6956,35008
6957,35072
6958,35200
6959,35264
6960,35200
6961,35072
6962,34880
6963,34688
6964,34560
6965,34368
6966,34112
6967,33856
6968,33664
6969,33536
6970,33472
6971,33472
6972,33472
6973,33536
6974,33664
6975,33728
6976,33728
6977,33728
6978,33728
6979,33792
6980,33792
6981,33792
6982,33728
6983,33536
6984,33344
6985,33472
6986,34112
6987,35584
6988,38272
6989,41280
6990,44608
6991,47424
6992,48512
6993,47744
6994,45184
6995,41216
6996,36864
6997,32832
6998,29888
6999,28096
7000,27200
7001,27200
7002,27712
7003,28672
7004,29504
7005,30336
7006,31104
7007,31680
7008,32128
7009,32512
7010,32704
7011,32832
7012,32960
7013,33152
7014,33280
7015,33408
7016,33536
7017,33600
7018,33664
7019,33728
7020,33856
7021,33920
7022,33984
7023,34048
7024,34112
7025,34176
7026,34176
7027,34240
7028,34304
7029,34368
7030,34432
7031,34496
7032,34560
7033,34560
7034,34624
7035,34688
7036,34752
7037,34816
7038,34880
7039,34880
7040,34880
7041,34944
7042,34880
7043,34816
7044,34816
7045,34688
7046,34624
7047,34496
7048,34496
7049,34368
7050,34304
7051,34176
7052,34112
7053,34048
7054,33984
7055,33856
7056,33792
7057,33792
7058,33728
7059,33600
7060,33600
7061,33536
7062,33536
7063,33472
7064,33472
7065,33472
7066,33472
7067,33536
7068,33536
7069,33600
7070,33664
7071,33728
7072,33728
7073,33728
7074,33792
7075,33856
7076,33856
7077,33984
7078,33920
7079,33984
7080,33984
7081,33984
7082,34048
7083,34112
7084,34112
7085,34240
7086,34304
7087,34368
7088,34368
7089,34432
7090,34432
7091,34560
7092,34624
7093,34560
7094,34496
7095,34432
7096,34432
7097,34432
7098,34432
7099,34368
7100,34304
7101,34240
7102,34240
7103,34240
7104,34304
7105,34304
7106,34304
7107,34240
7108,34304
7109,34432
7110,34560
7111,34624
7112,34688
7113,34688
7114,34688
7115,34752
7116,34944
7117,35008
7118,35008
7119,35072
7120,35136
7121,35136
7122,35136
7123,35008
7124,34880
7125,34752
7126,34624
7127,34496
7128,34176
7129,33920
7130,33664
7131,33600
7132,33536
7133,33600
7134,33600
7135,33600
7136,33600
7137,33600
7138,33536
7139,33664
7140,33728
7141,33728
7142,33728
7143,33728
7144,33664
7145,33536
7146,33344
7147,33536
7148,34176
7149,35520
7150,37632
7151,40640
7152,44352
7153,47552
7154,49024
7155,48320
7156,45760
7157,41536
7158,36800
7159,32576
7160,29504
7161,27776
7162,27008
7163,27136
7164,27904
7165,28928
7166,29824
7167,30720
7168,30720
7169,31616
7170,32000
7171,32256
7172,32512
7173,32704
7174,32896
7175,33088
7176,33216
7177,33344
7178,33408
7179,33536
7180,33600
7181,33664
7182,33792
7183,33856
7184,33920
7185,33984
7186,33984
7187,34048
7188,34112
7189,34112
7190,34176
7191,34240
7192,34304
7193,34368
7194,34432
7195,34560
7196,34624
7197,34688
7198,34688
7199,34752
7200,34816
7201,34944
7202,35072
7203,35008
7204,34944
7205,34880
7206,34816
7207,34688
7208,34688
7209,34560
7210,34496
7211,34368
7212,34240
7213,34240
7214,34112
7215,34048
7216,33984
7217,33856
7218,33728
7219,33728
7220,33600
7221,33472
7222,33408
7223,33344
7224,33280
7225,33280
7226,33280
7227,33280
7228,33280
7229,33280
7230,33344
7231,33408
7232,33472
7233,33536
7234,33536
7235,33600
7236,33664
7237,33664
7238,33792
7239,33792
7240,33856
7241,33920
7242,33984
7243,33984
7244,34112
7245,34112
7246,34112
7247,34176
7248,34176
7249,34176
7250,34176
7251,34240
7252,34240
7253,34304
7254,34304
7255,34304
7256,34304
7257,34304
7258,34304
7259,34304
7260,34304
7261,34368
7262,34368
7263,34368
7264,34432
7265,34496
7266,34560
7267,34688
7268,34752
7269,34816
7270,34752
7271,34752
7272,34880
7273,34944
7274,35008
7275,35008
7276,35072
7277,35072
7278,35136
7279,35072
7280,34880
7281,34752
7282,34560
7283,34368
7284,34112
7285,33856
7286,33600
7287,33472
7288,33344
7289,33344
7290,33408
7291,33408
7292,33472
7293,33600
7294,33664
7295,33664
7296,33664
7297,33664
7298,33728
7299,33728
7300,33728
7301,33600
7302,33408
7303,33408
7304,33792
7305,34688
7306,36416
7307,39040
7308,42624
7309,46144
7310,48448
7311,48640
7312,46848
7313,43264
7314,38720
7315,34176
7316,30656
7317,28096
7318,27904
7319,27072
7320,27520
7321,28416
7322,29440
7323,30272
7324,30976
7325,31488
7326,31936
7327,32256
7328,32576
7329,32768
7330,32960
7331,33088
7332,33216
7333,33152
7334,33408
7335,33472
7336,33536
7337,33664
7338,33792
7339,33856
7340,33984
7341,34048
7342,34112
7343,34112
7344,34112
7345,34176
7346,34240
7347,34304
7348,34368
7349,34432
7350,34496
7351,34560
7352,34624
7353,34688
7354,34752
7355,34816
7356,34880
7357,35008
7358,35008
7359,35008
7360,35072
7361,35008
7362,34944
7363,34816
7364,34688
7365,34624
7366,34560
7367,34432
7368,34368
7369,34240
7370,34176
7371,34112
7372,33984
7373,33920
7374,33856
7375,33792
7376,33664
7377,33536
7378,33472
7379,33408
7380,33408
7381,33344
7382,33344
7383,33408
7384,33408
7385,33408
7386,33408
7387,33408
7388,33472
7389,33472
7390,33536
7391,33600
7392,33600
7393,33600
7394,33664
7395,33728
7396,33856
7397,33920
7398,33920
7399,33920
7400,33984
7401,33984
7402,34048
7403,34112
7404,34112
7405,34176
7406,34176
7407,34240
7408,34240
7409,34240
7410,34240
7411,34304
7412,34304
7413,34304
7414,34304
7415,34304
7416,34304
7417,34304
7418,34304
7419,34304
7420,34304
7421,34304
7422,34304
7423,34304
7424,34240
7425,34240
7426,34368
7427,34496
7428,34560
7429,34560
7430,34560
7431,34624
7432,34752
7433,34880
7434,34944
7435,35072
7436,35136
7437,35200
7438,35136
7439,35136
7440,35072
7441,35008
7442,34816
7443,34624
7444,34368
7445,34112
7446,33792
7447,33600
7448,33472
7449,33408
7450,33408
7451,33472
7452,33536
7453,33536
7454,33600
7455,33664
7456,33664
7457,33728
7458,33728
7459,33728
7460,33728
7461,33728
7462,33536
7463,33344
7464,33280
7465,33728
7466,34752
7467,36608
7468,39296
7469,42880
7470,46272
7471,48256
7472,48256
7473,46400
7474,42880
7475,38464
7476,34112
7477,30720
7478,28480
7479,27328
7480,27072
7481,27456
7482,28416
7483,29248
7484,30144
7485,30848
7486,31424
7487,31872
7488,32192
7489,32448
7490,32640
7491,32832
7492,32960
7493,33152
7494,33280
7495,33408
7496,33472
7497,33600
7498,33664
7499,33664
7500,33728
7501,33792
7502,33856
7503,33920
7504,33984
7505,33984
7506,34048
7507,34112
7508,34176
7509,34176
7510,34304
7511,34304
7512,34368
7513,34432
7514,34560
7515,34624
7516,34688
7517,34688
7518,34688
7519,34688
7520,34688
7521,34688
7522,34688
7523,34688
7524,34624
7525,34496
7526,34432
7527,34304
7528,34240
7529,34176
7530,34112
7531,34048
7532,33984
7533,33920
7534,33856
7535,33856
7536,33792
7537,33728
7538,33728
7539,33664
7540,33600
7541,33472
7542,33472
7543,33408
7544,33408
7545,33408
7546,33408
7547,33472
7548,33472
7549,33472
7550,33536
7551,33600
7552,33664
7553,33728
7554,33728
7555,33792
7556,33856
7557,33920
7558,33920
7559,33984
7560,34048
7561,34112
7562,34112
7563,34176
7564,34176
7565,34240
7566,34304
7567,34304
7568,34304
7569,34368
7570,34368
7571,34304
7572,34368
7573,34368
7574,34368
7575,34368
7576,34368
7577,34368
7578,34368
7579,34304
7580,34304
7581,34304
7582,34240
7583,34240
7584,34176
7585,34176
7586,34112
7587,34112
7588,34048
7589,34176
7590,34304
7591,34432
7592,34496
7593,34496
7594,34496
7595,34560
7596,34688
7597,34816
7598,34944
7599,35072
7600,35200
7601,35200
7602,35200
7603,35136
7604,35072
7605,34880
7606,34624
7607,34368
7608,34048
7609,33728
7610,33600
7611,33472
7612,33344
7613,33344
7614,33344
7615,33408
7616,33408
7617,33536
7618,33600
7619,33664
7620,33664
7621,33664
7622,33664
7623,33728
7624,33664
7625,33536
7626,33344
7627,33216
7628,33536
7629,34432
7630,36224
7631,38976
7632,43648
7633,43776
7634,48000
7635,48320
7636,46784
7637,43520
7638,39296
7639,35008
7640,31488
7641,29056
7642,27712
7643,27264
7644,27456
7645,28160
7646,29184
7647,30272
7648,30848
7649,31488
7650,31936
7651,32320
7652,32640
7653,32896
7654,33088
7655,33216
7656,33344
7657,33472
7658,33536
7659,33600
7660,33728
7661,33856
7662,33920
7663,33984
7664,34048
7665,34112
7666,34176
7667,34240
7668,34304
7669,34368
7670,34368
7671,34368
7672,34432
7673,34496
7674,34560
7675,34624
7676,34688
7677,34752
7678,34752
7679,34816
7680,34880
7681,34944
7682,35008
7683,35008
7684,34944
7685,34944
7686,34816
7687,34752
7688,34688
7689,34624
7690,34496
7691,34368
7692,34240
7693,34176
7694,34176
7695,34112
7696,34048
7697,34048
7698,34048
7699,33984
7700,33920
7701,33856
7702,33792
7703,33792
7704,33728
7705,33728
7706,33664
7707,33600
7708,33600
7709,33600
7710,33664
7711,33664
7712,33664
7713,33728
7714,33728
7715,33728
7716,33792
7717,33792
7718,33856
7719,33920
7720,33984
7721,34048
7722,34112
7723,34176
7724,34176
7725,34176
7726,34240
7727,34240
7728,34304
7729,34368
7730,34368
7731,34432
7732,34432
7733,34432
7734,34432
7735,34432
7736,34496
7737,34496
7738,34432
7739,34432
7740,34432
7741,34432
7742,34432
7743,34368
7744,34368
7745,34304
7746,34304
7747,34304
7748,34240
7749,34240
7750,34240
7751,34240
7752,34176
7753,34112
7754,34176
7755,34240
7756,34304
7757,34432
7758,34560
7759,34624
7760,34624
7761,34624
7762,34688
7763,34816
7764,34944
7765,35072
7766,35264
7767,35328
7768,35328
7769,35328
7770,35264
7771,35072
7772,34880
7773,34688
7774,34496
7775,34240
7776,33984
7777,33728
7778,33536
7779,33408
7780,33408
7781,33472
7782,33472
7783,33472
7784,33536
7785,33600
7786,33664
7787,33728
7788,33728
7789,33728
7790,33728
7791,33792
7792,33728
7793,33536
7794,33344
7795,33472
7796,34112
7797,35968
7798,37312
7799,40256
7800,43904
7801,47168
7802,48704
7803,48192
7804,45888
7805,42048
7806,37504
7807,33280
7808,30080
7809,28160
7810,27200
7811,27136
7812,28096
7813,28224
7814,29568
7815,30400
7816,31104
7817,31616
7818,32000
7819,32320
7820,32576
7821,32768
7822,32960
7823,33152
7824,33280
7825,33344
7826,33408
7827,33536
7828,33600
7829,33664
7830,33728
7831,33792
7832,33792
7833,33856
7834,33920
7835,33984
7836,34048
7837,34112
7838,34176
7839,34240
7840,34304
7841,34304
7842,34432
7843,34368
7844,34496
7845,34560
7846,34560
7847,34624
7848,34688
7849,34688
7850,34688
7851,34688
7852,34688
7853,34688
7854,34688
7855,34624
7856,34560
7857,34432
7858,34368
7859,34240
7860,34176
7861,34112
7862,34048
7863,33984
7864,33920
7865,33856
7866,33856
7867,33792
7868,33728
7869,33728
7870,33664
7871,33600
7872,33536
7873,33472
7874,33472
7875,33472
7876,33472
7877,33472
7878,33472
7879,33472
7880,33536
7881,33536
7882,33600
7883,33600
7884,33664
7885,33728
7886,33792
7887,33856
7888,33920
7889,33984
7890,34048
7891,34112
7892,34112
7893,34112
7894,34176
7895,34176
7896,34176
7897,34240
7898,34240
7899,34304
7900,34304
7901,34304
7902,34304
7903,34304
7904,34304
7905,34368
7906,34368
7907,34368
7908,34368
7909,34368
7910,34368
7911,34304
7912,34304
7913,34304
7914,34240
7915,34176
7916,34176
7917,34176
7918,34176
7919,34176
7920,34176
7921,34176
7922,34176
7923,34176
7924,34176
7925,34240
7926,34240
7927,34304
7928,34432
7929,34496
7930,34560
7931,34560
7932,34560
7933,34624
7934,34816
7935,34944
7936,35136
7937,35200
7938,35264
7939,35328
7940,35264
7941,35200
7942,35072
7943,34880
7944,34688
7945,34432
7946,34112
7947,33792
7948,33536
7949,33408
7950,33344
7951,33344
7952,33408
7953,33408
7954,33472
7955,33536
7956,33600
7957,33600
7958,33664
7959,33664
7960,33728
7961,33728
7962,33664
7963,33600
7964,33408
7965,33280
7966,33472
7967,34240
7968,35904
7969,38400
7970,41792
7971,45376
7972,47936
7973,48576
7974,47424
7975,44416
7976,40256
7977,35840
7978,32000
7979,29376
7980,27840
7981,27200
7982,27328
7983,27968
7984,28928
7985,29824
7986,30656
7987,31296
7988,31808
7989,32192
7990,32512
7991,32704
7992,32896
7993,33088
7994,33280
7995,33344
7996,33536
7997,33600
7998,33664
7999,33728
8000,33856
8001,33920
8002,33984
8003,34112
8004,34112
8005,34176
8006,34240
8007,34240
8008,34304
8009,34368
8010,34368
8011,34432
8012,34496
8013,34560
8014,34624
8015,34624
8016,34688
8017,34752
8018,34816
8019,34880
8020,34944
8021,34944
8022,34944
8023,34880
8024,34880
8025,34752
8026,34688
8027,34560
8028,34432
8029,34304
8030,34240
8031,34176
8032,34112
8033,34048
8034,34048
8035,33984
8036,33920
8037,33856
8038,33856
8039,33856
8040,33792
8041,33728
8042,33664
8043,33600
8044,33536
8045,33536
8046,33536
8047,33536
8048,33536
8049,33536
8050,33600
8051,33600
8052,33664
8053,33728
8054,33792
8055,33856
8056,33920
8057,34048
8058,34112
8059,34112
8060,34176
8061,34176
8062,34176
8063,34240
8064,34240
8065,34304
8066,34304
8067,34368
8068,34368
8069,34432
8070,34432
8071,34432
8072,34432
8073,34496
8074,34496
8075,34496
8076,34496
8077,34496
8078,34432
8079,34432
8080,34368
8081,34368
8082,34432
8083,34368
8084,34368
8085,34304
8086,34240
8087,34240
8088,34240
8089,34240
8090,34176
8091,34176
8092,34176
8093,34112
8094,34176
8095,34176
8096,34176
8097,34304
8098,34368
8099,34496
8100,34560
8101,34624
8102,34688
8103,34752
8104,34880
8105,35008
8106,35136
8107,35200
8108,35328
8109,35328
8110,35392
8111,35328
8112,35200
8113,35008
8114,34752
8115,34496
8116,34240
8117,33984
8118,33792
8119,33664
8120,33536
8121,33472
8122,33472
8123,33472
8124,33536
8125,33600
8126,33664
8127,33664
8128,33728
8129,33728
8130,33792
8131,33792
8132,33792
8133,33728
8134,33536
8135,33344
8136,33408
8137,33984
8138,35264
8139,37376
8140,40384
8141,44032
8142,47232
8143,48704
8144,48192
8145,45824
8146,41984
8147,37440
8148,33216
8149,30016
8150,28032
8151,27136
8152,27008
8153,27584
8154,28544
8155,29568
8156,30400
8157,31104
8158,31616
8159,32064
8160,32384
8161,32640
8162,32896
8163,33024
8164,33152
8165,33280
8166,33408
8167,33472
8168,33600
8169,33664
8170,33728
8171,33792
8172,33856
8173,33920
8174,33920
8175,33984
8176,34048
8177,34112
8178,34176
8179,34176
8180,34240
8181,34368
8182,34432
8183,34560
8184,34624
8185,34624
8186,34688
8187,34688
8188,34752
8189,34816
8190,34880
8191,34880
8192,34880
8193,34880
8194,34816
8195,34752
8196,34688
8197,34624
8198,34560
8199,34496
8200,34368
8201,34304
8202,34240
8203,34176
8204,34048
8205,34048
8206,33984
8207,33920
8208,33856
8209,33792
8210,33728
8211,33664
8212,33664
8213,33600
8214,33600
8215,33600
8216,33600
8217,33600
8218,33600
8219,33600
8220,33600
8221,33600
8222,33664
8223,33728
8224,33728
8225,33792
8226,33856
8227,33856
8228,33920
8229,33920
8230,33984
8231,34048
8232,34112
8233,34176
8234,34176
8235,34240
8236,34240
8237,34304
8238,34304
8239,34304
8240,34304
8241,34304
8242,34368
8243,34432
8244,34432
8245,34432
8246,34496
8247,34496
8248,34432
8249,34368
8250,34368
8251,34368
8252,34368
8253,34304
8254,34304
8255,34304
8256,34240
8257,34240
8258,34240
8259,34176
8260,34176
8261,34176
8262,34176
8263,34176
8264,34176
8265,34240
8266,34240
8267,34240
8268,34240
8269,34176
8270,34240
8271,34304
8272,34432
8273,34496
8274,34624
8275,34624
8276,34688
8277,34752
8278,34880
8279,34944
8280,35072
8281,35136
8282,35200
8283,35264
8284,35264
8285,35200
8286,35136
8287,35008
8288,34880
8289,34624
8290,34368
8291,34048
8292,33728
8293,33536
8294,33408
8295,33408
8296,33408
8297,33408
8298,33408
8299,33472
8300,33472
8301,33536
8302,33536
8303,33600
8304,33600
8305,33664
8306,33664
8307,33600
8308,33536
8309,33344
8310,33344
8311,33728
8312,34688
8313,36352
8314,38912
8315,42304
8316,45824
8317,48128
8318,48512
8319,46976
8320,43648
8321,39104
8322,34752
8323,31040
8324,28608
8325,27328
8326,26880
8327,27264
8328,28096
8329,29056
8330,29952
8331,30720
8332,31296
8333,31744
8334,32192
8335,32448
8336,32704
8337,32896
8338,33024
8339,33088
8340,33216
8341,33280
8342,33408
8343,33472
8344,33536
8345,33664
8346,33728
8347,33792
8348,33856
8349,33920
8350,33920
8351,33984
8352,34048
8353,34112
8354,34240
8355,34304
8356,34304
8357,34368
8358,34368
8359,34432
8360,34496
8361,34560
8362,34560
8363,34624
8364,34688
8365,34624
8366,34688
8367,34688
8368,34688
8369,34624
8370,34560
8371,34496
8372,34368
8373,34304
8374,34240
8375,34176
8376,34112
8377,34048
8378,33984
8379,33920
8380,33920
8381,33856
8382,33792
8383,33728
8384,33664
8385,33600
8386,33536
8387,33536
8388,33472
8389,33408
8390,33408
8391,33472
8392,33472
8393,33472
8394,33536
8395,33600
8396,33664
8397,33664
8398,33728
8399,33728
8400,33792
8401,33792
8402,33856
8403,33920
8404,33920
8405,33984
8406,34048
8407,34048
8408,34112
8409,34176
8410,34176
8411,34176
8412,34240
8413,34240
8414,34240
8415,34304
8416,34304
8417,34304
8418,34304
8419,34304
8420,34368
8421,34304
8422,34304
8423,34304
8424,34304
8425,34304
8426,34304
8427,34304
8428,34240
8429,34240
8430,34176
8431,34176
8432,34112
8433,34112
8434,34112
8435,34112
8436,34112
8437,34112
8438,34112
8439,34112
8440,34112
8441,34112
8442,34112
8443,34176
8444,34176
8445,34176
8446,34240
8447,34240
8448,34240
8449,34240
8450,34368
8451,34496
8452,34688
8453,34688
8454,34624
8455,34624
8456,34752
8457,34880
8458,35008
8459,35136
8460,35200
8461,35264
8462,35264
8463,35264
8464,35200
8465,35008
8466,34816
8467,34624
8468,34368
8469,34048
8470,33792
8471,33664
8472,33536
8473,33472
8474,33472
8475,33472
8476,33536
8477,33536
8478,33600
8479,33664
8480,33664
8481,33728
8482,33728
8483,33792
8484,33792
8485,33664
8486,33472
8487,33152
8488,33088
8489,33536
8490,34688
8491,36736
8492,39680
8493,43328
8494,46784
8495,48768
8496,48768
8497,46784
8498,43200
8499,38720
8500,34432
8501,30848
8502,28736
8503,27456
8504,27072
8505,27456
8506,28224
8507,29248
8508,30144
8509,30912
8510,31488
8511,32000
8512,32320
8513,32576
8514,32768
8515,32896
8516,33088
8517,33280
8518,33408
8519,33408
8520,33408
8521,33472
8522,33536
8523,33600
8524,33792
8525,33984
8526,34048
8527,34048
8528,34048
8529,34112
8530,34176
8531,34240
8532,34304
8533,34304
8534,34368
8535,34432
8536,34496
8537,34560
8538,34624
8539,34624
8540,34688
8541,34688
8542,34752
8543,34816
8544,34816
8545,34816
8546,34752
8547,34752
8548,34624
8549,34560
8550,34432
8551,34368
8552,34240
8553,34176
8554,34112
8555,33984
8556,33920
8557,33856
8558,33856
8559,33856
8560,33856
8561,33792
8562,33728
8563,33664
8564,33664
8565,33664
8566,33664
8567,33664
8568,33664
8569,33664
8570,33664
8571,33664
8572,33664
8573,33664
8574,33728
8575,33792
8576,33792
8577,33856
8578,33856
8579,33920
8580,33920
8581,33984
8582,34048
8583,34112
8584,34176
8585,34176
8586,34176
8587,34240
8588,34304
8589,34304
8590,34368
8591,34368
8592,34368
8593,34432
8594,34368
8595,34432
8596,34432
8597,34432
8598,34432
8599,34432
8600,34432
8601,34432
8602,34368
8603,34368
8604,34304
8605,34368
8606,34304
8607,34304
8608,34304
8609,34304
8610,34304
8611,34304
8612,34240
8613,34112
8614,34112
8615,34176
8616,34368
8617,34560
8618,34688
8619,34624
8620,34624
8621,34688
8622,34816
8623,34944
8624,35072
8625,35072
8626,35072
8627,35072
8628,35008
8629,35008
8630,34944
8631,34816
8632,34624
8633,34496
8634,34240
8635,33984
8636,33728
8637,33600
8638,33536
8639,33536
8640,33472
8641,33536
8642,33600
8643,33600
8644,33664
8645,33664
8646,33728
8647,33728
8648,33792
8649,33792
8650,33792
8651,33728
8652,33472
8653,33280
8654,33344
8655,33920
8656,35264
8657,37440
8658,40576
8659,44288
8660,47552
8661,49088
8662,48512
8663,46016
8664,41920
8665,37248
8666,32960
8667,29824
8668,27968
8669,27136
8670,27200
8671,27840
8672,28800
8673,29760
8674,30528
8675,31168
8676,31680
8677,32064
8678,32384
8679,32576
8680,32832
8681,33024
8682,33152
8683,33280
8684,33408
8685,33536
8686,33664
8687,33728
8688,33792
8689,33856
8690,33856
8691,33920
8692,33920
8693,33984
8694,34048
8695,34112
8696,34240
8697,34240
8698,34240
8699,34240
8700,34240
8701,34368
8702,34432
8703,34496
8704,34560
8705,34688
8706,34688
8707,34752
8708,34816
8709,34816
8710,34752
8711,34752
8712,34752
8713,34688
8714,34688
8715,34624
8716,34560
8717,34432
8718,34304
8719,34240
8720,34112
8721,34048
8722,33984
8723,33920
8724,33856
8725,33792
8726,33792
8727,33728
8728,33664
8729,33664
8730,33600
8731,33536
8732,33536
8733,33536
8734,33536
8735,33536
8736,33536
8737,33600
8738,33600
8739,33600
8740,33664
8741,33728
8742,33728
8743,33792
8744,33792
8745,33856
8746,33920
8747,33984
8748,34112
8749,34112
8750,34112
8751,34176
8752,34176
8753,34176
8754,34112
8755,34048
8756,34048
8757,34048
8758,34048
8759,34112
8760,34176
8761,34240
8762,34304
8763,34368
8764,34368
8765,34432
8766,34432
8767,34368
8768,34368
8769,34368
8770,34304
8771,34240
8772,34240
8773,34240
8774,34240
8775,34240
8776,34304
8777,34432
8778,34560
8779,34688
8780,34752
8781,34688
8782,34688
8783,34752
8784,34880
8785,35008
8786,35136
8787,35200
8788,35264
8789,35264
8790,35200
8791,35136
8792,34944
8793,34752
8794,34560
8795,34304
8796,33984
8797,33728
8798,33536
8799,33408
8800,33408
8801,33408
8802,33472
8803,33472
8804,33536
8805,33600
8806,33664
8807,33664
8808,33664
8809,33728
8810,33792
8811,33792
8812,33728
8813,33536
8814,33280
8815,33216
8816,33728
8817,34816
8818,36800
8819,39616
8820,43328
8821,46784
8822,48704
8823,48576
8824,46464
8825,42624
8826,38080
8827,33792
8828,30464
8829,28416
8830,27456
8831,27264
8832,27712
8833,28672
8834,29632
8835,30464
8836,31104
8837,31616
8838,32064
8839,32384
8840,32640
8841,32768
8842,32960
8843,33088
8844,33216
8845,33344
8846,33408
8847,33600
8848,33664
8849,33728
8850,33664
8851,33728
8852,33792
8853,33856
8854,33984
8855,34048
8856,34112
8857,34112
8858,34240
8859,34368
8860,34432
8861,34432
8862,34624
8863,34560
8864,34624
8865,34688
8866,34752
8867,34816
8868,34880
8869,34944
8870,35072
8871,35136
8872,35136
8873,35136
8874,35072
8875,35072
8876,34880
8877,34688
8878,34560
8879,34432
8880,34368
8881,34304
8882,34240
8883,34176
8884,34112
8885,34048
8886,33920
8887,33856
8888,33728
8889,33472
8890,33408
8891,33408
8892,33472
8893,33408
8894,33472
8895,33472
8896,33536
8897,33472
8898,33472
8899,33472
8900,33536
8901,33600
8902,33664
8903,33728
8904,33792
8905,33920
8906,33856
8907,33984
8908,34112
8909,34048
8910,34112
8911,34048
8912,34048
8913,34176
8914,34240
8915,34304
8916,34304
8917,34304
8918,34368
8919,34432
8920,34432
8921,34432
8922,34432
8923,34368
8924,34304
8925,34304
8926,34304
8927,34368
8928,34432
8929,34496
8930,34496
8931,34560
8932,34560
8933,34560
8934,34624
8935,34688
8936,34752
8937,34816
8938,34880
8939,34944
8940,35072
8941,35136
8942,35136
8943,35200
8944,35328
8945,35392
8946,35392
8947,35136
8948,34880
8949,34688
8950,34560
8951,34368
8952,34112
8953,34048
8954,33664
8955,33536
8956,33408
8957,33344
8958,33408
8959,33536
8960,33728
8961,33792
8962,33728
8963,33728
8964,33792
8965,33728
8966,33728
8967,33664
8968,33536
8969,33472
8970,33472
8971,33728
8972,34304
8973,35392
8974,37248
8975,40256
8976,43904
8977,47232
8978,48896
8979,48448
8980,46272
8981,42560
8982,38144
8983,33920
8984,30592
8985,28544
8986,27648
8987,27584
8988,28160
8989,29056
8990,30016
8991,30912
8992,31552
8993,32128
8994,32512
8995,32768
8996,33088
8997,33408
8998,33344
8999,33728
9000,33728
9001,33856
9002,33984
9003,33920
9004,33728
9005,33792
9006,33920
9007,34048
9008,34048
9009,34048
9010,34240
9011,34368
9012,34240
9013,34176
9014,34240
9015,34240
9016,34240
9017,34304
9018,34432
9019,34560
9020,34688
9021,34752
9022,34752
9023,34688
9024,34688
9025,34624
9026,34624
9027,34624
9028,34688
9029,34688
9030,34688
9031,34688
9032,34624
9033,34496
9034,34432
9035,34368
9036,34304
9037,34304
9038,34304
9039,34240
9040,34176
9041,34112
9042,34048
9043,33920
9044,33856
9045,33856
9046,33856
9047,33792
9048,33664
9049,33536
9050,33408
9051,33536
9052,33408
9053,33408
9054,33472
9055,33344
9056,32960
9057,32896
9058,33216
9059,33600
9060,33920
9061,33920
9062,33920
9063,33984
9064,34048
9065,34176
9066,34240
9067,34304
9068,34304
9069,34368
9070,34432
9071,34432
9072,34432
9073,34368
9074,34432
9075,34368
9076,34368
9077,34368
9078,34368
9079,34496
9080,34496
9081,34496
9082,34496
9083,34624
9084,34752
9085,34816
9086,34944
9087,34944
9088,34880
9089,34880
9090,34880
9091,35008
9092,35072
9093,35072
9094,35072
9095,35136
9096,35136
9097,35136
9098,35008
9099,34816
9100,34560
9101,34432
9102,34240
9103,34176
9104,33792
9105,33472
9106,33280
9107,33216
9108,33152
9109,33152
9110,33152
9111,33216
9112,33280
9113,33344
9114,33344
9115,33280
9116,33152
9117,33088
9118,33152
9119,33216
9120,33280
9121,33408
9122,33728
9123,34432
9124,35264
9125,36608
9126,39168
9127,42624
9128,45888
9129,47232
9130,46528
9131,44032
9132,39872
9133,35712
9134,31680
9135,28928
9136,27520
9137,27136
9138,27520
9139,28224
9140,29056
9141,29888
9142,30592
9143,31168
9144,31808
9145,32384
9146,32832
9147,33216
9148,33472
9149,33664
9150,33792
9151,33728
9152,33408
9153,33024
9154,32832
9155,32896
9156,33024
9157,33024
9158,33152
9159,33280
9160,33408
9161,33536
9162,33664
9163,33600
9164,33536
9165,33536
9166,33664
9167,33728
9168,33728
9169,33728
9170,33728
9171,33600
9172,33600
9173,33728
9174,33920
9175,34048
9176,34112
9177,34048
9178,34048
9179,34176
9180,34304
9181,34368
9182,34432
9183,34688
9184,34944
9185,35200
9186,35200
9187,35264
9188,35392
9189,35520
9190,35648
9191,35712
9192,35648
9193,35520
9194,35392
9195,35200
9196,35008
9197,34880
9198,34688
9199,34560
9200,34496
9201,34432
9202,34432
9203,34304
9204,34240
9205,34176
9206,34176
9207,34240
9208,34176
9209,34368
9210,34432
9211,34496
9212,34496
9213,34496
9214,34496
9215,34496
9216,34560
9217,34624
9218,34688
9219,34688
9220,34688
9221,34688
9222,34560
9223,34560
9224,34496
9225,34432
9226,34368
9227,34368
9228,34368
9229,34368
9230,34368
9231,34496
9232,34624
9233,34688
9234,34752
9235,34816
9236,34880
9237,34944
9238,34880
9239,35072
9240,35200
9241,35200
9242,35264
9243,35328
9244,35328
9245,35328
9246,35136
9247,34944
9248,34816
9249,34688
9250,34432
9251,34048
9252,33728
9253,33536
9254,33472
9255,33408
9256,33408
9257,33472
9258,33472
9259,33536
9260,33600
9261,33728
9262,33664
9263,33664
9264,33728
9265,33728
9266,33792
9267,33664
9268,33600
9269,33280
9270,33088
9271,33280
9272,34368
9273,36608
9274,39808
9275,43584
9276,47104
9277,49024
9278,48832
9279,46592
9280,42816
9281,38400
9282,33792
9283,31104
9284,28864
9285,27840
9286,27520
9287,27712
9288,28480
9289,29440
9290,30336
9291,31104
9292,31744
9293,32320
9294,32832
9295,33216
9296,33344
9297,33344
9298,33408
9299,33472
9300,33536
9301,33664
9302,33792
9303,33920
9304,34048
9305,34112
9306,34240
9307,34240
9308,34304
9309,34304
9310,34368
9311,34368
9312,34496
9313,34496
9314,34688
9315,34688
9316,34688
9317,34688
9318,34688
9319,34752
9320,34752
9321,34752
9322,34752
9323,34752
9324,34752
9325,34752
9326,34752
9327,34752
9328,34688
9329,34496
9330,34304
9331,34240
9332,34240
9333,34176
9334,34176
9335,34176
9336,34176
9337,34304
9338,34432
9339,34560
9340,34496
9341,34432
9342,34432
9343,34368
9344,34240
9345,34112
9346,33984
9347,33792
9348,33664
9349,33728
9350,33856
9351,34048
9352,34176
9353,34240
9354,34176
9355,34112
9356,34112
9357,34368
9358,35008
9359,35520
9360,35584
9361,35520
9362,35328
9363,34816
9364,33920
9365,33280
9366,32896
9367,32768
9368,32896
9369,33152
9370,33408
9371,33856
9372,34432
9373,34432
9374,35264
9375,35520
9376,35648
9377,35648
9378,35456
9379,35520
9380,35840
9381,35968
9382,35520
9383,34944
9384,34624
9385,34816
9386,35392
9387,35904
9388,35840
9389,35008
9390,34432
9391,33856
9392,33280
9393,32896
9394,32768
9395,32768
9396,32768
9397,32832
9398,32832
9399,33088
9400,33856
9401,34624
9402,34688
9403,34176
9404,33984
9405,33664
9406,33344
9407,33152
9408,32960
9409,32704
9410,32640
9411,32512
9412,32320
9413,32512
9414,33408
9415,35392
9416,38464
9417,42688
9418,45696
9419,48448
9420,49088
9421,47808
9422,44864
9423,40832
9424,36608
9425,32832
9426,29952
9427,28224
9428,27392
9429,27328
9430,27904
9431,28992
9432,30016
9433,30656
9434,31296
9435,31808
9436,32128
9437,32448
9438,32768
9439,32896
9440,33024
9441,33216
9442,33408
9443,33536
9444,33536
9445,33600
9446,33664
9447,33792
9448,33856
9449,33792
9450,33856
9451,33984
9452,33920
9453,33920
9454,33984
9455,34048
9456,34048
9457,34112
9458,34176
9459,34240
9460,34304
9461,34432
9462,34624
9463,34688
9464,34560
9465,34432
9466,34368
9467,34368
9468,34432
9469,34368
9470,34304
9471,34368
9472,34368
9473,34240
9474,33984
9475,33664
9476,33600
9477,33600
9478,33536
9479,33536
9480,33536
9481,33536
9482,33600
9483,33664
9484,33792
9485,33792
9486,33728
9487,33728
9488,33728
9489,33728
9490,33664
9491,33600
9492,33600
9493,33600
9494,33664
9495,33664
9496,33664
9497,33664
9498,33664
9499,33728
9500,33792
9501,33856
9502,33920
9503,33920
9504,33984
9505,34048
9506,34048
9507,34112
9508,34176
9509,34176
9510,34112
9511,34112
9512,34176
9513,34304
9514,34432
9515,34496
9516,34560
9517,34560
9518,34560
9519,34624
9520,34688
9521,34816
9522,34880
9523,34816
9524,34944
9525,34880
9526,34944
9527,34880
9528,34816
9529,34688
9530,34496
9531,34304
9532,34048
9533,33664
9534,33344
9535,33152
9536,33024
9537,33024
9538,33088
9539,33152
9540,33216
9541,33216
9542,33216
9543,33280
9544,33344
9545,33408
9546,33408
9547,33472
9548,33472
9549,33408
9550,33088
9551,32832
9552,33088
9553,33664
9554,35200
9555,37696
9556,41152
9557,44992
9558,48128
9559,49408
9560,48576
9561,45760
9562,41472
9563,36736
9564,32512
9565,29440
9566,27584
9567,26816
9568,26880
9569,27520
9570,28544
9571,29568
9572,30400
9573,31040
9574,31552
9575,31936
9576,32256
9577,32512
9578,32704
9579,32832
9580,32960
9581,33088
9582,33152
9583,33280
9584,33344
9585,33408
9586,33536
9587,33600
9588,33664
9589,33728
9590,33856
9591,33856
9592,33920
9593,33984
9594,34048
9595,34112
9596,34176
9597,34240
9598,34240
9599,34304
9600,34304
9601,34304
9602,34304
9603,34304
9604,34368
9605,34368
9606,34432
9607,34496
9608,34432
9609,34368
9610,34304
9611,34304
9612,34240
9613,34176
9614,34048
9615,33920
9616,33792
9617,33728
9618,33728
9619,33728
9620,33664
9621,33664
9622,33664
9623,33664
9624,33664
9625,33664
9626,33600
9627,33600
9628,33536
9629,33536
9630,33536
9631,33600
9632,33600
9633,33600
9634,33664
9635,33664
9636,33664
9637,33728
9638,33728
9639,33792
9640,33920
9641,33920
9642,33984
9643,33984
9644,33920
9645,33920
9646,33984
9647,34048
9648,34112
9649,34048
9650,34048
9651,34176
9652,34304
9653,34432
9654,34560
9655,34624
9656,34624
9657,34688
9658,34624
9659,34880
9660,35008
9661,35008
9662,35072
9663,35072
9664,35136
9665,35136
9666,35072
9667,34880
9668,34752
9669,34624
9670,34432
9671,34176
9672,33856
9673,33536
9674,33344
9675,33216
9676,33216
9677,33152
9678,33152
9679,33152
9680,33216
9681,33280
9682,33344
9683,33472
9684,33600
9685,33664
9686,33664
9687,33536
9688,33344
9689,33088
9690,32960
9691,33408
9692,34624
9693,36864
9694,40000
9695,43904
9696,47424
9697,49472
9698,49408
9699,47232
9700,43328
9701,38592
9702,32320
9703,30528
9704,28224
9705,27072
9706,26816
9707,27264
9708,28160
9709,29184
9710,30016
9711,30720
9712,31296
9713,31744
9714,32064
9715,32384
9716,32576
9717,32768
9718,32896
9719,33088
9720,33216
9721,33280
9722,33344
9723,33472
9724,33536
9725,33600
9726,33664
9727,33728
9728,33792
9729,33856
9730,33920
9731,34048
9732,34112
9733,34112
9734,34176
9735,34176
9736,34176
9737,34240
9738,34304
9739,34368
9740,34432
9741,34496
9742,34624
9743,34624
9744,34624
9745,34624
9746,34560
9747,34496
9748,34432
9749,34368
9750,34240
9751,34112
9752,34048
9753,33984
9754,33920
9755,33856
9756,33856
9757,33856
9758,33856
9759,33856
9760,33792
9761,33792
9762,33728
9763,33664
9764,33664
9765,33664
9766,33600
9767,33600
9768,33536
9769,33536
9770,33536
9771,33536
9772,33536
9773,33536
9774,33600
9775,33664
9776,33728
9777,33792
9778,33856
9779,33856
9780,33920
9781,33984
9782,34048
9783,34048
9784,34048
9785,34048
9786,34048
9787,34112
9788,34176
9789,34368
9790,34496
9791,34560
9792,34624
9793,34624
9794,34688
9795,34752
9796,34880
9797,35008
9798,35072
9799,35072
9800,35136
9801,35136
9802,35200
9803,35136
9804,35008
9805,34880
9806,34752
9807,34432
9808,34368
9809,33984
9810,33664
9811,33408
9812,33216
9813,33088
9814,33088
9815,33088
9816,33152
9817,33216
9818,33280
9819,33344
9820,33344
9821,33344
9822,33408
9823,33472
9824,33472
9825,33344
9826,32960
9827,32768
9828,32896
9829,33792
9830,35648
9831,38464
9832,42240
9833,46144
9834,48896
9835,49536
9836,47936
9837,42432
9838,40128
9839,35520
9840,31616
9841,28864
9842,27328
9843,26816
9844,27072
9845,27840
9846,28800
9847,29696
9848,30400
9849,30976
9850,31360
9851,31744
9852,32064
9853,32256
9854,32512
9855,32640
9856,32832
9857,32960
9858,33088
9859,33216
9860,33280
9861,33344
9862,33472
9863,33536
9864,33664
9865,33728
9866,33728
9867,33792
9868,33856
9869,33920
9870,33984
9871,33984
9872,34048
9873,34112
9874,34176
9875,34176
9876,34240
9877,34304
9878,34368
9879,34368
9880,34368
9881,34368
9882,34368
9883,34304
9884,34304
9885,34240
9886,34176
9887,34048
9888,33984
9889,33920
9890,33856
9891,33792
9892,33728
9893,33728
9894,33728
9895,33728
9896,33664
9897,33600
9898,33536
9899,33536
9900,33536
9901,33536
9902,33472
9903,33472
9904,33408
9905,33344
9906,33408
9907,33408
9908,33408
9909,33472
9910,33472
9911,33536
9912,33536
9913,33664
9914,33728
9915,33664
9916,33664
9917,33728
9918,33792
9919,33856
9920,33920
9921,33920
9922,33984
9923,33984
9924,33920
9925,33920
9926,33984
9927,34048
9928,34176
9929,34368
9930,34560
9931,34624
9932,34560
9933,34560
9934,34624
9935,34752
9936,34880
9937,34880
9938,34880
9939,34944
9940,34944
9941,34944
9942,34816
9943,34752
9944,34624
9945,34432
9946,34240
9947,34048
9948,33792
9949,33472
9950,33280
9951,33216
9952,33152
9953,33152
9954,33152
9955,33152
9956,33216
9957,33280
9958,33280
9959,33344
9960,33408
9961,33408
9962,33472
9963,33408
9964,33280
9965,32896
9966,32768
9967,33088
9968,34176
9969,36224
9970,39232
9971,43328
9972,46720
9973,48896
9974,48960
9975,47040
9976,43392
9977,38848
9978,34432
9979,30784
9980,28416
9981,27136
9982,26752
9983,27072
9984,27904
9985,28864
9986,29760
9987,30464
9988,31168
9989,31552
9990,31872
9991,32128
9992,32320
9993,32576
9994,32832
9995,32960
9996,33088
9997,33216
9998,33280
9999,33344
10000,33344
10001,33472
10002,33536
10003,33600
10004,33664
10005,33792
10006,33920
10007,33984
10008,34048
10009,34112
10010,34048
10011,34048
10012,34112
10013,34240
10014,34304
10015,34368
10016,34368
10017,34304
10018,34368
10019,34368
10020,34368
10021,34368
10022,34368
10023,34368
10024,34304
10025,34240
10026,34176
10027,34112
10028,33984
10029,33920
10030,33920
10031,33856
10032,33856
10033,33792
10034,33792
10035,33728
10036,33664
10037,33600
10038,33600
10039,33600
10040,33536
10041,33472
10042,33408
10043,33408
10044,33344
10045,33344
10046,33344
10047,33344
10048,33344
10049,33408
10050,33408
10051,33536
10052,33536
10053,33600
10054,33600
10055,33664
10056,33728
10057,33792
10058,33856
10059,33920
10060,33984
10061,33984
10062,33984
10063,34048
10064,34048
10065,34112
10066,34112
10067,34112
10068,34112
10069,34112
10070,34176
10071,34304
10072,34432
10073,34560
10074,34624
10075,34624
10076,34624
10077,34688
10078,34752
10079,34816
10080,34880
10081,34880
10082,34944
10083,34944
10084,34944
10085,34880
10086,34688
10087,34560
10088,34368
10089,34176
10090,33984
10091,33664
10092,33408
10093,33216
10094,33088
10095,33024
10096,33024
10097,33088
10098,33152
10099,33280
10100,33408
10101,33472
10102,33536
10103,33472
10104,33408
10105,33408
10106,33344
10107,33216
10108,33024
10109,33152
10110,33728
10111,35072
10112,37248
10113,40448
10114,44224
10115,47424
10116,48896
10117,48256
10118,45632
10119,41536
10120,36864
10121,32512
10122,29760
10123,27904
10124,27072
10125,27072
10126,27712
10127,28672
10128,29568
10129,30336
10130,30976
10131,31488
10132,31872
10133,32256
10134,32512
10135,32704
10136,32832
10137,32960
10138,33088
10139,33216
10140,33280
10141,33408
10142,33472
10143,33536
10144,33664
10145,33664
10146,33728
10147,33792
10148,33856
10149,33856
10150,33856
10151,33920
10152,33984
10153,34048
10154,34112
10155,34176
10156,34304
10157,34304
10158,34368
10159,34496
10160,34560
10161,34560
10162,34560
10163,34560
10164,34560
10165,34560
10166,34496
10167,34368
10168,34304
10169,34240
10170,34176
10171,34048
10172,33984
10173,33920
10174,33856
10175,33856
10176,33856
10177,33792
10178,33728
10179,33600
10180,33536
10181,33472
10182,33408
10183,33344
10184,33344
10185,33344
10186,33280
10187,33280
10188,33280
10189,33280
10190,33344
10191,33344
10192,33408
10193,33472
10194,33472
10195,33536
10196,33600
10197,33664
10198,33728
10199,33792
10200,33856
10201,33920
10202,33984
10203,33984
10204,33984
10205,33984
10206,34048
10207,34048
10208,34048
10209,34112
10210,34112
10211,34112
10212,34112
10213,34112
10214,34176
10215,34176
10216,34176
10217,34176
10218,34176
10219,34176
10220,34176
10221,34240
10222,34304
10223,34432
10224,34560
10225,34624
10226,34624
10227,34560
10228,34560
10229,34688
10230,34816
10231,34944
10232,34944
10233,35008
10234,35072
10235,35072
10236,35008
10237,34944
10238,34816
10239,34688
10240,34496
10241,34304
10242,34048
10243,33728
10244,33408
10245,33280
10246,33216
10247,33216
10248,33280
10249,33344
10250,33344
10251,33408
10252,33472
10253,33536
10254,33600
10255,33664
10256,33664
10257,33664
10258,33600
10259,33536
10260,33280
10261,33344
10262,33920
10263,35200
10264,37312
10265,40448
10266,44160
10267,47296
10268,48576
10269,47808
10270,45184
10271,41216
10272,36800
10273,32832
10274,29824
10275,27904
10276,27008
10277,27072
10278,27776
10279,28864
10280,29824
10281,30656
10282,31296
10283,31808
10284,32192
10285,32512
10286,32704
10287,32960
10288,33088
10289,33216
10290,33280
10291,33344
10292,33472
10293,33664
10294,33728
10295,33728
10296,33792
10297,33792
10298,33792
10299,33856
10300,33984
10301,34112
10302,34304
10303,34496
10304,34496
10305,34496
10306,34624
10307,34560
10308,34432
10309,34368
10310,34368
10311,34368
10312,34432
10313,34560
10314,34688
10315,34752
10316,34816
10317,34880
10318,34880
10319,34688
10320,34624
10321,34688
10322,34688
10323,34752
10324,34752
10325,34688
10326,34432
10327,34240
10328,34176
10329,34112
10330,33920
10331,33664
10332,33600
10333,33600
10334,33728
10335,33728
10336,33728
10337,33664
10338,33664
10339,33600
10340,33536
10341,33600
10342,33472
10343,33344
10344,33088
10345,33024
10346,33088
10347,33216
10348,33344
10349,33408
10350,33664
10351,33856
10352,33984
10353,33984
10354,33984
10355,34048
10356,34176
10357,34240
10358,34240
10359,34176
10360,34112
10361,34176
10362,34240
10363,34304
10364,34368
10365,34368
10366,34368
10367,34496
10368,34560
10369,34624
10370,34560
10371,34496
10372,34560
10373,34560
10374,34432
10375,34368
10376,34304
10377,34304
10378,34304
10379,34432
10380,34560
10381,34688
10382,34688
10383,34688
10384,34624
10385,34496
10386,34432
10387,34432
10388,34560
10389,34816
10390,34944
10391,35008
10392,35136
10393,35264
10394,35328
10395,35328
10396,35264
10397,35072
10398,34816
10399,34688
10400,34432
10401,34176
10402,33856
10403,33664
10404,33472
10405,33408
10406,33344
10407,33344
10408,33472
10409,33664
10410,33728
10411,33728
10412,33728
10413,33792
10414,33792
10415,33792
10416,33856
10417,33920
10418,34048
10419,34240
10420,34432
10421,35072
10422,36544
10423,39552
10424,43136
10425,46912
10426,48960
10427,48768
10428,46528
10429,42560
10430,37824
10431,33216
10432,29632
10433,27456
10434,26560
10435,26496
10436,27136
10437,28160
10438,29248
10439,30208
10440,31040
10441,31680
10442,32064
10443,32384
10444,32576
10445,32768
10446,32960
10447,33216
10448,33472
10449,33664
10450,33856
10451,33856
10452,33984
10453,34048
10454,34048
10455,34048
10456,33984
10457,33984
10458,33984
10459,33920
10460,33920
10461,34112
10462,34304
10463,34368
10464,34112
10465,33792
10466,33728
10467,33920
10468,34176
10469,34560
10470,34880
10471,34944
10472,34944
10473,34880
10474,34880
10475,34880
10476,34880
10477,34880
10478,34816
10479,34752
10480,34688
10481,34752
10482,34752
10483,34752
10484,34752
10485,34688
10486,34560
10487,34304
10488,34112
10489,33984
10490,34112
10491,33984
10492,33408
10493,32960
10494,33152
10495,33472
10496,33664
10497,33728
10498,33664
10499,33664
10500,33600
10501,33408
10502,33216
10503,33088
10504,33088
10505,33152
10506,33152
10507,33152
10508,33280
10509,33280
10510,33280
10511,33024
10512,32704
10513,32768
10514,33344
10515,34048
10516,34560
10517,34688
10518,34624
10519,34496
10520,34432
10521,34496
10522,34560
10523,34560
10524,34496
10525,34432
10526,34432
10527,34304
10528,34304
10529,34304
10530,34112
10531,33984
10532,33920
10533,33856
10534,33984
10535,34048
10536,33984
10537,33216
10538,32768
10539,33024
10540,33344
10541,33024
10542,32064
10543,31936
10544,33024
10545,34624
10546,36160
10547,36992
10548,37056
10549,36544
10550,35904
10551,35328
10552,34880
10553,34496
10554,34112
10555,33728
10556,33472
10557,33280
10558,33344
10559,33344
10560,33280
10561,33216
10562,33152
10563,33216
10564,33216
10565,33216
10566,33280
10567,33280
10568,33408
10569,33408
10570,33536
10571,33984
10572,34560
10573,35584
10574,37440
10575,40192
10576,43712
10577,46976
10578,48640
10579,47872
10580,45312
10581,41472
10582,36864
10583,32192
10584,28544
10585,26048
10586,24576
10587,24320
10588,25216
10589,26816
10590,28224
10591,29312
10592,30016
10593,30528
10594,31040
10595,31424
10596,31872
10597,32192
10598,32448
10599,32640
10600,32832
10601,33088
10602,33216
10603,33216
10604,33152
10605,32896
10606,32704
10607,32640
10608,32768
10609,32896
10610,32960
10611,33024
10612,33152
10613,33152
10614,33216
10615,33344
10616,33536
10617,33792
10618,34112
10619,34368
10620,34560
10621,34688
10622,34752
10623,34752
10624,34688
10625,34752
10626,34880
10627,35008
10628,34944
10629,34880
10630,34688
10631,34624
10632,34624
10633,34752
10634,34944
10635,34880
10636,34688
10637,34624
10638,34752
10639,35008
10640,35264
10641,35328
10642,35264
10643,35136
10644,34880
10645,34624
10646,34432
10647,34112
10648,33728
10649,33344
10650,32960
10651,32704
10652,32576
10653,32576
10654,32704
10655,32832
10656,33088
10657,33344
10658,33536
10659,33664
10660,33664
10661,33728
10662,33728
10663,33600
10664,33408
10665,33280
10666,33152
10667,33024
10668,32896
10669,32832
10670,32640
10671,32384
10672,32128
10673,32064
10674,32384
10675,32960
10676,33856
10677,34560
10678,34880
10679,34624
10680,34048
10681,33408
10682,33600
10683,33984
10684,34368
10685,34752
10686,35008
10687,35264
10688,35264
10689,35584
10690,35776
10691,35904
10692,35968
10693,35968
10694,36032
10695,36160
10696,36160
10697,36096
10698,36032
10699,35776
10700,35456
10701,35072
10702,34688
10703,34304
10704,33856
10705,33536
10706,33344
10707,33280
10708,33216
10709,33344
10710,33472
10711,33664
10712,33792
10713,33984
10714,34176
10715,34176
10716,34240
10717,34176
10718,34048
10719,33920
10720,33792
10721,33664
10722,33920
10723,34816
10724,36608
10725,39360
10726,42944
10727,46272
10728,48128
10729,47808
10730,45568
10731,41728
10732,37184
10733,32960
10734,29760
10735,27776
10736,26944
10737,26880
10738,27456
10739,28416
10740,29440
10741,30336
10742,31168
10743,31808
10744,32448
10745,33024
10746,33280
10747,33408
10748,33408
10749,33408
10750,33408
10751,33408
10752,33408
10753,33408
10754,33408
10755,33472
10756,33664
10757,33856
10758,33920
10759,34048
10760,34112
10761,34112
10762,34112
10763,34048
10764,34112
10765,34048
10766,34048
10767,34048
10768,34048
10769,34112
10770,34240
10771,34368
10772,34368
10773,34432
10774,34368
10775,34304
10776,34240
10777,34304
10778,34304
10779,34176
10780,34112
10781,33984
10782,33920
10783,33728
10784,33664
10785,33600
10786,33600
10787,33536
10788,33536
10789,33472
10790,33472
10791,33408
10792,33344
10793,33344
10794,33280
10795,33280
10796,33280
10797,33216
10798,33216
10799,33152
10800,33152
10801,33152
10802,33152
10803,33216
10804,33280
10805,33280
10806,33344
10807,33344
10808,33344
10809,33408
10810,33536
10811,33600
10812,33600
10813,33664
10814,33792
10815,33792
10816,33856
10817,33920
10818,33920
10819,33920
10820,33984
10821,34112
10822,34112
10823,34112
10824,34048
10825,34048
10826,33984
10827,33984
10828,33920
10829,33856
10830,33792
10831,33792
10832,33856
10833,33856
10834,34048
10835,34112
10836,34176
10837,34176
10838,34176
10839,34240
10840,34368
10841,34368
10842,34368
10843,34304
10844,34496
10845,34560
10846,34560
10847,34432
10848,34368
10849,34240
10850,34048
10851,33728
10852,33408
10853,33024
10854,32640
10855,32448
10856,32384
10857,32320
10858,32384
10859,32384
10860,32512
10861,32640
10862,32768
10863,32960
10864,33088
10865,33280
10866,33344
10867,33408
10868,33344
10869,33344
10870,33408
10871,33728
10872,34432
10873,35712
10874,37888
10875,40960
10876,44352
10877,46656
10878,46912
10879,45376
10880,42368
10881,38336
10882,34112
10883,30656
10884,28352
10885,27136
10886,26944
10887,27392
10888,28224
10889,29248
10890,30144
10891,30848
10892,31360
10893,31680
10894,32064
10895,32384
10896,32704
10897,33024
10898,33280
10899,33536
10900,33728
10901,33792
10902,33856
10903,33792
10904,33728
10905,33728
10906,33792
10907,33792
10908,33664
10909,33536
10910,33536
10911,33600
10912,33664
10913,33792
10914,33856
10915,34048
10916,34112
10917,34176
10918,34176
10919,34496
10920,34560
10921,34560
10922,34560
10923,34624
10924,34624
