,ECG
0,34112
1,33600
2,33472
3,33920
4,35136
5,37120
6,40000
7,43328
8,45888
9,46656
10,45504
11,42944
12,39232
13,35136
14,31488
15,29056
16,27648
17,27136
18,27392
19,28224
20,29312
21,30336
22,31232
23,31872
24,32256
25,32384
26,32576
27,32768
28,33088
29,33344
30,33472
31,33664
32,33856
33,33920
34,33856
35,33792
36,33792
37,33856
38,33920
39,34048
40,34112
41,34048
42,33984
43,33984
44,34112
45,34112
46,34176
47,34176
48,34176
49,34112
50,34176
51,34304
52,34432
53,34560
54,34624
55,34624
56,34560
57,34624
58,34752
59,34816
60,34880
61,35008
62,35072
63,35008
64,34752
65,34560
66,34368
67,34048
68,33856
69,33856
70,33856
71,33664
72,33536
73,33600
74,33664
75,33600
76,33536
77,33600
78,33536
79,33472
80,33472
81,33472
82,33472
83,33536
84,33600
85,33664
86,33792
87,33984
88,34112
89,33984
90,33728
91,33600
92,33472
93,33472
94,33600
95,33664
96,33600
97,33600
98,33664
99,33856
100,34048
101,34240
102,34304
103,34368
104,34496
105,34560
106,34496
107,34560
108,34624
109,34560
110,34496
111,34496
112,34688
113,35008
114,35072
115,34880
116,34560
117,34368
118,34368
119,34496
120,34624
121,34688
122,34752
123,34880
124,35008
125,35136
126,35136
127,34944
128,34752
129,34432
130,34176
131,33920
132,33664
133,33472
134,33344
135,33344
136,33536
137,33664
138,33536
139,33408
140,33344
141,33216
142,33088
143,33024
144,33216
145,33408
146,33472
147,33536
148,33536
149,33728
150,34432
151,35520
152,37248
153,39744
154,43072
155,46016
156,47296
157,46528
158,44096
159,40320
160,35840
161,31616
162,28544
163,26816
164,26368
165,26752
166,27648
167,28672
168,29632
169,30464
170,31232
171,31872
172,32384
173,32768
174,33024
175,33216
176,33280
177,33472
178,33600
179,33728
180,34112
181,34304
182,34048
183,33600
184,33408
185,33600
186,33664
187,33600
188,33600
189,33600
190,33600
191,33728
192,33856
193,33984
194,34048
195,34112
196,34176
197,34240
198,34368
199,34432
200,34688
201,35072
202,35200
203,34880
204,34560
205,34496
206,34240
207,33984
208,33856
209,33856
210,33984
211,34112
212,34240
213,34240
214,34240
215,34176
216,34176
217,34176
218,34176
219,34048
220,34048
221,34176
222,34432
223,34304
224,33792
225,33280
226,32960
227,32832
228,32768
229,32896
230,33024
231,33152
232,33216
233,33280
234,33408
235,33472
236,33664
237,33728
238,33792
239,33856
240,33920
241,33984
242,34304
243,34560
244,34560
245,34240
246,34048
247,33984
248,33984
249,33984
250,33792
251,33728
252,33792
253,33920
254,33984
255,34048
256,34176
257,34304
258,34368
259,34368
260,34368
261,34432
262,34432
263,34560
264,34688
265,34880
266,34816
267,34688
268,34752
269,35200
270,35456
271,35200
272,34688
273,34432
274,34240
275,34304
276,34432
277,34496
278,34560
279,34560
280,34496
281,34240
282,33856
283,33600
284,33408
285,33280
286,33216
287,33216
288,33280
289,33408
290,33536
291,33792
292,34048
293,34176
294,33920
295,33344
296,33024
297,33024
298,32960
299,32960
300,33344
301,34368
302,36032
303,38400
304,41472
305,44480
306,46464
307,46464
308,44800
309,41856
310,38016
311,33984
312,30656
313,28480
314,27328
315,26944
316,27200
317,28096
318,29184
319,30272
320,31040
321,31616
322,32000
323,32384
324,32704
325,33024
326,33280
327,33536
328,33600
329,33536
330,33600
331,33792
332,33984
333,34112
334,34176
335,34176
336,34048
337,33792
338,33408
339,33152
340,33024
341,33088
342,33280
343,33472
344,33728
345,33984
346,34112
347,34304
348,34432
349,34560
350,34688
351,34944
352,35136
353,34944
354,34496
355,34176
356,34112
357,34304
358,34368
359,34240
360,34112
361,33984
362,33856
363,33792
364,33792
365,33856
366,33920
367,34048
368,34112
369,34112
370,34112
371,34112
372,34112
373,34048
374,34112
375,34048
376,33856
377,33728
378,33536
379,33472
380,33600
381,33664
382,33728
383,33792
384,33664
385,33408
386,33280
387,33344
388,33472
389,33728
390,33856
391,33984
392,34048
393,34176
394,34240
395,34368
396,34560
397,34688
398,34624
399,34560
400,34496
401,34560
402,34496
403,34496
404,34496
405,34560
406,34624
407,35008
408,35200
409,34752
410,34112
411,33792
412,33600
413,33600
414,33728
415,34048
416,34304
417,34432
418,34432
419,34496
420,34688
421,34880
422,35008
423,35072
424,35264
425,35328
426,35264
427,35136
428,35008
429,34688
430,34432
431,34304
432,34176
433,33920
434,33600
435,33408
436,33280
437,33216
438,33152
439,33152
440,33216
441,33280
442,33408
443,33600
444,33600
445,33472
446,33280
447,33216
448,33344
449,33472
450,33280
451,33344
452,33920
453,35072
454,36800
455,39424
456,42752
457,45440
458,46720
459,46208
460,44288
461,40960
462,36800
463,32768
464,29632
465,27776
466,27008
467,26944
468,27456
469,28416
470,29568
471,30592
472,31360
473,31936
474,32384
475,32896
476,33280
477,33344
478,33408
479,33472
480,33600
481,33728
482,33856
483,33728
484,33664
485,33664
486,33792
487,33920
488,33856
489,33728
490,33664
491,33728
492,33856
493,33984
494,34112
495,34240
496,34304
497,34240
498,34240
499,34304
500,34368
501,34368
502,34432
503,34496
504,34368
505,34240
506,34176
507,34176
508,34368
509,34432
510,34432
511,34432
512,34368
513,34368
514,34368
515,34240
516,34112
517,34112
518,34176
519,34176
520,34176
521,34112
522,33984
523,33856
524,33792
525,33600
526,33472
527,33472
528,33600
529,33600
530,33600
531,33600
532,33728
533,33728
534,33600
535,33600
536,33728
537,33920
538,33856
539,33792
540,33792
541,34048
542,34176
543,34304
544,34304
545,34368
546,34240
547,34176
548,34176
549,34176
550,34240
551,34304
552,34240
553,34176
554,34176
555,34368
556,34496
557,34432
558,34624
559,34816
560,34752
561,34368
562,34112
563,34176
564,34368
565,34496
566,34368
567,34304
568,34240
569,34240
570,34368
571,34560
572,34752
573,34880
574,35136
575,35264
576,35328
577,35328
578,35200
579,34944
580,34688
581,34496
582,34496
583,34560
584,34560
585,34368
586,33792
587,33152
588,32768
589,32576
590,32640
591,32768
592,32960
593,33216
594,33344
595,33408
596,33536
597,33600
598,33728
599,33792
600,33728
601,33664
602,33856
603,34560
604,35968
605,38016
606,40704
607,43904
608,46528
609,47424
610,46656
611,44160
612,39872
613,35072
614,30912
615,28160
616,26688
617,26240
618,26560
619,27584
620,28800
621,29888
622,30848
623,31616
624,32192
625,33088
626,33408
627,33600
628,33664
629,33728
630,33792
631,34048
632,34176
633,34112
634,33856
635,33664
636,33408
637,33280
638,33280
639,33408
640,33536
641,33664
642,33792
643,33792
644,33984
645,34496
646,34496
647,34368
648,34304
649,34304
650,34304
651,34240
652,34240
653,34496
654,34688
655,34624
656,34432
657,34368
658,34304
659,34432
660,34496
661,34496
662,34496
663,34432
664,34368
665,34240
666,34304
667,34432
668,34432
669,34176
670,33856
671,33664
672,33536
673,33536
674,33472
675,33472
676,33600
677,33600
678,33664
679,33664
680,33728
681,33664
682,33792
683,33984
684,34176
685,34176
686,33728
687,33472
688,33600
689,33600
690,33472
691,33344
692,33408
693,33408
694,33728
695,33920
696,34048
697,34112
698,34176
699,34240
700,34304
701,34368
702,34432
703,34432
704,34496
705,34624
706,34816
707,34816
708,34560
709,34304
710,34048
711,33984
712,34176
713,34240
714,34304
715,34496
716,34688
717,34688
718,34624
719,34752
720,34880
721,34816
722,34816
723,34752
724,34816
725,34880
726,34880
727,34880
728,34816
729,34688
730,34496
731,34240
732,34048
733,33792
734,33472
735,33280
736,33216
737,33344
738,33408
739,33600
740,33408
741,33088
742,32960
743,32960
744,33088
745,33152
746,33280
747,33408
748,33408
749,33472
750,33728
751,34304
752,35456
753,37056
754,39296
755,42240
756,45184
757,46848
758,46528
759,44480
760,41088
761,36736
762,32512
763,29312
764,27328
765,26496
766,26624
767,27328
768,28352
769,29440
770,30464
771,31360
772,32064
773,32640
774,33024
775,33152
776,33408
777,33792
778,33856
779,33472
780,33088
781,32832
782,32832
783,32896
784,33024
785,33152
786,33344
787,33536
788,33664
789,33728
790,33856
791,33920
792,33984
793,33984
794,34112
795,34176
796,34368
797,34624
798,34688
799,34688
800,34496
801,34368
802,34240
803,34112
804,34048
805,34048
806,33984
807,33920
808,33920
809,33984
810,34112
811,34112
812,34176
813,34240
814,34176
815,34048
816,33984
817,33920
818,33984
819,33984
820,34048
821,34176
822,34112
823,33984
824,33856
825,33664
826,33600
827,33472
828,33344
829,33216
830,33216
831,33344
832,33472
833,33600
834,33664
835,33728
836,33792
837,33792
838,33856
839,34048
840,34176
841,34240
842,34304
843,34368
844,34432
845,34368
846,34240
847,34112
848,34112
849,34176
850,34560
851,34880
852,34560
853,34112
854,33920
855,33920
856,34112
857,34240
858,34176
859,34240
860,34240
861,34304
862,34368
863,34432
864,34496
865,34624
866,34816
867,35008
868,34944
869,35008
870,35008
871,35136
872,35200
873,35200
874,35008
875,34880
876,34560
877,34240
878,33920
879,33792
880,33728
881,33344
882,32896
883,32832
884,32832
885,32960
886,32960
887,33088
888,33216
889,33280
890,33472
891,33600
892,33664
893,33664
894,33664
895,33856
896,33984
897,34112
898,34432
899,35456
900,37376
901,40192
902,43200
903,45440
904,46016
905,44992
906,42624
907,39104
908,35136
909,31616
910,29056
911,27584
912,26944
913,27136
914,27840
915,28928
916,30080
917,31232
918,32128
919,32576
920,32832
921,32960
922,33216
923,33600
924,33792
925,33472
926,33152
927,33088
928,33152
929,33216
930,33280
931,33280
932,33472
933,33664
934,33792
935,33920
936,34048
937,34048
938,34048
939,33984
940,34048
941,34176
942,34432
943,34368
944,34496
945,34432
946,34240
947,34112
948,34112
949,34112
950,34112
951,34304
952,34496
953,34560
954,34624
955,34496
956,34176
957,34048
958,33984
959,33856
960,33792
961,33792
962,33792
963,33792
964,33856
965,33856
966,33856
967,33920
968,33920
969,33984
970,34048
971,34048
972,34112
973,33984
974,33664
975,33536
976,33664
977,33792
978,33856
979,33728
980,33600
981,33536
982,33664
983,33792
984,33920
985,34112
986,34304
987,34432
988,34432
989,34368
990,34304
991,34240
992,34304
993,34496
994,34688
995,34752
996,34688
997,34496
998,34496
999,34624
1000,34816
1001,34624
1002,34368
1003,34304
1004,34368
1005,34432
1006,34496
1007,34560
1008,34688
1009,34880
1010,35008
1011,35136
1012,35136
1013,35136
1014,35200
1015,35264
1016,35264
1017,35136
1018,35072
1019,34752
1020,34624
1021,34560
1022,34240
1023,33856
1024,33536
1025,33344
1026,33216
1027,33152
1028,33152
1029,33152
1030,33152
1031,33216
1032,33344
1033,33472
1034,33600
1035,33600
1036,33664
1037,33792
1038,33664
1039,33472
1040,33600
1041,34176
1042,35200
1043,36352
1044,38016
1045,40704
1046,43648
1047,45824
1048,46080
1049,44736
1050,42048
1051,38272
1052,34240
1053,30784
1054,28416
1055,27200
1056,26944
1057,27392
1058,28352
1059,29504
1060,30592
1061,31424
1062,31936
1063,32256
1064,32576
1065,32832
1066,33024
1067,33152
1068,33280
1069,33472
1070,33664
1071,33792
1072,33792
1073,33920
1074,34048
1075,33984
1076,33792
1077,33728
1078,33728
1079,33728
1080,33728
1081,33728
1082,33728
1083,33856
1084,33984
1085,34048
1086,34176
1087,34304
1088,34496
1089,34560
1090,34496
1091,34432
1092,34624
1093,34624
1094,34688
1095,34496
1096,34240
1097,34048
1098,34048
1099,34240
1100,34432
1101,34496
1102,34368
1103,34112
1104,33920
1105,33856
1106,33856
1107,33792
1108,33792
1109,33984
1110,33984
1111,33984
1112,34048
1113,34112
1114,34048
1115,33984
1116,33984
1117,33856
1118,33728
1119,33728
1120,33728
1121,33664
1122,33664
1123,33664
1124,33792
1125,33920
1126,33920
1127,33920
1128,33984
1129,33984
1130,33984
1131,34176
1132,34368
1133,34432
1134,34368
1135,34368
1136,34432
1137,34624
1138,34624
1139,34560
1140,34624
1141,34560
1142,34496
1143,34496
1144,34688
1145,34880
1146,34816
1147,34752
1148,34816
1149,34944
1150,35008
1151,34816
1152,34688
1153,34688
1154,34752
1155,34688
1156,34752
1157,34752
1158,34880
1159,34944
1160,34944
1161,34752
1162,34560
1163,34368
1164,34176
1165,33920
1166,33728
1167,33728
1168,33728
1169,33728
1170,33664
1171,33664
1172,33728
1173,33536
1174,33280
1175,32960
1176,32960
1177,32960
1178,33088
1179,33216
1180,33280
1181,33280
1182,33472
1183,33792
1184,34624
1185,35840
1186,37760
1187,40576
1188,43968
1189,46848
1190,47872
1191,46784
1192,44096
1193,40064
1194,35264
1195,30912
1196,27904
1197,26176
1198,25920
1199,26368
1200,27392
1201,28672
1202,29952
1203,30976
1204,31872
1205,32448
1206,32896
1207,33280
1208,33472
1209,33472
1210,33600
1211,33792
1212,33856
1213,33856
1214,33984
1215,33984
1216,33920
1217,33920
1218,33984
1219,33856
1220,33664
1221,33536
1222,33600
1223,33664
1224,33792
1225,33984
1226,34240
1227,34496
1228,34432
1229,34240
1230,34240
1231,34304
1232,34304
1233,34304
1234,34304
1235,34368
1236,34560
1237,34688
1238,34752
1239,34624
1240,34432
1241,34304
1242,34240
1243,34240
1244,34240
1245,34176
1246,34112
1247,34112
1248,34112
1249,34176
1250,34240
1251,34304
1252,34304
1253,34112
1254,33792
1255,33600
1256,33600
1257,33536
1258,33408
1259,33280
1260,33216
1261,33216
1262,33280
1263,33408
1264,33536
1265,33664
1266,33792
1267,33792
1268,33792
1269,33920
1270,34048
1271,34112
1272,34176
1273,34304
1274,34368
1275,34432
1276,34624
1277,34688
1278,34624
1279,34432
1280,34112
1281,34112
1282,34240
1283,34048
1284,33856
1285,33792
1286,33856
1287,34176
1288,34304
1289,34560
1290,34752
1291,34880
1292,34944
1293,35008
1294,35136
1295,35328
1296,35392
1297,35264
1298,35136
1299,35008
1300,35008
1301,35136
1302,35264
1303,35200
1304,34752
1305,34304
1306,34112
1307,33856
1308,33536
1309,33152
1310,32896
1311,32832
1312,32960
1313,33088
1314,33216
1315,33344
1316,33472
1317,33600
1318,33664
1319,33664
1320,33600
1321,33600
1322,33600
1323,33600
1324,33600
1325,33664
1326,33920
1327,34560
1328,35904
1329,38016
1330,41024
1331,44288
1332,46912
1333,46784
1334,45248
1335,42304
1336,38208
1337,33920
1338,30400
1339,27968
1340,26752
1341,26560
1342,27136
1343,28096
1344,28992
1345,29888
1346,30656
1347,31552
1348,32000
1349,32512
1350,32832
1351,33088
1352,33280
1353,33408
1354,33408
1355,33472
1356,33536
1357,33600
1358,33792
1359,33984
1360,34112
1361,34176
1362,33920
1363,33728
1364,33536
1365,33536
1366,33728
1367,33856
1368,33728
1369,33600
1370,33536
1371,33664
1372,33792
1373,33984
1374,34176
1375,34304
1376,34368
1377,34432
1378,34496
1379,34496
1380,34496
1381,34560
1382,34624
1383,34560
1384,34432
1385,34240
1386,34048
1387,33792
1388,33728
1389,33792
1390,33920
1391,34048
1392,34048
1393,33984
1394,33856
1395,33728
1396,33536
1397,33472
1398,33472
1399,33536
1400,33600
1401,33664
1402,33600
1403,33600
1404,33664
1405,33728
1406,33600
1407,33536
1408,33536
1409,33664
1410,33856
1411,33920
1412,33984
1413,34048
1414,34240
1415,34368
1416,34432
1417,34496
1418,34496
1419,34240
1420,34048
1421,33920
1422,33792
1423,33856
1424,34048
1425,34176
1426,34176
1427,34240
1428,34304
1429,34368
1430,34368
1431,34304
1432,34304
1433,34368
1434,34432
1435,34496
1436,34688
1437,34880
1438,34944
1439,35008
1440,34816
1441,34752
1442,34752
1443,34688
1444,34752
1445,34752
1446,34752
1447,34752
1448,34816
1449,34880
1450,34688
1451,34432
1452,34240
1453,33920
1454,33600
1455,33344
1456,33344
1457,33344
1458,33280
1459,33280
1460,33472
1461,33600
1462,33536
1463,33408
1464,33152
1465,33024
1466,32960
1467,33152
1468,33152
1469,33280
1470,33344
1471,33344
1472,33536
1473,34176
1474,35328
1475,37248
1476,40000
1477,43200
1478,45696
1479,46464
1480,45504
1481,43200
1482,39744
1483,35776
1484,32128
1485,29568
1486,28032
1487,27136
1488,26944
1489,27328
1490,28288
1491,29440
1492,30400
1493,31232
1494,31872
1495,32384
1496,32832
1497,33280
1498,33408
1499,33600
1500,33728
1501,33920
1502,34048
1503,34176
1504,34176
1505,33920
1506,33728
1507,33536
1508,33280
1509,33152
1510,33152
1511,33280
1512,33472
1513,33600
1514,33728
1515,33856
1516,34048
1517,34112
1518,34112
1519,34176
1520,34304
1521,34496
1522,34624
1523,34688
1524,34624
1525,34560
1526,34624
1527,34816
1528,34688
1529,34112
1530,33600
1531,33408
1532,33344
1533,33280
1534,33344
1535,33408
1536,33472
1537,33472
1538,33536
1539,33664
1540,33792
1541,33856
1542,33920
1543,33920
1544,33984
1545,34112
1546,34176
1547,34368
1548,34496
1549,34240
1550,33792
1551,33536
1552,33472
1553,33344
1554,33280
1555,33344
1556,33408
1557,33664
1558,33792
1559,34048
1560,34176
1561,34368
1562,34496
1563,34560
1564,34688
1565,34816
1566,34944
1567,35072
1568,35008
1569,34816
1570,34560
1571,34304
1572,34112
1573,34240
1574,34304
1575,34240
1576,34176
1577,34304
1578,34368
1579,34368
1580,34496
1581,34688
1582,34752
1583,34752
1584,34944
1585,35072
1586,34944
1587,34880
1588,34880
1589,34880
1590,34752
1591,34752
1592,34688
1593,34688
1594,34880
1595,35008
1596,34816
1597,34560
1598,34304
1599,34112
1600,33856
1601,33536
1602,33280
1603,33152
1604,33152
1605,33216
1606,33152
1607,33024
1608,33024
1609,33088
1610,33152
1611,33280
1612,33408
1613,33600
1614,33792
1615,33856
1616,33728
1617,33728
1618,33984
1619,34688
1620,36032
1621,38016
1622,41152
1623,43968
1624,46016
1625,46208
1626,44800
1627,41920
1628,38144
1629,34176
1630,30848
1631,28544
1632,27136
1633,26688
1634,26944
1635,27840
1636,29184
1637,30592
1638,31488
1639,32000
1640,32320
1641,32576
1642,32832
1643,33088
1644,33408
1645,33600
1646,33792
1647,33984
1648,33984
1649,33856
1650,33728
1651,33728
1652,33856
1653,34112
1654,34240
1655,34304
1656,34304
1657,34112
1658,33920
1659,33856
1660,33792
1661,33856
1662,33920
1663,33920
1664,34048
1665,34112
1666,34240
1667,34368
1668,34432
1669,34624
1670,34688
1671,34624
1672,34560
1673,34496
1674,34496
1675,34432
1676,34432
1677,34496
1678,34560
1679,34560
1680,34304
1681,33984
1682,33664
1683,33408
1684,33280
1685,33216
1686,33280
1687,33408
1688,33536
1689,33664
1690,33792
1691,33920
1692,33984
1693,33984
1694,33984
1695,34112
1696,34112
1697,34112
1698,34048
1699,34048
1700,34368
1701,34688
1702,34560
1703,34176
1704,33792
1705,33472
1706,33408
1707,33728
1708,33792
1709,33920
1710,34048
1711,34240
1712,34432
1713,34560
1714,34560
1715,34560
1716,34496
1717,34496
1718,34432
1719,34432
1720,34496
1721,34624
1722,34752
1723,34816
1724,34880
1725,34880
1726,34944
1727,35136
1728,35328
1729,35392
1730,35328
1731,35200
1732,34880
1733,34624
1734,34496
1735,34368
1736,34304
1737,34304
1738,34304
1739,34240
1740,34112
1741,33984
1742,33664
1743,33472
1744,33536
1745,33664
1746,33728
1747,33536
1748,33472
1749,33344
1750,33152
1751,33024
1752,33088
1753,33216
1754,33344
1755,33472
1756,33664
1757,33600
1758,33536
1759,33600
1760,34304
1761,35520
1762,37376
1763,40128
1764,43584
1765,46400
1766,47424
1767,46464
1768,44096
1769,40448
1770,36032
1771,31744
1772,28672
1773,26880
1774,26304
1775,26560
1776,27456
1777,28672
1778,29952
1779,31040
1780,31872
1781,32512
1782,32960
1783,33152
1784,33216
1785,33280
1786,33472
1787,33792
1788,33856
1789,33664
1790,33600
1791,33600
1792,33600
1793,33536
1794,33536
1795,33600
1796,33600
1797,33664
1798,33792
1799,34048
1800,34240
1801,34304
1802,34240
1803,34240
1804,34368
1805,34624
1806,34880
1807,34816
1808,34496
1809,34176
1810,33984
1811,33984
1812,34176
1813,34304
1814,34496
1815,34560
1816,34560
1817,34432
1818,34368
1819,34304
1820,34176
1821,34048
1822,33920
1823,33984
1824,33984
1825,33984
1826,34112
1827,34112
1828,33856
1829,33536
1830,33344
1831,33344
1832,33408
1833,33536
1834,33600
1835,33600
1836,33664
1837,33728
1838,33792
1839,33728
1840,33792
1841,33920
1842,34112
1843,34240
1844,34240
1845,34240
1846,34176
1847,33984
1848,33856
1849,33856
1850,34048
1851,34176
1852,33984
1853,33920
1854,34048
1855,34240
1856,34368
1857,34368
1858,34304
1859,34240
1860,34176
1861,34304
1862,34560
1863,34752
1864,34816
1865,34816
1866,34816
1867,34944
1868,35200
1869,35392
1870,35456
1871,35328
1872,35200
1873,34944
1874,34752
1875,34560
1876,34304
1877,34176
1878,34112
1879,33984
1880,33728
1881,33472
1882,33280
1883,33152
1884,33088
1885,33088
1886,33280
1887,33472
1888,33600
1889,33728
1890,33920
1891,33920
1892,33536
1893,33088
1894,33024
1895,33152
1896,33216
1897,33216
1898,33536
1899,34304
1900,35456
1901,37120
1902,39680
1903,43200
1904,45824
1905,46976
1906,46080
1907,43648
1908,39744
1909,35520
1910,31616
1911,29120
1912,27712
1913,27072
1914,27072
1915,27520
1916,28480
1917,29504
1918,30400
1919,31232
1920,32000
1921,32512
1922,32896
1923,33024
1924,33152
1925,33216
1926,33344
1927,33472
1928,33600
1929,33600
1930,33664
1931,33984
1932,34048
1933,33792
1934,33664
1935,33536
1936,33472
1937,33536
1938,33536
1939,33600
1940,33792
1941,33984
1942,34176
1943,34240
1944,34240
1945,34176
1946,34304
1947,34496
1948,34624
1949,34624
1950,34560
1951,34496
1952,34432
1953,34176
1954,33984
1955,33984
1956,33984
1957,33920
1958,33856
1959,33792
1960,33728
1961,33728
1962,33600
1963,33600
1964,33600
1965,33664
1966,33856
1967,34048
1968,34048
1969,33920
1970,33792
1971,33600
1972,33600
1973,33728
1974,33792
1975,33664
1976,33600
1977,33600
1978,33664
1979,33728
1980,33792
1981,33792
1982,33920
1983,34112
1984,34240
1985,34432
1986,34496
1987,34304
1988,34304
1989,34304
1990,34176
1991,33984
1992,33920
1993,33920
1994,33984
1995,34048
1996,34112
1997,34240
1998,34432
1999,34624
2000,34816
2001,34880
2002,35008
2003,35136
2004,35200
2005,35200
2006,35200
2007,35200
2008,35392
2009,35392
2010,35200
2011,35072
2012,34880
2013,34688
2014,34432
2015,34304
2016,34240
2017,34048
2018,33664
2019,33280
2020,33024
2021,32960
2022,33024
2023,33088
2024,33088
2025,33216
2026,33408
2027,33536
2028,33600
2029,33600
2030,33792
2031,33984
2032,33792
2033,33408
2034,33152
2035,33088
2036,33472
2037,34112
2038,35392
2039,37440
2040,40384
2041,43584
2042,45824
2043,46336
2044,45056
2045,42432
2046,38848
2047,35008
2048,31552
2049,28928
2050,27392
2051,27008
2052,27456
2053,28224
2054,29056
2055,29824
2056,30528
2057,31168
2058,31808
2059,32384
2060,32832
2061,33152
2062,33216
2063,33344
2064,33472
2065,33600
2066,33728
2067,33856
2068,34048
2069,34048
2070,33728
2071,33408
2072,33280
2073,33152
2074,33280
2075,33536
2076,33728
2077,33856
2078,33920
2079,33984
2080,34112
2081,34176
2082,34304
2083,34368
2084,34496
2085,34688
2086,34560
2087,34432
2088,34432
2089,34432
2090,34240
2091,34048
2092,33920
2093,33856
2094,33856
2095,33856
2096,33856
2097,33792
2098,33728
2099,33728
2100,33664
2101,33728
2102,33920
2103,33984
2104,34112
2105,34240
2106,34176
2107,33856
2108,33536
2109,33408
2110,33344
2111,33408
2112,33472
2113,33600
2114,33664
2115,33792
2116,33984
2117,34112
2118,34176
2119,34176
2120,34240
2121,34304
2122,34432
2123,34496
2124,34432
2125,34432
2126,34432
2127,34432
2128,34560
2129,34624
2130,34624
2131,34624
2132,34624
2133,34624
2134,34624
2135,34560
2136,34560
2137,34816
2138,35008
2139,34944
2140,34880
2141,34944
2142,34944
2143,34944
2144,34880
2145,34880
2146,34880
2147,35008
2148,35072
2149,35008
2150,34944
2151,34880
2152,34752
2153,34560
2154,34240
2155,33856
2156,33664
2157,33600
2158,33536
2159,33408
2160,33408
2161,33344
2162,33216
2163,33344
2164,33472
2165,33472
2166,33344
2167,33216
2168,33216
2169,33216
2170,33216
2171,33152
2172,33088
2173,33472
2174,34368
2175,35840
2176,38016
2177,40960
2178,44224
2179,46400
2180,46720
2181,45376
2182,42880
2183,39360
2184,35136
2185,31168
2186,28352
2187,26880
2188,26496
2189,26752
2190,27520
2191,28672
2192,29824
2193,30784
2194,31552
2195,32256
2196,32768
2197,33088
2198,33280
2199,33472
2200,33600
2201,33856
2202,34048
2203,33984
2204,33856
2205,33856
2206,33856
2207,33856
2208,33664
2209,33536
2210,33536
2211,33792
2212,34048
2213,33984
2214,33792
2215,33792
2216,33856
2217,33920
2218,34048
2219,34112
2220,34176
2221,34368
2222,34496
2223,34560
2224,34624
2225,34560
2226,34432
2227,34304
2228,34304
2229,34496
2230,34560
2231,34304
2232,33984
2233,33792
2234,33728
2235,33728
2236,33792
2237,33856
2238,33856
2239,33792
2240,33664
2241,33600
2242,33664
2243,33664
2244,33728
2245,33920
2246,34112
2247,34048
2248,33984
2249,33920
2250,33984
2251,33920
2252,33792
2253,33792
2254,33792
2255,33792
2256,33792
2257,33856
2258,33984
2259,34176
2260,34368
2261,34496
2262,34560
2263,34432
2264,34368
2265,34432
2266,34496
2267,34432
2268,34496
2269,34496
2270,34496
2271,34496
2272,34496
2273,34560
2274,34688
2275,34944
2276,35136
2277,35264
2278,35264
2279,35264
2280,35264
2281,35264
2282,35200
2283,35136
2284,35072
2285,35072
2286,35072
2287,35008
2288,34624
2289,33984
2290,33536
2291,33216
2292,33024
2293,32960
2294,33024
2295,33088
2296,33152
2297,33216
2298,33280
2299,33408
2300,33600
2301,33856
2302,34176
2303,34240
2304,33984
2305,33600
2306,33344
2307,33152
2308,33216
2309,33856
2310,35072
2311,36928
2312,39616
2313,43136
2314,46144
2315,47552
2316,46912
2317,44608
2318,40704
2319,36096
2320,31936
2321,28928
2322,27328
2323,26816
2324,27008
2325,27840
2326,29056
2327,30080
2328,30720
2329,31360
2330,31936
2331,32256
2332,32448
2333,32768
2334,33088
2335,33280
2336,33472
2337,33664
2338,33856
2339,33920
2340,34048
2341,34112
2342,34048
2343,33856
2344,33664
2345,33600
2346,33600
2347,33600
2348,33728
2349,33856
2350,33984
2351,34112
2352,34176
2353,34240
2354,34304
2355,34432
2356,34496
2357,34560
2358,34752
2359,34944
2360,34944
2361,34752
2362,34560
2363,34432
2364,34240
2365,33856
2366,33664
2367,33600
2368,33600
2369,33600
2370,33664
2371,33792
2372,33920
2373,33920
2374,33856
2375,33856
2376,33856
2377,33856
2378,33984
2379,34048
2380,33984
2381,33920
2382,33920
2383,34112
2384,34176
2385,34048
2386,33856
2387,33664
2388,33600
2389,33792
2390,33856
2391,33600
2392,33408
2393,33344
2394,33472
2395,33664
2396,33856
2397,33984
2398,34112
2399,34240
2400,34304
2401,34304
2402,34304
2403,34304
2404,34304
2405,34432
2406,34688
2407,34880
2408,34944
2409,35136
2410,35200
2411,35072
2412,34880
2413,34816
2414,34880
2415,34944
2416,35008
2417,35072
2418,35200
2419,35136
2420,34944
2421,34688
2422,34432
2423,34176
2424,33920
2425,33536
2426,33344
2427,33152
2428,33152
2429,33152
2430,33280
2431,33408
2432,33600
2433,33856
2434,33920
2435,33664
2436,33472
2437,33280
2438,33152
2439,33152
2440,33216
2441,33216
2442,33216
2443,33472
2444,34176
2445,37568
2446,40512
2447,40576
2448,46336
2449,46912
2450,45696
2451,42944
2452,38912
2453,34688
2454,31040
2455,28480
2456,27200
2457,26816
2458,27072
2459,27648
2460,28480
2461,29568
2462,29632
2463,31424
2464,32000
2465,32448
2466,32768
2467,32960
2468,33216
2469,33408
2470,33472
2471,33472
2472,33536
2473,33600
2474,33728
2475,33984
2476,34240
2477,34176
2478,33984
2479,33792
2480,33600
2481,33408
2482,33344
2483,33408
2484,33472
2485,33472
2486,33536
2487,33728
2488,33856
2489,34048
2490,34112
2491,34176
2492,34240
2493,34240
2494,34368
2495,34496
2496,34688
2497,34752
2498,34560
2499,34240
2500,34048
2501,33984
2502,33856
2503,33600
2504,33280
2505,33088
2506,33088
2507,33152
2508,33152
2509,33536
2510,33664
2511,33664
2512,33664
2513,33728
2514,33728
2515,33792
2516,33984
2517,34176
2518,34304
2519,34368
2520,34112
2521,33792
2522,33664
2523,33536
2524,33472
2525,33536
2526,33728
2527,33984
2528,34112
2529,34240
2530,34176
2531,34176
2532,34240
2533,34304
2534,34368
2535,34432
2536,34432
2537,34496
2538,34496
2539,35008
2540,34944
2541,34752
2542,34624
2543,34624
2544,34688
2545,34752
2546,34880
2547,34944
2548,34944
2549,35072
2550,35136
2551,35136
2552,35072
2553,35008
2554,35008
2555,34880
2556,34624
2557,34432
2558,34112
2559,33536
2560,33088
2561,33088
2562,33024
2563,32896
2564,32832
2565,32960
2566,33024
2567,33088
2568,33152
2569,33216
2570,33280
2571,33408
2572,33536
2573,33536
2574,33536
2575,33408
2576,33536
2577,34240
2578,35712
2579,37760
2580,40448
2581,43392
2582,45632
2583,46208
2584,45056
2585,42560
2586,38976
2587,35008
2588,31488
2589,28992
2590,27520
2591,26944
2592,27136
2593,27776
2594,28864
2595,30016
2596,30976
2597,31872
2598,32640
2599,33152
2600,33280
2601,33216
2602,33152
2603,33152
2604,33088
2605,33088
2606,33280
2607,33408
2608,33536
2609,33472
2610,33472
2611,33536
2612,33664
2613,33792
2614,33920
2615,33856
2616,33920
2617,34048
2618,34176
2619,34176
2620,34176
2621,34240
2622,34432
2623,34560
2624,34432
2625,34176
2626,34048
2627,33984
2628,33920
2629,33856
2630,33856
2631,33920
2632,34048
2633,34112
2634,33984
2635,33920
2636,33856
2637,33856
2638,33856
2639,33856
2640,33728
2641,33536
2642,33472
2643,33536
2644,33664
2645,33856
2646,34048
2647,34048
2648,33920
2649,33792
2650,33792
2651,33984
2652,34112
2653,34048
2654,33920
2655,33856
2656,33856
2657,33856
2658,34048
2659,34176
2660,34176
2661,34112
2662,34112
2663,34112
2664,34240
2665,34368
2666,34496
2667,34624
2668,34752
2669,34752
2670,34880
2671,35200
2672,35328
2673,35136
2674,34944
2675,34880
2676,35008
2677,35264
2678,35328
2679,35200
2680,34944
2681,34816
2682,34816
2683,34816
2684,34816
2685,34752
2686,34688
2687,34560
2688,34368
2689,34240
2690,34176
2691,33984
2692,33600
2693,33344
2694,33280
2695,33344
2696,33536
2697,33536
2698,33216
2699,32896
2700,32832
2701,32960
2702,33024
2703,33216
2704,33344
2705,33408
2706,33344
2707,33408
2708,33792
2709,34816
2710,36480
2711,38784
2712,41920
2713,44992
2714,46848
2715,46656
2716,44800
2717,41664
2718,37952
2719,33408
2720,30208
2721,27904
2722,26688
2723,26432
2724,26944
2725,27840
2726,29056
2727,30336
2728,31296
2729,32000
2730,32576
2731,33152
2732,33536
2733,33664
2734,33600
2735,33472
2736,33344
2737,33344
2738,33408
2739,33536
2740,33664
2741,33600
2742,33472
2743,33536
2744,33728
2745,33856
2746,33856
2747,33792
2748,33856
2749,33920
2750,34048
2751,34240
2752,34368
2753,34496
2754,34496
2755,34368
2756,34240
2757,34240
2758,34176
2759,34176
2760,34176
2761,34176
2762,34112
2763,34048
2764,34048
2765,33920
2766,33728
2767,33664
2768,33664
2769,33728
2770,33792
2771,33792
2772,33920
2773,34048
2774,34048
2775,33792
2776,33600
2777,33536
2778,33600
2779,33856
2780,33984
2781,33920
2782,33792
2783,33792
2784,33856
2785,33920
2786,33984
2787,34048
2788,34176
2789,34304
2790,34304
2791,34432
2792,34752
2793,34752
2794,34624
2795,34432
2796,34432
2797,34432
2798,34304
2799,34176
2800,34368
2801,34560
2802,34624
2803,34624
2804,34624
2805,34688
2806,34880
2807,35136
2808,35200
2809,35264
2810,35264
2811,35264
2812,35328
2813,35392
2814,35520
2815,35264
2816,34880
2817,34624
2818,34560
2819,34496
2820,34112
2821,33600
2822,33280
2823,33024
2824,32896
2825,32704
2826,32704
2827,32832
2828,33024
2829,33152
2830,33280
2831,33472
2832,33600
2833,33600
2834,33664
2835,33664
2836,33728
2837,33920
2838,34368
2839,34944
2840,35840
2841,37504
2842,40256
2843,43648
2844,46272
2845,47040
2846,45952
2847,43200
2848,39104
2849,34560
2850,30720
2851,28288
2852,26944
2853,26688
2854,27072
2855,28032
2856,29312
2857,30464
2858,31488
2859,32192
2860,32640
2861,32832
2862,32896
2863,32896
2864,32960
2865,33152
2866,33344
2867,33472
2868,33536
2869,33536
2870,33536
2871,33600
2872,33664
2873,33792
2874,33856
2875,33856
2876,33984
2877,34048
2878,34112
2879,34432
2880,34496
2881,34176
2882,33984
2883,33792
2884,33728
2885,33728
2886,33792
2887,33920
2888,34112
2889,34240
2890,34368
2891,34368
2892,34368
2893,34368
2894,34368
2895,34368
2896,34368
2897,34176
2898,33920
2899,33664
2900,33472
2901,33408
2902,33472
2903,33536
2904,33472
2905,33408
2906,33408
2907,33472
2908,33600
2909,33728
2910,33920
2911,33984
2912,33920
2913,33792
2914,33792
2915,33728
2916,33792
2917,33856
2918,33920
2919,34176
2920,34496
2921,34560
2922,34240
2923,33920
2924,33728
2925,33664
2926,33728
2927,33792
2928,33984
2929,34176
2930,34368
2931,34560
2932,34752
2933,34880
2934,35072
2935,35072
2936,35072
2937,35136
2938,35200
2939,35136
2940,35136
2941,35072
2942,35072
2943,35072
2944,35072
2945,35008
2946,34880
2947,34688
2948,34496
2949,34240
2950,33792
2951,33280
2952,33088
2953,33024
2954,33024
2955,32960
2956,33024
2957,33024
2958,33088
2959,33152
2960,33280
2961,33408
2962,33536
2963,33600
2964,33664
2965,33600
2966,33536
2967,33792
2968,34304
2969,35328
2970,36800
2971,38976
2972,42176
2973,44992
2974,46784
2975,46528
2976,44544
2977,41216
2978,37056
2979,32960
2980,29824
2981,27776
2982,26880
2983,26752
2984,27264
2985,28224
2986,29312
2987,30336
2988,31296
2989,32128
2990,32768
2991,32960
2992,32960
2993,33024
2994,33216
2995,33344
2996,33280
2997,33152
2998,33024
2999,33024
3000,33088
3001,33280
3002,33344
3003,33408
3004,33472
3005,33536
3006,33600
3007,33664
3008,33728
3009,33856
3010,34048
3011,34176
3012,34432
3013,34432
3014,34240
3015,34176
3016,34048
3017,33920
3018,33984
3019,34048
3020,33984
3021,33792
3022,33664
3023,33664
3024,33728
3025,33856
3026,33856
3027,33664
3028,33472
3029,33280
3030,33152
3031,33152
3032,33280
3033,33472
3034,33728
3035,34112
3036,34112
3037,33792
3038,33536
3039,33472
3040,33600
3041,33664
3042,33728
3043,33728
3044,33792
3045,33792
3046,33920
3047,34112
3048,34240
3049,34304
3050,34304
3051,34432
3052,34496
3053,34496
3054,34368
3055,34240
3056,34176
3057,34240
3058,34432
3059,34624
3060,34752
3061,34752
3062,35008
3063,35264
3064,35200
3065,35072
3066,34944
3067,35008
3068,35072
3069,35008
3070,35072
3071,35136
3072,35072
3073,34880
3074,34624
3075,34432
3076,34368
3077,34176
3078,33856
3079,33472
3080,33216
3081,33216
3082,33472
3083,33600
3084,33472
3085,33152
3086,32960
3087,32960
3088,33024
3089,33088
3090,33152
3091,33280
3092,33408
3093,33408
3094,33344
3095,33344
3096,33856
3097,34944
3098,36800
3099,39488
3100,42816
3101,45568
3102,46784
3103,46144
3104,44224
3105,40896
3106,36864
3107,32704
3108,29696
3109,27904
3110,26816
3111,26624
3112,27072
3113,28096
3114,29312
3115,30400
3116,31296
3117,32064
3118,32448
3119,32960
3120,33344
3121,33408
3122,33280
3123,33280
3124,33344
3125,33472
3126,33408
3127,33344
3128,33344
3129,33536
3130,33600
3131,33536
3132,33472
3133,33472
3134,33472
3135,33600
3136,33728
3137,33984
3138,34176
3139,34368
3140,34432
3141,34368
3142,33984
3143,33792
3144,33792
3145,33792
3146,33856
3147,33984
3148,34240
3149,34304
3150,34112
3151,33792
3152,33536
3153,33408
3154,33408
3155,33536
3156,33600
3157,33472
3158,33280
3159,33216
3160,33216
3161,33280
3162,33408
3163,33536
3164,33664
3165,33856
3166,34048
3167,34048
3168,34112
3169,34048
3170,34112
3171,34304
3172,34496
3173,34624
3174,34496
3175,34304
3176,34112
3177,34112
3178,34176
3179,34432
3180,34560
3181,34432
3182,34368
3183,34432
3184,34688
3185,34944
3186,35008
3187,35072
3188,35200
3189,35392
3190,35456
3191,35456
3192,35328
3193,35328
3194,35392
3195,35392
3196,35264
3197,35264
3198,35328
3199,35200
3200,35072
3201,34880
3202,34496
3203,34048
3204,33600
3205,33216
3206,33024
3207,33024
3208,33216
3209,33472
3210,33472
3211,33280
3212,33088
3213,33024
3214,33024
3215,33152
3216,33280
3217,33408
3218,33408
3219,33280
3220,33152
3221,33472
3222,34368
3223,35904
3224,37952
3225,40576
3226,43840
3227,46208
3228,46784
3229,45504
3230,42816
3231,39168
3232,35072
3233,31424
3234,28864
3235,27456
3236,26880
3237,27392
3238,27968
3239,29120
3240,30080
3241,30848
3242,31552
3243,32384
3244,32832
3245,33088
3246,33216
3247,33088
3248,32896
3249,32896
3250,33024
3251,33280
3252,33472
3253,33536
3254,33536
3255,33664
3256,33728
3257,33920
3258,34048
3259,34176
3260,34112
3261,34048
3262,33984
3263,34048
3264,34176
3265,34240
3266,34432
3267,34496
3268,34304
3269,33984
3270,33792
3271,33792
3272,33920
3273,33920
3274,33984
3275,33920
3276,33920
3277,34048
3278,34048
3279,33856
3280,33600
3281,33472
3282,33408
3283,33280
3284,33280
3285,33216
3286,33344
3287,33600
3288,33792
3289,33984
3290,34112
3291,34240
3292,34368
3293,34496
3294,34496
3295,34368
3296,34176
3297,33984
3298,33920
3299,33984
3300,34048
3301,34240
3302,34432
3303,34624
3304,34560
3305,34432
3306,34304
3307,34304
3308,34496
3309,34752
3310,35008
3311,35200
3312,35136
3313,35072
3314,35200
3315,35328
3316,35264
3317,35136
3318,35200
3319,35264
3320,35328
3321,35392
3322,35328
3323,35136
3324,34944
3325,34816
3326,34624
3327,34304
3328,34112
3329,33856
3330,33536
3331,33216
3332,33216
3333,33408
3334,33536
3335,33472
3336,33280
3337,33152
3338,33152
3339,33216
3340,33216
3341,33280
3342,33344
3343,33408
3344,33536
3345,33600
3346,33920
3347,34816
3348,36224
3349,38336
3350,41280
3351,44544
3352,46912
3353,47168
3354,45504
3355,42304
3356,38016
3357,33600
3358,30144
3359,27904
3360,26880
3361,26752
3362,27328
3363,28160
3364,29184
3365,30336
3366,31616
3367,32512
3368,32768
3369,32768
3370,32704
3371,32768
3372,32896
3373,33088
3374,33152
3375,33152
3376,33280
3377,33536
3378,33664
3379,33792
3380,33856
3381,33920
3382,33920
3383,33984
3384,34048
3385,34048
3386,34048
3387,34112
3388,34176
3389,34176
3390,34112
3391,34240
3392,34496
3393,34432
3394,34048
3395,33792
3396,33728
3397,33728
3398,33792
3399,33728
3400,33664
3401,33600
3402,33664
3403,33664
3404,33600
3405,33600
3406,33600
3407,33536
3408,33536
3409,33728
3410,33920
3411,33856
3412,33856
3413,34048
3414,34112
3415,33920
3416,33728
3417,33664
3418,33664
3419,33664
3420,33792
3421,33920
3422,34112
3423,34240
3424,34368
3425,34496
3426,34560
3427,34560
3428,34368
3429,34240
3430,34240
3431,34304
3432,34560
3433,34688
3434,34880
3435,35008
3436,35136
3437,35264
3438,35584
3439,35776
3440,35648
3441,35200
3442,34880
3443,34752
3444,34752
3445,34880
3446,35072
3447,35136
3448,34880
3449,34624
3450,34368
3451,34176
3452,33856
3453,33600
3454,33408
3455,33408
3456,33472
3457,33472
3458,33344
3459,33280
3460,33408
3461,33600
3462,33664
3463,33536
3464,33408
3465,33280
3466,33344
3467,33408
3468,33216
3469,33216
3470,33664
3471,34752
3472,36480
3473,39040
3474,42368
3475,45696
3476,47744
3477,47744
3478,45888
3479,42240
3480,37568
3481,33088
3482,29696
3483,27648
3484,26624
3485,26432
3486,27008
3487,28032
3488,29120
3489,30144
3490,30912
3491,31616
3492,32384
3493,32576
3494,32832
3495,33024
3496,33152
3497,33344
3498,33600
3499,33856
3500,33856
3501,33664
3502,33408
3503,33216
3504,33280
3505,33408
3506,33472
3507,33600
3508,33728
3509,33856
3510,33920
3511,33920
3512,33856
3513,33664
3514,33600
3515,33664
3516,33792
3517,33856
3518,33920
3519,34112
3520,34176
3521,34176
3522,34176
3523,34240
3524,34112
3525,33792
3526,33536
3527,33408
3528,33280
3529,33280
3530,33216
3531,33152
3532,33152
3533,33152
3534,33152
3535,33152
3536,33344
3537,33600
3538,33664
3539,33856
3540,34048
3541,34240
3542,34368
3543,34368
3544,34368
3545,34560
3546,34624
3547,34688
3548,34496
3549,34112
3550,33792
3551,33792
3552,33984
3553,34048
3554,34112
3555,34304
3556,34496
3557,34688
3558,34816
3559,34816
3560,34880
3561,35072
3562,35328
3563,35392
3564,35456
3565,35392
3566,35328
3567,35456
3568,35456
3569,35328
3570,35072
3571,34688
3572,34304
3573,34048
3574,33792
3575,33536
3576,33344
3577,33216
3578,33216
3579,33344
3580,33344
3581,33280
3582,33216
3583,33344
3584,33536
3585,33600
3586,33600
3587,33600
3588,33664
3589,33536
3590,33344
3591,33216
3592,33216
3593,33536
3594,34752
3595,36864
3596,39744
3597,43136
3598,45632
3599,46656
3600,45888
3601,43648
3602,40192
3603,36160
3604,32384
3605,29568
3606,27840
3607,27008
3608,27072
3609,27648
3610,28736
3611,29824
3612,31232
3613,31488
3614,32000
3615,32448
3616,32896
3617,33152
3618,33152
3619,33152
3620,33216
3621,33152
3622,33152
3623,33216
3624,33344
3625,33408
3626,33536
3627,33728
3628,33792
3629,33856
3630,33856
3631,33856
3632,33792
3633,33856
3634,34048
3635,34304
3636,34176
3637,33984
3638,33920
3639,33984
3640,33984
3641,33856
3642,33536
3643,33472
3644,33472
3645,33536
3646,33536
3647,33536
3648,33600
3649,33728
3650,33728
3651,33536
3652,33344
3653,33216
3654,33216
3655,33344
3656,33536
3657,33600
3658,33536
3659,33536
3660,33536
3661,33536
3662,33664
3663,33856
3664,34048
3665,34176
3666,34368
3667,34496
3668,34496
3669,34432
3670,34432
3671,34560
3672,34624
3673,34560
3674,34432
3675,34368
3676,34432
3677,34496
3678,34624
3679,34752
3680,34944
3681,35072
3682,35200
3683,35264
3684,35264
3685,35264
3686,35200
3687,35200
3688,35200
3689,35264
3690,35456
3691,35648
3692,35456
3693,35008
3694,34624
3695,34368
3696,34176
3697,33856
3698,33408
3699,33216
3700,33216
3701,33280
3702,33408
3703,33344
3704,33088
3705,32960
3706,33024
3707,33152
3708,33216
3709,33344
3710,33408
3711,33344
3712,33152
3713,33152
3714,33472
3715,34368
3716,35968
3717,38464
3718,41792
3719,44800
3720,46272
3721,45888
3722,44160
3723,41344
3724,37760
3725,34112
3726,30976
3727,28864
3728,27584
3729,27072
3730,27136
3731,27968
3732,29184
3733,30336
3734,31168
3735,31936
3736,32320
3737,32576
3738,32704
3739,32832
3740,32896
3741,33024
3742,33280
3743,33408
3744,33600
3745,33664
3746,33664
3747,33664
3748,33664
3749,33600
3750,33536
3751,33536
3752,33536
3753,33664
3754,33792
3755,33728
3756,33792
3757,33920
3758,33984
3759,33984
3760,33984
3761,34048
3762,34176
3763,34112
3764,34112
3765,34176
3766,34176
3767,34240
3768,34240
3769,34112
3770,33856
3771,33536
3772,33216
3773,33024
3774,32896
3775,32832
3776,32768
3777,32896
3778,33024
3779,33280
3780,33664
3781,33920
3782,34176
3783,34240
3784,34240
3785,34304
3786,34368
3787,34432
3788,34560
3789,34752
3790,34880
3791,34816
3792,34624
3793,34304
3794,34240
3795,34432
3796,34496
3797,34496
3798,34496
3799,34496
3800,34624
3801,34752
3802,34944
3803,35136
3804,35328
3805,35456
3806,35584
3807,35648
3808,35648
3809,35584
3810,35456
3811,35392
3812,35328
3813,35328
3814,35136
3815,34752
3816,34368
3817,34048
3818,33856
3819,33600
3820,33344
3821,33280
3822,33280
3823,33408
3824,33472
3825,33344
3826,33152
3827,33152
3828,33280
3829,33344
3830,33408
3831,33344
3832,33216
3833,33280
3834,33664
3835,34240
3836,35520
3837,37632
3838,40640
3839,44032
3840,46400
3841,46912
3842,45696
3843,42688
3844,39040
3845,34816
3846,31168
3847,28608
3848,27264
3849,26816
3850,27200
3851,27968
3852,28928
3853,30016
3854,31040
3855,31872
3856,32448
3857,32704
3858,32832
3859,32960
3860,33152
3861,33216
3862,33472
3863,33728
3864,33792
3865,33600
3866,33344
3867,33344
3868,33472
3869,33536
3870,33536
3871,33664
3872,33728
3873,33728
3874,33728
3875,33856
3876,33920
3877,33920
3878,33984
3879,34176
3880,34304
3881,34368
3882,34496
3883,34560
3884,34176
3885,33856
3886,33600
3887,33408
3888,33280
3889,33216
3890,33344
3891,33536
3892,33536
3893,33408
3894,33344
3895,33344
3896,33472
3897,33536
3898,33536
3899,33600
3900,33728
3901,33856
3902,33984
3903,34048
3904,34368
3905,34688
3906,34752
3907,34432
3908,34048
3909,33920
3910,33984
3911,34112
3912,34240
3913,34176
3914,34176
3915,34304
3916,34496
3917,34688
3918,34944
3919,35136
3920,35200
3921,35136
3922,35200
3923,35328
3924,35456
3925,35584
3926,35648
3927,35584
3928,35520
3929,35456
3930,35392
3931,35456
3932,35328
3933,35136
3934,35072
3935,34688
3936,34048
3937,33536
3938,33216
3939,33088
3940,33088
3941,33152
3942,33152
3943,33280
3944,33280
3945,33344
3946,33408
3947,33600
3948,33856
3949,33984
3950,33728
3951,33344
3952,33152
3953,33088
3954,33344
3955,34304
3956,36096
3957,38784
3958,42176
3959,45312
3960,47040
3961,46848
3962,44992
3963,41344
3964,37312
3965,33280
3966,30208
3967,28224
3968,27072
3969,26816
3970,27392
3971,28352
3972,29440
3973,30400
3974,31104
3975,31680
3976,32192
3977,32576
3978,32832
3979,33024
3980,33216
3981,33408
3982,33600
3983,33664
3984,33728
3985,33856
3986,33984
3987,34048
3988,34112
3989,33920
3990,33472
3991,33344
3992,33472
3993,33600
3994,33536
3995,33536
3996,33664
3997,33728
3998,33856
3999,33984
4000,34112
4001,34176
4002,34176
4003,34112
4004,34048
4005,34048
4006,34176
4007,34496
4008,34624
4009,34368
4010,33600
4011,32960
4012,32768
4013,32704
4014,32704
4015,32832
4016,33088
4017,33280
4018,33408
4019,33600
4020,33792
4021,33984
4022,34112
4023,34176
4024,34240
4025,34240
4026,34304
4027,34368
4028,34560
4029,34816
4030,34816
4031,34624
4032,34560
4033,34432
4034,34304
4035,34112
4036,34048
4037,34240
4038,34496
4039,34688
4040,34752
4041,34816
4042,35008
4043,35200
4044,35328
4045,35328
4046,35392
4047,35392
4048,35456
4049,35392
4050,35264
4051,35072
4052,35008
4053,35008
4054,34688
4055,34112
4056,33664
4057,33280
4058,33152
4059,33216
4060,33344
4061,33344
4062,33280
4063,33280
4064,33280
4065,33344
4066,33472
4067,33536
4068,33600
4069,33664
4070,33856
4071,33920
4072,33792
4073,33792
4074,34368
4075,35968
4076,38400
4077,41792
4078,45184
4079,47296
4080,47232
4081,45312
4082,41792
4083,37120
4084,32832
4085,29568
4086,27840
4087,27200
4088,27200
4089,27584
4090,28544
4091,29632
4092,30400
4093,31040
4094,31616
4095,31936
4096,32256
4097,32576
4098,32896
4099,33152
4100,33280
4101,33408
4102,33600
4103,33792
4104,33792
4105,33728
4106,33664
4107,33600
4108,33536
4109,33600
4110,33792
4111,34112
4112,34240
4113,34176
4114,33856
4115,33600
4116,33600
4117,33728
4118,33856
4119,33920
4120,33920
4121,33984
4122,34112
4123,34112
4124,34048
4125,34048
4126,34112
4127,34112
4128,34048
4129,33856
4130,33472
4131,33152
4132,32960
4133,32960
4134,33024
4135,33152
4136,33536
4137,33664
4138,33536
4139,33472
4140,33536
4141,33600
4142,33728
4143,33792
4144,33920
4145,34112
4146,34176
4147,34240
4148,34176
4149,34176
4150,34240
4151,34368
4152,34368
4153,34240
4154,34240
4155,34368
4156,34560
4157,34688
4158,34752
4159,34880
4160,34944
4161,35136
4162,35392
4163,35328
4164,35136
4165,35008
4166,35072
4167,35264
4168,35456
4169,35584
4170,35264
4171,34816
4172,34432
4173,34112
4174,33856
4175,33664
4176,33408
4177,33280
4178,33280
4179,33280
4180,33408
4181,33408
4182,33408
4183,33408
4184,33536
4185,33728
4186,33728
4187,33664
4188,33600
4189,33408
4190,33152
4191,33024
4192,33152
4193,33984
4194,35968
4195,38464
4196,41920
4197,45120
4198,46912
4199,46720
4200,44928
4201,41536
4202,37312
4203,33280
4204,30080
4205,28032
4206,27072
4207,27008
4208,27584
4209,28736
4210,30016
4211,30976
4212,31360
4213,31552
4214,31744
4215,32064
4216,32384
4217,32640
4218,32832
4219,33024
4220,33152
4221,33344
4222,33536
4223,33600
4224,33600
4225,33664
4226,33856
4227,33792
4228,33536
4229,33472
4230,33536
4231,33664
4232,33728
4233,33600
4234,33536
4235,33600
4236,33728
4237,33728
4238,33600
4239,33536
4240,33536
4241,33600
4242,33664
4243,33728
4244,33856
4245,33984
4246,33920
4247,33664
4248,33472
4249,33344
4250,33344
4251,33344
4252,33344
4253,33280
4254,33344
4255,33472
4256,33472
4257,33408
4258,33536
4259,33856
4260,34112
4261,34112
4262,33984
4263,33920
4264,33856
4265,33856
4266,33984
4267,34176
4268,34240
4269,34304
4270,34368
4271,34368
4272,34560
4273,34752
4274,34944
4275,35136
4276,35008
4277,34944
4278,35136
4279,35392
4280,35584
4281,35456
4282,35264
4283,35008
4284,34880
4285,34944
4286,35072
4287,35200
4288,35136
4289,35008
4290,34816
4291,34688
4292,34432
4293,34368
4294,33856
4295,33728
4296,33600
4297,33408
4298,33216
4299,33280
4300,33472
4301,33344
4302,33088
4303,32960
4304,33088
4305,33216
4306,33216
4307,33088
4308,33024
4309,33152
4310,33792
4311,35200
4312,37312
4313,40192
4314,43328
4315,45696
4316,46400
4317,45440
4318,43136
4319,39616
4320,35712
4321,32064
4322,29376
4323,27712
4324,26944
4325,27008
4326,27584
4327,28608
4328,29568
4329,30464
4330,31232
4331,31872
4332,32448
4333,32768
4334,32896
4335,33024
4336,33216
4337,33280
4338,33344
4339,33472
4340,33728
4341,33984
4342,34048
4343,33984
4344,33920
4345,33792
4346,33536
4347,33280
4348,33344
4349,33536
4350,33600
4351,33600
4352,33536
4353,33600
4354,33664
4355,33728
4356,33856
4357,33984
4358,34048
4359,34112
4360,34176
4361,34112
4362,34048
4363,33920
4364,34048
4365,34240
4366,34112
4367,33664
4368,33216
4369,32768
4370,32576
4371,32704
4372,32960
4373,33216
4374,33408
4375,33664
4376,33920
4377,34048
4378,34176
4379,34304
4380,34304
4381,34368
4382,34496
4383,34688
4384,34752
4385,34752
4386,34752
4387,34880
4388,34816
4389,34368
4390,34048
4391,34048
4392,34240
4393,34560
4394,34816
4395,34944
4396,35008
4397,35200
4398,35392
4399,35520
4400,35584
4401,35584
4402,35584
4403,35584
4404,35712
4405,35904
4406,35968
4407,35648
4408,35392
4409,35072
4410,34496
4411,33792
4412,33344
4413,33216
4414,33216
4415,33216
4416,33152
4417,33152
4418,33088
4419,33152
4420,33280
4421,33344
4422,33472
4423,33664
4424,33664
4425,33408
4426,33088
4427,33280
4428,33984
4429,35456
4430,37696
4431,40704
4432,43968
4433,46272
4434,46656
4435,45312
4436,42688
4437,38912
4438,34816
4439,31168
4440,28608
4441,27008
4442,26432
4443,26688
4444,27456
4445,28544
4446,29760
4447,30848
4448,31616
4449,32128
4450,32512
4451,32896
4452,33280
4453,33472
4454,33472
4455,33216
4456,33088
4457,33280
4458,33600
4459,33728
4460,33536
4461,33408
4462,33344
4463,33280
4464,33280
4465,33472
4466,33792
4467,33920
4468,33856
4469,33792
4470,33792
4471,33920
4472,34112
4473,34240
4474,34304
4475,34304
4476,34240
4477,33984
4478,33856
4479,33728
4480,33728
4481,33664
4482,33664
4483,33728
4484,33664
4485,33408
4486,33280
4487,33216
4488,33344
4489,33408
4490,33472
4491,33664
4492,33984
4493,34176
4494,34240
4495,34432
4496,34496
4497,34304
4498,34112
4499,34048
4500,34112
4501,34176
4502,34368
4503,34432
4504,34432
4505,34496
4506,34560
4507,34624
4508,34688
4509,34880
4510,35136
4511,35328
4512,35456
4513,35520
4514,35520
4515,35328
4516,35200
4517,35136
4518,35200
4519,35200
4520,35264
4521,35328
4522,35328
4523,35328
4524,35200
4525,35008
4526,34816
4527,34624
4528,34368
4529,34048
4530,33792
4531,33664
4532,33664
4533,33792
4534,33792
4535,33536
4536,33344
4537,33216
4538,33088
4539,33344
4540,33856
4541,33920
4542,33472
4543,32832
4544,32640
4545,33216
4546,34624
4547,36992
4548,39488
4549,43008
4550,46080
4551,47488
4552,46848
4553,44480
4554,40704
4555,36352
4556,32192
4557,29120
4558,27328
4559,26688
4560,26816
4561,27584
4562,28736
4563,30080
4564,30912
4565,31488
4566,32064
4567,32512
4568,32832
4569,32960
4570,33152
4571,33408
4572,33600
4573,33536
4574,33472
4575,33408
4576,33280
4577,33344
4578,33472
4579,33664
4580,33856
4581,33856
4582,33856
4583,33920
4584,33920
4585,33856
4586,33984
4587,34176
4588,34496
4589,34496
4590,34176
4591,33920
4592,33856
4593,33856
4594,33728
4595,33664
4596,33600
4597,33728
4598,33856
4599,33856
4600,33728
4601,33600
4602,33536
4603,33472
4604,33408
4605,33408
4606,33600
4607,33984
4608,34176
4609,34048
4610,33728
4611,33600
4612,33728
4613,33984
4614,34048
4615,33920
4616,33856
4617,33920
4618,33984
4619,34112
4620,34176
4621,34304
4622,34368
4623,34432
4624,34560
4625,34752
4626,34880
4627,34944
4628,35008
4629,35136
4630,35264
4631,35392
4632,35456
4633,35456
4634,35392
4635,35392
4636,35456
4637,35648
4638,35520
4639,35136
4640,34688
4641,34368
4642,34240
4643,34048
4644,33984
4645,33856
4646,33728
4647,33600
4648,33472
4649,33472
4650,33472
4651,33472
4652,33664
4653,33856
4654,33920
4655,33856
4656,33664
4657,33408
4658,33088
4659,32768
4660,32640
4661,33024
4662,33984
4663,35648
4664,38080
4665,41408
4666,44992
4667,47616
4668,48192
4669,46656
4670,43392
4671,38912
4672,34432
4673,30656
4674,28096
4675,26752
4676,26432
4677,26752
4678,27648
4679,28800
4680,29824
4681,30784
4682,31616
4683,32128
4684,32384
4685,32640
4686,32832
4687,33024
4688,33216
4689,33344
4690,33536
4691,33600
4692,33536
4693,33344
4694,33280
4695,33344
4696,33408
4697,33600
4698,33728
4699,33728
4700,33728
4701,33728
4702,33472
4703,33408
4704,33472
4705,33536
4706,33728
4707,33792
4708,33856
4709,33856
4710,33920
4711,33920
4712,33920
4713,33920
4714,33920
4715,33856
4716,33792
4717,33728
4718,33536
4719,33344
4720,33280
4721,33280
4722,33472
4723,33600
4724,33600
4725,33472
4726,33408
4727,33472
4728,33600
4729,33856
4730,33984
4731,34048
4732,33984
4733,34048
4734,34176
4735,34176
4736,34240
4737,34368
4738,34496
4739,34560
4740,34560
4741,34624
4742,34752
4743,34880
4744,34944
4745,35072
4746,35328
4747,35456
4748,35392
4749,35264
4750,35264
4751,35328
4752,35136
4753,34880
4754,34880
4755,34880
4756,34944
4757,34880
4758,34816
4759,34624
4760,34368
4761,34176
4762,33984
4763,33728
4764,33472
4765,33472
4766,33664
4767,33600
4768,33408
4769,33152
4770,33088
4771,33088
4772,33152
4773,33344
4774,33536
4775,33280
4776,32832
4777,32832
4778,33408
4779,34816
4780,37120
4781,40256
4782,43648
4783,46144
4784,46912
4785,46016
4786,43520
4787,39616
4788,35392
4789,31680
4790,29120
4791,27840
4792,27200
4793,27136
4794,27648
4795,28608
4796,29632
4797,30528
4798,31296
4799,31936
4800,32448
4801,32768
4802,32960
4803,33088
4804,33216
4805,33280
4806,33408
4807,33472
4808,33408
4809,33344
4810,33344
4811,33408
4812,33664
4813,33920
4814,33920
4815,33664
4816,33408
4817,33344
4818,33408
4819,33408
4820,33600
4821,33728
4822,33856
4823,33856
4824,33792
4825,33792
4826,33856
4827,33856
4828,33856
4829,33856
4830,33728
4831,33600
4832,33536
4833,33600
4834,33728
4835,33728
4836,33664
4837,33344
4838,33088
4839,32960
4840,32960
4841,33152
4842,33408
4843,33600
4844,33728
4845,33920
4846,34112
4847,34368
4848,34368
4849,34368
4850,34304
4851,34432
4852,34624
4853,34752
4854,34880
4855,34752
4856,34560
4857,34560
4858,34688
4859,34752
4860,34880
4861,34880
4862,35008
4863,35200
4864,35392
4865,35392
4866,35392
4867,35328
4868,35328
4869,35456
4870,35584
4871,35584
4872,35392
4873,35264
4874,35008
4875,34688
4876,34368
4877,34048
4878,33856
4879,33728
4880,33600
4881,33536
4882,33664
4883,33856
4884,33728
4885,33344
4886,33088
4887,33088
4888,33280
4889,33216
4890,32960
4891,32640
4892,32576
4893,33088
4894,34112
4895,36096
4896,38848
4897,42176
4898,44992
4899,46400
4900,46016
4901,44288
4902,40768
4903,37504
4904,33792
4905,30720
4906,28672
4907,27584
4908,27328
4909,27456
4910,28032
4911,28992
4912,30080
4913,30976
4914,31744
4915,32384
4916,32768
4917,32960
4918,33088
4919,33216
4920,33280
4921,33344
4922,33472
4923,33536
4924,33600
4925,33664
4926,33664
4927,33536
4928,33664
4929,33984
4930,34240
4931,34048
4932,33600
4933,33280
4934,33280
4935,33472
4936,33664
4937,33792
4938,33856
4939,33984
4940,33984
4941,34048
4942,34048
4943,34112
4944,34048
4945,33984
4946,33920
4947,33920
4948,33920
4949,34048
4950,34048
4951,33664
4952,33216
4953,32960
4954,32896
4955,33024
4956,33216
4957,33408
4958,33664
4959,34048
4960,34240
4961,34176
4962,34176
4963,34240
4964,34304
4965,34368
4966,34432
4967,34496
4968,34560
4969,34560
4970,34624
4971,34688
4972,34816
4973,35008
4974,35200
4975,35328
4976,35328
4977,35456
4978,35520
4979,35520
4980,35392
4981,35264
4982,35456
4983,35584
4984,35456
4985,35328
4986,35264
4987,35136
4988,35008
4989,34816
4990,34688
4991,34432
4992,34112
4993,33856
4994,33664
4995,33536
4996,33408
4997,33472
4998,33664
4999,33728
5000,33792
5001,33792
5002,33792
5003,33792
5004,33600
5005,33280
5006,32960
5007,32960
5008,33216
5009,33920
5010,35584
5011,38016
5012,41472
5013,44416
5014,46528
5015,46656
5016,45120
5017,41984
5018,37952
5019,33856
5020,30528
5021,28352
5022,27264
5023,27264
5024,27712
5025,28544
5026,29568
5027,30592
5028,31168
5029,31488
5030,31744
5031,32128
5032,32448
5033,32768
5034,33024
5035,33280
5036,33472
5037,33664
5038,33664
5039,33728
5040,33728
5041,33664
5042,33664
5043,33728
5044,33664
5045,33728
5046,33856
5047,33920
5048,33920
5049,33792
5050,33664
5051,33664
5052,33856
5053,34048
5054,34048
5055,33920
5056,33856
5057,33920
5058,34048
5059,34048
5060,34048
5061,33920
5062,33792
5063,33792
5064,33792
5065,33728
5066,33664
5067,33792
5068,33856
5069,33664
5070,33408
5071,33408
5072,33600
5073,33792
5074,33920
5075,33984
5076,34112
5077,34240
5078,34176
5079,34240
5080,34304
5081,34304
5082,34304
5083,34240
5084,34240
5085,34368
5086,34432
5087,34624
5088,34688
5089,34816
5090,35008
5091,35200
5092,35520
5093,35712
5094,35648
5095,35520
5096,35456
5097,35392
5098,35328
5099,35456
5100,35648
5101,35584
5102,35200
5103,34880
5104,34688
5105,34560
5106,34432
5107,34304
5108,34048
5109,33792
5110,33664
5111,33600
5112,33536
5113,33600
5114,33728
5115,33920
5116,33792
5117,33536
5118,33280
5119,33024
5120,32960
5121,32832
5122,32896
5123,33280
5124,34112
5125,35776
5126,38144
5127,41920
5128,44736
5129,47104
5130,47552
5131,46080
5132,42944
5133,38656
5134,34560
5135,30784
5136,28352
5137,27136
5138,26880
5139,27072
5140,27648
5141,28608
5142,29632
5143,30656
5144,31424
5145,32000
5146,32448
5147,32768
5148,32960
5149,33152
5150,33344
5151,33536
5152,33664
5153,33792
5154,33984
5155,34048
5156,33920
5157,33664
5158,33664
5159,33664
5160,33536
5161,33344
5162,33280
5163,33280
5164,33344
5165,33536
5166,33728
5167,33920
5168,33984
5169,34048
5170,34048
5171,34176
5172,34176
5173,34176
5174,34176
5175,34304
5176,34496
5177,34688
5178,34560
5179,34112
5180,33600
5181,33216
5182,32960
5183,32832
5184,32896
5185,33024
5186,33216
5187,33536
5188,33664
5189,33792
5190,33984
5191,34112
5192,34176
5193,34304
5194,34432
5195,34432
5196,34368
5197,34304
5198,34368
5199,34560
5200,34816
5201,34944
5202,35008
5203,34880
5204,34624
5205,34496
5206,34304
5207,34176
5208,34304
5209,34496
5210,34816
5211,35072
5212,35200
5213,35200
5214,35328
5215,35392
5216,35520
5217,35584
5218,35456
5219,35264
5220,35008
5221,34816
5222,34432
5223,34112
5224,33984
5225,33728
5226,33344
5227,33024
5228,32896
5229,32960
5230,33024
5231,33216
5232,33472
5233,33472
5234,33472
5235,33344
5236,33216
5237,33088
5238,33216
5239,33984
5240,35648
5241,38016
5242,41024
5243,44288
5244,46784
5245,47488
5246,46208
5247,41728
5248,38848
5249,34688
5250,30976
5251,28544
5252,27200
5253,26688
5254,26880
5255,27648
5256,28672
5257,29696
5258,30656
5259,31488
5260,32000
5261,32384
5262,32704
5263,33024
5264,33280
5265,33408
5266,33408
5267,33344
5268,33280
5269,33088
5270,33024
5271,33024
5272,33088
5273,33216
5274,33472
5275,33536
5276,33600
5277,33728
5278,33856
5279,33984
5280,33920
5281,33856
5282,33728
5283,33536
5284,33472
5285,33536
5286,33600
5287,33664
5288,33792
5289,33920
5290,33920
5291,33984
5292,34048
5293,34048
5294,33856
5295,33664
5296,33600
5297,33408
5298,33280
5299,33280
5300,33472
5301,33600
5302,33600
5303,33600
5304,33728
5305,33920
5306,34048
5307,34240
5308,34240
5309,34112
5310,34048
5311,33984
5312,34112
5313,34176
5314,34240
5315,34304
5316,34368
5317,34496
5318,34752
5319,35008
5320,35072
5321,34880
5322,34688
5323,34624
5324,34688
5325,34816
5326,34880
5327,34944
5328,34944
5329,35008
5330,35136
5331,35200
5332,35328
5333,35392
5334,35264
5335,35136
5336,34944
5337,34688
5338,34560
5339,34432
5340,34112
5341,33664
5342,33280
5343,33280
5344,33280
5345,33216
5346,33280
5347,33472
5348,33408
5349,33152
5350,32960
5351,32896
5352,32768
5353,32640
5354,32960
5355,33792
5356,35264
5357,37504
5358,40640
5359,43904
5360,46144
5361,46592
5362,45504
5363,42880
5364,39104
5365,35008
5366,31296
5367,28800
5368,27328
5369,26816
5370,27008
5371,27712
5372,28736
5373,29760
5374,30720
5375,31488
5376,32000
5377,32448
5378,32768
5379,33152
5380,33600
5381,33856
5382,33600
5383,33152
5384,32896
5385,32960
5386,33152
5387,33280
5388,33280
5389,33216
5390,33216
5391,33408
5392,33600
5393,33664
5394,33664
5395,33728
5396,33792
5397,33920
5398,33984
5399,34176
5400,34112
5401,33920
5402,33728
5403,33536
5404,33472
5405,33472
5406,33600
5407,33728
5408,33792
5409,33856
5410,33728
5411,33472
5412,33344
5413,33408
5414,33536
5415,33472
5416,33408
5417,33472
5418,33664
5419,33856
5420,33984
5421,34112
5422,34240
5423,34240
5424,34176
5425,34240
5426,34304
5427,34176
5428,34112
5429,34176
5430,34304
5431,34432
5432,34560
5433,34624
5434,34688
5435,34560
5436,34432
5437,34496
5438,34688
5439,34944
5440,35200
5441,35392
5442,35584
5443,35584
5444,35648
5445,35648
5446,35712
5447,35776
5448,35776
5449,35648
5450,35456
5451,35200
5452,34944
5453,34688
5454,34432
5455,34112
5456,33792
5457,33408
5458,33216
5459,33088
5460,33088
5461,33088
5462,33152
5463,33152
5464,33216
5465,33280
5466,33344
5467,33344
5468,33152
5469,33216
5470,33856
5471,35072
5472,37504
5473,39872
5474,43136
5475,45696
5476,46592
5477,45632
5478,43264
5479,39744
5480,35712
5481,31936
5482,29120
5483,27456
5484,26816
5485,27008
5486,27776
5487,29440
5488,30016
5489,30848
5490,31488
5491,31936
5492,32320
5493,32704
5494,33088
5495,33408
5496,33408
5497,33344
5498,33344
5499,33344
5500,33408
5501,33408
5502,33408
5503,33472
5504,33536
5505,33792
5506,33984
5507,34048
5508,33984
5509,33984
5510,34048
5511,34048
5512,33920
5513,33856
5514,33856
5515,33920
5516,33920
5517,33920
5518,33920
5519,33984
5520,34048
5521,34112
5522,34048
5523,33920
5524,33792
5525,33792
5526,33728
5527,33600
5528,33600
5529,33664
5530,33664
5531,33664
5532,33600
5533,33664
5534,33728
5535,33920
5536,34240
5537,34496
5538,34624
5539,34560
5540,34240
5541,33984
5542,33728
5543,33664
5544,33792
5545,33920
5546,34112
5547,34560
5548,34688
5549,34816
5550,34880
5551,34944
5552,35008
5553,34944
5554,34944
5555,35136
5556,35392
5557,35520
5558,35520
5559,35520
5560,35520
5561,35584
5562,35456
5563,35392
5564,35328
5565,35200
5566,35008
5567,34816
5568,34624
5569,34368
5570,34048
5571,33792
5572,33728
5573,33920
5574,33920
5575,33600
5576,33344
5577,33216
5578,33088
5579,33024
5580,33024
5581,33088
5582,33088
5583,32960
5584,33152
5585,33856
5586,35200
5587,37440
5588,40256
5589,43712
5590,46464
5591,47488
5592,45696
5593,44032
5594,40512
5595,36032
5596,31744
5597,28736
5598,27008
5599,26304
5600,26432
5601,27264
5602,28416
5603,29632
5604,30656
5605,31488
5606,32128
5607,32768
5608,32896
5609,33088
5610,33216
5611,33408
5612,33600
5613,33664
5614,33792
5615,33984
5616,34048
5617,33728
5618,33280
5619,33024
5620,33024
5621,33280
5622,33472
5623,33600
5624,33664
5625,33728
5626,33728
5627,33920
5628,34176
5629,34368
5630,34432
5631,34304
5632,34176
5633,34176
5634,34112
5635,34048
5636,34048
5637,33984
5638,33920
5639,34112
5640,34176
5641,34048
5642,33792
5643,33536
5644,33408
5645,33344
5646,33408
5647,33472
5648,33664
5649,33856
5650,34048
5651,34176
5652,34368
5653,34432
5654,34560
5655,34688
5656,34688
5657,34560
5658,34368
5659,34240
5660,34240
5661,34304
5662,34240
5663,34176
5664,34304
5665,34496
5666,34688
5667,34752
5668,34688
5669,34688
5670,34752
5671,35008
5672,35328
5673,35584
5674,35648
5675,35520
5676,35392
5677,35392
5678,35456
5679,35584
5680,35584
5681,35456
5682,35072
5683,34688
5684,34432
5685,34112
5686,33792
5687,33536
5688,33408
5689,33344
5690,33216
5691,33152
5692,33216
5693,33344
5694,33408
5695,33472
5696,33664
5697,33856
5698,33984
5699,33664
5700,33472
5701,33728
5702,34752
5703,36544
5704,39104
5705,42496
5706,45632
5707,47424
5708,47168
5709,45120
5710,41472
5711,36928
5712,32448
5713,29184
5714,27264
5715,26560
5716,26816
5717,27520
5718,28544
5719,29632
5720,30848
5721,31680
5722,32000
5723,32064
5724,32192
5725,32320
5726,32576
5727,32960
5728,33216
5729,33280
5730,33216
5731,33280
5732,33408
5733,33472
5734,33536
5735,33600
5736,33664
5737,33792
5738,33984
5739,34176
5740,34112
5741,33920
5742,33920
5743,33984
5744,33920
5745,33728
5746,33728
5747,33856
5748,33920
5749,33920
5750,33984
5751,33984
5752,34112
5753,34112
5754,34112
5755,34048
5756,34112
5757,34304
5758,34432
5759,34304
5760,33920
5761,33600
5762,33472
5763,33472
5764,33536
5765,33600
5766,33600
5767,33664
5768,33856
5769,33984
5770,34112
5771,34176
5772,34240
5773,34176
5774,34112
5775,34112
5776,34176
5777,34240
5778,34304
5779,34496
5780,34624
5781,34368
5782,34112
5783,34176
5784,34176
5785,34112
5786,34240
5787,34368
5788,34496
5789,34688
5790,34816
5791,35008
5792,35200
5793,35328
5794,35328
5795,35328
5796,35328
5797,35264
5798,35264
5799,35264
5800,35072
5801,34752
5802,34432
5803,34304
5804,34240
5805,33984
5806,33408
5807,32960
5808,32768
5809,32640
5810,32704
5811,32896
5812,33152
5813,33216
5814,33216
5815,33280
5816,33344
5817,33344
5818,33280
5819,33600
5820,34368
5821,35776
5822,37760
5823,40640
5824,43968
5825,46720
5826,47616
5827,46528
5828,43712
5829,39552
5830,35200
5831,31232
5832,28416
5833,26880
5834,26432
5835,26624
5836,27264
5837,28288
5838,29504
5839,30528
5840,31360
5841,32000
5842,32448
5843,32768
5844,33024
5845,33152
5846,33280
5847,33408
5848,33536
5849,33536
5850,33408
5851,33344
5852,33408
5853,33792
5854,34112
5855,34048
5856,33600
5857,33216
5858,33088
5859,33088
5860,33280
5861,33472
5862,33664
5863,33856
5864,33920
5865,33984
5866,34112
5867,34112
5868,34112
5869,34112
5870,34176
5871,34304
5872,34496
5873,34368
5874,33984
5875,33664
5876,33536
5877,33600
5878,33472
5879,33280
5880,33216
5881,33216
5882,33344
5883,33472
5884,33664
5885,33856
5886,33984
5887,34176
5888,34240
5889,34304
5890,34240
5891,34304
5892,34432
5893,34432
5894,34304
5895,34304
5896,34496
5897,34560
5898,34240
5899,33856
5900,33664
5901,33664
5902,33856
5903,34112
5904,34368
5905,34688
5906,34944
5907,35072
5908,35136
5909,35136
5910,35200
5911,35392
5912,35520
5913,35456
5914,35456
5915,35712
5916,35904
5917,35776
5918,35392
5919,35072
5920,34816
5921,34432
5922,33856
5923,33408
5924,33152
5925,32960
5926,32960
5927,32960
5928,32960
5929,33024
5930,33152
5931,33216
5932,33344
5933,33472
5934,33536
5935,33536
5936,33536
5937,33472
5938,33280
5939,33344
5940,34176
5941,35648
5942,37888
5943,40768
5944,43584
5945,45760
5946,46208
5947,45056
5948,42624
5949,39040
5950,35008
5951,31360
5952,28800
5953,27328
5954,26752
5955,26880
5956,27520
5957,28672
5958,29760
5959,30656
5960,31424
5961,32064
5962,32512
5963,32832
5964,33088
5965,33280
5966,33472
5967,33536
5968,33408
5969,33152
5970,32960
5971,32960
5972,33088
5973,33280
5974,33408
5975,33408
5976,33536
5977,33728
5978,33984
5979,33920
5980,33728
5981,33600
5982,33536
5983,33728
5984,33920
5985,34048
5986,34176
5987,34304
5988,34176
5989,34112
5990,34240
5991,34176
5992,33856
5993,33600
5994,33472
5995,33408
5996,33664
5997,33856
5998,33728
5999,33536
6000,33408
6001,33344
6002,33344
6003,33536
6004,33728
6005,34048
6006,34368
6007,34496
6008,34496
6009,34304
6010,34240
6011,34176
6012,34176
6013,34304
6014,34368
6015,34304
6016,34304
6017,34560
6018,34752
6019,34496
6020,34240
6021,34176
6022,34304
6023,34560
6024,34944
6025,35072
6026,35072
6027,35136
6028,35328
6029,35584
6030,35712
6031,35712
6032,35712
6033,35776
6034,35840
6035,35776
6036,35584
6037,35456
6038,35328
6039,34880
6040,34432
6041,34048
6042,33792
6043,33600
6044,33408
6045,33280
6046,33152
6047,33024
6048,33088
6049,33216
6050,33344
6051,33408
6052,33472
6053,33536
6054,33472
6055,33536
6056,33472
6057,33472
6058,33856
6059,34816
6060,36544
6061,38848
6062,41856
6063,44864
6064,46592
6065,46528
6066,44800
6067,41536
6068,37376
6069,33088
6070,29760
6071,27584
6072,26624
6073,26560
6074,27200
6075,28224
6076,29440
6077,30592
6078,31488
6079,32064
6080,32384
6081,32704
6082,33024
6083,33216
6084,33536
6085,33408
6086,33280
6087,33280
6088,33280
6089,33344
6090,33408
6091,33536
6092,33728
6093,33792
6094,33792
6095,33856
6096,33856
6097,33984
6098,34176
6099,34432
6100,34432
6101,34432
6102,34432
6103,34368
6104,34176
6105,33920
6106,33792
6107,33728
6108,33728
6109,33920
6110,34048
6111,34112
6112,34048
6113,33984
6114,33920
6115,33856
6116,33792
6117,33728
6118,33664
6119,33600
6120,33920
6121,34112
6122,34240
6123,34240
6124,34624
6125,34688
6126,34496
6127,34240
6128,34112
6129,34112
6130,34048
6131,33920
6132,33856
6133,34048
6134,34176
6135,34112
6136,34048
6137,34112
6138,34240
6139,34432
6140,34752
6141,34944
6142,35072
6143,35136
6144,35264
6145,35392
6146,35584
6147,35712
6148,35968
6149,35968
6150,35648
6151,35264
6152,35200
6153,35136
6154,35072
6155,34752
6156,34432
6157,34176
6158,33984
6159,33792
6160,33600
6161,33408
6162,33408
6163,33344
6164,33344
6165,33344
6166,33408
6167,33408
6168,33408
6169,33408
6170,33408
6171,33472
6172,33472
6173,33408
6174,33664
6175,34560
6176,35776
6177,37632
6178,40192
6179,43392
6180,46144
6181,47360
6182,46528
6183,43904
6184,39936
6185,35456
6186,31360
6187,28416
6188,26816
6189,26368
6190,26688
6191,27520
6192,28736
6193,29952
6194,30976
6195,31872
6196,32512
6197,32832
6198,32896
6199,33024
6200,33280
6201,33344
6202,33344
6203,33344
6204,33216
6205,33152
6206,33280
6207,33472
6208,33664
6209,33600
6210,33472
6211,33472
6212,33664
6213,33792
6214,33920
6215,34176
6216,34368
6217,34368
6218,34240
6219,34112
6220,33984
6221,33920
6222,33856
6223,33856
6224,33984
6225,34176
6226,34240
6227,34304
6228,34240
6229,34176
6230,34176
6231,34176
6232,33984
6233,33728
6234,33536
6235,33536
6236,33728
6237,34048
6238,34112
6239,34048
6240,33856
6241,33728
6242,33792
6243,33920
6244,34048
6245,34112
6246,34112
6247,34112
6248,34176
6249,34368
6250,34432
6251,34368
6252,34240
6253,34304
6254,34496
6255,34624
6256,34688
6257,34752
6258,34624
6259,34560
6260,34560
6261,34624
6262,34880
6263,35072
6264,35264
6265,35392
6266,35328
6267,35264
6268,35264
6269,35264
6270,35264
6271,35264
6272,35136
6273,35008
6274,34944
6275,35008
6276,34880
6277,34432
6278,33856
6279,33216
6280,32896
6281,32832
6282,32896
6283,32896
6284,33024
6285,33152
6286,33280
6287,33344
6288,33408
6289,33472
6290,33408
6291,33408
6292,33664
6293,34560
6294,36032
6295,37952
6296,40640
6297,43968
6298,46784
6299,47808
6300,46848
6301,44096
6302,39808
6303,35200
6304,31104
6305,28288
6306,26688
6307,26240
6308,26624
6309,27520
6310,28672
6311,29760
6312,30720
6313,31488
6314,32064
6315,32384
6316,32640
6317,33024
6318,33472
6319,33536
6320,33344
6321,33024
6322,32704
6323,32640
6324,32704
6325,32896
6326,33088
6327,33344
6328,33600
6329,33792
6330,33792
6331,33728
6332,33728
6333,33728
6334,33792
6335,33920
6336,34112
6337,34304
6338,34432
6339,34432
6340,34304
6341,34368
6342,34304
6343,34112
6344,33984
6345,33856
6346,33600
6347,33536
6348,33472
6349,33472
6350,33408
6351,33344
6352,33408
6353,33408
6354,33536
6355,33664
6356,33792
6357,33856
6358,33920
6359,34048
6360,34176
6361,34368
6362,34624
6363,34880
6364,34752
6365,34368
6366,33920
6367,33600
6368,33472
6369,33536
6370,33600
6371,33728
6372,33856
6373,34048
6374,34240
6375,34432
6376,34624
6377,34880
6378,35008
6379,35008
6380,35008
6381,35136
6382,35456
6383,35584
6384,35392
6385,35200
6386,35200
6387,35456
6388,35584
6389,35328
6390,35072
6391,34816
6392,34496
6393,34176
6394,33920
6395,33600
6396,33344
6397,33216
6398,33152
6399,33152
6400,33152
6401,33216
6402,33344
6403,33472
6404,33472
6405,33600
6406,33728
6407,33856
6408,33792
6409,33216
6410,32704
6411,32832
6412,33728
6413,35328
6414,37760
6415,41024
6416,44288
6417,46336
6418,46528
6419,45184
6420,42240
6421,38272
6422,33984
6423,30720
6424,28416
6425,27136
6426,26752
6427,27008
6428,27904
6429,29120
6430,30400
6431,31360
6432,31936
6433,32128
6434,32192
6435,32256
6436,32448
6437,32640
6438,32832
6439,33088
6440,33280
6441,33408
6442,33472
6443,33472
6444,33472
6445,33472
6446,33600
6447,33856
6448,34240
6449,34176
6450,33792
6451,33472
6452,33408
6453,33408
6454,33600
6455,33728
6456,33856
6457,33920
6458,33920
6459,33920
6460,33856
6461,33920
6462,33920
6463,33984
6464,34048
6465,34048
6466,34048
6467,34112
6468,34048
6469,33856
6470,33728
6471,33664
6472,33472
6473,33216
6474,33216
6475,33344
6476,33472
6477,33664
6478,33792
6479,33984
6480,34048
6481,34112
6482,34176
6483,34304
6484,34432
6485,34496
6486,34560
6487,34624
6488,34560
6489,34496
6490,34496
6491,34496
6492,34368
6493,34240
6494,34432
6495,34688
6496,34752
6497,34752
6498,34816
6499,35008
6500,35200
6501,35392
6502,35456
6503,35456
6504,35392
6505,35392
6506,35520
6507,35712
6508,35712
6509,35392
6510,34944
6511,34752
6512,34496
6513,34176
6514,33664
6515,33088
6516,32704
6517,32640
6518,32768
6519,32832
6520,32896
6521,32960
6522,33088
6523,33152
6524,33216
6525,33344
6526,33472
6527,33472
6528,33408
6529,33728
6530,34560
6531,35968
6532,38080
6533,40960
6534,44032
6535,46080
6536,46400
6537,45184
6538,42496
6539,38656
6540,34432
6541,30784
6542,28224
6543,26880
6544,26432
6545,26752
6546,27776
6547,29184
6548,30336
6549,31040
6550,31552
6551,32000
6552,32384
6553,32704
6554,33088
6555,33472
6556,33728
6557,33664
6558,33536
6559,33472
6560,33408
6561,33472
6562,33664
6563,33728
6564,33536
6565,33472
6566,33536
6567,33600
6568,33856
6569,34240
6570,34368
6571,34240
6572,34048
6573,34048
6574,34048
6575,34048
6576,34112
6577,34240
6578,34368
6579,34368
6580,34432
6581,34432
6582,34304
6583,34112
6584,34048
6585,33984
6586,33856
6587,33664
6588,33472
6589,33408
6590,33472
6591,33600
6592,33792
6593,33856
6594,33920
6595,34048
6596,34176
6597,34240
6598,34240
6599,34304
6600,34496
6601,34880
6602,34880
6603,34560
6604,34240
6605,33984
6606,33920
6607,33984
6608,34048
6609,34048
6610,34176
6611,34368
6612,34688
6613,34880
6614,35072
6615,35072
6616,35136
6617,35264
6618,35392
6619,35520
6620,35584
6621,35584
6622,35520
6623,35456
6624,35584
6625,35904
6626,35968
6627,35328
6628,34496
6629,33856
6630,33472
6631,33216
6632,33088
6633,33088
6634,33024
6635,33024
6636,33024
6637,33088
6638,33216
6639,33344
6640,33472
6641,33536
6642,33472
6643,33408
6644,33344
6645,33280
6646,33408
6647,34176
6648,35520
6649,37632
6650,40640
6651,44032
6652,46400
6653,47104
6654,46080
6655,43520
6656,39680
6657,35392
6658,31424
6659,28544
6660,26944
6661,26432
6662,26752
6663,27520
6664,28672
6665,29824
6666,30848
6667,31680
6668,32192
6669,32640
6670,32960
6671,33280
6672,33472
6673,33600
6674,33536
6675,33344
6676,33344
6677,33408
6678,33600
6679,33728
6680,33664
6681,33536
6682,33408
6683,33472
6684,33600
6685,33728
6686,33920
6687,34176
6688,34368
6689,34432
6690,34496
6691,34496
6692,34368
6693,34304
6694,34368
6695,34496
6696,34368
6697,34112
6698,33920
6699,33984
6700,34048
6701,34048
6702,34048
6703,33984
6704,33920
6705,33856
6706,33792
6707,33856
6708,33984
6709,33984
6710,33920
6711,33728
6712,33600
6713,33664
6714,33792
6715,33984
6716,34112
6717,34240
6718,34304
6719,34368
6720,34368
6721,34176
6722,33984
6723,33920
6724,34048
6725,34240
6726,34432
6727,34560
6728,34624
6729,34752
6730,34880
6731,34880
6732,34944
6733,35072
6734,35200
6735,35392
6736,35712
6737,35840
6738,35776
6739,35584
6740,35264
6741,35072
6742,34880
6743,34624
6744,34368
6745,34240
6746,34240
6747,34240
6748,34112
6749,33920
6750,33536
6751,33216
6752,33152
6753,33216
6754,33408
6755,33728
6756,33856
6757,33600
6758,33472
6759,33344
6760,33152
6761,32960
6762,32768
6763,32640
6764,32960
6765,33920
6766,35456
6767,37888
6768,40640
6769,44224
6770,47168
6771,48128
6772,47040
6773,44160
6774,39872
6775,35136
6776,30848
6777,27904
6778,26432
6779,26048
6780,26560
6781,27520
6782,28736
6783,29824
6784,30848
6785,31552
6786,32000
6787,32384
6788,32640
6789,32896
6790,33216
6791,33472
6792,33856
6793,34112
6794,33984
6795,33600
6796,33280
6797,33152
6798,33088
6799,33152
6800,33344
6801,33472
6802,33600
6803,33728
6804,33856
6805,34048
6806,34176
6807,34304
6808,34496
6809,34624
6810,34688
6811,34688
6812,34752
6813,34688
6814,34560
6815,34368
6816,34176
6817,33984
6818,33856
6819,33728
6820,33536
6821,33472
6822,33472
6823,33472
6824,33408
6825,33472
6826,33600
6827,33728
6828,33920
6829,34112
6830,34240
6831,34368
6832,34368
6833,34304
6834,34176
6835,34112
6836,34240
6837,34368
6838,34304
6839,34048
6840,33856
6841,33984
6842,34112
6843,34112
6844,33920
6845,33792
6846,33856
6847,34048
6848,34368
6849,34560
6850,34752
6851,34880
6852,35072
6853,35136
6854,35264
6855,35328
6856,35328
6857,35264
6858,35264
6859,35584
6860,35776
6861,35584
6862,35264
6863,34816
6864,34432
6865,34048
6866,33600
6867,33280
6868,33152
6869,33024
6870,33024
6871,33088
6872,33216
6873,33344
6874,33408
6875,33408
6876,33536
6877,33664
6878,33728
6879,33664
6880,33408
6881,33088
6882,33024
6883,33408
6884,34496
6885,36416
6886,39104
6887,42304
6888,45376
6889,46656
6890,46208
6891,44288
6892,40832
6893,36672
6894,32640
6895,29568
6896,27648
6897,26752
6898,26752
6899,27392
6900,28480
6901,29504
6902,30464
6903,31296
6904,31872
6905,32384
6906,32768
6907,33216
6908,33536
6909,33600
6910,33408
6911,33152
6912,33024
6913,33216
6914,33472
6915,33472
6916,33344
6917,33344
6918,33344
6919,33344
6920,33472
6921,33600
6922,33728
6923,33792
6924,33920
6925,33984
6926,34048
6927,34176
6928,34368
6929,34432
6930,34432
6931,34368
6932,34304
6933,34112
6934,33920
6935,33728
6936,33600
6937,33408
6938,33280
6939,33280
6940,33344
6941,33344
6942,33408
6943,33472
6944,33536
6945,33728
6946,33792
6947,33856
6948,34048
6949,34176
6950,34240
6951,34240
6952,34240
6953,34304
6954,34240
6955,34176
6956,34176
6957,33984
6958,33792
6959,33728
6960,33664
6961,33728
6962,33856
6963,34112
6964,34240
6965,34432
6966,34624
6967,34816
6968,35072
6969,35072
6970,35072
6971,35200
6972,35328
6973,35392
6974,35456
6975,35456
6976,35520
6977,35648
6978,35648
6979,35584
6980,35328
6981,34752
6982,33984
6983,33536
6984,33280
6985,33088
6986,32960
6987,32896
6988,32896
6989,33088
6990,33152
6991,33216
6992,33344
6993,33472
6994,33536
6995,33600
6996,33472
6997,33344
6998,33216
6999,33152
7000,33280
7001,33792
7002,35008
7003,36608
7004,39168
7005,42560
7006,45376
7007,46464
7008,45632
7009,43584
7010,40064
7011,35968
7012,32192
7013,29376
7014,27840
7015,27200
7016,27264
7017,27840
7018,28416
7019,29376
7020,30464
7021,31424
7022,32128
7023,32512
7024,32704
7025,32896
7026,33024
7027,33216
7028,33472
7029,33728
7030,33728
7031,33792
7032,33920
7033,33728
7034,33344
7035,33216
7036,33344
7037,33536
7038,33536
7039,33472
7040,33472
7041,33600
7042,33728
7043,33856
7044,33984
7045,34176
7046,34240
7047,34240
7048,34368
7049,34752
7050,35072
7051,34816
7052,34304
7053,33920
7054,33792
7055,33664
7056,33408
7057,33152
7058,33152
7059,33216
7060,33216
7061,33280
7062,33472
7063,33664
7064,33856
7065,33920
7066,34048
7067,34240
7068,34304
7069,34432
7070,34496
7071,34496
7072,34368
7073,34368
7074,34432
7075,34432
7076,34432
7077,34240
7078,34048
7079,33984
7080,34048
7081,34176
7082,34368
7083,34560
7084,34880
7085,35136
7086,35264
7087,35328
7088,35392
7089,35456
7090,35520
7091,35584
7092,35648
7093,35776
7094,35968
7095,35840
7096,35520
7097,35136
7098,34816
7099,34688
7100,34624
7101,34240
7102,33856
7103,33536
7104,33280
7105,33024
7106,32960
7107,32960
7108,33024
7109,33216
7110,33344
7111,33344
7112,33344
7113,33408
7114,33408
7115,33344
7116,33152
7117,33088
7118,33408
7119,34304
7120,35840
7121,37952
7122,41408
7123,44032
7124,46272
7125,46592
7126,45312
7127,42496
7128,38336
7129,34432
7130,30912
7131,28416
7132,27136
7133,26752
7134,26944
7135,27712
7136,28864
7137,30016
7138,31040
7139,31872
7140,32512
7141,32896
7142,33216
7143,33472
7144,33600
7145,33536
7146,33536
7147,33664
7148,33472
7149,33216
7150,33088
7151,33152
7152,33344
7153,33600
7154,33792
7155,33856
7156,33792
7157,33856
7158,33920
7159,33984
7160,34112
7161,34240
7162,34496
7163,34688
7164,34752
7165,34688
7166,34432
7167,34176
7168,34048
7169,33920
7170,33920
7171,33984
7172,33920
7173,33856
7174,33792
7175,33728
7176,33664
7177,33600
7178,33600
7179,33664
7180,33728
7181,33920
7182,34240
7183,34432
7184,34752
7185,34624
7186,34112
7187,33792
7188,33664
7189,33728
7190,33856
7191,34048
7192,34176
7193,34176
7194,34176
7195,34048
7196,34048
7197,34176
7198,34304
7199,34432
7200,34624
7201,34880
7202,35008
7203,35136
7204,35200
7205,35264
7206,35328
7207,35520
7208,35712
7209,35776
7210,35712
7211,35712
7212,35584
7213,35392
7214,35008
7215,34624
7216,34496
7217,34432
7218,34304
7219,34112
7220,33856
7221,33536
7222,33344
7223,33344
7224,33344
7225,33344
7226,33216
7227,33152
7228,33088
7229,33152
7230,33280
7231,33408
7232,33536
7233,33664
7234,33600
7235,33472
7236,33472
7237,33984
7238,34944
7239,36736
7240,39360
7241,42752
7242,46656
7243,47296
7244,46592
7245,44096
7246,40256
7247,35776
7248,31680
7249,28736
7250,27072
7251,26432
7252,26624
7253,27328
7254,28480
7255,29760
7256,30976
7257,31936
7258,32448
7259,32768
7260,32960
7261,32896
7262,33024
7263,33216
7264,33280
7265,33280
7266,33280
7267,33344
7268,33472
7269,33664
7270,33600
7271,33536
7272,33728
7273,33856
7274,33984
7275,34048
7276,34112
7277,34112
7278,34176
7279,34176
7280,34176
7281,34240
7282,34304
7283,34624
7284,34688
7285,34496
7286,34240
7287,34176
7288,34112
7289,33984
7290,33856
7291,33728
7292,33600
7293,33664
7294,33792
7295,33856
7296,33792
7297,33728
7298,33728
7299,33728
7300,33728
7301,33856
7302,33920
7303,33920
7304,33984
7305,34112
7306,34240
7307,34304
7308,34304
7309,34240
7310,34176
7311,34112
7312,34048
7313,34048
7314,34112
7315,34304
7316,34304
7317,34176
7318,34176
7319,34240
7320,34368
7321,34560
7322,34816
7323,34944
7324,34944
7325,35008
7326,35136
7327,35392
7328,35520
7329,35584
7330,35520
7331,35456
7332,35584
7333,35456
7334,35072
7335,34624
7336,34368
7337,34240
7338,34176
7339,34176
7340,34176
7341,33792
7342,33408
7343,33152
7344,33024
7345,33024
7346,33088
7347,33152
7348,33280
7349,33408
7350,33536
7351,33664
7352,33600
7353,33536
7354,33408
7355,33280
7356,33152
7357,33344
7358,34240
7359,35904
7360,38336
7361,41664
7362,45056
7363,47232
7364,47488
7365,45760
7366,42240
7367,37632
7368,33024
7369,29632
7370,27520
7371,26496
7372,26432
7373,27136
7374,28160
7375,29312
7376,30144
7377,31360
7378,31680
7379,32064
7380,32384
7381,32640
7382,32960
7383,33280
7384,33472
7385,33664
7386,33728
7387,33792
7388,33792
7389,33856
7390,33856
7391,33664
7392,33792
7393,33920
7394,34176
7395,34112
7396,33792
7397,33728
7398,33856
7399,33984
7400,34048
7401,34048
7402,34112
7403,34304
7404,34368
7405,34432
7406,34560
7407,34496
7408,34368
7409,34304
7410,34432
7411,34496
7412,34176
7413,33856
7414,33728
7415,33664
7416,33472
7417,33408
7418,33408
7419,33408
7420,33536
7421,33728
7422,33920
7423,33984
7424,34176
7425,34368
7426,34496
7427,34368
7428,34112
7429,34048
7430,34112
7431,34304
7432,34432
7433,34432
7434,34304
7435,33984
7436,33856
7437,33856
7438,33984
7439,34048
7440,34112
7441,34240
7442,34432
7443,34752
7444,34880
7445,34880
7446,34880
7447,34944
7448,35136
7449,35392
7450,35520
7451,35456
7452,35136
7453,35008
7454,34944
7455,34880
7456,34880
7457,34752
7458,34560
7459,34304
7460,34176
7461,34048
7462,33920
7463,33664
7464,33280
7465,32960
7466,32832
7467,32832
7468,33024
7469,33216
7470,33408
7471,33472
7472,33408
7473,33344
7474,33408
7475,33472
7476,33344
7477,33216
7478,33472
7479,34240
7480,35776
7481,38208
7482,43136
7483,44864
7484,46912
7485,46976
7486,45248
7487,41920
7488,37504
7489,33280
7490,29824
7491,27584
7492,26560
7493,26496
7494,27008
7495,28096
7496,29376
7497,30848
7498,31296
7499,31808
7500,32128
7501,32448
7502,32768
7503,33024
7504,33088
7505,33152
7506,33216
7507,33280
7508,33408
7509,33472
7510,33536
7511,33600
7512,33728
7513,34048
7514,34368
7515,34240
7516,33856
7517,33600
7518,33536
7519,33600
7520,33728
7521,33792
7522,33792
7523,33856
7524,33920
7525,33984
7526,34048
7527,34240
7528,34240
7529,34240
7530,34176
7531,34176
7532,34240
7533,34240
7534,33920
7535,33600
7536,33664
7537,33664
7538,33344
7539,33152
7540,33088
7541,33152
7542,33472
7543,33600
7544,33792
7545,33920
7546,34112
7547,34240
7548,34304
7549,34304
7550,34304
7551,34368
7552,34304
7553,34240
7554,34112
7555,34112
7556,34240
7557,34432
7558,34496
7559,34432
7560,34240
7561,34048
7562,34048
7563,34112
7564,34304
7565,34560
7566,34752
7567,34816
7568,34752
7569,34816
7570,34880
7571,35008
7572,35136
7573,35264
7574,35392
7575,35456
7576,35584
7577,35520
7578,35264
7579,34944
7580,34688
7581,34496
7582,34240
7583,33920
7584,33536
7585,33216
7586,33024
7587,32896
7588,32768
7589,32768
7590,32896
7591,33088
7592,33280
7593,33408
7594,33344
7595,33344
7596,33344
7597,33472
7598,33600
7599,33792
7600,33920
7601,34048
7602,35392
7603,36160
7604,38400
7605,41408
7606,44224
7607,45696
7608,45440
7609,43776
7610,40768
7611,36928
7612,33024
7613,29888
7614,27904
7615,26944
7616,26816
7617,27520
7618,28416
7619,29632
7620,30720
7621,31552
7622,32064
7623,32384
7624,32576
7625,32832
7626,33088
7627,33280
7628,33536
7629,33600
7630,33600
7631,33600
7632,33600
7633,33536
7634,33472
7635,33408
7636,33472
7637,33728
7638,33920
7639,33920
7640,33920
7641,33792
7642,33728
7643,33728
7644,33920
7645,34048
7646,34176
7647,34304
7648,34368
7649,34304
7650,34176
7651,34176
7652,34176
7653,34176
7654,34048
7655,33856
7656,33664
7657,33536
7658,33536
7659,33600
7660,33600
7661,33536
7662,33408
7663,33344
7664,33472
7665,33728
7666,33920
7667,34048
7668,34112
7669,34112
7670,34112
7671,34304
7672,34496
7673,34560
7674,34368
7675,34112
7676,33984
7677,34048
7678,34112
7679,34112
7680,34112
7681,34176
7682,34304
7683,34432
7684,34496
7685,34560
7686,34624
7687,34688
7688,34816
7689,34944
7690,35136
7691,35264
7692,35392
7693,35456
7694,35584
7695,35584
7696,35264
7697,35072
7698,35072
7699,35072
7700,35008
7701,34944
7702,34816
7703,34624
7704,34496
7705,34368
7706,34176
7707,33920
7708,33600
7709,33344
7710,33216
7711,33344
7712,33664
7713,33792
7714,33600
7715,33216
7716,32960
7717,32768
7718,32832
7719,33024
7720,33152
7721,33152
7722,33088
7723,33216
7724,33792
7725,34816
7726,36672
7727,39168
7728,42368
7729,45184
7730,46720
7731,46400
7732,44416
7733,40896
7734,36672
7735,32576
7736,29376
7737,27328
7738,26368
7739,26304
7740,27072
7741,28224
7742,29504
7743,30528
7744,31424
7745,32128
7746,32704
7747,33088
7748,33472
7749,33728
7750,33984
7751,33984
7752,33920
7753,33920
7754,33920
7755,33664
7756,33280
7757,33088
7758,33024
7759,33088
7760,33280
7761,33536
7762,33856
7763,33984
7764,34112
7765,34176
7766,34240
7767,34304
7768,34304
7769,34368
7770,34496
7771,34752
7772,35008
7773,34880
7774,34560
7775,34240
7776,33920
7777,33536
7778,33280
7779,33280
7780,33344
7781,33408
7782,33408
7783,33408
7784,33408
7785,33536
7786,33664
7787,33856
7788,33984
7789,34048
7790,34048
7791,34240
7792,34432
7793,34560
7794,34496
7795,34368
7796,34176
7797,34112
7798,34048
7799,33984
7800,34048
7801,34176
7802,34304
7803,34240
7804,34240
7805,34368
7806,34432
7807,34432
7808,34432
7809,34560
7810,34752
7811,34944
7812,35200
7813,35456
7814,35648
7815,35648
7816,35392
7817,35136
7818,35072
7819,35136
7820,34944
7821,34688
7822,34688
7823,34752
7824,34816
7825,34752
7826,34688
7827,34624
7828,34560
7829,34368
7830,34048
7831,33856
7832,33920
7833,33856
7834,33344
7835,32960
7836,32960
7837,33152
7838,33152
7839,33024
7840,32896
7841,32960
7842,33024
7843,33152
7844,33280
7845,33280
7846,33344
7847,33664
7848,34560
7849,35968
7850,38144
7851,41088
7852,44288
7853,46528
7854,47040
7855,45888
7856,42816
7857,38592
7858,34048
7859,30144
7860,27712
7861,26496
7862,26240
7863,26752
7864,27712
7865,28928
7866,30080
7867,31040
7868,31872
7869,32448
7870,32896
7871,33152
7872,33344
7873,33600
7874,33920
7875,34112
7876,33984
7877,33984
7878,33984
7879,33728
7880,33344
7881,33280
7882,33280
7883,33408
7884,33536
7885,33728
7886,33920
7887,34112
7888,34176
7889,34304
7890,34368
7891,34496
7892,34560
7893,34688
7894,34752
7895,34752
7896,34624
7897,34496
7898,34304
7899,34112
7900,33920
7901,33856
7902,33984
7903,34176
7904,33664
7905,33536
7906,33664
7907,33664
7908,33536
7909,33344
7910,33408
7911,33600
7912,33856
7913,34048
7914,34176
7915,34240
7916,34240
7917,34176
7918,34048
7919,34112
7920,34176
7921,34240
7922,34240
7923,34304
7924,34240
7925,34176
7926,34432
7927,34816
7928,34688
7929,34368
7930,34240
7931,34240
7932,34368
7933,34432
7934,34432
7935,34560
7936,34752
7937,34816
7938,34816
7939,35008
7940,35136
7941,35264
7942,35264
7943,35200
7944,35200
7945,35328
7946,35520
7947,35584
7948,35520
7949,35328
7950,34752
7951,34176
7952,33792
7953,33664
7954,33216
7955,32960
7956,32832
7957,32832
7958,32896
7959,33088
7960,33216
7961,33280
7962,33408
7963,33472
7964,33600
7965,33728
7966,33728
7967,33600
7968,33344
7969,33344
7970,33600
7971,34432
7972,36160
7973,38592
7974,41792
7975,44992
7976,46976
7977,46976
7978,46720
7979,41792
7980,37376
7981,33088
7982,29696
7983,27520
7984,26432
7985,26432
7986,27072
7987,28096
7988,29312
7989,30336
7990,31232
7991,32000
7992,32576
7993,33216
7994,33792
7995,33856
7996,33600
7997,33344
7998,33152
7999,33088
8000,33088
8001,33280
8002,33472
8003,33600
8004,33792
8005,33984
8006,34112
8007,34048
8008,33920
8009,33856
8010,33920
8011,34048
8012,34176
8013,34368
8014,34496
8015,34688
8016,34688
8017,34560
8018,34496
8019,34688
8020,34752
8021,34496
8022,34112
8023,34048
8024,33664
8025,33536
8026,33600
8027,33600
8028,33600
8029,33536
8030,33472
8031,33472
8032,33600
8033,33728
8034,33984
8035,34176
8036,34240
8037,34176
8038,34112
8039,34112
8040,34112
8041,34048
8042,33920
8043,33792
8044,33920
8045,33920
8046,33856
8047,33728
8048,33792
8049,33920
8050,33984
8051,34112
8052,34176
8053,34304
8054,34368
8055,34368
8056,34368
8057,34496
8058,34688
8059,34944
8060,35008
8061,34944
8062,35008
8063,35008
8064,35008
8065,34944
8066,35008
8067,35072
8068,35072
8069,34944
8070,34752
8071,34624
8072,34560
8073,34496
8074,34368
8075,34240
8076,34112
8077,33920
8078,33792
8079,33664
8080,33344
8081,33152
8082,33088
8083,33152
8084,33280
8085,33344
8086,33280
8087,33216
8088,33280
8089,33344
8090,33408
8091,33408
8092,33344
8093,33216
8094,33280
8095,33856
8096,35072
8097,36928
8098,39616
8099,42880
8100,45632
8101,46848
8102,46080
8103,43776
8104,40064
8105,35840
8106,31808
8107,28736
8108,26880
8109,26176
8110,26496
8111,27328
8112,28544
8113,29760
8114,30720
8115,31488
8116,32128
8117,32704
8118,33024
8119,33216
8120,33344
8121,33344
8122,33344
8123,33344
8124,33472
8125,33536
8126,33536
8127,33536
8128,33728
8129,33984
8130,34048
8131,33856
8132,33792
8133,33856
8134,33920
8135,33984
8136,33984
8137,33984
8138,33984
8139,34048
8140,34304
8141,34432
8142,34368
8143,34240
8144,34112
8145,34048
8146,33984
8147,33920
8148,33920
8149,33792
8150,33728
8151,33664
8152,33728
8153,33728
8154,33728
8155,33728
8156,33792
8157,33728
8158,33600
8159,33600
8160,33664
8161,33728
8162,33664
8163,33728
8164,33792
8165,33792
8166,33856
8167,33920
8168,33920
8169,34048
8170,34112
8171,34304
8172,34368
8173,34432
8174,34496
8175,34688
8176,34752
8177,34624
8178,34432
8179,34176
8180,33984
8181,34048
8182,34240
8183,34432
8184,34560
8185,34688
8186,34752
8187,34816
8188,34880
8189,35072
8190,35200
8191,35200
8192,35264
8193,35264
8194,35328
8195,35264
8196,35136
8197,34944
8198,34816
8199,34816
8200,34688
8201,34432
8202,34048
8203,33600
8204,33088
8205,32640
8206,32448
8207,32512
8208,32640
8209,32832
8210,33024
8211,33216
8212,33344
8213,33408
8214,33472
8215,33536
8216,33472
8217,33280
8218,33344
8219,34176
8220,35136
8221,36032
8222,37824
8223,40512
8224,43520
8225,45504
8226,45760
8227,44416
8228,41728
8229,38016
8230,34048
8231,30656
8232,28352
8233,27136
8234,26752
8235,27136
8236,28032
8237,29120
8238,30144
8239,31168
8240,32064
8241,32640
8242,32896
8243,33088
8244,33216
8245,33216
8246,33280
8247,33536
8248,33664
8249,33536
8250,33280
8251,33152
8252,33152
8253,33216
8254,33344
8255,33536
8256,33728
8257,33984
8258,34112
8259,34176
8260,34240
8261,34240
8262,34368
8263,34496
8264,34432
8265,34432
8266,34432
8267,34432
8268,34304
8269,34240
8270,34176
8271,34176
8272,34112
8273,33856
8274,33536
8275,33344
8276,33344
8277,33408
8278,33472
8279,33408
8280,33408
8281,33536
8282,33664
8283,33792
8284,33920
8285,34112
8286,34304
8287,34432
8288,34432
8289,34368
8290,34240
8291,34112
8292,33984
8293,33920
8294,33984
8295,34112
8296,34112
8297,34176
8298,34240
8299,34304
8300,34368
8301,34496
8302,34624
8303,34688
8304,34752
8305,34816
8306,34880
8307,35008
8308,35136
8309,35392
8310,35584
8311,35456
8312,35392
8313,35520
8314,35392
8315,35008
8316,34816
8317,34752
8318,34752
8319,34880
8320,34944
8321,34944
8322,34816
8323,34688
8324,34496
8325,34176
8326,33792
8327,33472
8328,33280
8329,33280
8330,33536
8331,33408
8332,33216
8333,33152
8334,33216
8335,33152
8336,32960
8337,32960
8338,33088
8339,33152
8340,33088
8341,33024
8342,33280
8343,33984
8344,35328
8345,37376
8346,40192
8347,43520
8348,46016
8349,46784
8350,45696
8351,43328
8352,39744
8353,35584
8354,31488
8355,28480
8356,26816
8357,26432
8358,27008
8359,27712
8360,28672
8361,29760
8362,30784
8363,31616
8364,32256
8365,32704
8366,33152
8367,33472
8368,33600
8369,33664
8370,33856
8371,33984
8372,33792
8373,33536
8374,33408
8375,33472
8376,33472
8377,33600
8378,33728
8379,33856
8380,34048
8381,34112
8382,34176
8383,34176
8384,34240
8385,34304
8386,34304
8387,34304
8388,34240
8389,34304
8390,34304
8391,34368
8392,34496
8393,34560
8394,34496
8395,34240
8396,34176
8397,34048
8398,33792
8399,33600
8400,33472
8401,33536
8402,33472
8403,33344
8404,33280
8405,33280
8406,33344
8407,33600
8408,33792
8409,33984
8410,34176
8411,34240
8412,34240
8413,34176
8414,34112
8415,33920
8416,33856
8417,33920
8418,34048
8419,34112
8420,34368
8421,34624
8422,34624
8423,34560
8424,34560
8425,34624
8426,34816
8427,34944
8428,35136
8429,35136
8430,34880
8431,34624
8432,34496
8433,34560
8434,34624
8435,34816
8436,35008
8437,35264
8438,35392
8439,35392
8440,35328
8441,35264
8442,35200
8443,35072
8444,34944
8445,34880
8446,34944
8447,34880
8448,34496
8449,34048
8450,33664
8451,33216
8452,32832
8453,32704
8454,32704
8455,32768
8456,32832
8457,32960
8458,33216
8459,33344
8460,33472
8461,33600
8462,33664
8463,33600
8464,33536
8465,33664
8466,34176
8467,35008
8468,36480
8469,38784
8470,41984
8471,45120
8472,46912
8473,46400
8474,44480
8475,41024
8476,36608
8477,32384
8478,29120
8479,27136
8480,26304
8481,26432
8482,27264
8483,28416
8484,29632
8485,30784
8486,31744
8487,32448
8488,32768
8489,32896
8490,33024
8491,33216
8492,33600
8493,33856
8494,33856
8495,33664
8496,33536
8497,33408
8498,33472
8499,33600
8500,33728
8501,33728
8502,33792
8503,33856
8504,34112
8505,34304
8506,34240
8507,34176
8508,34176
8509,34240
8510,34304
8511,34432
8512,34432
8513,34432
8514,34560
8515,34688
8516,34496
8517,34176
8518,33920
8519,33920
8520,33984
8521,33856
8522,33536
8523,33280
8524,33088
8525,33088
8526,33152
8527,33280
8528,33472
8529,33664
8530,33920
8531,34048
8532,34048
8533,34112
8534,34112
8535,34112
8536,34112
8537,34112
8538,34112
8539,34304
8540,34432
8541,34368
8542,34240
8543,34048
8544,33920
8545,33984
8546,34112
8547,34048
8548,33984
8549,33984
8550,34176
8551,34368
8552,34560
8553,34560
8554,34688
8555,34752
8556,34880
8557,35008
8558,35072
8559,35200
8560,35392
8561,35584
8562,35456
8563,35200
8564,35008
8565,34944
8566,35008
8567,35072
8568,34816
8569,34560
8570,34304
8571,34176
8572,34112
8573,33984
8574,33728
8575,33408
8576,33216
8577,33152
8578,33088
8579,33152
8580,33472
8581,33728
8582,33792
8583,33600
8584,33536
8585,33472
8586,33344
8587,33216
8588,32960
8589,32768
8590,32832
8591,33408
8592,34624
8593,36352
8594,38784
8595,42176
8596,45440
8597,47232
8598,46592
8599,44544
8600,40896
8601,36416
8602,32000
8603,28864
8604,27008
8605,26368
8606,26688
8607,27584
8608,28608
8609,29632
8610,30464
8611,31232
8612,31808
8613,32320
8614,32704
8615,33024
8616,33408
8617,33536
8618,33472
8619,33408
8620,33344
8621,33344
8622,33472
8623,33536
8624,33728
8625,33920
8626,33984
8627,34048
8628,33984
8629,33984
8630,33920
8631,33920
8632,33984
8633,34112
8634,34176
8635,34176
8636,34176
8637,34304
8638,34560
8639,34624
8640,34624
8641,34432
8642,34176
8643,33984
8644,33856
8645,33728
8646,33664
8647,33664
8648,33664
8649,33664
8650,33600
8651,33472
8652,33408
8653,33408
8654,33408
8655,33600
8656,33856
8657,33984
8658,33984
8659,33984
8660,34048
8661,34368
8662,34432
8663,33920
8664,33600
8665,33600
8666,33728
8667,33728
8668,33792
8669,33984
8670,34176
8671,34176
8672,34176
8673,34304
8674,34432
8675,34560
8676,34560
8677,34496
8678,34496
8679,34560
8680,34560
8681,34560
8682,34560
8683,34560
8684,34560
8685,34624
8686,34816
8687,35008
8688,35008
8689,34880
8690,34752
8691,34752
8692,34816
8693,34944
8694,35072
8695,35136
8696,34944
8697,34624
8698,34176
8699,33728
8700,33472
8701,33408
8702,33280
8703,33024
8704,32832
8705,32704
8706,32704
8707,32832
8708,32960
8709,33152
8710,33280
8711,33472
8712,33728
8713,33728
8714,33536
8715,33344
8716,33344
8717,33664
8718,34432
8719,35648
8720,37568
8721,40320
8722,43328
8723,45504
8724,46080
8725,44736
8726,41920
8727,38016
8728,33856
8729,30400
8730,28224
8731,27136
8732,26880
8733,27392
8734,28224
8735,29248
8736,30144
8737,30848
8738,31424
8739,31872
8740,32384
8741,32896
8742,33216
8743,33344
8744,33408
8745,33344
8746,33344
8747,33536
8748,33728
8749,33792
8750,33792
8751,33792
8752,33664
8753,33536
8754,33472
8755,33536
8756,33600
8757,33856
8758,34176
8759,34496
8760,34624
8761,34432
8762,34304
8763,34176
8764,34112
8765,34112
8766,34304
8767,34496
8768,34496
8769,34432
8770,34368
8771,34176
8772,33728
8773,33408
8774,33152
8775,33088
8776,33152
8777,33280
8778,33280
8779,33408
8780,33536
8781,33664
8782,33856
8783,34112
8784,34368
8785,34496
8786,34304
8787,34048
8788,33920
8789,33792
8790,33856
8791,34112
8792,34240
8793,34240
8794,34176
8795,34176
8796,34176
8797,34432
8798,34688
8799,34688
8800,34560
8801,34496
8802,34560
8803,34624
8804,34560
8805,34560
8806,34752
8807,35200
8808,35328
8809,35072
8810,34816
8811,34688
8812,34816
8813,34880
8814,34944
8815,35008
8816,35200
8817,35392
8818,35392
8819,35264
8820,35072
8821,34880
8822,34624
8823,34368
8824,34176
8825,34048
8826,33920
8827,33664
8828,33280
8829,32896
8830,32704
8831,32640
8832,32768
8833,32896
8834,33088
8835,33344
8836,33472
8837,33536
8838,33536
8839,33472
8840,33344
8841,33472
8842,33792
8843,34688
8844,36288
8845,38528
8846,41472
8847,44992
8848,46336
8849,46208
8850,44544
8851,41408
8852,37312
8853,33152
8854,29760
8855,27712
8856,26752
8857,26688
8858,27264
8859,28224
8860,29440
8861,30592
8862,31552
8863,32192
8864,32768
8865,33088
8866,33408
8867,33536
8868,33536
8869,33600
8870,33728
8871,33792
8872,33792
8873,33792
8874,33536
8875,33344
8876,33344
8877,33408
8878,33664
8879,33792
8880,33856
8881,33920
8882,34112
8883,34240
8884,34368
8885,34496
8886,34624
8887,34624
8888,34560
8889,34496
8890,34688
8891,34816
8892,34688
8893,34432
8894,34048
8895,33728
8896,33664
8897,33664
8898,33536
8899,33344
8900,33216
8901,33152
8902,33216
8903,33408
8904,33600
8905,33792
8906,33984
8907,34048
8908,34048
8909,34112
8910,34240
8911,34368
8912,34496
8913,34496
8914,34304
8915,34048
8916,33984
8917,34112
8918,34112
8919,34048
8920,33984
8921,33984
8922,34112
8923,34176
8924,34368
8925,34560
8926,34688
8927,34752
8928,34816
8929,34944
8930,35072
8931,35136
8932,35136
8933,35072
8934,35200
8935,35456
8936,35584
8937,35456
8938,35328
8939,35136
8940,34880
8941,34880
8942,34944
8943,35008
8944,34944
8945,34688
8946,34432
8947,34176
8948,34048
8949,33856
8950,33600
8951,33408
8952,33216
8953,33088
8954,33152
8955,33280
8956,33408
8957,33472
8958,33600
8959,33664
8960,33600
8961,33408
8962,33280
8963,33152
8964,32896
8965,32832
8966,33216
8967,34304
8968,35712
8969,38016
8970,41152
8971,44352
8972,46528
8973,46848
8974,45440
8975,42432
8976,38272
8977,33920
8978,30272
8979,27968
8980,26880
8981,26688
8982,27072
8983,27904
8984,28928
8985,30016
8986,31040
8987,31744
8988,32320
8989,32768
8990,33088
8991,33216
8992,33344
8993,33408
8994,33472
8995,33792
8996,34112
8997,34176
8998,33984
8999,33728
9000,33600
9001,33664
9002,33728
9003,33856
9004,33856
9005,33920
9006,33984
9007,34112
9008,34176
9009,34112
9010,34112
9011,34176
9012,34304
9013,34432
9014,34624
9015,34752
9016,34560
9017,34240
9018,33984
9019,33856
9020,33856
9021,33984
9022,33920
9023,33792
9024,33600
9025,33472
9026,33472
9027,33408
9028,33472
9029,33664
9030,33792
9031,33728
9032,33728
9033,33856
9034,33984
9035,33984
9036,33920
9037,33984
9038,33984
9039,33920
9040,33984
9041,34048
9042,34112
9043,34112
9044,34112
9045,34304
9046,34432
9047,34432
9048,34368
9049,34304
9050,34304
9051,34368
9052,34368
9053,34496
9054,34624
9055,34752
9056,34816
9057,34816
9058,34880
9059,35072
9060,35264
9061,35264
9062,35072
9063,34880
9064,34752
9065,34816
9066,35008
9067,35072
9068,34944
9069,34752
9070,34560
9071,34432
9072,34304
9073,34176
9074,33984
9075,33664
9076,33408
9077,33344
9078,33216
9079,33280
9080,33344
9081,33408
9082,33408
9083,33600
9084,33984
9085,33920
9086,33408
9087,33024
9088,32832
9089,32704
9090,32768
9091,33216
9092,34112
9093,35712
9094,38016
9095,41152
9096,44544
9097,46784
9098,47040
9099,45504
9100,42304
9101,38080
9102,33728
9103,30208
9104,27840
9105,26560
9106,26304
9107,26880
9108,28096
9109,29248
9110,30336
9111,31104
9112,31808
9113,32448
9114,32832
9115,33024
9116,33280
9117,33536
9118,33600
9119,33472
9120,33344
9121,33280
9122,33280
9123,33408
9124,33472
9125,33536
9126,33664
9127,33856
9128,34176
9129,34304
9130,34304
9131,34240
9132,34176
9133,34176
9134,34112
9135,33920
9136,33856
9137,33920
9138,34048
9139,34176
9140,34368
9141,34496
9142,34432
9143,34240
9144,34048
9145,33984
9146,33920
9147,33856
9148,33728
9149,33536
9150,33408
9151,33408
9152,33472
9153,33728
9154,33856
9155,33856
9156,33792
9157,33856
9158,33792
9159,33728
9160,33536
9161,33472
9162,33600
9163,33664
9164,33920
9165,34176
9166,34240
9167,34176
9168,34240
9169,34176
9170,34112
9171,34048
9172,34112
9173,34176
9174,34240
9175,34368
9176,34432
9177,34496
9178,34560
9179,34816
9180,34944
9181,34816
9182,34496
9183,34368
9184,34432
9185,34560
9186,34560
9187,34688
9188,34816
9189,35008
9190,35072
9191,35136
9192,35136
9193,35072
9194,35136
9195,35264
9196,35264
9197,35008
9198,34688
9199,34304
9200,34112
9201,33792
9202,33536
9203,33408
9204,33472
9205,33472
9206,33088
9207,32704
9208,32640
9209,32768
9210,32832
9211,32960
9212,33088
9213,33216
9214,33344
9215,33472
9216,33472
9217,33344
9218,33408
9219,34176
9220,35712
9221,37824
9222,41344
9223,43648
9224,45952
9225,46720
9226,45312
9227,42432
9228,38400
9229,34304
9230,30720
9231,28224
9232,26880
9233,26432
9234,26816
9235,27712
9236,28864
9237,30464
9238,31104
9239,31936
9240,32576
9241,33088
9242,33472
9243,33536
9244,33472
9245,33408
9246,33536
9247,33664
9248,33664
9249,33600
9250,33664
9251,33664
9252,33600
9253,33600
9254,33536
9255,33600
9256,33792
9257,33856
9258,33856
9259,33984
9260,34176
9261,34176
9262,34176
9263,34176
9264,34304
9265,34432
9266,34432
9267,34368
9268,34304
9269,34240
9270,34112
9271,33920
9272,33728
9273,33664
9274,33600
9275,33536
9276,33472
9277,33408
9278,33472
9279,33536
9280,33728
9281,33920
9282,33920
9283,33856
9284,33920
9285,33920
9286,33856
9287,33728
9288,33600
9289,33664
9290,33664
9291,33664
9292,33792
9293,33920
9294,33984
9295,34112
9296,34304
9297,34432
9298,34432
9299,34496
9300,34560
9301,34752
9302,34816
9303,34752
9304,34816
9305,34944
9306,34688
9307,34368
9308,34240
9309,34240
9310,34368
9311,34560
9312,34752
9313,34752
9314,34880
9315,35072
9316,35200
9317,35392
9318,35456
9319,35392
9320,35328
9321,35392
9322,35456
9323,35584
9324,35520
9325,34816
9326,33920
9327,33216
9328,32960
9329,32832
9330,32768
9331,32832
9332,32896
9333,33024
9334,33216
9335,33344
9336,33472
9337,33600
9338,33664
9339,33792
9340,33920
9341,33792
9342,33408
9343,33408
9344,33664
9345,33792
9346,34176
9347,35328
9348,37248
9349,40064
9350,43200
9351,45376
9352,45888
9353,44672
9354,42176
9355,38528
9356,34560
9357,31040
9358,28672
9359,27392
9360,27200
9361,27520
9362,28352
9363,29440
9364,30592
9365,31360
9366,31680
9367,32064
9368,32448
9369,32704
9370,33024
9371,33280
9372,33536
9373,33600
9374,33664
9375,33728
9376,33856
9377,33984
9378,34048
9379,34176
9380,34304
9381,34368
9382,34240
9383,34112
9384,34112
9385,34176
9386,34112
9387,34048
9388,33984
9389,34048
9390,34048
9391,34048
9392,34048
9393,34112
9394,34240
9395,34240
9396,34368
9397,34368
9398,34240
9399,34176
9400,34176
9401,34048
9402,33920
9403,33792
9404,33600
9405,33472
9406,33536
9407,33600
9408,33856
9409,34240
9410,34432
9411,34176
9412,33792
9413,33408
9414,33280
9415,33408
9416,33600
9417,33728
9418,33728
9419,33856
9420,33920
9421,34048
9422,34240
9423,34368
9424,34432
9425,34496
9426,34496
9427,34624
9428,34688
9429,34752
9430,34880
9431,34880
9432,34880
9433,35008
9434,35264
9435,35456
9436,35072
9437,34624
9438,34368
9439,34304
9440,34368
9441,34560
9442,34816
9443,35072
9444,35136
9445,35200
9446,35200
9447,35136
9448,35072
9449,35072
9450,35264
9451,35392
9452,35136
9453,34688
9454,34432
9455,34240
9456,33728
9457,33344
9458,33152
9459,32960
9460,32768
9461,32768
9462,32832
9463,32960
9464,33152
9465,33344
9466,33472
9467,33536
9468,33664
9469,33728
9470,33856
9471,33856
9472,33920
9473,34176
9474,34880
9475,36224
9476,38400
9477,43072
9478,44608
9479,46272
9480,46016
9481,44224
9482,40960
9483,36800
9484,32704
9485,29440
9486,27456
9487,26624
9488,26816
9489,27648
9490,28672
9491,29824
9492,31104
9493,31680
9494,32448
9495,32832
9496,32960
9497,33024
9498,33216
9499,33344
9500,33472
9501,33472
9502,33472
9503,33472
9504,33536
9505,33664
9506,33856
9507,33984
9508,34048
9509,34112
9510,34176
9511,34240
9512,34368
9513,34560
9514,34688
9515,34752
9516,34688
9517,34496
9518,34368
9519,34432
9520,34560
9521,34496
9522,34176
9523,34112
9524,33984
9525,33856
9526,33920
9527,33920
9528,33920
9529,33792
9530,33664
9531,33600
9532,33536
9533,33600
9534,33664
9535,33856
9536,34112
9537,34112
9538,34112
9539,34112
9540,34176
9541,33920
9542,33664
9543,33536
9544,33664
9545,33728
9546,33600
9547,33472
9548,33472
9549,33600
9550,33856
9551,34048
9552,34240
9553,34368
9554,34368
9555,34368
9556,34432
9557,34432
9558,34560
9559,34816
9560,34944
9561,34752
9562,34624
9563,34624
9564,34688
9565,34816
9566,34688
9567,34496
9568,34368
9569,34368
9570,34496
9571,34752
9572,34944
9573,34944
9574,34944
9575,34944
9576,35008
9577,35072
9578,35072
9579,35136
9580,35200
9581,34880
9582,34240
9583,33984
9584,33536
9585,33152
9586,32896
9587,32768
9588,32896
9589,33088
9590,33536
9591,33664
9592,33408
9593,33216
9594,33152
9595,33216
9596,33344
9597,33408
9598,33344
9599,33216
9600,33216
9601,33600
9602,34560
9603,36160
9604,38272
9605,41152
9606,44480
9607,46784
9608,47040
9609,45376
9610,42112
9611,37696
9612,33152
9613,29568
9614,27456
9615,26624
9616,26688
9617,27456
9618,28480
9619,29504
9620,30464
9621,31232
9622,31872
9623,32384
9624,32768
9625,32896
9626,33024
9627,33216
9628,33408
9629,33536
9630,33600
9631,33664
9632,33664
9633,33728
9634,33792
9635,33920
9636,34048
9637,34176
9638,34240
9639,34112
9640,34112
9641,34176
9642,34240
9643,34432
9644,34496
9645,34496
9646,34432
9647,34368
9648,34368
9649,34432
9650,34432
9651,34368
9652,34368
9653,34368
9654,34304
9655,34112
9656,33984
9657,33984
9658,34048
9659,33920
9660,33664
9661,33600
9662,33664
9663,33664
9664,33600
9665,33600
9666,33728
9667,33920
9668,33856
9669,33792
9670,33792
9671,33792
9672,33728
9673,33664
9674,33728
9675,33792
9676,33856
9677,33984
9678,33984
9679,33920
9680,33856
9681,33920
9682,33984
9683,34176
9684,34368
9685,34432
9686,34496
9687,34496
9688,34496
9689,34624
9690,34688
9691,34560
9692,34368
9693,34240
9694,34368
9695,34496
9696,34496
9697,34496
9698,34496
9699,34624
9700,34624
9701,34560
9702,34560
9703,34688
9704,34752
9705,34816
9706,34688
9707,34688
9708,34688
9709,34752
9710,34816
9711,34752
9712,34624
9713,34368
9714,34048
9715,33600
9716,33344
9717,33472
9718,33536
9719,33216
9720,32896
9721,32768
9722,32704
9723,32896
9724,33024
9725,33152
9726,33344
9727,33472
9728,33472
9729,33472
9730,33472
9731,33728
9732,34624
9733,34752
9734,38208
9735,41088
9736,44096
9737,46080
9738,46080
9739,44544
9740,41600
9741,37696
9742,33664
9743,30208
9744,27968
9745,26752
9746,26432
9747,26880
9748,27008
9749,29184
9750,30528
9751,31488
9752,32064
9753,32448
9754,32704
9755,32960
9756,33024
9757,33088
9758,33216
9759,33536
9760,33792
9761,33920
9762,33856
9763,33792
9764,33728
9765,33728
9766,33728
9767,33920
9768,34112
9769,33984
9770,33792
9771,33728
9772,33792
9773,33856
9774,33984
9775,34176
9776,34304
9777,34368
9778,34432
9779,34496
9780,34560
9781,34624
9782,34624
9783,34496
9784,34304
9785,34112
9786,34112
9787,34304
9788,34240
9789,33856
9790,33408
9791,33216
9792,33216
9793,33216
9794,33344
9795,33408
9796,33472
9797,33536
9798,33600
9799,33664
9800,33728
9801,33856
9802,34112
9803,34112
9804,33920
9805,33792
9806,33856
9807,34304
9808,34304
9809,34496
9810,34240
9811,34112
9812,34048
9813,33856
9814,33728
9815,33792
9816,33920
9817,34112
9818,34240
9819,34368
9820,34496
9821,34496
9822,34560
9823,34560
9824,34624
9825,34688
9826,34752
9827,34752
9828,34816
9829,34816
9830,35072
9831,35392
9832,35456
9833,35008
9834,34560
9835,34368
9836,34368
9837,34368
9838,34496
9839,34560
9840,34624
9841,34624
9842,34496
9843,34368
9844,34112
9845,33920
9846,33600
9847,33408
9848,33152
9849,33152
9850,33408
9851,33792
9852,33664
9853,33152
9854,32768
9855,32704
9856,32704
9857,32896
9858,33024
9859,33088
9860,33152
9861,33152
9862,33408
9863,34112
9864,35392
9865,37184
9866,39808
9867,42944
9868,45440
9869,46208
9870,45248
9871,43008
9872,39552
9873,35584
9874,31936
9875,29184
9876,27584
9877,26944
9878,26880
9879,27392
9880,28480
9881,29632
9882,30720
9883,31552
9884,32128
9885,32576
9886,33024
9887,33344
9888,33472
9889,33536
9890,33536
9891,33536
9892,33472
9893,33536
9894,33792
9895,33984
9896,33856
9897,33728
9898,33792
9899,33920
9900,33856
9901,33856
9902,33856
9903,33984
9904,34240
9905,34432
9906,34304
9907,34176
9908,34048
9909,34112
9910,34176
9911,34240
9912,34240
9913,34240
9914,34176
9915,34176
9916,34176
9917,34240
9918,34240
9919,34112
9920,33920
9921,33728
9922,33664
9923,33600
9924,33600
9925,33536
9926,33472
9927,33600
9928,33664
9929,33600
9930,33536
9931,33600
9932,33664
9933,33664
9934,33728
9935,33728
9936,33792
9937,33856
9938,34048
9939,34240
9940,34304
9941,34560
9942,34752
9943,34752
9944,34560
9945,34496
9946,34496
9947,34560
9948,34688
9949,34752
9950,34624
9951,34432
9952,34240
9953,34240
9954,34304
9955,34496
9956,34688
9957,34752
9958,34752
9959,34816
9960,34880
9961,34944
9962,35072
9963,35200
9964,35264
9965,35264
9966,35328
9967,35456
9968,35520
9969,35264
9970,34944
9971,34688
9972,34560
9973,34368
9974,33984
9975,33472
9976,33216
9977,33024
9978,32960
9979,32960
9980,32960
9981,32960
9982,32960
9983,33024
9984,33216
9985,33472
9986,33664
9987,33664
9988,33600
9989,33536
9990,33408
9991,33344
9992,33792
9993,34752
9994,36032
9995,38016
9996,40896
9997,44032
9998,46080
9999,46208
10000,44608
10001,41728
10002,37888
10003,33792
10004,30336
10005,28032
10006,26816
10007,26688
10008,27264
10009,28288
10010,29440
10011,30656
10012,31744
10013,32320
10014,32448
10015,32576
10016,32704
10017,32832
10018,33024
10019,33280
10020,33536
10021,33728
10022,33920
10023,34112
10024,34176
10025,34112
10026,33984
10027,34048
10028,34176
10029,34432
10030,34688
10031,34688
10032,34304
10033,34048
10034,34048
10035,34240
10036,34176
10037,33984
10038,33984
10039,34048
10040,34176
10041,34304
10042,34496
10043,34560
10044,34496
10045,34432
10046,34368
10047,34240
10048,34176
10049,34240
10050,34176
10051,33984
10052,33920
10053,33984
10054,33984
10055,33728
10056,33472
10057,33344
10058,33280
10059,33344
10060,33472
10061,33536
10062,33664
10063,33792
10064,33920
10065,33984
10066,33984
10067,34048
10068,34112
10069,34176
10070,34240
10071,34304
10072,34432
10073,34560
10074,34688
10075,34752
10076,34752
10077,34688
10078,34624
10079,34624
10080,34560
10081,34240
10082,33984
10083,33984
10084,34176
10085,34432
10086,34688
10087,35072
10088,35264
10089,35200
10090,35008
10091,34880
10092,34816
10093,34816
10094,34880
10095,35008
10096,35072
10097,35072
10098,35008
10099,34944
10100,34880
10101,34752
10102,34560
10103,34112
10104,33728
10105,33408
10106,33024
10107,32768
10108,32640
10109,32640
10110,32896
10111,33152
10112,33408
10113,33472
10114,33472
10115,33536
10116,33664
10117,33728
10118,33600
10119,33408
10120,33344
10121,33536
10122,34304
10123,35520
10124,37632
10125,40832
10126,44416
10127,46592
10128,46912
10129,45568
10130,42688
10131,38528
10132,33984
10133,30400
10134,27968
10135,26496
10136,26112
10137,26560
10138,27520
10139,28736
10140,29952
10141,30976
10142,31808
10143,32448
10144,33088
10145,33664
10146,33856
10147,33920
10148,34048
10149,34112
10150,33664
10151,33280
10152,33152
10153,33152
10154,33280
10155,33472
10156,33664
10157,33792
10158,33856
10159,33984
10160,34112
10161,34304
10162,34560
10163,34880
10164,35264
10165,35200
10166,34688
10167,34176
10168,34048
10169,34112
10170,34176
10171,34304
10172,34368
10173,34304
10174,34240
10175,34112
10176,33984
10177,33984
10178,33984
10179,33920
10180,33920
10181,33920
10182,33792
10183,33792
10184,33856
10185,33856
10186,33728
10187,33536
10188,33600
10189,33792
10190,33920
10191,33920
10192,33856
10193,33600
10194,33408
10195,33344
10196,33536
10197,33792
10198,33856
10199,33920
10200,33984
10201,33984
10202,34048
10203,34112
10204,34304
10205,34560
10206,34944
10207,34880
10208,34496
10209,34176
10210,34112
10211,34304
10212,34624
10213,34752
10214,34560
10215,34368
10216,34368
10217,34496
10218,34496
10219,34624
10220,34752
10221,34880
10222,35008
10223,35072
10224,35200
10225,35392
10226,35392
10227,35136
10228,34816
10229,34496
10230,34304
10231,34304
10232,34176
10233,33920
10234,33536
10235,33280
10236,33152
10237,33088
10238,32960
10239,33024
10240,33152
10241,33216
10242,33408
10243,33536
10244,33600
10245,33664
10246,33728
10247,33728
10248,33472
10249,33152
10250,32960
10251,33344
10252,34560
10253,36160
10254,38464
10255,41600
10256,44928
10257,47040
10258,46912
10259,44992
10260,41536
10261,37056
10262,32384
10263,29056
10264,27008
10265,26240
10266,26368
10267,27136
10268,28352
10269,29632
10270,30720
10271,31552
10272,32256
10273,32704
10274,33024
10275,33280
10276,33600
10277,33984
10278,34112
10279,33920
10280,33536
10281,33344
10282,33472
10283,33472
10284,33344
10285,33344
10286,33408
10287,33600
10288,33728
10289,33856
10290,33984
10291,34112
10292,34368
10293,34496
10294,34560
10295,34688
10296,34816
10297,34816
10298,34752
10299,34624
10300,34624
10301,34560
10302,34560
10303,34368
10304,33984
10305,33792
10306,33728
10307,33664
10308,33664
10309,33600
10310,33536
10311,33472
10312,33536
10313,33664
10314,33728
10315,33920
10316,34112
10317,34048
10318,33856
10319,33728
10320,33664
10321,33792
10322,33984
10323,33856
10324,33472
10325,33216
10326,33152
10327,33280
10328,33472
10329,33664
10330,33856
10331,33984
10332,34112
10333,34112
10334,34176
10335,34304
10336,34432
10337,34624
10338,34752
10339,34688
10340,34496
10341,34368
10342,34560
10343,34624
10344,34304
10345,34240
10346,34240
10347,34240
10348,34432
10349,34688
10350,34880
10351,35008
10352,35008
10353,34944
10354,34944
10355,35008
10356,35136
10357,35072
10358,34944
10359,34816
10360,34688
10361,34624
10362,34304
10363,33792
10364,33280
10365,32960
10366,32960
10367,33024
10368,33088
10369,33088
10370,33152
10371,33216
10372,33344
10373,33536
10374,33792
10375,33856
10376,33792
10377,33728
10378,33728
10379,33728
10380,33856
10381,34112
10382,34624
10383,35840
10384,37888
10385,40960
10386,44160
10387,46208
10388,46272
10389,44736
10390,41664
10391,37632
10392,33344
10393,29952
10394,27840
10395,26816
10396,26688
10397,27328
10398,28352
10399,29568
10400,30656
10401,31808
10402,32832
10403,33280
10404,33216
10405,33024
10406,32960
10407,32896
10408,32960
10409,33152
10410,33344
10411,33472
10412,33600
10413,33728
10414,33856
10415,34048
10416,34176
10417,34240
10418,34240
10419,34304
10420,34304
10421,34304
10422,34368
10423,34560
10424,34752
10425,35136
10426,35328
10427,35008
10428,34560
10429,34368
10430,34176
10431,34048
10432,33984
10433,34048
10434,34112
10435,34112
10436,34048
10437,33920
10438,33792
10439,33728
10440,33792
10441,33792
10442,33856
10443,33856
10444,33856
10445,33792
10446,33792
10447,33920
10448,33984
10449,34048
10450,34048
10451,33856
10452,33792
10453,33920
10454,33920
10455,33600
10456,33344
10457,33344
10458,33536
10459,33600
10460,33600
10461,33664
10462,33792
10463,33984
10464,34176
10465,34368
10466,34368
10467,34368
10468,34432
10469,34624
10470,34752
10471,34880
10472,34944
10473,34944
10474,34944
10475,35072
10476,35328
10477,35520
10478,35520
10479,35392
10480,35072
10481,34752
10482,34688
10483,34688
10484,34688
10485,34624
10486,34368
10487,34112
10488,33792
10489,33408
10490,33216
10491,33152
10492,33152
10493,33088
10494,33024
10495,33024
10496,33216
10497,33280
10498,33344
10499,33344
10500,33344
10501,33408
10502,33536
10503,33600
10504,33600
10505,33536
10506,33792
10507,34496
10508,35840
10509,37824
10510,40832
10511,43968
10512,45952
10513,46080
10514,44608
10515,41664
10516,37696
10517,33536
10518,30016
10519,27904
10520,26816
10521,26624
10522,27072
10523,28096
10524,29312
10525,30464
10526,31360
10527,32128
10528,32704
10529,32960
10530,33088
10531,33344
10532,33408
10533,33280
10534,33280
10535,33344
10536,33344
10537,33408
10538,33536
10539,33536
10540,33536
10541,33472
10542,33536
10543,33664
10544,33792
10545,33856
10546,33920
10547,33984
10548,34112
10549,34112
10550,34112
10551,34176
10552,34176
10553,34112
10554,34112
10555,34176
10556,34304
10557,34432
10558,34432
10559,34304
10560,34176
10561,33984
10562,33792
10563,33472
10564,33280
10565,33152
10566,33152
10567,33344
10568,33600
10569,33664
10570,33664
10571,33664
10572,33728
10573,33792
10574,33920
10575,33984
10576,33920
10577,33792
10578,33792
10579,33920
10580,34304
10581,34688
10582,34368
10583,33856
10584,33536
10585,33472
10586,33600
10587,33856
10588,34048
10589,34176
10590,34304
10591,34432
10592,34560
10593,34752
10594,35008
10595,35136
10596,35200
10597,35200
10598,35264
10599,35328
10600,35456
10601,35840
10602,35968
10603,35712
10604,35328
10605,35008
10606,34624
10607,34304
10608,34112
10609,33984
10610,33856
10611,33792
10612,33600
10613,33344
10614,33216
10615,33152
10616,33152
10617,33216
10618,33472
10619,33792
10620,34176
10621,34112
10622,33728
10623,33408
10624,33216
10625,33088
10626,33088
10627,33024
10628,33088
10629,33408
10630,34304
10631,35840
10632,38464
10633,41472
10634,44544
10635,46208
10636,46080
10637,44544
10638,41600
10639,37696
10640,33728
10641,30656
10642,28608
10643,27520
10644,27136
10645,27328
10646,28096
10647,29120
10648,29952
10649,30848
10650,31552
10651,32256
10652,32832
10653,33216
10654,33472
10655,33600
10656,33600
10657,33600
10658,33664
10659,33728
10660,33984
10661,34368
10662,34624
10663,34432
10664,33920
10665,33536
10666,33408
10667,33472
10668,33664
10669,33792
10670,33856
10671,33920
10672,33984
10673,34048
10674,34176
10675,34368
10676,34432
10677,34496
10678,34624
10679,34688
10680,34752
10681,34816
10682,34880
10683,34624
10684,34240
10685,34048
10686,33920
10687,33792
10688,33664
10689,33600
10690,33536
10691,33536
10692,33600
10693,33600
10694,33664
10695,33728
10696,33920
10697,34112
10698,34112
10699,33984
10700,33920
10701,33856
10702,33920
10703,33920
10704,33984
10705,34240
10706,34496
10707,34432
10708,34304
10709,34304
10710,34240
10711,34176
10712,34176
10713,34240
10714,34368
10715,34560
10716,34752
10717,34816
10718,34880
10719,34944
10720,35072
10721,35264
10722,35392
10723,35392
10724,35392
10725,35328
10726,35328
10727,35328
10728,35520
10729,35712
10730,35776
10731,35456
10732,34752
10733,34176
10734,33728
10735,33216
10736,32832
10737,32640
10738,32640
10739,32768
10740,32960
10741,33088
10742,33152
10743,33280
10744,33408
10745,33536
10746,33664
10747,33664
10748,33600
10749,33536
10750,33344
10751,33344
10752,33984
10753,34944
10754,36736
10755,39360
10756,42688
10757,45824
10758,47040
10759,46336
10760,43968
10761,40320
10762,35968
10763,31936
10764,28928
10765,27136
10766,26496
10767,26688
10768,27520
10769,28736
10770,29888
10771,30784
10772,31552
10773,32192
10774,32704
10775,33088
10776,33280
10777,33408
10778,33536
10779,33536
10780,33728
10781,33856
10782,33856
10783,33920
10784,34112
10785,34048
10786,33728
10787,33600
10788,33664
10789,33664
10790,33792
10791,34048
10792,34304
10793,34368
10794,34432
10795,34560
10796,34624
10797,34752
10798,35008
10799,35200
10800,34944
10801,34560
10802,34304
10803,34176
10804,34112
10805,33984
10806,33920
10807,33920
10808,33920
10809,33856
10810,33920
10811,33920
10812,33856
10813,33792
10814,33856
10815,33920
10816,33984
10817,34112
10818,34176
10819,33920
10820,33536
10821,33344
10822,33344
10823,33408
10824,33600
10825,33856
10826,34048
10827,34112
10828,34048
10829,33984
10830,33984
10831,34048
10832,34304
10833,34432
10834,34432
10835,34496
10836,34560
10837,34560
10838,34560
10839,34624
10840,34816
10841,35200
10842,35392
10843,35200
10844,34880
10845,34688
10846,34688
10847,34752
10848,34880
10849,34944
10850,35136
10851,35264
10852,35328
10853,35200
10854,35008
10855,34880
10856,34816
10857,34624
10858,34496
10859,34112
10860,33728
10861,33344
10862,33088
10863,32960
10864,33024
10865,33024
10866,33152
10867,33216
10868,33408
10869,33600
10870,33792
10871,33856
10872,33856
10873,33792
10874,33600
10875,33408
10876,33408
10877,33920
10878,35072
10879,36992
10880,39616
10881,42880
10882,45888
10883,47296
10884,46592
10885,44160
10886,40256
10887,34816
10888,31424
10889,28544
10890,26944
10891,26368
10892,26624
10893,27584
10894,28864
10895,30080
10896,31232
10897,32000
10898,32448
10899,32640
10900,32832
10901,33024
10902,33152
10903,33216
10904,33344
10905,33536
10906,33664
10907,33856
10908,33856
10909,33792
10910,33792
10911,33856
10912,33984
10913,33984
10914,33984
10915,34176
10916,34496
10917,34432
10918,34304
10919,34240
10920,34368
10921,34560
10922,34368
10923,34176
10924,34176
