,ECG
0,33728
1,33728
2,33792
3,33984
4,34240
5,34496
6,34560
7,34624
8,34496
9,34368
10,34240
11,34240
12,34240
13,34240
14,34240
15,34240
16,34240
17,34240
18,34240
19,34240
20,34176
21,33984
22,33856
23,33792
24,33792
25,33792
26,33856
27,33920
28,33920
29,33984
30,33984
31,33984
32,33984
33,33984
34,33984
35,34048
36,34048
37,34048
38,33984
39,33984
40,33920
41,33856
42,33856
43,33920
44,33920
45,33984
46,33984
47,33984
48,34048
49,34112
50,34176
51,34240
52,34368
53,34560
54,34944
55,35264
56,35456
57,35584
58,35584
59,35456
60,35264
61,35136
62,35008
63,34944
64,34944
65,35008
66,35072
67,35008
68,34880
69,34688
70,34496
71,34368
72,34304
73,34304
74,34304
75,34304
76,34304
77,34304
78,34304
79,34368
80,34368
81,34176
82,33984
83,33856
84,33984
85,34944
86,36928
87,39744
88,42368
89,44096
90,44288
91,42752
92,40000
93,37056
94,34560
95,32704
96,31680
97,31424
98,31680
99,32192
100,32704
101,32960
102,33152
103,33344
104,33472
105,33600
106,33600
107,33536
108,33600
109,33664
110,33856
111,34048
112,34240
113,34368
114,34496
115,34560
116,34496
117,34368
118,34176
119,34048
120,33920
121,34048
122,34304
123,34496
124,34560
125,34624
126,34688
127,34688
128,34496
129,34368
130,34432
131,34560
132,34688
133,34816
134,34944
135,35008
136,34816
137,34688
138,34688
139,34688
140,34816
141,34944
142,35136
143,35392
144,35520
145,35648
146,35712
147,35712
148,35712
149,35712
150,35648
151,35584
152,35520
153,35456
154,35328
155,35136
156,34880
157,34560
158,34240
159,33984
160,33792
161,33600
162,33472
163,33280
164,33152
165,33088
166,33024
167,33024
168,32960
169,32960
170,32960
171,33024
172,33088
173,33216
174,33344
175,33344
176,33344
177,33408
178,33472
179,33472
180,33536
181,33536
182,33664
183,33664
184,33728
185,33728
186,33728
187,33664
188,33728
189,33728
190,33792
191,33856
192,33920
193,33984
194,34048
195,34048
196,34048
197,34048
198,34048
199,34112
200,34112
201,34240
202,34304
203,34368
204,34368
205,34368
206,34432
207,34496
208,34304
209,33856
210,33600
211,33984
212,34368
213,34624
214,34688
215,34624
216,34560
217,34496
218,34240
219,34112
220,34048
221,34112
222,34176
223,34176
224,34176
225,34112
226,34112
227,34048
228,33984
229,33984
230,33984
231,33984
232,33984
233,33984
234,33984
235,33920
236,33920
237,33984
238,33984
239,34048
240,34048
241,34048
242,34048
243,34048
244,34048
245,34048
246,34112
247,34048
248,34112
249,34176
250,34240
251,34304
252,34432
253,34560
254,34688
255,34752
256,34688
257,34688
258,34688
259,34752
260,34944
261,35072
262,35072
263,35008
264,34816
265,34624
266,34432
267,34240
268,33984
269,33856
270,33856
271,33920
272,33856
273,33792
274,33664
275,33536
276,33344
277,33344
278,33408
279,33536
280,33536
281,33536
282,33536
283,33536
284,33536
285,33472
286,33216
287,32896
288,32704
289,33024
290,34368
291,36672
292,39296
293,41472
294,42688
295,42496
296,40768
297,38080
298,35520
299,33344
300,31808
301,30976
302,30784
303,31040
304,31424
305,31808
306,32064
307,32192
308,32384
309,32640
310,32896
311,33088
312,33280
313,33344
314,33408
315,33408
316,33472
317,33536
318,33600
319,33664
320,33728
321,33728
322,33664
323,33536
324,33536
325,33664
326,33856
327,33984
328,34048
329,34112
330,34176
331,34176
332,34240
333,34304
334,34304
335,34240
336,34240
337,34240
338,34304
339,34368
340,34368
341,34432
342,34560
343,34688
344,34752
345,34816
346,34944
347,35072
348,35136
349,35200
350,35200
351,35264
352,35264
353,35328
354,35328
355,35328
356,35200
357,35136
358,35072
359,35008
360,34816
361,34624
362,34368
363,34176
364,33984
365,33728
366,33536
367,33280
368,33152
369,33088
370,32960
371,32960
372,33024
373,33024
374,33024
375,33024
376,33024
377,33088
378,33088
379,33152
380,33280
381,33408
382,33472
383,33536
384,33664
385,33728
386,33728
387,33664
388,33600
389,33664
390,33856
391,33984
392,34048
393,34112
394,34112
395,34176
396,34176
397,34240
398,34304
399,34240
400,34240
401,34240
402,34240
403,34240
404,34240
405,34304
406,34304
407,34304
408,34304
409,34240
410,34176
411,34176
412,34176
413,34176
414,34240
415,34240
416,34240
417,34240
418,34240
419,34240
420,34368
421,34496
422,34624
423,34752
424,34816
425,34752
426,34688
427,34752
428,34816
429,34816
430,34880
431,34880
432,34880
433,34752
434,34560
435,34368
436,34176
437,34048
438,33856
439,33600
440,33408
441,33216
442,33024
443,32960
444,32960
445,33024
446,33024
447,33088
448,33152
449,33216
450,33280
451,33408
452,33472
453,33472
454,33472
455,33408
456,33088
457,32704
458,32448
459,32512
460,33280
461,35008
462,37632
463,40128
464,41984
465,42624
466,41728
467,39488
468,36800
469,34496
470,32640
471,31424
472,30848
473,30912
474,31296
475,31744
476,32128
477,32384
478,32576
479,32768
480,32896
481,33024
482,33088
483,33152
484,33280
485,33408
486,33408
487,33408
488,33472
489,33600
490,33664
491,33600
492,33600
493,33664
494,33728
495,33856
496,33984
497,34112
498,34176
499,34240
500,34240
501,34304
502,34304
503,34304
504,34304
505,34304
506,34304
507,34432
508,34496
509,34560
510,34624
511,34624
512,34688
513,34752
514,34816
515,34944
516,35072
517,35200
518,35328
519,35392
520,35456
521,35456
522,35392
523,35392
524,35456
525,35520
526,35456
527,35392
528,35200
529,34944
530,34752
531,34496
532,34176
533,33856
534,33600
535,33280
536,33088
537,32960
538,32960
539,32896
540,32768
541,32704
542,32704
543,32704
544,32832
545,32960
546,32960
547,33024
548,32960
549,32896
550,32960
551,33024
552,33152
553,33216
554,33152
555,33152
556,33280
557,33344
558,33408
559,33472
560,33600
561,33600
562,33536
563,33536
564,33536
565,33600
566,33600
567,33728
568,33856
569,33920
570,33984
571,34048
572,34112
573,34112
574,34112
575,34176
576,34176
577,34112
578,34112
579,34176
580,34304
581,34432
582,34496
583,34624
584,34816
585,34880
586,34880
587,34816
588,34880
589,34944
590,35008
591,35072
592,35008
593,34816
594,34688
595,34560
596,34432
597,34368
598,34176
599,33856
600,33600
601,33472
602,33280
603,33152
604,33088
605,33088
606,33088
607,33024
608,33088
609,33152
610,33280
611,33344
612,33344
613,33280
614,33344
615,33472
616,33536
617,33408
618,33216
619,32960
620,32896
621,33280
622,34752
623,37120
624,39616
625,41536
626,42368
627,41728
628,39744
629,37120
630,34752
631,32832
632,31616
633,31040
634,31040
635,31296
636,31680
637,32000
638,32256
639,32512
640,32768
641,32960
642,33088
643,33216
644,33344
645,33344
646,33344
647,33344
648,33408
649,33536
650,33600
651,33664
652,33728
653,33856
654,33920
655,33984
656,33920
657,33856
658,33792
659,33792
660,33920
661,34048
662,34176
663,34240
664,34240
665,34304
666,34368
667,34432
668,34496
669,34496
670,34560
671,34688
672,34752
673,34752
674,34816
675,34880
676,34944
677,35008
678,35008
679,35072
680,35200
681,35328
682,35456
683,35648
684,35712
685,35712
686,35648
687,35584
688,35456
689,35264
690,35008
691,34688
692,34368
693,34112
694,33728
695,33408
696,33216
697,33216
698,33152
699,33152
700,33024
701,32896
702,32832
703,32832
704,32768
705,32832
706,32896
707,32960
708,32960
709,33088
710,33216
711,33280
712,33280
713,33344
714,33344
715,33344
716,33408
717,33344
718,33344
719,33408
720,33536
721,33664
722,33728
723,33728
724,33728
725,33792
726,33792
727,33856
728,33856
729,33792
730,33856
731,33920
732,34048
733,34112
734,34176
735,34240
736,34304
737,34304
738,34368
739,34368
740,34368
741,34368
742,34304
743,34304
744,34240
745,34240
746,34304
747,34304
748,34304
749,34304
750,34240
751,34240
752,34240
753,34240
754,34368
755,34496
756,34560
757,34688
758,34752
759,34816
760,34816
761,34816
762,34816
763,34880
764,34944
765,34880
766,34816
767,34688
768,34624
769,34496
770,34432
771,34240
772,33984
773,33728
774,33536
775,33344
776,33152
777,32960
778,32960
779,33024
780,33152
781,33216
782,33280
783,33344
784,33344
785,33344
786,33408
787,33408
788,33472
789,33408
790,33088
791,32768
792,32704
793,32960
794,33984
795,36032
796,38720
797,41152
798,42752
799,42944
800,41408
801,38784
802,35968
803,33536
804,31808
805,30784
806,30592
807,30912
808,31424
809,31872
810,32192
811,32384
812,32512
813,32704
814,32832
815,33024
816,33088
817,33152
818,33216
819,33280
820,33280
821,33344
822,33408
823,33472
824,33536
825,33536
826,33536
827,33664
828,33792
829,33856
830,33920
831,34112
832,34176
833,34240
834,34176
835,34048
836,34048
837,34048
838,34112
839,34176
840,34240
841,34304
842,34368
843,34432
844,34496
845,34624
846,34752
847,34880
848,34944
849,35008
850,35072
851,35072
852,35136
853,35200
854,35264
855,35328
856,35328
857,35392
858,35392
859,35392
860,35456
861,35392
862,35200
863,35008
864,34816
865,34560
866,34240
867,33856
868,33536
869,33280
870,33152
871,33088
872,32960
873,32896
874,32832
875,32768
876,32832
877,32832
878,32832
879,32896
880,32960
881,33024
882,33024
883,33088
884,33216
885,33280
886,33344
887,33472
888,33472
889,33408
890,33344
891,33408
892,33536
893,33600
894,33600
895,33600
896,33664
897,33728
898,33792
899,33792
900,33728
901,33728
902,33856
903,33856
904,33920
905,33984
906,34048
907,34048
908,34112
909,34112
910,34112
911,34112
912,34176
913,34240
914,34240
915,34176
916,34112
917,34048
918,34240
919,34304
920,34304
921,34304
922,34240
923,34240
924,34240
925,34176
926,34048
927,33920
928,33920
929,33920
930,33984
931,33984
932,33984
933,33984
934,34048
935,34048
936,33984
937,33920
938,33856
939,33920
940,33920
941,33792
942,33856
943,33920
944,33920
945,33920
946,33984
947,34048
948,34048
949,34048
950,34048
951,33984
952,33920
953,33920
954,33920
955,34048
956,34112
957,34240
958,34368
959,34496
960,34688
961,34880
962,34944
963,34944
964,34944
965,34880
966,34816
967,34752
968,34560
969,34432
970,34240
971,34112
972,34048
973,33984
974,33792
975,33536
976,33408
977,33344
978,33280
979,33152
980,33152
981,33280
982,33408
983,33472
984,33536
985,33600
986,33600
987,33472
988,33280
989,33088
990,32960
991,33408
992,34944
993,37376
994,40064
995,42112
996,43008
997,42240
998,40064
999,37248
1000,32576
1001,31232
1002,31104
1003,30912
1004,31360
1005,31808
1006,32128
1007,32384
1008,32512
1009,32704
1010,32832
1011,33024
1012,33088
1013,33152
1014,33152
1015,33152
1016,33216
1017,33280
1018,33408
1019,33472
1020,33600
1021,33600
1022,33664
1023,33728
1024,33728
1025,33792
1026,33792
1027,33856
1028,33920
1029,33984
1030,34048
1031,34112
1032,34112
1033,34176
1034,34176
1035,34176
1036,34176
1037,34304
1038,34368
1039,34496
1040,34560
1041,34560
1042,34624
1043,34688
1044,34752
1045,34816
1046,34880
1047,34880
1048,35008
1049,35072
1050,35136
1051,35264
1052,35328
1053,35328
1054,35328
1055,35392
1056,35456
1057,35456
1058,35456
1059,35328
1060,35264
1061,35072
1062,34816
1063,34624
1064,34368
1065,34048
1066,33856
1067,33600
1068,33344
1069,33152
1070,33088
1071,33024
1072,32960
1073,32960
1074,32896
1075,32896
1076,32960
1077,33024
1078,33024
1079,33152
1080,33280
1081,33408
1082,33344
1083,33408
1084,33408
1085,33472
1086,33472
1087,33536
1088,33536
1089,33600
1090,33728
1091,33856
1092,33792
1093,33856
1094,33920
1095,33920
1096,33984
1097,34048
1098,34048
1099,34112
1100,34176
1101,34112
1102,34176
1103,34240
1104,34240
1105,34368
1106,34432
1107,34368
1108,34304
1109,34240
1110,34176
1111,34240
1112,34304
1113,34368
1114,34432
1115,34432
1116,34432
1117,34432
1118,34432
1119,34432
1120,34432
1121,34368
1122,34368
1123,34368
1124,34304
1125,34304
1126,34240
1127,34240
1128,34304
1129,34368
1130,34368
1131,34368
1132,34368
1133,34368
1134,34368
1135,34240
1136,34112
1137,34048
1138,33984
1139,34048
1140,34176
1141,34304
1142,34368
1143,34368
1144,34368
1145,34368
1146,34368
1147,34368
1148,34304
1149,34368
1150,34368
1151,34368
1152,34368
1153,34304
1154,34304
1155,34304
1156,34304
1157,34240
1158,34304
1159,34304
1160,34304
1161,34240
1162,34240
1163,34304
1164,34304
1165,34368
1166,34560
1167,34560
1168,34816
1169,35008
1170,35264
1171,35328
1172,35200
1173,35072
1174,35008
1175,35072
1176,35008
1177,34944
1178,34880
1179,34688
1180,34496
1181,34304
1182,34240
1183,34176
1184,34048
1185,33856
1186,33664
1187,33600
1188,33664
1189,33792
1190,33856
1191,33920
1192,33984
1193,33984
1194,33984
1195,33920
1196,33792
1197,33728
1198,33216
1199,33024
1200,33344
1201,34560
1202,36864
1203,39488
1204,41600
1205,42816
1206,42432
1207,40576
1208,37888
1209,35392
1210,33408
1211,31808
1212,31680
1213,31232
1214,31552
1215,32000
1216,32384
1217,32640
1218,32896
1219,33024
1220,33152
1221,33280
1222,33344
1223,33408
1224,33536
1225,33664
1226,33792
1227,33856
1228,33856
1229,33920
1230,33984
1231,33984
1232,34048
1233,34048
1234,34048
1235,34048
1236,34048
1237,34112
1238,34176
1239,34176
1240,34176
1241,34048
1242,33984
1243,34176
1244,34368
1245,34496
1246,34624
1247,34688
1248,34688
1249,34688
1250,34624
1251,34560
1252,34560
1253,34624
1254,34752
1255,34880
1256,35008
1257,34944
1258,35136
1259,35200
1260,35200
1261,35264
1262,35264
1263,35264
1264,35392
1265,35456
1266,35456
1267,35392
1268,35328
1269,35200
1270,35008
1271,34880
1272,34816
1273,34496
1274,34304
1275,34112
1276,33920
1277,33792
1278,33536
1279,33280
1280,33088
1281,33088
1282,33088
1283,33088
1284,33152
1285,33216
1286,33280
1287,33280
1288,33280
1289,33216
1290,33280
1291,33344
1292,33408
1293,33536
1294,33600
1295,33664
1296,33728
1297,33728
1298,33728
1299,33664
1300,33664
1301,33792
1302,33792
1303,33920
1304,33984
1305,34112
1306,34112
1307,34176
1308,34176
1309,34176
1310,34240
1311,34240
1312,34304
1313,34368
1314,34368
1315,34368
1316,34432
1317,34368
1318,34496
1319,34496
1320,34432
1321,34432
1322,34432
1323,34432
1324,34368
1325,34368
1326,34368
1327,34432
1328,34432
1329,34432
1330,34368
1331,34304
1332,34240
1333,34240
1334,34240
1335,34240
1336,34240
1337,34304
1338,34368
1339,34496
1340,34688
1341,34816
1342,34880
1343,34880
1344,34944
1345,35008
1346,35072
1347,35008
1348,35072
1349,35072
1350,34944
1351,34816
1352,34624
1353,34432
1354,34304
1355,34176
1356,33984
1357,33728
1358,33472
1359,33344
1360,33216
1361,33152
1362,33088
1363,33088
1364,33152
1365,33216
1366,33280
1367,33472
1368,33728
1369,33792
1370,33792
1371,33792
1372,33792
1373,33664
1374,33408
1375,33024
1376,32768
1377,32960
1378,34112
1379,36352
1380,39168
1381,41536
1382,42880
1383,42752
1384,41024
1385,38336
1386,35584
1387,33280
1388,31680
1389,30912
1390,30848
1391,31168
1392,31680
1393,32128
1394,32448
1395,32640
1396,32768
1397,32896
1398,32960
1399,33088
1400,33280
1401,33344
1402,33408
1403,33408
1404,33344
1405,33408
1406,33536
1407,33536
1408,33600
1409,33664
1410,33728
1411,33792
1412,33920
1413,33984
1414,33984
1415,34048
1416,34112
1417,34176
1418,34240
1419,34240
1420,34304
1421,34368
1422,34304
1423,34304
1424,34304
1425,34368
1426,34496
1427,34624
1428,34688
1429,34816
1430,34880
1431,34944
1432,34944
1433,35008
1434,35072
1435,35200
1436,35200
1437,35200
1438,35264
1439,35392
1440,35456
1441,35456
1442,35456
1443,35392
1444,35264
1445,35072
1446,34880
1447,34752
1448,34624
1449,34432
1450,34240
1451,33920
1452,33856
1453,33472
1454,33216
1455,32960
1456,32832
1457,32704
1458,32640
1459,32704
1460,32704
1461,32704
1462,32768
1463,32832
1464,32960
1465,33024
1466,33152
1467,33088
1468,33216
1469,33280
1470,33280
1471,33344
1472,33344
1473,33408
1474,33344
1475,33280
1476,33280
1477,33280
1478,33344
1479,33408
1480,33472
1481,33600
1482,33664
1483,33728
1484,33856
1485,33920
1486,33920
1487,33984
1488,34048
1489,33984
1490,33856
1491,33856
1492,33984
1493,34112
1494,34240
1495,34304
1496,34304
1497,34176
1498,34176
1499,34240
1500,34240
1501,34240
1502,34240
1503,34240
1504,34176
1505,34176
1506,34176
1507,34048
1508,33984
1509,33984
1510,33984
1511,33920
1512,33856
1513,33856
1514,33856
1515,33856
1516,33920
1517,33984
1518,34112
1519,34176
1520,34240
1521,34240
1522,34176
1523,34176
1524,34048
1525,33984
1526,33920
1527,33920
1528,33920
1529,33984
1530,34048
1531,34112
1532,34112
1533,34048
1534,34048
1535,34048
1536,33984
1537,33920
1538,33920
1539,34048
1540,34112
1541,34176
1542,34304
1543,34496
1544,34688
1545,34880
1546,35008
1547,35136
1548,35136
1549,35072
1550,34944
1551,34752
1552,34560
1553,34368
1554,34176
1555,34048
1556,33984
1557,33920
1558,33920
1559,33792
1560,33664
1561,33536
1562,33408
1563,33280
1564,33344
1565,33344
1566,33408
1567,33536
1568,33536
1569,33600
1570,33664
1571,33600
1572,33472
1573,33280
1574,33024
1575,32896
1576,33280
1577,34560
1578,36736
1579,39488
1580,41728
1581,42880
1582,42560
1583,40704
1584,37952
1585,35264
1586,32256
1587,32064
1588,30592
1589,30592
1590,31040
1591,31488
1592,31872
1593,32128
1594,32384
1595,32576
1596,32704
1597,32832
1598,32960
1599,33088
1600,33216
1601,33408
1602,33536
1603,33536
1604,33600
1605,33664
1606,33664
1607,33728
1608,33728
1609,33728
1610,33728
1611,33728
1612,33728
1613,33792
1614,33920
1615,33984
1616,33984
1617,33984
1618,33984
1619,34048
1620,34112
1621,34240
1622,34304
1623,34368
1624,34368
1625,34368
1626,34368
1627,34432
1628,34496
1629,34496
1630,34496
1631,34624
1632,34752
1633,34944
1634,35008
1635,35136
1636,35264
1637,35264
1638,35264
1639,35328
1640,35456
1641,35584
1642,35584
1643,35584
1644,35456
1645,35328
1646,35072
1647,35008
1648,34752
1649,34496
1650,34176
1651,33920
1652,33664
1653,33408
1654,33152
1655,33024
1656,32896
1657,32832
1658,32704
1659,32640
1660,32704
1661,32768
1662,32768
1663,32896
1664,32960
1665,33024
1666,33088
1667,33152
1668,33280
1669,33344
1670,33408
1671,33408
1672,33408
1673,33408
1674,33408
1675,33472
1676,33664
1677,33664
1678,33664
1679,33600
1680,33600
1681,33664
1682,33664
1683,33728
1684,33792
1685,33920
1686,33920
1687,33920
1688,33984
1689,33984
1690,33984
1691,34048
1692,34048
1693,34048
1694,34112
1695,34176
1696,34240
1697,34240
1698,34240
1699,34240
1700,34176
1701,34176
1702,34176
1703,34176
1704,34176
1705,34112
1706,34112
1707,34048
1708,34048
1709,33984
1710,33984
1711,33920
1712,33984
1713,34048
1714,34112
1715,34048
1716,33984
1717,33920
1718,33856
1719,33792
1720,33792
1721,33856
1722,33856
1723,33984
1724,33984
1725,34048
1726,34048
1727,34112
1728,34048
1729,34048
1730,33920
1731,33856
1732,33856
1733,33856
1734,33920
1735,33856
1736,33920
1737,33856
1738,33920
1739,33984
1740,34048
1741,33984
1742,33984
1743,33984
1744,34048
1745,34112
1746,34112
1747,34112
1748,34112
1749,34176
1750,34240
1751,34304
1752,34368
1753,34432
1754,34432
1755,34624
1756,34880
1757,35008
1758,35072
1759,35008
1760,34944
1761,34816
1762,34560
1763,34368
1764,34240
1765,34112
1766,33920
1767,33856
1768,33792
1769,33664
1770,33536
1771,33408
1772,33280
1773,33344
1774,33408
1775,33472
1776,33472
1777,33536
1778,33600
1779,33664
1780,33664
1781,33600
1782,33344
1783,32960
1784,32704
1785,32704
1786,33536
1787,35456
1788,38080
1789,40576
1790,42304
1791,42752
1792,41600
1793,39168
1794,36416
1795,34048
1796,31616
1797,31424
1798,30784
1799,30912
1800,31360
1801,31808
1802,32256
1803,32512
1804,32768
1805,32896
1806,32960
1807,32960
1808,32960
1809,32960
1810,33088
1811,33280
1812,33344
1813,33472
1814,33536
1815,33600
1816,33664
1817,33664
1818,33664
1819,33664
1820,33728
1821,33792
1822,33920
1823,33984
1824,33984
1825,33920
1826,33920
1827,33920
1828,33984
1829,34048
1830,34048
1831,34112
1832,34176
1833,34240
1834,34304
1835,34368
1836,34496
1837,34560
1838,34560
1839,34496
1840,34560
1841,34688
1842,34752
1843,34880
1844,35008
1845,35136
1846,35200
1847,35200
1848,35200
1849,35200
1850,35200
1851,35200
1852,35136
1853,35072
1854,35008
1855,35008
1856,34816
1857,34624
1858,34368
1859,34112
1860,33920
1861,33728
1862,33536
1863,33344
1864,33216
1865,33088
1866,32896
1867,32704
1868,32640
1869,32640
1870,32704
1871,32768
1872,32896
1873,32896
1874,32960
1875,33088
1876,33216
1877,33216
1878,33280
1879,33280
1880,33344
1881,33344
1882,33408
1883,33344
1884,33344
1885,33344
1886,33408
1887,33472
1888,33536
1889,33600
1890,33728
1891,33728
1892,33728
1893,33792
1894,33920
1895,33984
1896,34048
1897,34048
1898,34112
1899,34112
1900,34048
1901,33984
1902,33984
1903,34048
1904,34048
1905,34048
1906,34112
1907,34240
1908,34304
1909,34304
1910,34240
1911,34240
1912,34240
1913,34304
1914,34240
1915,34240
1916,34176
1917,34112
1918,34112
1919,34112
1920,34240
1921,34304
1922,34368
1923,34432
1924,34560
1925,34688
1926,34752
1927,34816
1928,34880
1929,34880
1930,34880
1931,35008
1932,35008
1933,34944
1934,34752
1935,34560
1936,34432
1937,34304
1938,34176
1939,33984
1940,33792
1941,33600
1942,33472
1943,33344
1944,33280
1945,33216
1946,33216
1947,33216
1948,33216
1949,33216
1950,33216
1951,33280
1952,33344
1953,33408
1954,33536
1955,33600
1956,33472
1957,33216
1958,32832
1959,32576
1960,32640
1961,33408
1962,35328
1963,37888
1964,40320
1965,41984
1966,42368
1967,41152
1968,38784
1969,36224
1970,34048
1971,32576
1972,31616
1973,31168
1974,31232
1975,31616
1976,32064
1977,32512
1978,32768
1979,32896
1980,32960
1981,32960
1982,33088
1983,33152
1984,33216
1985,33344
1986,33472
1987,33536
1988,33600
1989,33664
1990,33792
1991,33856
1992,33920
1993,33984
1994,33984
1995,33856
1996,33792
1997,33856
1998,33920
1999,33984
2000,34112
2001,34240
2002,34304
2003,34304
2004,34368
2005,34432
2006,34496
2007,34560
2008,34496
2009,34496
2010,34496
2011,34560
2012,34624
2013,34688
2014,34816
2015,34880
2016,34944
2017,35072
2018,35200
2019,35264
2020,35264
2021,35264
2022,35264
2023,35328
2024,35264
2025,35264
2026,35392
2027,35456
2028,35392
2029,35200
2030,34880
2031,34624
2032,34368
2033,34048
2034,33792
2035,33600
2036,33408
2037,33216
2038,33024
2039,32832
2040,32704
2041,32704
2042,32704
2043,32768
2044,32832
2045,32832
2046,32896
2047,32960
2048,32960
2049,32896
2050,32960
2051,33088
2052,33216
2053,33280
2054,33344
2055,33280
2056,33344
2057,33408
2058,33408
2059,33472
2060,33536
2061,33536
2062,33536
2063,33600
2064,33664
2065,33728
2066,33728
2067,33792
2068,33792
2069,33856
2070,33920
2071,33984
2072,33984
2073,34048
2074,34112
2075,34176
2076,34176
2077,34176
2078,34240
2079,34240
2080,34240
2081,34304
2082,34304
2083,34304
2084,34304
2085,34240
2086,34176
2087,34176
2088,34240
2089,34240
2090,34112
2091,34112
2092,34112
2093,34048
2094,34048
2095,34048
2096,33984
2097,33920
2098,33856
2099,33792
2100,33856
2101,33920
2102,33984
2103,33984
2104,33984
2105,34048
2106,34048
2107,34048
2108,34176
2109,34240
2110,34368
2111,34496
2112,34624
2113,34752
2114,34944
2115,35072
2116,35072
2117,34944
2118,34816
2119,34624
2120,34432
2121,34304
2122,34112
2123,33920
2124,33728
2125,33728
2126,33792
2127,33728
2128,33664
2129,33600
2130,33536
2131,33536
2132,33536
2133,33472
2134,33536
2135,33472
2136,33408
2137,33408
2138,33536
2139,33536
2140,33472
2141,33280
2142,33088
2143,32896
2144,33152
2145,34240
2146,36352
2147,39040
2148,41472
2149,42944
2150,42816
2151,41088
2152,38272
2153,35456
2154,32960
2155,31360
2156,30720
2157,30848
2158,31360
2159,31808
2160,32192
2161,32384
2162,32448
2163,32512
2164,32640
2165,32832
2166,33024
2167,33152
2168,33216
2169,33280
2170,33344
2171,33344
2172,33472
2173,33536
2174,33600
2175,33664
2176,33664
2177,33664
2178,33728
2179,33728
2180,33856
2181,33856
2182,33856
2183,33920
2184,34048
2185,34176
2186,34240
2187,34112
2188,33984
2189,34048
2190,34176
2191,34304
2192,34368
2193,34432
2194,34496
2195,34560
2196,34624
2197,34688
2198,34752
2199,34880
2200,34944
2201,35008
2202,35072
2203,35136
2204,35200
2205,35328
2206,35456
2207,35456
2208,35392
2209,35328
2210,35328
2211,35264
2212,35264
2213,35200
2214,35072
2215,34752
2216,34432
2217,34176
2218,33984
2219,33664
2220,33344
2221,33088
2222,32960
2223,32832
2224,32768
2225,32832
2226,32896
2227,32896
2228,32896
2229,32896
2230,32896
2231,32896
2232,32896
2233,32896
2234,32960
2235,33088
2236,33216
2237,33280
2238,33344
2239,33344
2240,33344
2241,33408
2242,33472
2243,33472
2244,33472
2245,33472
2246,33472
2247,33536
2248,33600
2249,33664
2250,33728
2251,33792
2252,33728
2253,33728
2254,33728
2255,33792
2256,33856
2257,33920
2258,33920
2259,33984
2260,33984
2261,34048
2262,34048
2263,34112
2264,34176
2265,34240
2266,34240
2267,34176
2268,34240
2269,34304
2270,34368
2271,34432
2272,34496
2273,34432
2274,34368
2275,34240
2276,34112
2277,33984
2278,33984
2279,33984
2280,33984
2281,34048
2282,34112
2283,34176
2284,34112
2285,34048
2286,34048
2287,34048
2288,34048
2289,34112
2290,34112
2291,34048
2292,34048
2293,34048
2294,34048
2295,34048
2296,33984
2297,33920
2298,33920
2299,33920
2300,33984
2301,34048
2302,33984
2303,33920
2304,33792
2305,33792
2306,33856
2307,33920
2308,33984
2309,34048
2310,34048
2311,34176
2312,34240
2313,34176
2314,34048
2315,34112
2316,34240
2317,34432
2318,34624
2319,34816
2320,35008
2321,35072
2322,35008
2323,35008
2324,34880
2325,34688
2326,34560
2327,34368
2328,34176
2329,34048
2330,33920
2331,33920
2332,33856
2333,33664
2334,33536
2335,33472
2336,33408
2337,33472
2338,33472
2339,33472
2340,33472
2341,33536
2342,33664
2343,33728
2344,33728
2345,33664
2346,33472
2347,33216
2348,33024
2349,33536
2350,35072
2351,37568
2352,40384
2353,42240
2354,43200
2355,42496
2356,40256
2357,37312
2358,34624
2359,32448
2360,31040
2361,30528
2362,30656
2363,31168
2364,31744
2365,32256
2366,32512
2367,32576
2368,32640
2369,32768
2370,32896
2371,33088
2372,33216
2373,33280
2374,33344
2375,33408
2376,33472
2377,33536
2378,33600
2379,33600
2380,33600
2381,33664
2382,33728
2383,33856
2384,33920
2385,33984
2386,34048
2387,34048
2388,34048
2389,34048
2390,33984
2391,33984
2392,34048
2393,34112
2394,34240
2395,34368
2396,34432
2397,34496
2398,34496
2399,34560
2400,34624
2401,34624
2402,34688
2403,34688
2404,34688
2405,34752
2406,34880
2407,34944
2408,35072
2409,35200
2410,35328
2411,35456
2412,35584
2413,35648
2414,35584
2415,35520
2416,35456
2417,35392
2418,35264
2419,35072
2420,34880
2421,34624
2422,34304
2423,33984
2424,33728
2425,33600
2426,33344
2427,33088
2428,32896
2429,32832
2430,32896
2431,32896
2432,32896
2433,32896
2434,32960
2435,33024
2436,33088
2437,33088
2438,33152
2439,33216
2440,33280
2441,33344
2442,33344
2443,33344
2444,33344
2445,33344
2446,33344
2447,33408
2448,33536
2449,33600
2450,33664
2451,33664
2452,33728
2453,33856
2454,33856
2455,33920
2456,33920
2457,33920
2458,33920
2459,33920
2460,33984
2461,34112
2462,34176
2463,34240
2464,34240
2465,34240
2466,34176
2467,34112
2468,34112
2469,34176
2470,34240
2471,34304
2472,34368
2473,34432
2474,34304
2475,34240
2476,34176
2477,34176
2478,34176
2479,34176
2480,34112
2481,34048
2482,34112
2483,34176
2484,34112
2485,34048
2486,34048
2487,34048
2488,33984
2489,34048
2490,34176
2491,34240
2492,34240
2493,34176
2494,34048
2495,33984
2496,33984
2497,34048
2498,34176
2499,34176
2500,34112
2501,34048
2502,34048
2503,33984
2504,33920
2505,33920
2506,33920
2507,33984
2508,33984
2509,34048
2510,34048
2511,34048
2512,33984
2513,33920
2514,33920
2515,33984
2516,34048
2517,34048
2518,34048
2519,34048
2520,34112
2521,34112
2522,34176
2523,34112
2524,34112
2525,34048
2526,33984
2527,33984
2528,34048
2529,34112
2530,34176
2531,34176
2532,34176
2533,34112
2534,34048
2535,34048
2536,34112
2537,34112
2538,34112
2539,34112
2540,34240
2541,34304
2542,34368
2543,34432
2544,34560
2545,34688
2546,34816
2547,34944
2548,34880
2549,34816
2550,34688
2551,34624
2552,34624
2553,34560
2554,34432
2555,34304
2556,34176
2557,34112
2558,33984
2559,33856
2560,33792
2561,33728
2562,33600
2563,33536
2564,33536
2565,33472
2566,33408
2567,33408
2568,33536
2569,33728
2570,33792
2571,33792
2572,33600
2573,33344
2574,33088
2575,33152
2576,34112
2577,36160
2578,38784
2579,41216
2580,42752
2581,42944
2582,41408
2583,38784
2584,36032
2585,33792
2586,32128
2587,31168
2588,30912
2589,31168
2590,31552
2591,31936
2592,32256
2593,32512
2594,32768
2595,32960
2596,33024
2597,33088
2598,33088
2599,33152
2600,33344
2601,33472
2602,33600
2603,33664
2604,33600
2605,33536
2606,33600
2607,33728
2608,33856
2609,33856
2610,33856
2611,33856
2612,33856
2613,33856
2614,33984
2615,34048
2616,34112
2617,34112
2618,34176
2619,34176
2620,34176
2621,34176
2622,34304
2623,34432
2624,34496
2625,34560
2626,34560
2627,34624
2628,34624
2629,34688
2630,34752
2631,34816
2632,34880
2633,34944
2634,35072
2635,35136
2636,35200
2637,35200
2638,35264
2639,35328
2640,35392
2641,35456
2642,35520
2643,35520
2644,35392
2645,35264
2646,35008
2647,34752
2648,34496
2649,34304
2650,34112
2651,33856
2652,33728
2653,33600
2654,33472
2655,33344
2656,33280
2657,33216
2658,33088
2659,32960
2660,32896
2661,32960
2662,32960
2663,33024
2664,33088
2665,33152
2666,33216
2667,33280
2668,33344
2669,33408
2670,33536
2671,33600
2672,33664
2673,33600
2674,33536
2675,33536
2676,33600
2677,33664
2678,33728
2679,33792
2680,33856
2681,33856
2682,33728
2683,33664
2684,33728
2685,33856
2686,34048
2687,34112
2688,34176
2689,34368
2690,34432
2691,34496
2692,34496
2693,34496
2694,34432
2695,34240
2696,34176
2697,34240
2698,34304
2699,34432
2700,34496
2701,34560
2702,34560
2703,34432
2704,34304
2705,34304
2706,34304
2707,34304
2708,34240
2709,34240
2710,34304
2711,34304
2712,34240
2713,34112
2714,34048
2715,34048
2716,34048
2717,34112
2718,34048
2719,34112
2720,34176
2721,34176
2722,34176
2723,34112
2724,33984
2725,33984
2726,34112
2727,34240
2728,34304
2729,34240
2730,34176
2731,34112
2732,34048
2733,34048
2734,34048
2735,34112
2736,34176
2737,34176
2738,34176
2739,34304
2740,34368
2741,34304
2742,34048
2743,33984
2744,33984
2745,34048
2746,34176
2747,34304
2748,34432
2749,34496
2750,34624
2751,34752
2752,34816
2753,34816
2754,34816
2755,34816
2756,34752
2757,34624
2758,34368
2759,34240
2760,34176
2761,34112
2762,34048
2763,33984
2764,33856
2765,33792
2766,33728
2767,33600
2768,33600
2769,33600
2770,33664
2771,33728
2772,33792
2773,33792
2774,33856
2775,33792
2776,33728
2777,33600
2778,33280
2779,32832
2780,32704
2781,33344
2782,34880
2783,37312
2784,39680
2785,41472
2786,42176
2787,41280
2788,39168
2789,36672
2790,34624
2791,33152
2792,32128
2793,31552
2794,31488
2795,31744
2796,32128
2797,32448
2798,32512
2799,32704
2800,32832
2801,33088
2802,33280
2803,33472
2804,33536
2805,33600
2806,33600
2807,33600
2808,33600
2809,33600
2810,33664
2811,33728
2812,33728
2813,33728
2814,33728
2815,33728
2816,33728
2817,33856
2818,33856
2819,33984
2820,34048
2821,34176
2822,34112
2823,33984
2824,33856
2825,33856
2826,33856
2827,34240
2828,34368
2829,34432
2830,34496
2831,34624
2832,34624
2833,34688
2834,34624
2835,34496
2836,34624
2837,34816
2838,35008
2839,35200
2840,35264
2841,35200
2842,35328
2843,35328
2844,35392
2845,35200
2846,34944
2847,34880
2848,34816
2849,34816
2850,34688
2851,34624
2852,34432
2853,34240
2854,34048
2855,33856
2856,33600
2857,33280
2858,33088
2859,32960
2860,33024
2861,33088
2862,33152
2863,33216
2864,33280
2865,33216
2866,33024
2867,33024
2868,33088
2869,33216
2870,33280
2871,33152
2872,33152
2873,33280
2874,33408
2875,33472
2876,33536
2877,33600
2878,33600
2879,33600
2880,33600
2881,33664
2882,33792
2883,33856
2884,33920
2885,33920
2886,33920
2887,33920
2888,33792
2889,33728
2890,33728
2891,33856
2892,33984
2893,33920
2894,33920
2895,33792
2896,33920
2897,34112
2898,34304
2899,34304
2900,34368
2901,34304
2902,34304
2903,34240
2904,34176
2905,34176
2906,34176
2907,34176
2908,34176
2909,34176
2910,34112
2911,33984
2912,33984
2913,33984
2914,34112
2915,34112
2916,33984
2917,33856
2918,33728
2919,33792
2920,33920
2921,34176
2922,34176
2923,34496
2924,34624
2925,34688
2926,34752
2927,34816
2928,34816
2929,34880
2930,34944
2931,34944
2932,34816
2933,34560
2934,34240
2935,34048
2936,33920
2937,33856
2938,33728
2939,33536
2940,33472
2941,33344
2942,33088
2943,32960
2944,33088
2945,33152
2946,33216
2947,33344
2948,33408
2949,33344
2950,33280
2951,33280
2952,33408
2953,33472
2954,33472
2955,33408
2956,33152
2957,32768
2958,32640
2959,33088
2960,34560
2961,36928
2962,39552
2963,41536
2964,42432
2965,41856
2966,39808
2967,37056
2968,34816
2969,32960
2970,31744
2971,31168
2972,31104
2973,31424
2974,31808
2975,32128
2976,32384
2977,32640
2978,32768
2979,32832
2980,32896
2981,33024
2982,33024
2983,33152
2984,33216
2985,33216
2986,33280
2987,33344
2988,33472
2989,33536
2990,33600
2991,33728
2992,33856
2993,33920
2994,33984
2995,33920
2996,33856
2997,33920
2998,34048
2999,34112
3000,34048
3001,34112
3002,34112
3003,34112
3004,34176
3005,34176
3006,34240
3007,34304
3008,34368
3009,34432
3010,34560
3011,34624
3012,34688
3013,34816
3014,34880
3015,34944
3016,34944
3017,34944
3018,34944
3019,35072
3020,35136
3021,35200
3022,35392
3023,35520
3024,35584
3025,35456
3026,35328
3027,35200
3028,35072
3029,34944
3030,34688
3031,34304
3032,34048
3033,33856
3034,33728
3035,33536
3036,33344
3037,33152
3038,32960
3039,32832
3040,32768
3041,32704
3042,32640
3043,32640
3044,32704
3045,32768
3046,32896
3047,32960
3048,33024
3049,33088
3050,33152
3051,33216
3052,33216
3053,33280
3054,33280
3055,33280
3056,33280
3057,33216
3058,33152
3059,33152
3060,33280
3061,33344
3062,33536
3063,33600
3064,33536
3065,33536
3066,33664
3067,33856
3068,33984
3069,34112
3070,34112
3071,34112
3072,34176
3073,34240
3074,34176
3075,33984
3076,33920
3077,33984
3078,34048
3079,34176
3080,34304
3081,34240
3082,34176
3083,34048
3084,34112
3085,34176
3086,34240
3087,34240
3088,34240
3089,34112
3090,34048
3091,34048
3092,34048
3093,33984
3094,33984
3095,33984
3096,33984
3097,33920
3098,33984
3099,33920
3100,33856
3101,33920
3102,33920
3103,34048
3104,34112
3105,34048
3106,34048
3107,33984
3108,33856
3109,33792
3110,33728
3111,33792
3112,33920
3113,34048
3114,34176
3115,34240
3116,34176
3117,34176
3118,34304
3119,34432
3120,34624
3121,34816
3122,34880
3123,34816
3124,34560
3125,34304
3126,34240
3127,34368
3128,34432
3129,34304
3130,34240
3131,34240
3132,34176
3133,34048
3134,33856
3135,33600
3136,33472
3137,33408
3138,33344
3139,33216
3140,33152
3141,33152
3142,33152
3143,33280
3144,33472
3145,33664
3146,33536
3147,33472
3148,33216
3149,33088
3150,33088
3151,33728
3152,35264
3153,37632
3154,40320
3155,42240
3156,42944
3157,42048
3158,39680
3159,36736
3160,34112
3161,31936
3162,31744
3163,30720
3164,30912
3165,31360
3166,31872
3167,32192
3168,32448
3169,32512
3170,32576
3171,32640
3172,32768
3173,32832
3174,32896
3175,32960
3176,33088
3177,33152
3178,33280
3179,33472
3180,33600
3181,33728
3182,33728
3183,33664
3184,33600
3185,33600
3186,33664
3187,33728
3188,33728
3189,33792
3190,33920
3191,33984
3192,33920
3193,33984
3194,34112
3195,34240
3196,34240
3197,34240
3198,34304
3199,34240
3200,34240
3201,34240
3202,34304
3203,34496
3204,34624
3205,34752
3206,34816
3207,34944
3208,35072
3209,35136
3210,35136
3211,35136
3212,35136
3213,35200
3214,35328
3215,35392
3216,35456
3217,35392
3218,35328
3219,35264
3220,35136
3221,34944
3222,34816
3223,34624
3224,34368
3225,34048
3226,33792
3227,33600
3228,33344
3229,33152
3230,32960
3231,32768
3232,32640
3233,32576
3234,32576
3235,32576
3236,32640
3237,32704
3238,32768
3239,32832
3240,32832
3241,32832
3242,32896
3243,33088
3244,33280
3245,33472
3246,33472
3247,33472
3248,33536
3249,33536
3250,33472
3251,33472
3252,33408
3253,33344
3254,33408
3255,33600
3256,33792
3257,33920
3258,33920
3259,33984
3260,33984
3261,33984
3262,33920
3263,33920
3264,33920
3265,33920
3266,34048
3267,34112
3268,34112
3269,33920
3270,33792
3271,33856
3272,33984
3273,34048
3274,34112
3275,34112
3276,34112
3277,34176
3278,34112
3279,34112
3280,34112
3281,34112
3282,34112
3283,34048
3284,33920
3285,33856
3286,33856
3287,33792
3288,33920
3289,34048
3290,34176
3291,34240
3292,34240
3293,34112
3294,34048
3295,33984
3296,33856
3297,33856
3298,33856
3299,33920
3300,33984
3301,33984
3302,33984
3303,33984
3304,33920
3305,33856
3306,33792
3307,33792
3308,33792
3309,33920
3310,34048
3311,34112
3312,34048
3313,34112
3314,34048
3315,33920
3316,33856
3317,33856
3318,33920
3319,33984
3320,33984
3321,33920
3322,33984
3323,33984
3324,33984
3325,33984
3326,33984
3327,33984
3328,34048
3329,34176
3330,34304
3331,34560
3332,34752
3333,34880
3334,35008
3335,35008
3336,35008
3337,34880
3338,34624
3339,34496
3340,34368
3341,34176
3342,34048
3343,33920
3344,33920
3345,33920
3346,33792
3347,33536
3348,33408
3349,33344
3350,33408
3351,33408
3352,33408
3353,33472
3354,33536
3355,33600
3356,33600
3357,33536
3358,33664
3359,33472
3360,33216
3361,32960
3362,32896
3363,33024
3364,33792
3365,35712
3366,38272
3367,40832
3368,42688
3369,43136
3370,41984
3371,38464
3372,37952
3373,33856
3374,31936
3375,30848
3376,30528
3377,30848
3378,31360
3379,31936
3380,32320
3381,32576
3382,32704
3383,32768
3384,32832
3385,32896
3386,32960
3387,33088
3388,33216
3389,33280
3390,33344
3391,33408
3392,33472
3393,33536
3394,33600
3395,33536
3396,33472
3397,33536
3398,33600
3399,33728
3400,33792
3401,33920
3402,33920
3403,33920
3404,33920
3405,33984
3406,34048
3407,34048
3408,34112
3409,34176
3410,34304
3411,34304
3412,34368
3413,34368
3414,34368
3415,34432
3416,34560
3417,34624
3418,34688
3419,34752
3420,34880
3421,34944
3422,34944
3423,34816
3424,34880
3425,35136
3426,35392
3427,35456
3428,35456
3429,35520
3430,35648
3431,35968
3432,35968
3433,36096
3434,35776
3435,35072
3436,34240
3437,33600
3438,33280
3439,33024
3440,32896
3441,32768
3442,32704
3443,32640
3444,32640
3445,32640
3446,32704
3447,32704
3448,32832
3449,32896
3450,32896
3451,32896
3452,32896
3453,32896
3454,32896
3455,32960
3456,32960
3457,33088
3458,33152
3459,33344
3460,33408
3461,33472
3462,33536
3463,33600
3464,33664
3465,33664
3466,33664
3467,33600
3468,33600
3469,33600
3470,33664
3471,33728
3472,33792
3473,33856
3474,33856
3475,33856
3476,33856
3477,33856
3478,33792
3479,33792
3480,33856
3481,33920
3482,33856
3483,33920
3484,33984
3485,34048
3486,34112
3487,34176
3488,34240
3489,34240
3490,34176
3491,34112
3492,34112
3493,34112
3494,34176
3495,34112
3496,34048
3497,33984
3498,33920
3499,33856
3500,33920
3501,33920
3502,33984
3503,33984
3504,33984
3505,33856
3506,33728
3507,33728
3508,33728
3509,33792
3510,33856
3511,33984
3512,34048
3513,34048
3514,33984
3515,33984
3516,33920
3517,33856
3518,33920
3519,33920
3520,33856
3521,33792
3522,33728
3523,33920
3524,33984
3525,34048
3526,33984
3527,33920
3528,33920
3529,33920
3530,33856
3531,33728
3532,33664
3533,33728
3534,33792
3535,33856
3536,33856
3537,33920
3538,33984
3539,34048
3540,34112
3541,34176
3542,34240
3543,34240
3544,34368
3545,34496
3546,34752
3547,34944
3548,35072
3549,35072
3550,34944
3551,34880
3552,34816
3553,34688
3554,34496
3555,34240
3556,34048
3557,33856
3558,33664
3559,33600
3560,33472
3561,33280
3562,33216
3563,33216
3564,33280
3565,33344
3566,33408
3567,33408
3568,33408
3569,33472
3570,33536
3571,33536
3572,33472
3573,33280
3574,33088
3575,32832
3576,32832
3577,33600
3578,35392
3579,37952
3580,40320
3581,42496
3582,42496
3583,41472
3584,39104
3585,36416
3586,34176
3587,32448
3588,31424
3589,30912
3590,30976
3591,31424
3592,31936
3593,32448
3594,32832
3595,32896
3596,32832
3597,32704
3598,32704
3599,32768
3600,32832
3601,32832
3602,32960
3603,33216
3604,33408
3605,33536
3606,33664
3607,33792
3608,33856
3609,33920
3610,33984
3611,34176
3612,34112
3613,34304
3614,34304
3615,34240
3616,34048
3617,33856
3618,33728
3619,33728
3620,33728
3621,33728
3622,33792
3623,33920
3624,33984
3625,34048
3626,34176
3627,34240
3628,34432
3629,34560
3630,34624
3631,34688
3632,34816
3633,34944
3634,34944
3635,35008
3636,35072
3637,35136
3638,35136
3639,35200
3640,35264
3641,35328
3642,35392
3643,35392
3644,35392
3645,35328
3646,35328
3647,35136
3648,34752
3649,34368
3650,34048
3651,33920
3652,33792
3653,33664
3654,33472
3655,33344
3656,33280
3657,33216
3658,33088
3659,32960
3660,32896
3661,32832
3662,32832
3663,32896
3664,32960
3665,32960
3666,32960
3667,32960
3668,32896
3669,32896
3670,33024
3671,33344
3672,33472
3673,33536
3674,33536
3675,33536
3676,33472
3677,33472
3678,33472
3679,33472
3680,33600
3681,33664
3682,33728
3683,33728
3684,33792
3685,33856
3686,33920
3687,33856
3688,33920
3689,33920
3690,33920
3691,33920
3692,33984
3693,34048
3694,34112
3695,34176
3696,34240
3697,34240
3698,34240
3699,34240
3700,34176
3701,34240
3702,34304
3703,34368
3704,34368
3705,34304
3706,34176
3707,33984
3708,33856
3709,33856
3710,33920
3711,33920
3712,33984
3713,33984
3714,33984
3715,34048
3716,34048
3717,33984
3718,33920
3719,33920
3720,33984
3721,33984
3722,34112
3723,34176
3724,34368
3725,34432
3726,34560
3727,34688
3728,34816
3729,34880
3730,34880
3731,35008
3732,34944
3733,35072
3734,34944
3735,34688
3736,34496
3737,34304
3738,34176
3739,34112
3740,33920
3741,33728
3742,33536
3743,33408
3744,33280
3745,33088
3746,33024
3747,33088
3748,33152
3749,33088
3750,33024
3751,33088
3752,33216
3753,33408
3754,33536
3755,33664
3756,33792
3757,33792
3758,33536
3759,33152
3760,32768
3761,32640
3762,32704
3763,34496
3764,36928
3765,39552
3766,41536
3767,42432
3768,41728
3769,39680
3770,36992
3771,34752
3772,33088
3773,32000
3774,31424
3775,31360
3776,31424
3777,31552
3778,31680
3779,31872
3780,32064
3781,32320
3782,32640
3783,32896
3784,33024
3785,33152
3786,33216
3787,33280
3788,33280
3789,33280
3790,33344
3791,33472
3792,33600
3793,33664
3794,33792
3795,33856
3796,33792
3797,33792
3798,33728
3799,33728
3800,33792
3801,33856
3802,33920
3803,33984
3804,34112
3805,34176
3806,34304
3807,34368
3808,34432
3809,34432
3810,34496
3811,34432
3812,34368
3813,34368
3814,34432
3815,34496
3816,34624
3817,34752
3818,34816
3819,34944
3820,35072
3821,35136
3822,35136
3823,35200
3824,35200
3825,35200
3826,35200
3827,35136
3828,35072
3829,35008
3830,35008
3831,34944
3832,34816
3833,34624
3834,34432
3835,34304
3836,34112
3837,33856
3838,33472
3839,33088
3840,32832
3841,32640
3842,32512
3843,32512
3844,32640
3845,32832
3846,32832
3847,32832
3848,32768
3849,32768
3850,32704
3851,32832
3852,33024
3853,33152
3854,33280
3855,33216
3856,33152
3857,33088
3858,33152
3859,33152
3860,33216
3861,33280
3862,33344
3863,33280
3864,33152
3865,33344
3866,33600
3867,33728
3868,33792
3869,33856
3870,33920
3871,33920
3872,33856
3873,33856
3874,33920
3875,34048
3876,34048
3877,34048
3878,33984
3879,33984
3880,34048
3881,34112
3882,34176
3883,34240
3884,34240
3885,34240
3886,34176
3887,34112
3888,34112
3889,34112
3890,34112
3891,34112
3892,34048
3893,33984
3894,34048
3895,34048
3896,33984
3897,33984
3898,33984
3899,33920
3900,33728
3901,33600
3902,33664
3903,33856
3904,33984
3905,34048
3906,33984
3907,33984
3908,33920
3909,33920
3910,33920
3911,33920
3912,33984
3913,33920
3914,33856
3915,33920
3916,33920
3917,33920
3918,33856
3919,33856
3920,33856
3921,33984
3922,33984
3923,33920
3924,33920
3925,33856
3926,33792
3927,33728
3928,33728
3929,33792
3930,33856
3931,33856
3932,33920
3933,33920
3934,33984
3935,34112
3936,34176
3937,34240
3938,34432
3939,34624
3940,34752
3941,34944
3942,35136
3943,35200
3944,35136
3945,35008
3946,34688
3947,34304
3948,34048
3949,33984
3950,33984
3951,34048
3952,33984
3953,33920
3954,33728
3955,33536
3956,33408
3957,33344
3958,33280
3959,33344
3960,33472
3961,33536
3962,33600
3963,33664
3964,33664
3965,33664
3966,33600
3967,33472
3968,33344
3969,33088
3970,32896
3971,33088
3972,34304
3973,36544
3974,39296
3975,41728
3976,43200
3977,43008
3978,41216
3979,38336
3980,35200
3981,32960
3982,31296
3983,30528
3984,30464
3985,30784
3986,31296
3987,31744
3988,32128
3989,32384
3990,32576
3991,32704
3992,32832
3993,32896
3994,32896
3995,33088
3996,33152
3997,33216
3998,33344
3999,33472
4000,33600
4001,33664
4002,33664
4003,33664
4004,33792
4005,33856
4006,33792
4007,33728
4008,33664
4009,33728
4010,33856
4011,33920
4012,33920
4013,33856
4014,33856
4015,33984
4016,34112
4017,34176
4018,34304
4019,34368
4020,34368
4021,34368
4022,34496
4023,34560
4024,34624
4025,34688
4026,34688
4027,34688
4028,34688
4029,34688
4030,34880
4031,35072
4032,35392
4033,35520
4034,35520
4035,35456
4036,35328
4037,35264
4038,35264
4039,35328
4040,35328
4041,35328
4042,35200
4043,34944
4044,34624
4045,34368
4046,34176
4047,33920
4048,33728
4049,33472
4050,33344
4051,33216
4052,33088
4053,32960
4054,32832
4055,32704
4056,32640
4057,32640
4058,32704
4059,32832
4060,32960
4061,33088
4062,33088
4063,33088
4064,33216
4065,33216
4066,33280
4067,33280
4068,33408
4069,33600
4070,33728
4071,33664
4072,33536
4073,33536
4074,33600
4075,33600
4076,33664
4077,33664
4078,33728
4079,33792
4080,33728
4081,33728
4082,33856
4083,33920
4084,33984
4085,34048
4086,34112
4087,34112
4088,34240
4089,34304
4090,34304
4091,34304
4092,34240
4093,34112
4094,34048
4095,33984
4096,34048
4097,34176
4098,34304
4099,34368
4100,34304
4101,34176
4102,34048
4103,33984
4104,33920
4105,33920
4106,33984
4107,33984
4108,33984
4109,33856
4110,33856
4111,33920
4112,33984
4113,34112
4114,34176
4115,34112
4116,34048
4117,33856
4118,33856
4119,33856
4120,33920
4121,34048
4122,34112
4123,34112
4124,34112
4125,34048
4126,33984
4127,33920
4128,33856
4129,33792
4130,33728
4131,33728
4132,33792
4133,33792
4134,33792
4135,33792
4136,33856
4137,33984
4138,33984
4139,33920
4140,33856
4141,33856
4142,33856
4143,33984
4144,34112
4145,34176
4146,34240
4147,34048
4148,33856
4149,33728
4150,33664
4151,33792
4152,34112
4153,34496
4154,34688
4155,34816
4156,34752
4157,34816
4158,34944
4159,35008
4160,34944
4161,34880
4162,34752
4163,34624
4164,34432
4165,34368
4166,34176
4167,34048
4168,33856
4169,33728
4170,33600
4171,33472
4172,33280
4173,33216
4174,33152
4175,33216
4176,33280
4177,33344
4178,33408
4179,33472
4180,33472
4181,33472
4182,33600
4183,33664
4184,33536
4185,33280
4186,32960
4187,32832
4188,33408
4189,35008
4190,37440
4191,40192
4192,42176
4193,43072
4194,42304
4195,40064
4196,37184
4197,34496
4198,32384
4199,31104
4200,30656
4201,30784
4202,31360
4203,31872
4204,32192
4205,32384
4206,32512
4207,32512
4208,32576
4209,32704
4210,32832
4211,33024
4212,33088
4213,33152
4214,33280
4215,33280
4216,33280
4217,33280
4218,33408
4219,33536
4220,33664
4221,33728
4222,33728
4223,33792
4224,33920
4225,33984
4226,34048
4227,34048
4228,34112
4229,34176
4230,34176
4231,34048
4232,33920
4233,33856
4234,33920
4235,34112
4236,34240
4237,34304
4238,34304
4239,34368
4240,34560
4241,34688
4242,34688
4243,34624
4244,34624
4245,34752
4246,34752
4247,34816
4248,34816
4249,34880
4250,34944
4251,35008
4252,35200
4253,35392
4254,35520
4255,35520
4256,35456
4257,35328
4258,35072
4259,34816
4260,34560
4261,34304
4262,34048
4263,33792
4264,33664
4265,33472
4266,33280
4267,33088
4268,33024
4269,32960
4270,32960
4271,32960
4272,32896
4273,32832
4274,32832
4275,32832
4276,32832
4277,32896
4278,32832
4279,32832
4280,32896
4281,32960
4282,33088
4283,33216
4284,33344
4285,33344
4286,33408
4287,33408
4288,33472
4289,33472
4290,33600
4291,33664
4292,33728
4293,33664
4294,33728
4295,33792
4296,33856
4297,33792
4298,33792
4299,33792
4300,33792
4301,33856
4302,33984
4303,33984
4304,34048
4305,33984
4306,33984
4307,33984
4308,34048
4309,34112
4310,34304
4311,34368
4312,34240
4313,34112
4314,33984
4315,33920
4316,33920
4317,33984
4318,33984
4319,34048
4320,34048
4321,34048
4322,34048
4323,34048
4324,34048
4325,33984
4326,33920
4327,33920
4328,33984
4329,34048
4330,34048
4331,33984
4332,33856
4333,33792
4334,33728
4335,33792
4336,33792
4337,33728
4338,33664
4339,33728
4340,33920
4341,34048
4342,34048
4343,34048
4344,34176
4345,34368
4346,34560
4347,34752
4348,34880
4349,34880
4350,34944
4351,35008
4352,34944
4353,34816
4354,34752
4355,34624
4356,34496
4357,34368
4358,34240
4359,34048
4360,33856
4361,33728
4362,33728
4363,33600
4364,33536
4365,33408
4366,33280
4367,33216
4368,33216
4369,33216
4370,33280
4371,33344
4372,33408
4373,33600
4374,33600
4375,33600
4376,33536
4377,33408
4378,33152
4379,32896
4380,32768
4381,33344
4382,35008
4383,37440
4384,40064
4385,42048
4386,42944
4387,42176
4388,40128
4389,37312
4390,34752
4391,32704
4392,31360
4393,30720
4394,30784
4395,31232
4396,31744
4397,32128
4398,32384
4399,32512
4400,32576
4401,32640
4402,32896
4403,33024
4404,33088
4405,33024
4406,33152
4407,33344
4408,33600
4409,33792
4410,33920
4411,33984
4412,33984
4413,33856
4414,33792
4415,33792
4416,33856
4417,33920
4418,33984
4419,33984
4420,34048
4421,34112
4422,34176
4423,34176
4424,34176
4425,34176
4426,34176
4427,34176
4428,34176
4429,34240
4430,34304
4431,34432
4432,34496
4433,34560
4434,34688
4435,34880
4436,35008
4437,35072
4438,35072
4439,35072
4440,35200
4441,35328
4442,35392
4443,35328
4444,35136
4445,35200
4446,35392
4447,35520
4448,35648
4449,35584
4450,35392
4451,35136
4452,34880
4453,34560
4454,34240
4455,33920
4456,33728
4457,33536
4458,33344
4459,33216
4460,33024
4461,32768
4462,32704
4463,32640
4464,32704
4465,32768
4466,32768
4467,32832
4468,32896
4469,32896
4470,32896
4471,32896
4472,32896
4473,32896
4474,33024
4475,33152
4476,33152
4477,33152
4478,33152
4479,33280
4480,33408
4481,33536
4482,33664
4483,33792
4484,33920
4485,33984
4486,33920
4487,33920
4488,33792
4489,33792
4490,33792
4491,33792
4492,33728
4493,33792
4494,33920
4495,34048
4496,34112
4497,34112
4498,34176
4499,34176
4500,34240
4501,34176
4502,34048
4503,34048
4504,34112
4505,34240
4506,34304
4507,34304
4508,34240
4509,34176
4510,34112
4511,34112
4512,34112
4513,34176
4514,34368
4515,34560
4516,34688
4517,34816
4518,34944
4519,34944
4520,35008
4521,35008
4522,34880
4523,34752
4524,34688
4525,34752
4526,34752
4527,34688
4528,34560
4529,34496
4530,34368
4531,34112
4532,33792
4533,33536
4534,33408
4535,33280
4536,33216
4537,33216
4538,33216
4539,33152
4540,33152
4541,33152
4542,33216
4543,33280
4544,33344
4545,33344
4546,33408
4547,33472
4548,33472
4549,33472
4550,33344
4551,33088
4552,32832
4553,32896
4554,33984
4555,36032
4556,38848
4557,41408
4558,43008
4559,43008
4560,41408
4561,38656
4562,35840
4563,33408
4564,31680
4565,30848
4566,30720
4567,31040
4568,31424
4569,31808
4570,32192
4571,32448
4572,32704
4573,32896
4574,33024
4575,33088
4576,33088
4577,33152
4578,33152
4579,33216
4580,33280
4581,33344
4582,33408
4583,33536
4584,33600
4585,33664
4586,33600
4587,33664
4588,33728
4589,33792
4590,33856
4591,33920
4592,33920
4593,33920
4594,33984
4595,34112
4596,34240
4597,34304
4598,34368
4599,34432
4600,34432
4601,34432
4602,34368
4603,34368
4604,34496
4605,34560
4606,34688
4607,34752
4608,34752
4609,34880
4610,35008
4611,35200
4612,35328
4613,35456
4614,35456
4615,35456
4616,35584
4617,35648
4618,35584
4619,35520
4620,35392
4621,35328
4622,35136
4623,35008
4624,34816
4625,34560
4626,34240
4627,33920
4628,33664
4629,33344
4630,33152
4631,32960
4632,32832
4633,32768
4634,32704
4635,32640
4636,32640
4637,32704
4638,32704
4639,32896
4640,32960
4641,33024
4642,33088
4643,33152
4644,33152
4645,33152
4646,33152
4647,33152
4648,33280
4649,33344
4650,33344
4651,33344
4652,33344
4653,33408
4654,33408
4655,33472
4656,33472
4657,33536
4658,33600
4659,33664
4660,33728
4661,33792
4662,33792
4663,33856
4664,33920
4665,33984
4666,34112
4667,34048
4668,33920
4669,33984
4670,34048
4671,34048
4672,34112
4673,34176
4674,34240
4675,34240
4676,34240
4677,34240
4678,34240
4679,34176
4680,34112
4681,34112
4682,34048
4683,33920
4684,33920
4685,33920
4686,33984
4687,33984
4688,34048
4689,34112
4690,34112
4691,34112
4692,34048
4693,33984
4694,33984
4695,33920
4696,33984
4697,34048
4698,33984
4699,34112
4700,34048
4701,34048
4702,34112
4703,34176
4704,34304
4705,34432
4706,34624
4707,34624
4708,34880
4709,35008
4710,35136
4711,35008
4712,34816
4713,34624
4714,34496
4715,34432
4716,34240
4717,34048
4718,33984
4719,33984
4720,33920
4721,33728
4722,33664
4723,33344
4724,33216
4725,33216
4726,33216
4727,33216
4728,33216
4729,33280
4730,33408
4731,33472
4732,33536
4733,33472
4734,33408
4735,33344
4736,33216
4737,32896
4738,32768
4739,33344
4740,35008
4741,37696
4742,40448
4743,42368
4744,43072
4745,42112
4746,39872
4747,37120
4748,34560
4749,32512
4750,31168
4751,30720
4752,30656
4753,31424
4754,31424
4755,32256
4756,32512
4757,32640
4758,32768
4759,32832
4760,32960
4761,33024
4762,33152
4763,33216
4764,33344
4765,33344
4766,33344
4767,33344
4768,33408
4769,33472
4770,33600
4771,33728
4772,33728
4773,33792
4774,33856
4775,33856
4776,33856
4777,33920
4778,34048
4779,34112
4780,34112
4781,34176
4782,34176
4783,34176
4784,34176
4785,34240
4786,34304
4787,34304
4788,34304
4789,34368
4790,34432
4791,34560
4792,34688
4793,34688
4794,34624
4795,34688
4796,34688
4797,34624
4798,34688
4799,34816
4800,35200
4801,35584
4802,35968
4803,36160
4804,36032
4805,35840
4806,35520
4807,35200
4808,34880
4809,34688
4810,34624
4811,34496
4812,34368
4813,34112
4814,33856
4815,33664
4816,33280
4817,33024
4818,32896
4819,32832
4820,32768
4821,32704
4822,32640
4823,32704
4824,32768
4825,32832
4826,32960
4827,33024
4828,33088
4829,33152
4830,33216
4831,33216
4832,33152
4833,33152
4834,33152
4835,33216
4836,33344
4837,33408
4838,33472
4839,33472
4840,33472
4841,33472
4842,33472
4843,33600
4844,33600
4845,33664
4846,33792
4847,33920
4848,34048
4849,34048
4850,33984
4851,33920
4852,33856
4853,33920
4854,34048
4855,34176
4856,34304
4857,34304
4858,34304
4859,34176
4860,34112
4861,34112
4862,34112
4863,34176
4864,34304
4865,34368
4866,34368
4867,34368
4868,34304
4869,34240
4870,34240
4871,34176
4872,34112
4873,33984
4874,33920
4875,33856
4876,33792
4877,33792
4878,33856
4879,33984
4880,34112
4881,34240
4882,34368
4883,34496
4884,34688
4885,34752
4886,34880
4887,34944
4888,35008
4889,35072
4890,35136
4891,35008
4892,34816
4893,34560
4894,34432
4895,34304
4896,34304
4897,34176
4898,34048
4899,33856
4900,33536
4901,33216
4902,33024
4903,32960
4904,33088
4905,33216
4906,33344
4907,33472
4908,33600
4909,33600
4910,33536
4911,33536
4912,33472
4913,33472
4914,33472
4915,33408
4916,33216
4917,33024
4918,32704
4919,32512
4920,33024
4921,34688
4922,37184
4923,39616
4924,41536
4925,42368
4926,41600
4927,39424
4928,36736
4929,34432
4930,32768
4931,31744
4932,31360
4933,31360
4934,31552
4935,31872
4936,32128
4937,32320
4938,32512
4939,32704
4940,32896
4941,33088
4942,33216
4943,33344
4944,33408
4945,33472
4946,33472
4947,33536
4948,33664
4949,33728
4950,33856
4951,33920
4952,33984
4953,33984
4954,33920
4955,33856
4956,33792
4957,33920
4958,34048
4959,34176
4960,34176
4961,34240
4962,34368
4963,34432
4964,34432
4965,34432
4966,34496
4967,34496
4968,34432
4969,34432
4970,34496
4971,34560
4972,34688
4973,34752
4974,34880
4975,35008
4976,35136
4977,35136
4978,35328
4979,35328
4980,35328
4981,35328
4982,35328
4983,35328
4984,35328
4985,35328
4986,35328
4987,35264
4988,35072
4989,34944
4990,34816
4991,34688
4992,34496
4993,34240
4994,34048
4995,33856
4996,33664
4997,33536
4998,33344
4999,33216
5000,33152
5001,33088
5002,33024
5003,32960
5004,32832
5005,32832
5006,32960
5007,33152
5008,33344
5009,33408
5010,33408
5011,33472
5012,33472
5013,33536
5014,33600
5015,33664
5016,33728
5017,33600
5018,33408
5019,33408
5020,33472
5021,33664
5022,33792
5023,33920
5024,34048
5025,34176
5026,34304
5027,34304
5028,34240
5029,34240
5030,34240
5031,34304
5032,34368
5033,34304
5034,34240
5035,34176
5036,34240
5037,34240
5038,34368
5039,34432
5040,34496
5041,34496
5042,34432
5043,34432
5044,34368
5045,34368
5046,34368
5047,34368
5048,34496
5049,34560
5050,34560
5051,34496
5052,34560
5053,34560
5054,34560
5055,34688
5056,34880
5057,35008
5058,35136
5059,35136
5060,35136
5061,35072
5062,35072
5063,35072
5064,35072
5065,34880
5066,34688
5067,34624
5068,34496
5069,34368
5070,34176
5071,33984
5072,33792
5073,33600
5074,33472
5075,33344
5076,33344
5077,33408
5078,33472
5079,33536
5080,33536
5081,33536
5082,33536
5083,33472
5084,33472
5085,33536
5086,33536
5087,33472
5088,33408
5089,33280
5090,33024
5091,32832
5092,33088
5093,34368
5094,36672
5095,39424
5096,41792
5097,42944
5098,42688
5099,40896
5100,38208
5101,35584
5102,33536
5103,32128
5104,31296
5105,31168
5106,31424
5107,31936
5108,32320
5109,32640
5110,32832
5111,32896
5112,32960
5113,32960
5114,33088
5115,33216
5116,33344
5117,33408
5118,33600
5119,33728
5120,33856
5121,33920
5122,33984
5123,33984
5124,33984
5125,33856
5126,33856
5127,33920
5128,34112
5129,34240
5130,34240
5131,34240
5132,34304
5133,34368
5134,34368
5135,34432
5136,34432
5137,34432
5138,34496
5139,34560
5140,34624
5141,34688
5142,34752
5143,34816
5144,34816
5145,34816
5146,34880
5147,35008
5148,35200
5149,35328
5150,35328
5151,35200
5152,35200
5153,35392
5154,35584
5155,35712
5156,35776
5157,35712
5158,35648
5159,35584
5160,35456
5161,35264
5162,34944
5163,34624
5164,34432
5165,34176
5166,33920
5167,33728
5168,33536
5169,33344
5170,33216
5171,33088
5172,33024
5173,32960
5174,32896
5175,32896
5176,32896
5177,32896
5178,32960
5179,33088
5180,33216
5181,33216
5182,33280
5183,33344
5184,33344
5185,33408
5186,33408
5187,33408
5188,33408
5189,33408
5190,33536
5191,33664
5192,33792
5193,33856
5194,33856
5195,33920
5196,33856
5197,33856
5198,33792
5199,33856
5200,33920
5201,33984
5202,34048
5203,34176
5204,34304
5205,34368
5206,34496
5207,34496
5208,34432
5209,34432
5210,34432
5211,34432
5212,34368
5213,34304
5214,34240
5215,34240
5216,34176
5217,34176
5218,34240
5219,34304
5220,34368
5221,34368
5222,34304
5223,34176
5224,34112
5225,34112
5226,33984
5227,33920
5228,33920
5229,33984
5230,34048
5231,34176
5232,34176
5233,34240
5234,34176
5235,34176
5236,34240
5237,34240
5238,34176
5239,34112
5240,34112
5241,34048
5242,33984
5243,33920
5244,33984
5245,33984
5246,33984
5247,33984
5248,33984
5249,34048
5250,34112
5251,34304
5252,34560
5253,34752
5254,35008
5255,35200
5256,35264
5257,35200
5258,35072
5259,34880
5260,34752
5261,34496
5262,34304
5263,34240
5264,34176
5265,34112
5266,34048
5267,33984
5268,33792
5269,33600
5270,33536
5271,33472
5272,33408
5273,33344
5274,33344
5275,33408
5276,33472
5277,33536
5278,33472
5279,33536
5280,33600
5281,33664
5282,33600
5283,33344
5284,33088
5285,32960
5286,33536
5287,35136
5288,37696
5289,40448
5290,42432
5291,43072
5292,42880
5293,39872
5294,36992
5295,34368
5296,32384
5297,31168
5298,30784
5299,30976
5300,31360
5301,31680
5302,32064
5303,32448
5304,32768
5305,32896
5306,33024
5307,33024
5308,33152
5309,33216
5310,33344
5311,33408
5312,33408
5313,33472
5314,33536
5315,33600
5316,33600
5317,33536
5318,33600
5319,33600
5320,33664
5321,33728
5322,33856
5323,34048
5324,34112
5325,34176
5326,34176
5327,34176
5328,34112
5329,34112
5330,34240
5331,34368
5332,34432
5333,34368
5334,34368
5335,34432
5336,34496
5337,34560
5338,34624
5339,34688
5340,34816
5341,35008
5342,35136
5343,35200
5344,35200
5345,35200
5346,35136
5347,35008
5348,35136
5349,35264
5350,35392
5351,35456
5352,35392
5353,35328
5354,35200
5355,35136
5356,35008
5357,34880
5358,34752
5359,34560
5360,34304
5361,34048
5362,33728
5363,33344
5364,33088
5365,32896
5366,32896
5367,32832
5368,32832
5369,32768
5370,32832
5371,32960
5372,33088
5373,33152
5374,33280
5375,33344
5376,33408
5377,33472
5378,33536
5379,33600
5380,33664
5381,33664
5382,33728
5383,33728
5384,33664
5385,33600
5386,33536
5387,33472
5388,33472
5389,33472
5390,33600
5391,33728
5392,33792
5393,33792
5394,33856
5395,33856
5396,33856
5397,33856
5398,33856
5399,33856
5400,33920
5401,33856
5402,33856
5403,33984
5404,34112
5405,34176
5406,34240
5407,34304
5408,34368
5409,34240
5410,34176
5411,34048
5412,33984
5413,33984
5414,34112
5415,34240
5416,34176
5417,34112
5418,33984
5419,33920
5420,33920
5421,33920
5422,33920
5423,33984
5424,33984
5425,33984
5426,33984
5427,33920
5428,33856
5429,33856
5430,33856
5431,33920
5432,33984
5433,33920
5434,33856
5435,33792
5436,33728
5437,33792
5438,33856
5439,33856
5440,33856
5441,33856
5442,33856
5443,33856
5444,33856
5445,33920
5446,33984
5447,33984
5448,34048
5449,34048
5450,34048
5451,33984
5452,33984
5453,33984
5454,33984
5455,33920
5456,33856
5457,33856
5458,33984
5459,34112
5460,34176
5461,34176
5462,34048
5463,33856
5464,33728
5465,33792
5466,33984
5467,34048
5468,34112
5469,34112
5470,34176
5471,34304
5472,34304
5473,34432
5474,34560
5475,34624
5476,34688
5477,34816
5478,34816
5479,34816
5480,34688
5481,34560
5482,34496
5483,34432
5484,34304
5485,34240
5486,34240
5487,34112
5488,34048
5489,33984
5490,33920
5491,33792
5492,33600
5493,33472
5494,33408
5495,33408
5496,33344
5497,33408
5498,33408
5499,33472
5500,33600
5501,33600
5502,33472
5503,33344
5504,33088
5505,33024
5506,33408
5507,34624
5508,36864
5509,39552
5510,41920
5511,43200
5512,42944
5513,41024
5514,38208
5515,35392
5516,32256
5517,32000
5518,30784
5519,30656
5520,30976
5521,31424
5522,31872
5523,32192
5524,32512
5525,32704
5526,32832
5527,32832
5528,32832
5529,32960
5530,33024
5531,33088
5532,33216
5533,33280
5534,33408
5535,33536
5536,33600
5537,33664
5538,33728
5539,33792
5540,33856
5541,33792
5542,33792
5543,33792
5544,33856
5545,33984
5546,33984
5547,33920
5548,33856
5549,33920
5550,34048
5551,34176
5552,34176
5553,34112
5554,34240
5555,34304
5556,34304
5557,34240
5558,34304
5559,34432
5560,34624
5561,34752
5562,34816
5563,34880
5564,34944
5565,35008
5566,35008
5567,35008
5568,35008
5569,35072
5570,35200
5571,35200
5572,35200
5573,35200
5574,35264
5575,35200
5576,35072
5577,35008
5578,34816
5579,34624
5580,34432
5581,34176
5582,33920
5583,33728
5584,33472
5585,33216
5586,33024
5587,32896
5588,32768
5589,32640
5590,32640
5591,32704
5592,32768
5593,32832
5594,32896
5595,32960
5596,33024
5597,33088
5598,33152
5599,33216
5600,33344
5601,33344
5602,33344
5603,33472
5604,33536
5605,33600
5606,33600
5607,33600
5608,33600
5609,33664
5610,33728
5611,33664
5612,33664
5613,33728
5614,33792
5615,33856
5616,33920
5617,33920
5618,33920
5619,33920
5620,33984
5621,33984
5622,33984
5623,33984
5624,33984
5625,34048
5626,34112
5627,34240
5628,34304
5629,34304
5630,34240
5631,34176
5632,34240
5633,34240
5634,34304
5635,34304
5636,34240
5637,34176
5638,34240
5639,34240
5640,34112
5641,34048
5642,33984
5643,33920
5644,33984
5645,33984
5646,34048
5647,34048
5648,34048
5649,34112
5650,34176
5651,34240
5652,34176
5653,34112
5654,34112
5655,34112
5656,33984
5657,33792
5658,33728
5659,33664
5660,33792
5661,33920
5662,33984
5663,33984
5664,33920
5665,33920
5666,34048
5667,34048
5668,34112
5669,34112
5670,34176
5671,34240
5672,34240
5673,34176
5674,34176
5675,34112
5676,34048
5677,33984
5678,33984
5679,33984
5680,33984
5681,33920
5682,33920
5683,34048
5684,34176
5685,34304
5686,34368
5687,34432
5688,34432
5689,34624
5690,34816
5691,34880
5692,34880
5693,34752
5694,34624
5695,34432
5696,34304
5697,34240
5698,34240
5699,34240
5700,34112
5701,34048
5702,33984
5703,33792
5704,33600
5705,33536
5706,33600
5707,33600
5708,33664
5709,33664
5710,33600
5711,33664
5712,33664
5713,33728
5714,33728
5715,33600
5716,33280
5717,32896
5718,32640
5719,33024
5720,34560
5721,36864
5722,39424
5723,41472
5724,42496
5725,42048
5726,39680
5727,37504
5728,35136
5729,33280
5730,32000
5731,31232
5732,30976
5733,31104
5734,31552
5735,32128
5736,32576
5737,32832
5738,32960
5739,33088
5740,33152
5741,33216
5742,33344
5743,33408
5744,33408
5745,33472
5746,33600
5747,33664
5748,33728
5749,33728
5750,33664
5751,33728
5752,33792
5753,33920
5754,33984
5755,33984
5756,33920
5757,33920
5758,33920
5759,33920
5760,33856
5761,33920
5762,34048
5763,34368
5764,34560
5765,34624
5766,34560
5767,34432
5768,34304
5769,34240
5770,34304
5771,34368
5772,34432
5773,34496
5774,34624
5775,34816
5776,34880
5777,34944
5778,35008
5779,35008
5780,35072
5781,35136
5782,35200
5783,35264
5784,35328
5785,35328
5786,35328
5787,35328
5788,35200
5789,35072
5790,34880
5791,34624
5792,34432
5793,34176
5794,33984
5795,33728
5796,33536
5797,33408
5798,33280
5799,33280
5800,33216
5801,33216
5802,33152
5803,33088
5804,33024
5805,33024
5806,33216
5807,33344
5808,33472
5809,33536
5810,33536
5811,33408
5812,33408
5813,33408
5814,33472
5815,33472
5816,33472
5817,33536
5818,33600
5819,33664
5820,33792
5821,33856
5822,33920
5823,33920
5824,33984
5825,34048
5826,34048
5827,34176
5828,34304
5829,34432
5830,34432
5831,34368
5832,34304
5833,34240
5834,34240
5835,34176
5836,34240
5837,34240
5838,34176
5839,34176
5840,34240
5841,34304
5842,34432
5843,34496
5844,34496
5845,34496
5846,34432
5847,34432
5848,34368
5849,34304
5850,34240
5851,34304
5852,34368
5853,34368
5854,34368
5855,34368
5856,34368
5857,34368
5858,34304
5859,34304
5860,34240
5861,34240
5862,34304
5863,34368
5864,34432
5865,34432
5866,34304
5867,34176
5868,34048
5869,33984
5870,34048
5871,34240
5872,34368
5873,34432
5874,34496
5875,34496
5876,34496
5877,34432
5878,34432
5879,34432
5880,34368
5881,34240
5882,34176
5883,34176
5884,34240
5885,34368
5886,34560
5887,34688
5888,34816
5889,34944
5890,35008
5891,35200
5892,35328
5893,35328
5894,35264
5895,35072
5896,34880
5897,34752
5898,34624
5899,34624
5900,34624
5901,34624
5902,34560
5903,34496
5904,34368
5905,34240
5906,33984
5907,33856
5908,33792
5909,33856
5910,33984
5911,34048
5912,33984
5913,33984
5914,33920
5915,33920
5916,33856
5917,33664
5918,33408
5919,33280
5920,33792
5921,35392
5922,37824
5923,40448
5924,42560
5925,43520
5926,42816
5927,40640
5928,37696
5929,35136
5930,33088
5931,31744
5932,31296
5933,31360
5934,31744
5935,32192
5936,32576
5937,32832
5938,32960
5939,33024
5940,33088
5941,33280
5942,33536
5943,33728
5944,33792
5945,33856
5946,33856
5947,33920
5948,33920
5949,33920
5950,33984
5951,34048
5952,34112
5953,34176
5954,34240
5955,34368
5956,34432
5957,34368
5958,34240
5959,34176
5960,34176
5961,34368
5962,34496
5963,34496
5964,34496
5965,34560
5966,34624
5967,34688
5968,34688
5969,34752
5970,34816
5971,34944
5972,34944
5973,35008
5974,35072
5975,35200
5976,35328
5977,35456
5978,35520
5979,35648
5980,35712
5981,35712
5982,35712
5983,35648
5984,35520
5985,35456
5986,35456
5987,35584
5988,35648
5989,35584
5990,35456
5991,35200
5992,34944
5993,34688
5994,34432
5995,34112
5996,33856
5997,33728
5998,33664
5999,33536
6000,33408
6001,33280
6002,33152
6003,33088
6004,33024
6005,33088
6006,33088
6007,33152
6008,33280
6009,33344
6010,33344
6011,33344
6012,33344
6013,33472
6014,33536
6015,33600
6016,33792
6017,33856
6018,33984
6019,33984
6020,33984
6021,33920
6022,33856
6023,33856
6024,33856
6025,33920
6026,33984
6027,33984
6028,34048
6029,34048
6030,34112
6031,34112
6032,34112
6033,34112
6034,34176
6035,34240
6036,34304
6037,34368
6038,34432
6039,34432
6040,34496
6041,34432
6042,34432
6043,34432
6044,34368
6045,34368
6046,34432
6047,34432
6048,34368
6049,34304
6050,34368
6051,34304
6052,34304
6053,34304
6054,34304
6055,34304
6056,34304
6057,34240
6058,34176
6059,34176
6060,34112
6061,34176
6062,34112
6063,34048
6064,33984
6065,33984
6066,33920
6067,33984
6068,34112
6069,34176
6070,34240
6071,34176
6072,34176
6073,34048
6074,33984
6075,33984
6076,34048
6077,34112
6078,34176
6079,34176
6080,34240
6081,34240
6082,34176
6083,34176
6084,34176
6085,34112
6086,34048
6087,33984
6088,33984
6089,33984
6090,34048
6091,34112
6092,34112
6093,34048
6094,34112
6095,34240
6096,34368
6097,34368
6098,34368
6099,34432
6100,34560
6101,34688
6102,34816
6103,34944
6104,34944
6105,34880
6106,34752
6107,34560
6108,34432
6109,34304
6110,34240
6111,34176
6112,34240
6113,34240
6114,34176
6115,34048
6116,33984
6117,33792
6118,33664
6119,33536
6120,33472
6121,33472
6122,33536
6123,33600
6124,33728
6125,33728
6126,33728
6127,33600
6128,33408
6129,33088
6130,32960
6131,33344
6132,34880
6133,37248
6134,40064
6135,42304
6136,43456
6137,42944
6138,40768
6139,37824
6140,35136
6141,32896
6142,31488
6143,30848
6144,30976
6145,31360
6146,31808
6147,32128
6148,32256
6149,32448
6150,32576
6151,32704
6152,32704
6153,32768
6154,32960
6155,33152
6156,33408
6157,33536
6158,33664
6159,33664
6160,33664
6161,33664
6162,33664
6163,33664
6164,33600
6165,33600
6166,33664
6167,33792
6168,33920
6169,33920
6170,33984
6171,33920
6172,33920
6173,33984
6174,34112
6175,34176
6176,34240
6177,34368
6178,34432
6179,34432
6180,34432
6181,34432
6182,34432
6183,34432
6184,34496
6185,34496
6186,34624
6187,34752
6188,34880
6189,35072
6190,35200
6191,35264
6192,35392
6193,35456
6194,35456
6195,35456
6196,35456
6197,35456
6198,35328
6199,35200
6200,35136
6201,34944
6202,34816
6203,34624
6204,34432
6205,34112
6206,33856
6207,33600
6208,33408
6209,33280
6210,33088
6211,32896
6212,32768
6213,32768
6214,32768
6215,32768
6216,32768
6217,32768
6218,32832
6219,32960
6220,33024
6221,33088
6222,33152
6223,33088
6224,33152
6225,33152
6226,33216
6227,33280
6228,33344
6229,33408
6230,33472
6231,33472
6232,33408
6233,33408
6234,33408
6235,33536
6236,33664
6237,33728
6238,33856
6239,33792
6240,33728
6241,33728
6242,33792
6243,33856
6244,33792
6245,33792
6246,33792
6247,33792
6248,33792
6249,33856
6250,33984
6251,34048
6252,34112
6253,34176
6254,34304
6255,34432
6256,34432
6257,34368
6258,34304
6259,34240
6260,34240
6261,34176
6262,34176
6263,34112
6264,34112
6265,34048
6266,33920
6267,33920
6268,33920
6269,33984
6270,33984
6271,33920
6272,33920
6273,33920
6274,33984
6275,33984
6276,33920
6277,33856
6278,33856
6279,33984
6280,34048
6281,33984
6282,33856
6283,33856
6284,33920
6285,33984
6286,33920
6287,33792
6288,33728
6289,33728
6290,33792
6291,33856
6292,33920
6293,34048
6294,34112
6295,34112
6296,34112
6297,34048
6298,34048
6299,33984
6300,33920
6301,33920
6302,33920
6303,33984
6304,33984
6305,33920
6306,33920
6307,33920
6308,33920
6309,33984
6310,33920
6311,33920
6312,33920
6313,33984
6314,33984
6315,34048
6316,34048
6317,34112
6318,34304
6319,34496
6320,34624
6321,34816
6322,34880
6323,34816
6324,34688
6325,34624
6326,34496
6327,34304
6328,34048
6329,33920
6330,33792
6331,33792
6332,33728
6333,33728
6334,33600
6335,33472
6336,33344
6337,33408
6338,33472
6339,33536
6340,33600
6341,33536
6342,33536
6343,33600
6344,33664
6345,33664
6346,33600
6347,33344
6348,32960
6349,32768
6350,33216
6351,34880
6352,37248
6353,40064
6354,42176
6355,43136
6356,42432
6357,40128
6358,37312
6359,34624
6360,32448
6361,31104
6362,30528
6363,30592
6364,30976
6365,31552
6366,31936
6367,32256
6368,32448
6369,32576
6370,32704
6371,32832
6372,32960
6373,33024
6374,33024
6375,33088
6376,33152
6377,33152
6378,33216
6379,33280
6380,33408
6381,33536
6382,33600
6383,33664
6384,33664
6385,33664
6386,33600
6387,33664
6388,33792
6389,33920
6390,33920
6391,33856
6392,33920
6393,34048
6394,34112
6395,34112
6396,34112
6397,34112
6398,34176
6399,34240
6400,34304
6401,34368
6402,34496
6403,34496
6404,34624
6405,34688
6406,34752
6407,34880
6408,35008
6409,35008
6410,35008
6411,35072
6412,35200
6413,35328
6414,35392
6415,35392
6416,35392
6417,35328
6418,35264
6419,35136
6420,35008
6421,34880
6422,34624
6423,34432
6424,34176
6425,33984
6426,33792
6427,33536
6428,33280
6429,33024
6430,32896
6431,32832
6432,32832
6433,32768
6434,32704
6435,32576
6436,32640
6437,32768
6438,32832
6439,32896
6440,32896
6441,32960
6442,33024
6443,33088
6444,33216
6445,33280
6446,33344
6447,33344
6448,33344
6449,33472
6450,33664
6451,33664
6452,33664
6453,33664
6454,33664
6455,33600
6456,33600
6457,33600
6458,33728
6459,33920
6460,33792
6461,33792
6462,33792
6463,33856
6464,33920
6465,34048
6466,34112
6467,34176
6468,34176
6469,34176
6470,34112
6471,34048
6472,34112
6473,34176
6474,34240
6475,34240
6476,34240
6477,34176
6478,34112
6479,34048
6480,33984
6481,34048
6482,34048
6483,34112
6484,34112
6485,34112
6486,34112
6487,34176
6488,34112
6489,33984
6490,33984
6491,34048
6492,33984
6493,34048
6494,34048
6495,34048
6496,33984
6497,33984
6498,33984
6499,33984
6500,33984
6501,33920
6502,33920
6503,33920
6504,33984
6505,34048
6506,33984
6507,33920
6508,33856
6509,33792
6510,33792
6511,33792
6512,33792
6513,33856
6514,33920
6515,34112
6516,34048
6517,34112
6518,34112
6519,34176
6520,34112
6521,34048
6522,33984
6523,33920
6524,33920
6525,33984
6526,34176
6527,34368
6528,34496
6529,34688
6530,34816
6531,34944
6532,34944
6533,34880
6534,34752
6535,34560
6536,34432
6537,34368
6538,34240
6539,34176
6540,34176
6541,34176
6542,34048
6543,33856
6544,33728
6545,33600
6546,33600
6547,33536
6548,33472
6549,33472
6550,33472
6551,33600
6552,33664
6553,33728
6554,33728
6555,33728
6556,33536
6557,33152
6558,32768
6559,32832
6560,33664
6561,35648
6562,38272
6563,40640
6564,42176
6565,42496
6566,41216
6567,38656
6568,36160
6569,34048
6570,32512
6571,31552
6572,31104
6573,31104
6574,31552
6575,32000
6576,32384
6577,32704
6578,32832
6579,32960
6580,32960
6581,32896
6582,32960
6583,33088
6584,33216
6585,33408
6586,33536
6587,33664
6588,33664
6589,33664
6590,33600
6591,33664
6592,33664
6593,33728
6594,33856
6595,33984
6596,34048
6597,34048
6598,33984
6599,34048
6600,34112
6601,34112
6602,34048
6603,34048
6604,34048
6605,34112
6606,34112
6607,34176
6608,34304
6609,34432
6610,34496
6611,34560
6612,34624
6613,34752
6614,34816
6615,34816
6616,34880
6617,35008
6618,35072
6619,35136
6620,35072
6621,35136
6622,35200
6623,35264
6624,35328
6625,35392
6626,35328
6627,35264
6628,35200
6629,35136
6630,35008
6631,34752
6632,34560
6633,34304
6634,34048
6635,33792
6636,33600
6637,33408
6638,33280
6639,33152
6640,33024
6641,32960
6642,32832
6643,32832
6644,32896
6645,32896
6646,32960
6647,32960
6648,32960
6649,32960
6650,33024
6651,33088
6652,33152
6653,33216
6654,33344
6655,33472
6656,33664
6657,33664
6658,33664
6659,33600
6660,33536
6661,33536
6662,33600
6663,33728
6664,33728
6665,33792
6666,33792
6667,33728
6668,33664
6669,33664
6670,33728
6671,33920
6672,33984
6673,33920
6674,33856
6675,33856
6676,33920
6677,34048
6678,34112
6679,34176
6680,34240
6681,34304
6682,34304
6683,34304
6684,34304
6685,34304
6686,34304
6687,34304
6688,34304
6689,34240
6690,34176
6691,34112
6692,34048
6693,33920
6694,33920
6695,33920
6696,33984
6697,33984
6698,33920
6699,33920
6700,33984
6701,33984
6702,33984
6703,33984
6704,34048
6705,34176
6706,34304
6707,34432
6708,34496
6709,34560
6710,34560
6711,34752
6712,34880
6713,34944
6714,35072
6715,35136
6716,35072
6717,34880
6718,34560
6719,34304
6720,34176
6721,34112
6722,33984
6723,33856
6724,33664
6725,33472
6726,33344
6727,33216
6728,33152
6729,33088
6730,33088
6731,33152
6732,33216
6733,33280
6734,33408
6735,33536
6736,33600
6737,33664
6738,33664
6739,33536
6740,33344
6741,33024
6742,32704
6743,32512
6744,32896
6745,34368
6746,36672
6747,39296
6748,41408
6749,42560
6750,42112
6751,40128
6752,37440
6753,35008
6754,33088
6755,31744
6756,31104
6757,30976
6758,31232
6759,31680
6760,32064
6761,32384
6762,32640
6763,32768
6764,32832
6765,32896
6766,32896
6767,32960
6768,33088
6769,33152
6770,33280
6771,33408
6772,33536
6773,33536
6774,33472
6775,33536
6776,33664
6777,33856
6778,33920
6779,33920
6780,33920
6781,33920
6782,33920
6783,33984
6784,34048
6785,34112
6786,34176
6787,34176
6788,34112
6789,34112
6790,34240
6791,34304
6792,34368
6793,34432
6794,34496
6795,34560
6796,34560
6797,34688
6798,34752
6799,34816
6800,34880
6801,34880
6802,34944
6803,35008
6804,35136
6805,35264
6806,35456
6807,35520
6808,35648
6809,35648
6810,35584
6811,35392
6812,35200
6813,35008
6814,34880
6815,34752
6816,34624
6817,34368
6818,34112
6819,33792
6820,33472
6821,33216
6822,33024
6823,32960
6824,32960
6825,32832
6826,32768
6827,32704
6828,32704
6829,32832
6830,32896
6831,32896
6832,32832
6833,32832
6834,32896
6835,33024
6836,33152
6837,33280
6838,33344
6839,33344
6840,33280
6841,33280
6842,33344
6843,33408
6844,33536
6845,33536
6846,33472
6847,33472
6848,33536
6849,33536
6850,33600
6851,33728
6852,33856
6853,33984
6854,34048
6855,34048
6856,34112
6857,34048
6858,34048
6859,34048
6860,34048
6861,34112
6862,34112
6863,34176
6864,34176
6865,34176
6866,34176
6867,34176
6868,34176
6869,34112
6870,34112
6871,34112
6872,34176
6873,34176
6874,34240
6875,34304
6876,34240
6877,34176
6878,34048
6879,33984
6880,33856
6881,33856
6882,33920
6883,33920
6884,33920
6885,33920
6886,33920
6887,33856
6888,33792
6889,33856
6890,33856
6891,33920
6892,33984
6893,33984
6894,33984
6895,33984
6896,33920
6897,33920
6898,33920
6899,34048
6900,34240
6901,34368
6902,34496
6903,34624
6904,34688
6905,34816
6906,34880
6907,34880
6908,34816
6909,34688
6910,34624
6911,34560
6912,34496
6913,34368
6914,34176
6915,34048
6916,33984
6917,33984
6918,33856
6919,33728
6920,33600
6921,33472
6922,33408
6923,33344
6924,33280
6925,33280
6926,33280
6927,33344
6928,33408
6929,33536
6930,33664
6931,33600
6932,33408
6933,33216
6934,32896
6935,32832
6936,33472
6937,35264
6938,37888
6939,40576
6940,42560
6941,43072
6942,42048
6943,39680
6944,36736
6945,34176
6946,32192
6947,31040
6948,30656
6949,30848
6950,31360
6951,31808
6952,32128
6953,32384
6954,32640
6955,32704
6956,32768
6957,32768
6958,32832
6959,32896
6960,33024
6961,33152
6962,33280
6963,33408
6964,33536
6965,33664
6966,33664
6967,33600
6968,33600
6969,33600
6970,33664
6971,33664
6972,33664
6973,33728
6974,33856
6975,33984
6976,33984
6977,33984
6978,34048
6979,34112
6980,34240
6981,34304
6982,34368
6983,34432
6984,34496
6985,34304
6986,34240
6987,34240
6988,34304
6989,34368
6990,34496
6991,34560
6992,34752
6993,34880
6994,35008
6995,35200
6996,35264
6997,35328
6998,35264
6999,35264
7000,35328
7001,35456
7002,35456
7003,35456
7004,35392
7005,35264
7006,35136
7007,34944
7008,34688
7009,34368
7010,34048
7011,33792
7012,33536
7013,33280
7014,33088
7015,32960
7016,32768
7017,32704
7018,32576
7019,32576
7020,32576
7021,32640
7022,32704
7023,32640
7024,32704
7025,32832
7026,33024
7027,33152
7028,33088
7029,33088
7030,33088
7031,33152
7032,33216
7033,33280
7034,33280
7035,33344
7036,33344
7037,33408
7038,33472
7039,33472
7040,33472
7041,33472
7042,33536
7043,33664
7044,33728
7045,33856
7046,33984
7047,34048
7048,34048
7049,33984
7050,33856
7051,33792
7052,33792
7053,33792
7054,33856
7055,33920
7056,33984
7057,34048
7058,34112
7059,34112
7060,34048
7061,34048
7062,34176
7063,34240
7064,34304
7065,34240
7066,34176
7067,34048
7068,33984
7069,33984
7070,33984
7071,33984
7072,34048
7073,33984
7074,33984
7075,33984
7076,33984
7077,34048
7078,34048
7079,33984
7080,33984
7081,33856
7082,33792
7083,33728
7084,33728
7085,33856
7086,33920
7087,33984
7088,33984
7089,33856
7090,33856
7091,33984
7092,33984
7093,33984
7094,33984
7095,33984
7096,33920
7097,33856
7098,33856
7099,33920
7100,34048
7101,34240
7102,34432
7103,34560
7104,34688
7105,34752
7106,34880
7107,34880
7108,34816
7109,34752
7110,34688
7111,34560
7112,34368
7113,34176
7114,34048
7115,33920
7116,33792
7117,33728
7118,33600
7119,33472
7120,33408
7121,33408
7122,33344
7123,33280
7124,33216
7125,33344
7126,33408
7127,33472
7128,33536
7129,33536
7130,33536
7131,33472
7132,33344
7133,33216
7134,33088
7135,32960
7136,33344
7137,34560
7138,36928
7139,39680
7140,41984
7141,43200
7142,42688
7143,40640
7144,37696
7145,35008
7146,32832
7147,31360
7148,30720
7149,30720
7150,31104
7151,31552
7152,32000
7153,32192
7154,32384
7155,32448
7156,32512
7157,32640
7158,32896
7159,33024
7160,33088
7161,33088
7162,33152
7163,33280
7164,33472
7165,33600
7166,33728
7167,33728
7168,33664
7169,33664
7170,33600
7171,33600
7172,33664
7173,33728
7174,33728
7175,33792
7176,33856
7177,33920
7178,33984
7179,34048
7180,34176
7181,34240
7182,34240
7183,34240
7184,34240
7185,34240
7186,34304
7187,34304
7188,34368
7189,34496
7190,34688
7191,34752
7192,34816
7193,34816
7194,34816
7195,34816
7196,35008
7197,35136
7198,35392
7199,35584
7200,35584
7201,35456
7202,35392
7203,35392
7204,35392
7205,35328
7206,35200
7207,34944
7208,34688
7209,34496
7210,34240
7211,33984
7212,33664
7213,33472
7214,33216
7215,33024
7216,32960
7217,32832
7218,32768
7219,32768
7220,32768
7221,32832
7222,32832
7223,32768
7224,32768
7225,32832
7226,32896
7227,33024
7228,33088
7229,33152
7230,33280
7231,33344
7232,33344
7233,33408
7234,33408
7235,33472
7236,33408
7237,33472
7238,33536
7239,33600
7240,33600
7241,33600
7242,33536
7243,33600
7244,33600
7245,33728
7246,33792
7247,33856
7248,33920
7249,33920
7250,33984
7251,34048
7252,34048
7253,34048
7254,33984
7255,33920
7256,33856
7257,33920
7258,34048
7259,34176
7260,34304
7261,34304
7262,34240
7263,34176
7264,34112
7265,34112
7266,34048
7267,34048
7268,34048
7269,34048
7270,34048
7271,34112
7272,34112
7273,34112
7274,34112
7275,34048
7276,33984
7277,33792
7278,33728
7279,33856
7280,33856
7281,33856
7282,33792
7283,33792
7284,33792
7285,33792
7286,33856
7287,33856
7288,33920
7289,33920
7290,33920
7291,33920
7292,33920
7293,33984
7294,33920
7295,33920
7296,33920
7297,33920
7298,33920
7299,33984
7300,34048
7301,34112
7302,34112
7303,34048
7304,33984
7305,33984
7306,33920
7307,33856
7308,33856
7309,33856
7310,33856
7311,33856
7312,33920
7313,33984
7314,34048
7315,34048
7316,34112
7317,34176
7318,34240
7319,34304
7320,34432
7321,34560
7322,34752
7323,34816
7324,34816
7325,34816
7326,34688
7327,34496
7328,34432
7329,34304
7330,34240
7331,34112
7332,34048
7333,34048
7334,34048
7335,33920
7336,33728
7337,33472
7338,33344
7339,33344
7340,33408
7341,33472
7342,33536
7343,33536
7344,33600
7345,33664
7346,33664
7347,33600
7348,33408
7349,33088
7350,32768
7351,32640
7352,33152
7353,34688
7354,37120
7355,39936
7356,42176
7357,43328
7358,42816
7359,40576
7360,37568
7361,34816
7362,32576
7363,31168
7364,30528
7365,30592
7366,31040
7367,31552
7368,31936
7369,32256
7370,32512
7371,32704
7372,32832
7373,32832
7374,32832
7375,32960
7376,33088
7377,33152
7378,33280
7379,33472
7380,33536
7381,33600
7382,33664
7383,33664
7384,33600
7385,33536
7386,33536
7387,33600
7388,33664
7389,33728
7390,33792
7391,33984
7392,34048
7393,34048
7394,34048
7395,34048
7396,34048
7397,33984
7398,33984
7399,33984
7400,34112
7401,34176
7402,34304
7403,34368
7404,34432
7405,34496
7406,34624
7407,34624
7408,34688
7409,34688
7410,34752
7411,34880
7412,35008
7413,35072
7414,35136
7415,35200
7416,35328
7417,35456
7418,35520
7419,35392
7420,35264
7421,35136
7422,35072
7423,34944
7424,34752
7425,34496
7426,34240
7427,33984
7428,33664
7429,33472
7430,33344
7431,33152
7432,33024
7433,32896
7434,32832
7435,32768
7436,32704
7437,32704
7438,32704
7439,32704
7440,32704
7441,32704
7442,32832
7443,32960
7444,33152
7445,33216
7446,33216
7447,33280
7448,33408
7449,33408
7450,33408
7451,33408
7452,33344
7453,33408
7454,33472
7455,33536
7456,33600
7457,33600
7458,33664
7459,33728
7460,33728
7461,33728
7462,33792
7463,33856
7464,33984
7465,34048
7466,34112
7467,34048
7468,34048
7469,33920
7470,33920
7471,33856
7472,33792
7473,33920
7474,34048
7475,34240
7476,34368
7477,34368
7478,34368
7479,34304
7480,34304
7481,34304
7482,34240
7483,34112
7484,34048
7485,34112
7486,34176
7487,34240
7488,34176
7489,34112
7490,34048
7491,34048
7492,34048
7493,33984
7494,33856
7495,33856
7496,33856
7497,33856
7498,33856
7499,33856
7500,33856
7501,33856
7502,33856
7503,33856
7504,33792
7505,33792
7506,33920
7507,33984
7508,33984
7509,33984
7510,33984
7511,33920
7512,33856
7513,33856
7514,33920
7515,33984
7516,34048
7517,34048
7518,34048
7519,34048
7520,34048
7521,33984
7522,33920
7523,33792
7524,33728
7525,33728
7526,33856
7527,33920
7528,34048
7529,34112
7530,34176
7531,34304
7532,34368
7533,34560
7534,34816
7535,34944
7536,34880
7537,34752
7538,34688
7539,34560
7540,34432
7541,34176
7542,34048
7543,33920
7544,33920
7545,33856
7546,33728
7547,33472
7548,33280
7549,33216
7550,33344
7551,33536
7552,33600
7553,33728
7554,33792
7555,33856
7556,33856
7557,33856
7558,33728
7559,33600
7560,33344
7561,32960
7562,32640
7563,32768
7564,33984
7565,36224
7566,39104
7567,41088
7568,42432
7569,42240
7570,40512
7571,37568
7572,35392
7573,33344
7574,32000
7575,31232
7576,30912
7577,31104
7578,31488
7579,31936
7580,32320
7581,32448
7582,32576
7583,32768
7584,32960
7585,33152
7586,33280
7587,33280
7588,33344
7589,33408
7590,33472
7591,33472
7592,33600
7593,33664
7594,33664
7595,33664
7596,33664
7597,33664
7598,33728
7599,33792
7600,33856
7601,33984
7602,33984
7603,33984
7604,33920
7605,33920
7606,34048
7607,34112
7608,34112
7609,34112
7610,34048
7611,34112
7612,34240
7613,34368
7614,34496
7615,34560
7616,34624
7617,34624
7618,34624
7619,34624
7620,34688
7621,34816
7622,34880
7623,34944
7624,35008
7625,35072
7626,35072
7627,35072
7628,35136
7629,35136
7630,35072
7631,35008
7632,35008
7633,35008
7634,34944
7635,34752
7636,34560
7637,34304
7638,34112
7639,33856
7640,33600
7641,33344
7642,33152
7643,32960
7644,32832
7645,32768
7646,32768
7647,32768
7648,32768
7649,32832
7650,32896
7651,32960
7652,33024
7653,33024
7654,32960
7655,32960
7656,33152
7657,33344
7658,33408
7659,33472
7660,33536
7661,33600
7662,33600
7663,33600
7664,33472
7665,33408
7666,33344
7667,33408
7668,33600
7669,33728
7670,33792
7671,33792
7672,33792
7673,33728
7674,33792
7675,33792
7676,33984
7677,33984
7678,34048
7679,34048
7680,34048
7681,34112
7682,34176
7683,34240
7684,34240
7685,34304
7686,34240
7687,34240
7688,34240
7689,34240
7690,34240
7691,34176
7692,34112
7693,34048
7694,33984
7695,33920
7696,33792
7697,33856
7698,33856
7699,33920
7700,33856
7701,33856
7702,33856
7703,33920
7704,34048
7705,33984
7706,33984
7707,33984
7708,33984
7709,33984
7710,33984
7711,33984
7712,33920
7713,33856
7714,33856
7715,33792
7716,33728
7717,33728
7718,33792
7719,33856
7720,33920
7721,33920
7722,33920
7723,33920
7724,33920
7725,33920
7726,33920
7727,33920
7728,33792
7729,33792
7730,33856
7731,33984
7732,34112
7733,34240
7734,34368
7735,34496
7736,34496
7737,34560
7738,34624
7739,34624
7740,34560
7741,34496
7742,34432
7743,34368
7744,34304
7745,34176
7746,34112
7747,33984
7748,33920
7749,33792
7750,33728
7751,33600
7752,33536
7753,33472
7754,33408
7755,33408
7756,33472
7757,33472
7758,33536
7759,33600
7760,33600
7761,33536
7762,33472
7763,33280
7764,32960
7765,32704
7766,32832
7767,33856
7768,35904
7769,38592
7770,41152
7771,42752
7772,43008
7773,41536
7774,38784
7775,35840
7776,33344
7777,31808
7778,30912
7779,30656
7780,30976
7781,31424
7782,31808
7783,32192
7784,32448
7785,32576
7786,32640
7787,32704
7788,32768
7789,32896
7790,33024
7791,33088
7792,33280
7793,33408
7794,33472
7795,33472
7796,33472
7797,33536
7798,33536
7799,33536
7800,33600
7801,33664
7802,33792
7803,33856
7804,33856
7805,33856
7806,33856
7807,33920
7808,33984
7809,34048
7810,34048
7811,33984
7812,33984
7813,33984
7814,34112
7815,34176
7816,34240
7817,34304
7818,34368
7819,34432
7820,34496
7821,34560
7822,34688
7823,34752
7824,34816
7825,34880
7826,34944
7827,35072
7828,35136
7829,35200
7830,35200
7831,35264
7832,35264
7833,35328
7834,35392
7835,35456
7836,35328
7837,35136
7838,34816
7839,34496
7840,34240
7841,33984
7842,33792
7843,33600
7844,33408
7845,33216
7846,33024
7847,32832
7848,32768
7849,32640
7850,32640
7851,32640
7852,32704
7853,32832
7854,32832
7855,32832
7856,32896
7857,32960
7858,33024
7859,33088
7860,33152
7861,33216
7862,33280
7863,33280
7864,33280
7865,33280
7866,33280
7867,33216
7868,33280
7869,33344
7870,33472
7871,33600
7872,33728
7873,33792
7874,33792
7875,33792
7876,33792
7877,33792
7878,33792
7879,33920
7880,33984
7881,34112
7882,34176
7883,34240
7884,34176
7885,34112
7886,33984
7887,33856
7888,33856
7889,33984
7890,34176
7891,34176
7892,34176
7893,34112
7894,34112
7895,34176
7896,34176
7897,34176
7898,34112
7899,34048
7900,33984
7901,34048
7902,34048
7903,33984
7904,33984
7905,33984
7906,33920
7907,33856
7908,33792
7909,33856
7910,33920
7911,33984
7912,33984
7913,33920
7914,33792
7915,33856
7916,33920
7917,33920
7918,33920
7919,33920
7920,33984
7921,33984
7922,33920
7923,33920
7924,33856
7925,33856
7926,33856
7927,33920
7928,33984
7929,33984
7930,33920
7931,33920
7932,33984
7933,33984
7934,34048
7935,34048
7936,33984
7937,33984
7938,33984
7939,33984
7940,34048
7941,34048
7942,34048
7943,33984
7944,33984
7945,34048
7946,34112
7947,34240
7948,34368
7949,34496
7950,34688
7951,34816
7952,34880
7953,34816
7954,34688
7955,34560
7956,34368
7957,34176
7958,34112
7959,34112
7960,34176
7961,34112
7962,34048
7963,33920
7964,33792
7965,33472
7966,33280
7967,33216
7968,33344
7969,33472
7970,33536
7971,33600
7972,33664
7973,33664
7974,33664
7975,33600
7976,33408
7977,33152
7978,32960
7979,32896
7980,33536
7981,35136
7982,37568
7983,40192
7984,42240
7985,43200
7986,42368
7987,40192
7988,37184
7989,34496
7990,32384
7991,31104
7992,30656
7993,30784
7994,31168
7995,31488
7996,31744
7997,32128
7998,32448
7999,32640
8000,32768
8001,32896
8002,33088
8003,33216
8004,33280
8005,33408
8006,33408
8007,33408
8008,33408
8009,33472
8010,33472
8011,33408
8012,33472
8013,33536
8014,33600
8015,33664
8016,33728
8017,33728
8018,33792
8019,33792
8020,33792
8021,33856
8022,33920
8023,34048
8024,34176
8025,34240
8026,34240
8027,34240
8028,34240
8029,34240
8030,34240
8031,34304
8032,34368
8033,34432
8034,34560
8035,34688
8036,34688
8037,34752
8038,34880
8039,34944
8040,35008
8041,35136
8042,35200
8043,35264
8044,35328
8045,35392
8046,35392
8047,35392
8048,35328
8049,35264
8050,35072
8051,34880
8052,34688
8053,34496
8054,34240
8055,33920
8056,33600
8057,33408
8058,33280
8059,33152
8060,33024
8061,32896
8062,32896
8063,32832
8064,32768
8065,32640
8066,32576
8067,32704
8068,32832
8069,32896
8070,32896
8071,32896
8072,32960
8073,33024
8074,33024
8075,33088
8076,33152
8077,33216
8078,33280
8079,33344
8080,33408
8081,33472
8082,33536
8083,33600
8084,33600
8085,33600
8086,33600
8087,33600
8088,33600
8089,33664
8090,33728
8091,33728
8092,33792
8093,33792
8094,33856
8095,33856
8096,33856
8097,33792
8098,33856
8099,33856
8100,33856
8101,33856
8102,33856
8103,33920
8104,33984
8105,34048
8106,34048
8107,34048
8108,34112
8109,34176
8110,34048
8111,33920
8112,33856
8113,33856
8114,33856
8115,33856
8116,33856
8117,33856
8118,33856
8119,33856
8120,33792
8121,33792
8122,33792
8123,33792
8124,33792
8125,33792
8126,33792
8127,33856
8128,33856
8129,33792
8130,33792
8131,33728
8132,33728
8133,33728
8134,33664
8135,33664
8136,33664
8137,33728
8138,33664
8139,33600
8140,33600
8141,33600
8142,33600
8143,33664
8144,33728
8145,33792
8146,33792
8147,33792
8148,33856
8149,33920
8150,33984
8151,33920
8152,33920
8153,33920
8154,33856
8155,33728
8156,33728
8157,33728
8158,33792
8159,33920
8160,34112
8161,34112
8162,34048
8163,33984
8164,33856
8165,33856
8166,33920
8167,33984
8168,34112
8169,34176
8170,34176
8171,34240
8172,34368
8173,34560
8174,34816
8175,34880
8176,34944
8177,34880
8178,34752
8179,34560
8180,34368
8181,34176
8182,34112
8183,34048
8184,34048
8185,33984
8186,33856
8187,33792
8188,33664
8189,33472
8190,33344
8191,33344
8192,33280
8193,33280
8194,33344
8195,33408
8196,33472
8197,33600
8198,33664
8199,33600
8200,33280
8201,32960
8202,32896
8203,33472
8204,35008
8205,37568
8206,40256
8207,42432
8208,43328
8209,42496
8210,40256
8211,37312
8212,34624
8213,32512
8214,31168
8215,30592
8216,30720
8217,31104
8218,31552
8219,32000
8220,32256
8221,32512
8222,32640
8223,32832
8224,32896
8225,32960
8226,33024
8227,33024
8228,33088
8229,33152
8230,33280
8231,33408
8232,33472
8233,33472
8234,33472
8235,33600
8236,33664
8237,33728
8238,33728
8239,33728
8240,33664
8241,33664
8242,33728
8243,33856
8244,33984
8245,34048
8246,34112
8247,34112
8248,34176
8249,34176
8250,34176
8251,34176
8252,34176
8253,34112
8254,34112
8255,34176
8256,34304
8257,34432
8258,34624
8259,34752
8260,34880
8261,35008
8262,35008
8263,35008
8264,35008
8265,35072
8266,35136
8267,35200
8268,35328
8269,35328
8270,35392
8271,35392
8272,35328
8273,35136
8274,34944
8275,34752
8276,34624
8277,34432
8278,33856
8279,33600
8280,33344
8281,33152
8282,32960
8283,32832
8284,32704
8285,32640
8286,32640
8287,32640
8288,32640
8289,32704
8290,32832
8291,32896
8292,33024
8293,33088
8294,33088
8295,33088
8296,32960
8297,32896
8298,33024
8299,33216
8300,33152
8301,33408
8302,33536
8303,33472
8304,33408
8305,33472
8306,33536
8307,33600
8308,33600
8309,33664
8310,33664
8311,33728
8312,33792
8313,33728
8314,33728
8315,33728
8316,33856
8317,33920
8318,33984
8319,33984
8320,33984
8321,33984
8322,34048
8323,34176
8324,34112
8325,34112
8326,34048
8327,33984
8328,34048
8329,34112
8330,34176
8331,34112
8332,34176
8333,34176
8334,34176
8335,34112
8336,34112
8337,34048
8338,34048
8339,33920
8340,33856
8341,33856
8342,33856
8343,33792
8344,33856
8345,33856
8346,33856
8347,33856
8348,33856
8349,33920
8350,33984
8351,33984
8352,33920
8353,33856
8354,33792
8355,33856
8356,33920
8357,33984
8358,34048
8359,34048
8360,33984
8361,33920
8362,33920
8363,33920
8364,33920
8365,33920
8366,33920
8367,33984
8368,33984
8369,33984
8370,33984
8371,33984
8372,33920
8373,33856
8374,33728
8375,33792
8376,33856
8377,33920
8378,33984
8379,34048
8380,34048
8381,33984
8382,33984
8383,33984
8384,34048
8385,34112
8386,34240
8387,34304
8388,34496
8389,34624
8390,34816
8391,34816
8392,34688
8393,34496
8394,34368
8395,34240
8396,34176
8397,34112
8398,34112
8399,33984
8400,33920
8401,33856
8402,33728
8403,33600
8404,33536
8405,33472
8406,33408
8407,33344
8408,33280
8409,33408
8410,33536
8411,33600
8412,33664
8413,33664
8414,33536
8415,33280
8416,32960
8417,32768
8418,32960
8419,34176
8420,36416
8421,39040
8422,41216
8423,42496
8424,42240
8425,40448
8426,37696
8427,35328
8428,33344
8429,31936
8430,31168
8431,30912
8432,31104
8433,31616
8434,32064
8435,32384
8436,32576
8437,32704
8438,32832
8439,32960
8440,33024
8441,33088
8442,33152
8443,33280
8444,33344
8445,33344
8446,33408
8447,33472
8448,33536
8449,33664
8450,33792
8451,33920
8452,33984
8453,33984
8454,33920
8455,33920
8456,33920
8457,33856
8458,33856
8459,33920
8460,33984
8461,34112
8462,34176
8463,34112
8464,34048
8465,34048
8466,34112
8467,34176
8468,34240
8469,34304
8470,34432
8471,34496
8472,34560
8473,34624
8474,34624
8475,34688
8476,34752
8477,34880
8478,35008
8479,35136
8480,35264
8481,35264
8482,35136
8483,35072
8484,35072
8485,35136
8486,35200
8487,35264
8488,35264
8489,35136
8490,34880
8491,34624
8492,34304
8493,33920
8494,33728
8495,33600
8496,33408
8497,33280
8498,33088
8499,32896
8500,32832
8501,32832
8502,32896
8503,32896
8504,32896
8505,32960
8506,32960
8507,32896
8508,32896
8509,32960
8510,33024
8511,33024
8512,33152
8513,33280
8514,33408
8515,33472
8516,33536
8517,33536
8518,33536
8519,33536
8520,33536
8521,33536
8522,33600
8523,33664
8524,33728
8525,33728
8526,33664
8527,33664
8528,33728
8529,33920
8530,34048
8531,34048
8532,33984
8533,33984
8534,34048
8535,34048
8536,34112
8537,34112
8538,34112
8539,34112
8540,34112
8541,34112
8542,34112
8543,34176
8544,34176
8545,34176
8546,34176
8547,34112
8548,33984
8549,33984
8550,33984
8551,33984
8552,33984
8553,33920
8554,33856
8555,33856
8556,33792
8557,33792
8558,33920
8559,33984
8560,34112
8561,34112
8562,34048
8563,33984
8564,33984
8565,33984
8566,33984
8567,33920
8568,33920
8569,33920
8570,33920
8571,33856
8572,33856
8573,33856
8574,33856
8575,33856
8576,33856
8577,33856
8578,33856
8579,33920
8580,33984
8581,33984
8582,34112
8583,34112
8584,34112
8585,34176
8586,34240
8587,34304
8588,34496
8589,34688
8590,34880
8591,34880
8592,34752
8593,34688
8594,34560
8595,34432
8596,34304
8597,34112
8598,33984
8599,33920
8600,33920
8601,33920
8602,33856
8603,33728
8604,33536
8605,33408
8606,33280
8607,33280
8608,33344
8609,33408
8610,33536
8611,33536
8612,33600
8613,33600
8614,33536
8615,33280
8616,32960
8617,32704
8618,32896
8619,33920
8620,35968
8621,38656
8622,41088
8623,42688
8624,42944
8625,41600
8626,39040
8627,36224
8628,33792
8629,32064
8630,31040
8631,30784
8632,30976
8633,31360
8634,31872
8635,32256
8636,32448
8637,32576
8638,32640
8639,32704
8640,32768
8641,32896
8642,33024
8643,33088
8644,33216
8645,33344
8646,33536
8647,33664
8648,33664
8649,33664
8650,33728
8651,33792
8652,33792
8653,33792
8654,33856
8655,33920
8656,33920
8657,33856
8658,33856
8659,33920
8660,33984
8661,33920
8662,33984
8663,34112
8664,34176
8665,34240
8666,34240
8667,34240
8668,34240
8669,34240
8670,34304
8671,34432
8672,34496
8673,34560
8674,34624
8675,34688
8676,34816
8677,34944
8678,35008
8679,35136
8680,35136
8681,35200
8682,35264
8683,35328
8684,35392
8685,35456
8686,35456
8687,35328
8688,35264
8689,35072
8690,34880
8691,34624
8692,34368
8693,34112
8694,33792
8695,33536
8696,33344
8697,33152
8698,32960
8699,32832
8700,32768
8701,32768
8702,32704
8703,32640
8704,32640
8705,32704
8706,32704
8707,32704
8708,32704
8709,32832
8710,32960
8711,33088
8712,33152
8713,33216
8714,33216
8715,33152
8716,33216
8717,33280
8718,33344
8719,33408
8720,33472
8721,33600
8722,33664
8723,33600
8724,33536
8725,33536
8726,33664
8727,33792
8728,33856
8729,33920
8730,33920
8731,33856
8732,33856
8733,33856
8734,33920
8735,33856
8736,33856
8737,33920
8738,33920
8739,33920
8740,33984
8741,34112
8742,34176
8743,34176
8744,34240
8745,34176
8746,34176
8747,34176
8748,34176
8749,34112
8750,34112
8751,34112
8752,34112
8753,34112
8754,34112
8755,34048
8756,34048
8757,34048
8758,33984
8759,33920
8760,33920
8761,33920
8762,33920
8763,33920
8764,33920
8765,33856
8766,33920
8767,33920
8768,33920
8769,33984
8770,33984
8771,33920
8772,33920
8773,33920
8774,33920
8775,33856
8776,33920
8777,33920
8778,33920
8779,33920
8780,33920
8781,33856
8782,33856
8783,33856
8784,33856
8785,33920
8786,33920
8787,34048
8788,34048
8789,34048
8790,34048
8791,33984
8792,33984
8793,34048
8794,34112
8795,34112
8796,34176
8797,34304
8798,34368
8799,34496
8800,34624
8801,34752
8802,34816
8803,34752
8804,34624
8805,34496
8806,34432
8807,34304
8808,34112
8809,34048
8810,34048
8811,34048
8812,34048
8813,33984
8814,33792
8815,33664
8816,33536
8817,33472
8818,33472
8819,33408
8820,33408
8821,33344
8822,33408
8823,33600
8824,33664
8825,33664
8826,33536
8827,33280
8828,32960
8829,32832
8830,33344
8831,34944
8832,37376
8833,40128
8834,42368
8835,43328
8836,42624
8837,40448
8838,37504
8839,34816
8840,32768
8841,31424
8842,30848
8843,30848
8844,31104
8845,31424
8846,31744
8847,32064
8848,32320
8849,32512
8850,32640
8851,32768
8852,32896
8853,33024
8854,33088
8855,33216
8856,33216
8857,33280
8858,33344
8859,33408
8860,33472
8861,33600
8862,33664
8863,33664
8864,33664
8865,33664
8866,33728
8867,33792
8868,33856
8869,33856
8870,33792
8871,33792
8872,33920
8873,33984
8874,34048
8875,34112
8876,34240
8877,34304
8878,34240
8879,34176
8880,34112
8881,34176
8882,34240
8883,34368
8884,34496
8885,34624
8886,34752
8887,34816
8888,34944
8889,35072
8890,35136
8891,35200
8892,35264
8893,35328
8894,35392
8895,35392
8896,35328
8897,35328
8898,35328
8899,35328
8900,35264
8901,35136
8902,34944
8903,34624
8904,34368
8905,34048
8906,33728
8907,33472
8908,33280
8909,33088
8910,32896
8911,32768
8912,32704
8913,32640
8914,32640
8915,32640
8916,32640
8917,32640
8918,32640
8919,32704
8920,32832
8921,32960
8922,33088
8923,33216
8924,33344
8925,33408
8926,33408
8927,33344
8928,33344
8929,33280
8930,33280
8931,33280
8932,33344
8933,33472
8934,33536
8935,33600
8936,33664
8937,33664
8938,33728
8939,33792
8940,33792
8941,33728
8942,33792
8943,33856
8944,33856
8945,33920
8946,33984
8947,34048
8948,34112
8949,34176
8950,34240
8951,34304
8952,34304
8953,34240
8954,34176
8955,34112
8956,33984
8957,33920
8958,33920
8959,33984
8960,34048
8961,34112
8962,34112
8963,34176
8964,34240
8965,34240
8966,34240
8967,34240
8968,34240
8969,34176
8970,34048
8971,33984
8972,33984
8973,33920
8974,33856
8975,33856
8976,33856
8977,33920
8978,33920
8979,33920
8980,33920
8981,33920
8982,33984
8983,33984
8984,33920
8985,33984
8986,34176
8987,34304
8988,34304
8989,34176
8990,34048
8991,33984
8992,34048
8993,34048
8994,34048
8995,34048
8996,33984
8997,33920
8998,33984
8999,34048
9000,34112
9001,34176
9002,34112
9003,33984
9004,33920
9005,33920
9006,33984
9007,33984
9008,33984
9009,33984
9010,34048
9011,34048
9012,34048
9013,34048
9014,34048
9015,34112
9016,34176
9017,34304
9018,34368
9019,34496
9020,34624
9021,34752
9022,34944
9023,35072
9024,35008
9025,34880
9026,34688
9027,34560
9028,34496
9029,34432
9030,34176
9031,33984
9032,33856
9033,33792
9034,33728
9035,33792
9036,33728
9037,33664
9038,33472
9039,33344
9040,33408
9041,33472
9042,33664
9043,33792
9044,33856
9045,33920
9046,33856
9047,33728
9048,33536
9049,33280
9050,33088
9051,33344
9052,34624
9053,36864
9054,39552
9055,41920
9056,43200
9057,42880
9058,40896
9059,38016
9060,35264
9061,33024
9062,31552
9063,30784
9064,30720
9065,31104
9066,31552
9067,31936
9068,32256
9069,32512
9070,32640
9071,32768
9072,32896
9073,33024
9074,33152
9075,33216
9076,33280
9077,33280
9078,33280
9079,33344
9080,33472
9081,33536
9082,33664
9083,33792
9084,33856
9085,33856
9086,33920
9087,33920
9088,33920
9089,33856
9090,33792
9091,33792
9092,33984
9093,34048
9094,34176
9095,34176
9096,34176
9097,34176
9098,34240
9099,34304
9100,34304
9101,34368
9102,34432
9103,34432
9104,34496
9105,34560
9106,34624
9107,34752
9108,34816
9109,34880
9110,34944
9111,35072
9112,35072
9113,35136
9114,35136
9115,35264
9116,35520
9117,35584
9118,35648
9119,35584
9120,35456
9121,35328
9122,35200
9123,35008
9124,34752
9125,34624
9126,34432
9127,34112
9128,33792
9129,33408
9130,33152
9131,32896
9132,32832
9133,32832
9134,32832
9135,32768
9136,32768
9137,32832
9138,32896
9139,32832
9140,32832
9141,32832
9142,32960
9143,33024
9144,33088
9145,33152
9146,33216
9147,33408
9148,33536
9149,33536
9150,33408
9151,33280
9152,33344
9153,33536
9154,33728
9155,33856
9156,33920
9157,33920
9158,33856
9159,33856
9160,33920
9161,33984
9162,33984
9163,33984
9164,33984
9165,33920
9166,33920
9167,34048
9168,34176
9169,34240
9170,34240
9171,34176
9172,34176
9173,34240
9174,34304
9175,34368
9176,34304
9177,34240
9178,34176
9179,34176
9180,34240
9181,34240
9182,34240
9183,34176
9184,34112
9185,34176
9186,34176
9187,34176
9188,34176
9189,34176
9190,34176
9191,34176
9192,34176
9193,34176
9194,34176
9195,34112
9196,34048
9197,34048
9198,34112
9199,34176
9200,34112
9201,34048
9202,33920
9203,33856
9204,33856
9205,33856
9206,33920
9207,33984
9208,34048
9209,34112
9210,34112
9211,34048
9212,33984
9213,33920
9214,33920
9215,34048
9216,34048
9217,33984
9218,33984
9219,33984
9220,33984
9221,34048
9222,34176
9223,34304
9224,34304
9225,34176
9226,34048
9227,33920
9228,33920
9229,33984
9230,34112
9231,34176
9232,34240
9233,34368
9234,34560
9235,34752
9236,34880
9237,34880
9238,34816
9239,34752
9240,34688
9241,34624
9242,34496
9243,34432
9244,34368
9245,34368
9246,34304
9247,34176
9248,33984
9249,33728
9250,33600
9251,33664
9252,33664
9253,33728
9254,33664
9255,33536
9256,33472
9257,33536
9258,33600
9259,33664
9260,33664
9261,33472
9262,33152
9263,32896
9264,32832
9265,33472
9266,35200
9267,37760
9268,40192
9269,41984
9270,42624
9271,41664
9272,39424
9273,36800
9274,34560
9275,32896
9276,31744
9277,31168
9278,31104
9279,31360
9280,31808
9281,32320
9282,32512
9283,32704
9284,32896
9285,32960
9286,33088
9287,33152
9288,33280
9289,33408
9290,33536
9291,33600
9292,33664
9293,33600
9294,33600
9295,33600
9296,33792
9297,33856
9298,33920
9299,34048
9300,34048
9301,33984
9302,33920
9303,33856
9304,33856
9305,33920
9306,34048
9307,34112
9308,34176
9309,34240
9310,34304
9311,34240
9312,34240
9313,34304
9314,34368
9315,34432
9316,34432
9317,34432
9318,34432
9319,34496
9320,34624
9321,34752
9322,34880
9323,34944
9324,34944
9325,35008
9326,35200
9327,35264
9328,35392
9329,35392
9330,35328
9331,35328
9332,35328
9333,35264
9334,35200
9335,35136
9336,35008
9337,34752
9338,34496
9339,34176
9340,33920
9341,33728
9342,33600
9343,33408
9344,33152
9345,32960
9346,32832
9347,32768
9348,32832
9349,32896
9350,33024
9351,33024
9352,32960
9353,33024
9354,33088
9355,33216
9356,33280
9357,33280
9358,33344
9359,33344
9360,33280
9361,33216
9362,33280
9363,33344
9364,33408
9365,33408
9366,33408
9367,33408
9368,33408
9369,33472
9370,33600
9371,33728
9372,33728
9373,33856
9374,33984
9375,33984
9376,33984
9377,33920
9378,33984
9379,33984
9380,33984
9381,34048
9382,34112
9383,34304
9384,34432
9385,34368
9386,34304
9387,34240
9388,34240
9389,34240
9390,34240
9391,34176
9392,34176
9393,34176
9394,34112
9395,34112
9396,34112
9397,34112
9398,34048
9399,33984
9400,33984
9401,34112
9402,34112
9403,34112
9404,34048
9405,34048
9406,34048
9407,34048
9408,34048
9409,33984
9410,33984
9411,33984
9412,34048
9413,33984
9414,33984
9415,33984
9416,34048
9417,33984
9418,33984
9419,33920
9420,33920
9421,33984
9422,34112
9423,34112
9424,34176
9425,34240
9426,34240
9427,34240
9428,34304
9429,34368
9430,34496
9431,34752
9432,34816
9433,34752
9434,34560
9435,34368
9436,34240
9437,34240
9438,34240
9439,34240
9440,34176
9441,34112
9442,34048
9443,34048
9444,33984
9445,33856
9446,33664
9447,33600
9448,33600
9449,33600
9450,33600
9451,33536
9452,33600
9453,33728
9454,33728
9455,33664
9456,33600
9457,33408
9458,33088
9459,32896
9460,32896
9461,33600
9462,35264
9463,37696
9464,40128
9465,41920
9466,42624
9467,41664
9468,39552
9469,36864
9470,34624
9471,32832
9472,31616
9473,31040
9474,31040
9475,31360
9476,32128
9477,32384
9478,32704
9479,32832
9480,32960
9481,33024
9482,33088
9483,33152
9484,33152
9485,33216
9486,33216
9487,33280
9488,33344
9489,33408
9490,33472
9491,33600
9492,33664
9493,33728
9494,33792
9495,33792
9496,33856
9497,33920
9498,33984
9499,34048
9500,34112
9501,34112
9502,34176
9503,34240
9504,34304
9505,34304
9506,34240
9507,34240
9508,34240
9509,34304
9510,34368
9511,34496
9512,34496
9513,34496
9514,34496
9515,34496
9516,34624
9517,34752
9518,34880
9519,35072
9520,35200
9521,35328
9522,35456
9523,35520
9524,35520
9525,35520
9526,35584
9527,35648
9528,35648
9529,35520
9530,35328
9531,35136
9532,34880
9533,34688
9534,34368
9535,34176
9536,33856
9537,33664
9538,33408
9539,33216
9540,33088
9541,32960
9542,32896
9543,32832
9544,32832
9545,32896
9546,32960
9547,32960
9548,32960
9549,32896
9550,32896
9551,32960
9552,32960
9553,33024
9554,33152
9555,33280
9556,33408
9557,33472
9558,33536
9559,33536
9560,33408
9561,33408
9562,33344
9563,33472
9564,33600
9565,33664
9566,33792
9567,33792
9568,33856
9569,33856
9570,33792
9571,33856
9572,33856
9573,33856
9574,33920
9575,33984
9576,33984
9577,34048
9578,34048
9579,33984
9580,34048
9581,34048
9582,34112
9583,34112
9584,34112
9585,34112
9586,34176
9587,34240
9588,34304
9589,34304
9590,34240
9591,34176
9592,34176
9593,34240
9594,34240
9595,34240
9596,34176
9597,34112
9598,34112
9599,34176
9600,34176
9601,34176
9602,34112
9603,34048
9604,34048
9605,34048
9606,34048
9607,33984
9608,33920
9609,33920
9610,33984
9611,33984
9612,34048
9613,34048
9614,34048
9615,33984
9616,33984
9617,33920
9618,33920
9619,33856
9620,33856
9621,33856
9622,33920
9623,33920
9624,33984
9625,34048
9626,34112
9627,34112
9628,34048
9629,33984
9630,33984
9631,33984
9632,33984
9633,33984
9634,33984
9635,33920
9636,33984
9637,33984
9638,33984
9639,33920
9640,33920
9641,34048
9642,34112
9643,34240
9644,34368
9645,34432
9646,34496
9647,34560
9648,34624
9649,34688
9650,34816
9651,34816
9652,34752
9653,34624
9654,34496
9655,34368
9656,34240
9657,34112
9658,34112
9659,34048
9660,33920
9661,33664
9662,33408
9663,33344
9664,33344
9665,33408
9666,33600
9667,33664
9668,33728
9669,33728
9670,33728
9671,33792
9672,33728
9673,33664
9674,33536
9675,33280
9676,33024
9677,33024
9678,33728
9679,35456
9680,38080
9681,40704
9682,42688
9683,43328
9684,42304
9685,39808
9686,36800
9687,34240
9688,32320
9689,31168
9690,30720
9691,30784
9692,31168
9693,31616
9694,31936
9695,32128
9696,32256
9697,32384
9698,32576
9699,32768
9700,32896
9701,33024
9702,33216
9703,33344
9704,33472
9705,33600
9706,33664
9707,33728
9708,33728
9709,33664
9710,33600
9711,33664
9712,33664
9713,33728
9714,33792
9715,33792
9716,33856
9717,33920
9718,33984
9719,34048
9720,34048
9721,34112
9722,34240
9723,34304
9724,34240
9725,34112
9726,34112
9727,34176
9728,34176
9729,34240
9730,34240
9731,34368
9732,34496
9733,34688
9734,34816
9735,34880
9736,34880
9737,34944
9738,35072
9739,35200
9740,35392
9741,35456
9742,35456
9743,35584
9744,35648
9745,35648
9746,35584
9747,35520
9748,35392
9749,35200
9750,35008
9751,34752
9752,34368
9753,34048
9754,33792
9755,33600
9756,33408
9757,33216
9758,33088
9759,32896
9760,32768
9761,32704
9762,32768
9763,32832
9764,32832
9765,32832
9766,32832
9767,32832
9768,32832
9769,32896
9770,33024
9771,33088
9772,33152
9773,33216
9774,33344
9775,33408
9776,33472
9777,33536
9778,33600
9779,33664
9780,33728
9781,33792
9782,33792
9783,33664
9784,33600
9785,33600
9786,33664
9787,33728
9788,33728
9789,33728
9790,33792
9791,33920
9792,34048
9793,34112
9794,34112
9795,34048
9796,34048
9797,34048
9798,34048
9799,34048
9800,34176
9801,34304
9802,34240
9803,34240
9804,34176
9805,34112
9806,33984
9807,34048
9808,34176
9809,34240
9810,34176
9811,34112
9812,34112
9813,34112
9814,34048
9815,34048
9816,34048
9817,34112
9818,34176
9819,34240
9820,34304
9821,34240
9822,34112
9823,34048
9824,34048
9825,33984
9826,33792
9827,33792
9828,33856
9829,33856
9830,33856
9831,33920
9832,33920
9833,33984
9834,33920
9835,33984
9836,34048
9837,34048
9838,34048
9839,34048
9840,34048
9841,34048
9842,34048
9843,33984
9844,33984
9845,33984
9846,33984
9847,33984
9848,33984
9849,33984
9850,34048
9851,34048
9852,34112
9853,34112
9854,34112
9855,34048
9856,34048
9857,34112
9858,34176
9859,34176
9860,34176
9861,34112
9862,34048
9863,33984
9864,33984
9865,33984
9866,33984
9867,34048
9868,34176
9869,34240
9870,34304
9871,34304
9872,34368
9873,34432
9874,34560
9875,34752
9876,34944
9877,34944
9878,34944
9879,34880
9880,34752
9881,34560
9882,34368
9883,34240
9884,34112
9885,34048
9886,34048
9887,34048
9888,33920
9889,33728
9890,33536
9891,33472
9892,33408
9893,33408
9894,33472
9895,33536
9896,33600
9897,33664
9898,33728
9899,33728
9900,33664
9901,33472
9902,33152
9903,33088
9904,33664
9905,35264
9906,37888
9907,40448
9908,42496
9909,43392
9910,42560
9911,40320
9912,37376
9913,34560
9914,32384
9915,31040
9916,30528
9917,30656
9918,31104
9919,31616
9920,32064
9921,32384
9922,32576
9923,32704
9924,32832
9925,32960
9926,33024
9927,33088
9928,33152
9929,33280
9930,33408
9931,33536
9932,33600
9933,33600
9934,33664
9935,33728
9936,33664
9937,33664
9938,33728
9939,33728
9940,33792
9941,33856
9942,33920
9943,33984
9944,34048
9945,34048
9946,34048
9947,34048
9948,34048
9949,34048
9950,34112
9951,34240
9952,34368
9953,34432
9954,34496
9955,34496
9956,34560
9957,34624
9958,34688
9959,34816
9960,34880
9961,34816
9962,34816
9963,34880
9964,35008
9965,35200
9966,35392
9967,35456
9968,35520
9969,35584
9970,35648
9971,35712
9972,35776
9973,35712
9974,35648
9975,35456
9976,35200
9977,34944
9978,34688
9979,34496
9980,34304
9981,34048
9982,33728
9983,33472
9984,33280
9985,33024
9986,32896
9987,32768
9988,32640
9989,32640
9990,32704
9991,32832
9992,32960
9993,33024
9994,33088
9995,33216
9996,33280
9997,33344
9998,33472
9999,33600
10000,33728
10001,33792
10002,33792
10003,33792
10004,33792
10005,33728
10006,33728
10007,33664
10008,33728
10009,33728
10010,33728
10011,33856
10012,33984
10013,33984
10014,33984
10015,33984
10016,33984
10017,34048
10018,34112
10019,34112
10020,34176
10021,34304
10022,34368
10023,34432
10024,34368
10025,34432
10026,34496
10027,34432
10028,34304
10029,34304
10030,34432
10031,34496
10032,34496
10033,34496
10034,34560
10035,34560
10036,34560
10037,34560
10038,34496
10039,34496
10040,34432
10041,34432
10042,34496
10043,34496
10044,34496
10045,34432
10046,34368
10047,34304
10048,34304
10049,34304
10050,34240
10051,34176
10052,34240
10053,34304
10054,34368
10055,34368
10056,34368
10057,34304
10058,34304
10059,34240
10060,34240
10061,34240
10062,34304
10063,34368
10064,34368
10065,34368
10066,34368
10067,34368
10068,34368
10069,34368
10070,34368
10071,34304
10072,34304
10073,34368
10074,34432
10075,34432
10076,34304
10077,34240
10078,34240
10079,34240
10080,34240
10081,34240
10082,34240
10083,34240
10084,34240
10085,34304
10086,34368
10087,34368
10088,34368
10089,34368
10090,34304
10091,34368
10092,34368
10093,34368
10094,34368
10095,34304
10096,34304
10097,34240
10098,34496
10099,34624
10100,34688
10101,34688
10102,34624
10103,34688
10104,34816
10105,34944
10106,35072
10107,35072
10108,35072
10109,35008
10110,34944
10111,34752
10112,34624
10113,34496
10114,34432
10115,34432
10116,34432
10117,34368
10118,34176
10119,34112
10120,34048
10121,33984
10122,33856
10123,33792
10124,33856
10125,33920
10126,33984
10127,34112
10128,34048
10129,34112
10130,33984
10131,33664
10132,33280
10133,33216
10134,33984
10135,35840
10136,38464
10137,38720
10138,40896
10139,42944
10140,41984
10141,39744
10142,37056
10143,34816
10144,33024
10145,31872
10146,31360
10147,31296
10148,31552
10149,32000
10150,32448
10151,32704
10152,32896
10153,33024
10154,33216
10155,33408
10156,33472
10157,33536
10158,33600
10159,33600
10160,33600
10161,33728
10162,33856
10163,33984
10164,34112
10165,34112
10166,34112
10167,34112
10168,34176
10169,34176
10170,34240
10171,34176
10172,34176
10173,34176
10174,34112
10175,34176
10176,34368
10177,34432
10178,34496
10179,34496
10180,34560
10181,34560
10182,34624
10183,34688
10184,34688
10185,34688
10186,34688
10187,34688
10188,34752
10189,34752
10190,34880
10191,35008
10192,35136
10193,35200
10194,35264
10195,35328
10196,35456
10197,35584
10198,35648
10199,35648
10200,35584
10201,35712
10202,35712
10203,35648
10204,35520
10205,35392
10206,35264
10207,35072
10208,34880
10209,34624
10210,34368
10211,34112
10212,33856
10213,33600
10214,33408
10215,33280
10216,33216
10217,33152
10218,33088
10219,33088
10220,33088
10221,33024
10222,32960
10223,33024
10224,33216
10225,33280
10226,33344
10227,33408
10228,33408
10229,33472
10230,33472
10231,33600
10232,33664
10233,33792
10234,33792
10235,33920
10236,34048
10237,34112
10238,34048
10239,34048
10240,33920
10241,33856
10242,33856
10243,33856
10244,33856
10245,33920
10246,33984
10247,34048
10248,34048
10249,34112
10250,34112
10251,34176
10252,34240
10253,34240
10254,34304
10255,34368
10256,34496
10257,34560
10258,34432
10259,34304
10260,34240
10261,34304
10262,34304
10263,34304
10264,34304
10265,34304
10266,34304
10267,34240
10268,34176
10269,34240
10270,34240
10271,34176
10272,34176
10273,34176
10274,34240
10275,34304
10276,34304
10277,34304
10278,34176
10279,34112
10280,34112
10281,34048
10282,34048
10283,34048
10284,33984
10285,33984
10286,33984
10287,33920
10288,33920
10289,33856
10290,33856
10291,33856
10292,33856
10293,33856
10294,33984
10295,34112
10296,34112
10297,34112
10298,34112
10299,34048
10300,34048
10301,34112
10302,34176
10303,34240
10304,34304
10305,34432
10306,34496
10307,34560
10308,34624
10309,34752
10310,34816
10311,34880
10312,34816
10313,34688
10314,34560
10315,34432
10316,34368
10317,34368
10318,34304
10319,34240
10320,34048
10321,33856
10322,33664
10323,33472
10324,33472
10325,33472
10326,33536
10327,33600
10328,33664
10329,33728
10330,33728
10331,33728
10332,33664
10333,33600
10334,33472
10335,33280
10336,33024
10337,33024
10338,33728
10339,35456
10340,38144
10341,40512
10342,42240
10343,42752
10344,41664
10345,39360
10346,36736
10347,34432
10348,32576
10349,31424
10350,30848
10351,30976
10352,31424
10353,31936
10354,32384
10355,32640
10356,32832
10357,32960
10358,33088
10359,33216
10360,33216
10361,33216
10362,33216
10363,33280
10364,33408
10365,33536
10366,33664
10367,33728
10368,33728
10369,33664
10370,33728
10371,33728
10372,33728
10373,33792
10374,33856
10375,33920
10376,33920
10377,33984
10378,34048
10379,34112
10380,34176
10381,34176
10382,34176
10383,34240
10384,34176
10385,34176
10386,34240
10387,34368
10388,34496
10389,34496
10390,34496
10391,34496
10392,34496
10393,34624
10394,34816
10395,34880
10396,34880
10397,34944
10398,35072
10399,35136
10400,35328
10401,35456
10402,35584
10403,35584
10404,35584
10405,35584
10406,35520
10407,35392
10408,35200
10409,35008
10410,34752
10411,34496
10412,34240
10413,34048
10414,33856
10415,33536
10416,33344
10417,33280
10418,33152
10419,33024
10420,32896
10421,32832
10422,32704
10423,32704
10424,32768
10425,32832
10426,32896
10427,33024
10428,33024
10429,32960
10430,33088
10431,33152
10432,33344
10433,33408
10434,33472
10435,33472
10436,33472
10437,33472
10438,33536
10439,33600
10440,33600
10441,33600
10442,33600
10443,33600
10444,33600
10445,33536
10446,33600
10447,33600
10448,33664
10449,33792
10450,33856
10451,33920
10452,33984
10453,34112
10454,34176
10455,34304
10456,34368
10457,34304
10458,34176
10459,34112
10460,34112
10461,34240
10462,34240
10463,34304
10464,34240
10465,34304
10466,34368
10467,34304
10468,34176
10469,34048
10470,34048
10471,34048
10472,33984
10473,33984
10474,34048
10475,34112
10476,34176
10477,34176
10478,34112
10479,33984
10480,33856
10481,33856
10482,33856
10483,33856
10484,33856
10485,33984
10486,34048
10487,34112
10488,34112
10489,34176
10490,34176
10491,34176
10492,34112
10493,33984
10494,33920
10495,33920
10496,33920
10497,33920
10498,33856
10499,33856
10500,33920
10501,33984
10502,33984
10503,33984
10504,34048
10505,33984
10506,33984
10507,33984
10508,33984
10509,33984
10510,33920
10511,33920
10512,33984
10513,33984
10514,33984
10515,33984
10516,33984
10517,33984
10518,33920
10519,33920
10520,33920
10521,33920
10522,33984
10523,34048
10524,34048
10525,34176
10526,34304
10527,34496
10528,34624
10529,34752
10530,34816
10531,34816
10532,34816
10533,34688
10534,34432
10535,34304
10536,34240
10537,34240
10538,34112
10539,34048
10540,33856
10541,33728
10542,33600
10543,33536
10544,33472
10545,33472
10546,33472
10547,33472
10548,33472
10549,33536
10550,33600
10551,33600
10552,33600
10553,33600
10554,33472
10555,33216
10556,33024
10557,33216
10558,34240
10559,36224
10560,38848
10561,41280
10562,42880
10563,43008
10564,41472
10565,38720
10566,35776
10567,33344
10568,31552
10569,30592
10570,30528
10571,30848
10572,31360
10573,31808
10574,32128
10575,32384
10576,32576
10577,32704
10578,32832
10579,32960
10580,33024
10581,33088
10582,33152
10583,33152
10584,33216
10585,33280
10586,33344
10587,33408
10588,33408
10589,33536
10590,33664
10591,33664
10592,33728
10593,33728
10594,33728
10595,33792
10596,33856
10597,33920
10598,33984
10599,33984
10600,33984
10601,33920
10602,33920
10603,33984
10604,34112
10605,34240
10606,34304
10607,34240
10608,34240
10609,34304
10610,34432
10611,34496
10612,34496
10613,34560
10614,34688
10615,34752
10616,34816
10617,34944
10618,35008
10619,35072
10620,35200
10621,35264
10622,35264
10623,35328
10624,35392
10625,35328
10626,35328
10627,35392
10628,35392
10629,35264
10630,35072
10631,34816
10632,34496
10633,34112
10634,33856
10635,33600
10636,33408
10637,33152
10638,32960
10639,32896
10640,32832
10641,32768
10642,32832
10643,32832
10644,32896
10645,32832
10646,32768
10647,32704
10648,32704
10649,32832
10650,32960
10651,33024
10652,33088
10653,33152
10654,33152
10655,33216
10656,33280
10657,33280
10658,33344
10659,33472
10660,33472
10661,33472
10662,33408
10663,33408
10664,33536
10665,33728
10666,33856
10667,33920
10668,33920
10669,33984
10670,34048
10671,33920
10672,33856
10673,33856
10674,33856
10675,33920
10676,33984
10677,33984
10678,33984
10679,33984
10680,33984
10681,33984
10682,33920
10683,33920
10684,33984
10685,34112
10686,34176
10687,34176
10688,34240
10689,34240
10690,34240
10691,34176
10692,34176
10693,34176
10694,34176
10695,34176
10696,34112
10697,33984
10698,33920
10699,33920
10700,33920
10701,33920
10702,33920
10703,33856
10704,33856
10705,33920
10706,33984
10707,34048
10708,34112
10709,34112
10710,33984
10711,33856
10712,33728
10713,33792
10714,33856
10715,33920
10716,33984
10717,34048
10718,34048
10719,34048
10720,33984
10721,33920
10722,33792
10723,33856
10724,33920
10725,33984
10726,33984
10727,33984
10728,33920
10729,33856
10730,33856
10731,33856
10732,33856
10733,33920
10734,33920
10735,33920
10736,33984
10737,34048
10738,33984
10739,33920
10740,33920
10741,33984
10742,34048
10743,34112
10744,34112
10745,34176
10746,34240
10747,34240
10748,34240
10749,34240
10750,34368
10751,34560
10752,34688
10753,34752
10754,34816
10755,34816
10756,34752
10757,34624
10758,34496
10759,34304
10760,34176
10761,34112
10762,34112
10763,34176
10764,34112
10765,33984
10766,33792
10767,33600
10768,33536
10769,33536
10770,33536
10771,33472
10772,33408
10773,33408
10774,33408
10775,33472
10776,33600
10777,33600
10778,33472
10779,33216
10780,33024
10781,33344
10782,34496
10783,36672
10784,39360
10785,41792
10786,43200
10787,43136
10788,41280
10789,38464
10790,35392
10791,33152
10792,31488
10793,30720
10794,30592
10795,30912
10796,31360
10797,31744
10798,32128
10799,32448
10800,32768
10801,32896
10802,32960
10803,32960
10804,32960
10805,32960
10806,32960
10807,33088
10808,33280
10809,33472
10810,33536
10811,33536
10812,33536
10813,33472
10814,33536
10815,33600
10816,33728
10817,33856
10818,33920
10819,33920
10820,33984
10821,33920
10822,33920
10823,33920
10824,33920
10825,33920
10826,33920
10827,33984
10828,34048
10829,34176
10830,34304
10831,34368
10832,34432
10833,34432
10834,34496
10835,34496
10836,34560
10837,34560
10838,34688
10839,34816
10840,34944
10841,35136
10842,35200
10843,35264
10844,35328
10845,35392
10846,35392
10847,35456
10848,35456
10849,35392
10850,35328
10851,35264
10852,35200
10853,35136
10854,35072
10855,34880
10856,34688
10857,34368
10858,33984
10859,33664
10860,33408
10861,33152
10862,32960
10863,32768
10864,32640
10865,32576
10866,32640
10867,32704
10868,32768
10869,32832
10870,32896
10871,32896
10872,32960
10873,33024
10874,33152
10875,33280
10876,33344
10877,33280
10878,33216
10879,33280
10880,33344
10881,33344
10882,33408
10883,33536
10884,33536
10885,33536
10886,33600
10887,33600
10888,33536
10889,33600
10890,33664
10891,33856
10892,33920
10893,33920
10894,33920
10895,33984
10896,33984
10897,33984
10898,33984
10899,33920
10900,33856
10901,33792
10902,33792
10903,33856
10904,33984
10905,34112
10906,34112
10907,34176
10908,34176
10909,34240
10910,34304
10911,34240
10912,34240
10913,34240
10914,34240
10915,34176
10916,34112
10917,34048
10918,34048
10919,34048
10920,34048
10921,33984
10922,33856
10923,33792
10924,33792
