,ECG
0,33280
1,33344
2,33472
3,33600
4,33600
5,33536
6,33536
7,33664
8,33792
9,33856
10,33920
11,33920
12,33856
13,33792
14,33856
15,33920
16,33920
17,33920
18,34048
19,34176
20,34176
21,34112
22,34112
23,34048
24,33856
25,33728
26,33728
27,33856
28,33984
29,34176
30,34176
31,34176
32,34112
33,34048
34,33984
35,34048
36,34176
37,34176
38,34112
39,34048
40,33984
41,34048
42,33984
43,33984
44,33856
45,33856
46,33856
47,33792
48,33792
49,33664
50,33600
51,33728
52,33856
53,33856
54,33856
55,33856
56,33856
57,33792
58,33792
59,33920
60,34048
61,34240
62,34304
63,34368
64,34432
65,34496
66,34624
67,34816
68,34880
69,34880
70,34816
71,34624
72,34432
73,34240
74,34048
75,33984
76,33984
77,33920
78,33664
79,33536
80,33536
81,33536
82,33472
83,33408
84,33408
85,33472
86,33472
87,33472
88,33536
89,33600
90,33600
91,33600
92,33600
93,33408
94,33024
95,32832
96,33088
97,34304
98,36608
99,39488
100,41920
101,43136
102,42688
103,40768
104,38016
105,35456
106,33280
107,31872
108,30976
109,30720
110,31040
111,31552
112,32000
113,32320
114,32448
115,32640
116,32768
117,32832
118,32832
119,32832
120,32960
121,33088
122,33280
123,33408
124,33536
125,33664
126,33728
127,33600
128,33408
129,33216
130,33344
131,33536
132,33600
133,33728
134,33856
135,33984
136,34240
137,34304
138,34176
139,33984
140,33792
141,33792
142,33856
143,33792
144,33728
145,33856
146,34112
147,34304
148,34432
149,34560
150,34624
151,34752
152,34752
153,34752
154,34752
155,34816
156,35008
157,35136
158,35200
159,35328
160,35328
161,35264
162,35200
163,35200
164,35200
165,35200
166,35328
167,35264
168,35072
169,34880
170,34624
171,34368
172,34048
173,33792
174,33600
175,33408
176,33280
177,33152
178,33024
179,32832
180,32704
181,32576
182,32512
183,32512
184,32576
185,32576
186,32576
187,32576
188,32640
189,32704
190,32832
191,33024
192,33152
193,33280
194,33344
195,33216
196,33088
197,33024
198,33088
199,33152
200,33216
201,33280
202,33408
203,33472
204,33472
205,33536
206,33600
207,33728
208,33792
209,33920
210,33920
211,33856
212,33856
213,33792
214,33792
215,33984
216,34112
217,34240
218,34240
219,34240
220,34240
221,34240
222,34176
223,34176
224,34112
225,34112
226,34112
227,34112
228,34048
229,33984
230,33920
231,33856
232,33920
233,33984
234,33984
235,33920
236,33920
237,33856
238,33792
239,33792
240,33856
241,33920
242,33856
243,33856
244,33984
245,33984
246,33920
247,33728
248,33664
249,33600
250,33600
251,33600
252,33792
253,34048
254,34112
255,34048
256,33856
257,33728
258,33792
259,33856
260,33856
261,33984
262,34112
263,34048
264,33856
265,33664
266,33664
267,33792
268,33920
269,34048
270,34240
271,34432
272,34560
273,34688
274,34688
275,34624
276,34496
277,34432
278,34368
279,34368
280,34368
281,34240
282,34048
283,33984
284,33920
285,33856
286,33792
287,33664
288,33472
289,33216
290,33216
291,33280
292,33472
293,33600
294,33664
295,33472
296,33344
297,33280
298,33408
299,33536
300,33536
301,33536
302,33408
303,33600
304,34688
305,36800
306,39616
307,41984
308,43392
309,43072
310,40960
311,37888
312,35008
313,32704
314,31168
315,30528
316,30592
317,30976
318,31488
319,32000
320,32320
321,32512
322,32640
323,32768
324,32832
325,32768
326,32832
327,32960
328,33152
329,33280
330,33344
331,33408
332,33408
333,33408
334,33408
335,33536
336,33600
337,33600
338,33536
339,33536
340,33600
341,33664
342,33664
343,33792
344,34048
345,34112
346,34112
347,34112
348,34048
349,33856
350,33856
351,33920
352,33984
353,34048
354,34176
355,34304
356,34368
357,34368
358,34368
359,34368
360,34496
361,34688
362,34880
363,35072
364,35200
365,35136
366,35200
367,35392
368,35456
369,35392
370,35328
371,35392
372,35584
373,35776
374,35712
375,35392
376,35072
377,34752
378,34432
379,34176
380,33792
381,33536
382,33280
383,33088
384,32896
385,32768
386,32640
387,32448
388,32384
389,32384
390,32384
391,32448
392,32576
393,32640
394,32640
395,32640
396,32704
397,32768
398,32768
399,32896
400,33024
401,33216
402,33472
403,33536
404,33472
405,33344
406,33280
407,33216
408,33280
409,33408
410,33536
411,33600
412,33600
413,33472
414,33408
415,33472
416,33664
417,33792
418,33856
419,33920
420,34048
421,34048
422,33984
423,33984
424,33920
425,33920
426,33856
427,33920
428,33984
429,34112
430,34112
431,34112
432,34048
433,33984
434,33984
435,34112
436,34304
437,34368
438,34176
439,34048
440,33920
441,33920
442,33920
443,33920
444,33920
445,33920
446,33856
447,33792
448,33856
449,33984
450,33984
451,33984
452,33856
453,33856
454,33856
455,33856
456,33920
457,33856
458,33792
459,33792
460,33856
461,33984
462,34048
463,34048
464,33984
465,33920
466,33728
467,33600
468,33472
469,33536
470,33664
471,33728
472,33728
473,33856
474,33984
475,34112
476,34112
477,34048
478,33984
479,33920
480,33856
481,33920
482,33920
483,33856
484,33792
485,33856
486,34048
487,34304
488,34560
489,34752
490,34944
491,34944
492,34816
493,34688
494,34496
495,34304
496,34240
497,34112
498,33920
499,33856
500,33856
501,33856
502,33792
503,33536
504,33280
505,33152
506,33216
507,33408
508,33664
509,33728
510,33728
511,33600
512,33472
513,33472
514,33408
515,33344
516,33216
517,33216
518,33472
519,34240
520,35840
521,38400
522,41152
523,43136
524,43584
525,42112
526,39360
527,36096
528,33408
529,31680
530,30784
531,30656
532,30976
533,31296
534,31680
535,32000
536,32256
537,32512
538,32640
539,32576
540,32576
541,32576
542,32704
543,32960
544,33152
545,33280
546,33408
547,33472
548,33408
549,33280
550,33152
551,33280
552,33344
553,33472
554,33600
555,33728
556,33856
557,34048
558,34112
559,33984
560,33728
561,33536
562,33536
563,33728
564,33920
565,34048
566,34112
567,34112
568,34048
569,34048
570,34240
571,34432
572,34496
573,34560
574,34560
575,34432
576,34496
577,34624
578,34752
579,34944
580,35072
581,35200
582,35328
583,35520
584,35648
585,35776
586,35776
587,35840
588,35776
589,35520
590,35200
591,35008
592,34816
593,34624
594,34368
595,34112
596,33856
597,33600
598,33408
599,33152
600,32832
601,32576
602,32384
603,32320
604,32448
605,32576
606,32704
607,32768
608,32640
609,32576
610,32512
611,32576
612,32704
613,32896
614,33152
615,33216
616,33152
617,33088
618,33024
619,33088
620,33152
621,33280
622,33408
623,33472
624,33472
625,33536
626,33536
627,33536
628,33600
629,33536
630,33408
631,33472
632,33664
633,33792
634,33856
635,33856
636,33984
637,34112
638,34112
639,34176
640,34176
641,34112
642,33984
643,33856
644,33856
645,33856
646,33856
647,33792
648,33728
649,33856
650,34048
651,34112
652,34112
653,34112
654,34176
655,34240
656,34240
657,34176
658,34048
659,33984
660,33984
661,34048
662,33984
663,34112
664,33920
665,33664
666,33664
667,33792
668,33728
669,33920
670,33984
671,33920
672,33728
673,33664
674,33664
675,33728
676,33792
677,33728
678,33792
679,33792
680,33856
681,33984
682,34048
683,33984
684,33984
685,33984
686,33792
687,33728
688,33728
689,33792
690,33856
691,33984
692,33920
693,33792
694,33728
695,33792
696,33984
697,34176
698,34112
699,34176
700,34240
701,34432
702,34560
703,34688
704,34816
705,34752
706,34688
707,34560
708,34368
709,34112
710,33920
711,33920
712,34048
713,33984
714,33920
715,33664
716,33408
717,33344
718,33344
719,33344
720,33408
721,33408
722,33600
723,33600
724,33664
725,33664
726,33664
727,33536
728,33344
729,33088
730,32896
731,33152
732,34496
733,36928
734,39808
735,42112
736,43392
737,43328
738,40768
739,37760
740,35072
741,32832
742,31424
743,30656
744,30528
745,31040
746,31616
747,32064
748,32320
749,32448
750,32448
751,32576
752,32704
753,32832
754,33024
755,33216
756,33344
757,33408
758,33344
759,33280
760,33280
761,33344
762,33344
763,33344
764,33408
765,33600
766,33664
767,33664
768,33728
769,33792
770,33856
771,33920
772,33984
773,33920
774,33856
775,33792
776,33856
777,33984
778,34048
779,34112
780,34048
781,34048
782,34048
783,34176
784,34240
785,34368
786,34496
787,34560
788,34688
789,34624
790,34880
791,34944
792,34944
793,34880
794,35008
795,35264
796,35520
797,35584
798,35520
799,35456
800,35392
801,35328
802,35328
803,35200
804,35072
805,34880
806,34688
807,34368
808,33920
809,33472
810,33280
811,33152
812,33088
813,33024
814,32832
815,32576
816,32448
817,32320
818,32320
819,32448
820,32512
821,32576
822,32640
823,32704
824,32896
825,33088
826,33152
827,33152
828,33152
829,33216
830,33216
831,33408
832,33472
833,33408
834,33344
835,33280
836,33280
837,33280
838,33344
839,33472
840,33600
841,33664
842,33792
843,33792
844,33856
845,33792
846,33664
847,33728
848,33792
849,33792
850,33856
851,33984
852,34112
853,34304
854,34368
855,34368
856,34240
857,34048
858,33920
859,33792
860,33728
861,33856
862,34048
863,34304
864,34304
865,34240
866,34112
867,33984
868,33856
869,33856
870,33856
871,33856
872,33792
873,33792
874,33856
875,33920
876,34048
877,34048
878,33920
879,33792
880,33792
881,33920
882,34048
883,34048
884,33856
885,33728
886,33664
887,33536
888,33536
889,33600
890,33792
891,33920
892,34048
893,33920
894,33792
895,33728
896,33792
897,33920
898,34048
899,34112
900,34112
901,34176
902,34304
903,34496
904,34688
905,34752
906,34688
907,34688
908,34688
909,34624
910,34432
911,34112
912,33920
913,33856
914,33856
915,33856
916,33856
917,33792
918,33600
919,33344
920,33152
921,33152
922,33344
923,33472
924,33600
925,33664
926,33600
927,33536
928,33536
929,33472
930,33280
931,33088
932,32960
933,33152
934,34176
935,36160
936,38848
937,41472
938,43072
939,43264
940,41664
941,38848
942,35968
943,33600
944,31872
945,30848
946,30656
947,31104
948,31552
949,31936
950,32192
951,32256
952,32320
953,32384
954,32512
955,32704
956,32832
957,32960
958,33088
959,33216
960,33280
961,33408
962,33408
963,33472
964,33408
965,33216
966,33152
967,33408
968,33664
969,33792
970,33792
971,33792
972,33792
973,33792
974,33856
975,33856
976,33920
977,33920
978,33920
979,33984
980,34112
981,34112
982,34048
983,34112
984,34240
985,34368
986,34368
987,34368
988,34496
989,34560
990,34688
991,34752
992,34752
993,34816
994,34944
995,34944
996,35072
997,35264
998,35456
999,35456
1000,35456
1001,35456
1002,35456
1003,35456
1004,35328
1005,35136
1006,35008
1007,34752
1008,34560
1009,34432
1010,34240
1011,33856
1012,33536
1013,33280
1014,33088
1015,32896
1016,32768
1017,32704
1018,32576
1019,32384
1020,32384
1021,32384
1022,32384
1023,32576
1024,32640
1025,32768
1026,32768
1027,32768
1028,32832
1029,32960
1030,32960
1031,33088
1032,33152
1033,33216
1034,33152
1035,33216
1036,33408
1037,33472
1038,33408
1039,33472
1040,33536
1041,33600
1042,33600
1043,33664
1044,33664
1045,33664
1046,33728
1047,33664
1048,33664
1049,33728
1050,33728
1051,33792
1052,33856
1053,33920
1054,33920
1055,33920
1056,33984
1057,34112
1058,34112
1059,34176
1060,34176
1061,34240
1062,34368
1063,34304
1064,34112
1065,33920
1066,33984
1067,34048
1068,33984
1069,33984
1070,34048
1071,34048
1072,33984
1073,33984
1074,34048
1075,33984
1076,33856
1077,33856
1078,33856
1079,33920
1080,33984
1081,33984
1082,33856
1083,33856
1084,33856
1085,33856
1086,33920
1087,34048
1088,34176
1089,34176
1090,33920
1091,33600
1092,33600
1093,33728
1094,33856
1095,33984
1096,33920
1097,33920
1098,33920
1099,33984
1100,33984
1101,33856
1102,33792
1103,33728
1104,33728
1105,33728
1106,33792
1107,33856
1108,33920
1109,33984
1110,33984
1111,34048
1112,34048
1113,33920
1114,33856
1115,33856
1116,33792
1117,33920
1118,34048
1119,34112
1120,34176
1121,34368
1122,34624
1123,34752
1124,34880
1125,34944
1126,34816
1127,34688
1128,34560
1129,34304
1130,34112
1131,33984
1132,33984
1133,34048
1134,33920
1135,33728
1136,33600
1137,33600
1138,33536
1139,33536
1140,33472
1141,33472
1142,33472
1143,33536
1144,33472
1145,33472
1146,33472
1147,33472
1148,33344
1149,33344
1150,33408
1151,33664
1152,34496
1153,36224
1154,38848
1155,41600
1156,43456
1157,43840
1158,42176
1159,39232
1160,35968
1161,33344
1162,31552
1163,30528
1164,30336
1165,30592
1166,31168
1167,31808
1168,32192
1169,32512
1170,32640
1171,32640
1172,32704
1173,32832
1174,32896
1175,33024
1176,33152
1177,33344
1178,33408
1179,33344
1180,33216
1181,33088
1182,33088
1183,33216
1184,33408
1185,33600
1186,33664
1187,33728
1188,33664
1189,33600
1190,33600
1191,33792
1192,33984
1193,34048
1194,34112
1195,34112
1196,34240
1197,34304
1198,34304
1199,34112
1200,33920
1201,33792
1202,33856
1203,33984
1204,34304
1205,34560
1206,34624
1207,34432
1208,34304
1209,34304
1210,34496
1211,34688
1212,34944
1213,35136
1214,35328
1215,35392
1216,35392
1217,35392
1218,35392
1219,35392
1220,35392
1221,35392
1222,35456
1223,35520
1224,35328
1225,35008
1226,34688
1227,34432
1228,34240
1229,33920
1230,33664
1231,33472
1232,33216
1233,32960
1234,32704
1235,32640
1236,32704
1237,32576
1238,32320
1239,32128
1240,32320
1241,32576
1242,32768
1243,32896
1244,32832
1245,32768
1246,32832
1247,32896
1248,33024
1249,33280
1250,33408
1251,33408
1252,33216
1253,33152
1254,33216
1255,33344
1256,33408
1257,33472
1258,33408
1259,33472
1260,33536
1261,33600
1262,33600
1263,33536
1264,33536
1265,33536
1266,33536
1267,33600
1268,33728
1269,33856
1270,33920
1271,33984
1272,34048
1273,34048
1274,34112
1275,34112
1276,34048
1277,33920
1278,33856
1279,33920
1280,33984
1281,34048
1282,34112
1283,34176
1284,34240
1285,34240
1286,34304
1287,34240
1288,34176
1289,34048
1290,33792
1291,33600
1292,33408
1293,33344
1294,33472
1295,33728
1296,33920
1297,34048
1298,34112
1299,34176
1300,34112
1301,34048
1302,33984
1303,33984
1304,33984
1305,33920
1306,33920
1307,33984
1308,33856
1309,33792
1310,33664
1311,33664
1312,33728
1313,33856
1314,33856
1315,33920
1316,33920
1317,33920
1318,33856
1319,33728
1320,33728
1321,33792
1322,33984
1323,34112
1324,34112
1325,34048
1326,33920
1327,33856
1328,33920
1329,33984
1330,33984
1331,33984
1332,33984
1333,33920
1334,33792
1335,33664
1336,33600
1337,33728
1338,33856
1339,34112
1340,34304
1341,34368
1342,34240
1343,34304
1344,34432
1345,34624
1346,34752
1347,34752
1348,34752
1349,34752
1350,34560
1351,34304
1352,34112
1353,34048
1354,34048
1355,33984
1356,33856
1357,33792
1358,33792
1359,33728
1360,33600
1361,33408
1362,33216
1363,33280
1364,33472
1365,33536
1366,33664
1367,33728
1368,33792
1369,33792
1370,33664
1371,33472
1372,33344
1373,33344
1374,33984
1375,35520
1376,38016
1377,40832
1378,42880
1379,43520
1380,42304
1381,39680
1382,36608
1383,33984
1384,32064
1385,30848
1386,30400
1387,30592
1388,31104
1389,31680
1390,32256
1391,32576
1392,32704
1393,32704
1394,32640
1395,32704
1396,32832
1397,32960
1398,33088
1399,33152
1400,33216
1401,33344
1402,33536
1403,33664
1404,33664
1405,33600
1406,33472
1407,33408
1408,33408
1409,33472
1410,33536
1411,33600
1412,33728
1413,33920
1414,33856
1415,33856
1416,33856
1417,33856
1418,33856
1419,33984
1420,34112
1421,34240
1422,34240
1423,34176
1424,34176
1425,34240
1426,34432
1427,34496
1428,34560
1429,34624
1430,34560
1431,34496
1432,34624
1433,34688
1434,34752
1435,34880
1436,35072
1437,35200
1438,35264
1439,35392
1440,35584
1441,35584
1442,35584
1443,35520
1444,35520
1445,35520
1446,35392
1447,35264
1448,35008
1449,34688
1450,34432
1451,34112
1452,33792
1453,33408
1454,33088
1455,32832
1456,32704
1457,32640
1458,32576
1459,32512
1460,32512
1461,32576
1462,32640
1463,32576
1464,32576
1465,32576
1466,32576
1467,32640
1468,32704
1469,32896
1470,33088
1471,33280
1472,33408
1473,33408
1474,33344
1475,33216
1476,33216
1477,33216
1478,33280
1479,33280
1480,33344
1481,33408
1482,33408
1483,33344
1484,33408
1485,33472
1486,33664
1487,33792
1488,33792
1489,33792
1490,33792
1491,33856
1492,33920
1493,33984
1494,33984
1495,33984
1496,33984
1497,33920
1498,33984
1499,33984
1500,33984
1501,33984
1502,34112
1503,34048
1504,33984
1505,33920
1506,34048
1507,34240
1508,34368
1509,34304
1510,34176
1511,34048
1512,33984
1513,33920
1514,33856
1515,33856
1516,33856
1517,33792
1518,33792
1519,33920
1520,33920
1521,33920
1522,33920
1523,33792
1524,33664
1525,33664
1526,33728
1527,33920
1528,33984
1529,34048
1530,33984
1531,33856
1532,33856
1533,33856
1534,33856
1535,33792
1536,33792
1537,33728
1538,33856
1539,33984
1540,33984
1541,34048
1542,34048
1543,33920
1544,33920
1545,34048
1546,34368
1547,34688
1548,34880
1549,34944
1550,34880
1551,34752
1552,34496
1553,34240
1554,33984
1555,33856
1556,33856
1557,33856
1558,33920
1559,33856
1560,33728
1561,33472
1562,33344
1563,33280
1564,33408
1565,33472
1566,33536
1567,33600
1568,33664
1569,33600
1570,33664
1571,33664
1572,33664
1573,33408
1574,33088
1575,32832
1576,32960
1577,33984
1578,36224
1579,39040
1580,41536
1581,43072
1582,43072
1583,41280
1584,38400
1585,35648
1586,33472
1587,32064
1588,31232
1589,30912
1590,31104
1591,31552
1592,32000
1593,32384
1594,32576
1595,32576
1596,32640
1597,32768
1598,32768
1599,32768
1600,32896
1601,32896
1602,33024
1603,33216
1604,33344
1605,33472
1606,33536
1607,33472
1608,33472
1609,33472
1610,33536
1611,33536
1612,33600
1613,33664
1614,33792
1615,33920
1616,34048
1617,34112
1618,34112
1619,34048
1620,34048
1621,33984
1622,33984
1623,34048
1624,34176
1625,34176
1626,34176
1627,34240
1628,34368
1629,34432
1630,34496
1631,34560
1632,34624
1633,34496
1634,34368
1635,34304
1636,34560
1637,34752
1638,35008
1639,35200
1640,35264
1641,35328
1642,35456
1643,35584
1644,35648
1645,35584
1646,35456
1647,35392
1648,35200
1649,34944
1650,34560
1651,34304
1652,34176
1653,33984
1654,33664
1655,33408
1656,33216
1657,32960
1658,32640
1659,32448
1660,32384
1661,32384
1662,32576
1663,32704
1664,32768
1665,32832
1666,32832
1667,32768
1668,32768
1669,32768
1670,32832
1671,32832
1672,32896
1673,32960
1674,33024
1675,33024
1676,33024
1677,33152
1678,33344
1679,33600
1680,33728
1681,33728
1682,33600
1683,33536
1684,33536
1685,33408
1686,33344
1687,33408
1688,33536
1689,33792
1690,33984
1691,33984
1692,33984
1693,33920
1694,33920
1695,34048
1696,34176
1697,34176
1698,34240
1699,34304
1700,34176
1701,34048
1702,33984
1703,33920
1704,33984
1705,34048
1706,34048
1707,34048
1708,34048
1709,34112
1710,34048
1711,33984
1712,33984
1713,33984
1714,33920
1715,33856
1716,33856
1717,33856
1718,33920
1719,33984
1720,34048
1721,33984
1722,33920
1723,33920
1724,33920
1725,33856
1726,33792
1727,33728
1728,33728
1729,33728
1730,33728
1731,33792
1732,33856
1733,33920
1734,33920
1735,33984
1736,33920
1737,33920
1738,33856
1739,33792
1740,33728
1741,33728
1742,33792
1743,33920
1744,34112
1745,34304
1746,34304
1747,34304
1748,34368
1749,34432
1750,34560
1751,34688
1752,34816
1753,34816
1754,34752
1755,34560
1756,34304
1757,33984
1758,33792
1759,33728
1760,33728
1761,33600
1762,33472
1763,33280
1764,33216
1765,33280
1766,33344
1767,33536
1768,33728
1769,33728
1770,33728
1771,33728
1772,33728
1773,33664
1774,33408
1775,33088
1776,32896
1777,32960
1778,33408
1779,34752
1780,36992
1781,39872
1782,42304
1783,43648
1784,43264
1785,41216
1786,38208
1787,35264
1788,32896
1789,31168
1790,30336
1791,30272
1792,30784
1793,31424
1794,31872
1795,32192
1796,32256
1797,32320
1798,32384
1799,32576
1800,32704
1801,32896
1802,33024
1803,33088
1804,33216
1805,33408
1806,33600
1807,33664
1808,33600
1809,33536
1810,33472
1811,33472
1812,33472
1813,33600
1814,33664
1815,33728
1816,33728
1817,33664
1818,33664
1819,33664
1820,33728
1821,33728
1822,33792
1823,33920
1824,34048
1825,34112
1826,34112
1827,34112
1828,34176
1829,34240
1830,34368
1831,34368
1832,34304
1833,34368
1834,34560
1835,34816
1836,34944
1837,34944
1838,34880
1839,34816
1840,34880
1841,35136
1842,35392
1843,35584
1844,35712
1845,35776
1846,35712
1847,35648
1848,35648
1849,35584
1850,35392
1851,35136
1852,34880
1853,34688
1854,34368
1855,33984
1856,33600
1857,33344
1858,33152
1859,32960
1860,32832
1861,32640
1862,32512
1863,32512
1864,32448
1865,32448
1866,32512
1867,32576
1868,32576
1869,32512
1870,32512
1871,32704
1872,32896
1873,33024
1874,33152
1875,33152
1876,33024
1877,32960
1878,33024
1879,33152
1880,33344
1881,33344
1882,33408
1883,33408
1884,33408
1885,33536
1886,33536
1887,33536
1888,33536
1889,33600
1890,33664
1891,33664
1892,33728
1893,33728
1894,33728
1895,33792
1896,33856
1897,33920
1898,33984
1899,34048
1900,34112
1901,34112
1902,33984
1903,33984
1904,34048
1905,34048
1906,33984
1907,33920
1908,33984
1909,34112
1910,34176
1911,34112
1912,34048
1913,33984
1914,33984
1915,33984
1916,34048
1917,34112
1918,34112
1919,34112
1920,34048
1921,33920
1922,33856
1923,33728
1924,33728
1925,33792
1926,33856
1927,33792
1928,33792
1929,33920
1930,33984
1931,34048
1932,34048
1933,34048
1934,33920
1935,33856
1936,33856
1937,33856
1938,33920
1939,33984
1940,34048
1941,33984
1942,34048
1943,33984
1944,33920
1945,33856
1946,33856
1947,33856
1948,33856
1949,33920
1950,34048
1951,34240
1952,34304
1953,34496
1954,34688
1955,34816
1956,34752
1957,34624
1958,34432
1959,34176
1960,33920
1961,33856
1962,33920
1963,34112
1964,34112
1965,33984
1966,33664
1967,33600
1968,33536
1969,33472
1970,33472
1971,33536
1972,33536
1973,33600
1974,33600
1975,33600
1976,33472
1977,33408
1978,33472
1979,33536
1980,33472
1981,33344
1982,33344
1983,33856
1984,35264
1985,37632
1986,40384
1987,42560
1988,43520
1989,42496
1990,40064
1991,36992
1992,34304
1993,32192
1994,30848
1995,30400
1996,30656
1997,31232
1998,31744
1999,32064
2000,32256
2001,32448
2002,32704
2003,32896
2004,32960
2005,32960
2006,32960
2007,32960
2008,33024
2009,33152
2010,33344
2011,33536
2012,33472
2013,33472
2014,33408
2015,33472
2016,33536
2017,33536
2018,33600
2019,33728
2020,33984
2021,34112
2022,34112
2023,33920
2024,33792
2025,33792
2026,33856
2027,33920
2028,34112
2029,34176
2030,34176
2031,34176
2032,34112
2033,33984
2034,34048
2035,34240
2036,34368
2037,34432
2038,34496
2039,34560
2040,34688
2041,34816
2042,34944
2043,35072
2044,35200
2045,35328
2046,35392
2047,35520
2048,35584
2049,35456
2050,35264
2051,35328
2052,35456
2053,35584
2054,35520
2055,35456
2056,35200
2057,34944
2058,34560
2059,34240
2060,33792
2061,33408
2062,33280
2063,33088
2064,32832
2065,32576
2066,32512
2067,32448
2068,32384
2069,32256
2070,32256
2071,32320
2072,32320
2073,32384
2074,32576
2075,32768
2076,32832
2077,32960
2078,33152
2079,33216
2080,33280
2081,33280
2082,33280
2083,33280
2084,33280
2085,33280
2086,33344
2087,33280
2088,33216
2089,33152
2090,33280
2091,33408
2092,33600
2093,33792
2094,33792
2095,33728
2096,33728
2097,33728
2098,33728
2099,33664
2100,33600
2101,33664
2102,33792
2103,33984
2104,34112
2105,34112
2106,34048
2107,34048
2108,34112
2109,34048
2110,34112
2111,34112
2112,34112
2113,34112
2114,34112
2115,34112
2116,34048
2117,34048
2118,34048
2119,34048
2120,33920
2121,33856
2122,33920
2123,33984
2124,33920
2125,33984
2126,33984
2127,33920
2128,33984
2129,34048
2130,33984
2131,33920
2132,33984
2133,33856
2134,33664
2135,33664
2136,33792
2137,33856
2138,33920
2139,33856
2140,33664
2141,33664
2142,33728
2143,33792
2144,33920
2145,34112
2146,34304
2147,34368
2148,34368
2149,34304
2150,34304
2151,34368
2152,34560
2153,34624
2154,34624
2155,34688
2156,34624
2157,34560
2158,34304
2159,34112
2160,34048
2161,33920
2162,33856
2163,33792
2164,33728
2165,33664
2166,33664
2167,33600
2168,33472
2169,33472
2170,33472
2171,33536
2172,33600
2173,33536
2174,33536
2175,33536
2176,33600
2177,33536
2178,33472
2179,33280
2180,33152
2181,33024
2182,33472
2183,34944
2184,37504
2185,40256
2186,42304
2187,43136
2188,42304
2189,40064
2190,37120
2191,33664
2192,32576
2193,31360
2194,30912
2195,30976
2196,31360
2197,31808
2198,32192
2199,32448
2200,32576
2201,32640
2202,32704
2203,32768
2204,32832
2205,32768
2206,32768
2207,32832
2208,32960
2209,33024
2210,33024
2211,33088
2212,33344
2213,33664
2214,33856
2215,33920
2216,33856
2217,33792
2218,33728
2219,33792
2220,33792
2221,33792
2222,33856
2223,33856
2224,33856
2225,33984
2226,34112
2227,34112
2228,34048
2229,34048
2230,34112
2231,34176
2232,34176
2233,34240
2234,34432
2235,34496
2236,34560
2237,34560
2238,34560
2239,34688
2240,34816
2241,34880
2242,34944
2243,35072
2244,35136
2245,35264
2246,35328
2247,35328
2248,35456
2249,35584
2250,35712
2251,35712
2252,35648
2253,35392
2254,35072
2255,34880
2256,34688
2257,34560
2258,34304
2259,33856
2260,33536
2261,33152
2262,32832
2263,32768
2264,32704
2265,32704
2266,32576
2267,32512
2268,32448
2269,32448
2270,32640
2271,32704
2272,32768
2273,32768
2274,32704
2275,32704
2276,32832
2277,32896
2278,32960
2279,33088
2280,33088
2281,33024
2282,33024
2283,33152
2284,33216
2285,33344
2286,33472
2287,33536
2288,33600
2289,33664
2290,33664
2291,33664
2292,33600
2293,33664
2294,33664
2295,33664
2296,33664
2297,33664
2298,33728
2299,33856
2300,33920
2301,33984
2302,33920
2303,33984
2304,33984
2305,33984
2306,34048
2307,34048
2308,34048
2309,34112
2310,34304
2311,34304
2312,34304
2313,34368
2314,34368
2315,34176
2316,33984
2317,33920
2318,33984
2319,33984
2320,33920
2321,33920
2322,33920
2323,33920
2324,33856
2325,33856
2326,33792
2327,33664
2328,33664
2329,33792
2330,33920
2331,33920
2332,33920
2333,34048
2334,34112
2335,34176
2336,34176
2337,34240
2338,34432
2339,34560
2340,34624
2341,34688
2342,34752
2343,34752
2344,34688
2345,34560
2346,34432
2347,34240
2348,33920
2349,33728
2350,33728
2351,33856
2352,33856
2353,33664
2354,33472
2355,33280
2356,33216
2357,33152
2358,33280
2359,33408
2360,33472
2361,33472
2362,33344
2363,33344
2364,33344
2365,33472
2366,33600
2367,33664
2368,33536
2369,33408
2370,33216
2371,33536
2372,35072
2373,37504
2374,40256
2375,42368
2376,43328
2377,42496
2378,40192
2379,37184
2380,34688
2381,32576
2382,31168
2383,30528
2384,30656
2385,31168
2386,31744
2387,32128
2388,32320
2389,32512
2390,32576
2391,32704
2392,32832
2393,32896
2394,32832
2395,32896
2396,33152
2397,33408
2398,33536
2399,33472
2400,33344
2401,33216
2402,33216
2403,33344
2404,33472
2405,33600
2406,33728
2407,33792
2408,33792
2409,33664
2410,33664
2411,33728
2412,33792
2413,33856
2414,33984
2415,34112
2416,34176
2417,34176
2418,34176
2419,34240
2420,34368
2421,34432
2422,34432
2423,34432
2424,34432
2425,34496
2426,34560
2427,34624
2428,34752
2429,34816
2430,34816
2431,34816
2432,35008
2433,35200
2434,35456
2435,35584
2436,35648
2437,35584
2438,35648
2439,35712
2440,35712
2441,35712
2442,35584
2443,35328
2444,34944
2445,34240
2446,33792
2447,33728
2448,33344
2449,33152
2450,33152
2451,33088
2452,32896
2453,32704
2454,32512
2455,32384
2456,32320
2457,32320
2458,32448
2459,32512
2460,32576
2461,32704
2462,32832
2463,33024
2464,33024
2465,33088
2466,33088
2467,33088
2468,33152
2469,33152
2470,33216
2471,33280
2472,33280
2473,33280
2474,33216
2475,33152
2476,33152
2477,33152
2478,33280
2479,33472
2480,33600
2481,33728
2482,33792
2483,33792
2484,33728
2485,33728
2486,33728
2487,33792
2488,33920
2489,33920
2490,33920
2491,33984
2492,34112
2493,34112
2494,34048
2495,33984
2496,33920
2497,33920
2498,33920
2499,33856
2500,34048
2501,34112
2502,34240
2503,34240
2504,34304
2505,34240
2506,34176
2507,34112
2508,34048
2509,33920
2510,33920
2511,33984
2512,33984
2513,33920
2514,33856
2515,33792
2516,33792
2517,33792
2518,33792
2519,33792
2520,33792
2521,33792
2522,33792
2523,33856
2524,33856
2525,33856
2526,33856
2527,33984
2528,33984
2529,33920
2530,33920
2531,33920
2532,33920
2533,33856
2534,33728
2535,33600
2536,33664
2537,33792
2538,33856
2539,33856
2540,33856
2541,33920
2542,34112
2543,34304
2544,34496
2545,34688
2546,34816
2547,34816
2548,34816
2549,34752
2550,34624
2551,34496
2552,34304
2553,34112
2554,34048
2555,33984
2556,33920
2557,33920
2558,33856
2559,33792
2560,33664
2561,33536
2562,33472
2563,33344
2564,33344
2565,33344
2566,33536
2567,33728
2568,33664
2569,33536
2570,33408
2571,33408
2572,33472
2573,33472
2574,33408
2575,33536
2576,34112
2577,35584
2578,38016
2579,40768
2580,42880
2581,43648
2582,42560
2583,40128
2584,36992
2585,34240
2586,32064
2587,30720
2588,30272
2589,30208
2590,31104
2591,31680
2592,32064
2593,32320
2594,32512
2595,32640
2596,32576
2597,32512
2598,32640
2599,32832
2600,33024
2601,33024
2602,33024
2603,33152
2604,33408
2605,33408
2606,33408
2607,33408
2608,33472
2609,33536
2610,33600
2611,33600
2612,33600
2613,33664
2614,33792
2615,33856
2616,33984
2617,34048
2618,34048
2619,33984
2620,33920
2621,33984
2622,34112
2623,34112
2624,33984
2625,33920
2626,33920
2627,34048
2628,34304
2629,34496
2630,34560
2631,34560
2632,34560
2633,34624
2634,34688
2635,34752
2636,34880
2637,35072
2638,35136
2639,35328
2640,35456
2641,35520
2642,35520
2643,35520
2644,35584
2645,35584
2646,35584
2647,35584
2648,35520
2649,35264
2650,34944
2651,34560
2652,34176
2653,33920
2654,33600
2655,33280
2656,32960
2657,32832
2658,32640
2659,32448
2660,32384
2661,32384
2662,32384
2663,32448
2664,32512
2665,32704
2666,32768
2667,32768
2668,32704
2669,32704
2670,32832
2671,33024
2672,33216
2673,33216
2674,33216
2675,33216
2676,33216
2677,33088
2678,33088
2679,33152
2680,33344
2681,33472
2682,33600
2683,33600
2684,33472
2685,33344
2686,33344
2687,33472
2688,33600
2689,33728
2690,33792
2691,33856
2692,33856
2693,33856
2694,33856
2695,33792
2696,33792
2697,33856
2698,33856
2699,33856
2700,33984
2701,33984
2702,34048
2703,33984
2704,33856
2705,33856
2706,33920
2707,33984
2708,34112
2709,34112
2710,34112
2711,34176
2712,34176
2713,34176
2714,34112
2715,34112
2716,34112
2717,34048
2718,33984
2719,33920
2720,33792
2721,33856
2722,33920
2723,33856
2724,33664
2725,33600
2726,33600
2727,33664
2728,33728
2729,33856
2730,33984
2731,33984
2732,33920
2733,33856
2734,33792
2735,33728
2736,33728
2737,33856
2738,33984
2739,34048
2740,34048
2741,34048
2742,34048
2743,33984
2744,33920
2745,33856
2746,33792
2747,33664
2748,33664
2749,33792
2750,33856
2751,33856
2752,33792
2753,33792
2754,33792
2755,33792
2756,33920
2757,34112
2758,34304
2759,34496
2760,34624
2761,34752
2762,34880
2763,34816
2764,34752
2765,34624
2766,34432
2767,34176
2768,33984
2769,33920
2770,33920
2771,33984
2772,33984
2773,33792
2774,33536
2775,33344
2776,33344
2777,33472
2778,33536
2779,33536
2780,33536
2781,33600
2782,33536
2783,33472
2784,33472
2785,33536
2786,33600
2787,33472
2788,33280
2789,33216
2790,33664
2791,35136
2792,37504
2793,40320
2794,42560
2795,43648
2796,42880
2797,40896
2798,37824
2799,34880
2800,32512
2801,30848
2802,30208
2803,30400
2804,31104
2805,31680
2806,32064
2807,32320
2808,32448
2809,32576
2810,32640
2811,32704
2812,32768
2813,32832
2814,33024
2815,33216
2816,33280
2817,33344
2818,33472
2819,33472
2820,33472
2821,33472
2822,33472
2823,33536
2824,33728
2825,33792
2826,33792
2827,33856
2828,33856
2829,33856
2830,33792
2831,33792
2832,33856
2833,33920
2834,33856
2835,33856
2836,33984
2837,34112
2838,34112
2839,34048
2840,33984
2841,34048
2842,34176
2843,34240
2844,34304
2845,34432
2846,34560
2847,34624
2848,34752
2849,34880
2850,35008
2851,35072
2852,35136
2853,35200
2854,35264
2855,35328
2856,35456
2857,35648
2858,35840
2859,35840
2860,35712
2861,35584
2862,35328
2863,35136
2864,35008
2865,34752
2866,34368
2867,33984
2868,33728
2869,33472
2870,33216
2871,32960
2872,32704
2873,32512
2874,32448
2875,32384
2876,32320
2877,32320
2878,32320
2879,32512
2880,32704
2881,32960
2882,32960
2883,32896
2884,32768
2885,32768
2886,32896
2887,32960
2888,33024
2889,33088
2890,33216
2891,33280
2892,33344
2893,33408
2894,33344
2895,33280
2896,33344
2897,33472
2898,33536
2899,33408
2900,33408
2901,33408
2902,33472
2903,33536
2904,33664
2905,33920
2906,34048
2907,34176
2908,34176
2909,34112
2910,33920
2911,33728
2912,33664
2913,33664
2914,33792
2915,33856
2916,33984
2917,34176
2918,34240
2919,34176
2920,34176
2921,34240
2922,34112
2923,33984
2924,33984
2925,33984
2926,33920
2927,33856
2928,33856
2929,33920
2930,34112
2931,34176
2932,34240
2933,34176
2934,34240
2935,34176
2936,34048
2937,33856
2938,33728
2939,33600
2940,33536
2941,33536
2942,33664
2943,33920
2944,33984
2945,33920
2946,33792
2947,33792
2948,33920
2949,33984
2950,33984
2951,33920
2952,33920
2953,33856
2954,33728
2955,33728
2956,33792
2957,33792
2958,33920
2959,33984
2960,33920
2961,33856
2962,33856
2963,33920
2964,34048
2965,33984
2966,33984
2967,33984
2968,33984
2969,33984
2970,34048
2971,34240
2972,34368
2973,34432
2974,34304
2975,34368
2976,34496
2977,34560
2978,34624
2979,34560
2980,34496
2981,34432
2982,34304
2983,33984
2984,33728
2985,33600
2986,33472
2987,33280
2988,33216
2989,33280
2990,33408
2991,33600
2992,33728
2993,33792
2994,33664
2995,33600
2996,33600
2997,33664
2998,33664
2999,33408
3000,33024
3001,32832
3002,33088
3003,34304
3004,36736
3005,39616
3006,41920
3007,43264
3008,42944
3009,40960
3010,38080
3011,35392
3012,33216
3013,31680
3014,30912
3015,30848
3016,31104
3017,31488
3018,31936
3019,32192
3020,32320
3021,32384
3022,32512
3023,32640
3024,32832
3025,32960
3026,32960
3027,32960
3028,32960
3029,33088
3030,33280
3031,33472
3032,33536
3033,33600
3034,33664
3035,33728
3036,33664
3037,33472
3038,33408
3039,33472
3040,33600
3041,33728
3042,33792
3043,33728
3044,33792
3045,33856
3046,33984
3047,34112
3048,34112
3049,34048
3050,34048
3051,34176
3052,34176
3053,34176
3054,34176
3055,34240
3056,34304
3057,34496
3058,34624
3059,34688
3060,34688
3061,34688
3062,34816
3063,35008
3064,35136
3065,35200
3066,35200
3067,35072
3068,35072
3069,35136
3070,35328
3071,35584
3072,35648
3073,35648
3074,35520
3075,35200
3076,34880
3077,34496
3078,34176
3079,33856
3080,33600
3081,33408
3082,33216
3083,32960
3084,32768
3085,32640
3086,32640
3087,32576
3088,32576
3089,32576
3090,32576
3091,32576
3092,32640
3093,32576
3094,32704
3095,32832
3096,32960
3097,33024
3098,33152
3099,33216
3100,33216
3101,33216
3102,33152
3103,33216
3104,33344
3105,33408
3106,33344
3107,33344
3108,33344
3109,33472
3110,33600
3111,33664
3112,33664
3113,33664
3114,33600
3115,33664
3116,33728
3117,33856
3118,33920
3119,33920
3120,33856
3121,33984
3122,34048
3123,34048
3124,34112
3125,34176
3126,34176
3127,34176
3128,34240
3129,34240
3130,34176
3131,34112
3132,34176
3133,34176
3134,34048
3135,33856
3136,33792
3137,33856
3138,33920
3139,33984
3140,34112
3141,34176
3142,34176
3143,34112
3144,34112
3145,34048
3146,33920
3147,33856
3148,33792
3149,33664
3150,33664
3151,33856
3152,33984
3153,33920
3154,33728
3155,33792
3156,33856
3157,33856
3158,33920
3159,33856
3160,33920
3161,33920
3162,33984
3163,34048
3164,34112
3165,33984
3166,33920
3167,33792
3168,33728
3169,33856
3170,33920
3171,33984
3172,34048
3173,33984
3174,33856
3175,33728
3176,33792
3177,33920
3178,34048
3179,34112
3180,34112
3181,34304
3182,34432
3183,34624
3184,34816
3185,34816
3186,34752
3187,34752
3188,34688
3189,34496
3190,34304
3191,34112
3192,33856
3193,33728
3194,33728
3195,33792
3196,33856
3197,33792
3198,33728
3199,33600
3200,33600
3201,33600
3202,33664
3203,33664
3204,33536
3205,33408
3206,33408
3207,33536
3208,33600
3209,33600
3210,33472
3211,33280
3212,33408
3213,34432
3214,36544
3215,39360
3216,41984
3217,43648
3218,43520
3219,41664
3220,38656
3221,35584
3222,33024
3223,31232
3224,30336
3225,30336
3226,30848
3227,31488
3228,32064
3229,32384
3230,32512
3231,32640
3232,32640
3233,32704
3234,32768
3235,32896
3236,32960
3237,33088
3238,33088
3239,33088
3240,33088
3241,33216
3242,33344
3243,33536
3244,33664
3245,33728
3246,33856
3247,33792
3248,33600
3249,33536
3250,33600
3251,33664
3252,33792
3253,33920
3254,33920
3255,33920
3256,33856
3257,33792
3258,33856
3259,34048
3260,34112
3261,34240
3262,34240
3263,34304
3264,34368
3265,34432
3266,34432
3267,34432
3268,34496
3269,34496
3270,34624
3271,34880
3272,34944
3273,35136
3274,35328
3275,35328
3276,35200
3277,35264
3278,35392
3279,35456
3280,35520
3281,35584
3282,35584
3283,35456
3284,35200
3285,35072
3286,35008
3287,34816
3288,34496
3289,34176
3290,33920
3291,33664
3292,33408
3293,33088
3294,32768
3295,32576
3296,32448
3297,32320
3298,32320
3299,32384
3300,32512
3301,32512
3302,32576
3303,32640
3304,32576
3305,32576
3306,32704
3307,32896
3308,33088
3309,33152
3310,33152
3311,33152
3312,33280
3313,33344
3314,33408
3315,33408
3316,33344
3317,33344
3318,33472
3319,33536
3320,33472
3321,33408
3322,33536
3323,33728
3324,33920
3325,33856
3326,33728
3327,33728
3328,33664
3329,33728
3330,33728
3331,33728
3332,33728
3333,33792
3334,33856
3335,33920
3336,33984
3337,34112
3338,34112
3339,34176
3340,34176
3341,34112
3342,34048
3343,34048
3344,34112
3345,34240
3346,34304
3347,34176
3348,34112
3349,34048
3350,33920
3351,33728
3352,33600
3353,33728
3354,33920
3355,34048
3356,34176
3357,34112
3358,34048
3359,33984
3360,33856
3361,33792
3362,33728
3363,33792
3364,33792
3365,33856
3366,33920
3367,34048
3368,34048
3369,33920
3370,33856
3371,33792
3372,33728
3373,33792
3374,33792
3375,33792
3376,33728
3377,33664
3378,33728
3379,33856
3380,34048
3381,34112
3382,34048
3383,33984
3384,33856
3385,33856
3386,33920
3387,33856
3388,33984
3389,33984
3390,33920
3391,33856
3392,33920
3393,33920
3394,33984
3395,34048
3396,34176
3397,34240
3398,34304
3399,34432
3400,34688
3401,34816
3402,34752
3403,34688
3404,34624
3405,34496
3406,34240
3407,34112
3408,33984
3409,33856
3410,33856
3411,33792
3412,33792
3413,33664
3414,33600
3415,33472
3416,33472
3417,33600
3418,33664
3419,33600
3420,33536
3421,33472
3422,33472
3423,33536
3424,33536
3425,33472
3426,33280
3427,33152
3428,33216
3429,33856
3430,35456
3431,37952
3432,40768
3433,42944
3434,43840
3435,42816
3436,40128
3437,37120
3438,34304
3439,32192
3440,30912
3441,30464
3442,30656
3443,31232
3444,31744
3445,32064
3446,32256
3447,32448
3448,32640
3449,32768
3450,32832
3451,32832
3452,32896
3453,33024
3454,33152
3455,33216
3456,33280
3457,33280
3458,33280
3459,33344
3460,33536
3461,33664
3462,33728
3463,33856
3464,33792
3465,33728
3466,33536
3467,33536
3468,33664
3469,33792
3470,33856
3471,33792
3472,33792
3473,33920
3474,33984
3475,33984
3476,34048
3477,34048
3478,34112
3479,34112
3480,34176
3481,34240
3482,34240
3483,34368
3484,34560
3485,34624
3486,34688
3487,34752
3488,34880
3489,34944
3490,35008
3491,35136
3492,35328
3493,35520
3494,35584
3495,35520
3496,35520
3497,35520
3498,35520
3499,35584
3500,35584
3501,35392
3502,35136
3503,34880
3504,34688
3505,34432
3506,34048
3507,33600
3508,33280
3509,33088
3510,32960
3511,32832
3512,32704
3513,32768
3514,32768
3515,32640
3516,32512
3517,32448
3518,32320
3519,32384
3520,32576
3521,32768
3522,32832
3523,32768
3524,32896
3525,32960
3526,33088
3527,33088
3528,33152
3529,33216
3530,33408
3531,33472
3532,33472
3533,33408
3534,33280
3535,33216
3536,33280
3537,33408
3538,33600
3539,33664
3540,33664
3541,33600
3542,33664
3543,33728
3544,33792
3545,33856
3546,33856
3547,33920
3548,33984
3549,33984
3550,33920
3551,33920
3552,34112
3553,34176
3554,34176
3555,34112
3556,34048
3557,33984
3558,33984
3559,33984
3560,33920
3561,33856
3562,33920
3563,33984
3564,34048
3565,33984
3566,33984
3567,33984
3568,34048
3569,34048
3570,34048
3571,34112
3572,34112
3573,34048
3574,33984
3575,33984
3576,33984
3577,34048
3578,34048
3579,33920
3580,33728
3581,33664
3582,33728
3583,33792
3584,33920
3585,34048
3586,33984
3587,33984
3588,33984
3589,33920
3590,33792
3591,33664
3592,33600
3593,33664
3594,33664
3595,33728
3596,33920
3597,34048
3598,34112
3599,34112
3600,34048
3601,34048
3602,33984
3603,33984
3604,33984
3605,34048
3606,34304
3607,34624
3608,34880
3609,34944
3610,34816
3611,34688
3612,34496
3613,34304
3614,34176
3615,34112
3616,34048
3617,33920
3618,33856
3619,33856
3620,33728
3621,33664
3622,33600
3623,33472
3624,33408
3625,33408
3626,33472
3627,33600
3628,33472
3629,33472
3630,33600
3631,33600
3632,33408
3633,33216
3634,33088
3635,33024
3636,33344
3637,34688
3638,36992
3639,39808
3640,42112
3641,43328
3642,42944
3643,40960
3644,38080
3645,35392
3646,32768
3647,31744
3648,30912
3649,30720
3650,30976
3651,31360
3652,31744
3653,32128
3654,32320
3655,32576
3656,32768
3657,32896
3658,32960
3659,33088
3660,33152
3661,33088
3662,33024
3663,33152
3664,33344
3665,33408
3666,33408
3667,33408
3668,33408
3669,33408
3670,33536
3671,33728
3672,33792
3673,33792
3674,33856
3675,33920
3676,33792
3677,33728
3678,33856
3679,33920
3680,34048
3681,33984
3682,34048
3683,34048
3684,34112
3685,34048
3686,34112
3687,34176
3688,34240
3689,34368
3690,34368
3691,34432
3692,34432
3693,34496
3694,34752
3695,34880
3696,34880
3697,34944
3698,35072
3699,35200
3700,35264
3701,35392
3702,35328
3703,35200
3704,35136
3705,35200
3706,35328
3707,35328
3708,35392
3709,35200
3710,34880
3711,34624
3712,34368
3713,34112
3714,33920
3715,33600
3716,33344
3717,33024
3718,32768
3719,32576
3720,32448
3721,32320
3722,32384
3723,32512
3724,32576
3725,32576
3726,32640
3727,32768
3728,32896
3729,32960
3730,33024
3731,32960
3732,32896
3733,32896
3734,32960
3735,33152
3736,33344
3737,33344
3738,33344
3739,33344
3740,33280
3741,33280
3742,33344
3743,33408
3744,33472
3745,33600
3746,33664
3747,33664
3748,33600
3749,33664
3750,33792
3751,33920
3752,33920
3753,33920
3754,33856
3755,33920
3756,34048
3757,34112
3758,34176
3759,34112
3760,34048
3761,34048
3762,34048
3763,33984
3764,33984
3765,34048
3766,34048
3767,34176
3768,34304
3769,34304
3770,34176
3771,34048
3772,33984
3773,33984
3774,33984
3775,33984
3776,33984
3777,33920
3778,33792
3779,33728
3780,33856
3781,33856
3782,33920
3783,33920
3784,34048
3785,34048
3786,33920
3787,33920
3788,33984
3789,33984
3790,33920
3791,33792
3792,33728
3793,33664
3794,33664
3795,33728
3796,33792
3797,33792
3798,33856
3799,33792
3800,33856
3801,33920
3802,33920
3803,33920
3804,33856
3805,33856
3806,33920
3807,33856
3808,33920
3809,33984
3810,34112
3811,34176
3812,34112
3813,34112
3814,34112
3815,34176
3816,34432
3817,34624
3818,34880
3819,34944
3820,34944
3821,34816
3822,34496
3823,34176
3824,33920
3825,33856
3826,33856
3827,33728
3828,33728
3829,33856
3830,33920
3831,33856
3832,33728
3833,33664
3834,33536
3835,33472
3836,33408
3837,33408
3838,33472
3839,33600
3840,33664
3841,33600
3842,33536
3843,33408
3844,33280
3845,33216
3846,33216
3847,33664
3848,35136
3849,37504
3850,40384
3851,42624
3852,43712
3853,42944
3854,40576
3855,37504
3856,33472
3857,32192
3858,30784
3859,30272
3860,30464
3861,31104
3862,31680
3863,32128
3864,32320
3865,32448
3866,32512
3867,32640
3868,32768
3869,32960
3870,33088
3871,33216
3872,33216
3873,33152
3874,33088
3875,33152
3876,33280
3877,33344
3878,33472
3879,33536
3880,33600
3881,33536
3882,33536
3883,33664
3884,33792
3885,33792
3886,33792
3887,33792
3888,33792
3889,33792
3890,33856
3891,33856
3892,33856
3893,33984
3894,34048
3895,34176
3896,34176
3897,34240
3898,34176
3899,34240
3900,34368
3901,34560
3902,34624
3903,34624
3904,34624
3905,34560
3906,34624
3907,34816
3908,35008
3909,35072
3910,35072
3911,35136
3912,35200
3913,35264
3914,35328
3915,35392
3916,35520
3917,35584
3918,35520
3919,35456
3920,35392
3921,35136
3922,34688
3923,34240
3924,33920
3925,33792
3926,33664
3927,33472
3928,33216
3929,32832
3930,32576
3931,32320
3932,32320
3933,32384
3934,32384
3935,32384
3936,32448
3937,32576
3938,32704
3939,32768
3940,32704
3941,32640
3942,32640
3943,32768
3944,32896
3945,32960
3946,33088
3947,33088
3948,33088
3949,33280
3950,33472
3951,33536
3952,33472
3953,33472
3954,33472
3955,33408
3956,33408
3957,33472
3958,33600
3959,33728
3960,33792
3961,33728
3962,33728
3963,33792
3964,33856
3965,33920
3966,33920
3967,33920
3968,33984
3969,33920
3970,33920
3971,33856
3972,33856
3973,33920
3974,33920
3975,34048
3976,34112
3977,34176
3978,34176
3979,34176
3980,34176
3981,34176
3982,34112
3983,33984
3984,33984
3985,34048
3986,34176
3987,34176
3988,34176
3989,34112
3990,33920
3991,33792
3992,33728
3993,33728
3994,33856
3995,33920
3996,33920
3997,33920
3998,33856
3999,33792
4000,33728
4001,33856
4002,33984
4003,34048
4004,33984
4005,33984
4006,33920
4007,33856
4008,33792
4009,33792
4010,33856
4011,33920
4012,33856
4013,33792
4014,33728
4015,33792
4016,33856
4017,33920
4018,33856
4019,33792
4020,33664
4021,33664
4022,33664
4023,33792
4024,33984
4025,34048
4026,34176
4027,34304
4028,34368
4029,34368
4030,34368
4031,34496
4032,34688
4033,34816
4034,34816
4035,34688
4036,34560
4037,34432
4038,34304
4039,34112
4040,33984
4041,33920
4042,33920
4043,33920
4044,33920
4045,33792
4046,33664
4047,33536
4048,33472
4049,33408
4050,33408
4051,33472
4052,33472
4053,33408
4054,33472
4055,33472
4056,33472
4057,33344
4058,33216
4059,33088
4060,33216
4061,34112
4062,35840
4063,38528
4064,41280
4065,43136
4066,43584
4067,42112
4068,39424
4069,36416
4070,33856
4071,32064
4072,31040
4073,30784
4074,30912
4075,31296
4076,31680
4077,32064
4078,32384
4079,32512
4080,32640
4081,32896
4082,32896
4083,32896
4084,32768
4085,32832
4086,32896
4087,33088
4088,33280
4089,33344
4090,33344
4091,33280
4092,33344
4093,33408
4094,33536
4095,33728
4096,33856
4097,33920
4098,33920
4099,33920
4100,33856
4101,33856
4102,33856
4103,33920
4104,33920
4105,33920
4106,33984
4107,34048
4108,34112
4109,34112
4110,34112
4111,34112
4112,34112
4113,34176
4114,34240
4115,34368
4116,34496
4117,34624
4118,34624
4119,34624
4120,34688
4121,34880
4122,35136
4123,35328
4124,35392
4125,35520
4126,35648
4127,35648
4128,35648
4129,35584
4130,35520
4131,35392
4132,35264
4133,35136
4134,35008
4135,34816
4136,34560
4137,34240
4138,33920
4139,33664
4140,33472
4141,33216
4142,33024
4143,32832
4144,32640
4145,32576
4146,32448
4147,32256
4148,32256
4149,32320
4150,32448
4151,32576
4152,32704
4153,32896
4154,33024
4155,33088
4156,33024
4157,32960
4158,33024
4159,33088
4160,33152
4161,33216
4162,33344
4163,33472
4164,33344
4165,33216
4166,33152
4167,33088
4168,33152
4169,33408
4170,33600
4171,33728
4172,33792
4173,33792
4174,33728
4175,33600
4176,33600
4177,33664
4178,33792
4179,33920
4180,34048
4181,34048
4182,33984
4183,33856
4184,33856
4185,33920
4186,34048
4187,34048
4188,34112
4189,34176
4190,34176
4191,34112
4192,34112
4193,34176
4194,34240
4195,34240
4196,34112
4197,34048
4198,33984
4199,33920
4200,34048
4201,34112
4202,34176
4203,34112
4204,33984
4205,33792
4206,33536
4207,33472
4208,33600
4209,33856
4210,34112
4211,34176
4212,34112
4213,33984
4214,33856
4215,33792
4216,33856
4217,33984
4218,34112
4219,34176
4220,34240
4221,34240
4222,34240
4223,34176
4224,34176
4225,34368
4226,34560
4227,34688
4228,34752
4229,34752
4230,34624
4231,34368
4232,34048
4233,33856
4234,33856
4235,33920
4236,33920
4237,33856
4238,33664
4239,33536
4240,33408
4241,33344
4242,33344
4243,33344
4244,33408
4245,33472
4246,33536
4247,33536
4248,33664
4249,33664
4250,33664
4251,33472
4252,33152
4253,32960
4254,33024
4255,33600
4256,35328
4257,38016
4258,40832
4259,42880
4260,43520
4261,42496
4262,40000
4263,36992
4264,32576
4265,31296
4266,30720
4267,30784
4268,31232
4269,31744
4270,32128
4271,32384
4272,32384
4273,32320
4274,32448
4275,32704
4276,32832
4277,32960
4278,33088
4279,33152
4280,33152
4281,33152
4282,33216
4283,33408
4284,33344
4285,33600
4286,33664
4287,33728
4288,33600
4289,33472
4290,33472
4291,33536
4292,33664
4293,33792
4294,33856
4295,33984
4296,33984
4297,33984
4298,33984
4299,34112
4300,34048
4301,33984
4302,33984
4303,34048
4304,34176
4305,34240
4306,34240
4307,34240
4308,34368
4309,34624
4310,34816
4311,34880
4312,34944
4313,35072
4314,35008
4315,35136
4316,35200
4317,35264
4318,35328
4319,35392
4320,35456
4321,35520
4322,35456
4323,35520
4324,35456
4325,35264
4326,34944
4327,34816
4328,34688
4329,34496
4330,34240
4331,33920
4332,33600
4333,33344
4334,33088
4335,32768
4336,32640
4337,32576
4338,32384
4339,32320
4340,32320
4341,32384
4342,32512
4343,32576
4344,32576
4345,32576
4346,32704
4347,32960
4348,33024
4349,33088
4350,33088
4351,33024
4352,33088
4353,33088
4354,33088
4355,33088
4356,33152
4357,33280
4358,33344
4359,33472
4360,33536
4361,33536
4362,33408
4363,33408
4364,33472
4365,33536
4366,33600
4367,33728
4368,33792
4369,33856
4370,33920
4371,34048
4372,34176
4373,34176
4374,34240
4375,34304
4376,34368
4377,34304
4378,34176
4379,34112
4380,34112
4381,34048
4382,34048
4383,34112
4384,34176
4385,34112
4386,34048
4387,34112
4388,34176
4389,34048
4390,33984
4391,33856
4392,33792
4393,33856
4394,33856
4395,33856
4396,33920
4397,33984
4398,33984
4399,33920
4400,33920
4401,33920
4402,33984
4403,33984
4404,33920
4405,34048
4406,34048
4407,33856
4408,33792
4409,33856
4410,33856
4411,33920
4412,33984
4413,33984
4414,33792
4415,33600
4416,33536
4417,33664
4418,33984
4419,34048
4420,34112
4421,34112
4422,34176
4423,34176
4424,34112
4425,34176
4426,34304
4427,34368
4428,34496
4429,34688
4430,34880
4431,34944
4432,34880
4433,34624
4434,34368
4435,34112
4436,33984
4437,34048
4438,33984
4439,33920
4440,33792
4441,33600
4442,33536
4443,33472
4444,33472
4445,33408
4446,33472
4447,33600
4448,33600
4449,33536
4450,33472
4451,33472
4452,33536
4453,33600
4454,33536
4455,33472
4456,33472
4457,33472
4458,33920
4459,35328
4460,37824
4461,40704
4462,42944
4463,43904
4464,43008
4465,40512
4466,37312
4467,34368
4468,32128
4469,30656
4470,30080
4471,30272
4472,30912
4473,31552
4474,32000
4475,32384
4476,32576
4477,32704
4478,32768
4479,32704
4480,32768
4481,32960
4482,33216
4483,33408
4484,33472
4485,33408
4486,33280
4487,33216
4488,33344
4489,33536
4490,33600
4491,33536
4492,33600
4493,33792
4494,33856
4495,33792
4496,33792
4497,33728
4498,33664
4499,33664
4500,33792
4501,33920
4502,33856
4503,33856
4504,33920
4505,34048
4506,34176
4507,34176
4508,34240
4509,34304
4510,34432
4511,34496
4512,34624
4513,34624
4514,34560
4515,34624
4516,34624
4517,34688
4518,34816
4519,34944
4520,35072
4521,35200
4522,35328
4523,35392
4524,35520
4525,35648
4526,35776
4527,35776
4528,35776
4529,35712
4530,35520
4531,35200
4532,34816
4533,34496
4534,34240
4535,33984
4536,33728
4537,33472
4538,33152
4539,32960
4540,32768
4541,32576
4542,32448
4543,32448
4544,32512
4545,32384
4546,32384
4547,32448
4548,32512
4549,32576
4550,32640
4551,32768
4552,32960
4553,33088
4554,33216
4555,33216
4556,33152
4557,33152
4558,33088
4559,33152
4560,33344
4561,33536
4562,33600
4563,33664
4564,33536
4565,33280
4566,33280
4567,33408
4568,33600
4569,33600
4570,33664
4571,33792
4572,33792
4573,33856
4574,33856
4575,33856
4576,33792
4577,33792
4578,33856
4579,33984
4580,33984
4581,34048
4582,34112
4583,34048
4584,33984
4585,33984
4586,34048
4587,34112
4588,34176
4589,34112
4590,33984
4591,34048
4592,34048
4593,34048
4594,34048
4595,34048
4596,34112
4597,34176
4598,34048
4599,33984
4600,33920
4601,33856
4602,33792
4603,33792
4604,33920
4605,33920
4606,33856
4607,33920
4608,33984
4609,34048
4610,33984
4611,33920
4612,33856
4613,33856
4614,33856
4615,33856
4616,33856
4617,33856
4618,33792
4619,33792
4620,33792
4621,33856
4622,33984
4623,33984
4624,33984
4625,33920
4626,33856
4627,33856
4628,33920
4629,34112
4630,34304
4631,34432
4632,34432
4633,34432
4634,34496
4635,34624
4636,34752
4637,34752
4638,34560
4639,34432
4640,34304
4641,34112
4642,33984
4643,33920
4644,33856
4645,33856
4646,33856
4647,33856
4648,33792
4649,33792
4650,33728
4651,33600
4652,33600
4653,33664
4654,33600
4655,33536
4656,33472
4657,33472
4658,33664
4659,33792
4660,33600
4661,33344
4662,33216
4663,33088
4664,33280
4665,34304
4666,36288
4667,39040
4668,41600
4669,43264
4670,43264
4671,41536
4672,38656
4673,35392
4674,33344
4675,31680
4676,30720
4677,30464
4678,30784
4679,31360
4680,31872
4681,32192
4682,32320
4683,32448
4684,32640
4685,32640
4686,32704
4687,32832
4688,32960
4689,33024
4690,33152
4691,33216
4692,33216
4693,33216
4694,33280
4695,33408
4696,33536
4697,33664
4698,33792
4699,33856
4700,33792
4701,33728
4702,33664
4703,33664
4704,33728
4705,33920
4706,34048
4707,34048
4708,33856
4709,33664
4710,33664
4711,33856
4712,34112
4713,34240
4714,34304
4715,34368
4716,34432
4717,34432
4718,34432
4719,34432
4720,34432
4721,34560
4722,34752
4723,34816
4724,34880
4725,34944
4726,35072
4727,35136
4728,35200
4729,35328
4730,35456
4731,35456
4732,35520
4733,35584
4734,35648
4735,35712
4736,35648
4737,35520
4738,35200
4739,34752
4740,34304
4741,34048
4742,33856
4743,33664
4744,33344
4745,33024
4746,32832
4747,32576
4748,32384
4749,32320
4750,32384
4751,32512
4752,32576
4753,32512
4754,32448
4755,32576
4756,32704
4757,32768
4758,32832
4759,32768
4760,32768
4761,32832
4762,33024
4763,33280
4764,33472
4765,33472
4766,33472
4767,33408
4768,33344
4769,33280
4770,33408
4771,33536
4772,33472
4773,33344
4774,33344
4775,33536
4776,33664
4777,33728
4778,33664
4779,33728
4780,33792
4781,33856
4782,33920
4783,33984
4784,33920
4785,33984
4786,34048
4787,34048
4788,33984
4789,33856
4790,33856
4791,33920
4792,34048
4793,34176
4794,34240
4795,34240
4796,34176
4797,34112
4798,34048
4799,34112
4800,34176
4801,34176
4802,34112
4803,34048
4804,33984
4805,33792
4806,33664
4807,33792
4808,33920
4809,33920
4810,33984
4811,33984
4812,33984
4813,34048
4814,34048
4815,33920
4816,33856
4817,33728
4818,33728
4819,33728
4820,33728
4821,33792
4822,33984
4823,34112
4824,34176
4825,34304
4826,34432
4827,34624
4828,34752
4829,34752
4830,34752
4831,34688
4832,34560
4833,34432
4834,34176
4835,33920
4836,33728
4837,33728
4838,33856
4839,33856
4840,33792
4841,33664
4842,33664
4843,33600
4844,33536
4845,33408
4846,33344
4847,33280
4848,33280
4849,33344
4850,33472
4851,33600
4852,33600
4853,33536
4854,33280
4855,33088
4856,32896
4857,32896
4858,33664
4859,35456
4860,38080
4861,40832
4862,42880
4863,43584
4864,42496
4865,39872
4866,36800
4867,34240
4868,32384
4869,31360
4870,30848
4871,30912
4872,31360
4873,31744
4874,32000
4875,32256
4876,32320
4877,32384
4878,32448
4879,32576
4880,32768
4881,32896
4882,33024
4883,33152
4884,33216
4885,33216
4886,33280
4887,33472
4888,33600
4889,33664
4890,33664
4891,33600
4892,33600
4893,33664
4894,33728
4895,33728
4896,33728
4897,33728
4898,33792
4899,33856
4900,33920
4901,34048
4902,34176
4903,34240
4904,34240
4905,34304
4906,34304
4907,34240
4908,34112
4909,34176
4910,34304
4911,34368
4912,34432
4913,34496
4914,34560
4915,34624
4916,34688
4917,34752
4918,34880
4919,34944
4920,35008
4921,35072
4922,35200
4923,35456
4924,35648
4925,35712
4926,35648
4927,35520
4928,35456
4929,35328
4930,35136
4931,34944
4932,34560
4933,34048
4934,33728
4935,33472
4936,33280
4937,33152
4938,33024
4939,32896
4940,32704
4941,32640
4942,32576
4943,32512
4944,32448
4945,32512
4946,32640
4947,32704
4948,32768
4949,32832
4950,32896
4951,32960
4952,33024
4953,33024
4954,33088
4955,33216
4956,33152
4957,32896
4958,32832
4959,32960
4960,33152
4961,33344
4962,33472
4963,33408
4964,33280
4965,33280
4966,33408
4967,33664
4968,33792
4969,33792
4970,33856
4971,33792
4972,33792
4973,33856
4974,33984
4975,33984
4976,34112
4977,34176
4978,34304
4979,34304
4980,34240
4981,34176
4982,34048
4983,33920
4984,33984
4985,34048
4986,34048
4987,34112
4988,34176
4989,34240
4990,34112
4991,33984
4992,33856
4993,33920
4994,33920
4995,33984
4996,33984
4997,34048
4998,33984
4999,33920
5000,33856
5001,33792
5002,33792
5003,33856
5004,33856
5005,33856
5006,33920
5007,33920
5008,33920
5009,33920
5010,33984
5011,33984
5012,34048
5013,33984
5014,33920
5015,33920
5016,33920
5017,33920
5018,33984
5019,33920
5020,33856
5021,33856
5022,33920
5023,33920
5024,33920
5025,33920
5026,33920
5027,33792
5028,33792
5029,33792
5030,33984
5031,34112
5032,34112
5033,34176
5034,34368
5035,34496
5036,34560
5037,34688
5038,34816
5039,34752
5040,34688
5041,34560
5042,34240
5043,34048
5044,33920
5045,33856
5046,33856
5047,33984
5048,34048
5049,33920
5050,33792
5051,33600
5052,33472
5053,33344
5054,33216
5055,33280
5056,33408
5057,33472
5058,33600
5059,33728
5060,33792
5061,33792
5062,33664
5063,33472
5064,33216
5065,32960
5066,33152
5067,34304
5068,36416
5069,39232
5070,41856
5071,43456
5072,43456
5073,41728
5074,38912
5075,35840
5076,33216
5077,31232
5078,30272
5079,30272
5080,30912
5081,31616
5082,32064
5083,32256
5084,32384
5085,32512
5086,32576
5087,32640
5088,32640
5089,32640
5090,32768
5091,32960
5092,33088
5093,33152
5094,33280
5095,33280
5096,33408
5097,33536
5098,33600
5099,33728
5100,33792
5101,33792
5102,33664
5103,33600
5104,33536
5105,33600
5106,33792
5107,33856
5108,33920
5109,33984
5110,33984
5111,33920
5112,33920
5113,33984
5114,34112
5115,34048
5116,33920
5117,33984
5118,34240
5119,34432
5120,34496
5121,34432
5122,34496
5123,34560
5124,34624
5125,34752
5126,34880
5127,35072
5128,35328
5129,35456
5130,35584
5131,35584
5132,35520
5133,35520
5134,35584
5135,35520
5136,35456
5137,35520
5138,35584
5139,35456
5140,35200
5141,34880
5142,34496
5143,34112
5144,33728
5145,33408
5146,33216
5147,33088
5148,32960
5149,32832
5150,32704
5151,32576
5152,32448
5153,32384
5154,32320
5155,32320
5156,32448
5157,32704
5158,32896
5159,32960
5160,33024
5161,33024
5162,32960
5163,32960
5164,33088
5165,33216
5166,33280
5167,33280
5168,33344
5169,33344
5170,33408
5171,33472
5172,33472
5173,33472
5174,33472
5175,33472
5176,33536
5177,33600
5178,33664
5179,33792
5180,33792
5181,33856
5182,33856
5183,33792
5184,33856
5185,33920
5186,33856
5187,33856
5188,33984
5189,33984
5190,33920
5191,33920
5192,33984
5193,34048
5194,33984
5195,33920
5196,33856
5197,33856
5198,34048
5199,34176
5200,34176
5201,34176
5202,34112
5203,34048
5204,34112
5205,34048
5206,33984
5207,33920
5208,33984
5209,34048
5210,34112
5211,34176
5212,34048
5213,33920
5214,33856
5215,33856
5216,33920
5217,33920
5218,33856
5219,33792
5220,33664
5221,33600
5222,33664
5223,33728
5224,33792
5225,33856
5226,33920
5227,33792
5228,33664
5229,33728
5230,33856
5231,33984
5232,33984
5233,33984
5234,34048
5235,34112
5236,34048
5237,33984
5238,33920
5239,33920
5240,33856
5241,33856
5242,33856
5243,33792
5244,33728
5245,33664
5246,33664
5247,33728
5248,33920
5249,33984
5250,34048
5251,34048
5252,34112
5253,34176
5254,34368
5255,34560
5256,34688
5257,34688
5258,34688
5259,34624
5260,34496
5261,34432
5262,34240
5263,34112
5264,34048
5265,34176
5266,34176
5267,33984
5268,33728
5269,33536
5270,33408
5271,33408
5272,33472
5273,33472
5274,33472
5275,33408
5276,33280
5277,33344
5278,33408
5279,33408
5280,33472
5281,33536
5282,33536
5283,33408
5284,33408
5285,33984
5286,35584
5287,38208
5288,40960
5289,43008
5290,43648
5291,42432
5292,39808
5293,36672
5294,33920
5295,31872
5296,30656
5297,30272
5298,30464
5299,30976
5300,31552
5301,32064
5302,32448
5303,32704
5304,32896
5305,32960
5306,32896
5307,32960
5308,32960
5309,33024
5310,33088
5311,33216
5312,33280
5313,33280
5314,33280
5315,33280
5316,33344
5317,33472
5318,33536
5319,33664
5320,33792
5321,33792
5322,33728
5323,33728
5324,33728
5325,33856
5326,33920
5327,33920
5328,33984
5329,34048
5330,34112
5331,34176
5332,34112
5333,34112
5334,34048
5335,33984
5336,34112
5337,34176
5338,34304
5339,34432
5340,34496
5341,34560
5342,34624
5343,34688
5344,34752
5345,34880
5346,35008
5347,35072
5348,35136
5349,35136
5350,35200
5351,35392
5352,35584
5353,35712
5354,35712
5355,35712
5356,35648
5357,35456
5358,35200
5359,35008
5360,34688
5361,34304
5362,33920
5363,33664
5364,33472
5365,33216
5366,33024
5367,32832
5368,32640
5369,32512
5370,32384
5371,32320
5372,32192
5373,32192
5374,32320
5375,32512
5376,32704
5377,32832
5378,32960
5379,33024
5380,33152
5381,33216
5382,33216
5383,33088
5384,33088
5385,33152
5386,33344
5387,33408
5388,33344
5389,33280
5390,33216
5391,33408
5392,33536
5393,33600
5394,33600
5395,33600
5396,33664
5397,33728
5398,33600
5399,33536
5400,33536
5401,33664
5402,33792
5403,33856
5404,33920
5405,34112
5406,34240
5407,34240
5408,34048
5409,33984
5410,33920
5411,33920
5412,33920
5413,33920
5414,33984
5415,34048
5416,34112
5417,34048
5418,34048
5419,34048
5420,34048
5421,34048
5422,34112
5423,34176
5424,34112
5425,34112
5426,34112
5427,34048
5428,33984
5429,33984
5430,33920
5431,33920
5432,33920
5433,33792
5434,33856
5435,33984
5436,33920
5437,33856
5438,33856
5439,33920
5440,33856
5441,33792
5442,33664
5443,33664
5444,33728
5445,33856
5446,33856
5447,33920
5448,34048
5449,34048
5450,34176
5451,34176
5452,34176
5453,34240
5454,34432
5455,34688
5456,34880
5457,34880
5458,34688
5459,34560
5460,34496
5461,34304
5462,34112
5463,33984
5464,34048
5465,34112
5466,34112
5467,33984
5468,33792
5469,33536
5470,33472
5471,33408
5472,33280
5473,33280
5474,33344
5475,33536
5476,33664
5477,33664
5478,33664
5479,33792
5480,33792
5481,33664
5482,33344
5483,33088
5484,33024
5485,33728
5486,35520
5487,38144
5488,40832
5489,42752
5490,43264
5491,41472
5492,39424
5493,36544
5494,34112
5495,32320
5496,31360
5497,31040
5498,31168
5499,31488
5500,31808
5501,32064
5502,32320
5503,32448
5504,32512
5505,32640
5506,32768
5507,32960
5508,33088
5509,33152
5510,33216
5511,33344
5512,33344
5513,33408
5514,33408
5515,33408
5516,33344
5517,33344
5518,33408
5519,33472
5520,33600
5521,33664
5522,33728
5523,33856
5524,33920
5525,33920
5526,33856
5527,33856
5528,33984
5529,34048
5530,34112
5531,34176
5532,34112
5533,34176
5534,34176
5535,34304
5536,34432
5537,34368
5538,34240
5539,34176
5540,34240
5541,34496
5542,34688
5543,34880
5544,35008
5545,35136
5546,35136
5547,35200
5548,35264
5549,35264
5550,35264
5551,35200
5552,35200
5553,35264
5554,35264
5555,35264
5556,35200
5557,35136
5558,35136
5559,34944
5560,34624
5561,34240
5562,33856
5563,33472
5564,33152
5565,32896
5566,32640
5567,32512
5568,32512
5569,32512
5570,32576
5571,32576
5572,32640
5573,32640
5574,32704
5575,32704
5576,32768
5577,32768
5578,32896
5579,32960
5580,33024
5581,33152
5582,33216
5583,33216
5584,33088
5585,33088
5586,33152
5587,33216
5588,33280
5589,33280
5590,33280
5591,33216
5592,33216
5593,33344
5594,33536
5595,33728
5596,33664
5597,33664
5598,33728
5599,33920
5600,34112
5601,34304
5602,34304
5603,34176
5604,34048
5605,33984
5606,33984
5607,34112
5608,34240
5609,34240
5610,34240
5611,34240
5612,34176
5613,34048
5614,33984
5615,34048
5616,34112
5617,34112
5618,34048
5619,33984
5620,33984
5621,33920
5622,33792
5623,33664
5624,33664
5625,33664
5626,33856
5627,34048
5628,34176
5629,33984
5630,33792
5631,33856
5632,33984
5633,33984
5634,34048
5635,34048
5636,33920
5637,33792
5638,33856
5639,33856
5640,33856
5641,33792
5642,33792
5643,33728
5644,33728
5645,33792
5646,33792
5647,33856
5648,33856
5649,33856
5650,33920
5651,33984
5652,33984
5653,33920
5654,33856
5655,33792
5656,33792
5657,33792
5658,33856
5659,34048
5660,34176
5661,34240
5662,34368
5663,34496
5664,34688
5665,34816
5666,34816
5667,34752
5668,34560
5669,34304
5670,34112
5671,33984
5672,33920
5673,33792
5674,33792
5675,33856
5676,33728
5677,33600
5678,33536
5679,33472
5680,33344
5681,33408
5682,33472
5683,33536
5684,33600
5685,33600
5686,33472
5687,33408
5688,33344
5689,33408
5690,33472
5691,33472
5692,33536
5693,34432
5694,36288
5695,39040
5696,41664
5697,43520
5698,43776
5699,42112
5700,39104
5701,35840
5702,33216
5703,31232
5704,30272
5705,30144
5706,30656
5707,31360
5708,31872
5709,32192
5710,32384
5711,32512
5712,32576
5713,32640
5714,32768
5715,32832
5716,32960
5717,33024
5718,33216
5719,33280
5720,33344
5721,33344
5722,33280
5723,33280
5724,33280
5725,33408
5726,33536
5727,33664
5728,33600
5729,33600
5730,33600
5731,33728
5732,33664
5733,33600
5734,33664
5735,33664
5736,33792
5737,33920
5738,34048
5739,34176
5740,34112
5741,34112
5742,34112
5743,34176
5744,34240
5745,34304
5746,34368
5747,34368
5748,34432
5749,34560
5750,34688
5751,34752
5752,34880
5753,35008
5754,35008
5755,34944
5756,35008
5757,35136
5758,35392
5759,35456
5760,35520
5761,35584
5762,35456
5763,35392
5764,35392
5765,35200
5766,35008
5767,34944
5768,34752
5769,34496
5770,34240
5771,33856
5772,33536
5773,33280
5774,33088
5775,32832
5776,32640
5777,32512
5778,32448
5779,32512
5780,32512
5781,32512
5782,32384
5783,32320
5784,32448
5785,32704
5786,32832
5787,32960
5788,33088
5789,33216
5790,33280
5791,33344
5792,33280
5793,33216
5794,33216
5795,33344
5796,33408
5797,33472
5798,33536
5799,33536
5800,33536
5801,33536
5802,33536
5803,33536
5804,33536
5805,33536
5806,33600
5807,33600
5808,33856
5809,33920
5810,33920
5811,33984
5812,33984
5813,34048
5814,33984
5815,33984
5816,33984
5817,34048
5818,34176
5819,34240
5820,34304
5821,34176
5822,34048
5823,33920
5824,33856
5825,33856
5826,33984
5827,33984
5828,34048
5829,34048
5830,34048
5831,34112
5832,34112
5833,34048
5834,33984
5835,33920
5836,33856
5837,33792
5838,33792
5839,33856
5840,33920
5841,33984
5842,33920
5843,33856
5844,33728
5845,33664
5846,33664
5847,33792
5848,33984
5849,34048
5850,33984
5851,33920
5852,33856
5853,33792
5854,33728
5855,33792
5856,33856
5857,33792
5858,33792
5859,33792
5860,33920
5861,33920
5862,33920
5863,33984
5864,33984
5865,34048
5866,34112
5867,34048
5868,33920
5869,33792
5870,33856
5871,33920
5872,33920
5873,33984
5874,33984
5875,33856
5876,33728
5877,33792
5878,33856
5879,34048
5880,34304
5881,34496
5882,34624
5883,34688
5884,34688
5885,34624
5886,34560
5887,34496
5888,34368
5889,34304
5890,34176
5891,34112
5892,34048
5893,33984
5894,33792
5895,33536
5896,33408
5897,33344
5898,33408
5899,33536
5900,33600
5901,33664
5902,33600
5903,33536
5904,33536
5905,33600
5906,33664
5907,33600
5908,33472
5909,33408
5910,33920
5911,35968
5912,37696
5913,40576
5914,42816
5915,43712
5916,42752
5917,40320
5918,37248
5919,34432
5920,32192
5921,30784
5922,30272
5923,30400
5924,30912
5925,31488
5926,32064
5927,32448
5928,32640
5929,32768
5930,32768
5931,32768
5932,32704
5933,32704
5934,33024
5935,33152
5936,33280
5937,33408
5938,33472
5939,33664
5940,33728
5941,33664
5942,33536
5943,33344
5944,33280
5945,33344
5946,33536
5947,33728
5948,33856
5949,33856
5950,33792
5951,33856
5952,33920
5953,33984
5954,33984
5955,33920
5956,33856
5957,33856
5958,33984
5959,34048
5960,34112
5961,34176
5962,34304
5963,34368
5964,34496
5965,34560
5966,34560
5967,34496
5968,34496
5969,34688
5970,34816
5971,35072
5972,35200
5973,35392
5974,35392
5975,35328
5976,35328
5977,35328
5978,35264
5979,35264
5980,35328
5981,35520
5982,35584
5983,35392
5984,35136
5985,34752
5986,34432
5987,34112
5988,33856
5989,33664
5990,33280
5991,33024
5992,32896
5993,32832
5994,32704
5995,32576
5996,32512
5997,32512
5998,32640
5999,32640
6000,32704
6001,32704
6002,32768
6003,32896
6004,32960
6005,32960
6006,32960
6007,33024
6008,33024
6009,33088
6010,33152
6011,33216
6012,33152
6013,33152
6014,33216
6015,33344
6016,33472
6017,33600
6018,33536
6019,33600
6020,33664
6021,33728
6022,33792
6023,33792
6024,33728
6025,33728
6026,33792
6027,33920
6028,34048
6029,34112
6030,34048
6031,33856
6032,33792
6033,33920
6034,33984
6035,33920
6036,33920
6037,33984
6038,33984
6039,34112
6040,34176
6041,34240
6042,34304
6043,34240
6044,34176
6045,34048
6046,33856
6047,33792
6048,33856
6049,33920
6050,33984
6051,34048
6052,34112
6053,34112
6054,34112
6055,34112
6056,34048
6057,33920
6058,33792
6059,33792
6060,33856
6061,33792
6062,33728
6063,33728
6064,33792
6065,33856
6066,33920
6067,33984
6068,33984
6069,33920
6070,33856
6071,33856
6072,33856
6073,33920
6074,33984
6075,34176
6076,34432
6077,34560
6078,34688
6079,34752
6080,34752
6081,34752
6082,34624
6083,34368
6084,33920
6085,33984
6086,34048
6087,34048
6088,33984
6089,33792
6090,33408
6091,33344
6092,33280
6093,33024
6094,33152
6095,33472
6096,33728
6097,33792
6098,33728
6099,33664
6100,33664
6101,33536
6102,33280
6103,32960
6104,32832
6105,33472
6106,33664
6107,36032
6108,38720
6109,41280
6110,42880
6111,43136
6112,41664
6113,38848
6114,38144
6115,33920
6116,32192
6117,31232
6118,30848
6119,30848
6120,31424
6121,31424
6122,32128
6123,32448
6124,32640
6125,32704
6126,32896
6127,33024
6128,33024
6129,32960
6130,32960
6131,33024
6132,33152
6133,33152
6134,33152
6135,33216
6136,33216
6137,33216
6138,33408
6139,33536
6140,33536
6141,33536
6142,33664
6143,33920
6144,33984
6145,33984
6146,33920
6147,33856
6148,33792
6149,33920
6150,33984
6151,33984
6152,34048
6153,34048
6154,34112
6155,34176
6156,34176
6157,34304
6158,34432
6159,34496
6160,34496
6161,34496
6162,34560
6163,34688
6164,34880
6165,34944
6166,34880
6167,34880
6168,35072
6169,35200
6170,35328
6171,35392
6172,35328
6173,35200
6174,35136
6175,35200
6176,35200
6177,35136
6178,35072
6179,34944
6180,34752
6181,34496
6182,34112
6183,33728
6184,33408
6185,33216
6186,33024
6187,32832
6188,32640
6189,32384
6190,32256
6191,32128
6192,32256
6193,32384
6194,32576
6195,32768
6196,32960
6197,33088
6198,33152
6199,33088
6200,33088
6201,33024
6202,33088
6203,33152
6204,33152
6205,33152
6206,33216
6207,33280
6208,33408
6209,33408
6210,33344
6211,33344
6212,33408
6213,33344
6214,33280
6215,33216
6216,33280
6217,33472
6218,33792
6219,33984
6220,33984
6221,33984
6222,34048
6223,34112
6224,34048
6225,33920
6226,33792
6227,33856
6228,33984
6229,34176
6230,34240
6231,34240
6232,34240
6233,34176
6234,34240
6235,34176
6236,34176
6237,34112
6238,34048
6239,34048
6240,33984
6241,33984
6242,33984
6243,34048
6244,33920
6245,33856
6246,33856
6247,33984
6248,33984
6249,33984
6250,33856
6251,33728
6252,33664
6253,33728
6254,33792
6255,33856
6256,33920
6257,33856
6258,33856
6259,33920
6260,33984
6261,34112
6262,34304
6263,34496
6264,34624
6265,34688
6266,34816
6267,34880
6268,34880
6269,34752
6270,34624
6271,34560
6272,34304
6273,33920
6274,33600
6275,33536
6276,33664
6277,33728
6278,33664
6279,33664
6280,33472
6281,33280
6282,33216
6283,33280
6284,33408
6285,33536
6286,33536
6287,33472
6288,33344
6289,33408
6290,33536
6291,33536
6292,33344
6293,33152
6294,33024
6295,33408
6296,34816
6297,37120
6298,39872
6299,42176
6300,43328
6301,42752
6302,40512
6303,37440
6304,34560
6305,32384
6306,31040
6307,30528
6308,30720
6309,31232
6310,31808
6311,32128
6312,32384
6313,32576
6314,32640
6315,32576
6316,32576
6317,32704
6318,32832
6319,32896
6320,33024
6321,33216
6322,33280
6323,33280
6324,33216
6325,33216
6326,33344
6327,33472
6328,33536
6329,33600
6330,33664
6331,33792
6332,33856
6333,33792
6334,33856
6335,33920
6336,33920
6337,33984
6338,34048
6339,34240
6340,34368
6341,34304
6342,34176
6343,34048
6344,34048
6345,34112
6346,34176
6347,34240
6348,34240
6349,34176
6350,34432
6351,34688
6352,34752
6353,34816
6354,34880
6355,34944
6356,34944
6357,35008
6358,35072
6359,35264
6360,35392
6361,35392
6362,35520
6363,35648
6364,35712
6365,35648
6366,35520
6367,35264
6368,35008
6369,34752
6370,34368
6371,34112
6372,33856
6373,33600
6374,33408
6375,33152
6376,32832
6377,32512
6378,32512
6379,32576
6380,32576
6381,32576
6382,32640
6383,32576
6384,32512
6385,32576
6386,32640
6387,32768
6388,32832
6389,32896
6390,32960
6391,32960
6392,32896
6393,32896
6394,33024
6395,33088
6396,33216
6397,33344
6398,33536
6399,33664
6400,33600
6401,33536
6402,33536
6403,33536
6404,33472
6405,33472
6406,33472
6407,33536
6408,33600
6409,33728
6410,33856
6411,33920
6412,33920
6413,33856
6414,33856
6415,33856
6416,33792
6417,33856
6418,34048
6419,34176
6420,34240
6421,34176
6422,34176
6423,34176
6424,34112
6425,33920
6426,33856
6427,33920
6428,34048
6429,34112
6430,34112
6431,34112
6432,34112
6433,34112
6434,34112
6435,34048
6436,33920
6437,33856
6438,33856
6439,33920
6440,33920
6441,33792
6442,33792
6443,33920
6444,33920
6445,33920
6446,33856
6447,33856
6448,33856
6449,33856
6450,33856
6451,33856
6452,33984
6453,34048
6454,34176
6455,34368
6456,34496
6457,34688
6458,34816
6459,34880
6460,34880
6461,34752
6462,34624
6463,34432
6464,34240
6465,34176
6466,34112
6467,33984
6468,33984
6469,33856
6470,33600
6471,33280
6472,33088
6473,33024
6474,33152
6475,33216
6476,33280
6477,33344
6478,33344
6479,33280
6480,33344
6481,33344
6482,33408
6483,33408
6484,33344
6485,33280
6486,33280
6487,33472
6488,34432
6489,36288
6490,38976
6491,41600
6492,43264
6493,43328
6494,41600
6495,38720
6496,35776
6497,33216
6498,31424
6499,30400
6500,30336
6501,30848
6502,31488
6503,32000
6504,32320
6505,32512
6506,32640
6507,32704
6508,32768
6509,32768
6510,32768
6511,32832
6512,32896
6513,32896
6514,32960
6515,33152
6516,33280
6517,33472
6518,33664
6519,33664
6520,33600
6521,33600
6522,33600
6523,33600
6524,33600
6525,33728
6526,33856
6527,33920
6528,33856
6529,33920
6530,33984
6531,33984
6532,33984
6533,33984
6534,34112
6535,34112
6536,34112
6537,34240
6538,34368
6539,34432
6540,34432
6541,34432
6542,34432
6543,34496
6544,34560
6545,34688
6546,34816
6547,34944
6548,35008
6549,35200
6550,35328
6551,35456
6552,35520
6553,35584
6554,35584
6555,35584
6556,35712
6557,35712
6558,35520
6559,35264
6560,35072
6561,34880
6562,34688
6563,34432
6564,34112
6565,33856
6566,33536
6567,33216
6568,33024
6569,32896
6570,32704
6571,32512
6572,32448
6573,32384
6574,32448
6575,32384
6576,32448
6577,32512
6578,32576
6579,32576
6580,32704
6581,32896
6582,32960
6583,32896
6584,32896
6585,33024
6586,33152
6587,33280
6588,33344
6589,33408
6590,33408
6591,33408
6592,33472
6593,33472
6594,33472
6595,33408
6596,33408
6597,33536
6598,33600
6599,33600
6600,33536
6601,33600
6602,33728
6603,33856
6604,33920
6605,33984
6606,33984
6607,34048
6608,34048
6609,34048
6610,34048
6611,33984
6612,33984
6613,33984
6614,34048
6615,33984
6616,33984
6617,33920
6618,33920
6619,33920
6620,33920
6621,33984
6622,34048
6623,33984
6624,33920
6625,33984
6626,34112
6627,34176
6628,34112
6629,33920
6630,33792
6631,33792
6632,33792
6633,33792
6634,33920
6635,33984
6636,34048
6637,34176
6638,34304
6639,34432
6640,34560
6641,34688
6642,34880
6643,35008
6644,35008
6645,34752
6646,34560
6647,34368
6648,34176
6649,34048
6650,34048
6651,33984
6652,33920
6653,33856
6654,33664
6655,33472
6656,33344
6657,33280
6658,33152
6659,33088
6660,33088
6661,33088
6662,33088
6663,33216
6664,33408
6665,33664
6666,33728
6667,33856
6668,33792
6669,33600
6670,33280
6671,33024
6672,33024
6673,33856
6674,35776
6675,38528
6676,41024
6677,42688
6678,42880
6679,41408
6680,38848
6681,36032
6682,33536
6683,31872
6684,31040
6685,30784
6686,30912
6687,31360
6688,31872
6689,32384
6690,32640
6691,32640
6692,32640
6693,32704
6694,32768
6695,32768
6696,32832
6697,32960
6698,33088
6699,33152
6700,33280
6701,33344
6702,33472
6703,33536
6704,33664
6705,33664
6706,33600
6707,33536
6708,33600
6709,33664
6710,33792
6711,33920
6712,34048
6713,34112
6714,34112
6715,33984
6716,33856
6717,33792
6718,33856
6719,34048
6720,34240
6721,34240
6722,34240
6723,34240
6724,34368
6725,34432
6726,34496
6727,34624
6728,34688
6729,34688
6730,34816
6731,34880
6732,34880
6733,34880
6734,35008
6735,35200
6736,35264
6737,35392
6738,35520
6739,35520
6740,35456
6741,35456
6742,35520
6743,35520
6744,35456
6745,35200
6746,34816
6747,34368
6748,34048
6749,33728
6750,33472
6751,33344
6752,33280
6753,33088
6754,32896
6755,32768
6756,32640
6757,32512
6758,32448
6759,32512
6760,32640
6761,32704
6762,32704
6763,32832
6764,32896
6765,32832
6766,32832
6767,32896
6768,33024
6769,33152
6770,33152
6771,33152
6772,33152
6773,33216
6774,33216
6775,33280
6776,33408
6777,33408
6778,33472
6779,33536
6780,33536
6781,33408
6782,33344
6783,33472
6784,33600
6785,33728
6786,33728
6787,33728
6788,33728
6789,33792
6790,33920
6791,34048
6792,34048
6793,33984
6794,33920
6795,33984
6796,34112
6797,34304
6798,34432
6799,34368
6800,34368
6801,34432
6802,34560
6803,34752
6804,34816
6805,34816
6806,34752
6807,34624
6808,34688
6809,34752
6810,34944
6811,35008
6812,34944
6813,34752
6814,34496
6815,34240
6816,34112
6817,34176
6818,34176
6819,34112
6820,33920
6821,33664
6822,33472
6823,33216
6824,33024
6825,33024
6826,32960
6827,32896
6828,32960
6829,33152
6830,33408
6831,33408
6832,33216
6833,33088
6834,33024
6835,33088
6836,33216
6837,33280
6838,33216
6839,33152
6840,33088
6841,33472
6842,34688
6843,36800
6844,39552
6845,41856
6846,43072
6847,42688
6848,40576
6849,37888
6850,35264
6851,33152
6852,31552
6853,30720
6854,30592
6855,30976
6856,31488
6857,32000
6858,32192
6859,32384
6860,32384
6861,32448
6862,32576
6863,32832
6864,33088
6865,33152
6866,33216
6867,33280
6868,33344
6869,33408
6870,33408
6871,33408
6872,33408
6873,33408
6874,33472
6875,33600
6876,33792
6877,33856
6878,33856
6879,33792
6880,33728
6881,33600
6882,33536
6883,33600
6884,33984
6885,34240
6886,34368
6887,34368
6888,34304
6889,34304
6890,34304
6891,34304
6892,34368
6893,34432
6894,34496
6895,34560
6896,34624
6897,34752
6898,34816
6899,34944
6900,35072
6901,35200
6902,35264
6903,35328
6904,35264
6905,35264
6906,35264
6907,35328
6908,35392
6909,35456
6910,35584
6911,35520
6912,35392
6913,35136
6914,34880
6915,34624
6916,34240
6917,33920
6918,33664
6919,33472
6920,33344
6921,33088
6922,32896
6923,32640
6924,32512
6925,32512
6926,32448
6927,32448
6928,32384
6929,32448
6930,32640
6931,32768
6932,32896
6933,32960
6934,33024
6935,32960
6936,32832
6937,32768
6938,32896
6939,33024
6940,33216
6941,33280
6942,33344
6943,33408
6944,33472
6945,33472
6946,33408
6947,33344
6948,33344
6949,33536
6950,33728
6951,33792
6952,33728
6953,33664
6954,33600
6955,33728
6956,33856
6957,33984
6958,33984
6959,33984
6960,33984
6961,33984
6962,34048
6963,34048
6964,34112
6965,34176
6966,34176
6967,34112
6968,33920
6969,33792
6970,33792
6971,33920
6972,34048
6973,34176
6974,34176
6975,34240
6976,34240
6977,34176
6978,34112
6979,33984
6980,33728
6981,33536
6982,33536
6983,33664
6984,33856
6985,34048
6986,34048
6987,33984
6988,33984
6989,34048
6990,34048
6991,33984
6992,33920
6993,33920
6994,33920
6995,33984
6996,33984
6997,34048
6998,33984
6999,33920
7000,33920
7001,34240
7002,34496
7003,34560
7004,34624
7005,34880
7006,35008
7007,35008
7008,34880
7009,34688
7010,34368
7011,34176
7012,34112
7013,33984
7014,33920
7015,33920
7016,33920
7017,33792
7018,33664
7019,33536
7020,33344
7021,33216
7022,33152
7023,33152
7024,33216
7025,33280
7026,33280
7027,33216
7028,33216
7029,33344
7030,33600
7031,33728
7032,33536
7033,33408
7034,33344
7035,33472
7036,34304
7037,36224
7038,38976
7039,41728
7040,43456
7041,43520
7042,41728
7043,38784
7044,35712
7045,33152
7046,31360
7047,30400
7048,30400
7049,30912
7050,31424
7051,31872
7052,32320
7053,32576
7054,32704
7055,32704
7056,32768
7057,32832
7058,32832
7059,32896
7060,32960
7061,33152
7062,33280
7063,33344
7064,33408
7065,33344
7066,33216
7067,33216
7068,33408
7069,33664
7070,33792
7071,33856
7072,33792
7073,33728
7074,33664
7075,33728
7076,33856
7077,33920
7078,33920
7079,34048
7080,34112
7081,34048
7082,33856
7083,33792
7084,33856
7085,33920
7086,34048
7087,34240
7088,34496
7089,34560
7090,34560
7091,34560
7092,34560
7093,34688
7094,34752
7095,34880
7096,35008
7097,35136
7098,35264
7099,35328
7100,35392
7101,35648
7102,35904
7103,35968
7104,35904
7105,35712
7106,35456
7107,35136
7108,34816
7109,34688
7110,34624
7111,34432
7112,34112
7113,33792
7114,33536
7115,33280
7116,33088
7117,32896
7118,32832
7119,32768
7120,32768
7121,32768
7122,32832
7123,32768
7124,32704
7125,32576
7126,32512
7127,32640
7128,32832
7129,32960
7130,33024
7131,33024
7132,33024
7133,33088
7134,33088
7135,33216
7136,33344
7137,33408
7138,33408
7139,33472
7140,33600
7141,33664
7142,33664
7143,33728
7144,33856
7145,33920
7146,33856
7147,33728
7148,33664
7149,33664
7150,33728
7151,33920
7152,33920
7153,33856
7154,33856
7155,33920
7156,33920
7157,33728
7158,33664
7159,33728
7160,33920
7161,34048
7162,34112
7163,34240
7164,34240
7165,34240
7166,34304
7167,34304
7168,34304
7169,34304
7170,34176
7171,34048
7172,33984
7173,33984
7174,33920
7175,33920
7176,33856
7177,33920
7178,34048
7179,34176
7180,34176
7181,33984
7182,33792
7183,33664
7184,33728
7185,33856
7186,33920
7187,33856
7188,33856
7189,33856
7190,33920
7191,33856
7192,33792
7193,33792
7194,33728
7195,33664
7196,33664
7197,33792
7198,33984
7199,34112
7200,34176
7201,34048
7202,33984
7203,33856
7204,33792
7205,33792
7206,33856
7207,33920
7208,33920
7209,33920
7210,34048
7211,34176
7212,34368
7213,34560
7214,34816
7215,34880
7216,34752
7217,34624
7218,34496
7219,34432
7220,34304
7221,34112
7222,33984
7223,33920
7224,33856
7225,33856
7226,33856
7227,33728
7228,33600
7229,33472
7230,33472
7231,33408
7232,33344
7233,33344
7234,33408
7235,33600
7236,33664
7237,33728
7238,33792
7239,33728
7240,33600
7241,33472
7242,33472
7243,33920
7244,35200
7245,37440
7246,40192
7247,42496
7248,43584
7249,43008
7250,40896
7251,37888
7252,34944
7253,32384
7254,30784
7255,30208
7256,30464
7257,31104
7258,31680
7259,32064
7260,32256
7261,32448
7262,32512
7263,32576
7264,32640
7265,32704
7266,32832
7267,32896
7268,33024
7269,33152
7270,33344
7271,33536
7272,33600
7273,33664
7274,33664
7275,33600
7276,33664
7277,33728
7278,33856
7279,33920
7280,33856
7281,33792
7282,33728
7283,33664
7284,33664
7285,33728
7286,33856
7287,33920
7288,33984
7289,34048
7290,34112
7291,34240
7292,34368
7293,34432
7294,34304
7295,34176
7296,34176
7297,34368
7298,34496
7299,34560
7300,34688
7301,34816
7302,34944
7303,35008
7304,35008
7305,35008
7306,35072
7307,35264
7308,35328
7309,35392
7310,35456
7311,35520
7312,35584
7313,35648
7314,35456
7315,35392
7316,35264
7317,35072
7318,34752
7319,34432
7320,33984
7321,33472
7322,33216
7323,32960
7324,32768
7325,32704
7326,32576
7327,32576
7328,32640
7329,32576
7330,32448
7331,32448
7332,32448
7333,32448
7334,32448
7335,32576
7336,32768
7337,32896
7338,33024
7339,33152
7340,33280
7341,33344
7342,33408
7343,33408
7344,33344
7345,33344
7346,33344
7347,33344
7348,33344
7349,33280
7350,33280
7351,33408
7352,33600
7353,33728
7354,33728
7355,33600
7356,33472
7357,33600
7358,33728
7359,33792
7360,33792
7361,33856
7362,33920
7363,34048
7364,34048
7365,34048
7366,33984
7367,33984
7368,33984
7369,34112
7370,34176
7371,34048
7372,34048
7373,34112
7374,34048
7375,34048
7376,34048
7377,34048
7378,33984
7379,33920
7380,33856
7381,33920
7382,33920
7383,33984
7384,33984
7385,34048
7386,33984
7387,33984
7388,33984
7389,33856
7390,33792
7391,33856
7392,33920
7393,33920
7394,33984
7395,33984
7396,34048
7397,34112
7398,34048
7399,33984
7400,33792
7401,33792
7402,33856
7403,33984
7404,34048
7405,34048
7406,33920
7407,33792
7408,33728
7409,33728
7410,33664
7411,33664
7412,33664
7413,33792
7414,33920
7415,33984
7416,33856
7417,33792
7418,33792
7419,33792
7420,33856
7421,33984
7422,34240
7423,34496
7424,34688
7425,34816
7426,34816
7427,34688
7428,34624
7429,34624
7430,34560
7431,34496
7432,34368
7433,34240
7434,34112
7435,34048
7436,33984
7437,33792
7438,33728
7439,33600
7440,33536
7441,33536
7442,33472
7443,33472
7444,33408
7445,33408
7446,33408
7447,33472
7448,33600
7449,33664
7450,33728
7451,33728
7452,33536
7453,33280
7454,33152
7455,33728
7456,35520
7457,38144
7458,40832
7459,42752
7460,43328
7461,42048
7462,39360
7463,36416
7464,33920
7465,32192
7466,31232
7467,30848
7468,30912
7469,31296
7470,31680
7471,32064
7472,32256
7473,32320
7474,32384
7475,32512
7476,32704
7477,32960
7478,33088
7479,33088
7480,33216
7481,33344
7482,33472
7483,33536
7484,33536
7485,33600
7486,33600
7487,33408
7488,33280
7489,33344
7490,33536
7491,33728
7492,33920
7493,33984
7494,33984
7495,33856
7496,33792
7497,33856
7498,33984
7499,33984
7500,33984
7501,33984
7502,33984
7503,33984
7504,33984
7505,34048
7506,34048
7507,34048
7508,34176
7509,34432
7510,34496
7511,34432
7512,34496
7513,34560
7514,34816
7515,34944
7516,35072
7517,35200
7518,35392
7519,35520
7520,35648
7521,35648
7522,35584
7523,35520
7524,35456
7525,35392
7526,35264
7527,35072
7528,34880
7529,34560
7530,34304
7531,34112
7532,33920
7533,33600
7534,33344
7535,33152
7536,32960
7537,32768
7538,32640
7539,32576
7540,32576
7541,32576
7542,32512
7543,32448
7544,32512
7545,32640
7546,32768
7547,32832
7548,32832
7549,32896
7550,32896
7551,32960
7552,33088
7553,33152
7554,33280
7555,33344
7556,33344
7557,33280
7558,33280
7559,33280
7560,33472
7561,33536
7562,33536
7563,33536
7564,33472
7565,33536
7566,33536
7567,33536
7568,33600
7569,33600
7570,33664
7571,33664
7572,33792
7573,33856
7574,33920
7575,34048
7576,34048
7577,33984
7578,33920
7579,33920
7580,34048
7581,34176
7582,34240
7583,34176
7584,34048
7585,34048
7586,34112
7587,34048
7588,33984
7589,34048
7590,34112
7591,34048
7592,33984
7593,33984
7594,34112
7595,34176
7596,34112
7597,34048
7598,34048
7599,34048
7600,33984
7601,33984
7602,33856
7603,33664
7604,33536
7605,33408
7606,33472
7607,33536
7608,33728
7609,33856
7610,33984
7611,34048
7612,34048
7613,33984
7614,33984
7615,33920
7616,33920
7617,33984
7618,34048
7619,34112
7620,34240
7621,34432
7622,34496
7623,34560
7624,34688
7625,34624
7626,34624
7627,34560
7628,34496
7629,34368
7630,34240
7631,34048
7632,33920
7633,33792
7634,33792
7635,33728
7636,33728
7637,33600
7638,33536
7639,33408
7640,33344
7641,33344
7642,33344
7643,33408
7644,33600
7645,33664
7646,33664
7647,33664
7648,33600
7649,33536
7650,33344
7651,32960
7652,32960
7653,33664
7654,35392
7655,37952
7656,40704
7657,42752
7658,43456
7659,42368
7660,39872
7661,36928
7662,34368
7663,32320
7664,31040
7665,30592
7666,30656
7667,31040
7668,31552
7669,32064
7670,32448
7671,32576
7672,32704
7673,32768
7674,32832
7675,32960
7676,32960
7677,33088
7678,33152
7679,33216
7680,33280
7681,33344
7682,33344
7683,33536
7684,33664
7685,33600
7686,33472
7687,33472
7688,33472
7689,33472
7690,33536
7691,33728
7692,33920
7693,34048
7694,34048
7695,33984
7696,33856
7697,33664
7698,33728
7699,33920
7700,34048
7701,34176
7702,34240
7703,34240
7704,34240
7705,34240
7706,34240
7707,34368
7708,34560
7709,34752
7710,34816
7711,34880
7712,34816
7713,34880
7714,35072
7715,35328
7716,35392
7717,35392
7718,35392
7719,35456
7720,35520
7721,35520
7722,35520
7723,35520
7724,35456
7725,35264
7726,34944
7727,34624
7728,34240
7729,33920
7730,33600
7731,33344
7732,33152
7733,32960
7734,32896
7735,32896
7736,32896
7737,32768
7738,32768
7739,32640
7740,32576
7741,32512
7742,32512
7743,32576
7744,32768
7745,32896
7746,32960
7747,32896
7748,32896
7749,33024
7750,33152
7751,33344
7752,33408
7753,33408
7754,33344
7755,33408
7756,33408
7757,33344
7758,33408
7759,33408
7760,33408
7761,33536
7762,33600
7763,33728
7764,33728
7765,33792
7766,33856
7767,33920
7768,33984
7769,34048
7770,34048
7771,34112
7772,34176
7773,34112
7774,34048
7775,33984
7776,33920
7777,33856
7778,33856
7779,33856
7780,33920
7781,33984
7782,34112
7783,34176
7784,34304
7785,34304
7786,34304
7787,34304
7788,34304
7789,34240
7790,34048
7791,33984
7792,33984
7793,34048
7794,34048
7795,33984
7796,33984
7797,33920
7798,33984
7799,33984
7800,33984
7801,33920
7802,33856
7803,33920
7804,33792
7805,33664
7806,33664
7807,33600
7808,33664
7809,33664
7810,33728
7811,33856
7812,33984
7813,33984
7814,33984
7815,33920
7816,33920
7817,33920
7818,33920
7819,33920
7820,33856
7821,33792
7822,33728
7823,33728
7824,33920
7825,34048
7826,34112
7827,34112
7828,34112
7829,34112
7830,34048
7831,34048
7832,34048
7833,33984
7834,33984
7835,34112
7836,34240
7837,34304
7838,34496
7839,34688
7840,34752
7841,34816
7842,34816
7843,34688
7844,34496
7845,34304
7846,34112
7847,33984
7848,33920
7849,33920
7850,33856
7851,33856
7852,33792
7853,33728
7854,33664
7855,33536
7856,33408
7857,33408
7858,33408
7859,33536
7860,33600
7861,33600
7862,33536
7863,33536
7864,33536
7865,33472
7866,33216
7867,33280
7868,33984
7869,35584
7870,38016
7871,40768
7872,42816
7873,43520
7874,42368
7875,39936
7876,35584
7877,34112
7878,32128
7879,30784
7880,30400
7881,30656
7882,31232
7883,31808
7884,32256
7885,32448
7886,32512
7887,32576
7888,32704
7889,32896
7890,32960
7891,32896
7892,32896
7893,33088
7894,33280
7895,33344
7896,33280
7897,33152
7898,33216
7899,33344
7900,33536
7901,33600
7902,33664
7903,33664
7904,33728
7905,33856
7906,33856
7907,33920
7908,33920
7909,33856
7910,33920
7911,33984
7912,34048
7913,34112
7914,34240
7915,34176
7916,34112
7917,34112
7918,34176
7919,34368
7920,34496
7921,34560
7922,34496
7923,34496
7924,34496
7925,34560
7926,34624
7927,34688
7928,34688
7929,34624
7930,35072
7931,35264
7932,35520
7933,35648
7934,35712
7935,35712
7936,35776
7937,35776
7938,35648
7939,35456
7940,35200
7941,34880
7942,34560
7943,34176
7944,33856
7945,33728
7946,33408
7947,33280
7948,33088
7949,32896
7950,32512
7951,32448
7952,32384
7953,32448
7954,32576
7955,32704
7956,32768
7957,32768
7958,32768
7959,32704
7960,32960
7961,32960
7962,32896
7963,32896
7964,33024
7965,33216
7966,33152
7967,33216
7968,33280
7969,33472
7970,33472
7971,33472
7972,33472
7973,33536
7974,33536
7975,33536
7976,33536
7977,33536
7978,33472
7979,33472
7980,33472
7981,33408
7982,33664
7983,33792
7984,33920
7985,34048
7986,34048
7987,33984
7988,33920
7989,33920
7990,33984
7991,33984
7992,34048
7993,34176
7994,34304
7995,34240
7996,34176
7997,34048
7998,33984
7999,33920
8000,33984
8001,34048
8002,34112
8003,34048
8004,33984
8005,33856
8006,33792
8007,33856
8008,33792
8009,33792
8010,33792
8011,33856
8012,33920
8013,33984
8014,33984
8015,33920
8016,33920
8017,33920
8018,33856
8019,33920
8020,33984
8021,34048
8022,33984
8023,33792
8024,33600
8025,33664
8026,33600
8027,33792
8028,33920
8029,33920
8030,33920
8031,33920
8032,33856
8033,33792
8034,33792
8035,33856
8036,33920
8037,33984
8038,33920
8039,33856
8040,33792
8041,33728
8042,33856
8043,33856
8044,33792
8045,33792
8046,33856
8047,33984
8048,34048
8049,34176
8050,34240
8051,34368
8052,34624
8053,34944
8054,34944
8055,34816
8056,34752
8057,34496
8058,34240
8059,34112
8060,34048
8061,34112
8062,34176
8063,34176
8064,33984
8065,33728
8066,33472
8067,33344
8068,33280
8069,33344
8070,33472
8071,33536
8072,33600
8073,33600
8074,33664
8075,33792
8076,33920
8077,33856
8078,33664
8079,33408
8080,33152
8081,32960
8082,33472
8083,35392
8084,38208
8085,41152
8086,43008
8087,43584
8088,42368
8089,39744
8090,36608
8091,33984
8092,31936
8093,30784
8094,30400
8095,30784
8096,31424
8097,32000
8098,32320
8099,32576
8100,32704
8101,32768
8102,32832
8103,32832
8104,32896
8105,32960
8106,33088
8107,33088
8108,33152
8109,33152
8110,33216
8111,33280
8112,33344
8113,33408
8114,33472
8115,33536
8116,33536
8117,33600
8118,33664
8119,33664
8120,33664
8121,33664
8122,33728
8123,33728
8124,33792
8125,33920
8126,33856
8127,33856
8128,33920
8129,33920
8130,33984
8131,34112
8132,34368
8133,34496
8134,34496
8135,34432
8136,34368
8137,34368
8138,34496
8139,34624
8140,34688
8141,34816
8142,34944
8143,35072
8144,35136
8145,35200
8146,35136
8147,35136
8148,35200
8149,35392
8150,35456
8151,35520
8152,35584
8153,35584
8154,35392
8155,35136
8156,34880
8157,34560
8158,34240
8159,33920
8160,33664
8161,33536
8162,33408
8163,33152
8164,32832
8165,32576
8166,32448
8167,32384
8168,32384
8169,32448
8170,32512
8171,32512
8172,32576
8173,32704
8174,32832
8175,32960
8176,33088
8177,33152
8178,33152
8179,33088
8180,33024
8181,33024
8182,33216
8183,33408
8184,33536
8185,33536
8186,33344
8187,33280
8188,33344
8189,33472
8190,33536
8191,33600
8192,33600
8193,33536
8194,33536
8195,33600
8196,33600
8197,33664
8198,33792
8199,33920
8200,34048
8201,34176
8202,34240
8203,34240
8204,34112
8205,34112
8206,34112
8207,34048
8208,33984
8209,34048
8210,34048
8211,33984
8212,33856
8213,33728
8214,33728
8215,33856
8216,34048
8217,34112
8218,34112
8219,34112
8220,34112
8221,34176
8222,34176
8223,34176
8224,34112
8225,33984
8226,33856
8227,33856
8228,33856
8229,33856
8230,33792
8231,33856
8232,34048
8233,34048
8234,33920
8235,33856
8236,33920
8237,33856
8238,33664
8239,33600
8240,33728
8241,33920
8242,33856
8243,33792
8244,33920
8245,34240
8246,34560
8247,34880
8248,35008
8249,35072
8250,35008
8251,34816
8252,34560
8253,34304
8254,34112
8255,33920
8256,33856
8257,33728
8258,33664
8259,33728
8260,33664
8261,33600
8262,33472
8263,33472
8264,33472
8265,33344
8266,33344
8267,33408
8268,33408
8269,33280
8270,33216
8271,33408
8272,33600
8273,33536
8274,33280
8275,33088
8276,33216
8277,34304
8278,36416
8279,39232
8280,41792
8281,43264
8282,43136
8283,41216
8284,38336
8285,35648
8286,33536
8287,32000
8288,31104
8289,30848
8290,31040
8291,31296
8292,31552
8293,31808
8294,32064
8295,32384
8296,32704
8297,32960
8298,33152
8299,33152
8300,33216
8301,33216
8302,33152
8303,33088
8304,33088
8305,33216
8306,33344
8307,33472
8308,33600
8309,33600
8310,33600
8311,33600
8312,33600
8313,33664
8314,33728
8315,33792
8316,33728
8317,33792
8318,33856
8319,33920
8320,33984
8321,34112
8322,34240
8323,34304
8324,34304
8325,34240
8326,34240
8327,34240
8328,34368
8329,34496
8330,34496
8331,34432
8332,34496
8333,34560
8334,34752
8335,34880
8336,34880
8337,34880
8338,34944
8339,35072
8340,35072
8341,35136
8342,35200
8343,35328
8344,35328
8345,35392
8346,35392
8347,35456
8348,35328
8349,35136
8350,34944
8351,34624
8352,34368
8353,34176
8354,33856
8355,33472
8356,33216
8357,33088
8358,32896
8359,32576
8360,32320
8361,32256
8362,32384
8363,32576
8364,32640
8365,32768
8366,32832
8367,32832
8368,32832
8369,32832
8370,32896
8371,32960
8372,33024
8373,33152
8374,33152
8375,33216
8376,33216
8377,33344
8378,33408
8379,33408
8380,33408
8381,33408
8382,33408
8383,33408
8384,33472
8385,33536
8386,33600
8387,33664
8388,33728
8389,33728
8390,33728
8391,33792
8392,33792
8393,33856
8394,33984
8395,34112
8396,34176
8397,34304
8398,34368
8399,34368
8400,34176
8401,34048
8402,34048
8403,34240
8404,34304
8405,34368
8406,34368
8407,34240
8408,34176
8409,34112
8410,34048
8411,33920
8412,33792
8413,33728
8414,33792
8415,33856
8416,33856
8417,33856
8418,33792
8419,33856
8420,33920
8421,33984
8422,34048
8423,34048
8424,33920
8425,33728
8426,33664
8427,33792
8428,33856
8429,33984
8430,33984
8431,33984
8432,33920
8433,33920
8434,33920
8435,33920
8436,33920
8437,33792
8438,33728
8439,33728
8440,33856
8441,34048
8442,34176
8443,34368
8444,34432
8445,34368
8446,34496
8447,34752
8448,34880
8449,34880
8450,34688
8451,34560
8452,34368
8453,34176
8454,34048
8455,34048
8456,33984
8457,33920
8458,33920
8459,33856
8460,33728
8461,33536
8462,33408
8463,33344
8464,33344
8465,33280
8466,33344
8467,33408
8468,33536
8469,33664
8470,33728
8471,33728
8472,33664
8473,33536
8474,33344
8475,33216
8476,33792
8477,35392
8478,37760
8479,40512
8480,42624
8481,43456
8482,42496
8483,40064
8484,36992
8485,34240
8486,32000
8487,30656
8488,30208
8489,30464
8490,31104
8491,31744
8492,32192
8493,32512
8494,32832
8495,32960
8496,33024
8497,33024
8498,33024
8499,33024
8500,32960
8501,32896
8502,32896
8503,32960
8504,33088
8505,33280
8506,33408
8507,33472
8508,33536
8509,33600
8510,33728
8511,33792
8512,33856
8513,33856
8514,33792
8515,33728
8516,33728
8517,33792
8518,33856
8519,33920
8520,33984
8521,33984
8522,34048
8523,34176
8524,34240
8525,34304
8526,34368
8527,34368
8528,34368
8529,34304
8530,34368
8531,34560
8532,34560
8533,34432
8534,34304
8535,34496
8536,34816
8537,35008
8538,35136
8539,35200
8540,35264
8541,35520
8542,35712
8543,35776
8544,35712
8545,35712
8546,35584
8547,35456
8548,35328
8549,35136
8550,34880
8551,34560
8552,34240
8553,33856
8554,33600
8555,33408
8556,33088
8557,32768
8558,32576
8559,32448
8560,32512
8561,32512
8562,32512
8563,32512
8564,32512
8565,32512
8566,32640
8567,32768
8568,32896
8569,32960
8570,33152
8571,33280
8572,33280
8573,33216
8574,33216
8575,33216
8576,33280
8577,33280
8578,33152
8579,33152
8580,33088
8581,33088
8582,33216
8583,33408
8584,33664
8585,33792
8586,33728
8587,33600
8588,33536
8589,33600
8590,33664
8591,33728
8592,33728
8593,33728
8594,33920
8595,33984
8596,34048
8597,34176
8598,34176
8599,34112
8600,34112
8601,34112
8602,34048
8603,34048
8604,34048
8605,34112
8606,34112
8607,34048
8608,34112
8609,34176
8610,34176
8611,34048
8612,33920
8613,33920
8614,33920
8615,33856
8616,33920
8617,33920
8618,33920
8619,33920
8620,33984
8621,33920
8622,33920
8623,33920
8624,33920
8625,33856
8626,33856
8627,33792
8628,33792
8629,33792
8630,33792
8631,33792
8632,33792
8633,33856
8634,33856
8635,33856
8636,33792
8637,33856
8638,33920
8639,34112
8640,34304
8641,34496
8642,34560
8643,34560
8644,34688
8645,34944
8646,35072
8647,34944
8648,34752
8649,34560
8650,34496
8651,34432
8652,34240
8653,34048
8654,33856
8655,33792
8656,33728
8657,33664
8658,33536
8659,33472
8660,33408
8661,33344
8662,33344
8663,33216
8664,33152
8665,33216
8666,33408
8667,33536
8668,33600
8669,33600
8670,33600
8671,33472
8672,33344
8673,33216
8674,33088
8675,33536
8676,35072
8677,37632
8678,40576
8679,42624
8680,43520
8681,42624
8682,40192
8683,37056
8684,34304
8685,32000
8686,30656
8687,30272
8688,30528
8689,31168
8690,31680
8691,32064
8692,32384
8693,32512
8694,32512
8695,32640
8696,32832
8697,33024
8698,33152
8699,33216
8700,33280
8701,33280
8702,33344
8703,33344
8704,33344
8705,33408
8706,33472
8707,33472
8708,33472
8709,33536
8710,33600
8711,33600
8712,33664
8713,33664
8714,33728
8715,33792
8716,33792
8717,33792
8718,33856
8719,33920
8720,34048
8721,34240
8722,34304
8723,34368
8724,34368
8725,34432
8726,34432
8727,34496
8728,34496
8729,34496
8730,34560
8731,34688
8732,34624
8733,34560
8734,34624
8735,34816
8736,35008
8737,35136
8738,35200
8739,35328
8740,35392
8741,35456
8742,35520
8743,35520
8744,35520
8745,35520
8746,35456
8747,35264
8748,35072
8749,34816
8750,34560
8751,34304
8752,33920
8753,33664
8754,33472
8755,33344
8756,33088
8757,32896
8758,32704
8759,32576
8760,32512
8761,32448
8762,32256
8763,32192
8764,32256
8765,32320
8766,32448
8767,32640
8768,32768
8769,32960
8770,33088
8771,33152
8772,33216
8773,33216
8774,33152
8775,33152
8776,33216
8777,33280
8778,33344
8779,33344
8780,33408
8781,33472
8782,33536
8783,33600
8784,33536
8785,33472
8786,33536
8787,33600
8788,33664
8789,33792
8790,33856
8791,33984
8792,33920
8793,33856
8794,33856
8795,33920
8796,33984
8797,34112
8798,34176
8799,34112
8800,34112
8801,34176
8802,34048
8803,34048
8804,34176
8805,34240
8806,34176
8807,34048
8808,33984
8809,33920
8810,33856
8811,33856
8812,34048
8813,34176
8814,34304
8815,34432
8816,34496
8817,34624
8818,34688
8819,34688
8820,34688
8821,34624
8822,34560
8823,34560
8824,34624
8825,34752
8826,34752
8827,34624
8828,34560
8829,34496
8830,34368
8831,34240
8832,34112
8833,33920
8834,33728
8835,33472
8836,33280
8837,33024
8838,32896
8839,32896
8840,33024
8841,33152
8842,33216
8843,33216
8844,33280
8845,33344
8846,33408
8847,33344
8848,33280
8849,33408
8850,33472
8851,33408
8852,33216
8853,32960
8854,32896
8855,33344
8856,34816
8857,37248
8858,40000
8859,42112
8860,43072
8861,42240
8862,39936
8863,37056
8864,34560
8865,32704
8866,31616
8867,31040
8868,30976
8869,31296
8870,31552
8871,31872
8872,32192
8873,32448
8874,32576
8875,32640
8876,32640
8877,32704
8878,32896
8879,33088
8880,33216
8881,33280
8882,33280
8883,33280
8884,33344
8885,33472
8886,33600
8887,33600
8888,33664
8889,33664
8890,33728
8891,33856
8892,33984
8893,34048
8894,34048
8895,34048
8896,34048
8897,34048
8898,34048
8899,33984
8900,33920
8901,33856
8902,33920
8903,34176
8904,34304
8905,34368
8906,34432
8907,34496
8908,34496
8909,34560
8910,34560
8911,34624
8912,34688
8913,34752
8914,34816
8915,35008
8916,35072
8917,35136
8918,35264
8919,35328
8920,35456
8921,35584
8922,35648
8923,35584
8924,35456
8925,35392
8926,35328
8927,35200
8928,35008
8929,34624
8930,34176
8931,33792
8932,33536
8933,33344
8934,33216
8935,32960
8936,32768
8937,32640
8938,32512
8939,32448
8940,32448
8941,32512
8942,32512
8943,32512
8944,32704
8945,32832
8946,32896
8947,32896
8948,32832
8949,32832
8950,32960
8951,33088
8952,33152
8953,33088
8954,33088
8955,33088
8956,33088
8957,33280
8958,33472
8959,33600
8960,33728
8961,33728
8962,33728
8963,33664
8964,33536
8965,33472
8966,33472
8967,33600
8968,33664
8969,33728
8970,33792
8971,33856
8972,33920
8973,33984
8974,33984
8975,34112
8976,34176
8977,34112
8978,34240
8979,34240
8980,34240
8981,34176
8982,34048
8983,33984
8984,33984
8985,34048
8986,34176
8987,34112
8988,34048
8989,34112
8990,34240
8991,34368
8992,34432
8993,34560
8994,34560
8995,34624
8996,34624
8997,34624
8998,34688
8999,34688
9000,34816
9001,34880
9002,34688
9003,34496
9004,34304
9005,34176
9006,34112
9007,34112
9008,33984
9009,33792
9010,33728
9011,33536
9012,33408
9013,33152
9014,33024
9015,32960
9016,32960
9017,32960
9018,32960
9019,33088
9020,33216
9021,33344
9022,33408
9023,33344
9024,33344
9025,33408
9026,33536
9027,33536
9028,33408
9029,33280
9030,33216
9031,33664
9032,35200
9033,37760
9034,40512
9035,42560
9036,43136
9037,41920
9038,39360
9039,36352
9040,33728
9041,31936
9042,30976
9043,30720
9044,30912
9045,31360
9046,31872
9047,32320
9048,32576
9049,32640
9050,32768
9051,32704
9052,32768
9053,32832
9054,32960
9055,33024
9056,33088
9057,33216
9058,33280
9059,33216
9060,33280
9061,33408
9062,33536
9063,33536
9064,33600
9065,33600
9066,33600
9067,33664
9068,33792
9069,33856
9070,33920
9071,33856
9072,33920
9073,33984
9074,33984
9075,33984
9076,34048
9077,34048
9078,33984
9079,34112
9080,34240
9081,34304
9082,34368
9083,34368
9084,34496
9085,34560
9086,34752
9087,34880
9088,34880
9089,34880
9090,35008
9091,35200
9092,35328
9093,35392
9094,35392
9095,35456
9096,35392
9097,35264
9098,35264
9099,35264
9100,35264
9101,35136
9102,35072
9103,35008
9104,34880
9105,34688
9106,34368
9107,34112
9108,33856
9109,33664
9110,33408
9111,33024
9112,32704
9113,32640
9114,32576
9115,32512
9116,32512
9117,32512
9118,32512
9119,32512
9120,32576
9121,32704
9122,32704
9123,32768
9124,32832
9125,32960
9126,33088
9127,33152
9128,33216
9129,33280
9130,33408
9131,33408
9132,33280
9133,33216
9134,33344
9135,33472
9136,33536
9137,33536
9138,33536
9139,33600
9140,33664
9141,33856
9142,33856
9143,33792
9144,33728
9145,33728
9146,33728
9147,33792
9148,33856
9149,33984
9150,33920
9151,33984
9152,34048
9153,34048
9154,34112
9155,34112
9156,34112
9157,34048
9158,33920
9159,33920
9160,33984
9161,34176
9162,34240
9163,34240
9164,34240
9165,34112
9166,34048
9167,33920
9168,33856
9169,33792
9170,33792
9171,33920
9172,33920
9173,33984
9174,33984
9175,33920
9176,33856
9177,33920
9178,33920
9179,33984
9180,34048
9181,34048
9182,33920
9183,33728
9184,33600
9185,33472
9186,33408
9187,33408
9188,33536
9189,33664
9190,33792
9191,33984
9192,34112
9193,34176
9194,34240
9195,34240
9196,34176
9197,34112
9198,34048
9199,33984
9200,33984
9201,34048
9202,34176
9203,34368
9204,34496
9205,34752
9206,35008
9207,35072
9208,34816
9209,34560
9210,34432
9211,34304
9212,34176
9213,34112
9214,34112
9215,34112
9216,34112
9217,34048
9218,33920
9219,33600
9220,33344
9221,33216
9222,33216
9223,33152
9224,33152
9225,33216
9226,33280
9227,33280
9228,33344
9229,33472
9230,33664
9231,33792
9232,33792
9233,33600
9234,33344
9235,33280
9236,33920
9237,35584
9238,38144
9239,40896
9240,42944
9241,43648
9242,42432
9243,39744
9244,36608
9245,33792
9246,31680
9247,30464
9248,30144
9249,30528
9250,31168
9251,31744
9252,32128
9253,32320
9254,32448
9255,32640
9256,32704
9257,32704
9258,32832
9259,32960
9260,33088
9261,33152
9262,33216
9263,33216
9264,33280
9265,33408
9266,33536
9267,33600
9268,33600
9269,33600
9270,33600
9271,33600
9272,33664
9273,33664
9274,33664
9275,33664
9276,33664
9277,33664
9278,33792
9279,33920
9280,33984
9281,34112
9282,34176
9283,34240
9284,34176
9285,34176
9286,34048
9287,34048
9288,34176
9289,34432
9290,34752
9291,34880
9292,34880
9293,34880
9294,34880
9295,34816
9296,34816
9297,34816
9298,34880
9299,35136
9300,35328
9301,35392
9302,35328
9303,35328
9304,35456
9305,35520
9306,35520
9307,35456
9308,35392
9309,35200
9310,34880
9311,34432
9312,34112
9313,33856
9314,33664
9315,33600
9316,33472
9317,33152
9318,32832
9319,32576
9320,32512
9321,32512
9322,32640
9323,32704
9324,32768
9325,32832
9326,32832
9327,32832
9328,32768
9329,32896
9330,33024
9331,33152
9332,33216
9333,33216
9334,33216
9335,33216
9336,33216
9337,33344
9338,33408
9339,33472
9340,33472
9341,33408
9342,33408
9343,33600
9344,33728
9345,33856
9346,33856
9347,33856
9348,33728
9349,33600
9350,33728
9351,33792
9352,33792
9353,33856
9354,33920
9355,33920
9356,33920
9357,33920
9358,33984
9359,33984
9360,33984
9361,33984
9362,34112
9363,34176
9364,34176
9365,34112
9366,34048
9367,34048
9368,33984
9369,33920
9370,33984
9371,34112
9372,34176
9373,34240
9374,34176
9375,34048
9376,33984
9377,33920
9378,33920
9379,33984
9380,33984
9381,33920
9382,33920
9383,33856
9384,33792
9385,33728
9386,33792
9387,33856
9388,33856
9389,33920
9390,33856
9391,33792
9392,33792
9393,33728
9394,33728
9395,33792
9396,33920
9397,34048
9398,33984
9399,33920
9400,33856
9401,33920
9402,33984
9403,34048
9404,34048
9405,33984
9406,33792
9407,33664
9408,33664
9409,33792
9410,34048
9411,34240
9412,34432
9413,34688
9414,34816
9415,34752
9416,34752
9417,34752
9418,34688
9419,34496
9420,34304
9421,34176
9422,33984
9423,33920
9424,33984
9425,34048
9426,34048
9427,33984
9428,33856
9429,33600
9430,33472
9431,33408
9432,33408
9433,33408
9434,33408
9435,33408
9436,33472
9437,33536
9438,33536
9439,33600
9440,33536
9441,33472
9442,33408
9443,33344
9444,33216
9445,33536
9446,34688
9447,36800
9448,39488
9449,41856
9450,43200
9451,42432
9452,40768
9453,38016
9454,35264
9455,33088
9456,31680
9457,30912
9458,30720
9459,30976
9460,31360
9461,31808
9462,32192
9463,32448
9464,32640
9465,32832
9466,32832
9467,32832
9468,32832
9469,32896
9470,33088
9471,33216
9472,33344
9473,33408
9474,33408
9475,33344
9476,33344
9477,33408
9478,33536
9479,33600
9480,33600
9481,33664
9482,33728
9483,33792
9484,33856
9485,33920
9486,34048
9487,34112
9488,34048
9489,34048
9490,33984
9491,33984
9492,34048
9493,34048
9494,34176
9495,34304
9496,34304
9497,34304
9498,34304
9499,34368
9500,34496
9501,34624
9502,34688
9503,34752
9504,34752
9505,34816
9506,34880
9507,35072
9508,35200
9509,35264
9510,35136
9511,35136
9512,35200
9513,35264
9514,35328
9515,35328
9516,35264
9517,35136
9518,35008
9519,34880
9520,34688
9521,34432
9522,34112
9523,33920
9524,33728
9525,33408
9526,32960
9527,32832
9528,32704
9529,32704
9530,32576
9531,32512
9532,32576
9533,32576
9534,32576
9535,32640
9536,32896
9537,33088
9538,33088
9539,33024
9540,32896
9541,32832
9542,32896
9543,33024
9544,33216
9545,33280
9546,33280
9547,33280
9548,33216
9549,33344
9550,33408
9551,33472
9552,33536
9553,33600
9554,33664
9555,33728
9556,33792
9557,33792
9558,33792
9559,33792
9560,33792
9561,33856
9562,33920
9563,34048
9564,34112
9565,34176
9566,34048
9567,33920
9568,33920
9569,33984
9570,34048
9571,34048
9572,34048
9573,34112
9574,34176
9575,34112
9576,34048
9577,33984
9578,34048
9579,34112
9580,34112
9581,34112
9582,34112
9583,34048
9584,34048
9585,34112
9586,34176
9587,34112
9588,33984
9589,33920
9590,33856
9591,33856
9592,33792
9593,33792
9594,33792
9595,33792
9596,33728
9597,33728
9598,33664
9599,33728
9600,33856
9601,33984
9602,34048
9603,34240
9604,34560
9605,34624
9606,34624
9607,34688
9608,34880
9609,35008
9610,35008
9611,34944
9612,34816
9613,34496
9614,34240
9615,33984
9616,33792
9617,33728
9618,33728
9619,33600
9620,33408
9621,33344
9622,33280
9623,33216
9624,33216
9625,33344
9626,33472
9627,33600
9628,33664
9629,33664
9630,33600
9631,33536
9632,33536
9633,33472
9634,33344
9635,33152
9636,32960
9637,33024
9638,33856
9639,35712
9640,38272
9641,40960
9642,42880
9643,43392
9644,42112
9645,39424
9646,35904
9647,33984
9648,32128
9649,31104
9650,30656
9651,30720
9652,31040
9653,31488
9654,32000
9655,32384
9656,32576
9657,32704
9658,32832
9659,32832
9660,32896
9661,33024
9662,33088
9663,33152
9664,33216
9665,33280
9666,33280
9667,33216
9668,33280
9669,33344
9670,33472
9671,33600
9672,33664
9673,33728
9674,33664
9675,33600
9676,33664
9677,33792
9678,33984
9679,34048
9680,33984
9681,33984
9682,34048
9683,34176
9684,34240
9685,34176
9686,34112
9687,34112
9688,34112
9689,34176
9690,34304
9691,34432
9692,34432
9693,34496
9694,34560
9695,34688
9696,34816
9697,34944
9698,35008
9699,35072
9700,35136
9701,35200
9702,35328
9703,35392
9704,35392
9705,35328
9706,35264
9707,35264
9708,35264
9709,35264
9710,35136
9711,34944
9712,34688
9713,34496
9714,34176
9715,33920
9716,33664
9717,33472
9718,33216
9719,33024
9720,32832
9721,32640
9722,32512
9723,32512
9724,32448
9725,32448
9726,32448
9727,32576
9728,32704
9729,32640
9730,32832
9731,32896
9732,33088
9733,33152
9734,33088
9735,33152
9736,33280
9737,33344
9738,33344
9739,33216
9740,33088
9741,33216
9742,33408
9743,33472
9744,33600
9745,33664
9746,33600
9747,33600
9748,33600
9749,33664
9750,33920
9751,33856
9752,34112
9753,34048
9754,34240
9755,34112
9756,34048
9757,34048
9758,34112
9759,34112
9760,34112
9761,34112
9762,34112
9763,34176
9764,34240
9765,34304
9766,34176
9767,34048
9768,34048
9769,34048
9770,34048
9771,34048
9772,34048
9773,34048
9774,34048
9775,33856
9776,33664
9777,33664
9778,33600
9779,33600
9780,33600
9781,33600
9782,33792
9783,33920
9784,33984
9785,34048
9786,34112
9787,34176
9788,34048
9789,34048
9790,33984
9791,33920
9792,33920
9793,33856
9794,33856
9795,33856
9796,33792
9797,33728
9798,33664
9799,33600
9800,33664
9801,33728
9802,33792
9803,33856
9804,33920
9805,33984
9806,34112
9807,34048
9808,33920
9809,33856
9810,33856
9811,33856
9812,34048
9813,34112
9814,34176
9815,34240
9816,34368
9817,34496
9818,34688
9819,34752
9820,34880
9821,34944
9822,34944
9823,34880
9824,34624
9825,34304
9826,34240
9827,34176
9828,33920
9829,33792
9830,33728
9831,33728
9832,33664
9833,33408
9834,33216
9835,33152
9836,33216
9837,33280
9838,33344
9839,33536
9840,33664
9841,33600
9842,33600
9843,33536
9844,33536
9845,33408
9846,33344
9847,33216
9848,33088
9849,33280
9850,34304
9851,36480
9852,39360
9853,41920
9854,43520
9855,43008
9856,42752
9857,38656
9858,35648
9859,33216
9860,31424
9861,30464
9862,30336
9863,30656
9864,31296
9865,31744
9866,32064
9867,32384
9868,32576
9869,32768
9870,32832
9871,32832
9872,32768
9873,32896
9874,33024
9875,33088
9876,33216
9877,33280
9878,33408
9879,33408
9880,33408
9881,33344
9882,33408
9883,33472
9884,33536
9885,33728
9886,33728
9887,33792
9888,33856
9889,33856
9890,33792
9891,33856
9892,33920
9893,34048
9894,34048
9895,34112
9896,34112
9897,34240
9898,34176
9899,34176
9900,34240
9901,34176
9902,34240
9903,34176
9904,34112
9905,34240
9906,34496
9907,34752
9908,34944
9909,35072
9910,35136
9911,35264
9912,35264
9913,35264
9914,35328
9915,35264
9916,35200
9917,35264
9918,35328
9919,35328
9920,35328
9921,35328
9922,35200
9923,35008
9924,34752
9925,34496
9926,34176
9927,33920
9928,33728
9929,33536
9930,33280
9931,33088
9932,32832
9933,32640
9934,32448
9935,32384
9936,32384
9937,32512
9938,32576
9939,32576
9940,32640
9941,32768
9942,32832
9943,32832
9944,32896
9945,33088
9946,33088
9947,33344
9948,33280
9949,33216
9950,33216
9951,33280
9952,33344
9953,33344
9954,33344
9955,33344
9956,33408
9957,33600
9958,33664
9959,33728
9960,33792
9961,33792
9962,33728
9963,33664
9964,33792
9965,33856
9966,33856
9967,33984
9968,34048
9969,33984
9970,34048
9971,34048
9972,34048
9973,33984
9974,34048
9975,34112
9976,34176
9977,34176
9978,34112
9979,33984
9980,33920
9981,33920
9982,33984
9983,33984
9984,34112
9985,34176
9986,34112
9987,33984
9988,33920
9989,33920
9990,33920
9991,33920
9992,33984
9993,33984
9994,33984
9995,33856
9996,33856
9997,33920
9998,33984
9999,33920
10000,33856
10001,33792
10002,33728
10003,33664
10004,33600
10005,33920
10006,33920
10007,33920
10008,33792
10009,33664
10010,33664
10011,33728
10012,33856
10013,33920
10014,33984
10015,34048
10016,34176
10017,34176
10018,34112
10019,34048
10020,33856
10021,33792
10022,33792
10023,33792
10024,33664
10025,33600
10026,33600
10027,33792
10028,33984
10029,34048
10030,34176
10031,34240
10032,34368
10033,34560
10034,34688
10035,34816
10036,34752
10037,34944
10038,34944
10039,34880
10040,34688
10041,34496
10042,34240
10043,34048
10044,33856
10045,33792
10046,33856
10047,33920
10048,33920
10049,33792
10050,33472
10051,33408
10052,33216
10053,33216
10054,33216
10055,33344
10056,33536
10057,33536
10058,33536
10059,33408
10060,33408
10061,33536
10062,33664
10063,33664
10064,33536
10065,33344
10066,33536
10067,34752
10068,37120
10069,39936
10070,42304
10071,43520
10072,42944
10073,40768
10074,37696
10075,34816
10076,32640
10077,31232
10078,30592
10079,30720
10080,31104
10081,31552
10082,31872
10083,32064
10084,32192
10085,32384
10086,32576
10087,32768
10088,32896
10089,32960
10090,33024
10091,33152
10092,33216
10093,33344
10094,33472
10095,33472
10096,33472
10097,33472
10098,33600
10099,33728
10100,33792
10101,33856
10102,33792
10103,33728
10104,33792
10105,33792
10106,33856
10107,33920
10108,33984
10109,33920
10110,33856
10111,33728
10112,33728
10113,33856
10114,33920
10115,34048
10116,34112
10117,34304
10118,34432
10119,34496
10120,34496
10121,34560
10122,34624
10123,34688
10124,34688
10125,34752
10126,34880
10127,34944
10128,34944
10129,35008
10130,35072
10131,35200
10132,35328
10133,35456
10134,35584
10135,35584
10136,35520
10137,35456
10138,35200
10139,35008
10140,34816
10141,34624
10142,34496
10143,34368
10144,34112
10145,33792
10146,33472
10147,33280
10148,33152
10149,32896
10150,32704
10151,32640
10152,32576
10153,32448
10154,32384
10155,32448
10156,32640
10157,32832
10158,32960
10159,33088
10160,33088
10161,33024
10162,33024
10163,32960
10164,32896
10165,32960
10166,33024
10167,33024
10168,33152
10169,33344
10170,33472
10171,33472
10172,33536
10173,33600
10174,33600
10175,33600
10176,33728
10177,33856
10178,33920
10179,33920
10180,33792
10181,33664
10182,33664
10183,33792
10184,33856
10185,33792
10186,33792
10187,33856
10188,33984
10189,34176
10190,34240
10191,34304
10192,34240
10193,34240
10194,34176
10195,34176
10196,34240
10197,34176
10198,34048
10199,33920
10200,33856
10201,33856
10202,33920
10203,34048
10204,34112
10205,34112
10206,34048
10207,33984
10208,33856
10209,33728
10210,33664
10211,33600
10212,33536
10213,33600
10214,33856
10215,34176
10216,34432
10217,34560
10218,34624
10219,34624
10220,34624
10221,34688
10222,34752
10223,34816
10224,34944
10225,35072
10226,35072
10227,34944
10228,34688
10229,34304
10230,34048
10231,34048
10232,33984
10233,33920
10234,33792
10235,33600
10236,33408
10237,33152
10238,33024
10239,32960
10240,33088
10241,33152
10242,33280
10243,33344
10244,33408
10245,33344
10246,33216
10247,33152
10248,33152
10249,33280
10250,33344
10251,33344
10252,33152
10253,32896
10254,32704
10255,32960
10256,34240
10257,36672
10258,39616
10259,41920
10260,43072
10261,42560
10262,40576
10263,37696
10264,35136
10265,33152
10266,31744
10267,30912
10268,30720
10269,31040
10270,31616
10271,32064
10272,32320
10273,32448
10274,32512
10275,32576
10276,32768
10277,32896
10278,32960
10279,33088
10280,33152
10281,33280
10282,33408
10283,33536
10284,33536
10285,33536
10286,33600
10287,33600
10288,33664
10289,33664
10290,33664
10291,33664
10292,33600
10293,33600
10294,33536
10295,33600
10296,33792
10297,34048
10298,34240
10299,34304
10300,34240
10301,34112
10302,33984
10303,34048
10304,34176
10305,34304
10306,34304
10307,34240
10308,34240
10309,34432
10310,34624
10311,34688
10312,34688
10313,34752
10314,34880
10315,35072
10316,35200
10317,35200
10318,35200
10319,35264
10320,35264
10321,35328
10322,35456
10323,35456
10324,35328
10325,35072
10326,34944
10327,34880
10328,34752
10329,34560
10330,34368
10331,34176
10332,33920
10333,33728
10334,33472
10335,33280
10336,33088
10337,32960
10338,32768
10339,32640
10340,32640
10341,32768
10342,32640
10343,32512
10344,32512
10345,32576
10346,32640
10347,32640
10348,32832
10349,33024
10350,33216
10351,33344
10352,33344
10353,33280
10354,33216
10355,33280
10356,33408
10357,33536
10358,33536
10359,33536
10360,33472
10361,33408
10362,33408
10363,33600
10364,33728
10365,33856
10366,33920
10367,33984
10368,33984
10369,33984
10370,33984
10371,33984
10372,33920
10373,34048
10374,34112
10375,34176
10376,34176
10377,34176
10378,33984
10379,33920
10380,34048
10381,34112
10382,34112
10383,34048
10384,34048
10385,33984
10386,33920
10387,33920
10388,33920
10389,33984
10390,34048
10391,34048
10392,34112
10393,34048
10394,34048
10395,33984
10396,33920
10397,33856
10398,33792
10399,33728
10400,33792
10401,33792
10402,33792
10403,33856
10404,33856
10405,33920
10406,33984
10407,33984
10408,34048
10409,34240
10410,34432
10411,34688
10412,34880
10413,35072
10414,35200
10415,35072
10416,34944
10417,34752
10418,34496
10419,34240
10420,34048
10421,33920
10422,33792
10423,33728
10424,33664
10425,33600
10426,33408
10427,33152
10428,32960
10429,33088
10430,33216
10431,33280
10432,33344
10433,33408
10434,33408
10435,33472
10436,33600
10437,33600
10438,33536
10439,33472
10440,33408
10441,33408
10442,33408
10443,33600
10444,34432
10445,36288
10446,38976
10447,41536
10448,43264
10449,43328
10450,41536
10451,38656
10452,35584
10453,33088
10454,31360
10455,30464
10456,30400
10457,30848
10458,31360
10459,31872
10460,32128
10461,32320
10462,32448
10463,32576
10464,32704
10465,32768
10466,32896
10467,33088
10468,33152
10469,33344
10470,33472
10471,33600
10472,33600
10473,33536
10474,33536
10475,33600
10476,33600
10477,33600
10478,33728
10479,33792
10480,33792
10481,33792
10482,33728
10483,33664
10484,33536
10485,33600
10486,33792
10487,33984
10488,34048
10489,34112
10490,34112
10491,34176
10492,34240
10493,34240
10494,34240
10495,34176
10496,34240
10497,34432
10498,34688
10499,34752
10500,34752
10501,34816
10502,34944
10503,35072
10504,35200
10505,35264
10506,35392
10507,35456
10508,35456
10509,35520
10510,35520
10511,35584
10512,35520
10513,35520
10514,35520
10515,35456
10516,35392
10517,35072
10518,34624
10519,34176
10520,33920
10521,33728
10522,33408
10523,33216
10524,33024
10525,32768
10526,32576
10527,32448
10528,32384
10529,32384
10530,32320
10531,32320
10532,32384
10533,32576
10534,32768
10535,32896
10536,32896
10537,32896
10538,32896
10539,32896
10540,33088
10541,33280
10542,33536
10543,33536
10544,33344
10545,33152
10546,33088
10547,33216
10548,33408
10549,33536
10550,33664
10551,33728
10552,33856
10553,33984
10554,33920
10555,33792
10556,33600
10557,33600
10558,33664
10559,33728
10560,33856
10561,33920
10562,33920
10563,33984
10564,33984
10565,33856
10566,33856
10567,33856
10568,33984
10569,34048
10570,34304
10571,34368
10572,34368
10573,34240
10574,34176
10575,34176
10576,34112
10577,34112
10578,34048
10579,33984
10580,34048
10581,34112
10582,34048
10583,33920
10584,33792
10585,33728
10586,33664
10587,33664
10588,33728
10589,33792
10590,33856
10591,33856
10592,33920
10593,33920
10594,33856
10595,33792
10596,33728
10597,33856
10598,34048
10599,34176
10600,34240
10601,34368
10602,34496
10603,34688
10604,34944
10605,35072
10606,35008
10607,34880
10608,34752
10609,34432
10610,34176
10611,33920
10612,33664
10613,33536
10614,33600
10615,33664
10616,33664
10617,33664
10618,33664
10619,33536
10620,33408
10621,33344
10622,33344
10623,33344
10624,33408
10625,33408
10626,33344
10627,33408
10628,33472
10629,33600
10630,33600
10631,33408
10632,33216
10633,33152
10634,33344
10635,34368
10636,36544
10637,39104
10638,41664
10639,43200
10640,43072
10641,41152
10642,38208
10643,35392
10644,33024
10645,31360
10646,30592
10647,30528
10648,30976
10649,31488
10650,31872
10651,32192
10652,32384
10653,32512
10654,32576
10655,32704
10656,32896
10657,33088
10658,33152
10659,33152
10660,33280
10661,33344
10662,33344
10663,33344
10664,33344
10665,33344
10666,33408
10667,33536
10668,33664
10669,33728
10670,33664
10671,33664
10672,33792
10673,33984
10674,34112
10675,34112
10676,34048
10677,34048
10678,34048
10679,34112
10680,34176
10681,34112
10682,34112
10683,34048
10684,34048
10685,34048
10686,34240
10687,34368
10688,34496
10689,34560
10690,34688
10691,34752
10692,34816
10693,34816
10694,34880
10695,35008
10696,35072
10697,35200
10698,35392
10699,35520
10700,35584
10701,35584
10702,35520
10703,35584
10704,35584
10705,35584
10706,35328
10707,35136
10708,34816
10709,34496
10710,34176
10711,33920
10712,33600
10713,33280
10714,33088
10715,32960
10716,32832
10717,32832
10718,32768
10719,32640
10720,32576
10721,32512
10722,32448
10723,32384
10724,32512
10725,32640
10726,32832
10727,32960
10728,32960
10729,32832
10730,32768
10731,32768
10732,32832
10733,33024
10734,33152
10735,33344
10736,33344
10737,33344
10738,33344
10739,33344
10740,33408
10741,33472
10742,33600
10743,33600
10744,33728
10745,33792
10746,33792
10747,33728
10748,33792
10749,33728
10750,33792
10751,33856
10752,34048
10753,34176
10754,34240
10755,34240
10756,34240
10757,34240
10758,34112
10759,33920
10760,33792
10761,33792
10762,33856
10763,33920
10764,33920
10765,33984
10766,34048
10767,34048
10768,34048
10769,33984
10770,34048
10771,34176
10772,34368
10773,34496
10774,34624
10775,34752
10776,34816
10777,34816
10778,34816
10779,34752
10780,34624
10781,34560
10782,34560
10783,34624
10784,34688
10785,34688
10786,34496
10787,34304
10788,34112
10789,34048
10790,33920
10791,33728
10792,33472
10793,33344
10794,33152
10795,33024
10796,32960
10797,32896
10798,32896
10799,32960
10800,33088
10801,33216
10802,33280
10803,33344
10804,33408
10805,33344
10806,33216
10807,33280
10808,33280
10809,33216
10810,33024
10811,32896
10812,33024
10813,33984
10814,36096
10815,38848
10816,41344
10817,42816
10818,42816
10819,41088
10820,38400
10821,35840
10822,33728
10823,32128
10824,31040
10825,30784
10826,30976
10827,31424
10828,31808
10829,32128
10830,32320
10831,32512
10832,32640
10833,32832
10834,32960
10835,32896
10836,32960
10837,33024
10838,33088
10839,33024
10840,33024
10841,33088
10842,33216
10843,33408
10844,33536
10845,33664
10846,33856
10847,33856
10848,33728
10849,33600
10850,33728
10851,33920
10852,33984
10853,34112
10854,34176
10855,34240
10856,34240
10857,34240
10858,34176
10859,34176
10860,34176
10861,34304
10862,34368
10863,34432
10864,34432
10865,34496
10866,34560
10867,34688
10868,34752
10869,34752
10870,34624
10871,34624
10872,34688
10873,34944
10874,35200
10875,35328
10876,35392
10877,35456
10878,35456
10879,35520
10880,35520
10881,35456
10882,35328
10883,35200
10884,35072
10885,34880
10886,34752
10887,34432
10888,34176
10889,33728
10890,33472
10891,33344
10892,33152
10893,32960
10894,32704
10895,32640
10896,32512
10897,32512
10898,32640
10899,32768
10900,32832
10901,32832
10902,32896
10903,32896
10904,32960
10905,33024
10906,33088
10907,33088
10908,33088
10909,33024
10910,33024
10911,33088
10912,33152
10913,33216
10914,33408
10915,33536
10916,33472
10917,33344
10918,33344
10919,33472
10920,33664
10921,33792
10922,33792
10923,33728
10924,33792
