,ECG
0,34048
1,34048
2,34048
3,34048
4,34112
5,34176
6,34240
7,34304
8,34304
9,34240
10,34304
11,34368
12,34368
13,34368
14,34368
15,34368
16,34368
17,34304
18,34304
19,34304
20,34240
21,34240
22,34240
23,34240
24,34176
25,34112
26,34048
27,33984
28,33856
29,33856
30,33792
31,33664
32,33600
33,33536
34,33536
35,33536
36,33536
37,33600
38,33600
39,33536
40,33664
41,33664
42,33664
43,33728
44,33728
45,33728
46,33792
47,33792
48,33856
49,33856
50,33856
51,33856
52,33856
53,33856
54,33856
55,33792
56,33792
57,33792
58,33792
59,33792
60,33792
61,33792
62,33792
63,33792
64,33728
65,33728
66,33728
67,33792
68,33792
69,33792
70,33792
71,33856
72,33920
73,33920
74,33920
75,34048
76,34112
77,34176
78,34176
79,34176
80,34176
81,34112
82,34112
83,34112
84,34048
85,34048
86,34048
87,34112
88,34240
89,34240
90,34240
91,34176
92,34112
93,33920
94,33728
95,33600
96,33536
97,33472
98,33472
99,33472
100,33472
101,33536
102,33536
103,33600
104,33664
105,33664
106,33664
107,33728
108,33728
109,33792
110,33792
111,33792
112,33792
113,33792
114,33792
115,33792
116,33856
117,34112
118,34560
119,35456
120,36736
121,38336
122,39872
123,40704
124,40384
125,38784
126,36352
127,33856
128,31552
129,31360
130,30784
131,31040
132,31424
133,31936
134,32384
135,32768
136,33152
137,33408
138,33664
139,33792
140,33920
141,33984
142,34048
143,34048
144,33984
145,33984
146,33920
147,33920
148,33920
149,33920
150,33984
151,33984
152,33920
153,33920
154,33920
155,33920
156,33920
157,33920
158,33984
159,33984
160,33984
161,33984
162,34048
163,34048
164,34112
165,34112
166,34112
167,34176
168,34240
169,34240
170,34304
171,34304
172,34368
173,34368
174,34432
175,34368
176,34368
177,34368
178,34368
179,34368
180,34368
181,34304
182,34240
183,34240
184,34240
185,34240
186,34176
187,34048
188,33984
189,33920
190,33856
191,33792
192,33728
193,33664
194,33536
195,33472
196,33472
197,33472
198,33472
199,33472
200,33472
201,33536
202,33536
203,33600
204,33664
205,33728
206,33728
207,33728
208,33728
209,33728
210,33728
211,33728
212,33728
213,33792
214,33792
215,33856
216,33856
217,33856
218,33792
219,33792
220,33792
221,33792
222,33792
223,33728
224,33728
225,33728
226,33728
227,33728
228,33728
229,33728
230,33728
231,33792
232,33792
233,33792
234,33728
235,33728
236,33728
237,33728
238,33728
239,33728
240,33728
241,33728
242,33792
243,33792
244,33856
245,33920
246,33984
247,34048
248,34112
249,34048
250,34112
251,34048
252,33984
253,33984
254,33984
255,34048
256,34048
257,34176
258,34176
259,34240
260,34176
261,34048
262,33984
263,33792
264,33600
265,33408
266,33344
267,33344
268,33344
269,33344
270,33408
271,33472
272,33536
273,33536
274,33536
275,33600
276,33600
277,33664
278,33664
279,33664
280,33664
281,33664
282,33664
283,33664
284,33728
285,33792
286,33920
287,34240
288,34944
289,36032
290,37440
291,39040
292,40192
293,40000
294,39808
295,37184
296,34688
297,32576
298,31296
299,30848
300,30912
301,31296
302,31744
303,32192
304,32640
305,33024
306,33280
307,33472
308,33664
309,33728
310,33792
311,33792
312,33856
313,33856
314,33856
315,33856
316,33856
317,33856
318,33792
319,33728
320,33728
321,33728
322,33728
323,33792
324,33856
325,33856
326,33920
327,33856
328,33856
329,33920
330,33920
331,33856
332,33856
333,33856
334,33920
335,33984
336,34048
337,34048
338,34176
339,34112
340,34240
341,34304
342,34304
343,34304
344,34304
345,34304
346,34240
347,34240
348,34176
349,34176
350,34112
351,34112
352,34112
353,34176
354,34112
355,34112
356,34048
357,33920
358,33856
359,33792
360,33728
361,33664
362,33600
363,33472
364,33408
365,33344
366,33344
367,33344
368,33344
369,33344
370,33408
371,33408
372,33472
373,33536
374,33600
375,33664
376,33600
377,33600
378,33600
379,33600
380,33600
381,33600
382,33600
383,33600
384,33664
385,33664
386,33600
387,33600
388,33600
389,33664
390,33664
391,33664
392,33664
393,33664
394,33664
395,33664
396,33664
397,33600
398,33600
399,33600
400,33600
401,33600
402,33600
403,33600
404,33664
405,33600
406,33600
407,33600
408,33664
409,33600
410,33600
411,33600
412,33600
413,33664
414,33600
415,33664
416,33664
417,33664
418,33664
419,33728
420,33792
421,33920
422,34048
423,34112
424,34112
425,34112
426,34048
427,33984
428,33984
429,33984
430,33984
431,33984
432,34048
433,34112
434,34176
435,34176
436,34176
437,34048
438,33920
439,33728
440,33536
441,33408
442,33280
443,33216
444,33152
445,33216
446,33344
447,33408
448,33472
449,33472
450,33536
451,33536
452,33600
453,33600
454,33600
455,33600
456,33600
457,33536
458,33600
459,33536
460,33600
461,33728
462,33920
463,34432
464,35328
465,36544
466,38080
467,39424
468,40064
469,39616
470,38016
471,35776
472,33536
473,31808
474,30976
475,30656
476,30848
477,31296
478,31808
479,32320
480,32768
481,33152
482,33344
483,33536
484,33664
485,33728
486,33728
487,33792
488,33856
489,33792
490,33856
491,33856
492,33792
493,33792
494,33728
495,33792
496,33792
497,33792
498,33792
499,33792
500,33792
501,33856
502,33856
503,33920
504,33856
505,33856
506,33856
507,33856
508,33920
509,33984
510,33984
511,33984
512,34048
513,34112
514,34112
515,34176
516,34176
517,34240
518,34304
519,34240
520,34304
521,34304
522,34304
523,34240
524,34240
525,34240
526,34240
527,34240
528,34176
529,34176
530,34176
531,34176
532,34112
533,34048
534,33984
535,33856
536,33728
537,33664
538,33536
539,33472
540,33408
541,33408
542,33408
543,33408
544,33408
545,33408
546,33472
547,33472
548,33536
549,33472
550,33600
551,33600
552,33664
553,33664
554,33728
555,33792
556,33792
557,33792
558,33728
559,33728
560,33728
561,33792
562,33792
563,33856
564,33792
565,33792
566,33792
567,33792
568,33728
569,33728
570,33728
571,33728
572,33728
573,33664
574,33664
575,33728
576,33728
577,33728
578,33728
579,33664
580,33664
581,33664
582,33600
583,33664
584,33664
585,33664
586,33664
587,33664
588,33664
589,33664
590,33664
591,33664
592,33664
593,33728
594,33728
595,33728
596,33856
597,33920
598,34048
599,34112
600,34112
601,34112
602,34112
603,34112
604,34112
605,34112
606,34112
607,34112
608,34176
609,34240
610,34240
611,34240
612,34176
613,34112
614,33920
615,33728
616,33600
617,33472
618,33344
619,33280
620,33280
621,33408
622,33472
623,33536
624,33600
625,33664
626,33664
627,33664
628,33664
629,33664
630,33664
631,33664
632,33664
633,33664
634,33664
635,33664
636,33728
637,33920
638,34368
639,35200
640,36160
641,37696
642,39360
643,40512
644,40576
645,39296
646,37120
647,34560
648,32448
649,31168
650,30720
651,30784
652,31104
653,31680
654,32128
655,32576
656,32960
657,33216
658,33472
659,33664
660,33728
661,33792
662,33792
663,33856
664,33856
665,33856
666,33856
667,33856
668,33856
669,33792
670,33792
671,33792
672,33792
673,33792
674,33856
675,33856
676,33792
677,33792
678,33792
679,33792
680,33856
681,33856
682,33920
683,33984
684,34048
685,34048
686,34112
687,34176
688,34176
689,34240
690,34304
691,34304
692,34368
693,34368
694,34368
695,34304
696,34304
697,34304
698,34304
699,34240
700,34176
701,34176
702,34176
703,34176
704,34176
705,34176
706,34112
707,34048
708,33984
709,33920
710,33856
711,33728
712,33664
713,33600
714,33536
715,33472
716,33408
717,33408
718,33344
719,33344
720,33344
721,33344
722,33408
723,33408
724,33472
725,33600
726,33664
727,33664
728,33728
729,33728
730,33728
731,33664
732,33664
733,33728
734,33728
735,33664
736,33664
737,33664
738,33728
739,33728
740,33664
741,33664
742,33664
743,33664
744,33664
745,33664
746,33664
747,33728
748,33728
749,33728
750,33792
751,33728
752,33728
753,33728
754,33728
755,33664
756,33664
757,33664
758,33728
759,33728
760,33664
761,33664
762,33664
763,33664
764,33728
765,33728
766,33728
767,33728
768,33664
769,33664
770,33664
771,33728
772,33728
773,33792
774,33856
775,33984
776,34112
777,34112
778,34176
779,34112
780,34112
781,34048
782,34048
783,34112
784,34112
785,34112
786,34112
787,34176
788,34240
789,34176
790,34112
791,34048
792,33920
793,33728
794,33600
795,33472
796,33408
797,33344
798,33280
799,33344
800,33344
801,33408
802,33408
803,33472
804,33536
805,33600
806,33600
807,33600
808,33600
809,33664
810,33664
811,33664
812,33664
813,33728
814,33792
815,33856
816,34048
817,34624
818,35584
819,36800
820,38400
821,39936
822,40640
823,40000
824,38272
825,35776
826,33344
827,31616
828,30720
829,30592
830,30848
831,31360
832,31872
833,32384
834,32768
835,33024
836,33280
837,33408
838,33536
839,33664
840,33728
841,33856
842,33856
843,33856
844,33792
845,33792
846,33792
847,33792
848,33792
849,33728
850,33792
851,33728
852,33728
853,33728
854,33728
855,33728
856,33728
857,33792
858,33856
859,33856
860,33856
861,33856
862,33856
863,33920
864,33984
865,33984
866,34048
867,34112
868,34176
869,34176
870,34240
871,34240
872,34240
873,34240
874,34240
875,34304
876,34240
877,34240
878,34240
879,34240
880,34176
881,34176
882,34112
883,34112
884,34112
885,34048
886,33984
887,33984
888,33920
889,33792
890,33728
891,33664
892,33600
893,33536
894,33472
895,33408
896,33408
897,33344
898,33408
899,33408
900,33472
901,33472
902,33472
903,33536
904,33536
905,33600
906,33600
907,33664
908,33664
909,33728
910,33728
911,33728
912,33792
913,33792
914,33728
915,33728
916,33792
917,33728
918,33728
919,33728
920,33728
921,33728
922,33728
923,33728
924,33728
925,33728
926,33728
927,33728
928,33728
929,33728
930,33728
931,33728
932,33728
933,33728
934,33728
935,33664
936,33728
937,33664
938,33664
939,33664
940,33664
941,33728
942,33664
943,33664
944,33664
945,33664
946,33664
947,33664
948,33664
949,33728
950,33728
951,33728
952,33664
953,33664
954,33664
955,33728
956,33792
957,33856
958,33984
959,34112
960,34176
961,34176
962,34176
963,34176
964,34112
965,34048
966,34048
967,34048
968,34048
969,34048
970,34112
971,34176
972,34240
973,34176
974,34112
975,33984
976,33792
977,33664
978,33536
979,33408
980,33344
981,33344
982,33344
983,33408
984,33472
985,33472
986,33536
987,33600
988,33600
989,33600
990,33600
991,33664
992,33664
993,33664
994,33664
995,33600
996,33600
997,33664
998,33792
999,34048
1000,34560
1001,35520
1002,36800
1003,38464
1004,40064
1005,40832
1006,40320
1007,38464
1008,35904
1009,33408
1010,31552
1011,30720
1012,30592
1013,30848
1014,31360
1015,31808
1016,32320
1017,32704
1018,33024
1019,33216
1020,33472
1021,33664
1022,33728
1023,33792
1024,33792
1025,33792
1026,33792
1027,33792
1028,33792
1029,33792
1030,33728
1031,33728
1032,33792
1033,33792
1034,33792
1035,33792
1036,33792
1037,33792
1038,33856
1039,33856
1040,33856
1041,33792
1042,33856
1043,33856
1044,33920
1045,33984
1046,34048
1047,34048
1048,34112
1049,34176
1050,34176
1051,34240
1052,34240
1053,34240
1054,34240
1055,34240
1056,34240
1057,34240
1058,34240
1059,34240
1060,34176
1061,34176
1062,34176
1063,34176
1064,34176
1065,34176
1066,34176
1067,34112
1068,34112
1069,34048
1070,33984
1071,33984
1072,33856
1073,33792
1074,33664
1075,33600
1076,33536
1077,33536
1078,33472
1079,33472
1080,33408
1081,33344
1082,33344
1083,33408
1084,33472
1085,33472
1086,33536
1087,33600
1088,33600
1089,33600
1090,33600
1091,33600
1092,33664
1093,33664
1094,33728
1095,33728
1096,33792
1097,33728
1098,33728
1099,33728
1100,33728
1101,33728
1102,33728
1103,33728
1104,33728
1105,33728
1106,33728
1107,33728
1108,33728
1109,33728
1110,33728
1111,33664
1112,33728
1113,33664
1114,33664
1115,33728
1116,33728
1117,33792
1118,33792
1119,33792
1120,33792
1121,33792
1122,33792
1123,33728
1124,33792
1125,33792
1126,33792
1127,33728
1128,33728
1129,33728
1130,33792
1131,33792
1132,33792
1133,33792
1134,33792
1135,33792
1136,33792
1137,33792
1138,33792
1139,33792
1140,33792
1141,33792
1142,33856
1143,33856
1144,33920
1145,33984
1146,34048
1147,34112
1148,34176
1149,34176
1150,34240
1151,34240
1152,34176
1153,34176
1154,34240
1155,34240
1156,34240
1157,34240
1158,34304
1159,34304
1160,34304
1161,34304
1162,34240
1163,34112
1164,33920
1165,33728
1166,33664
1167,33536
1168,33472
1169,33472
1170,33472
1171,33472
1172,33536
1173,33600
1174,33664
1175,33664
1176,33664
1177,33728
1178,33792
1179,33792
1180,33792
1181,33792
1182,33728
1183,33728
1184,33792
1185,33856
1186,33920
1187,34176
1188,34752
1189,35648
1190,36864
1191,38464
1192,39872
1193,40448
1194,39616
1195,38144
1196,35712
1197,33472
1198,31808
1199,30976
1200,30848
1201,31104
1202,31552
1203,32064
1204,32512
1205,32832
1206,33088
1207,33344
1208,33536
1209,33664
1210,33728
1211,33792
1212,33920
1213,33984
1214,33984
1215,33984
1216,33984
1217,33984
1218,33920
1219,33920
1220,33856
1221,33856
1222,33728
1223,33728
1224,33728
1225,33792
1226,33856
1227,33856
1228,33792
1229,33856
1230,33856
1231,33920
1232,33984
1233,34112
1234,34176
1235,34176
1236,34176
1237,34176
1238,34176
1239,34176
1240,34176
1241,34176
1242,34240
1243,34304
1244,34368
1245,34432
1246,34432
1247,34368
1248,34368
1249,34304
1250,34368
1251,34304
1252,34240
1253,34240
1254,34176
1255,34176
1256,34112
1257,34112
1258,34048
1259,33984
1260,33920
1261,33792
1262,33728
1263,33664
1264,33664
1265,33600
1266,33536
1267,33536
1268,33536
1269,33536
1270,33536
1271,33536
1272,33600
1273,33600
1274,33664
1275,33664
1276,33600
1277,33664
1278,33664
1279,33728
1280,33792
1281,33856
1282,33792
1283,33792
1284,33792
1285,33728
1286,33728
1287,33792
1288,33856
1289,33920
1290,33920
1291,34048
1292,34176
1293,34240
1294,34048
1295,33856
1296,33728
1297,33600
1298,33536
1299,33600
1300,33792
1301,33920
1302,33856
1303,33728
1304,33600
1305,33536
1306,33536
1307,33536
1308,33536
1309,33536
1310,33536
1311,33536
1312,33600
1313,33536
1314,33536
1315,33536
1316,33536
1317,33536
1318,33536
1319,33408
1320,33408
1321,33472
1322,33536
1323,33536
1324,33536
1325,33472
1326,33472
1327,33536
1328,33600
1329,33728
1330,33792
1331,33856
1332,33920
1333,33984
1334,33984
1335,33984
1336,33920
1337,33920
1338,33984
1339,33984
1340,33920
1341,33920
1342,33920
1343,34048
1344,34112
1345,34176
1346,34112
1347,33920
1348,33792
1349,33728
1350,33536
1351,33280
1352,33024
1353,32960
1354,33024
1355,33088
1356,33088
1357,33152
1358,33216
1359,33280
1360,33344
1361,33344
1362,33344
1363,33344
1364,33472
1365,33728
1366,33984
1367,34112
1368,33920
1369,33600
1370,33344
1371,33344
1372,33792
1373,34688
1374,35968
1375,37376
1376,38784
1377,39488
1378,39232
1379,37952
1380,35968
1381,33856
1382,32320
1383,31616
1384,31552
1385,31744
1386,32128
1387,32704
1388,33152
1389,33216
1390,33024
1391,32704
1392,32320
1393,32192
1394,32128
1395,32128
1396,32192
1397,32448
1398,32960
1399,33664
1400,34432
1401,34752
1402,34688
1403,34432
1404,34112
1405,33856
1406,33728
1407,33600
1408,33408
1409,33216
1410,33024
1411,32768
1412,32704
1413,32768
1414,32832
1415,33024
1416,33088
1417,33024
1418,33088
1419,33152
1420,33152
1421,33088
1422,33088
1423,33344
1424,33472
1425,33408
1426,33344
1427,33472
1428,33536
1429,33216
1430,32896
1431,32832
1432,32960
1433,33152
1434,33344
1435,33472
1436,33600
1437,33664
1438,33920
1439,34496
1440,34944
1441,34944
1442,34752
1443,34624
1444,34688
1445,34496
1446,33984
1447,33472
1448,32960
1449,32448
1450,32064
1451,31808
1452,31552
1453,31488
1454,31872
1455,32576
1456,33216
1457,33472
1458,33408
1459,33536
1460,33792
1461,34112
1462,34112
1463,33600
1464,32960
1465,32704
1466,32768
1467,33024
1468,33280
1469,33408
1470,33600
1471,34176
1472,34688
1473,34880
1474,34624
1475,34688
1476,35008
1477,34944
1478,34752
1479,34816
1480,35136
1481,35520
1482,35520
1483,35264
1484,34880
1485,34752
1486,34880
1487,34944
1488,35072
1489,35136
1490,35328
1491,35456
1492,35584
1493,35584
1494,35456
1495,35328
1496,35328
1497,35584
1498,35904
1499,36096
1500,36160
1501,35904
1502,35328
1503,34560
1504,34176
1505,34240
1506,34560
1507,34752
1508,34944
1509,35328
1510,35776
1511,36224
1512,36352
1513,36224
1514,36032
1515,35904
1516,36032
1517,36096
1518,36032
1519,36032
1520,36224
1521,36352
1522,36224
1523,35968
1524,35648
1525,35392
1526,35264
1527,35264
1528,35392
1529,35392
1530,35200
1531,34880
1532,34560
1533,34752
1534,35136
1535,35648
1536,36096
1537,36224
1538,35648
1539,34880
1540,34368
1541,34496
1542,34880
1543,35008
1544,34816
1545,34752
1546,34560
1547,34304
1548,34368
1549,34880
1550,35328
1551,35648
1552,36096
1553,37056
1554,38336
1555,39744
1556,40832
1557,41344
1558,41216
1559,40128
1560,37568
1561,34176
1562,32000
1563,31104
1564,30528
1565,30528
1566,31488
1567,32576
1568,32704
1569,32128
1570,31808
1571,31808
1572,32192
1573,32960
1574,33664
1575,34112
1576,34112
1577,34176
1578,34560
1579,34944
1580,34944
1581,34688
1582,33984
1583,33280
1584,32832
1585,32448
1586,32192
1587,32192
1588,32384
1589,32576
1590,32640
1591,32832
1592,32832
1593,32576
1594,32128
1595,31936
1596,31872
1597,32128
1598,32640
1599,33216
1600,33664
1601,33856
1602,33856
1603,33792
1604,33728
1605,33920
1606,34304
1607,34624
1608,34944
1609,34496
1610,33344
1611,32768
1612,32896
1613,33152
1614,33024
1615,32704
1616,32640
1617,32832
1618,33152
1619,33344
1620,33728
1621,34176
1622,34496
1623,34560
1624,34048
1625,33344
1626,32960
1627,32896
1628,33024
1629,32960
1630,32832
1631,32448
1632,32320
1633,32448
1634,32512
1635,32256
1636,32064
1637,32384
1638,32960
1639,33280
1640,33280
1641,33152
1642,32512
1643,32064
1644,32512
1645,33216
1646,33408
1647,32768
1648,32320
1649,32512
1650,32768
1651,32448
1652,32320
1653,32704
1654,32512
1655,31744
1656,31296
1657,31488
1658,31936
1659,32320
1660,32256
1661,32128
1662,32192
1663,32320
1664,32512
1665,32704
1666,32896
1667,33024
1668,33088
1669,33216
1670,33344
1671,33344
1672,33408
1673,33536
1674,33408
1675,33088
1676,33024
1677,33280
1678,33408
1679,33216
1680,33088
1681,33088
1682,33280
1683,33472
1684,33728
1685,34048
1686,34304
1687,34368
1688,34368
1689,34432
1690,34496
1691,34560
1692,34496
1693,34304
1694,33984
1695,33536
1696,33344
1697,33216
1698,33088
1699,32960
1700,33024
1701,33024
1702,32832
1703,32384
1704,32128
1705,32192
1706,32384
1707,32576
1708,32768
1709,33024
1710,33280
1711,33472
1712,33472
1713,33280
1714,33152
1715,33152
1716,33280
1717,33344
1718,33408
1719,33536
1720,33792
1721,33984
1722,34176
1723,34816
1724,35904
1725,37632
1726,39488
1727,40704
1728,40640
1729,38848
1730,35840
1731,32832
1732,30464
1733,29120
1734,28544
1735,28672
1736,29184
1737,29952
1738,30592
1739,31168
1740,31680
1741,32064
1742,32384
1743,32576
1744,32832
1745,33088
1746,32960
1747,32640
1748,32320
1749,31936
1750,31616
1751,31552
1752,31424
1753,31232
1754,31232
1755,31296
1756,31552
1757,31808
1758,31936
1759,32128
1760,32448
1761,32448
1762,32192
1763,32064
1764,32000
1765,32128
1766,31552
1767,31040
1768,30784
1769,30848
1770,31104
1771,31424
1772,31744
1773,32064
1774,32192
1775,32128
1776,32064
1777,32128
1778,32320
1779,32512
1780,32704
1781,32768
1782,32704
1783,32768
1784,32832
1785,32832
1786,32832
1787,32768
1788,32640
1789,32384
1790,32128
1791,31936
1792,31744
1793,31616
1794,31552
1795,31552
1796,31488
1797,31296
1798,31168
1799,31168
1800,31168
1801,31040
1802,30976
1803,30912
1804,30976
1805,31296
1806,31744
1807,32064
1808,31872
1809,31808
1810,31744
1811,31488
1812,31424
1813,31424
1814,31488
1815,31552
1816,31616
1817,31616
1818,31680
1819,31744
1820,31808
1821,32128
1822,32768
1823,32832
1824,32704
1825,31872
1826,31808
1827,31936
1828,32064
1829,32384
1830,32384
1831,32256
1832,32192
1833,32128
1834,32192
1835,32256
1836,32320
1837,32384
1838,32512
1839,32512
1840,32576
1841,32768
1842,32832
1843,32448
1844,32128
1845,32000
1846,32128
1847,32384
1848,32768
1849,32960
1850,32576
1851,32000
1852,31744
1853,31808
1854,31808
1855,32256
1856,32512
1857,32640
1858,32832
1859,32832
1860,32576
1861,32448
1862,32320
1863,32128
1864,32000
1865,32000
1866,32192
1867,32320
1868,32640
1869,32576
1870,32832
1871,33088
1872,33536
1873,33792
1874,33600
1875,33344
1876,33280
1877,33216
1878,33216
1879,33152
1880,33088
1881,32960
1882,33088
1883,33664
1884,34560
1885,35456
1886,36544
1887,38080
1888,39616
1889,40448
1890,40192
1891,38656
1892,36352
1893,34240
1894,32832
1895,31744
1896,30656
1897,30208
1898,30528
1899,31104
1900,31872
1901,32640
1902,33280
1903,33792
1904,34112
1905,34240
1906,34240
1907,34304
1908,34368
1909,34432
1910,34432
1911,34432
1912,34624
1913,34624
1914,34560
1915,34112
1916,34048
1917,34304
1918,34496
1919,34368
1920,34176
1921,34240
1922,34304
1923,34304
1924,34304
1925,34368
1926,34432
1927,34624
1928,34880
1929,35200
1930,35520
1931,35328
1932,34752
1933,34304
1934,34176
1935,34304
1936,34496
1937,34752
1938,34752
1939,34688
1940,34560
1941,34560
1942,34560
1943,34560
1944,34560
1945,34560
1946,34560
1947,34816
1948,35008
1949,34944
1950,34624
1951,34432
1952,34496
1953,34432
1954,34176
1955,33984
1956,34048
1957,33984
1958,33728
1959,33664
1960,33472
1961,33536
1962,33600
1963,33728
1964,33856
1965,33920
1966,33920
1967,33920
1968,33984
1969,33984
1970,33984
1971,34112
1972,34240
1973,34496
1974,34432
1975,34368
1976,34432
1977,34432
1978,34048
1979,33408
1980,33024
1981,33024
1982,33088
1983,33280
1984,33472
1985,33600
1986,33728
1987,33920
1988,34048
1989,34176
1990,34240
1991,34304
1992,34432
1993,34560
1994,34496
1995,34432
1996,34368
1997,34432
1998,34432
1999,34368
2000,34496
2001,34816
2002,34880
2003,34560
2004,34048
2005,33792
2006,33792
2007,33856
2008,33792
2009,33664
2010,33792
2011,34048
2012,34240
2013,34304
2014,34240
2015,34240
2016,34240
2017,34176
2018,34048
2019,33984
2020,34240
2021,34304
2022,34368
2023,34240
2024,33856
2025,33344
2026,33024
2027,32960
2028,33088
2029,33408
2030,33664
2031,33664
2032,33728
2033,33728
2034,33856
2035,33920
2036,33984
2037,33856
2038,33728
2039,33856
2040,34240
2041,35136
2042,36160
2043,36928
2044,38144
2045,39616
2046,40640
2047,40448
2048,37888
2049,37504
2050,33536
2051,31424
2052,30272
2053,29952
2054,30208
2055,30912
2056,31680
2057,32512
2058,33280
2059,33792
2060,33920
2061,33728
2062,33536
2063,33792
2064,33792
2065,34176
2066,33920
2067,33856
2068,33984
2069,34048
2070,33792
2071,33600
2072,33728
2073,33600
2074,33344
2075,33216
2076,33280
2077,33408
2078,33792
2079,33728
2080,34048
2081,34240
2082,34368
2083,34368
2084,34432
2085,34560
2086,34432
2087,34304
2088,34048
2089,33984
2090,34112
2091,34176
2092,33920
2093,33856
2094,34048
2095,34240
2096,34112
2097,33920
2098,33856
2099,33984
2100,34240
2101,34624
2102,34688
2103,34304
2104,33984
2105,34112
2106,34240
2107,34112
2108,33856
2109,33664
2110,33728
2111,33792
2112,33664
2113,33472
2114,33408
2115,33408
2116,33408
2117,33344
2118,33152
2119,33024
2120,32960
2121,33024
2122,33088
2123,33536
2124,33472
2125,33664
2126,33728
2127,33728
2128,33536
2129,33472
2130,33280
2131,32960
2132,32768
2133,32704
2134,32640
2135,32768
2136,33024
2137,33152
2138,33088
2139,33024
2140,32896
2141,32832
2142,32832
2143,33024
2144,33152
2145,33152
2146,33280
2147,33344
2148,33408
2149,33408
2150,33408
2151,33664
2152,33856
2153,33728
2154,33664
2155,33664
2156,33728
2157,33536
2158,33280
2159,33408
2160,33728
2161,33792
2162,33664
2163,33408
2164,33216
2165,33216
2166,33344
2167,33408
2168,33280
2169,33216
2170,32960
2171,32896
2172,33024
2173,33216
2174,33472
2175,33344
2176,33152
2177,33024
2178,33152
2179,33408
2180,33408
2181,33152
2182,33024
2183,33088
2184,33024
2185,33088
2186,33088
2187,33216
2188,33344
2189,33408
2190,33600
2191,33984
2192,34816
2193,36032
2194,37504
2195,39296
2196,40704
2197,40896
2198,39680
2199,37440
2200,34688
2201,32384
2202,30976
2203,30592
2204,30720
2205,30912
2206,31232
2207,31744
2208,32128
2209,32448
2210,32704
2211,32896
2212,33152
2213,33344
2214,33600
2215,33856
2216,34048
2217,34048
2218,33856
2219,33728
2220,33792
2221,34112
2222,34240
2223,33920
2224,33472
2225,33216
2226,33088
2227,33152
2228,33344
2229,33280
2230,33408
2231,33472
2232,33600
2233,33600
2234,33728
2235,33792
2236,33920
2237,33984
2238,34240
2239,34496
2240,34432
2241,34048
2242,33728
2243,33664
2244,33728
2245,33792
2246,33856
2247,33920
2248,33984
2249,34048
2250,34048
2251,34048
2252,34048
2253,34112
2254,34112
2255,34112
2256,34048
2257,34112
2258,34048
2259,33984
2260,33856
2261,33728
2262,33728
2263,33664
2264,33472
2265,33344
2266,33216
2267,33088
2268,33024
2269,33024
2270,33024
2271,33088
2272,33088
2273,33088
2274,33024
2275,33152
2276,33280
2277,33344
2278,33344
2279,33280
2280,33152
2281,33152
2282,33216
2283,33280
2284,33344
2285,33280
2286,33280
2287,33344
2288,33408
2289,33344
2290,33408
2291,33408
2292,33408
2293,33408
2294,33408
2295,33472
2296,33600
2297,33664
2298,33728
2299,33600
2300,33536
2301,33728
2302,34048
2303,34176
2304,34048
2305,33856
2306,33792
2307,33856
2308,33856
2309,33600
2310,33408
2311,33408
2312,33472
2313,33664
2314,33792
2315,33856
2316,33856
2317,33792
2318,33728
2319,33600
2320,33536
2321,33408
2322,33344
2323,33216
2324,33088
2325,33088
2326,33152
2327,33088
2328,32896
2329,32896
2330,32896
2331,32960
2332,32960
2333,33088
2334,33024
2335,32768
2336,32576
2337,32640
2338,32832
2339,33024
2340,33216
2341,33344
2342,33600
2343,33920
2344,34368
2345,35200
2346,36544
2347,38208
2348,39552
2349,39744
2350,38720
2351,36544
2352,33984
2353,31680
2354,30272
2355,29696
2356,29760
2357,30208
2358,30784
2359,31424
2360,32064
2361,32576
2362,32768
2363,33024
2364,33024
2365,33536
2366,33536
2367,33344
2368,33280
2369,33152
2370,32896
2371,32832
2372,32832
2373,32832
2374,32896
2375,33024
2376,33152
2377,33280
2378,33280
2379,33216
2380,33216
2381,33216
2382,33280
2383,33408
2384,33472
2385,33600
2386,33664
2387,33728
2388,33728
2389,33664
2390,33728
2391,33728
2392,33600
2393,33472
2394,33408
2395,33536
2396,33600
2397,33728
2398,33792
2399,33856
2400,33856
2401,33984
2402,34112
2403,34112
2404,34048
2405,33984
2406,33984
2407,33984
2408,33920
2409,33984
2410,34112
2411,34176
2412,33984
2413,33792
2414,33664
2415,33600
2416,33600
2417,33600
2418,33600
2419,33600
2420,33536
2421,33408
2422,33344
2423,33344
2424,33344
2425,33408
2426,33408
2427,33600
2428,33856
2429,34048
2430,33984
2431,33728
2432,33664
2433,33728
2434,33792
2435,33728
2436,33728
2437,33728
2438,33664
2439,33664
2440,33664
2441,33728
2442,33792
2443,33856
2444,33984
2445,33920
2446,33920
2447,33984
2448,34048
2449,34048
2450,33984
2451,33984
2452,34048
2453,34112
2454,34048
2455,34176
2456,34304
2457,34496
2458,34688
2459,34816
2460,34624
2461,34496
2462,34432
2463,34432
2464,34304
2465,34304
2466,34496
2467,34560
2468,34240
2469,34048
2470,33984
2471,33920
2472,33792
2473,33792
2474,33728
2475,33728
2476,33728
2477,33920
2478,34176
2479,34304
2480,34304
2481,34240
2482,34176
2483,34240
2484,34368
2485,34496
2486,34624
2487,34752
2488,34688
2489,34432
2490,34176
2491,34112
2492,34176
2493,34368
2494,34496
2495,34688
2496,35200
2497,35904
2498,37952
2499,37952
2500,40384
2501,41344
2502,41216
2503,39808
2504,37504
2505,34880
2506,32704
2507,31424
2508,31168
2509,31424
2510,31872
2511,32384
2512,32960
2513,33664
2514,33984
2515,34240
2516,34304
2517,34368
2518,34560
2519,34688
2520,34752
2521,34880
2522,34944
2523,34944
2524,34944
2525,34880
2526,34880
2527,35136
2528,35200
2529,34944
2530,34496
2531,34176
2532,34112
2533,34112
2534,34176
2535,34304
2536,34432
2537,34432
2538,34624
2539,34880
2540,35072
2541,35136
2542,35200
2543,35264
2544,35200
2545,35328
2546,35200
2547,35136
2548,35264
2549,35456
2550,35520
2551,35328
2552,35264
2553,35328
2554,35200
2555,35008
2556,34752
2557,34688
2558,34816
2559,34880
2560,34880
2561,34880
2562,34944
2563,35008
2564,35200
2565,35328
2566,35264
2567,34944
2568,34624
2569,34496
2570,34368
2571,34240
2572,34240
2573,34240
2574,34240
2575,34240
2576,34304
2577,34368
2578,34304
2579,34240
2580,34176
2581,34176
2582,34240
2583,34304
2584,34368
2585,34496
2586,34496
2587,34560
2588,34752
2589,35008
2590,34880
2591,34688
2592,34560
2593,34432
2594,34368
2595,34368
2596,34432
2597,34304
2598,34240
2599,34240
2600,34368
2601,34624
2602,34624
2603,34432
2604,34240
2605,34112
2606,34112
2607,34240
2608,34304
2609,34368
2610,34496
2611,34688
2612,34752
2613,34752
2614,34816
2615,34944
2616,35008
2617,34880
2618,34624
2619,34368
2620,34240
2621,34176
2622,34240
2623,34496
2624,34624
2625,34688
2626,34624
2627,34496
2628,34368
2629,34304
2630,34176
2631,34048
2632,34048
2633,34112
2634,34112
2635,34176
2636,34112
2637,34048
2638,34048
2639,33920
2640,33792
2641,33728
2642,33792
2643,33920
2644,34112
2645,34304
2646,34368
2647,34368
2648,34112
2649,33856
2650,33792
2651,33856
2652,34048
2653,34368
2654,35008
2655,36096
2656,37504
2657,39232
2658,40896
2659,41600
2660,40768
2661,38784
2662,35968
2663,33344
2664,31552
2665,30912
2666,30976
2667,31552
2668,32192
2669,32640
2670,32960
2671,33024
2672,33152
2673,33408
2674,33664
2675,33728
2676,33856
2677,34048
2678,34176
2679,34368
2680,34368
2681,34368
2682,34432
2683,34496
2684,34560
2685,34624
2686,34688
2687,34752
2688,34560
2689,34304
2690,34112
2691,34048
2692,34112
2693,34240
2694,34176
2695,34176
2696,34304
2697,34368
2698,34368
2699,34240
2700,34240
2701,34304
2702,34432
2703,34560
2704,34624
2705,34688
2706,34816
2707,34816
2708,34816
2709,34816
2710,34880
2711,34816
2712,34688
2713,34560
2714,34496
2715,34560
2716,34688
2717,34688
2718,34560
2719,34560
2720,34688
2721,34560
2722,34176
2723,33792
2724,33664
2725,33664
2726,33728
2727,33856
2728,33920
2729,33792
2730,33600
2731,33472
2732,33472
2733,33600
2734,33664
2735,33728
2736,33792
2737,33792
2738,33728
2739,33664
2740,33664
2741,33664
2742,33792
2743,34048
2744,34176
2745,33984
2746,33664
2747,33600
2748,33920
2749,34112
2750,33920
2751,33728
2752,33600
2753,33472
2754,33408
2755,33536
2756,33728
2757,33856
2758,33920
2759,33920
2760,33856
2761,33856
2762,33920
2763,33984
2764,34048
2765,34048
2766,34112
2767,34112
2768,33984
2769,33856
2770,33984
2771,34112
2772,34176
2773,34176
2774,34176
2775,34240
2776,34240
2777,34304
2778,34368
2779,34240
2780,34048
2781,33984
2782,34112
2783,34304
2784,34432
2785,34496
2786,34496
2787,34496
2788,34432
2789,34240
2790,33984
2791,33728
2792,33600
2793,33600
2794,33536
2795,33344
2796,33152
2797,33152
2798,33280
2799,33536
2800,33536
2801,33536
2802,33600
2803,33664
2804,33728
2805,33856
2806,33920
2807,33984
2808,34048
2809,33984
2810,33920
2811,33984
2812,34048
2813,34176
2814,34496
2815,35136
2816,35904
2817,36800
2818,38080
2819,39808
2820,40704
2821,40256
2822,38592
2823,36096
2824,33472
2825,31488
2826,30464
2827,30400
2828,30848
2829,31552
2830,32128
2831,32576
2832,32960
2833,33344
2834,33600
2835,33920
2836,34048
2837,34176
2838,34368
2839,34624
2840,34688
2841,34304
2842,33984
2843,33792
2844,33664
2845,33664
2846,33792
2847,33792
2848,33792
2849,33856
2850,34048
2851,34048
2852,33984
2853,33984
2854,33984
2855,34048
2856,34048
2857,34048
2858,34176
2859,34304
2860,34368
2861,34368
2862,34368
2863,34432
2864,34624
2865,34816
2866,34752
2867,34496
2868,34304
2869,34496
2870,34752
2871,34624
2872,34304
2873,34112
2874,34048
2875,34112
2876,34176
2877,34240
2878,34304
2879,34368
2880,34304
2881,34304
2882,34368
2883,34496
2884,34560
2885,34304
2886,34112
2887,33984
2888,33856
2889,33792
2890,33728
2891,33600
2892,33472
2893,33472
2894,33408
2895,33344
2896,33216
2897,33216
2898,33344
2899,33472
2900,33536
2901,33472
2902,33536
2903,33728
2904,33792
2905,33792
2906,33856
2907,33920
2908,33920
2909,33984
2910,33984
2911,33920
2912,33856
2913,33792
2914,33856
2915,33856
2916,33728
2917,33664
2918,33600
2919,33472
2920,33344
2921,33408
2922,33536
2923,33792
2924,33984
2925,33984
2926,33984
2927,33920
2928,33856
2929,33664
2930,33664
2931,33728
2932,33792
2933,33984
2934,34240
2935,34176
2936,33984
2937,33856
2938,33792
2939,33856
2940,33984
2941,34176
2942,34176
2943,33984
2944,33920
2945,33984
2946,33984
2947,33984
2948,33984
2949,33984
2950,34048
2951,34112
2952,34304
2953,34560
2954,34496
2955,34368
2956,34304
2957,34368
2958,34496
2959,34304
2960,33792
2961,33472
2962,33472
2963,33600
2964,33472
2965,33280
2966,33280
2967,33344
2968,33472
2969,33600
2970,33664
2971,33728
2972,33792
2973,33856
2974,33856
2975,33856
2976,33856
2977,33984
2978,34048
2979,33984
2980,33984
2981,34240
2982,34368
2983,34496
2984,34944
2985,35904
2986,37248
2987,38976
2988,40320
2989,40512
2990,39296
2991,37376
2992,34944
2993,32896
2994,31360
2995,30656
2996,30656
2997,31104
2998,31744
2999,32384
3000,32960
3001,33280
3002,33536
3003,33792
3004,33856
3005,33984
3006,34048
3007,34112
3008,34112
3009,33984
3010,33984
3011,34112
3012,34112
3013,33984
3014,33920
3015,33984
3016,34112
3017,34240
3018,34240
3019,34176
3020,34176
3021,33984
3022,33984
3023,34112
3024,34112
3025,34112
3026,34112
3027,34176
3028,34240
3029,34112
3030,34048
3031,34048
3032,34176
3033,34368
3034,34496
3035,34496
3036,34432
3037,34496
3038,34624
3039,34688
3040,34624
3041,34560
3042,34496
3043,34496
3044,34560
3045,34496
3046,34496
3047,34368
3048,34304
3049,34240
3050,34304
3051,34304
3052,34304
3053,34304
3054,34304
3055,34048
3056,33856
3057,33728
3058,33664
3059,33728
3060,33664
3061,33536
3062,33344
3063,33216
3064,33216
3065,33408
3066,33536
3067,33600
3068,33664
3069,33792
3070,33856
3071,33920
3072,34112
3073,34176
3074,34112
3075,33984
3076,33856
3077,33728
3078,33600
3079,33600
3080,33728
3081,33920
3082,34048
3083,33920
3084,33792
3085,33728
3086,33664
3087,33728
3088,33728
3089,33792
3090,33856
3091,33920
3092,33984
3093,34048
3094,34048
3095,33984
3096,33856
3097,33856
3098,33856
3099,33920
3100,33920
3101,33920
3102,33984
3103,33984
3104,33920
3105,33856
3106,33856
3107,33920
3108,34112
3109,34176
3110,34112
3111,33920
3112,33728
3113,33600
3114,33600
3115,33728
3116,33792
3117,33920
3118,34112
3119,34368
3120,34432
3121,34368
3122,34240
3123,34240
3124,34240
3125,34304
3126,34304
3127,34432
3128,34560
3129,34624
3130,34560
3131,34560
3132,34688
3133,34496
3134,34112
3135,33792
3136,33664
3137,33536
3138,33344
3139,33344
3140,33536
3141,33728
3142,33920
3143,33856
3144,33664
3145,33472
3146,33472
3147,33600
3148,33728
3149,33856
3150,34048
3151,34048
3152,33920
3153,33856
3154,33792
3155,33792
3156,33920
3157,34176
3158,34496
3159,34944
3160,35776
3161,36928
3162,38336
3163,39872
3164,40896
3165,40640
3166,38912
3167,36544
3168,34048
3169,32000
3170,30848
3171,30464
3172,30656
3173,31168
3174,31808
3175,32320
3176,32768
3177,33216
3178,33536
3179,33856
3180,33984
3181,34112
3182,34112
3183,34048
3184,34112
3185,34176
3186,34112
3187,33984
3188,33984
3189,34048
3190,34048
3191,34048
3192,33984
3193,33984
3194,33984
3195,34048
3196,34112
3197,34048
3198,34048
3199,34048
3200,34240
3201,34240
3202,34176
3203,34112
3204,34048
3205,33984
3206,33984
3207,34048
3208,34176
3209,34368
3210,34496
3211,34624
3212,34752
3213,34752
3214,34688
3215,34688
3216,34560
3217,34496
3218,34560
3219,34560
3220,34624
3221,34816
3222,34880
3223,34688
3224,34496
3225,33984
3226,33728
3227,33664
3228,33728
3229,33728
3230,33728
3231,33728
3232,33792
3233,33856
3234,33856
3235,33856
3236,33856
3237,33856
3238,33856
3239,33792
3240,33664
3241,33600
3242,33536
3243,33600
3244,33856
3245,33984
3246,33792
3247,33856
3248,33984
3249,33792
3250,33472
3251,33408
3252,33472
3253,33472
3254,33536
3255,33664
3256,33792
3257,33984
3258,33984
3259,33920
3260,33984
3261,34112
3262,34240
3263,34176
3264,34048
3265,33984
3266,33984
3267,34048
3268,34048
3269,33984
3270,33792
3271,33664
3272,33600
3273,33600
3274,33664
3275,33792
3276,33856
3277,33920
3278,33984
3279,34048
3280,34240
3281,34496
3282,34304
3283,33920
3284,33728
3285,33728
3286,33728
3287,33728
3288,33792
3289,33792
3290,33728
3291,33792
3292,33856
3293,33856
3294,33856
3295,33920
3296,33984
3297,34112
3298,34304
3299,34304
3300,34112
3301,34176
3302,34304
3303,34688
3304,34816
3305,34624
3306,34304
3307,34048
3308,34048
3309,34112
3310,34240
3311,34304
3312,34368
3313,34496
3314,34560
3315,34496
3316,34368
3317,34176
3318,33984
3319,33920
3320,33920
3321,33920
3322,33856
3323,33920
3324,33984
3325,33984
3326,33856
3327,33792
3328,33856
3329,33728
3330,33600
3331,33536
3332,33536
3333,33664
3334,33792
3335,33792
3336,33728
3337,33600
3338,33600
3339,33728
3340,34048
3341,34496
3342,35072
3343,35776
3344,36672
3345,38144
3346,39424
3347,40640
3348,40832
3349,39424
3350,37120
3351,34432
3352,32192
3353,30848
3354,30400
3355,30656
3356,31232
3357,31808
3358,32256
3359,32576
3360,33024
3361,33280
3362,33664
3363,34048
3364,34368
3365,34368
3366,34304
3367,34176
3368,33920
3369,33600
3370,33536
3371,33664
3372,33728
3373,33664
3374,33728
3375,33856
3376,33856
3377,33920
3378,33984
3379,33920
3380,33984
3381,34112
3382,34240
3383,34240
3384,34048
3385,33856
3386,33664
3387,33664
3388,33792
3389,33920
3390,34112
3391,34112
3392,34176
3393,34304
3394,34432
3395,34368
3396,34304
3397,34304
3398,34304
3399,34432
3400,34432
3401,34496
3402,34496
3403,34496
3404,34560
3405,34752
3406,34816
3407,34560
3408,34176
3409,33984
3410,34176
3411,34432
3412,34496
3413,34112
3414,33728
3415,33600
3416,33600
3417,33600
3418,33536
3419,33664
3420,33728
3421,33664
3422,33664
3423,33728
3424,33728
3425,33728
3426,33728
3427,33728
3428,33792
3429,33920
3430,34048
3431,34048
3432,34240
3433,34368
3434,34176
3435,34048
3436,34048
3437,33984
3438,33856
3439,33920
3440,34048
3441,34240
3442,34112
3443,33856
3444,33600
3445,33472
3446,33472
3447,33472
3448,33600
3449,33728
3450,33856
3451,33856
3452,33920
3453,34048
3454,34112
3455,34048
3456,33984
3457,33920
3458,34048
3459,34048
3460,33920
3461,33856
3462,33792
3463,33920
3464,33984
3465,33856
3466,33728
3467,33664
3468,33664
3469,33920
3470,34112
3471,34048
3472,33856
3473,33792
3474,33792
3475,33664
3476,33600
3477,33600
3478,33664
3479,33728
3480,33792
3481,33856
3482,33920
3483,33920
3484,33856
3485,33984
3486,34048
3487,34048
3488,34048
3489,34176
3490,34304
3491,34368
3492,34432
3493,34368
3494,34176
3495,33984
3496,33984
3497,33984
3498,33920
3499,33920
3500,33984
3501,34176
3502,34176
3503,34112
3504,34048
3505,33984
3506,33984
3507,33920
3508,33792
3509,33664
3510,33600
3511,33536
3512,33472
3513,33472
3514,33536
3515,33600
3516,33664
3517,33600
3518,33472
3519,33472
3520,33600
3521,33664
3522,33664
3523,33664
3524,33792
3525,33792
3526,33664
3527,33600
3528,33600
3529,33728
3530,33984
3531,34624
3532,35648
3533,36992
3534,38720
3535,40256
3536,40832
3537,40064
3538,38144
3539,35648
3540,33344
3541,31616
3542,30592
3543,30400
3544,30784
3545,31296
3546,31872
3547,32256
3548,32640
3549,32960
3550,33152
3551,33344
3552,33472
3553,33600
3554,33728
3555,33856
3556,33856
3557,33920
3558,33920
3559,33984
3560,34112
3561,34176
3562,34112
3563,33920
3564,33792
3565,33728
3566,33792
3567,33856
3568,33728
3569,33664
3570,33856
3571,33792
3572,33472
3573,33600
3574,33728
3575,33792
3576,33856
3577,33856
3578,33984
3579,34112
3580,34176
3581,34112
3582,34176
3583,34240
3584,34304
3585,34304
3586,34432
3587,34560
3588,34688
3589,34624
3590,34496
3591,34304
3592,34176
3593,34240
3594,34304
3595,34240
3596,34176
3597,33984
3598,33856
3599,33856
3600,33792
3601,33600
3602,33408
3603,33408
3604,33344
3605,33408
3606,33472
3607,33472
3608,33472
3609,33536
3610,33472
3611,33344
3612,33344
3613,33472
3614,33664
3615,33600
3616,33408
3617,33408
3618,33600
3619,33536
3620,33280
3621,33088
3622,33088
3623,33152
3624,33280
3625,33344
3626,33472
3627,33536
3628,33536
3629,33664
3630,33600
3631,33856
3632,33920
3633,33856
3634,33792
3635,33792
3636,33856
3637,33856
3638,33728
3639,33728
3640,33664
3641,33664
3642,33664
3643,33728
3644,33920
3645,33728
3646,33408
3647,33280
3648,33088
3649,33024
3650,32896
3651,33024
3652,33152
3653,33280
3654,33344
3655,33408
3656,33472
3657,33472
3658,33536
3659,33536
3660,33472
3661,33536
3662,33536
3663,33600
3664,33536
3665,33728
3666,33664
3667,33600
3668,33536
3669,33472
3670,33536
3671,33664
3672,33664
3673,33664
3674,33856
3675,33856
3676,34304
3677,34176
3678,33664
3679,33280
3680,33216
3681,33216
3682,33344
3683,33536
3684,33728
3685,33792
3686,33856
3687,33792
3688,33792
3689,33600
3690,33536
3691,33344
3692,33344
3693,33344
3694,33216
3695,33088
3696,33024
3697,33088
3698,33088
3699,33088
3700,33024
3701,33088
3702,33152
3703,33152
3704,33152
3705,33216
3706,33280
3707,33472
3708,33408
3709,33280
3710,33152
3711,33152
3712,33280
3713,33664
3714,34432
3715,35520
3716,36928
3717,38592
3718,39872
3719,39936
3720,39744
3721,38976
3722,34624
3723,32320
3724,30656
3725,29824
3726,29824
3727,30208
3728,30784
3729,31424
3730,32000
3731,32448
3732,32704
3733,32896
3734,33152
3735,33088
3736,33216
3737,33344
3738,33536
3739,33600
3740,33600
3741,33536
3742,33408
3743,33280
3744,33152
3745,33216
3746,33216
3747,33280
3748,33344
3749,33216
3750,33024
3751,32960
3752,32960
3753,33024
3754,33088
3755,33152
3756,33280
3757,33408
3758,33472
3759,33536
3760,33472
3761,33536
3762,33600
3763,33664
3764,33728
3765,33664
3766,33856
3767,33920
3768,33920
3769,33856
3770,33856
3771,33920
3772,34048
3773,34176
3774,34176
3775,33856
3776,33600
3777,33536
3778,33664
3779,33664
3780,33600
3781,33152
3782,33024
3783,33024
3784,33216
3785,33344
3786,33344
3787,33088
3788,32896
3789,32832
3790,32896
3791,32960
3792,32896
3793,32768
3794,32768
3795,32704
3796,32896
3797,32896
3798,32832
3799,32704
3800,32640
3801,32704
3802,32768
3803,32896
3804,32960
3805,33024
3806,33088
3807,33088
3808,33152
3809,33280
3810,33280
3811,33216
3812,33152
3813,33152
3814,33216
3815,33216
3816,33344
3817,33472
3818,33536
3819,33472
3820,33408
3821,33408
3822,33216
3823,32896
3824,32640
3825,32640
3826,32640
3827,32640
3828,32832
3829,33024
3830,33216
3831,33344
3832,33344
3833,33344
3834,33344
3835,33472
3836,33408
3837,33280
3838,33152
3839,33152
3840,33152
3841,33280
3842,33280
3843,33152
3844,33024
3845,33024
3846,33088
3847,33216
3848,33280
3849,33344
3850,33344
3851,33344
3852,33408
3853,33472
3854,33536
3855,33664
3856,33728
3857,33664
3858,33664
3859,33728
3860,33856
3861,33856
3862,33664
3863,33472
3864,33472
3865,33536
3866,33664
3867,33728
3868,33792
3869,33728
3870,33664
3871,33664
3872,33600
3873,33472
3874,33344
3875,33152
3876,33088
3877,32960
3878,33088
3879,33344
3880,33344
3881,33152
3882,32960
3883,32896
3884,32832
3885,32832
3886,32896
3887,33024
3888,33216
3889,33280
3890,33344
3891,33408
3892,33408
3893,33472
3894,33536
3895,33728
3896,34304
3897,35264
3898,36672
3899,39232
3900,39360
3901,40576
3902,39936
3903,38144
3904,35584
3905,33024
3906,31040
3907,30080
3908,30144
3909,30784
3910,31424
3911,31808
3912,32064
3913,32320
3914,32704
3915,32896
3916,33088
3917,33152
3918,33344
3919,33408
3920,33536
3921,33600
3922,33728
3923,33792
3924,33792
3925,33728
3926,33728
3927,33792
3928,33984
3929,34048
3930,33984
3931,33856
3932,33600
3933,33472
3934,33536
3935,33600
3936,33664
3937,33600
3938,33472
3939,33536
3940,33664
3941,33664
3942,33792
3943,33856
3944,33984
3945,33920
3946,33984
3947,34048
3948,34112
3949,34240
3950,34304
3951,34432
3952,34432
3953,34432
3954,34368
3955,34304
3956,34304
3957,34112
3958,34048
3959,33984
3960,34048
3961,34112
3962,34112
3963,34112
3964,34176
3965,34112
3966,33920
3967,33664
3968,33472
3969,33408
3970,33408
3971,33344
3972,33216
3973,33024
3974,32896
3975,32960
3976,32960
3977,33024
3978,33088
3979,33216
3980,33280
3981,33280
3982,33344
3983,33344
3984,33408
3985,33472
3986,33472
3987,33536
3988,33536
3989,33536
3990,33600
3991,33600
3992,33664
3993,33792
3994,33792
3995,33792
3996,33728
3997,33600
3998,33472
3999,33472
4000,33664
4001,33792
4002,33728
4003,33472
4004,33344
4005,33280
4006,33280
4007,33344
4008,33408
4009,33536
4010,33664
4011,33728
4012,33728
4013,33728
4014,33728
4015,33792
4016,33792
4017,33856
4018,33856
4019,33792
4020,33792
4021,33792
4022,33856
4023,33792
4024,33664
4025,33600
4026,33664
4027,33792
4028,33792
4029,33600
4030,33600
4031,33856
4032,33920
4033,33792
4034,33600
4035,33536
4036,33472
4037,33600
4038,33792
4039,33984
4040,34240
4041,34304
4042,34432
4043,34560
4044,34624
4045,34560
4046,34304
4047,34112
4048,34048
4049,34112
4050,34304
4051,34624
4052,34560
4053,34240
4054,33920
4055,33664
4056,33600
4057,33536
4058,33344
4059,33216
4060,33216
4061,33280
4062,33344
4063,33472
4064,33600
4065,33792
4066,34048
4067,34176
4068,33920
4069,33600
4070,33600
4071,33664
4072,33664
4073,33728
4074,33728
4075,33664
4076,33664
4077,33792
4078,33920
4079,34304
4080,35200
4081,36416
4082,37888
4083,39552
4084,40576
4085,40704
4086,39360
4087,36992
4088,34368
4089,32320
4090,30976
4091,30528
4092,30848
4093,31488
4094,32000
4095,32320
4096,32704
4097,33152
4098,33472
4099,33600
4100,33728
4101,33792
4102,33792
4103,33792
4104,33856
4105,33920
4106,34048
4107,34048
4108,34048
4109,34048
4110,34112
4111,34240
4112,34368
4113,34432
4114,34368
4115,34240
4116,34176
4117,33920
4118,33728
4119,33728
4120,33728
4121,33856
4122,34048
4123,34048
4124,34048
4125,34048
4126,34048
4127,34112
4128,34240
4129,34432
4130,34496
4131,34560
4132,34560
4133,34560
4134,34624
4135,34624
4136,34688
4137,34752
4138,34688
4139,34560
4140,34432
4141,34368
4142,34368
4143,34304
4144,34304
4145,34368
4146,34432
4147,34432
4148,34304
4149,34240
4150,34112
4151,33984
4152,33984
4153,33920
4154,33728
4155,33600
4156,33536
4157,33600
4158,33536
4159,33536
4160,33536
4161,33728
4162,33920
4163,33856
4164,33600
4165,33280
4166,33280
4167,33344
4168,33472
4169,33600
4170,33664
4171,33664
4172,33728
4173,33856
4174,33984
4175,34048
4176,34048
4177,33984
4178,33920
4179,33984
4180,34048
4181,34112
4182,34048
4183,34048
4184,34112
4185,34048
4186,34048
4187,34176
4188,34176
4189,33984
4190,33728
4191,33600
4192,33600
4193,33664
4194,33664
4195,33600
4196,33600
4197,33728
4198,33856
4199,33920
4200,33984
4201,33984
4202,33984
4203,34048
4204,34112
4205,34176
4206,34368
4207,34304
4208,33984
4209,33664
4210,33536
4211,33536
4212,33600
4213,33728
4214,33856
4215,34048
4216,34112
4217,34048
4218,34112
4219,34176
4220,34176
4221,34240
4222,34304
4223,34304
4224,34240
4225,34176
4226,34176
4227,34304
4228,34368
4229,34368
4230,34304
4231,34304
4232,34304
4233,34432
4234,34560
4235,34752
4236,34688
4237,34432
4238,34176
4239,33984
4240,33792
4241,33664
4242,33472
4243,33408
4244,33344
4245,33472
4246,33600
4247,33600
4248,33600
4249,33600
4250,33600
4251,33664
4252,33728
4253,33792
4254,33792
4255,33728
4256,33792
4257,33792
4258,33856
4259,33856
4260,33984
4261,34048
4262,34176
4263,34560
4264,35328
4265,36352
4266,37632
4267,39168
4268,40320
4269,40512
4270,39360
4271,37184
4272,34624
4273,32512
4274,31040
4275,30464
4276,30464
4277,30848
4278,31488
4279,32192
4280,32832
4281,33280
4282,33536
4283,33728
4284,33856
4285,33856
4286,33856
4287,33792
4288,33856
4289,33920
4290,34112
4291,34304
4292,34432
4293,34368
4294,34176
4295,34112
4296,34112
4297,34176
4298,34112
4299,33792
4300,33600
4301,33536
4302,33600
4303,33728
4304,33856
4305,33984
4306,34048
4307,34112
4308,34112
4309,34240
4310,34304
4311,34368
4312,34368
4313,34432
4314,34496
4315,34624
4316,34688
4317,34880
4318,35200
4319,35264
4320,34880
4321,34496
4322,34368
4323,34368
4324,34304
4325,34112
4326,34112
4327,34240
4328,34240
4329,34304
4330,34368
4331,34304
4332,34048
4333,33984
4334,33984
4335,33984
4336,33920
4337,33856
4338,33856
4339,33856
4340,33792
4341,33664
4342,33728
4343,33792
4344,33792
4345,33792
4346,33792
4347,33920
4348,33920
4349,33728
4350,33536
4351,33408
4352,33344
4353,33280
4354,33280
4355,33344
4356,33536
4357,33664
4358,33728
4359,33856
4360,33920
4361,33920
4362,33856
4363,33856
4364,33856
4365,33856
4366,33792
4367,33728
4368,33728
4369,33664
4370,33792
4371,33856
4372,33920
4373,33920
4374,33920
4375,33984
4376,34048
4377,34048
4378,33984
4379,33920
4380,33920
4381,33792
4382,33728
4383,33664
4384,33600
4385,33536
4386,33536
4387,33600
4388,33664
4389,33792
4390,34048
4391,34240
4392,34240
4393,34112
4394,34048
4395,33920
4396,33664
4397,33664
4398,33792
4399,33856
4400,33984
4401,33984
4402,33856
4403,33856
4404,33920
4405,34112
4406,34304
4407,34432
4408,34432
4409,34240
4410,34112
4411,34176
4412,34432
4413,34624
4414,34496
4415,34304
4416,34240
4417,34304
4418,34304
4419,34048
4420,33920
4421,33920
4422,33728
4423,33344
4424,33152
4425,33088
4426,33216
4427,33408
4428,33664
4429,33792
4430,33856
4431,33856
4432,33856
4433,33856
4434,33920
4435,33920
4436,34048
4437,34176
4438,34112
4439,33856
4440,33664
4441,33600
4442,33728
4443,33984
4444,34368
4445,34880
4446,35840
4447,37184
4448,38912
4449,40640
4450,41408
4451,40704
4452,38784
4453,36160
4454,33408
4455,31296
4456,30464
4457,30400
4458,30912
4459,31616
4460,32256
4461,32640
4462,32896
4463,33216
4464,33536
4465,33728
4466,33856
4467,33984
4468,34176
4469,34176
4470,34112
4471,34112
4472,34112
4473,34176
4474,34112
4475,34176
4476,34368
4477,34496
4478,34304
4479,34048
4480,33856
4481,33664
4482,33536
4483,33600
4484,33792
4485,33856
4486,33792
4487,33920
4488,34176
4489,34304
4490,34304
4491,34240
4492,34304
4493,34432
4494,34752
4495,34752
4496,34560
4497,34432
4498,34432
4499,34496
4500,34496
4501,34368
4502,34432
4503,34560
4504,34560
4505,34496
4506,34432
4507,34432
4508,34304
4509,34176
4510,34240
4511,34176
4512,34048
4513,34048
4514,34176
4515,34176
4516,34176
4517,34176
4518,34112
4519,33856
4520,33664
4521,33472
4522,33344
4523,33408
4524,33600
4525,33536
4526,33472
4527,33472
4528,33536
4529,33472
4530,33472
4531,33472
4532,33280
4533,33088
4534,33088
4535,33216
4536,33472
4537,33600
4538,33600
4539,33600
4540,33728
4541,33856
4542,33920
4543,33856
4544,33728
4545,33664
4546,33600
4547,33664
4548,33728
4549,33792
4550,33792
4551,33664
4552,33664
4553,33664
4554,33664
4555,33664
4556,33600
4557,33536
4558,33536
4559,33536
4560,33600
4561,33664
4562,33664
4563,33664
4564,33664
4565,33600
4566,33600
4567,33664
4568,33728
4569,33792
4570,33664
4571,33600
4572,33600
4573,33536
4574,33472
4575,33408
4576,33408
4577,33472
4578,33536
4579,33536
4580,33664
4581,33728
4582,33728
4583,33856
4584,33920
4585,34048
4586,34048
4587,34048
4588,34048
4589,34048
4590,33920
4591,33920
4592,34048
4593,34240
4594,34240
4595,34176
4596,34176
4597,34304
4598,34432
4599,34432
4600,34240
4601,33920
4602,33664
4603,33536
4604,33472
4605,33344
4606,33088
4607,33024
4608,32960
4609,33152
4610,33280
4611,33408
4612,33472
4613,33664
4614,33728
4615,33792
4616,33728
4617,33664
4618,33664
4619,33728
4620,33792
4621,33792
4622,33856
4623,34048
4624,34176
4625,34304
4626,34752
4627,35520
4628,36608
4629,38208
4630,39616
4631,40256
4632,39552
4633,37760
4634,35328
4635,33088
4636,31488
4637,30528
4638,30400
4639,30656
4640,31104
4641,31744
4642,32640
4643,33280
4644,33408
4645,33280
4646,33408
4647,33536
4648,33664
4649,33792
4650,33664
4651,33536
4652,33408
4653,33408
4654,33408
4655,33600
4656,33792
4657,33664
4658,33536
4659,33472
4660,33664
4661,33984
4662,34176
4663,34240
4664,34112
4665,33984
4666,33856
4667,33664
4668,33600
4669,33536
4670,33600
4671,33728
4672,33792
4673,33920
4674,34112
4675,34304
4676,34496
4677,34624
4678,34624
4679,34560
4680,34560
4681,34496
4682,34496
4683,34624
4684,34624
4685,34560
4686,34496
4687,34432
4688,34432
4689,34368
4690,34368
4691,34432
4692,34560
4693,34752
4694,34752
4695,34688
4696,34624
4697,34688
4698,34432
4699,33792
4700,33280
4701,33088
4702,33088
4703,33152
4704,33152
4705,33216
4706,33344
4707,33472
4708,33664
4709,33792
4710,33792
4711,33728
4712,33728
4713,33792
4714,33856
4715,33984
4716,34240
4717,34560
4718,34624
4719,34240
4720,33792
4721,33664
4722,33856
4723,33920
4724,33792
4725,33792
4726,33792
4727,33728
4728,33728
4729,33792
4730,33920
4731,33984
4732,34048
4733,34112
4734,34176
4735,34240
4736,34304
4737,34368
4738,34304
4739,34304
4740,34176
4741,34048
4742,33920
4743,33856
4744,33856
4745,33920
4746,33920
4747,33984
4748,34048
4749,34112
4750,34112
4751,34048
4752,33984
4753,34112
4754,34112
4755,33984
4756,33856
4757,33792
4758,33920
4759,34240
4760,34368
4761,34432
4762,34432
4763,34368
4764,34176
4765,34176
4766,34304
4767,34368
4768,34176
4769,34048
4770,34048
4771,34112
4772,34176
4773,34240
4774,34240
4775,34240
4776,34176
4777,34048
4778,33984
4779,33920
4780,33920
4781,33984
4782,33984
4783,33920
4784,33792
4785,33728
4786,33792
4787,33920
4788,33856
4789,33792
4790,33920
4791,33984
4792,33984
4793,33984
4794,33856
4795,33664
4796,33472
4797,33408
4798,33536
4799,33600
4800,33920
4801,34624
4802,35776
4803,37248
4804,39104
4805,40448
4806,40896
4807,40000
4808,38080
4809,35520
4810,33152
4811,31488
4812,30720
4813,30656
4814,30848
4815,31296
4816,31872
4817,32512
4818,32960
4819,33216
4820,33408
4821,33664
4822,33984
4823,34176
4824,34240
4825,34176
4826,34048
4827,33728
4828,33408
4829,33280
4830,33344
4831,33472
4832,33664
4833,33792
4834,33984
4835,34048
4836,33920
4837,33792
4838,33728
4839,33728
4840,33728
4841,33728
4842,33856
4843,33984
4844,34048
4845,34112
4846,34112
4847,34048
4848,33856
4849,33856
4850,33984
4851,34112
4852,34240
4853,34304
4854,34368
4855,34432
4856,34496
4857,34688
4858,34688
4859,34496
4860,34496
4861,34560
4862,34624
4863,34432
4864,34240
4865,34048
4866,33920
4867,33856
4868,33856
4869,33920
4870,33984
4871,33984
4872,33920
4873,33792
4874,33664
4875,33536
4876,33472
4877,33408
4878,33472
4879,33664
4880,33664
4881,33472
4882,33280
4883,33280
4884,33472
4885,33664
4886,33728
4887,33664
4888,33408
4889,33216
4890,33152
4891,33152
4892,33344
4893,33664
4894,33792
4895,33728
4896,33792
4897,33856
4898,33728
4899,33728
4900,33792
4901,33856
4902,33920
4903,33856
4904,33728
4905,33792
4906,33920
4907,33920
4908,33728
4909,33536
4910,33600
4911,33792
4912,33792
4913,33664
4914,33792
4915,33856
4916,33792
4917,33600
4918,33472
4919,33472
4920,33472
4921,33536
4922,33728
4923,33792
4924,33792
4925,33792
4926,33792
4927,33792
4928,33728
4929,33728
4930,33728
4931,33536
4932,33408
4933,33536
4934,33792
4935,34048
4936,34048
4937,33984
4938,33984
4939,33984
4940,33984
4941,34048
4942,34112
4943,34112
4944,34112
4945,34176
4946,34368
4947,34432
4948,34368
4949,34176
4950,33984
4951,33856
4952,33920
4953,33792
4954,33536
4955,33280
4956,33280
4957,33280
4958,33280
4959,33280
4960,33280
4961,33344
4962,33408
4963,33536
4964,33792
4965,33856
4966,33664
4967,33536
4968,33472
4969,33600
4970,33664
4971,33664
4972,33664
4973,33728
4974,33984
4975,34240
4976,34688
4977,35520
4978,36608
4979,38144
4980,39936
4981,40768
4982,40448
4983,38848
4984,36288
4985,33920
4986,31872
4987,30784
4988,30400
4989,30528
4990,31104
4991,31680
4992,32128
4993,32512
4994,32768
4995,33024
4996,33216
4997,33472
4998,33664
4999,33920
5000,33984
5001,33920
5002,33856
5003,33792
5004,33792
5005,33856
5006,33856
5007,33920
5008,33984
5009,34048
5010,33984
5011,33792
5012,33600
5013,33664
5014,33728
5015,33792
5016,33664
5017,33664
5018,33728
5019,33856
5020,33920
5021,33920
5022,33920
5023,33920
5024,33920
5025,33984
5026,34048
5027,34176
5028,34176
5029,34112
5030,34048
5031,34112
5032,34304
5033,34432
5034,34432
5035,34304
5036,34240
5037,34176
5038,34112
5039,34112
5040,34112
5041,34176
5042,34112
5043,34176
5044,34176
5045,34112
5046,33920
5047,33792
5048,33664
5049,33536
5050,33472
5051,33408
5052,33472
5053,33472
5054,33344
5055,33088
5056,32896
5057,32896
5058,33024
5059,33152
5060,33216
5061,33280
5062,33344
5063,33280
5064,33280
5065,33280
5066,33344
5067,33408
5068,33472
5069,33536
5070,33536
5071,33536
5072,33600
5073,33728
5074,33792
5075,33664
5076,33536
5077,33472
5078,33408
5079,33472
5080,33536
5081,33600
5082,33664
5083,33664
5084,33664
5085,33664
5086,33600
5087,33408
5088,33344
5089,33344
5090,33280
5091,33216
5092,33216
5093,33408
5094,33472
5095,33408
5096,33536
5097,33600
5098,33408
5099,33280
5100,33344
5101,33472
5102,33536
5103,33472
5104,33344
5105,33344
5106,33344
5107,33408
5108,33600
5109,33600
5110,33536
5111,33472
5112,33408
5113,33536
5114,33728
5115,33856
5116,33792
5117,33792
5118,33792
5119,33856
5120,33984
5121,34112
5122,33920
5123,33664
5124,33600
5125,33664
5126,33856
5127,34112
5128,34112
5129,33856
5130,33664
5131,33600
5132,33472
5133,33344
5134,33280
5135,33088
5136,33024
5137,32960
5138,33088
5139,33280
5140,33216
5141,33152
5142,33216
5143,33280
5144,33280
5145,33344
5146,33344
5147,33344
5148,33472
5149,33536
5150,33408
5151,33344
5152,33344
5153,33472
5154,33600
5155,33728
5156,34176
5157,35008
5158,36096
5159,37632
5160,39360
5161,40384
5162,40320
5163,39104
5164,36992
5165,34304
5166,31872
5167,30400
5168,29888
5169,30016
5170,30400
5171,31040
5172,31808
5173,32384
5174,32704
5175,33024
5176,33152
5177,33216
5178,33344
5179,33472
5180,33600
5181,33728
5182,33728
5183,33856
5184,33856
5185,33664
5186,33472
5187,33472
5188,33536
5189,33408
5190,33408
5191,33408
5192,33472
5193,33536
5194,33536
5195,33536
5196,33664
5197,33792
5198,33856
5199,33856
5200,33792
5201,33728
5202,33856
5203,33984
5204,33984
5205,33792
5206,33856
5207,33856
5208,33856
5209,33856
5210,33984
5211,34112
5212,34240
5213,34240
5214,34240
5215,34304
5216,34368
5217,34368
5218,34304
5219,34176
5220,34112
5221,33984
5222,34048
5223,34048
5224,34048
5225,34112
5226,34112
5227,33856
5228,33664
5229,33600
5230,33408
5231,33280
5232,33088
5233,32960
5234,32960
5235,33024
5236,33024
5237,33024
5238,33088
5239,33152
5240,33152
5241,33152
5242,33280
5243,33472
5244,33600
5245,33472
5246,33408
5247,33344
5248,33472
5249,33792
5250,33984
5251,33792
5252,33472
5253,33216
5254,33152
5255,33216
5256,33216
5257,33280
5258,33536
5259,33792
5260,33728
5261,33472
5262,33408
5263,33408
5264,33472
5265,33472
5266,33536
5267,33664
5268,33792
5269,33728
5270,33664
5271,33728
5272,33792
5273,33728
5274,33856
5275,33920
5276,33728
5277,33472
5278,33280
5279,33344
5280,33472
5281,33600
5282,33536
5283,33664
5284,33792
5285,33600
5286,33472
5287,33408
5288,33600
5289,33600
5290,33536
5291,33472
5292,33600
5293,33664
5294,33728
5295,33856
5296,33984
5297,34112
5298,34112
5299,34112
5300,34304
5301,34432
5302,34432
5303,34432
5304,34368
5305,34176
5306,33920
5307,33664
5308,33600
5309,33664
5310,33984
5311,34176
5312,34304
5313,34368
5314,34304
5315,34240
5316,34112
5317,34112
5318,34112
5319,33984
5320,33792
5321,33600
5322,33280
5323,33152
5324,33216
5325,33408
5326,33536
5327,33600
5328,33536
5329,33600
5330,33600
5331,33600
5332,33536
5333,33536
5334,33600
5335,33664
5336,33728
5337,33792
5338,33920
5339,33984
5340,34304
5341,34880
5342,35840
5343,37120
5344,38784
5345,40128
5346,40704
5347,39936
5348,37888
5349,35264
5350,32896
5351,31296
5352,30464
5353,30464
5354,30976
5355,31680
5356,32064
5357,32448
5358,32832
5359,33216
5360,33536
5361,33728
5362,33728
5363,33728
5364,33728
5365,33728
5366,33728
5367,33664
5368,33664
5369,33664
5370,33728
5371,33792
5372,33792
5373,33792
5374,33728
5375,33728
5376,33728
5377,33664
5378,33664
5379,33664
5380,33728
5381,33792
5382,33856
5383,33984
5384,34048
5385,34048
5386,33984
5387,34048
5388,34176
5389,34240
5390,34112
5391,34048
5392,34112
5393,34176
5394,34240
5395,34240
5396,34240
5397,34240
5398,34240
5399,34304
5400,34240
5401,34304
5402,34304
5403,34304
5404,34304
5405,34496
5406,34816
5407,34816
5408,34432
5409,33984
5410,33600
5411,33344
5412,33280
5413,33280
5414,33344
5415,33280
5416,33344
5417,33344
5418,33280
5419,33344
5420,33408
5421,33344
5422,33280
5423,33280
5424,33280
5425,33344
5426,33472
5427,33536
5428,33472
5429,33472
5430,33472
5431,33472
5432,33536
5433,33664
5434,33984
5435,34048
5436,34048
5437,34176
5438,34176
5439,33856
5440,33600
5441,33408
5442,33088
5443,32896
5444,32960
5445,32896
5446,33024
5447,33408
5448,33536
5449,33664
5450,33856
5451,34112
5452,34368
5453,34368
5454,34112
5455,33664
5456,33344
5457,33216
5458,33216
5459,33216
5460,33216
5461,33216
5462,33344
5463,33472
5464,33600
5465,33664
5466,33728
5467,33728
5468,33664
5469,33664
5470,33728
5471,33792
5472,33856
5473,33856
5474,33920
5475,33920
5476,33856
5477,33856
5478,33856
5479,33856
5480,33792
5481,33792
5482,33792
5483,33664
5484,33792
5485,34048
5486,34176
5487,34048
5488,34176
5489,34240
5490,34048
5491,33792
5492,33664
5493,33728
5494,33792
5495,33984
5496,34112
5497,34176
5498,34176
5499,34176
5500,34304
5501,34304
5502,34112
5503,34048
5504,33920
5505,33792
5506,33600
5507,33216
5508,33152
5509,33088
5510,33024
5511,33216
5512,33536
5513,33664
5514,33664
5515,33664
5516,33728
5517,33728
5518,33664
5519,33664
5520,33664
5521,33664
5522,33664
5523,33600
5524,33664
5525,33792
5526,33984
5527,34368
5528,34944
5529,35648
5530,36672
5531,38208
5532,39744
5533,40448
5534,40000
5535,38272
5536,35776
5537,33152
5538,31296
5539,30528
5540,30528
5541,30912
5542,31296
5543,31680
5544,32128
5545,32576
5546,33024
5547,33408
5548,33664
5549,33792
5550,33792
5551,33856
5552,33792
5553,33792
5554,33856
5555,33920
5556,34048
5557,34048
5558,33984
5559,33920
5560,33728
5561,33472
5562,33408
5563,33408
5564,33536
5565,33472
5566,33408
5567,33408
5568,33536
5569,33664
5570,33856
5571,33920
5572,33984
5573,34048
5574,34048
5575,33984
5576,33984
5577,33984
5578,34048
5579,34176
5580,34176
5581,34304
5582,34432
5583,34624
5584,34624
5585,34560
5586,34688
5587,34880
5588,34688
5589,34368
5590,34112
5591,34048
5592,34048
5593,33920
5594,33728
5595,33664
5596,33728
5597,33728
5598,33664
5599,33664
5600,33664
5601,33664
5602,33664
5603,33664
5604,33664
5605,33664
5606,33600
5607,33536
5608,33472
5609,33600
5610,33600
5611,33984
5612,33856
5613,33600
5614,33472
5615,33344
5616,33280
5617,33408
5618,33536
5619,33472
5620,33472
5621,33536
5622,33408
5623,33344
5624,33408
5625,33344
5626,33600
5627,33856
5628,34048
5629,34240
5630,34304
5631,33984
5632,33728
5633,33664
5634,33728
5635,33792
5636,33664
5637,33600
5638,33600
5639,33664
5640,33600
5641,33600
5642,33664
5643,33728
5644,33792
5645,33792
5646,33792
5647,33728
5648,33600
5649,33600
5650,33664
5651,33664
5652,33728
5653,33856
5654,34176
5655,34176
5656,34304
5657,34112
5658,33856
5659,33600
5660,33536
5661,33536
5662,33664
5663,33792
5664,33856
5665,33856
5666,33856
5667,33920
5668,34112
5669,34304
5670,34368
5671,34368
5672,34368
5673,34368
5674,34304
5675,34240
5676,34176
5677,34240
5678,34240
5679,34240
5680,34304
5681,34432
5682,34624
5683,34624
5684,34560
5685,34496
5686,34368
5687,34176
5688,33920
5689,33728
5690,33536
5691,33408
5692,33344
5693,33344
5694,33472
5695,33600
5696,33792
5697,33920
5698,34048
5699,34112
5700,34048
5701,33920
5702,33792
5703,33728
5704,33664
5705,33664
5706,33536
5707,33536
5708,33600
5709,33792
5710,34048
5711,34624
5712,35648
5713,36928
5714,38784
5715,40064
5716,40832
5717,40384
5718,38720
5719,36032
5720,33792
5721,32000
5722,31040
5723,30848
5724,30976
5725,31360
5726,31680
5727,32128
5728,32576
5729,33280
5730,33280
5731,33664
5732,33664
5733,33728
5734,33792
5735,33792
5736,33856
5737,33920
5738,33984
5739,33984
5740,33984
5741,34112
5742,34176
5743,34176
5744,34112
5745,34112
5746,34240
5747,34176
5748,34176
5749,34176
5750,33984
5751,33600
5752,33472
5753,33536
5754,33600
5755,33664
5756,33792
5757,33920
5758,34048
5759,34240
5760,34240
5761,34368
5762,34496
5763,34560
5764,34624
5765,34688
5766,34752
5767,34752
5768,34688
5769,34624
5770,34688
5771,34816
5772,34944
5773,34816
5774,34432
5775,34176
5776,34048
5777,33984
5778,33920
5779,33984
5780,33984
5781,33856
5782,33792
5783,33920
5784,33920
5785,33792
5786,33600
5787,33536
5788,33536
5789,33536
5790,33536
5791,33600
5792,33472
5793,33344
5794,33408
5795,33472
5796,33472
5797,33408
5798,33344
5799,33408
5800,33600
5801,33664
5802,33792
5803,33984
5804,34176
5805,34112
5806,33856
5807,33792
5808,33856
5809,33920
5810,33984
5811,33920
5812,33728
5813,33600
5814,33472
5815,33344
5816,33472
5817,33600
5818,33728
5819,33792
5820,33728
5821,33728
5822,33792
5823,33920
5824,33984
5825,33856
5826,33728
5827,33664
5828,33664
5829,33664
5830,33664
5831,33728
5832,33856
5833,33984
5834,33856
5835,33792
5836,33728
5837,33728
5838,33856
5839,33920
5840,33920
5841,33792
5842,33536
5843,33408
5844,33472
5845,33664
5846,33792
5847,33728
5848,33728
5849,33792
5850,33856
5851,33792
5852,33792
5853,33856
5854,33984
5855,34176
5856,34304
5857,34432
5858,34496
5859,34368
5860,34240
5861,34176
5862,34176
5863,34176
5864,34176
5865,34176
5866,34240
5867,34240
5868,34304
5869,34368
5870,34368
5871,34304
5872,34240
5873,34240
5874,34112
5875,33920
5876,33728
5877,33472
5878,33280
5879,33280
5880,33216
5881,33408
5882,33600
5883,33856
5884,33984
5885,33792
5886,33600
5887,33536
5888,33472
5889,33472
5890,33536
5891,33664
5892,33792
5893,33984
5894,34112
5895,34048
5896,34368
5897,34688
5898,35520
5899,36672
5900,38272
5901,39680
5902,40256
5903,39808
5904,38208
5905,35840
5906,33408
5907,31616
5908,30720
5909,30656
5910,30976
5911,31552
5912,32128
5913,32640
5914,33024
5915,33472
5916,33856
5917,34112
5918,34176
5919,34240
5920,34304
5921,34176
5922,33792
5923,33280
5924,33088
5925,33152
5926,33280
5927,33536
5928,33792
5929,34048
5930,34112
5931,33984
5932,33856
5933,33856
5934,33920
5935,33984
5936,34048
5937,34112
5938,34240
5939,34304
5940,34368
5941,34432
5942,34240
5943,34112
5944,34048
5945,34112
5946,34176
5947,34176
5948,34176
5949,34240
5950,34304
5951,34432
5952,34496
5953,34496
5954,34496
5955,34560
5956,34496
5957,34496
5958,34624
5959,34624
5960,34624
5961,34560
5962,34560
5963,34368
5964,34176
5965,34112
5966,34112
5967,34048
5968,34048
5969,33920
5970,33792
5971,33728
5972,33600
5973,33536
5974,33536
5975,33536
5976,33472
5977,33408
5978,33408
5979,33472
5980,33472
5981,33536
5982,33664
5983,33728
5984,33856
5985,33728
5986,33472
5987,33472
5988,33664
5989,33728
5990,33664
5991,33664
5992,33664
5993,33664
5994,33600
5995,33600
5996,33536
5997,33536
5998,33600
5999,33664
6000,33792
6001,33792
6002,33792
6003,33792
6004,33792
6005,33728
6006,33728
6007,33792
6008,33792
6009,33792
6010,33920
6011,34112
6012,34176
6013,33984
6014,33728
6015,33472
6016,33344
6017,33344
6018,33408
6019,33600
6020,33664
6021,33728
6022,33664
6023,33664
6024,33728
6025,33792
6026,33728
6027,33664
6028,33664
6029,33728
6030,33792
6031,33792
6032,33920
6033,33856
6034,33920
6035,33920
6036,33792
6037,33728
6038,33856
6039,33984
6040,34048
6041,34304
6042,34432
6043,34304
6044,34048
6045,33920
6046,33856
6047,33920
6048,34048
6049,34240
6050,34304
6051,34240
6052,34368
6053,34496
6054,34432
6055,34304
6056,34112
6057,33856
6058,33600
6059,33344
6060,33152
6061,33152
6062,33216
6063,33088
6064,33024
6065,33088
6066,33216
6067,33408
6068,33600
6069,33792
6070,33984
6071,34112
6072,34112
6073,34048
6074,33984
6075,33856
6076,33728
6077,33664
6078,33920
6079,34240
6080,34368
6081,34816
6082,35648
6083,36672
6084,37952
6085,39360
6086,40064
6087,39744
6088,38016
6089,35520
6090,33152
6091,31680
6092,31040
6093,30784
6094,30976
6095,31360
6096,31936
6097,32448
6098,32960
6099,33472
6100,33920
6101,34240
6102,34240
6103,34176
6104,34176
6105,34112
6106,33920
6107,33792
6108,33856
6109,33856
6110,33792
6111,33792
6112,33984
6113,33984
6114,33856
6115,33728
6116,33600
6117,33600
6118,33664
6119,33728
6120,33856
6121,34048
6122,34112
6123,34176
6124,34112
6125,34048
6126,34112
6127,34176
6128,34304
6129,34432
6130,34496
6131,34496
6132,34688
6133,34944
6134,34944
6135,34560
6136,34240
6137,34240
6138,34304
6139,34240
6140,34240
6141,34304
6142,34304
6143,34368
6144,34496
6145,34624
6146,34560
6147,34496
6148,34560
6149,34624
6150,34624
6151,34560
6152,34240
6153,33984
6154,33920
6155,33984
6156,33856
6157,33600
6158,33472
6159,33536
6160,33536
6161,33472
6162,33408
6163,33344
6164,33344
6165,33408
6166,33600
6167,33792
6168,33984
6169,34048
6170,34048
6171,34048
6172,33920
6173,33856
6174,33920
6175,33920
6176,33984
6177,33920
6178,33984
6179,34048
6180,33984
6181,33984
6182,33984
6183,33984
6184,34112
6185,34368
6186,34368
6187,34176
6188,33856
6189,33664
6190,33728
6191,33856
6192,33984
6193,34112
6194,33984
6195,33664
6196,33600
6197,33536
6198,33408
6199,33472
6200,33536
6201,33664
6202,33728
6203,33856
6204,33920
6205,33856
6206,33856
6207,33856
6208,33984
6209,34112
6210,34112
6211,34048
6212,34112
6213,34176
6214,34176
6215,34112
6216,33920
6217,33664
6218,33472
6219,33472
6220,33600
6221,33664
6222,33856
6223,34048
6224,34176
6225,34240
6226,34240
6227,34240
6228,34304
6229,34368
6230,34368
6231,34368
6232,34368
6233,34368
6234,34432
6235,34560
6236,34752
6237,34752
6238,34560
6239,34176
6240,33728
6241,33472
6242,33344
6243,33280
6244,33280
6245,33280
6246,33216
6247,33216
6248,33344
6249,33408
6250,33536
6251,33664
6252,33728
6253,33728
6254,33792
6255,33792
6256,33856
6257,33920
6258,33984
6259,33984
6260,34048
6261,34240
6262,34496
6263,34816
6264,35328
6265,36160
6266,37504
6267,39104
6268,40320
6269,40576
6270,39360
6271,37120
6272,34560
6273,32384
6274,30976
6275,30400
6276,30528
6277,30976
6278,31616
6279,32320
6280,32896
6281,33216
6282,33536
6283,33792
6284,33984
6285,33920
6286,33728
6287,33792
6288,33984
6289,34048
6290,33792
6291,33600
6292,33536
6293,33536
6294,33664
6295,33792
6296,33920
6297,33792
6298,33728
6299,33792
6300,33920
6301,33856
6302,33792
6303,33856
6304,33920
6305,33920
6306,33984
6307,34048
6308,34048
6309,33984
6310,33984
6311,34048
6312,34112
6313,34176
6314,34240
6315,34368
6316,34432
6317,34368
6318,34368
6319,34496
6320,34432
6321,34368
6322,34240
6323,34176
6324,34112
6325,34176
6326,34240
6327,34240
6328,34240
6329,34240
6330,34240
6331,34176
6332,34176
6333,34112
6334,33984
6335,33920
6336,33920
6337,34048
6338,34176
6339,33920
6340,33536
6341,33408
6342,33408
6343,33216
6344,33088
6345,33088
6346,33152
6347,33152
6348,33152
6349,33216
6350,33344
6351,33344
6352,33344
6353,33408
6354,33536
6355,33536
6356,33536
6357,33600
6358,33664
6359,33664
6360,33728
6361,33792
6362,33792
6363,33856
6364,33984
6365,33984
6366,33856
6367,33600
6368,33408
6369,33536
6370,33856
6371,34112
6372,33984
6373,33728
6374,33536
6375,33472
6376,33536
6377,33536
6378,33536
6379,33600
6380,33600
6381,33728
6382,33856
6383,33856
6384,33728
6385,33536
6386,33472
6387,33536
6388,33664
6389,33600
6390,33664
6391,33920
6392,34048
6393,33856
6394,33600
6395,33472
6396,33536
6397,33664
6398,33728
6399,33920
6400,34112
6401,34176
6402,34240
6403,34240
6404,34304
6405,34496
6406,34560
6407,34368
6408,34176
6409,34112
6410,34112
6411,34304
6412,34368
6413,34368
6414,34240
6415,34240
6416,34112
6417,33920
6418,33664
6419,33472
6420,33472
6421,33472
6422,33472
6423,33472
6424,33536
6425,33600
6426,33664
6427,33792
6428,33792
6429,33664
6430,33536
6431,33600
6432,33664
6433,33792
6434,33792
6435,33792
6436,33728
6437,33728
6438,33856
6439,33984
6440,34240
6441,34752
6442,35456
6443,36544
6444,37952
6445,39552
6446,40576
6447,40448
6448,38912
6449,36416
6450,33856
6451,31936
6452,30848
6453,30592
6454,30848
6455,31360
6456,31936
6457,32704
6458,33088
6459,33216
6460,33344
6461,33472
6462,33600
6463,33792
6464,34048
6465,34112
6466,33920
6467,33792
6468,33792
6469,33792
6470,33856
6471,33920
6472,33984
6473,34112
6474,34240
6475,34176
6476,33984
6477,33984
6478,34112
6479,34048
6480,33792
6481,33600
6482,33600
6483,33856
6484,34048
6485,34112
6486,34176
6487,34112
6488,34048
6489,34048
6490,34112
6491,34240
6492,34304
6493,34432
6494,34432
6495,34560
6496,34560
6497,34624
6498,34624
6499,34688
6500,34688
6501,34688
6502,34624
6503,34560
6504,34368
6505,34304
6506,34368
6507,34432
6508,34304
6509,34048
6510,33856
6511,33728
6512,33792
6513,33856
6514,33792
6515,33728
6516,33664
6517,33600
6518,33536
6519,33536
6520,33536
6521,33536
6522,33600
6523,33600
6524,33600
6525,33600
6526,33664
6527,33920
6528,34048
6529,33920
6530,33600
6531,33408
6532,33472
6533,33536
6534,33472
6535,33472
6536,33472
6537,33600
6538,33600
6539,33536
6540,33536
6541,33600
6542,33664
6543,33728
6544,33792
6545,33856
6546,33856
6547,33856
6548,33792
6549,33856
6550,34048
6551,34240
6552,34304
6553,34176
6554,33920
6555,33536
6556,33344
6557,33280
6558,33344
6559,33536
6560,33664
6561,33664
6562,33728
6563,33792
6564,33856
6565,33920
6566,33856
6567,33728
6568,33664
6569,33792
6570,33856
6571,33920
6572,33920
6573,33856
6574,33920
6575,34240
6576,34304
6577,34048
6578,33984
6579,34048
6580,34048
6581,33984
6582,33856
6583,33920
6584,34048
6585,34176
6586,34304
6587,34304
6588,34240
6589,34368
6590,34496
6591,34496
6592,34368
6593,34176
6594,34112
6595,33984
6596,33856
6597,33856
6598,33792
6599,33600
6600,33472
6601,33408
6602,33472
6603,33536
6604,33472
6605,33408
6606,33344
6607,33536
6608,33728
6609,33856
6610,33792
6611,33792
6612,33920
6613,33984
6614,33920
6615,33920
6616,33920
6617,33920
6618,34112
6619,34624
6620,35584
6621,36864
6622,38464
6623,40064
6624,40960
6625,40512
6626,38848
6627,36224
6628,33664
6629,31744
6630,30720
6631,30464
6632,30720
6633,31232
6634,31744
6635,32320
6636,32832
6637,33216
6638,33664
6639,34048
6640,34112
6641,33984
6642,33792
6643,33664
6644,33600
6645,33728
6646,33792
6647,33792
6648,33792
6649,33792
6650,33856
6651,33856
6652,33920
6653,33984
6654,33984
6655,33984
6656,33984
6657,33984
6658,34176
6659,34304
6660,34240
6661,34240
6662,34048
6663,33856
6664,33728
6665,33728
6666,33856
6667,34112
6668,34304
6669,34368
6670,34560
6671,34688
6672,34688
6673,34688
6674,34624
6675,34432
6676,34432
6677,34432
6678,34432
6679,34496
6680,34560
6681,34496
6682,34240
6683,34176
6684,34240
6685,34240
6686,34304
6687,34240
6688,34176
6689,34048
6690,33984
6691,33920
6692,33856
6693,33792
6694,33728
6695,33856
6696,33984
6697,33792
6698,33472
6699,33280
6700,33216
6701,33280
6702,33408
6703,33472
6704,33536
6705,33664
6706,33664
6707,33536
6708,33536
6709,33472
6710,33472
6711,33536
6712,33600
6713,33664
6714,33728
6715,33792
6716,33792
6717,33792
6718,33728
6719,33728
6720,33728
6721,33664
6722,33792
6723,33920
6724,33856
6725,33728
6726,33600
6727,33664
6728,33728
6729,33728
6730,33664
6731,33664
6732,33600
6733,33664
6734,33664
6735,33728
6736,33664
6737,33664
6738,33664
6739,33664
6740,33728
6741,33792
6742,33920
6743,33984
6744,33920
6745,33728
6746,33600
6747,33536
6748,33664
6749,33728
6750,33728
6751,33728
6752,33920
6753,34240
6754,34368
6755,34176
6756,33920
6757,33920
6758,33920
6759,33856
6760,33984
6761,34240
6762,34240
6763,34112
6764,33984
6765,34176
6766,34240
6767,34112
6768,33920
6769,33920
6770,33920
6771,33856
6772,33664
6773,33472
6774,33280
6775,33280
6776,33344
6777,33472
6778,33600
6779,33600
6780,33536
6781,33472
6782,33600
6783,33664
6784,33600
6785,33536
6786,33600
6787,33792
6788,33728
6789,33600
6790,33536
6791,33600
6792,33600
6793,33664
6794,33920
6795,34304
6796,35072
6797,36032
6798,37376
6799,39040
6800,40384
6801,40896
6802,39936
6803,37824
6804,35136
6805,32768
6806,31104
6807,30400
6808,30400
6809,30784
6810,31360
6811,31872
6812,32448
6813,32896
6814,33344
6815,33600
6816,33792
6817,33920
6818,33920
6819,34048
6820,34176
6821,34112
6822,33984
6823,33856
6824,33728
6825,33664
6826,33664
6827,33664
6828,33920
6829,34240
6830,34176
6831,33920
6832,33664
6833,33600
6834,33536
6835,33600
6836,33664
6837,33792
6838,33856
6839,33856
6840,33920
6841,33984
6842,34112
6843,34176
6844,34176
6845,34368
6846,34560
6847,34496
6848,34496
6849,34496
6850,34304
6851,34176
6852,34240
6853,34304
6854,34240
6855,34240
6856,34240
6857,34240
6858,34304
6859,34304
6860,34304
6861,34240
6862,34240
6863,34176
6864,34112
6865,34048
6866,33984
6867,33920
6868,33920
6869,33920
6870,33856
6871,33664
6872,33664
6873,33664
6874,33600
6875,33472
6876,33408
6877,33408
6878,33344
6879,33216
6880,33088
6881,33088
6882,33088
6883,33088
6884,33216
6885,33280
6886,33344
6887,33472
6888,33600
6889,33728
6890,33792
6891,33920
6892,34048
6893,33920
6894,33792
6895,33664
6896,33600
6897,33664
6898,33920
6899,34048
6900,33920
6901,33600
6902,33344
6903,33216
6904,33216
6905,33216
6906,33280
6907,33408
6908,33600
6909,33664
6910,33600
6911,33600
6912,33600
6913,33600
6914,33600
6915,33600
6916,33664
6917,33856
6918,34048
6919,34048
6920,33856
6921,33536
6922,33280
6923,33216
6924,33344
6925,33472
6926,33536
6927,33536
6928,33536
6929,33728
6930,33920
6931,34048
6932,34112
6933,34048
6934,34048
6935,33984
6936,33920
6937,33856
6938,33856
6939,33792
6940,33856
6941,34048
6942,34112
6943,34176
6944,34176
6945,34112
6946,34048
6947,33984
6948,33856
6949,33664
6950,33472
6951,33344
6952,33280
6953,33216
6954,33280
6955,33344
6956,33344
6957,33472
6958,33536
6959,33536
6960,33536
6961,33536
6962,33536
6963,33536
6964,33536
6965,33600
6966,33664
6967,33664
6968,33664
6969,33664
6970,33792
6971,33920
6972,34304
6973,35072
6974,36160
6975,37696
6976,39168
6977,40256
6978,40384
6979,39104
6980,36992
6981,34432
6982,32320
6983,30976
6984,30528
6985,30592
6986,31104
6987,31680
6988,32320
6989,32832
6990,33280
6991,33536
6992,33600
6993,33536
6994,33472
6995,33536
6996,33536
6997,33664
6998,33792
6999,33920
7000,33920
7001,33856
7002,33920
7003,33920
7004,33792
7005,33664
7006,33600
7007,33600
7008,33664
7009,33664
7010,33728
7011,33856
7012,33920
7013,33984
7014,33984
7015,34112
7016,34240
7017,34304
7018,34304
7019,34368
7020,34368
7021,34176
7022,33920
7023,33728
7024,33792
7025,33920
7026,33984
7027,34048
7028,34176
7029,34304
7030,34368
7031,34432
7032,34496
7033,34560
7034,34496
7035,34368
7036,34304
7037,34304
7038,34304
7039,34304
7040,34240
7041,34176
7042,34112
7043,33984
7044,33856
7045,33856
7046,33856
7047,33728
7048,33536
7049,33408
7050,33344
7051,33280
7052,33216
7053,33344
7054,33408
7055,33408
7056,33472
7057,33664
7058,33856
7059,33600
7060,33216
7061,33088
7062,33088
7063,33152
7064,33216
7065,33344
7066,33536
7067,33600
7068,33664
7069,33728
7070,33728
7071,33792
7072,33728
7073,33792
7074,33856
7075,34048
7076,34048
7077,33920
7078,33856
7079,33984
7080,34048
7081,33856
7082,33536
7083,33344
7084,33344
7085,33216
7086,33152
7087,33152
7088,33280
7089,33408
7090,33472
7091,33536
7092,33600
7093,33664
7094,33728
7095,33792
7096,33792
7097,33792
7098,33984
7099,34176
7100,34240
7101,34112
7102,33984
7103,33792
7104,33664
7105,33600
7106,33664
7107,33856
7108,33984
7109,34112
7110,33984
7111,33856
7112,33856
7113,33920
7114,33984
7115,33984
7116,34048
7117,34112
7118,34176
7119,34240
7120,34304
7121,34368
7122,34432
7123,34496
7124,34560
7125,34688
7126,34624
7127,34240
7128,33792
7129,33600
7130,33216
7131,32960
7132,32960
7133,33216
7134,33408
7135,33472
7136,33600
7137,33600
7138,33536
7139,33472
7140,33536
7141,33664
7142,33728
7143,33728
7144,33792
7145,33856
7146,33920
7147,33792
7148,33792
7149,33856
7150,33984
7151,34368
7152,35072
7153,36224
7154,37696
7155,39552
7156,40448
7157,40512
7158,39168
7159,36800
7160,34176
7161,32064
7162,30912
7163,30528
7164,30656
7165,31168
7166,31680
7167,32192
7168,32704
7169,33152
7170,33472
7171,33600
7172,33664
7173,33664
7174,33664
7175,33600
7176,33600
7177,33600
7178,33600
7179,33664
7180,33792
7181,33792
7182,33856
7183,33984
7184,33984
7185,33792
7186,33728
7187,33664
7188,33664
7189,33664
7190,33728
7191,33792
7192,33856
7193,33856
7194,33920
7195,33984
7196,33984
7197,33984
7198,34048
7199,34112
7200,34240
7201,34304
7202,34368
7203,34304
7204,34304
7205,34240
7206,34240
7207,34368
7208,34688
7209,35072
7210,34816
7211,34752
7212,34432
7213,33792
7214,33344
7215,33280
7216,33472
7217,33600
7218,33664
7219,33664
7220,33920
7221,33984
7222,34048
7223,34112
7224,34048
7225,33856
7226,33728
7227,33600
7228,33536
7229,33536
7230,33472
7231,33472
7232,33728
7233,33792
7234,33728
7235,33600
7236,33600
7237,33600
7238,33664
7239,33664
7240,33472
7241,33280
7242,33088
7243,33088
7244,33280
7245,33216
7246,33344
7247,33664
7248,33792
7249,33792
7250,33920
7251,33920
7252,33920
7253,33920
7254,33856
7255,33792
7256,33792
7257,33728
7258,33664
7259,33728
7260,33664
7261,33728
7262,33984
7263,33920
7264,33792
7265,33728
7266,33664
7267,33600
7268,33472
7269,33408
7270,33408
7271,33536
7272,33664
7273,33664
7274,33664
7275,33792
7276,33984
7277,33984
7278,33728
7279,33664
7280,33408
7281,33408
7282,33472
7283,33600
7284,33664
7285,33664
7286,33664
7287,33792
7288,33856
7289,34048
7290,33984
7291,34112
7292,34176
7293,34240
7294,34176
7295,34240
7296,34112
7297,34112
7298,34176
7299,34112
7300,34112
7301,34048
7302,34112
7303,34240
7304,34368
7305,34304
7306,34240
7307,34048
7308,33856
7309,33664
7310,33472
7311,33344
7312,33280
7313,33344
7314,33408
7315,33472
7316,33472
7317,33472
7318,33536
7319,33600
7320,33600
7321,33600
7322,33600
7323,33664
7324,33664
7325,33728
7326,33728
7327,33792
7328,33856
7329,33856
7330,33920
7331,34240
7332,34816
7333,35648
7334,37120
7335,37312
7336,39872
7337,40512
7338,39872
7339,38080
7340,35648
7341,33344
7342,31616
7343,30720
7344,30528
7345,30784
7346,31232
7347,31808
7348,32320
7349,32832
7350,32832
7351,33216
7352,33536
7353,33728
7354,33856
7355,33856
7356,33920
7357,33920
7358,33856
7359,33856
7360,33728
7361,33664
7362,33600
7363,33536
7364,33600
7365,33536
7366,33728
7367,33792
7368,33856
7369,33984
7370,33920
7371,33856
7372,33792
7373,33792
7374,33856
7375,33856
7376,33920
7377,33920
7378,33984
7379,34048
7380,34048
7381,33984
7382,34048
7383,34176
7384,34304
7385,34368
7386,34368
7387,34368
7388,34368
7389,34368
7390,34368
7391,34432
7392,34496
7393,34368
7394,34176
7395,34112
7396,34176
7397,34112
7398,33984
7399,33920
7400,33920
7401,33856
7402,33856
7403,33792
7404,33728
7405,33728
7406,33728
7407,33664
7408,33600
7409,33472
7410,33408
7411,33408
7412,33472
7413,33472
7414,33536
7415,33536
7416,33472
7417,33472
7418,33728
7419,33792
7420,33536
7421,33216
7422,33088
7423,33152
7424,33216
7425,33280
7426,33408
7427,33536
7428,33600
7429,33664
7430,33600
7431,33600
7432,33664
7433,33664
7434,33664
7435,33664
7436,33728
7437,33792
7438,33920
7439,33856
7440,33792
7441,33600
7442,33536
7443,33536
7444,33536
7445,33600
7446,33792
7447,33920
7448,33920
7449,33792
7450,33664
7451,33472
7452,33344
7453,33280
7454,33344
7455,33344
7456,33600
7457,33664
7458,33664
7459,33664
7460,33664
7461,33664
7462,33664
7463,33664
7464,33728
7465,33856
7466,34048
7467,34240
7468,34304
7469,34368
7470,34304
7471,34304
7472,34240
7473,34304
7474,34368
7475,34176
7476,33984
7477,33856
7478,34048
7479,34112
7480,33984
7481,33792
7482,33728
7483,33664
7484,33536
7485,33408
7486,33408
7487,33344
7488,33344
7489,33472
7490,33600
7491,33664
7492,33664
7493,33664
7494,33664
7495,33664
7496,33728
7497,33792
7498,33920
7499,33856
7500,33792
7501,33728
7502,33664
7503,33728
7504,33792
7505,33792
7506,33728
7507,33920
7508,34560
7509,35584
7510,36928
7511,38592
7512,40064
7513,40704
7514,39680
7515,39360
7516,36096
7517,33728
7518,31872
7519,30912
7520,30656
7521,30720
7522,31040
7523,31552
7524,32128
7525,32576
7526,32960
7527,33280
7528,33600
7529,33856
7530,34048
7531,34112
7532,34176
7533,34240
7534,34240
7535,34240
7536,34176
7537,34048
7538,34048
7539,34112
7540,34048
7541,33920
7542,33920
7543,33920
7544,33984
7545,33920
7546,33920
7547,33728
7548,33664
7549,33728
7550,33856
7551,33920
7552,33984
7553,33984
7554,34048
7555,34048
7556,34240
7557,34432
7558,34624
7559,34560
7560,34496
7561,34432
7562,34496
7563,34624
7564,34688
7565,34624
7566,34560
7567,34496
7568,34560
7569,34688
7570,34624
7571,34432
7572,34304
7573,34304
7574,34240
7575,34176
7576,34048
7577,34048
7578,34112
7579,34048
7580,33984
7581,33792
7582,33792
7583,33728
7584,33728
7585,33728
7586,33728
7587,33664
7588,33472
7589,33216
7590,33216
7591,33344
7592,33600
7593,33856
7594,33856
7595,33792
7596,33664
7597,33600
7598,33408
7599,33344
7600,33344
7601,33280
7602,33280
7603,33280
7604,33408
7605,33344
7606,33472
7607,33728
7608,33728
7609,33792
7610,33728
7611,33792
7612,33792
7613,33856
7614,33920
7615,34048
7616,34176
7617,34112
7618,34048
7619,33792
7620,33728
7621,33472
7622,33536
7623,33408
7624,33152
7625,33088
7626,33216
7627,33344
7628,33472
7629,33664
7630,33792
7631,33920
7632,33984
7633,34048
7634,34048
7635,34048
7636,34112
7637,34112
7638,34048
7639,33920
7640,33984
7641,33984
7642,33984
7643,33984
7644,33984
7645,33984
7646,33920
7647,33792
7648,33664
7649,33536
7650,33472
7651,33408
7652,33408
7653,33408
7654,33408
7655,33472
7656,33408
7657,33344
7658,33408
7659,33472
7660,33728
7661,33920
7662,33856
7663,33664
7664,33536
7665,33472
7666,33472
7667,33600
7668,33856
7669,34112
7670,34176
7671,34176
7672,34432
7673,35200
7674,36352
7675,37824
7676,39424
7677,40512
7678,40768
7679,39040
7680,38720
7681,35136
7682,32704
7683,31040
7684,30592
7685,30784
7686,31232
7687,31680
7688,32128
7689,32512
7690,33024
7691,33408
7692,33472
7693,33408
7694,33472
7695,33536
7696,33536
7697,33600
7698,33600
7699,33728
7700,33792
7701,33792
7702,33920
7703,34048
7704,34176
7705,34112
7706,33984
7707,33984
7708,34112
7709,34240
7710,34176
7711,34048
7712,33984
7713,33984
7714,33856
7715,33792
7716,33856
7717,33984
7718,34176
7719,34304
7720,34176
7721,34048
7722,34112
7723,34304
7724,34496
7725,34432
7726,34368
7727,34432
7728,34624
7729,34752
7730,34752
7731,34624
7732,34496
7733,34432
7734,34304
7735,34176
7736,34112
7737,34048
7738,34112
7739,34176
7740,34240
7741,34176
7742,34048
7743,33920
7744,33856
7745,33728
7746,33600
7747,33344
7748,33216
7749,33088
7750,33088
7751,33088
7752,32960
7753,32896
7754,32960
7755,32960
7756,33088
7757,33216
7758,33280
7759,33344
7760,33280
7761,33216
7762,33280
7763,33280
7764,33280
7765,33280
7766,33344
7767,33408
7768,33408
7769,33344
7770,33280
7771,33280
7772,33344
7773,33472
7774,33600
7775,33664
7776,33728
7777,33600
7778,33472
7779,33472
7780,33472
7781,33344
7782,33280
7783,33216
7784,33216
7785,33152
7786,33280
7787,33344
7788,33536
7789,33600
7790,33664
7791,33728
7792,33792
7793,33920
7794,33920
7795,33856
7796,33728
7797,33728
7798,33792
7799,33792
7800,33792
7801,33792
7802,33856
7803,33856
7804,33856
7805,33856
7806,33792
7807,33728
7808,33728
7809,33792
7810,33728
7811,33408
7812,33088
7813,32896
7814,32704
7815,32640
7816,32768
7817,33024
7818,33216
7819,33280
7820,33280
7821,33280
7822,33408
7823,33408
7824,33408
7825,33472
7826,33728
7827,33856
7828,33920
7829,33728
7830,33664
7831,33408
7832,33408
7833,33664
7834,34240
7835,35328
7836,36736
7837,38464
7838,39936
7839,40576
7840,39936
7841,38016
7842,35456
7843,33024
7844,31168
7845,30400
7846,30272
7847,30464
7848,31040
7849,31744
7850,32192
7851,32576
7852,32832
7853,33088
7854,33344
7855,33664
7856,33792
7857,33600
7858,33408
7859,33472
7860,33408
7861,33408
7862,33216
7863,33152
7864,33088
7865,33152
7866,33280
7867,33344
7868,33344
7869,33280
7870,33344
7871,33408
7872,33408
7873,33408
7874,33536
7875,33472
7876,33600
7877,33600
7878,33600
7879,33536
7880,33536
7881,33600
7882,33664
7883,33728
7884,33664
7885,33728
7886,33920
7887,34048
7888,33984
7889,33920
7890,33920
7891,33920
7892,33984
7893,33984
7894,33920
7895,33920
7896,33920
7897,33856
7898,33728
7899,33664
7900,33600
7901,33600
7902,33600
7903,33472
7904,33344
7905,33152
7906,33024
7907,32960
7908,32896
7909,32896
7910,32832
7911,32896
7912,32896
7913,32896
7914,32832
7915,32832
7916,32896
7917,32896
7918,32832
7919,32768
7920,32832
7921,32832
7922,32768
7923,32768
7924,32896
7925,33024
7926,33088
7927,33088
7928,33152
7929,33216
7930,33216
7931,33216
7932,33216
7933,33344
7934,33472
7935,33408
7936,33408
7937,33280
7938,33152
7939,33024
7940,33088
7941,33152
7942,33152
7943,33152
7944,33216
7945,33280
7946,33408
7947,33664
7948,33856
7949,33792
7950,33536
7951,33344
7952,33280
7953,33344
7954,33408
7955,33472
7956,33536
7957,33664
7958,33856
7959,33984
7960,33856
7961,33856
7962,33856
7963,33856
7964,33856
7965,33920
7966,33984
7967,34048
7968,33792
7969,33536
7970,33408
7971,33344
7972,33344
7973,33408
7974,33600
7975,33600
7976,33472
7977,33344
7978,33216
7979,33088
7980,33088
7981,33216
7982,33280
7983,33344
7984,33408
7985,33408
7986,33472
7987,33472
7988,33536
7989,33600
7990,33600
7991,33600
7992,33600
7993,33728
7994,33856
7995,34112
7996,34176
7997,34496
7998,35392
7999,36608
8000,38208
8001,39936
8002,40960
8003,40704
8004,39296
8005,36864
8006,33984
8007,31424
8008,29952
8009,29440
8010,29696
8011,30400
8012,31104
8013,31808
8014,32320
8015,32832
8016,33216
8017,33472
8018,33664
8019,33728
8020,33856
8021,33792
8022,33728
8023,33728
8024,33664
8025,33728
8026,33792
8027,33856
8028,33920
8029,33856
8030,33792
8031,33728
8032,33728
8033,33728
8034,33728
8035,33856
8036,33984
8037,33920
8038,33664
8039,33536
8040,33408
8041,33344
8042,33408
8043,33472
8044,33536
8045,33728
8046,33856
8047,34112
8048,34368
8049,34560
8050,34560
8051,34496
8052,34496
8053,34560
8054,34560
8055,34688
8056,34880
8057,34752
8058,34432
8059,34240
8060,34304
8061,34432
8062,34304
8063,33984
8064,33792
8065,33728
8066,33600
8067,33536
8068,33472
8069,33536
8070,33664
8071,33728
8072,33664
8073,33600
8074,33536
8075,33536
8076,33536
8077,33536
8078,33600
8079,33600
8080,33600
8081,33472
8082,33408
8083,33472
8084,33536
8085,33536
8086,33408
8087,33408
8088,33536
8089,33536
8090,33472
8091,33472
8092,33536
8093,33600
8094,33728
8095,33792
8096,33856
8097,33856
8098,33856
8099,33984
8100,33984
8101,33856
8102,33728
8103,33728
8104,33856
8105,33984
8106,33920
8107,33920
8108,34112
8109,34304
8110,34112
8111,33472
8112,33024
8113,32768
8114,32832
8115,33024
8116,33216
8117,33408
8118,33536
8119,33728
8120,33920
8121,33984
8122,34048
8123,34048
8124,33984
8125,33856
8126,33728
8127,33728
8128,33728
8129,33728
8130,33728
8131,33856
8132,33984
8133,34048
8134,33920
8135,33792
8136,33728
8137,33536
8138,33280
8139,33152
8140,33088
8141,33024
8142,32960
8143,32960
8144,33024
8145,33152
8146,33216
8147,33216
8148,33280
8149,33344
8150,33408
8151,33408
8152,33472
8153,33472
8154,33536
8155,33600
8156,33600
8157,33792
8158,34112
8159,34176
8160,34176
8161,34496
8162,35264
8163,36352
8164,37888
8165,39616
8166,40704
8167,40384
8168,38656
8169,36160
8170,33600
8171,31552
8172,30464
8173,30272
8174,30592
8175,31104
8176,31616
8177,32192
8178,32704
8179,33088
8180,33408
8181,33600
8182,33856
8183,33984
8184,34048
8185,34112
8186,34176
8187,34176
8188,34176
8189,34112
8190,34112
8191,34176
8192,34048
8193,33856
8194,33536
8195,33472
8196,33536
8197,33600
8198,33664
8199,33792
8200,33856
8201,33984
8202,34048
8203,34112
8204,34176
8205,34240
8206,34240
8207,34368
8208,34432
8209,34496
8210,34496
8211,34560
8212,34752
8213,34880
8214,35008
8215,35008
8216,34752
8217,34624
8218,34560
8219,34560
8220,34432
8221,34304
8222,34176
8223,34176
8224,34304
8225,34432
8226,34624
8227,34816
8228,34816
8229,34560
8230,34240
8231,34112
8232,34048
8233,34048
8234,34048
8235,34048
8236,33792
8237,33664
8238,33664
8239,33728
8240,33600
8241,33472
8242,33408
8243,33472
8244,33536
8245,33664
8246,33664
8247,33600
8248,33536
8249,33600
8250,33728
8251,33792
8252,33920
8253,33984
8254,33984
8255,33984
8256,33984
8257,34048
8258,34112
8259,34048
8260,33920
8261,33856
8262,33920
8263,33920
8264,33920
8265,33984
8266,34048
8267,34304
8268,34432
8269,34432
8270,34240
8271,33920
8272,33600
8273,33472
8274,33536
8275,33600
8276,33728
8277,33856
8278,33920
8279,33920
8280,33920
8281,33856
8282,33920
8283,33984
8284,33984
8285,33920
8286,33984
8287,34048
8288,34176
8289,34240
8290,34176
8291,34112
8292,34048
8293,34112
8294,34240
8295,34304
8296,34240
8297,34112
8298,34048
8299,33984
8300,34112
8301,34304
8302,34496
8303,34560
8304,34624
8305,34496
8306,34368
8307,34304
8308,34240
8309,34048
8310,33856
8311,33728
8312,33536
8313,33216
8314,33024
8315,33088
8316,33216
8317,33408
8318,33536
8319,33536
8320,33600
8321,33664
8322,33728
8323,33792
8324,33792
8325,33792
8326,33792
8327,33792
8328,33856
8329,33984
8330,34048
8331,34112
8332,34176
8333,34368
8334,34688
8335,35200
8336,36160
8337,37568
8338,39232
8339,40448
8340,40768
8341,39744
8342,37440
8343,34624
8344,32192
8345,30720
8346,30208
8347,30272
8348,30848
8349,31552
8350,32128
8351,32640
8352,33088
8353,33408
8354,33664
8355,33792
8356,33792
8357,33792
8358,33920
8359,33920
8360,33920
8361,33984
8362,34048
8363,34048
8364,33920
8365,33856
8366,33920
8367,34112
8368,34176
8369,34240
8370,34240
8371,34048
8372,33856
8373,33728
8374,33728
8375,33728
8376,33792
8377,33792
8378,33728
8379,33792
8380,33856
8381,33920
8382,34048
8383,34176
8384,34240
8385,34240
8386,34432
8387,34560
8388,34560
8389,34560
8390,34560
8391,34688
8392,34752
8393,34688
8394,34624
8395,34560
8396,34368
8397,34304
8398,34240
8399,34304
8400,34304
8401,34240
8402,34176
8403,34176
8404,34176
8405,34112
8406,34048
8407,33984
8408,33984
8409,34048
8410,34048
8411,33984
8412,33984
8413,33856
8414,33664
8415,33472
8416,33280
8417,33088
8418,33024
8419,33088
8420,33216
8421,33344
8422,33408
8423,33472
8424,33536
8425,33728
8426,33792
8427,33856
8428,33920
8429,33984
8430,33984
8431,33920
8432,33984
8433,34176
8434,34304
8435,34176
8436,33920
8437,33728
8438,33728
8439,33728
8440,33664
8441,33664
8442,33856
8443,33920
8444,33920
8445,33856
8446,33664
8447,33472
8448,33472
8449,33536
8450,33664
8451,33792
8452,33856
8453,33920
8454,33920
8455,33920
8456,33856
8457,33920
8458,33920
8459,33792
8460,33728
8461,33728
8462,33792
8463,33984
8464,34112
8465,34176
8466,34176
8467,33984
8468,33728
8469,33664
8470,33920
8471,34048
8472,33920
8473,33792
8474,33856
8475,34048
8476,34304
8477,34304
8478,34112
8479,34112
8480,34112
8481,34112
8482,34176
8483,34176
8484,34240
8485,34304
8486,34496
8487,34560
8488,34240
8489,33792
8490,33792
8491,33856
8492,33664
8493,33344
8494,33152
8495,33024
8496,33024
8497,33216
8498,33536
8499,33664
8500,33600
8501,33600
8502,33600
8503,33664
8504,33792
8505,33856
8506,33856
8507,33856
8508,33920
8509,34048
8510,34176
8511,34304
8512,34496
8513,35136
8514,36224
8515,37568
8516,39168
8517,40448
8518,40768
8519,39872
8520,37696
8521,35008
8522,32576
8523,31104
8524,30656
8525,30784
8526,31232
8527,31808
8528,32384
8529,32896
8530,33280
8531,33472
8532,33664
8533,33792
8534,33856
8535,33856
8536,33856
8537,33920
8538,33984
8539,34048
8540,34048
8541,34112
8542,34112
8543,34176
8544,34240
8545,34240
8546,34176
8547,34240
8548,34368
8549,34496
8550,34560
8551,34304
8552,33920
8553,33664
8554,33600
8555,33600
8556,33728
8557,33920
8558,34112
8559,34240
8560,34368
8561,34432
8562,34432
8563,34496
8564,34560
8565,34624
8566,34624
8567,34624
8568,34624
8569,34624
8570,34624
8571,34560
8572,34496
8573,34368
8574,34240
8575,34176
8576,34176
8577,34304
8578,34304
8579,34240
8580,34304
8581,34368
8582,34240
8583,33984
8584,33856
8585,33792
8586,33664
8587,33664
8588,33536
8589,33408
8590,33344
8591,33344
8592,33472
8593,33536
8594,33472
8595,33408
8596,33408
8597,33344
8598,33408
8599,33472
8600,33536
8601,33600
8602,33600
8603,33664
8604,33664
8605,33728
8606,33792
8607,33792
8608,33792
8609,33792
8610,33792
8611,33856
8612,33856
8613,33984
8614,34112
8615,34112
8616,34048
8617,34048
8618,34112
8619,34176
8620,34112
8621,33856
8622,33600
8623,33728
8624,34112
8625,33984
8626,33600
8627,33408
8628,33344
8629,33344
8630,33408
8631,33472
8632,33600
8633,33792
8634,33856
8635,33920
8636,33984
8637,34048
8638,34048
8639,34048
8640,34048
8641,33920
8642,33920
8643,33920
8644,33920
8645,33920
8646,34112
8647,34176
8648,34048
8649,33984
8650,33984
8651,34048
8652,34176
8653,34240
8654,34304
8655,34368
8656,34240
8657,33984
8658,33920
8659,34048
8660,34176
8661,34432
8662,34496
8663,34304
8664,34112
8665,34112
8666,34176
8667,34176
8668,34176
8669,34048
8670,33920
8671,33728
8672,33472
8673,33408
8674,33408
8675,33408
8676,33344
8677,33408
8678,33536
8679,33536
8680,33472
8681,33600
8682,33792
8683,33856
8684,33792
8685,33600
8686,33536
8687,33536
8688,33600
8689,33664
8690,33792
8691,33984
8692,34176
8693,34368
8694,34880
8695,35584
8696,36480
8697,37824
8698,39424
8699,40448
8700,40256
8701,38848
8702,36480
8703,33920
8704,31808
8705,30848
8706,30528
8707,30784
8708,31296
8709,31872
8710,32512
8711,33024
8712,33344
8713,33472
8714,33600
8715,33728
8716,33792
8717,33856
8718,33792
8719,33664
8720,33664
8721,33728
8722,33920
8723,33984
8724,33920
8725,33856
8726,33856
8727,33856
8728,33856
8729,33856
8730,33792
8731,33728
8732,33728
8733,33920
8734,34176
8735,34112
8736,33984
8737,33920
8738,33728
8739,33664
8740,33600
8741,33664
8742,33728
8743,33984
8744,34176
8745,34240
8746,34176
8747,34176
8748,34176
8749,34304
8750,34368
8751,34496
8752,34496
8753,34560
8754,34624
8755,34560
8756,34432
8757,34368
8758,34432
8759,34496
8760,34496
8761,34304
8762,34304
8763,34432
8764,34560
8765,34624
8766,34368
8767,33792
8768,33280
8769,33152
8770,33216
8771,33344
8772,33344
8773,33280
8774,33216
8775,33344
8776,33408
8777,33472
8778,33536
8779,33600
8780,33664
8781,33792
8782,33792
8783,33792
8784,33728
8785,33792
8786,34048
8787,34176
8788,34048
8789,33856
8790,33920
8791,34048
8792,33920
8793,33856
8794,33792
8795,33664
8796,33536
8797,33600
8798,33600
8799,33600
8800,33664
8801,33728
8802,33856
8803,33920
8804,33984
8805,34112
8806,34048
8807,33920
8808,33728
8809,33664
8810,33728
8811,33920
8812,34176
8813,34176
8814,33920
8815,33856
8816,33984
8817,33984
8818,33984
8819,33984
8820,33920
8821,33728
8822,33344
8823,33216
8824,33280
8825,33344
8826,33408
8827,33472
8828,33536
8829,33600
8830,33728
8831,33920
8832,34048
8833,34048
8834,34048
8835,34176
8836,34304
8837,34304
8838,34304
8839,34240
8840,34176
8841,34240
8842,34304
8843,34368
8844,34368
8845,34176
8846,33984
8847,34112
8848,33984
8849,33792
8850,33728
8851,33728
8852,33792
8853,33856
8854,33920
8855,33792
8856,33664
8857,33600
8858,33600
8859,33600
8860,33600
8861,33536
8862,33536
8863,33536
8864,33728
8865,34048
8866,34112
8867,33856
8868,33472
8869,33408
8870,33408
8871,33408
8872,33408
8873,33536
8874,33728
8875,33856
8876,33920
8877,33984
8878,34176
8879,34880
8880,35968
8881,37312
8882,39040
8883,40512
8884,41024
8885,40064
8886,37952
8887,35200
8888,32704
8889,31104
8890,30528
8891,30784
8892,31360
8893,31808
8894,32128
8895,32448
8896,32768
8897,33152
8898,33408
8899,33600
8900,33728
8901,33728
8902,33728
8903,33792
8904,33792
8905,33792
8906,33792
8907,33984
8908,34176
8909,34112
8910,33856
8911,33792
8912,33728
8913,33728
8914,33792
8915,33792
8916,33856
8917,33920
8918,33984
8919,34112
8920,34112
8921,34112
8922,34112
8923,34176
8924,34304
8925,34240
8926,34112
8927,34176
8928,34432
8929,34432
8930,34368
8931,34304
8932,34368
8933,34432
8934,34624
8935,34688
8936,34624
8937,34560
8938,34560
8939,34560
8940,34816
8941,35008
8942,34944
8943,34688
8944,34432
8945,34368
8946,34304
8947,34240
8948,34176
8949,34176
8950,34112
8951,34048
8952,34048
8953,34112
8954,34048
8955,33792
8956,33600
8957,33792
8958,33920
8959,33664
8960,33408
8961,33344
8962,33408
8963,33600
8964,33664
8965,33792
8966,33920
8967,33792
8968,33664
8969,33600
8970,33664
8971,33728
8972,33856
8973,33920
8974,33920
8975,33856
8976,33920
8977,33984
8978,34048
8979,34048
8980,33984
8981,33920
8982,33920
8983,33920
8984,33856
8985,33856
8986,33984
8987,34112
8988,34304
8989,34240
8990,34112
8991,34048
8992,34240
8993,34176
8994,33792
8995,33472
8996,33344
8997,33408
8998,33536
8999,33664
9000,33856
9001,33856
9002,33920
9003,34048
9004,33984
9005,33856
9006,33856
9007,33920
9008,33984
9009,33984
9010,34112
9011,34176
9012,34112
9013,34048
9014,34112
9015,34176
9016,34304
9017,34368
9018,34304
9019,34304
9020,34304
9021,34176
9022,33984
9023,33856
9024,33920
9025,33984
9026,34048
9027,34112
9028,34432
9029,34496
9030,34432
9031,34496
9032,34560
9033,34496
9034,34432
9035,34304
9036,34240
9037,34112
9038,34048
9039,33920
9040,33728
9041,33536
9042,33408
9043,33472
9044,33728
9045,33792
9046,33600
9047,33472
9048,33472
9049,33664
9050,33792
9051,33792
9052,33792
9053,33728
9054,33728
9055,33728
9056,33792
9057,33856
9058,34048
9059,34176
9060,34496
9061,34944
9062,35968
9063,37376
9064,37568
9065,38912
9066,40576
9067,39936
9068,38208
9069,35712
9070,33216
9071,31488
9072,30784
9073,30848
9074,31360
9075,31360
9076,31680
9077,32384
9078,32832
9079,32896
9080,33408
9081,33600
9082,33792
9083,33856
9084,33920
9085,34048
9086,34112
9087,34112
9088,34048
9089,34048
9090,33984
9091,34048
9092,34048
9093,33920
9094,33856
9095,33920
9096,33984
9097,33920
9098,33984
9099,34048
9100,33984
9101,33920
9102,33984
9103,33920
9104,33792
9105,33728
9106,33856
9107,33984
9108,33984
9109,33984
9110,34048
9111,34304
9112,34368
9113,34432
9114,34496
9115,34560
9116,34624
9117,34752
9118,34816
9119,34688
9120,34624
9121,34624
9122,35008
9123,35072
9124,34944
9125,34432
9126,34048
9127,33856
9128,33728
9129,33664
9130,33664
9131,33664
9132,33792
9133,33856
9134,33856
9135,33792
9136,33792
9137,33728
9138,33664
9139,33728
9140,33792
9141,33792
9142,33600
9143,33472
9144,33344
9145,33344
9146,33344
9147,33472
9148,33664
9149,33792
9150,33792
9151,33920
9152,33984
9153,33984
9154,33728
9155,33408
9156,33344
9157,33472
9158,33600
9159,33664
9160,33728
9161,33728
9162,33664
9163,33664
9164,33728
9165,33792
9166,33856
9167,33856
9168,33856
9169,33920
9170,33920
9171,33856
9172,33792
9173,33728
9174,33728
9175,33664
9176,33664
9177,33728
9178,33792
9179,33984
9180,33920
9181,34048
9182,33856
9183,33664
9184,33600
9185,33600
9186,33600
9187,33600
9188,33536
9189,33536
9190,33600
9191,33600
9192,33728
9193,33792
9194,33856
9195,33792
9196,33792
9197,33728
9198,33728
9199,33792
9200,33920
9201,34240
9202,34560
9203,34560
9204,34304
9205,34112
9206,33984
9207,33920
9208,33984
9209,33984
9210,34048
9211,34304
9212,34432
9213,34432
9214,34304
9215,34176
9216,34240
9217,34240
9218,34176
9219,34112
9220,33856
9221,33408
9222,33088
9223,33024
9224,33152
9225,33088
9226,33152
9227,33280
9228,33536
9229,33664
9230,33792
9231,33856
9232,33856
9233,33920
9234,33984
9235,33984
9236,33856
9237,33792
9238,33920
9239,33984
9240,33984
9241,33856
9242,34048
9243,34560
9244,35392
9245,36736
9246,38464
9247,39936
9248,40512
9249,39872
9250,38016
9251,35520
9252,33216
9253,31680
9254,30912
9255,30848
9256,31104
9257,31552
9258,32128
9259,32576
9260,32960
9261,33344
9262,33600
9263,33792
9264,33984
9265,34112
9266,34304
9267,34304
9268,34048
9269,33792
9270,33664
9271,33856
9272,34048
9273,34176
9274,34112
9275,33856
9276,33600
9277,33536
9278,33600
9279,33664
9280,33728
9281,33792
9282,33920
9283,33984
9284,33984
9285,33984
9286,34240
9287,34304
9288,34240
9289,34176
9290,34240
9291,34240
9292,34304
9293,34368
9294,34496
9295,34432
9296,34240
9297,34112
9298,34048
9299,34112
9300,34112
9301,34368
9302,34560
9303,34624
9304,34624
9305,34496
9306,34432
9307,34432
9308,34432
9309,34304
9310,34176
9311,34112
9312,33984
9313,33984
9314,34048
9315,34048
9316,33920
9317,33728
9318,33472
9319,33344
9320,33280
9321,33344
9322,33408
9323,33472
9324,33472
9325,33472
9326,33408
9327,33408
9328,33472
9329,33408
9330,33408
9331,33536
9332,33600
9333,33792
9334,33856
9335,33728
9336,33600
9337,33536
9338,33600
9339,33920
9340,34176
9341,33984
9342,33600
9343,33344
9344,33408
9345,33408
9346,33664
9347,33792
9348,33856
9349,33792
9350,33728
9351,33664
9352,33664
9353,33728
9354,33664
9355,33600
9356,33600
9357,33600
9358,33536
9359,33536
9360,33536
9361,33728
9362,33856
9363,33792
9364,33728
9365,33728
9366,33728
9367,33728
9368,33728
9369,33856
9370,33792
9371,33536
9372,33408
9373,33408
9374,33536
9375,33664
9376,33792
9377,33856
9378,33856
9379,33856
9380,33856
9381,33920
9382,34112
9383,34304
9384,34304
9385,34240
9386,34176
9387,34304
9388,34368
9389,34240
9390,34176
9391,34112
9392,34240
9393,34240
9394,34048
9395,33984
9396,34048
9397,33984
9398,33792
9399,33664
9400,33600
9401,33472
9402,33408
9403,33344
9404,33472
9405,33408
9406,33600
9407,33728
9408,33792
9409,33792
9410,33792
9411,33920
9412,33920
9413,33728
9414,33600
9415,33536
9416,33536
9417,33664
9418,33728
9419,33728
9420,33792
9421,34048
9422,34368
9423,34752
9424,35456
9425,36416
9426,38080
9427,39744
9428,40576
9429,40000
9430,38272
9431,35840
9432,33472
9433,31808
9434,30976
9435,30912
9436,31360
9437,31744
9438,32064
9439,32448
9440,32896
9441,33408
9442,33728
9443,33856
9444,33792
9445,33664
9446,33728
9447,33728
9448,33856
9449,34048
9450,33984
9451,33792
9452,33664
9453,33664
9454,33792
9455,33792
9456,33792
9457,33792
9458,33792
9459,33856
9460,33984
9461,34112
9462,34112
9463,34048
9464,33920
9465,33856
9466,33920
9467,34112
9468,34432
9469,34432
9470,34240
9471,34112
9472,34240
9473,34368
9474,34304
9475,34112
9476,34176
9477,34240
9478,34240
9479,34240
9480,34368
9481,34432
9482,34432
9483,34368
9484,34304
9485,34304
9486,34368
9487,34432
9488,34432
9489,34368
9490,34304
9491,34240
9492,34176
9493,34176
9494,34112
9495,34112
9496,34048
9497,33920
9498,33728
9499,33600
9500,33600
9501,33344
9502,33152
9503,33152
9504,33216
9505,33344
9506,33472
9507,33536
9508,33536
9509,33536
9510,33472
9511,33664
9512,33728
9513,33792
9514,33856
9515,33856
9516,33856
9517,33856
9518,33856
9519,33728
9520,33664
9521,33664
9522,33664
9523,33664
9524,33728
9525,33728
9526,33728
9527,33856
9528,33792
9529,33728
9530,33664
9531,33600
9532,33600
9533,33664
9534,33792
9535,33856
9536,33856
9537,33856
9538,33856
9539,33728
9540,33664
9541,33600
9542,33600
9543,33664
9544,33664
9545,33792
9546,33920
9547,33920
9548,33792
9549,33600
9550,33536
9551,33728
9552,33856
9553,33792
9554,33600
9555,33536
9556,33664
9557,33664
9558,33600
9559,33600
9560,33728
9561,33984
9562,34048
9563,34112
9564,34112
9565,34112
9566,34048
9567,33984
9568,34048
9569,34432
9570,34368
9571,34368
9572,34304
9573,34240
9574,34304
9575,34368
9576,34176
9577,34176
9578,34240
9579,33920
9580,33536
9581,33152
9582,33024
9583,32960
9584,33088
9585,33216
9586,33408
9587,33472
9588,33600
9589,33728
9590,33792
9591,33856
9592,33920
9593,33984
9594,33856
9595,33728
9596,33728
9597,33856
9598,33984
9599,34112
9600,34112
9601,33984
9602,33920
9603,34240
9604,35008
9605,36288
9606,37888
9607,39424
9608,40192
9609,39808
9610,38208
9611,35776
9612,33408
9613,31680
9614,30848
9615,30784
9616,31232
9617,31744
9618,32256
9619,32768
9620,33152
9621,33408
9622,33728
9623,33920
9624,33920
9625,33856
9626,33856
9627,33984
9628,33984
9629,33664
9630,33472
9631,33344
9632,33408
9633,33472
9634,33600
9635,33664
9636,33792
9637,33920
9638,34048
9639,34048
9640,34112
9641,34112
9642,34176
9643,34176
9644,34176
9645,34176
9646,34176
9647,34048
9648,33856
9649,33856
9650,33984
9651,34176
9652,34368
9653,34496
9654,34496
9655,34368
9656,34112
9657,34048
9658,34048
9659,34048
9660,33984
9661,34240
9662,34304
9663,34432
9664,34496
9665,34496
9666,34432
9667,34304
9668,34304
9669,34368
9670,34432
9671,34432
9672,34432
9673,34432
9674,34560
9675,34496
9676,33984
9677,33664
9678,33472
9679,33344
9680,33344
9681,33408
9682,33344
9683,33280
9684,33344
9685,33408
9686,33536
9687,33536
9688,33536
9689,33536
9690,33600
9691,33664
9692,33728
9693,33856
9694,33920
9695,33920
9696,33856
9697,33856
9698,33920
9699,33920
9700,33984
9701,34112
9702,34176
9703,34112
9704,33728
9705,33664
9706,33600
9707,33728
9708,33792
9709,33792
9710,33664
9711,33344
9712,33152
9713,33152
9714,33280
9715,33536
9716,33664
9717,33664
9718,33600
9719,33600
9720,33536
9721,33664
9722,33792
9723,33984
9724,33984
9725,33792
9726,33664
9727,33728
9728,33792
9729,33792
9730,33856
9731,33920
9732,33920
9733,33728
9734,33600
9735,33600
9736,33728
9737,33920
9738,33984
9739,33984
9740,34048
9741,34112
9742,34176
9743,34112
9744,34048
9745,34048
9746,34240
9747,34432
9748,34240
9749,34112
9750,34112
9751,34112
9752,34240
9753,34112
9754,33920
9755,33856
9756,33920
9757,33792
9758,33536
9759,33344
9760,33280
9761,33280
9762,33344
9763,33472
9764,33664
9765,33856
9766,33984
9767,33920
9768,33728
9769,33728
9770,33984
9771,33984
9772,33728
9773,33408
9774,33344
9775,33280
9776,33280
9777,33472
9778,33664
9779,33920
9780,34112
9781,34496
9782,35328
9783,36480
9784,37952
9785,39552
9786,40704
9787,40768
9788,39552
9789,37568
9790,35264
9791,33024
9792,31552
9793,30912
9794,30976
9795,31296
9796,31616
9797,32000
9798,32448
9799,32896
9800,33216
9801,33536
9802,33728
9803,33920
9804,33920
9805,33920
9806,33984
9807,33984
9808,33984
9809,33984
9810,33920
9811,33984
9812,33984
9813,33984
9814,33920
9815,33984
9816,33984
9817,33984
9818,33984
9819,34048
9820,34048
9821,33984
9822,33856
9823,33792
9824,33856
9825,33920
9826,33984
9827,34048
9828,34112
9829,34304
9830,34368
9831,34304
9832,34176
9833,34240
9834,34176
9835,33984
9836,33920
9837,33984
9838,34048
9839,34240
9840,34368
9841,34496
9842,34432
9843,34368
9844,34368
9845,34368
9846,34432
9847,34432
9848,34496
9849,34560
9850,34496
9851,34368
9852,34304
9853,34240
9854,33984
9855,33792
9856,33600
9857,33472
9858,33472
9859,33408
9860,33280
9861,33216
9862,33216
9863,33216
9864,33152
9865,33280
9866,33408
9867,33472
9868,33600
9869,33664
9870,33728
9871,33664
9872,33728
9873,33728
9874,33792
9875,33856
9876,33984
9877,34112
9878,34176
9879,34112
9880,33984
9881,33856
9882,33792
9883,33664
9884,33472
9885,33344
9886,33408
9887,33472
9888,33472
9889,33536
9890,33664
9891,33792
9892,33856
9893,33856
9894,33792
9895,33728
9896,33792
9897,33856
9898,33792
9899,33728
9900,33664
9901,33728
9902,33664
9903,33600
9904,33536
9905,33600
9906,33728
9907,33856
9908,33984
9909,33856
9910,33728
9911,33792
9912,33856
9913,33920
9914,33920
9915,33920
9916,33920
9917,33920
9918,33984
9919,34176
9920,34304
9921,34368
9922,34432
9923,34624
9924,34688
9925,34496
9926,34240
9927,34048
9928,33984
9929,33856
9930,33664
9931,33408
9932,33280
9933,33216
9934,33216
9935,33216
9936,33344
9937,33472
9938,33536
9939,33600
9940,33728
9941,33920
9942,33984
9943,33920
9944,33856
9945,33792
9946,33728
9947,33664
9948,33664
9949,33664
9950,33664
9951,33664
9952,33792
9953,33984
9954,34176
9955,34496
9956,35072
9957,35904
9958,37120
9959,38784
9960,40128
9961,40448
9962,39488
9963,37632
9964,35200
9965,33152
9966,31552
9967,30848
9968,30912
9969,31232
9970,31680
9971,32128
9972,32448
9973,32704
9974,33088
9975,33408
9976,33664
9977,33920
9978,34112
9979,34240
9980,34368
9981,34560
9982,34368
9983,33856
9984,33408
9985,33280
9986,33344
9987,33536
9988,33728
9989,33856
9990,33920
9991,33920
9992,33920
9993,33984
9994,34112
9995,34112
9996,34176
9997,34176
9998,34240
9999,34240
10000,34048
10001,33984
10002,33984
10003,34048
10004,34112
10005,34176
10006,34304
10007,34368
10008,34368
10009,34368
10010,34368
10011,34304
10012,34240
10013,34304
10014,34432
10015,34496
10016,34496
10017,34304
10018,34112
10019,34112
10020,34112
10021,34176
10022,34176
10023,34304
10024,34432
10025,34432
10026,34176
10027,33856
10028,33728
10029,33600
10030,33472
10031,33408
10032,33536
10033,33472
10034,33152
10035,33088
10036,33088
10037,33216
10038,33216
10039,33088
10040,33088
10041,33216
10042,33280
10043,33408
10044,33600
10045,33664
10046,33728
10047,33664
10048,33600
10049,33664
10050,33664
10051,33600
10052,33536
10053,33536
10054,33536
10055,33536
10056,33472
10057,33344
10058,33280
10059,33344
10060,33408
10061,33472
10062,33472
10063,33408
10064,33344
10065,33408
10066,33408
10067,33472
10068,33472
10069,33472
10070,33536
10071,33600
10072,33600
10073,33600
10074,33664
10075,33600
10076,33728
10077,33856
10078,33984
10079,33792
10080,33600
10081,33536
10082,33536
10083,33472
10084,33472
10085,33600
10086,33728
10087,33728
10088,33664
10089,33664
10090,33664
10091,33856
10092,34048
10093,34176
10094,34112
10095,34048
10096,33984
10097,33984
10098,34048
10099,34048
10100,33920
10101,33792
10102,33600
10103,33600
10104,33600
10105,33664
10106,33536
10107,33472
10108,33664
10109,33728
10110,33536
10111,33216
10112,33024
10113,32960
10114,32896
10115,32960
10116,33152
10117,33344
10118,33472
10119,33536
10120,33472
10121,33408
10122,33344
10123,33408
10124,33536
10125,33792
10126,34304
10127,35072
10128,36160
10129,37568
10130,39040
10131,39872
10132,39744
10133,38400
10134,36288
10135,34112
10136,32384
10137,31296
10138,30720
10139,30592
10140,30848
10141,31424
10142,32064
10143,32832
10144,33344
10145,33408
10146,33408
10147,33472
10148,33536
10149,33536
10150,33472
10151,33408
10152,33408
10153,33536
10154,33600
10155,33792
10156,33856
10157,33856
10158,33792
10159,33728
10160,33664
10161,33728
10162,33984
10163,34112
10164,33984
10165,33792
10166,33856
10167,33920
10168,33792
10169,33664
10170,33600
10171,33600
10172,33600
10173,33728
10174,33984
10175,34048
10176,33920
10177,33920
10178,33984
10179,34048
10180,34112
10181,34176
10182,34304
10183,34368
10184,34368
10185,34368
10186,34432
10187,34496
10188,34496
10189,34432
10190,34368
10191,34304
10192,34176
10193,34240
10194,34496
10195,34560
10196,34176
10197,33920
10198,33984
10199,33856
10200,33472
10201,33152
10202,33024
10203,32960
10204,32960
10205,33024
10206,33152
10207,33280
10208,33408
10209,33472
10210,33472
10211,33472
10212,33536
10213,33536
10214,33536
10215,33600
10216,33664
10217,33728
10218,33792
10219,33728
10220,33664
10221,33600
10222,33536
10223,33728
10224,33792
10225,33792
10226,33728
10227,33728
10228,33856
10229,33792
10230,33536
10231,33536
10232,33792
10233,33984
10234,33664
10235,33216
10236,33088
10237,33152
10238,33344
10239,33600
10240,33728
10241,33792
10242,33792
10243,33920
10244,33984
10245,34048
10246,34048
10247,34048
10248,33984
10249,33984
10250,34048
10251,34112
10252,34240
10253,34304
10254,34432
10255,34496
10256,34240
10257,33920
10258,33856
10259,33728
10260,33472
10261,33344
10262,33216
10263,33024
10264,32960
10265,33024
10266,33216
10267,33408
10268,33408
10269,33408
10270,33408
10271,33408
10272,33536
10273,33600
10274,33536
10275,33536
10276,33536
10277,33600
10278,33664
10279,33792
10280,33856
10281,33920
10282,34048
10283,34176
10284,34240
10285,34816
10286,35904
10287,37376
10288,38976
10289,40000
10290,40000
10291,38912
10292,36800
10293,34304
10294,32128
10295,30784
10296,30272
10297,30400
10298,30784
10299,31360
10300,31936
10301,32512
10302,32960
10303,33280
10304,33536
10305,33792
10306,33984
10307,34048
10308,33984
10309,33920
10310,33856
10311,33856
10312,33984
10313,34176
10314,34176
10315,34048
10316,33856
10317,33792
10318,33792
10319,33792
10320,33792
10321,33792
10322,33792
10323,33728
10324,33792
10325,33792
10326,33856
10327,33920
10328,34176
10329,34368
10330,34432
10331,34432
10332,34432
10333,34368
10334,34240
10335,34112
10336,34048
10337,33984
10338,33984
10339,34112
10340,34176
10341,34240
10342,34240
10343,34304
10344,34368
10345,34432
10346,34496
10347,34496
10348,34496
10349,34496
10350,34368
10351,34304
10352,34304
10353,34240
10354,34176
10355,33984
10356,33856
10357,33792
10358,33792
10359,33792
10360,33728
10361,33664
10362,33472
10363,33344
10364,33344
10365,33408
10366,33408
10367,33408
10368,33408
10369,33472
10370,33344
10371,33152
10372,33216
10373,33344
10374,33472
10375,33536
10376,33600
10377,33664
10378,33728
10379,33792
10380,33792
10381,33792
10382,33856
10383,33856
10384,33984
10385,34112
10386,34048
10387,33856
10388,33728
10389,33728
10390,33792
10391,33664
10392,33536
10393,33600
10394,33728
10395,33920
10396,34176
10397,34240
10398,34112
10399,33984
10400,33856
10401,33792
10402,33728
10403,33728
10404,33728
10405,33920
10406,34048
10407,34048
10408,34048
10409,34112
10410,34176
10411,34304
10412,34496
10413,34496
10414,34112
10415,33728
10416,33408
10417,33216
10418,33152
10419,33088
10420,33088
10421,33152
10422,33216
10423,33472
10424,33728
10425,33792
10426,33664
10427,33472
10428,33408
10429,33408
10430,33472
10431,33536
10432,33664
10433,33728
10434,33792
10435,33920
10436,33984
10437,33984
10438,33984
10439,34240
10440,34944
10441,35904
10442,36992
10443,38272
10444,39680
10445,40320
10446,40192
10447,38592
10448,35840
10449,33216
10450,31168
10451,30144
10452,30080
10453,30656
10454,31296
10455,31808
10456,32320
10457,32768
10458,33088
10459,33408
10460,33664
10461,33856
10462,33984
10463,33984
10464,33984
10465,33920
10466,33920
10467,33920
10468,33856
10469,33856
10470,33792
10471,33728
10472,33728
10473,33664
10474,33600
10475,33664
10476,33856
10477,33920
10478,33984
10479,34048
10480,34048
10481,34048
10482,34112
10483,34048
10484,33984
10485,33920
10486,33984
10487,34176
10488,34304
10489,34368
10490,34432
10491,34368
10492,34368
10493,34432
10494,34688
10495,34944
10496,34816
10497,34368
10498,34176
10499,34112
10500,34112
10501,34176
10502,34176
10503,34240
10504,34368
10505,34368
10506,34240
10507,34176
10508,34176
10509,34240
10510,34240
10511,34112
10512,33920
10513,33920
10514,33920
10515,33792
10516,33600
10517,33472
10518,33280
10519,33216
10520,33216
10521,33216
10522,33344
10523,33408
10524,33408
10525,33408
10526,33472
10527,33536
10528,33664
10529,33664
10530,33728
10531,33856
10532,34048
10533,34176
10534,34176
10535,33984
10536,33856
10537,33792
10538,33728
10539,33728
10540,33664
10541,33472
10542,33344
10543,33344
10544,33472
10545,33664
10546,33728
10547,33792
10548,33920
10549,33920
10550,33920
10551,33856
10552,33856
10553,33984
10554,34048
10555,34112
10556,34304
10557,34496
10558,34432
10559,34432
10560,34624
10561,34496
10562,34048
10563,33664
10564,33536
10565,33664
10566,33792
10567,33984
10568,34112
10569,34048
10570,33920
10571,33792
10572,33728
10573,33664
10574,33600
10575,33600
10576,33664
10577,33536
10578,33472
10579,33408
10580,33408
10581,33536
10582,33664
10583,33728
10584,33728
10585,33728
10586,33856
10587,33856
10588,33728
10589,33664
10590,33728
10591,33728
10592,33664
10593,33600
10594,33600
10595,33728
10596,33984
10597,34432
10598,35264
10599,36416
10600,38016
10601,39616
10602,40704
10603,40640
10604,39232
10605,36736
10606,33984
10607,31872
10608,30784
10609,30400
10610,30592
10611,31104
10612,31680
10613,32192
10614,32576
10615,32960
10616,33152
10617,33344
10618,33600
10619,33856
10620,34048
10621,33984
10622,33920
10623,33920
10624,33856
10625,33856
10626,33856
10627,33920
10628,33920
10629,33920
10630,33856
10631,33792
10632,33792
10633,33856
10634,33920
10635,33984
10636,33856
10637,33728
10638,33728
10639,33856
10640,33920
10641,33984
10642,33984
10643,34048
10644,34176
10645,34304
10646,34240
10647,34176
10648,34368
10649,34560
10650,34496
10651,34304
10652,34368
10653,34368
10654,34368
10655,34368
10656,34432
10657,34496
10658,34496
10659,34432
10660,34368
10661,34432
10662,34496
10663,34368
10664,34304
10665,34176
10666,34112
10667,33920
10668,33856
10669,33920
10670,33920
10671,33792
10672,33664
10673,33536
10674,33344
10675,33088
10676,33024
10677,33024
10678,33216
10679,33472
10680,33536
10681,33600
10682,33664
10683,33728
10684,33792
10685,33792
10686,33664
10687,33600
10688,33728
10689,33920
10690,33920
10691,33856
10692,33792
10693,33664
10694,33600
10695,33600
10696,33600
10697,33600
10698,33664
10699,33792
10700,33856
10701,33856
10702,33856
10703,33792
10704,33728
10705,33664
10706,33664
10707,33792
10708,33792
10709,33792
10710,33792
10711,33856
10712,33920
10713,34112
10714,34304
10715,34240
10716,34112
10717,34048
10718,34112
10719,34176
10720,34112
10721,34048
10722,34048
10723,34048
10724,33984
10725,33856
10726,33792
10727,33792
10728,33920
10729,34112
10730,34240
10731,34240
10732,34176
10733,34048
10734,33856
10735,33664
10736,33600
10737,33536
10738,33408
10739,33408
10740,33472
10741,33536
10742,33600
10743,33600
10744,33664
10745,33728
10746,33792
10747,33792
10748,33728
10749,33600
10750,33536
10751,33536
10752,33664
10753,33728
10754,33664
10755,33536
10756,33536
10757,33664
10758,33984
10759,34560
10760,35584
10761,36864
10762,38464
10763,40000
10764,40896
10765,40576
10766,38848
10767,36160
10768,33408
10769,31424
10770,30592
10771,30528
10772,30720
10773,31232
10774,31744
10775,32192
10776,32640
10777,33088
10778,33472
10779,33664
10780,33600
10781,33600
10782,33728
10783,33856
10784,33920
10785,33856
10786,33856
10787,33856
10788,33856
10789,33856
10790,33792
10791,33728
10792,33792
10793,33856
10794,33920
10795,33792
10796,33728
10797,33728
10798,33792
10799,33856
10800,33856
10801,33856
10802,33920
10803,34048
10804,34176
10805,34240
10806,34240
10807,34368
10808,34368
10809,34304
10810,34304
10811,34304
10812,34304
10813,34368
10814,34432
10815,34432
10816,34496
10817,34496
10818,34560
10819,34624
10820,34624
10821,34560
10822,34624
10823,34816
10824,34880
10825,34688
10826,34432
10827,34176
10828,33984
10829,33856
10830,33728
10831,33664
10832,33600
10833,33536
10834,33472
10835,33536
10836,33600
10837,33600
10838,33664
10839,33664
10840,33664
10841,33600
10842,33536
10843,33536
10844,33600
10845,33664
10846,33728
10847,33728
10848,33472
10849,33344
10850,33344
10851,33472
10852,33664
10853,33728
10854,33728
10855,33792
10856,33856
10857,33856
10858,33856
10859,33920
10860,33856
10861,33920
10862,33920
10863,33920
10864,33920
10865,33984
10866,33920
10867,33728
10868,33664
10869,33792
10870,33984
10871,34112
10872,33920
10873,33792
10874,33664
10875,33600
10876,33664
10877,33728
10878,33728
10879,33792
10880,33856
10881,33856
10882,33856
10883,33792
10884,33792
10885,33856
10886,33920
10887,33984
10888,34240
10889,34432
10890,34496
10891,34624
10892,34688
10893,34624
10894,34368
10895,33984
10896,33856
10897,33792
10898,33856
10899,34048
10900,34304
10901,34368
10902,34304
10903,34240
10904,34176
10905,34112
10906,34048
10907,33664
10908,33536
10909,33472
10910,33408
10911,33472
10912,33472
10913,33600
10914,33792
10915,33984
10916,34048
10917,34048
10918,33920
10919,33792
10920,33728
10921,33536
10922,33536
10923,33600
10924,33536
