,ECG
0,34368
1,34368
2,34496
3,34624
4,34688
5,34752
6,34880
7,34880
8,34688
9,34432
10,34176
11,33792
12,33408
13,33024
14,32640
15,32576
16,32576
17,32640
18,32768
19,32896
20,32960
21,33088
22,33024
23,33216
24,33216
25,33216
26,33024
27,32704
28,32256
29,32320
30,33152
31,34816
32,37184
33,39680
34,41984
35,43584
36,43648
37,43392
38,38080
39,34688
40,32128
41,30464
42,29696
43,29568
44,29888
45,30400
46,30976
47,31552
48,32064
49,32512
50,32832
51,33088
52,33088
53,33280
54,33408
55,33408
56,33472
57,33472
58,33472
59,33472
60,33600
61,33536
62,33536
63,33472
64,33472
65,33408
66,33344
67,33344
68,33344
69,33472
70,33536
71,33600
72,33600
73,33664
74,33664
75,33728
76,33664
77,33984
78,34112
79,34048
80,34048
81,34112
82,34112
83,34048
84,34176
85,34240
86,34304
87,34240
88,34112
89,34112
90,34176
91,34112
92,34112
93,34176
94,34112
95,34048
96,34048
97,33984
98,34048
99,33984
100,33856
101,33728
102,33664
103,33600
104,33536
105,33472
106,33472
107,33472
108,33472
109,33472
110,33536
111,33536
112,33472
113,33536
114,33600
115,33664
116,33728
117,33664
118,33728
119,33728
120,33728
121,33728
122,33664
123,33600
124,33472
125,33472
126,33536
127,33600
128,33600
129,33664
130,33664
131,33728
132,33728
133,33664
134,33664
135,33664
136,33600
137,33600
138,33792
139,33920
140,33984
141,34048
142,34112
143,34176
144,34176
145,34240
146,34240
147,34368
148,34560
149,34624
150,34752
151,34816
152,34752
153,34496
154,34240
155,33920
156,33728
157,33408
158,33088
159,32832
160,32704
161,32640
162,32640
163,32704
164,32768
165,32832
166,32896
167,32960
168,33088
169,33216
170,33216
171,33152
172,32960
173,32640
174,32384
175,32704
176,33728
177,35648
178,38016
179,40384
180,42560
181,43712
182,43264
183,40640
184,37120
185,33856
186,31424
187,30016
188,29440
189,29568
190,30016
191,30528
192,31040
193,31616
194,32128
195,32512
196,32832
197,33152
198,33408
199,33472
200,33472
201,33536
202,33472
203,33536
204,33472
205,33472
206,33472
207,33536
208,33472
209,33408
210,33408
211,33344
212,33344
213,33408
214,33472
215,33472
216,33408
217,33472
218,33472
219,33664
220,33664
221,33664
222,33728
223,33856
224,33920
225,33920
226,33920
227,33984
228,34048
229,34112
230,34240
231,34304
232,34304
233,34240
234,34176
235,34240
236,34240
237,34240
238,34176
239,34176
240,34176
241,34176
242,34112
243,34048
244,34048
245,33984
246,33920
247,33856
248,33856
249,33728
250,33664
251,33600
252,33536
253,33472
254,33344
255,33344
256,33472
257,33472
258,33472
259,33472
260,33536
261,33600
262,33664
263,33664
264,33728
265,33792
266,33792
267,33792
268,33792
269,33792
270,33792
271,33728
272,33728
273,33728
274,33664
275,33664
276,33664
277,33728
278,33728
279,33664
280,33664
281,33664
282,33664
283,33600
284,33600
285,33664
286,33728
287,33792
288,33920
289,34112
290,34240
291,34176
292,34176
293,34240
294,34368
295,34432
296,34560
297,34624
298,34688
299,34688
300,34624
301,34432
302,34304
303,34048
304,33728
305,33344
306,33024
307,32768
308,32576
309,32512
310,32576
311,32640
312,32768
313,32896
314,33088
315,33216
316,33152
317,33088
318,33088
319,33088
320,32832
321,32512
322,32320
323,32704
324,33792
325,35648
326,38016
327,40448
328,42560
329,43712
330,43136
331,40576
332,36992
333,33664
334,31296
335,29952
336,29440
337,29504
338,29888
339,30464
340,31040
341,31552
342,32000
343,32448
344,32768
345,33088
346,33280
347,33408
348,33536
349,33536
350,33536
351,33472
352,33408
353,33344
354,33344
355,33280
356,33344
357,33280
358,33216
359,33152
360,33152
361,33216
362,33280
363,33344
364,33472
365,33600
366,33600
367,33536
368,33536
369,33600
370,33600
371,33664
372,33792
373,33856
374,33920
375,33920
376,33984
377,33984
378,33984
379,33984
380,34048
381,34112
382,34048
383,33984
384,33984
385,33920
386,33920
387,33856
388,33792
389,33856
390,33920
391,33856
392,33792
393,33728
394,33792
395,33664
396,33536
397,33408
398,33344
399,33344
400,33280
401,33280
402,33280
403,33280
404,33344
405,33408
406,33408
407,33472
408,33472
409,33472
410,33536
411,33664
412,33664
413,33664
414,33664
415,33728
416,33728
417,33728
418,33728
419,33728
420,33728
421,33600
422,33536
423,33536
424,33536
425,33536
426,33600
427,33664
428,33600
429,33600
430,33600
431,33728
432,33792
433,33856
434,33920
435,34112
436,34176
437,34176
438,34240
439,34304
440,34368
441,34368
442,34368
443,34496
444,34624
445,34752
446,34752
447,34560
448,34368
449,34112
450,33792
451,33408
452,33088
453,32896
454,32704
455,32576
456,32576
457,32640
458,32704
459,32832
460,32960
461,33152
462,33152
463,33216
464,33344
465,33280
466,33152
467,32768
468,32448
469,32448
470,33152
471,34688
472,36864
473,39296
474,41536
475,43200
476,43520
477,41856
478,38720
479,35328
480,32512
481,30656
482,29632
483,29376
484,29632
485,30144
486,30848
487,31424
488,31936
489,32384
490,32768
491,33024
492,33216
493,33408
494,33472
495,33472
496,33472
497,33472
498,33536
499,33536
500,33472
501,33472
502,33472
503,33472
504,33408
505,33344
506,33344
507,33344
508,33344
509,33344
510,33472
511,33600
512,33664
513,33664
514,33664
515,33728
516,33792
517,33728
518,33792
519,33856
520,33920
521,33984
522,33984
523,34048
524,34112
525,34112
526,34112
527,34112
528,34176
529,34112
530,34048
531,34048
532,34048
533,33984
534,33920
535,33984
536,33984
537,33920
538,33856
539,33792
540,33792
541,33728
542,33600
543,33536
544,33536
545,33408
546,33344
547,33344
548,33344
549,33344
550,33280
551,33216
552,33216
553,33152
554,33152
555,33216
556,33280
557,33408
558,33472
559,33472
560,33536
561,33600
562,33536
563,33472
564,33536
565,33664
566,33728
567,33664
568,33664
569,33664
570,33664
571,33728
572,33728
573,33728
574,33664
575,33728
576,33792
577,33984
578,34048
579,34048
580,34112
581,34240
582,34368
583,34432
584,34496
585,34560
586,34624
587,34688
588,34752
589,34624
590,34496
591,34176
592,33792
593,33408
594,33088
595,32832
596,32640
597,32576
598,32704
599,32768
600,32832
601,32960
602,33152
603,33216
604,33216
605,33216
606,33280
607,33280
608,33088
609,32832
610,32512
611,32576
612,33216
613,34752
614,36992
615,39872
616,41856
617,43392
618,43712
619,41984
620,38784
621,35328
622,32512
623,30720
624,29760
625,29504
626,29696
627,30208
628,30784
629,31424
630,32000
631,32448
632,32832
633,33088
634,33216
635,33408
636,33536
637,33600
638,33536
639,33536
640,33536
641,33536
642,33408
643,33408
644,33472
645,33472
646,33408
647,33408
648,33408
649,33472
650,33536
651,33472
652,33472
653,33408
654,33408
655,33408
656,33536
657,33664
658,33728
659,33664
660,33664
661,33728
662,33792
663,33856
664,33920
665,33984
666,33984
667,33984
668,34048
669,34112
670,34176
671,34240
672,34240
673,34240
674,34176
675,34112
676,34048
677,34048
678,34112
679,33984
680,33792
681,33792
682,33792
683,33728
684,33600
685,33536
686,33536
687,33536
688,33472
689,33472
690,33408
691,33408
692,33408
693,33408
694,33472
695,33472
696,33600
697,33664
698,33664
699,33728
700,33728
701,33792
702,33856
703,33856
704,33856
705,33856
706,33920
707,33920
708,33856
709,33856
710,33856
711,33856
712,33856
713,33792
714,33728
715,33792
716,33792
717,33792
718,33792
719,33920
720,34112
721,34176
722,34176
723,34240
724,34240
725,34304
726,34368
727,34432
728,34368
729,34432
730,34496
731,34624
732,34688
733,34560
734,34432
735,34176
736,33920
737,33600
738,33216
739,32832
740,32704
741,32640
742,32640
743,32640
744,32704
745,32768
746,32960
747,33088
748,33280
749,33408
750,33408
751,33344
752,33216
753,32960
754,32640
755,32576
756,33216
757,34752
758,36864
759,39232
760,41536
761,43264
762,43840
763,42432
764,39232
765,34816
766,32704
767,30720
768,29696
769,29440
770,29696
771,30144
772,30784
773,31360
774,31936
775,32320
776,32704
777,33024
778,33344
779,33408
780,33472
781,33536
782,33600
783,33600
784,33536
785,33472
786,33536
787,33536
788,33472
789,33472
790,33472
791,33472
792,33408
793,33344
794,33344
795,33472
796,33472
797,33536
798,33600
799,33664
800,33600
801,33600
802,33664
803,33728
804,33792
805,33792
806,33856
807,33984
808,34048
809,34112
810,34176
811,34176
812,34176
813,34112
814,34048
815,34048
816,34048
817,34048
818,34048
819,34048
820,34048
821,33984
822,33984
823,33984
824,33984
825,33984
826,33920
827,33920
828,33856
829,33728
830,33600
831,33472
832,33408
833,33408
834,33344
835,33344
836,33344
837,33344
838,33344
839,33408
840,33536
841,33536
842,33536
843,33536
844,33600
845,33728
846,33792
847,33792
848,33792
849,33728
850,33664
851,33664
852,33728
853,33728
854,33728
855,33728
856,33728
857,33728
858,33728
859,33728
860,33728
861,33728
862,33792
863,33728
864,33664
865,33600
866,33600
867,33600
868,33600
869,33664
870,33728
871,33728
872,33728
873,33728
874,33856
875,34048
876,34176
877,34304
878,34368
879,34304
880,34304
881,34368
882,34368
883,34432
884,34560
885,34816
886,34752
887,34624
888,34304
889,34112
890,33856
891,33600
892,33216
893,32832
894,32640
895,32576
896,32512
897,32512
898,32640
899,32768
900,32896
901,32960
902,33024
903,33152
904,33216
905,33216
906,33088
907,32832
908,32576
909,32704
910,33408
911,34944
912,37056
913,39424
914,41664
915,43712
916,43648
917,41856
918,38528
919,35072
920,32320
921,30464
922,29568
923,29440
924,29760
925,30272
926,30848
927,31488
928,32000
929,32384
930,32768
931,33024
932,33216
933,33344
934,33408
935,33472
936,33536
937,33472
938,33472
939,33408
940,33408
941,33472
942,33408
943,33408
944,33408
945,33408
946,33408
947,33408
948,33408
949,33408
950,33408
951,33408
952,33472
953,33536
954,33536
955,33600
956,33728
957,33856
958,33792
959,33792
960,33920
961,33984
962,34112
963,34176
964,34176
965,34240
966,34304
967,34304
968,34240
969,34240
970,34240
971,34176
972,34112
973,34112
974,34112
975,34048
976,33984
977,33920
978,33920
979,33920
980,33856
981,33792
982,33728
983,33664
984,33600
985,33536
986,33472
987,33472
988,33408
989,33344
990,33280
991,33280
992,33344
993,33408
994,33472
995,33472
996,33472
997,33408
998,33536
999,33600
1000,33600
1001,33600
1002,33664
1003,33728
1004,33728
1005,33664
1006,33728
1007,33728
1008,33664
1009,33536
1010,33536
1011,33600
1012,33728
1013,33664
1014,33536
1015,33536
1016,33472
1017,33408
1018,33472
1019,33536
1020,33600
1021,33600
1022,33600
1023,33600
1024,33600
1025,33536
1026,33536
1027,33600
1028,33600
1029,33600
1030,33600
1031,33536
1032,33472
1033,33536
1034,33536
1035,33600
1036,33728
1037,33920
1038,34048
1039,34176
1040,34176
1041,34176
1042,34240
1043,34304
1044,34496
1045,34624
1046,34624
1047,34752
1048,34816
1049,34752
1050,34560
1051,34304
1052,34048
1053,33792
1054,33536
1055,33152
1056,32832
1057,32704
1058,32576
1059,32576
1060,32640
1061,32768
1062,32960
1063,33088
1064,33152
1065,33280
1066,33344
1067,33344
1068,33280
1069,33088
1070,32768
1071,32832
1072,33600
1073,35136
1074,37248
1075,39552
1076,41792
1077,43456
1078,43776
1079,41920
1080,37440
1081,35072
1082,32320
1083,30592
1084,29760
1085,29632
1086,29952
1087,30592
1088,31104
1089,31680
1090,32256
1091,32704
1092,33088
1093,33344
1094,33600
1095,33856
1096,33856
1097,33792
1098,33792
1099,33728
1100,33664
1101,33536
1102,33472
1103,33408
1104,33408
1105,33472
1106,33536
1107,33664
1108,33728
1109,33600
1110,33664
1111,33792
1112,33920
1113,33984
1114,33856
1115,33728
1116,33664
1117,33600
1118,33600
1119,33728
1120,33792
1121,33920
1122,33984
1123,34048
1124,34240
1125,34304
1126,34304
1127,34432
1128,34496
1129,34368
1130,34240
1131,34176
1132,34304
1133,34432
1134,34432
1135,34368
1136,34304
1137,34112
1138,33984
1139,33984
1140,34048
1141,33984
1142,33920
1143,33856
1144,33856
1145,33920
1146,33920
1147,33728
1148,33600
1149,33600
1150,33600
1151,33664
1152,33664
1153,33664
1154,33600
1155,33536
1156,33600
1157,33664
1158,33728
1159,33728
1160,33728
1161,33792
1162,33792
1163,33792
1164,33792
1165,33856
1166,33984
1167,33984
1168,33984
1169,34048
1170,34112
1171,34048
1172,33920
1173,33856
1174,33856
1175,33856
1176,33920
1177,34048
1178,33984
1179,33856
1180,33664
1181,33600
1182,33600
1183,33664
1184,33664
1185,33728
1186,33728
1187,33728
1188,33664
1189,33664
1190,33728
1191,33728
1192,33728
1193,33728
1194,33728
1195,33728
1196,33664
1197,33600
1198,33600
1199,33664
1200,33536
1201,33472
1202,33472
1203,33536
1204,33536
1205,33600
1206,33664
1207,33728
1208,33792
1209,33920
1210,34112
1211,34240
1212,34304
1213,34304
1214,34368
1215,34496
1216,34624
1217,34688
1218,34752
1219,34880
1220,34880
1221,34752
1222,34496
1223,34304
1224,34048
1225,33664
1226,33216
1227,32768
1228,32512
1229,32320
1230,32320
1231,32384
1232,32576
1233,32704
1234,32832
1235,33024
1236,33152
1237,33280
1238,33344
1239,33280
1240,33152
1241,32832
1242,32640
1243,33024
1244,34176
1245,35968
1246,38144
1247,40576
1248,42496
1249,43648
1250,43072
1251,40320
1252,36800
1253,33664
1254,31424
1255,30080
1256,29568
1257,29632
1258,30080
1259,30656
1260,31488
1261,31744
1262,32256
1263,32768
1264,33088
1265,33280
1266,33472
1267,33600
1268,33600
1269,33664
1270,33728
1271,33728
1272,33728
1273,33728
1274,33600
1275,33536
1276,33536
1277,33600
1278,33600
1279,33600
1280,33600
1281,33664
1282,33664
1283,33600
1284,33600
1285,33728
1286,33728
1287,33856
1288,33856
1289,33984
1290,34048
1291,34112
1292,34176
1293,34176
1294,34240
1295,34304
1296,34304
1297,34304
1298,34304
1299,34432
1300,34368
1301,34368
1302,34432
1303,34368
1304,34368
1305,34368
1306,34368
1307,34432
1308,34304
1309,34048
1310,33856
1311,33792
1312,33856
1313,33856
1314,33920
1315,33920
1316,33856
1317,33664
1318,33600
1319,33600
1320,33536
1321,33408
1322,33344
1323,33344
1324,33344
1325,33344
1326,33408
1327,33472
1328,33472
1329,33408
1330,33408
1331,33408
1332,33536
1333,33600
1334,33536
1335,33600
1336,33664
1337,33600
1338,33600
1339,33600
1340,33792
1341,33920
1342,33920
1343,33728
1344,33728
1345,33728
1346,33600
1347,33536
1348,33472
1349,33472
1350,33536
1351,33600
1352,33472
1353,33472
1354,33472
1355,33472
1356,33408
1357,33344
1358,33344
1359,33344
1360,33344
1361,33408
1362,33408
1363,33408
1364,33408
1365,33408
1366,33472
1367,33472
1368,33472
1369,33536
1370,33600
1371,33536
1372,33344
1373,33280
1374,33408
1375,33600
1376,33792
1377,33984
1378,34176
1379,34112
1380,34112
1381,34240
1382,34368
1383,34368
1384,34304
1385,34368
1386,34496
1387,34432
1388,34304
1389,33984
1390,33664
1391,33344
1392,33024
1393,32704
1394,32448
1395,32384
1396,32320
1397,32320
1398,32448
1399,32640
1400,32704
1401,32768
1402,32896
1403,33024
1404,33152
1405,33088
1406,32960
1407,32768
1408,32576
1409,32768
1410,33472
1411,34880
1412,36800
1413,39040
1414,41216
1415,42944
1416,43328
1417,41600
1418,38272
1419,34816
1420,32064
1421,30336
1422,29504
1423,29376
1424,29632
1425,30080
1426,30656
1427,31232
1428,31744
1429,32192
1430,32576
1431,32832
1432,33152
1433,33280
1434,33344
1435,33344
1436,33408
1437,33344
1438,33344
1439,33344
1440,33472
1441,33536
1442,33472
1443,33344
1444,33280
1445,33280
1446,33344
1447,33344
1448,33344
1449,33408
1450,33472
1451,33472
1452,33472
1453,33472
1454,33472
1455,33536
1456,33664
1457,33792
1458,33856
1459,33920
1460,33920
1461,34048
1462,34112
1463,34112
1464,34048
1465,34048
1466,34112
1467,34176
1468,34176
1469,34240
1470,34176
1471,34112
1472,33920
1473,33856
1474,33856
1475,33856
1476,33920
1477,33920
1478,33984
1479,33920
1480,33856
1481,33792
1482,33792
1483,33728
1484,33600
1485,33600
1486,33600
1487,33600
1488,33536
1489,33472
1490,33408
1491,33408
1492,33280
1493,33216
1494,33280
1495,33408
1496,33472
1497,33536
1498,33600
1499,33728
1500,33728
1501,33664
1502,33728
1503,33792
1504,33856
1505,33856
1506,33792
1507,33856
1508,33856
1509,33792
1510,33792
1511,33856
1512,33920
1513,33856
1514,33664
1515,33600
1516,33600
1517,33536
1518,33536
1519,33536
1520,33536
1521,33536
1522,33536
1523,33664
1524,33792
1525,33920
1526,34048
1527,34176
1528,34240
1529,34304
1530,34304
1531,34240
1532,34304
1533,34368
1534,34496
1535,34560
1536,34752
1537,34816
1538,34688
1539,34368
1540,34112
1541,33792
1542,33472
1543,33088
1544,32832
1545,32640
1546,32576
1547,32576
1548,32640
1549,32768
1550,32896
1551,32960
1552,33152
1553,33216
1554,33280
1555,33216
1556,33088
1557,32960
1558,32704
1559,32448
1560,32576
1561,33408
1562,35072
1563,37184
1564,39424
1565,41472
1566,42880
1567,43008
1568,41152
1569,38208
1570,35136
1571,32512
1572,30720
1573,29760
1574,29440
1575,29696
1576,30208
1577,30784
1578,31424
1579,32064
1580,32512
1581,32832
1582,33152
1583,33280
1584,33344
1585,33344
1586,33472
1587,33600
1588,33600
1589,33536
1590,33472
1591,33472
1592,33408
1593,33408
1594,33408
1595,33472
1596,33536
1597,33536
1598,33472
1599,33536
1600,33536
1601,33536
1602,33600
1603,33664
1604,33728
1605,33664
1606,33664
1607,33792
1608,33920
1609,33984
1610,33920
1611,33984
1612,34176
1613,34176
1614,34240
1615,34304
1616,34368
1617,34240
1618,34048
1619,33984
1620,34048
1621,34048
1622,34048
1623,34112
1624,34240
1625,34240
1626,34176
1627,34112
1628,34176
1629,34176
1630,33984
1631,33856
1632,33792
1633,33728
1634,33664
1635,33664
1636,33792
1637,33792
1638,33664
1639,33600
1640,33664
1641,33664
1642,33536
1643,33408
1644,33408
1645,33408
1646,33408
1647,33408
1648,33472
1649,33536
1650,33600
1651,33664
1652,33728
1653,33792
1654,33792
1655,33728
1656,33664
1657,33728
1658,33728
1659,33728
1660,33728
1661,33728
1662,33728
1663,33728
1664,33728
1665,33728
1666,33728
1667,33728
1668,33728
1669,33728
1670,33728
1671,33728
1672,33664
1673,33728
1674,33856
1675,34048
1676,34112
1677,34304
1678,34496
1679,34496
1680,34368
1681,34176
1682,34112
1683,34176
1684,34304
1685,34432
1686,34624
1687,34688
1688,34496
1689,34176
1690,33920
1691,33664
1692,33280
1693,32960
1694,32704
1695,32640
1696,32640
1697,32640
1698,32704
1699,32896
1700,33024
1701,33088
1702,33216
1703,33280
1704,33408
1705,33408
1706,33216
1707,33024
1708,32768
1709,32768
1710,33344
1711,34816
1712,36928
1713,39040
1714,41216
1715,42944
1716,43584
1717,42176
1718,38656
1719,35648
1720,32768
1721,30848
1722,29824
1723,29504
1724,29760
1725,30272
1726,30848
1727,31424
1728,32000
1729,32448
1730,32832
1731,33152
1732,33408
1733,33600
1734,33600
1735,33536
1736,33536
1737,33600
1738,33664
1739,33536
1740,33408
1741,33408
1742,33344
1743,33344
1744,33408
1745,33472
1746,33536
1747,33472
1748,33408
1749,33408
1750,33472
1751,33472
1752,33536
1753,33664
1754,33728
1755,33728
1756,33664
1757,33600
1758,33664
1759,33728
1760,33792
1761,33920
1762,33984
1763,33984
1764,34048
1765,34112
1766,34240
1767,34304
1768,34304
1769,34176
1770,34112
1771,34048
1772,33984
1773,33984
1774,34048
1775,34048
1776,33984
1777,33984
1778,33984
1779,33920
1780,33728
1781,33664
1782,33600
1783,33600
1784,33408
1785,33280
1786,33216
1787,33280
1788,33344
1789,33344
1790,33344
1791,33408
1792,33536
1793,33472
1794,33344
1795,33280
1796,33280
1797,33280
1798,33408
1799,33536
1800,33600
1801,33664
1802,33600
1803,33536
1804,33536
1805,33536
1806,33536
1807,33600
1808,33728
1809,33792
1810,33728
1811,33600
1812,33536
1813,33536
1814,33472
1815,33472
1816,33536
1817,33664
1818,33728
1819,33920
1820,34176
1821,34304
1822,34304
1823,34304
1824,34304
1825,34368
1826,34368
1827,34432
1828,34560
1829,34688
1830,34752
1831,34688
1832,34496
1833,34304
1834,33728
1835,33408
1836,33024
1837,32960
1838,32576
1839,32576
1840,32640
1841,32768
1842,32896
1843,32832
1844,33088
1845,33216
1846,33216
1847,33280
1848,33408
1849,33344
1850,33152
1851,32768
1852,32640
1853,32512
1854,33664
1855,35328
1856,37568
1857,40000
1858,42240
1859,43648
1860,43648
1861,43328
1862,38144
1863,34688
1864,32064
1865,30528
1866,29824
1867,29696
1868,29888
1869,30464
1870,31040
1871,31616
1872,32064
1873,32512
1874,32896
1875,33152
1876,33408
1877,33536
1878,33664
1879,33664
1880,33664
1881,33664
1882,33664
1883,33664
1884,33600
1885,33600
1886,33600
1887,33600
1888,33600
1889,33600
1890,33600
1891,33600
1892,33536
1893,33472
1894,33472
1895,33472
1896,33536
1897,33664
1898,33600
1899,33920
1900,33920
1901,33984
1902,34048
1903,34048
1904,33984
1905,33984
1906,34048
1907,34112
1908,34112
1909,34176
1910,34240
1911,34304
1912,34240
1913,34176
1914,34048
1915,34048
1916,34048
1917,33984
1918,34048
1919,34112
1920,34176
1921,34112
1922,34112
1923,34048
1924,33920
1925,33728
1926,33664
1927,33600
1928,33664
1929,33600
1930,33536
1931,33472
1932,33408
1933,33280
1934,33152
1935,33216
1936,33216
1937,33344
1938,33344
1939,33408
1940,33536
1941,33728
1942,33728
1943,33728
1944,33664
1945,33728
1946,33728
1947,33728
1948,33792
1949,33920
1950,33856
1951,33792
1952,33792
1953,33792
1954,33792
1955,33792
1956,33792
1957,33856
1958,33792
1959,33792
1960,33856
1961,33856
1962,33792
1963,33728
1964,33728
1965,33856
1966,33984
1967,33984
1968,34048
1969,34176
1970,34368
1971,34368
1972,34368
1973,34304
1974,34496
1975,34560
1976,34624
1977,34752
1978,34816
1979,34816
1980,34624
1981,34432
1982,34240
1983,33920
1984,33472
1985,33088
1986,32896
1987,32832
1988,32768
1989,32832
1990,32896
1991,32960
1992,33024
1993,33088
1994,33216
1995,33280
1996,33344
1997,33280
1998,33216
1999,33088
2000,32768
2001,32448
2002,32896
2003,32832
2004,35520
2005,37696
2006,40064
2007,42176
2008,43584
2009,43456
2010,41152
2011,37696
2012,34368
2013,31808
2014,30336
2015,29760
2016,29824
2017,30208
2018,30656
2019,31168
2020,31744
2021,32128
2022,32576
2023,32896
2024,33088
2025,33216
2026,33344
2027,33472
2028,33600
2029,33536
2030,33472
2031,33536
2032,33600
2033,33600
2034,33408
2035,33344
2036,33280
2037,33344
2038,33408
2039,33472
2040,33472
2041,33472
2042,33472
2043,33472
2044,33536
2045,33600
2046,33600
2047,33664
2048,33728
2049,33792
2050,33856
2051,33920
2052,33984
2053,34048
2054,34112
2055,34048
2056,34048
2057,34112
2058,34240
2059,34176
2060,34176
2061,34240
2062,34304
2063,34240
2064,34240
2065,34240
2066,34240
2067,34176
2068,34176
2069,34176
2070,34176
2071,34112
2072,34048
2073,33984
2074,33984
2075,33920
2076,33792
2077,33664
2078,33536
2079,33472
2080,33408
2081,33408
2082,33408
2083,33408
2084,33408
2085,33472
2086,33472
2087,33472
2088,33472
2089,33536
2090,33600
2091,33600
2092,33536
2093,33472
2094,33536
2095,33664
2096,33664
2097,33600
2098,33664
2099,33664
2100,33664
2101,33600
2102,33664
2103,33664
2104,33600
2105,33536
2106,33536
2107,33536
2108,33472
2109,33472
2110,33472
2111,33536
2112,33600
2113,33536
2114,33600
2115,33728
2116,33856
2117,33984
2118,34048
2119,34176
2120,34240
2121,34304
2122,34304
2123,34304
2124,34304
2125,34240
2126,34240
2127,34432
2128,34560
2129,34560
2130,34432
2131,34112
2132,33792
2133,33408
2134,33088
2135,32896
2136,32768
2137,32640
2138,32704
2139,32768
2140,32768
2141,32704
2142,32704
2143,32768
2144,32960
2145,33216
2146,33408
2147,33536
2148,33344
2149,32960
2150,32448
2151,32320
2152,33024
2153,34624
2154,36672
2155,39040
2156,41280
2157,43136
2158,43776
2159,42496
2160,39296
2161,35776
2162,32768
2163,30784
2164,29760
2165,29504
2166,29696
2167,30144
2168,30720
2169,31296
2170,31936
2171,32384
2172,32768
2173,33088
2174,33280
2175,33408
2176,33408
2177,33472
2178,33536
2179,33536
2180,33472
2181,33472
2182,33536
2183,33536
2184,33536
2185,33536
2186,33536
2187,33536
2188,33600
2189,33536
2190,33472
2191,33472
2192,33408
2193,33408
2194,33536
2195,33728
2196,33792
2197,33792
2198,33920
2199,33984
2200,33984
2201,33984
2202,34048
2203,34048
2204,34112
2205,34112
2206,34176
2207,34240
2208,34240
2209,34240
2210,34304
2211,34432
2212,34304
2213,34112
2214,34048
2215,34048
2216,34048
2217,34048
2218,34112
2219,34176
2220,34112
2221,34048
2222,33920
2223,33920
2224,33920
2225,33856
2226,33600
2227,33472
2228,33472
2229,33472
2230,33472
2231,33472
2232,33536
2233,33728
2234,33728
2235,33600
2236,33600
2237,33664
2238,33600
2239,33600
2240,33600
2241,33664
2242,33664
2243,33664
2244,33792
2245,33856
2246,33792
2247,33664
2248,33664
2249,33664
2250,33600
2251,33536
2252,33600
2253,33728
2254,33792
2255,33728
2256,33664
2257,33600
2258,33600
2259,33600
2260,33600
2261,33664
2262,33728
2263,33664
2264,33600
2265,33600
2266,33664
2267,33792
2268,33920
2269,34112
2270,34240
2271,34304
2272,34304
2273,34368
2274,34432
2275,34496
2276,34496
2277,34624
2278,34752
2279,34816
2280,34816
2281,34624
2282,34432
2283,34176
2284,33792
2285,33408
2286,33088
2287,32896
2288,32704
2289,32576
2290,32576
2291,32640
2292,32768
2293,32896
2294,33024
2295,33216
2296,33344
2297,33344
2298,33344
2299,33280
2300,33088
2301,32704
2302,32512
2303,32896
2304,34048
2305,35840
2306,38144
2307,40512
2308,42560
2309,43648
2310,43072
2311,40384
2312,36864
2313,33664
2314,31424
2315,30272
2316,29952
2317,30016
2318,30336
2319,30912
2320,31424
2321,31936
2322,32384
2323,32832
2324,33088
2325,33344
2326,33408
2327,33536
2328,33664
2329,33728
2330,33664
2331,33600
2332,33536
2333,33536
2334,33536
2335,33536
2336,33536
2337,33600
2338,33600
2339,33536
2340,33600
2341,33664
2342,33728
2343,33664
2344,33664
2345,33728
2346,33856
2347,33920
2348,33920
2349,33920
2350,33984
2351,34048
2352,34048
2353,34176
2354,34240
2355,34240
2356,34176
2357,34240
2358,34304
2359,34304
2360,34304
2361,34304
2362,34240
2363,34176
2364,34112
2365,34176
2366,34240
2367,34304
2368,34304
2369,34304
2370,34304
2371,34304
2372,34176
2373,34048
2374,33920
2375,33792
2376,33664
2377,33600
2378,33600
2379,33600
2380,33472
2381,33344
2382,33280
2383,33344
2384,33536
2385,33664
2386,33728
2387,33728
2388,33856
2389,33856
2390,33728
2391,33600
2392,33472
2393,33472
2394,33536
2395,33600
2396,33600
2397,33664
2398,33792
2399,33920
2400,33856
2401,33728
2402,33600
2403,33600
2404,33600
2405,33664
2406,33664
2407,33664
2408,33728
2409,33728
2410,33728
2411,33792
2412,33792
2413,33728
2414,33600
2415,33472
2416,33472
2417,33472
2418,33536
2419,33664
2420,33856
2421,33984
2422,34048
2423,34112
2424,34176
2425,34240
2426,34304
2427,34368
2428,34496
2429,34560
2430,34624
2431,34752
2432,34752
2433,34688
2434,34432
2435,34112
2436,33856
2437,33536
2438,33152
2439,32768
2440,32576
2441,32512
2442,32512
2443,32576
2444,32704
2445,32896
2446,32960
2447,33088
2448,33216
2449,33408
2450,33536
2451,33536
2452,33344
2453,33024
2454,32576
2455,32512
2456,33280
2457,34944
2458,37248
2459,39552
2460,41856
2461,43136
2462,43328
2463,41472
2464,38080
2465,34752
2466,32192
2467,30528
2468,29696
2469,29568
2470,29824
2471,30336
2472,30912
2473,31552
2474,32064
2475,32448
2476,32704
2477,32960
2478,33216
2479,33408
2480,33472
2481,33472
2482,33408
2483,33408
2484,33408
2485,33408
2486,33408
2487,33472
2488,33472
2489,33472
2490,33472
2491,33472
2492,33408
2493,33408
2494,33472
2495,33472
2496,33536
2497,33600
2498,33600
2499,33600
2500,33664
2501,33728
2502,33920
2503,34048
2504,34176
2505,34240
2506,34176
2507,34240
2508,34304
2509,34304
2510,34240
2511,34304
2512,34304
2513,34240
2514,34176
2515,34240
2516,34240
2517,34240
2518,34176
2519,34176
2520,34176
2521,34240
2522,34176
2523,34112
2524,34112
2525,33984
2526,33920
2527,33792
2528,33728
2529,33600
2530,33472
2531,33344
2532,33344
2533,33344
2534,33216
2535,33216
2536,33216
2537,33280
2538,33280
2539,33280
2540,33280
2541,33344
2542,33408
2543,33408
2544,33472
2545,33472
2546,33536
2547,33536
2548,33472
2549,33472
2550,33472
2551,33472
2552,33472
2553,33472
2554,33536
2555,33472
2556,33408
2557,33472
2558,33408
2559,33408
2560,33408
2561,33536
2562,33600
2563,33728
2564,33792
2565,33856
2566,33984
2567,34048
2568,34048
2569,34176
2570,34240
2571,34240
2572,34112
2573,34176
2574,34432
2575,34688
2576,34624
2577,34176
2578,33920
2579,33600
2580,33216
2581,32960
2582,32768
2583,32640
2584,32448
2585,32384
2586,32448
2587,32640
2588,32768
2589,32768
2590,32832
2591,32960
2592,33024
2593,33152
2594,33152
2595,33024
2596,32768
2597,32448
2598,32192
2599,32384
2600,33152
2601,34688
2602,37056
2603,39232
2604,41344
2605,42752
2606,42880
2607,41024
2608,37888
2609,34624
2610,31808
2611,30272
2612,29440
2613,29312
2614,29632
2615,30208
2616,30848
2617,31424
2618,31936
2619,32384
2620,32768
2621,33024
2622,33216
2623,33344
2624,33472
2625,33536
2626,33472
2627,33408
2628,33408
2629,33408
2630,33344
2631,33472
2632,33536
2633,33536
2634,33472
2635,33472
2636,33472
2637,33472
2638,33408
2639,33408
2640,33408
2641,33472
2642,33472
2643,33408
2644,33600
2645,33856
2646,34112
2647,34176
2648,33920
2649,33728
2650,33728
2651,33728
2652,33792
2653,33856
2654,33920
2655,33984
2656,33984
2657,34048
2658,34176
2659,34176
2660,34112
2661,34176
2662,34304
2663,34304
2664,34176
2665,34112
2666,34048
2667,33984
2668,33920
2669,33920
2670,33984
2671,33920
2672,33856
2673,33728
2674,33664
2675,33664
2676,33536
2677,33408
2678,33344
2679,33344
2680,33344
2681,33408
2682,33472
2683,33536
2684,33600
2685,33600
2686,33664
2687,33728
2688,33728
2689,33664
2690,33664
2691,33664
2692,33728
2693,33664
2694,33664
2695,33728
2696,33792
2697,33792
2698,33792
2699,33856
2700,33856
2701,33792
2702,33728
2703,33664
2704,33600
2705,33600
2706,33664
2707,33792
2708,33920
2709,34048
2710,34112
2711,34176
2712,34240
2713,34304
2714,34240
2715,34304
2716,34496
2717,34624
2718,34688
2719,34752
2720,34752
2721,34560
2722,34240
2723,33856
2724,33536
2725,33216
2726,32896
2727,32640
2728,32512
2729,32576
2730,32704
2731,32768
2732,32896
2733,33024
2734,33088
2735,33216
2736,33344
2737,33472
2738,33408
2739,33280
2740,33088
2741,32768
2742,32576
2743,32896
2744,33920
2745,36288
2746,37952
2747,40256
2748,42304
2749,43520
2750,43264
2751,40768
2752,37312
2753,34048
2754,31680
2755,30272
2756,29696
2757,29760
2758,30144
2759,30656
2760,31360
2761,31808
2762,32320
2763,32640
2764,32832
2765,33024
2766,33216
2767,33344
2768,33408
2769,33536
2770,33600
2771,33664
2772,33600
2773,33536
2774,33472
2775,33536
2776,33536
2777,33472
2778,33408
2779,33472
2780,33472
2781,33472
2782,33600
2783,33728
2784,33792
2785,33792
2786,33792
2787,33664
2788,33600
2789,33664
2790,33728
2791,33856
2792,33920
2793,33984
2794,34048
2795,34112
2796,34176
2797,34240
2798,34240
2799,34240
2800,34176
2801,34112
2802,34112
2803,34112
2804,34048
2805,33920
2806,33856
2807,33792
2808,33920
2809,33984
2810,34112
2811,34240
2812,34176
2813,33920
2814,33664
2815,33472
2816,33408
2817,33344
2818,33344
2819,33344
2820,33472
2821,33472
2822,33344
2823,33280
2824,33344
2825,33536
2826,33664
2827,33664
2828,33600
2829,33600
2830,33600
2831,33664
2832,33664
2833,33792
2834,33856
2835,33920
2836,33856
2837,33728
2838,33472
2839,33344
2840,33280
2841,33408
2842,33472
2843,33536
2844,33536
2845,33600
2846,33664
2847,33728
2848,33920
2849,34112
2850,34368
2851,34304
2852,34240
2853,34240
2854,34304
2855,34304
2856,34304
2857,34368
2858,34432
2859,34560
2860,34624
2861,34752
2862,34688
2863,34496
2864,34176
2865,33792
2866,33408
2867,33088
2868,32832
2869,32640
2870,32576
2871,32512
2872,32576
2873,32704
2874,32832
2875,32960
2876,33024
2877,33152
2878,33280
2879,33408
2880,33344
2881,33152
2882,32768
2883,32384
2884,32320
2885,33088
2886,34752
2887,37120
2888,39744
2889,42048
2890,43648
2891,43776
2892,41920
2893,38528
2894,34880
2895,32064
2896,30272
2897,29440
2898,29312
2899,29632
2900,30208
2901,30912
2902,31552
2903,32064
2904,32512
2905,32896
2906,33088
2907,33344
2908,33536
2909,33600
2910,33600
2911,33600
2912,33664
2913,33600
2914,33600
2915,33536
2916,33536
2917,33536
2918,33536
2919,33536
2920,33600
2921,33600
2922,33600
2923,33600
2924,33600
2925,33664
2926,33664
2927,33664
2928,33664
2929,33728
2930,33792
2931,33792
2932,33728
2933,33856
2934,33920
2935,33984
2936,33984
2937,34048
2938,34112
2939,34176
2940,34304
2941,34368
2942,34368
2943,34432
2944,34368
2945,34176
2946,33984
2947,33856
2948,33856
2949,33856
2950,33920
2951,33984
2952,33984
2953,34048
2954,34048
2955,33984
2956,33984
2957,33920
2958,33856
2959,33728
2960,33600
2961,33408
2962,33344
2963,33344
2964,33280
2965,33344
2966,33472
2967,33536
2968,33600
2969,33600
2970,33728
2971,33728
2972,33792
2973,33856
2974,33920
2975,33984
2976,33984
2977,33920
2978,33920
2979,33920
2980,33856
2981,33728
2982,33664
2983,33728
2984,33792
2985,33728
2986,33728
2987,33728
2988,33792
2989,33792
2990,33728
2991,33664
2992,33600
2993,33536
2994,33472
2995,33600
2996,33792
2997,34048
2998,34240
2999,34368
3000,34432
3001,34496
3002,34560
3003,34624
3004,34688
3005,34688
3006,34624
3007,34560
3008,34560
3009,34496
3010,34368
3011,34112
3012,33792
3013,33408
3014,33024
3015,32768
3016,32704
3017,32640
3018,32576
3019,32704
3020,32768
3021,32832
3022,32960
3023,33024
3024,33024
3025,33088
3026,33216
3027,33216
3028,33088
3029,32768
3030,32576
3031,32768
3032,33664
3033,35456
3034,37824
3035,40256
3036,42496
3037,43968
3038,43840
3039,41408
3040,37760
3041,34304
3042,31680
3043,30144
3044,29504
3045,29568
3046,30016
3047,30592
3048,31104
3049,31744
3050,32256
3051,32704
3052,33024
3053,33280
3054,33472
3055,33536
3056,33600
3057,33664
3058,33664
3059,33536
3060,33472
3061,33408
3062,33472
3063,33536
3064,33536
3065,33536
3066,33472
3067,33472
3068,33472
3069,33472
3070,33536
3071,33600
3072,33664
3073,33664
3074,33792
3075,33792
3076,33728
3077,33728
3078,33728
3079,33856
3080,33856
3081,33792
3082,33920
3083,34048
3084,34048
3085,34112
3086,34176
3087,34240
3088,34240
3089,34176
3090,34112
3091,34112
3092,34112
3093,34048
3094,33984
3095,34112
3096,34112
3097,34048
3098,33920
3099,33920
3100,33984
3101,34048
3102,34048
3103,34112
3104,34304
3105,34240
3106,34112
3107,34048
3108,33984
3109,33856
3110,33792
3111,33728
3112,33728
3113,33728
3114,33664
3115,33664
3116,33664
3117,33728
3118,33664
3119,33728
3120,33984
3121,33984
3122,33920
3123,33856
3124,33856
3125,33856
3126,33856
3127,33920
3128,33984
3129,33984
3130,33984
3131,33920
3132,33920
3133,33984
3134,34048
3135,33984
3136,33984
3137,33984
3138,33920
3139,33792
3140,33600
3141,33536
3142,33536
3143,33536
3144,33600
3145,33728
3146,33856
3147,34048
3148,34176
3149,34240
3150,34304
3151,34304
3152,34304
3153,34304
3154,34432
3155,34560
3156,34624
3157,34752
3158,34816
3159,34752
3160,34432
3161,34048
3162,33792
3163,33536
3164,33216
3165,32832
3166,32640
3167,32640
3168,32576
3169,32448
3170,32448
3171,32640
3172,32768
3173,32896
3174,32960
3175,32960
3176,33024
3177,32960
3178,32832
3179,32640
3180,32640
3181,32896
3182,34112
3183,36096
3184,38528
3185,40768
3186,42624
3187,43584
3188,42816
3189,39936
3190,36288
3191,33152
3192,30976
3193,29824
3194,29440
3195,29888
3196,30144
3197,30656
3198,31232
3199,31744
3200,32256
3201,32640
3202,32896
3203,33088
3204,33216
3205,33280
3206,33344
3207,33408
3208,33536
3209,33600
3210,33472
3211,33344
3212,33408
3213,33472
3214,33472
3215,33472
3216,33408
3217,33408
3218,33344
3219,33344
3220,33408
3221,33472
3222,33536
3223,33536
3224,33600
3225,33664
3226,33664
3227,33728
3228,33792
3229,33856
3230,33920
3231,33920
3232,33984
3233,34048
3234,34048
3235,33984
3236,33920
3237,33920
3238,33920
3239,33856
3240,33856
3241,33920
3242,33984
3243,33984
3244,33920
3245,33856
3246,33792
3247,33728
3248,33664
3249,33664
3250,33728
3251,33728
3252,33600
3253,33536
3254,33536
3255,33408
3256,33344
3257,33216
3258,33216
3259,33216
3260,33216
3261,33216
3262,33216
3263,33216
3264,33216
3265,33216
3266,33280
3267,33344
3268,33344
3269,33344
3270,33408
3271,33472
3272,33536
3273,33536
3274,33600
3275,33664
3276,33664
3277,33664
3278,33600
3279,33664
3280,33600
3281,33472
3282,33472
3283,33600
3284,33728
3285,33728
3286,33664
3287,33728
3288,33728
3289,33600
3290,33472
3291,33600
3292,33728
3293,33728
3294,33728
3295,33728
3296,33856
3297,33984
3298,34112
3299,34240
3300,34240
3301,34240
3302,34240
3303,34304
3304,34432
3305,34560
3306,34560
3307,34560
3308,34624
3309,34624
3310,34432
3311,34176
3312,33920
3313,33728
3314,33408
3315,33088
3316,32832
3317,32768
3318,32704
3319,32704
3320,32832
3321,32960
3322,33088
3323,33152
3324,33280
3325,33472
3326,33472
3327,33472
3328,33344
3329,33152
3330,32768
3331,32576
3332,33024
3333,34304
3334,36352
3335,38784
3336,41152
3337,43136
3338,44032
3339,42880
3340,39744
3341,36096
3342,33024
3343,30848
3344,29696
3345,29312
3346,29504
3347,30016
3348,30528
3349,31040
3350,31680
3351,32192
3352,32576
3353,32896
3354,33088
3355,33152
3356,33216
3357,33280
3358,33344
3359,33344
3360,33280
3361,33280
3362,33280
3363,33344
3364,33408
3365,33408
3366,33472
3367,33472
3368,33408
3369,33408
3370,33472
3371,33536
3372,33600
3373,33600
3374,33600
3375,33664
3376,33728
3377,33728
3378,33728
3379,33792
3380,33856
3381,33920
3382,33984
3383,34112
3384,34176
3385,34240
3386,34240
3387,34240
3388,34304
3389,34304
3390,34304
3391,34304
3392,34304
3393,34240
3394,34176
3395,34176
3396,34176
3397,34176
3398,34176
3399,34176
3400,34240
3401,34176
3402,34048
3403,33984
3404,33920
3405,33856
3406,33792
3407,33664
3408,33600
3409,33536
3410,33472
3411,33472
3412,33536
3413,33600
3414,33664
3415,33728
3416,33792
3417,33856
3418,33856
3419,33792
3420,33792
3421,33792
3422,33728
3423,33664
3424,33728
3425,33728
3426,33728
3427,33728
3428,33664
3429,33664
3430,33728
3431,33600
3432,33600
3433,33600
3434,33664
3435,33600
3436,33600
3437,33600
3438,33664
3439,33664
3440,33600
3441,33536
3442,33536
3443,33472
3444,33472
3445,33536
3446,33728
3447,33856
3448,34048
3449,34112
3450,34176
3451,34240
3452,34304
3453,34368
3454,34432
3455,34560
3456,34688
3457,34752
3458,34816
3459,34752
3460,34496
3461,34176
3462,33856
3463,33600
3464,33280
3465,32960
3466,32768
3467,32640
3468,32640
3469,32640
3470,32704
3471,32832
3472,33024
3473,33088
3474,33216
3475,33344
3476,33408
3477,33344
3478,33216
3479,32960
3480,32640
3481,32512
3482,33088
3483,34560
3484,36608
3485,38976
3486,41216
3487,43264
3488,43840
3489,42496
3490,39360
3491,35904
3492,32960
3493,30976
3494,29952
3495,29696
3496,29888
3497,30336
3498,30784
3499,31360
3500,31872
3501,32384
3502,32768
3503,33024
3504,33280
3505,33472
3506,33536
3507,33536
3508,33536
3509,33536
3510,33536
3511,33536
3512,33536
3513,33536
3514,33472
3515,33408
3516,33344
3517,33344
3518,33344
3519,33408
3520,33408
3521,33472
3522,33600
3523,33600
3524,33600
3525,33664
3526,33728
3527,33728
3528,33792
3529,33856
3530,33856
3531,33920
3532,33920
3533,33920
3534,33984
3535,33984
3536,33984
3537,34048
3538,34112
3539,34176
3540,34112
3541,34112
3542,34176
3543,34112
3544,33984
3545,33984
3546,33984
3547,33984
3548,33984
3549,33984
3550,33984
3551,33920
3552,33856
3553,33728
3554,33728
3555,33600
3556,33472
3557,33344
3558,33344
3559,33344
3560,33344
3561,33280
3562,33344
3563,33408
3564,33472
3565,33472
3566,33536
3567,33600
3568,33664
3569,33600
3570,33600
3571,33600
3572,33600
3573,33600
3574,33536
3575,33664
3576,33728
3577,33728
3578,33664
3579,33728
3580,33728
3581,33664
3582,33664
3583,33728
3584,33792
3585,33792
3586,33728
3587,33792
3588,33856
3589,33920
3590,33920
3591,34048
3592,34112
3593,34176
3594,34176
3595,34240
3596,34368
3597,34432
3598,34432
3599,34496
3600,34624
3601,34752
3602,34688
3603,34560
3604,34304
3605,34048
3606,33728
3607,33344
3608,33024
3609,32832
3610,32704
3611,32640
3612,32704
3613,32832
3614,32896
3615,32960
3616,33088
3617,33280
3618,33344
3619,33344
3620,33344
3621,33280
3622,33024
3623,32640
3624,32448
3625,32704
3626,33728
3627,35520
3628,37824
3629,40192
3630,42304
3631,43584
3632,43264
3633,40896
3634,37568
3635,34304
3636,31808
3637,30336
3638,29696
3639,29568
3640,29888
3641,30464
3642,31104
3643,31616
3644,32128
3645,32640
3646,33024
3647,33280
3648,33408
3649,33536
3650,33600
3651,33664
3652,33664
3653,33664
3654,33600
3655,33536
3656,33472
3657,33472
3658,33472
3659,33472
3660,33408
3661,33408
3662,33472
3663,33536
3664,33536
3665,33600
3666,33664
3667,33728
3668,33664
3669,33664
3670,33664
3671,33664
3672,33664
3673,33728
3674,33856
3675,33920
3676,33984
3677,33984
3678,34112
3679,34176
3680,34176
3681,34112
3682,34176
3683,34112
3684,34176
3685,34048
3686,33984
3687,33984
3688,33984
3689,33920
3690,33920
3691,33984
3692,33984
3693,33920
3694,33856
3695,33792
3696,33728
3697,33600
3698,33536
3699,33472
3700,33408
3701,33344
3702,33280
3703,33280
3704,33408
3705,33408
3706,33344
3707,33408
3708,33408
3709,33472
3710,33408
3711,33472
3712,33536
3713,33472
3714,33600
3715,33664
3716,33664
3717,33728
3718,33728
3719,33792
3720,33792
3721,33792
3722,33728
3723,33728
3724,33728
3725,33792
3726,33792
3727,33792
3728,33856
3729,33984
3730,34048
3731,34112
3732,34112
3733,34176
3734,34240
3735,34304
3736,34432
3737,34496
3738,34560
3739,34560
3740,34624
3741,34752
3742,34688
3743,34560
3744,34240
3745,33920
3746,33600
3747,33216
3748,32896
3749,32768
3750,32640
3751,32512
3752,32448
3753,32512
3754,32640
3755,32768
3756,32832
3757,33024
3758,32960
3759,33152
3760,33152
3761,33088
3762,32832
3763,32448
3764,32256
3765,32768
3766,34048
3767,36096
3768,38528
3769,40896
3770,42880
3771,43712
3772,42688
3773,39680
3774,36224
3775,33152
3776,30976
3777,29760
3778,29376
3779,29504
3780,29952
3781,30464
3782,31040
3783,31616
3784,32128
3785,32512
3786,32896
3787,33152
3788,33280
3789,33408
3790,33472
3791,33536
3792,33536
3793,33472
3794,33408
3795,33472
3796,33472
3797,33408
3798,33344
3799,33344
3800,33408
3801,33408
3802,33408
3803,33408
3804,33472
3805,33408
3806,33408
3807,33472
3808,33600
3809,33664
3810,33728
3811,33792
3812,33856
3813,33920
3814,33920
3815,33984
3816,34048
3817,34112
3818,34112
3819,34176
3820,34240
3821,34304
3822,34304
3823,34240
3824,34240
3825,34240
3826,34176
3827,34176
3828,34112
3829,34112
3830,33984
3831,33920
3832,33856
3833,33856
3834,33856
3835,33792
3836,33792
3837,33792
3838,33728
3839,33600
3840,33472
3841,33472
3842,33472
3843,33472
3844,33408
3845,33472
3846,33472
3847,33472
3848,33536
3849,33536
3850,33600
3851,33600
3852,33600
3853,33664
3854,33728
3855,33792
3856,33792
3857,33792
3858,33856
3859,33856
3860,33856
3861,33856
3862,33920
3863,33856
3864,33792
3865,33792
3866,33792
3867,33792
3868,33792
3869,33856
3870,33984
3871,34048
3872,34112
3873,34240
3874,34368
3875,34432
3876,34432
3877,34432
3878,34496
3879,34624
3880,34624
3881,34624
3882,34688
3883,34880
3884,34880
3885,34752
3886,34560
3887,34304
3888,33984
3889,33536
3890,33152
3891,32896
3892,32768
3893,32640
3894,32640
3895,32768
3896,32960
3897,33024
3898,33152
3899,33280
3900,33344
3901,33408
3902,33408
3903,33408
3904,33280
3905,32960
3906,32576
3907,32768
3908,33664
3909,35328
3910,37632
3911,40064
3912,42368
3913,43968
3914,44032
3915,41920
3916,38400
3917,34688
3918,32128
3919,30400
3920,29632
3921,29632
3922,29952
3923,30464
3924,31040
3925,31616
3926,32192
3927,32576
3928,32960
3929,33216
3930,33472
3931,33536
3932,33600
3933,33664
3934,33664
3935,33600
3936,33536
3937,33536
3938,33536
3939,33472
3940,33472
3941,33536
3942,33536
3943,33600
3944,33536
3945,33600
3946,33600
3947,33536
3948,33536
3949,33600
3950,33664
3951,33664
3952,33664
3953,33728
3954,33792
3955,33792
3956,33856
3957,33920
3958,33984
3959,34048
3960,34112
3961,34112
3962,34240
3963,34240
3964,34240
3965,34304
3966,34304
3967,34304
3968,34240
3969,34176
3970,34240
3971,34240
3972,34176
3973,34112
3974,34048
3975,34048
3976,34048
3977,33920
3978,33856
3979,33792
3980,33728
3981,33600
3982,33472
3983,33408
3984,33344
3985,33280
3986,33280
3987,33344
3988,33344
3989,33408
3990,33408
3991,33408
3992,33472
3993,33472
3994,33536
3995,33600
3996,33664
3997,33664
3998,33600
3999,33664
4000,33728
4001,33728
4002,33728
4003,33728
4004,33792
4005,33792
4006,33792
4007,33792
4008,33792
4009,33728
4010,33664
4011,33664
4012,33728
4013,33664
4014,33600
4015,33600
4016,33600
4017,33664
4018,33664
4019,33664
4020,33728
4021,33856
4022,33984
4023,34048
4024,34240
4025,34304
4026,34304
4027,34240
4028,34304
4029,34368
4030,34432
4031,34496
4032,34560
4033,34688
4034,34688
4035,34624
4036,34432
4037,34176
4038,33856
4039,33472
4040,33088
4041,32832
4042,32640
4043,32512
4044,32512
4045,32640
4046,32768
4047,32896
4048,32960
4049,33088
4050,33152
4051,33216
4052,33216
4053,33216
4054,33088
4055,32832
4056,32576
4057,32704
4058,33536
4059,35200
4060,37376
4061,39808
4062,42048
4063,43520
4064,43584
4065,41408
4066,37952
4067,34432
4068,31872
4069,30208
4070,29504
4071,29440
4072,29824
4073,30336
4074,30912
4075,31552
4076,32064
4077,32512
4078,32832
4079,33088
4080,33280
4081,33344
4082,33408
4083,33472
4084,33536
4085,33472
4086,33408
4087,33408
4088,33408
4089,33344
4090,33344
4091,33344
4092,33408
4093,33344
4094,33280
4095,33344
4096,33344
4097,33408
4098,33344
4099,33408
4100,33536
4101,33664
4102,33664
4103,33728
4104,33792
4105,33792
4106,33792
4107,33856
4108,33984
4109,34048
4110,34048
4111,34048
4112,34048
4113,34112
4114,34112
4115,34112
4116,34176
4117,34176
4118,34112
4119,34048
4120,34048
4121,34048
4122,33984
4123,33984
4124,33984
4125,34048
4126,34048
4127,33984
4128,33856
4129,33792
4130,33728
4131,33600
4132,33536
4133,33472
4134,33472
4135,33408
4136,33344
4137,33344
4138,33344
4139,33280
4140,33280
4141,33344
4142,33472
4143,33536
4144,33536
4145,33600
4146,33664
4147,33664
4148,33600
4149,33664
4150,33664
4151,33664
4152,33600
4153,33600
4154,33600
4155,33600
4156,33600
4157,33600
4158,33664
4159,33664
4160,33600
4161,33600
4162,33600
4163,33600
4164,33600
4165,33536
4166,33600
4167,33664
4168,33728
4169,33792
4170,33920
4171,34112
4172,34176
4173,34176
4174,34112
4175,34176
4176,34176
4177,34240
4178,34304
4179,34432
4180,34560
4181,34688
4182,34688
4183,34560
4184,34368
4185,34048
4186,33728
4187,33472
4188,33216
4189,32960
4190,32768
4191,32768
4192,32768
4193,32768
4194,32832
4195,32896
4196,33024
4197,33088
4198,33152
4199,33216
4200,33280
4201,33280
4202,33024
4203,32768
4204,32448
4205,32640
4206,33472
4207,35136
4208,37376
4209,39808
4210,41984
4211,43392
4212,43520
4213,41536
4214,38272
4215,34560
4216,32000
4217,30464
4218,29632
4219,29440
4220,29760
4221,30464
4222,31104
4223,31616
4224,32192
4225,32640
4226,33024
4227,33216
4228,33408
4229,33536
4230,33600
4231,33600
4232,33600
4233,33600
4234,33600
4235,33536
4236,33472
4237,33472
4238,33472
4239,33408
4240,33408
4241,33408
4242,33408
4243,33408
4244,33408
4245,33472
4246,33536
4247,33536
4248,33536
4249,33536
4250,33600
4251,33664
4252,33728
4253,33792
4254,33856
4255,33920
4256,33984
4257,33984
4258,34048
4259,34112
4260,34112
4261,34176
4262,34240
4263,34304
4264,34240
4265,34176
4266,34176
4267,34176
4268,34112
4269,34048
4270,33984
4271,34048
4272,34048
4273,33984
4274,33920
4275,33920
4276,33920
4277,33792
4278,33664
4279,33600
4280,33536
4281,33408
4282,33408
4283,33408
4284,33408
4285,33344
4286,33344
4287,33344
4288,33472
4289,33472
4290,33472
4291,33536
4292,33600
4293,33664
4294,33664
4295,33728
4296,33728
4297,33728
4298,33728
4299,33728
4300,33792
4301,33792
4302,33792
4303,33792
4304,33856
4305,33792
4306,33728
4307,33728
4308,33792
4309,33856
4310,33856
4311,33856
4312,33920
4313,33984
4314,33984
4315,33984
4316,34048
4317,34176
4318,34240
4319,34240
4320,34240
4321,34304
4322,34304
4323,34304
4324,34368
4325,34432
4326,34560
4327,34624
4328,34624
4329,34624
4330,34432
4331,34176
4332,33792
4333,33472
4334,33152
4335,32832
4336,32640
4337,32640
4338,32704
4339,32768
4340,32832
4341,32960
4342,33088
4343,33088
4344,33088
4345,33152
4346,33280
4347,33216
4348,32960
4349,32704
4350,32448
4351,32640
4352,33472
4353,35136
4354,37376
4355,39808
4356,42048
4357,43520
4358,43712
4359,41728
4360,38336
4361,34880
4362,32128
4363,30464
4364,29696
4365,29504
4366,29824
4367,30400
4368,30912
4369,31488
4370,32000
4371,32448
4372,32832
4373,33088
4374,33280
4375,33536
4376,33600
4377,33664
4378,33664
4379,33664
4380,33664
4381,33600
4382,33536
4383,33536
4384,33472
4385,33472
4386,33408
4387,33408
4388,33408
4389,33408
4390,33408
4391,33408
4392,33472
4393,33472
4394,33536
4395,33536
4396,33600
4397,33728
4398,33728
4399,33856
4400,33920
4401,33984
4402,33984
4403,34048
4404,34112
4405,34176
4406,34176
4407,34176
4408,34176
4409,34240
4410,34176
4411,34112
4412,34112
4413,34176
4414,34176
4415,34112
4416,34048
4417,34112
4418,34112
4419,34048
4420,33984
4421,33920
4422,33792
4423,33664
4424,33600
4425,33600
4426,33600
4427,33472
4428,33408
4429,33344
4430,33344
4431,33280
4432,33344
4433,33344
4434,33472
4435,33472
4436,33472
4437,33600
4438,33664
4439,33664
4440,33728
4441,33728
4442,33728
4443,33728
4444,33664
4445,33600
4446,33664
4447,33728
4448,33728
4449,33792
4450,33792
4451,33856
4452,33728
4453,33664
4454,33664
4455,33600
4456,33536
4457,33472
4458,33536
4459,33600
4460,33664
4461,33600
4462,33600
4463,33600
4464,33536
4465,33472
4466,33536
4467,33664
4468,33792
4469,33920
4470,33984
4471,34112
4472,34176
4473,34176
4474,34176
4475,34240
4476,34304
4477,34304
4478,34240
4479,34368
4480,34496
4481,34496
4482,34304
4483,34112
4484,33792
4485,33472
4486,33280
4487,33088
4488,32896
4489,32704
4490,32640
4491,32640
4492,32704
4493,32832
4494,32896
4495,32960
4496,33152
4497,33216
4498,33280
4499,33344
4500,33344
4501,33088
4502,32832
4503,32576
4504,32896
4505,33920
4506,35648
4507,37888
4508,40192
4509,42304
4510,43520
4511,43264
4512,40960
4513,37632
4514,34368
4515,31872
4516,30336
4517,29632
4518,29568
4519,29888
4520,30464
4521,31168
4522,31808
4523,32320
4524,32640
4525,32960
4526,33216
4527,33408
4528,33472
4529,33472
4530,33536
4531,33536
4532,33536
4533,33536
4534,33536
4535,33536
4536,33472
4537,33472
4538,33600
4539,33600
4540,33536
4541,33600
4542,33600
4543,33600
4544,33600
4545,33664
4546,33728
4547,33728
4548,33728
4549,33728
4550,33792
4551,33792
4552,33856
4553,33920
4554,34048
4555,34176
4556,34176
4557,34176
4558,34240
4559,34304
4560,34368
4561,34304
4562,34304
4563,34304
4564,34304
4565,34240
4566,34176
4567,34176
4568,34176
4569,34112
4570,34112
4571,34176
4572,34112
4573,33984
4574,33920
4575,33920
4576,33856
4577,33728
4578,33664
4579,33664
4580,33600
4581,33472
4582,33344
4583,33280
4584,33280
4585,33280
4586,33280
4587,33408
4588,33472
4589,33536
4590,33600
4591,33600
4592,33664
4593,33664
4594,33664
4595,33600
4596,33664
4597,33728
4598,33664
4599,33664
4600,33728
4601,33728
4602,33728
4603,33664
4604,33664
4605,33728
4606,33728
4607,33664
4608,33728
4609,33792
4610,33856
4611,33792
4612,33792
4613,33728
4614,33664
4615,33600
4616,33600
4617,33664
4618,33728
4619,33664
4620,33600
4621,33536
4622,33536
4623,33600
4624,33664
4625,33792
4626,33920
4627,34176
4628,34240
4629,34304
4630,34304
4631,34368
4632,34368
4633,34432
4634,34560
4635,34624
4636,34624
4637,34816
4638,34880
4639,34752
4640,34560
4641,34304
4642,33984
4643,33664
4644,33280
4645,32960
4646,32896
4647,32832
4648,32832
4649,32896
4650,33024
4651,33152
4652,33152
4653,33216
4654,33280
4655,33344
4656,33344
4657,33280
4658,33088
4659,32832
4660,32640
4661,32832
4662,33856
4663,35584
4664,37696
4665,40448
4666,42048
4667,43392
4668,43392
4669,41216
4670,37888
4671,34624
4672,32064
4673,30400
4674,29568
4675,29440
4676,29760
4677,30272
4678,30912
4679,31488
4680,32064
4681,32448
4682,32832
4683,33152
4684,33408
4685,33536
4686,33600
4687,33600
4688,33600
4689,33600
4690,33472
4691,33408
4692,33408
4693,33408
4694,33344
4695,33344
4696,33344
4697,33344
4698,33280
4699,33344
4700,33472
4701,33536
4702,33600
4703,33600
4704,33600
4705,33664
4706,33664
4707,33664
4708,33664
4709,33728
4710,33792
4711,33728
4712,33856
4713,33984
4714,34112
4715,34048
4716,34048
4717,34048
4718,34112
4719,34176
4720,34240
4721,34176
4722,34112
4723,34048
4724,33984
4725,33984
4726,33984
4727,33920
4728,33920
4729,33920
4730,33920
4731,33856
4732,33664
4733,33536
4734,33536
4735,33472
4736,33472
4737,33408
4738,33344
4739,33280
4740,33216
4741,33152
4742,33216
4743,33216
4744,33216
4745,33216
4746,33280
4747,33344
4748,33408
4749,33472
4750,33536
4751,33600
4752,33600
4753,33536
4754,33600
4755,33728
4756,33664
4757,33664
4758,33664
4759,33728
4760,33728
4761,33728
4762,33664
4763,33728
4764,33728
4765,33728
4766,33664
4767,33664
4768,33664
4769,33664
4770,33664
4771,33664
4772,33664
4773,33664
4774,33664
4775,33728
4776,33728
4777,33664
4778,33664
4779,33792
4780,33920
4781,34048
4782,34112
4783,34176
4784,34240
4785,34304
4786,34368
4787,34368
4788,34432
4789,34496
4790,34560
4791,34624
4792,34688
4793,34624
4794,34432
4795,34112
4796,33856
4797,33536
4798,33216
4799,32960
4800,32896
4801,32832
4802,32832
4803,32768
4804,32832
4805,32960
4806,33088
4807,33152
4808,33216
4809,33280
4810,33344
4811,33344
4812,33152
4813,32960
4814,32704
4815,32896
4816,33536
4817,35072
4818,37248
4819,39552
4820,41664
4821,43264
4822,43520
4823,41600
4824,38272
4825,34880
4826,32256
4827,30528
4828,29760
4829,29632
4830,29888
4831,30400
4832,30976
4833,31488
4834,32064
4835,32512
4836,32896
4837,33088
4838,33280
4839,33408
4840,33472
4841,33472
4842,33536
4843,33472
4844,33408
4845,33408
4846,33408
4847,33408
4848,33408
4849,33344
4850,33408
4851,33408
4852,33472
4853,33408
4854,33408
4855,33408
4856,33472
4857,33472
4858,33536
4859,33600
4860,33728
4861,33728
4862,33728
4863,33856
4864,33920
4865,33920
4866,33920
4867,33984
4868,34048
4869,34112
4870,34112
4871,34240
4872,34240
4873,34176
4874,34176
4875,34240
4876,34176
4877,34176
4878,34112
4879,34112
4880,34112
4881,34112
4882,34048
4883,33984
4884,33984
4885,33920
4886,33856
4887,33792
4888,33728
4889,33664
4890,33536
4891,33408
4892,33344
4893,33280
4894,33280
4895,33280
4896,33280
4897,33408
4898,33408
4899,33344
4900,33408
4901,33472
4902,33472
4903,33472
4904,33536
4905,33664
4906,33664
4907,33600
4908,33664
4909,33664
4910,33664
4911,33728
4912,33728
4913,33728
4914,33728
4915,33728
4916,33664
4917,33728
4918,33664
4919,33600
4920,33536
4921,33536
4922,33600
4923,33600
4924,33600
4925,33600
4926,33600
4927,33600
4928,33536
4929,33536
4930,33536
4931,33536
4932,33536
4933,33536
4934,33536
4935,33600
4936,33600
4937,33536
4938,33536
4939,33536
4940,33472
4941,33472
4942,33536
4943,33536
4944,33536
4945,33536
4946,33600
4947,33600
4948,33664
4949,33664
4950,33664
4951,33600
4952,33600
4953,33600
4954,33600
4955,33728
4956,33856
4957,33984
4958,34112
4959,34304
4960,34368
4961,34304
4962,34368
4963,34496
4964,34560
4965,34560
4966,34560
4967,34752
4968,34880
4969,34816
4970,34688
4971,34432
4972,34240
4973,33920
4974,33600
4975,33344
4976,33088
4977,32896
4978,32768
4979,32768
4980,32896
4981,32896
4982,32960
4983,33088
4984,33152
4985,33280
4986,33344
4987,33344
4988,33280
4989,33024
4990,32704
4991,32640
4992,33280
4993,34560
4994,36352
4995,38528
4996,40704
4997,42624
4998,43584
4999,42816
5000,40064
5001,36608
5002,33472
5003,31360
5004,30144
5005,29760
5006,29888
5007,30208
5008,30720
5009,31296
5010,31872
5011,32320
5012,32704
5013,33088
5014,33280
5015,33408
5016,33536
5017,33600
5018,33664
5019,33664
5020,33600
5021,33600
5022,33600
5023,33536
5024,33472
5025,33472
5026,33472
5027,33472
5028,33472
5029,33536
5030,33600
5031,33600
5032,33664
5033,33728
5034,33728
5035,33728
5036,33728
5037,33728
5038,33856
5039,33920
5040,33984
5041,34048
5042,34112
5043,34176
5044,34240
5045,34240
5046,34304
5047,34368
5048,34368
5049,34368
5050,34368
5051,34432
5052,34432
5053,34368
5054,34368
5055,34368
5056,34304
5057,34240
5058,34176
5059,34176
5060,34112
5061,34048
5062,33984
5063,33920
5064,33856
5065,33664
5066,33600
5067,33600
5068,33536
5069,33472
5070,33408
5071,33344
5072,33280
5073,33280
5074,33280
5075,33280
5076,33344
5077,33472
5078,33472
5079,33472
5080,33536
5081,33600
5082,33600
5083,33600
5084,33664
5085,33728
5086,33664
5087,33664
5088,33728
5089,33792
5090,33728
5091,33728
5092,33728
5093,33664
5094,33664
5095,33664
5096,33728
5097,33728
5098,33664
5099,33600
5100,33600
5101,33600
5102,33600
5103,33600
5104,33536
5105,33536
5106,33536
5107,33536
5108,33536
5109,33536
5110,33536
5111,33536
5112,33536
5113,33536
5114,33600
5115,33536
5116,33472
5117,33408
5118,33472
5119,33472
5120,33472
5121,33472
5122,33472
5123,33472
5124,33408
5125,33408
5126,33472
5127,33472
5128,33472
5129,33472
5130,33472
5131,33472
5132,33536
5133,33536
5134,33600
5135,33600
5136,33664
5137,33856
5138,33984
5139,34112
5140,34176
5141,34176
5142,34240
5143,34368
5144,34496
5145,34560
5146,34624
5147,34752
5148,34816
5149,34688
5150,34496
5151,34304
5152,34048
5153,33728
5154,33408
5155,33152
5156,32960
5157,32768
5158,32704
5159,32704
5160,32832
5161,32832
5162,32896
5163,33024
5164,33152
5165,33280
5166,33344
5167,33408
5168,33344
5169,33088
5170,32768
5171,32768
5172,33536
5173,34880
5174,36800
5175,40448
5176,41408
5177,43136
5178,43648
5179,42304
5180,39168
5181,35712
5182,32640
5183,30848
5184,29888
5185,29632
5186,29824
5187,30272
5188,30848
5189,31552
5190,32384
5191,32576
5192,32960
5193,33280
5194,33472
5195,33536
5196,33600
5197,33664
5198,33664
5199,33664
5200,33664
5201,33664
5202,33664
5203,33664
5204,33600
5205,33600
5206,33664
5207,33600
5208,33600
5209,33600
5210,33728
5211,33728
5212,33664
5213,33664
5214,33792
5215,33792
5216,33792
5217,33792
5218,33920
5219,33984
5220,34048
5221,34048
5222,34176
5223,34240
5224,34176
5225,34176
5226,34240
5227,34368
5228,34368
5229,34432
5230,34432
5231,34496
5232,34496
5233,34432
5234,34496
5235,34432
5236,34368
5237,34368
5238,34304
5239,34240
5240,34176
5241,34048
5242,33920
5243,33856
5244,33856
5245,33792
5246,33792
5247,33792
5248,33728
5249,33536
5250,33472
5251,33472
5252,33408
5253,33344
5254,33344
5255,33344
5256,33408
5257,33408
5258,33472
5259,33600
5260,33728
5261,33728
5262,33728
5263,33792
5264,33856
5265,33856
5266,33856
5267,33792
5268,33856
5269,33856
5270,33856
5271,33792
5272,33792
5273,33792
5274,33792
5275,33856
5276,33792
5277,33664
5278,33600
5279,33536
5280,33600
5281,33664
5282,33664
5283,33728
5284,33728
5285,33728
5286,33728
5287,33728
5288,33728
5289,33728
5290,33664
5291,33536
5292,33472
5293,33536
5294,33600
5295,33536
5296,33472
5297,33536
5298,33600
5299,33600
5300,33600
5301,33664
5302,33664
5303,33536
5304,33472
5305,33536
5306,33600
5307,33600
5308,33536
5309,33600
5310,33664
5311,33664
5312,33664
5313,33600
5314,33600
5315,33536
5316,33536
5317,33664
5318,33728
5319,33856
5320,34048
5321,34176
5322,34304
5323,34368
5324,34368
5325,34432
5326,34624
5327,34752
5328,34752
5329,34752
5330,34816
5331,34816
5332,34688
5333,34496
5334,34240
5335,33984
5336,33728
5337,33408
5338,33152
5339,32960
5340,32832
5341,32768
5342,32704
5343,32768
5344,32832
5345,33088
5346,33216
5347,33280
5348,33280
5349,33344
5350,33216
5351,33088
5352,32832
5353,32640
5354,32960
5355,33920
5356,35648
5357,37824
5358,40128
5359,42240
5360,43584
5361,43456
5362,41152
5363,37312
5364,34368
5365,31936
5366,30464
5367,29824
5368,29824
5369,30144
5370,30656
5371,31232
5372,31744
5373,32256
5374,32576
5375,32896
5376,33216
5377,33472
5378,33536
5379,33600
5380,33728
5381,33792
5382,33792
5383,33664
5384,33536
5385,33536
5386,33536
5387,33472
5388,33472
5389,33472
5390,33472
5391,33472
5392,33600
5393,33728
5394,33792
5395,33728
5396,33792
5397,33856
5398,33856
5399,33792
5400,33792
5401,33856
5402,33920
5403,33984
5404,33984
5405,34048
5406,34176
5407,34304
5408,34304
5409,34432
5410,34496
5411,34560
5412,34560
5413,34560
5414,34624
5415,34560
5416,34432
5417,34432
5418,34496
5419,34496
5420,34368
5421,34240
5422,34240
5423,34304
5424,34176
5425,34048
5426,33920
5427,33856
5428,33792
5429,33728
5430,33664
5431,33664
5432,33536
5433,33408
5434,33344
5435,33344
5436,33344
5437,33280
5438,33344
5439,33408
5440,33344
5441,33280
5442,33344
5443,33472
5444,33536
5445,33536
5446,33536
5447,33600
5448,33728
5449,33664
5450,33664
5451,33664
5452,33664
5453,33664
5454,33664
5455,33728
5456,33728
5457,33728
5458,33664
5459,33664
5460,33664
5461,33664
5462,33600
5463,33600
5464,33536
5465,33472
5466,33472
5467,33536
5468,33600
5469,33600
5470,33536
5471,33536
5472,33536
5473,33472
5474,33472
5475,33472
5476,33472
5477,33536
5478,33472
5479,33472
5480,33536
5481,33536
5482,33536
5483,33472
5484,33408
5485,33408
5486,33472
5487,33472
5488,33600
5489,33600
5490,33728
5491,33920
5492,34112
5493,34176
5494,34240
5495,34176
5496,34240
5497,34304
5498,34240
5499,34432
5500,34560
5501,34688
5502,34688
5503,34624
5504,34496
5505,34304
5506,33984
5507,33600
5508,33280
5509,33024
5510,32832
5511,32704
5512,32640
5513,32704
5514,32832
5515,32896
5516,33024
5517,33152
5518,33216
5519,33344
5520,33408
5521,33344
5522,33280
5523,33024
5524,32704
5525,32640
5526,33280
5527,34688
5528,35008
5529,38848
5530,41152
5531,42944
5532,43648
5533,42432
5534,39360
5535,35840
5536,32832
5537,30912
5538,29952
5539,29632
5540,29824
5541,30208
5542,30848
5543,31424
5544,31936
5545,32384
5546,32768
5547,33088
5548,33216
5549,33344
5550,33472
5551,33472
5552,33600
5553,33600
5554,33600
5555,33600
5556,33600
5557,33472
5558,33408
5559,33472
5560,33408
5561,33344
5562,33344
5563,33408
5564,33472
5565,33472
5566,33472
5567,33536
5568,33600
5569,33664
5570,33664
5571,33728
5572,33792
5573,33792
5574,33856
5575,33984
5576,34112
5577,34176
5578,34176
5579,34240
5580,34304
5581,34304
5582,34304
5583,34368
5584,34368
5585,34368
5586,34368
5587,34304
5588,34304
5589,34304
5590,34176
5591,34176
5592,34176
5593,34176
5594,34112
5595,34048
5596,33984
5597,33984
5598,33920
5599,33792
5600,33728
5601,33664
5602,33472
5603,33280
5604,33216
5605,33152
5606,33152
5607,33088
5608,33152
5609,33216
5610,33280
5611,33280
5612,33408
5613,33408
5614,33472
5615,33408
5616,33472
5617,33536
5618,33536
5619,33536
5620,33536
5621,33600
5622,33664
5623,33600
5624,33536
5625,33600
5626,33664
5627,33600
5628,33472
5629,33408
5630,33408
5631,33408
5632,33344
5633,33344
5634,33408
5635,33408
5636,33408
5637,33408
5638,33472
5639,33472
5640,33472
5641,33472
5642,33472
5643,33408
5644,33344
5645,33280
5646,33344
5647,33344
5648,33280
5649,33216
5650,33216
5651,33216
5652,33280
5653,33344
5654,33408
5655,33472
5656,33472
5657,33408
5658,33536
5659,33600
5660,33728
5661,33856
5662,34048
5663,34112
5664,34112
5665,34048
5666,34048
5667,34176
5668,34240
5669,34240
5670,34304
5671,34432
5672,34496
5673,34432
5674,34240
5675,33984
5676,33792
5677,33472
5678,33152
5679,32832
5680,32640
5681,32576
5682,32576
5683,32640
5684,32768
5685,32960
5686,33088
5687,33216
5688,33216
5689,33280
5690,33344
5691,33344
5692,33216
5693,32960
5694,32768
5695,32960
5696,33984
5697,35776
5698,37824
5699,40064
5700,42112
5701,43520
5702,43392
5703,41152
5704,37824
5705,34560
5706,31936
5707,30272
5708,29568
5709,29632
5710,30016
5711,30528
5712,31104
5713,31616
5714,32192
5715,32576
5716,32960
5717,33280
5718,33472
5719,33536
5720,33600
5721,33728
5722,33792
5723,33728
5724,33664
5725,33664
5726,33664
5727,33536
5728,33472
5729,33472
5730,33472
5731,33472
5732,33472
5733,33472
5734,33472
5735,33536
5736,33536
5737,33536
5738,33600
5739,33664
5740,33600
5741,33600
5742,33728
5743,33856
5744,33984
5745,34048
5746,34176
5747,34240
5748,34240
5749,34304
5750,34304
5751,34368
5752,34304
5753,34240
5754,34304
5755,34368
5756,34432
5757,34432
5758,34432
5759,34432
5760,34368
5761,34304
5762,34176
5763,34176
5764,34112
5765,33984
5766,33920
5767,33856
5768,33792
5769,33728
5770,33536
5771,33472
5772,33472
5773,33344
5774,33280
5775,33280
5776,33344
5777,33408
5778,33408
5779,33472
5780,33536
5781,33536
5782,33536
5783,33536
5784,33664
5785,33664
5786,33664
5787,33664
5788,33728
5789,33728
5790,33728
5791,33664
5792,33664
5793,33728
5794,33728
5795,33728
5796,33728
5797,33856
5798,33856
5799,33792
5800,33792
5801,33792
5802,33792
5803,33728
5804,33664
5805,33728
5806,33728
5807,33728
5808,33728
5809,33792
5810,33856
5811,33856
5812,34048
5813,34112
5814,34240
5815,34240
5816,34176
5817,34304
5818,34432
5819,34496
5820,34560
5821,34624
5822,34752
5823,34816
5824,34688
5825,34432
5826,34176
5827,33856
5828,33536
5829,33216
5830,32896
5831,32704
5832,32576
5833,32640
5834,32768
5835,32896
5836,32960
5837,32960
5838,33088
5839,33216
5840,33344
5841,33408
5842,33408
5843,33280
5844,32960
5845,32704
5846,32768
5847,33600
5848,35072
5849,37056
5850,39488
5851,41600
5852,43136
5853,43520
5854,41984
5855,38848
5856,35392
5857,32448
5858,30656
5859,29760
5860,29632
5861,29888
5862,30400
5863,30976
5864,31616
5865,32064
5866,32448
5867,32896
5868,33216
5869,33344
5870,33344
5871,33472
5872,33664
5873,33728
5874,33728
5875,33728
5876,33728
5877,33664
5878,33600
5879,33536
5880,33600
5881,33600
5882,33600
5883,33536
5884,33600
5885,33600
5886,33664
5887,33664
5888,33728
5889,33728
5890,33728
5891,33792
5892,33856
5893,33920
5894,33984
5895,33984
5896,34048
5897,34112
5898,34112
5899,34112
5900,34176
5901,34240
5902,34304
5903,34304
5904,34304
5905,34368
5906,34368
5907,34304
5908,34304
5909,34304
5910,34304
5911,34240
5912,34240
5913,34176
5914,34176
5915,34112
5916,34048
5917,33920
5918,33856
5919,33728
5920,33600
5921,33600
5922,33536
5923,33536
5924,33408
5925,33344
5926,33280
5927,33280
5928,33280
5929,33344
5930,33408
5931,33472
5932,33472
5933,33472
5934,33536
5935,33600
5936,33664
5937,33664
5938,33664
5939,33728
5940,33728
5941,33728
5942,33792
5943,33792
5944,33792
5945,33728
5946,33792
5947,33856
5948,33856
5949,33728
5950,33664
5951,33664
5952,33664
5953,33664
5954,33600
5955,33664
5956,33664
5957,33600
5958,33600
5959,33728
5960,33856
5961,33920
5962,34048
5963,34176
5964,34304
5965,34304
5966,34304
5967,34368
5968,34368
5969,34432
5970,34496
5971,34624
5972,34816
5973,34816
5974,34624
5975,34368
5976,34112
5977,33856
5978,33664
5979,33344
5980,33088
5981,32768
5982,32640
5983,32576
5984,32704
5985,32832
5986,32960
5987,33088
5988,33152
5989,33216
5990,33280
5991,33344
5992,33408
5993,33280
5994,32960
5995,32640
5996,32576
5997,33344
5998,34688
5999,36672
6000,39168
6001,41344
6002,43072
6003,43776
6004,42560
6005,39488
6006,35904
6007,32768
6008,30848
6009,29824
6010,29632
6011,29824
6012,30272
6013,30848
6014,31424
6015,32000
6016,32320
6017,32704
6018,33024
6019,33216
6020,33408
6021,33472
6022,33600
6023,33664
6024,33600
6025,33536
6026,33600
6027,33600
6028,33536
6029,33472
6030,33536
6031,33536
6032,33472
6033,33344
6034,33344
6035,33408
6036,33408
6037,33408
6038,33536
6039,33664
6040,33728
6041,33728
6042,33728
6043,33856
6044,33920
6045,33920
6046,33984
6047,34112
6048,34176
6049,34240
6050,34304
6051,34368
6052,34432
6053,34432
6054,34432
6055,34496
6056,34496
6057,34496
6058,34368
6059,34304
6060,34304
6061,34304
6062,34368
6063,34432
6064,34496
6065,34304
6066,34048
6067,33920
6068,33856
6069,33792
6070,33664
6071,33600
6072,33536
6073,33472
6074,33408
6075,33344
6076,33344
6077,33344
6078,33280
6079,33344
6080,33408
6081,33472
6082,33536
6083,33536
6084,33600
6085,33600
6086,33600
6087,33664
6088,33728
6089,33728
6090,33664
6091,33664
6092,33728
6093,33792
6094,33792
6095,33728
6096,33728
6097,33728
6098,33664
6099,33536
6100,33536
6101,33600
6102,33728
6103,33728
6104,33600
6105,33664
6106,33664
6107,33600
6108,33664
6109,33792
6110,33920
6111,34048
6112,34112
6113,34176
6114,34240
6115,34240
6116,34304
6117,34304
6118,34368
6119,34432
6120,34496
6121,34624
6122,34752
6123,34688
6124,34496
6125,34176
6126,33856
6127,33600
6128,33280
6129,32960
6130,32768
6131,32640
6132,32576
6133,32640
6134,32768
6135,32896
6136,32960
6137,33088
6138,33216
6139,33280
6140,33216
6141,33152
6142,33024
6143,32768
6144,32512
6145,32448
6146,33088
6147,34560
6148,36672
6149,39040
6150,41536
6151,43200
6152,43776
6153,42368
6154,39104
6155,35520
6156,32576
6157,30528
6158,29632
6159,29440
6160,29696
6161,30144
6162,30720
6163,31296
6164,31936
6165,32448
6166,32768
6167,32960
6168,33152
6169,33344
6170,33408
6171,33472
6172,33536
6173,33600
6174,33536
6175,33472
6176,33408
6177,33408
6178,33408
6179,33408
6180,33408
6181,33472
6182,33408
6183,33408
6184,33536
6185,33600
6186,33600
6187,33664
6188,33728
6189,33728
6190,33664
6191,33728
6192,33792
6193,33856
6194,33920
6195,33984
6196,33984
6197,34048
6198,34176
6199,34176
6200,34176
6201,34176
6202,34240
6203,34176
6204,34176
6205,34240
6206,34304
6207,34304
6208,34304
6209,34304
6210,34304
6211,34176
6212,34048
6213,33984
6214,33920
6215,33920
6216,33856
6217,33856
6218,33856
6219,33664
6220,33472
6221,33408
6222,33408
6223,33344
6224,33280
6225,33216
6226,33280
6227,33280
6228,33408
6229,33472
6230,33536
6231,33536
6232,33536
6233,33536
6234,33600
6235,33664
6236,33600
6237,33600
6238,33664
6239,33728
6240,33792
6241,33728
6242,33728
6243,33792
6244,33856
6245,33792
6246,33728
6247,33728
6248,33664
6249,33664
6250,33600
6251,33600
6252,33664
6253,33600
6254,33600
6255,33600
6256,33664
6257,33664
6258,33664
6259,33664
6260,33600
6261,33600
6262,33472
6263,33472
6264,33600
6265,33728
6266,33856
6267,33984
6268,34112
6269,34176
6270,34176
6271,34240
6272,34304
6273,34368
6274,34368
6275,34368
6276,34496
6277,34624
6278,34624
6279,34432
6280,34176
6281,33856
6282,33472
6283,33088
6284,32768
6285,32576
6286,32512
6287,32512
6288,32576
6289,32704
6290,32832
6291,32896
6292,33024
6293,33152
6294,33280
6295,33280
6296,33280
6297,33152
6298,32896
6299,32640
6300,32768
6301,33472
6302,34816
6303,36864
6304,39104
6305,41344
6306,43008
6307,43392
6308,41856
6309,38656
6310,35264
6311,32448
6312,30592
6313,29760
6314,29568
6315,29824
6316,30336
6317,30976
6318,31616
6319,32128
6320,32576
6321,32896
6322,33216
6323,33408
6324,33536
6325,33600
6326,33600
6327,33600
6328,33536
6329,33536
6330,33472
6331,33408
6332,33344
6333,33280
6334,33280
6335,33344
6336,33344
6337,33344
6338,33408
6339,33472
6340,33472
6341,33408
6342,33472
6343,33536
6344,33600
6345,33600
6346,33664
6347,33728
6348,33792
6349,33856
6350,33856
6351,33856
6352,33920
6353,33984
6354,33984
6355,34048
6356,34112
6357,34112
6358,34112
6359,34176
6360,34240
6361,34240
6362,34112
6363,34048
6364,34048
6365,34048
6366,33984
6367,33920
6368,33984
6369,33984
6370,33856
6371,33792
6372,33792
6373,33792
6374,33664
6375,33536
6376,33472
6377,33408
6378,33280
6379,33280
6380,33280
6381,33280
6382,33344
6383,33344
6384,33344
6385,33408
6386,33472
6387,33408
6388,33472
6389,33536
6390,33536
6391,33536
6392,33472
6393,33536
6394,33600
6395,33600
6396,33600
6397,33600
6398,33664
6399,33664
6400,33664
6401,33664
6402,33664
6403,33600
6404,33600
6405,33600
6406,33600
6407,33664
6408,33664
6409,33728
6410,33856
6411,33984
6412,34112
6413,34112
6414,34176
6415,34176
6416,34176
6417,34240
6418,34304
6419,34368
6420,34496
6421,34560
6422,34624
6423,34688
6424,34560
6425,34304
6426,34048
6427,33792
6428,33472
6429,33024
6430,32768
6431,32640
6432,32576
6433,32512
6434,32640
6435,32768
6436,32960
6437,33024
6438,33152
6439,33280
6440,33344
6441,33280
6442,33216
6443,33088
6444,32832
6445,32448
6446,32384
6447,33024
6448,34496
6449,36608
6450,39424
6451,41216
6452,42880
6453,43456
6454,42112
6455,39168
6456,35904
6457,33088
6458,31040
6459,29952
6460,29632
6461,29824
6462,30336
6463,30912
6464,31552
6465,32064
6466,32512
6467,32832
6468,33152
6469,33408
6470,33472
6471,33536
6472,33600
6473,33600
6474,33536
6475,33472
6476,33472
6477,33536
6478,33536
6479,33536
6480,33536
6481,33536
6482,33600
6483,33536
6484,33600
6485,33600
6486,33600
6487,33664
6488,33664
6489,33728
6490,33792
6491,33792
6492,33792
6493,33792
6494,33856
6495,33920
6496,33920
6497,33984
6498,34048
6499,34048
6500,34048
6501,34176
6502,34176
6503,34176
6504,34112
6505,34112
6506,34176
6507,34176
6508,34112
6509,34048
6510,34112
6511,34176
6512,34112
6513,34048
6514,34048
6515,33984
6516,33984
6517,33920
6518,33856
6519,33856
6520,33728
6521,33600
6522,33536
6523,33536
6524,33472
6525,33472
6526,33408
6527,33472
6528,33536
6529,33600
6530,33600
6531,33664
6532,33664
6533,33600
6534,33664
6535,33728
6536,33728
6537,33728
6538,33728
6539,33728
6540,33792
6541,33792
6542,33728
6543,33792
6544,33856
6545,33856
6546,33792
6547,33792
6548,33856
6549,33856
6550,33984
6551,34048
6552,34112
6553,34176
6554,34240
6555,34304
6556,34368
6557,34432
6558,34368
6559,34368
6560,34432
6561,34560
6562,34624
6563,34688
6564,34816
6565,34880
6566,34816
6567,34688
6568,34432
6569,34240
6570,33920
6571,33664
6572,33408
6573,33152
6574,32960
6575,32896
6576,32960
6577,33088
6578,33152
6579,33216
6580,33344
6581,33472
6582,33472
6583,33472
6584,33408
6585,33408
6586,33216
6587,32832
6588,32512
6589,32640
6590,33408
6591,35008
6592,37248
6593,39680
6594,41984
6595,43456
6596,43648
6597,41792
6598,38528
6599,35200
6600,31808
6601,30656
6602,29760
6603,29568
6604,29824
6605,30400
6606,31040
6607,31616
6608,32128
6609,32576
6610,33024
6611,33216
6612,33344
6613,33408
6614,33472
6615,33536
6616,33600
6617,33600
6618,33664
6619,33728
6620,33664
6621,33536
6622,33472
6623,33472
6624,33408
6625,33472
6626,33472
6627,33536
6628,33600
6629,33600
6630,33600
6631,33600
6632,33728
6633,33728
6634,33792
6635,33920
6636,33920
6637,33856
6638,33856
6639,33920
6640,34048
6641,34048
6642,34112
6643,34240
6644,34304
6645,34240
6646,34176
6647,34176
6648,34240
6649,34240
6650,34240
6651,34176
6652,34176
6653,34176
6654,34112
6655,34112
6656,34048
6657,34048
6658,33984
6659,33920
6660,33920
6661,33856
6662,33728
6663,33664
6664,33664
6665,33600
6666,33472
6667,33408
6668,33408
6669,33408
6670,33344
6671,33408
6672,33408
6673,33536
6674,33600
6675,33600
6676,33600
6677,33728
6678,33728
6679,33728
6680,33792
6681,33856
6682,33856
6683,33728
6684,33728
6685,33792
6686,33856
6687,33792
6688,33792
6689,33792
6690,33856
6691,33856
6692,33856
6693,33792
6694,33792
6695,33792
6696,33728
6697,33728
6698,33728
6699,33792
6700,33856
6701,33984
6702,34112
6703,34176
6704,34240
6705,34304
6706,34304
6707,34368
6708,34368
6709,34368
6710,34432
6711,34496
6712,34560
6713,34688
6714,34816
6715,34816
6716,34624
6717,34304
6718,34048
6719,33728
6720,33408
6721,32960
6722,32768
6723,32640
6724,32512
6725,32448
6726,32576
6727,32768
6728,32896
6729,33024
6730,33088
6731,33152
6732,33280
6733,33280
6734,33216
6735,33024
6736,32768
6737,32640
6738,33152
6739,34432
6740,36480
6741,39040
6742,41216
6743,43136
6744,43904
6745,42880
6746,39744
6747,36160
6748,33088
6749,30976
6750,29632
6751,29440
6752,29632
6753,30144
6754,30720
6755,31360
6756,31936
6757,32384
6758,32768
6759,32960
6760,33216
6761,33408
6762,33408
6763,33408
6764,33472
6765,33536
6766,33536
6767,33536
6768,33536
6769,33600
6770,33536
6771,33536
6772,33536
6773,33472
6774,33472
6775,33472
6776,33472
6777,33536
6778,33536
6779,33536
6780,33600
6781,33664
6782,33728
6783,33792
6784,33792
6785,33856
6786,33920
6787,34048
6788,34048
6789,34048
6790,34112
6791,34176
6792,34176
6793,34240
6794,34240
6795,34304
6796,34304
6797,34304
6798,34304
6799,34304
6800,34240
6801,34240
6802,34240
6803,34176
6804,34112
6805,34048
6806,34048
6807,34112
6808,34048
6809,33920
6810,33856
6811,33728
6812,33664
6813,33536
6814,33536
6815,33472
6816,33408
6817,33344
6818,33344
6819,33344
6820,33344
6821,33344
6822,33408
6823,33472
6824,33472
6825,33472
6826,33472
6827,33536
6828,33600
6829,33600
6830,33664
6831,33728
6832,33792
6833,33792
6834,33728
6835,33792
6836,33792
6837,33792
6838,33728
6839,33728
6840,33728
6841,33728
6842,33728
6843,33728
6844,33792
6845,33792
6846,33792
6847,33728
6848,33664
6849,33600
6850,33600
6851,33536
6852,33600
6853,33664
6854,33664
6855,33664
6856,33664
6857,33728
6858,33792
6859,33984
6860,34176
6861,34240
6862,34240
6863,34176
6864,34240
6865,34368
6866,34432
6867,34496
6868,34560
6869,34688
6870,34688
6871,34624
6872,34432
6873,34240
6874,33984
6875,33664
6876,33408
6877,33024
6878,32832
6879,32576
6880,32512
6881,32448
6882,32512
6883,32640
6884,32768
6885,32960
6886,33088
6887,33152
6888,33152
6889,33216
6890,33152
6891,32960
6892,32576
6893,32448
6894,32896
6895,34048
6896,35840
6897,38080
6898,40448
6899,42496
6900,43648
6901,42944
6902,40512
6903,36928
6904,33664
6905,31360
6906,30080
6907,29696
6908,29760
6909,30144
6910,30656
6911,31296
6912,31808
6913,32192
6914,32640
6915,33088
6916,33216
6917,33344
6918,33408
6919,33536
6920,33600
6921,33536
6922,33536
6923,33536
6924,33536
6925,33408
6926,33408
6927,33472
6928,33536
6929,33536
6930,33472
6931,33536
6932,33536
6933,33600
6934,33600
6935,33664
6936,33664
6937,33728
6938,33728
6939,33728
6940,33856
6941,33920
6942,33920
6943,33984
6944,33984
6945,33984
6946,33984
6947,34176
6948,34304
6949,34432
6950,34368
6951,34240
6952,34304
6953,34304
6954,34240
6955,34240
6956,34240
6957,34176
6958,34112
6959,34112
6960,34176
6961,34176
6962,34112
6963,34048
6964,33984
6965,33920
6966,33792
6967,33600
6968,33472
6969,33408
6970,33344
6971,33280
6972,33280
6973,33280
6974,33216
6975,33216
6976,33280
6977,33344
6978,33408
6979,33408
6980,33408
6981,33472
6982,33536
6983,33536
6984,33536
6985,33600
6986,33600
6987,33600
6988,33600
6989,33600
6990,33728
6991,33664
6992,33664
6993,33600
6994,33664
6995,33664
6996,33600
6997,33600
6998,33664
6999,33728
7000,33664
7001,33664
7002,33664
7003,33664
7004,33664
7005,33664
7006,33664
7007,33664
7008,33600
7009,33536
7010,33536
7011,33536
7012,33536
7013,33536
7014,33536
7015,33536
7016,33536
7017,33600
7018,33600
7019,33600
7020,33536
7021,33536
7022,33536
7023,33600
7024,33600
7025,33536
7026,33536
7027,33536
7028,33472
7029,33408
7030,33344
7031,33408
7032,33472
7033,33472
7034,33536
7035,33728
7036,33920
7037,33984
7038,34048
7039,34048
7040,34112
7041,34176
7042,34304
7043,34432
7044,34496
7045,34560
7046,34624
7047,34624
7048,34560
7049,34432
7050,34048
7051,33856
7052,33600
7053,33344
7054,32960
7055,32704
7056,32640
7057,32704
7058,32768
7059,32768
7060,32768
7061,32960
7062,33088
7063,33152
7064,33216
7065,33344
7066,33216
7067,32960
7068,32704
7069,32640
7070,33088
7071,34176
7072,35968
7073,38272
7074,40512
7075,42496
7076,43520
7077,43008
7078,40448
7079,36992
7080,32896
7081,31488
7082,30144
7083,29568
7084,29568
7085,29888
7086,30464
7087,31040
7088,31616
7089,32128
7090,32704
7091,33024
7092,33216
7093,33408
7094,33600
7095,33600
7096,33536
7097,33472
7098,33408
7099,33408
7100,33408
7101,33408
7102,33472
7103,33472
7104,33408
7105,33344
7106,33408
7107,33408
7108,33408
7109,33408
7110,33472
7111,33472
7112,33536
7113,33536
7114,33600
7115,33664
7116,33728
7117,33728
7118,33792
7119,33920
7120,34048
7121,34112
7122,34048
7123,34048
7124,34048
7125,34176
7126,34176
7127,34304
7128,34304
7129,34304
7130,34240
7131,34240
7132,34304
7133,34240
7134,34176
7135,34112
7136,34176
7137,34176
7138,34048
7139,33984
7140,33920
7141,33856
7142,33728
7143,33600
7144,33600
7145,33536
7146,33408
7147,33344
7148,33344
7149,33344
7150,33280
7151,33344
7152,33344
7153,33408
7154,33408
7155,33472
7156,33472
7157,33536
7158,33472
7159,33472
7160,33472
7161,33600
7162,33600
7163,33536
7164,33600
7165,33664
7166,33664
7167,33600
7168,33664
7169,33728
7170,33728
7171,33728
7172,33664
7173,33664
7174,33728
7175,33728
7176,33664
7177,33728
7178,33792
7179,33728
7180,33664
7181,33600
7182,33664
7183,33664
7184,33600
7185,33600
7186,33600
7187,33728
7188,33792
7189,33920
7190,34048
7191,34176
7192,34176
7193,34176
7194,34368
7195,34496
7196,34496
7197,34432
7198,34560
7199,34688
7200,34752
7201,34752
7202,34560
7203,34304
7204,34048
7205,33728
7206,33408
7207,33152
7208,32832
7209,32704
7210,32640
7211,32640
7212,32704
7213,32768
7214,32832
7215,33024
7216,33152
7217,33216
7218,33280
7219,33344
7220,33344
7221,33152
7222,32832
7223,32640
7224,32832
7225,33792
7226,35456
7227,37696
7228,40064
7229,42112
7230,43392
7231,43328
7232,41152
7233,37760
7234,34432
7235,31936
7236,30464
7237,29760
7238,29760
7239,30016
7240,30528
7241,31104
7242,31680
7243,32192
7244,32704
7245,33152
7246,33280
7247,33344
7248,33472
7249,33536
7250,33536
7251,33536
7252,33536
7253,33536
7254,33536
7255,33536
7256,33536
7257,33536
7258,33536
7259,33472
7260,33536
7261,33600
7262,33664
7263,33664
7264,33664
7265,33728
7266,33792
7267,33792
7268,33728
7269,33728
7270,33728
7271,33728
7272,33792
7273,33920
7274,33984
7275,33984
7276,33984
7277,34112
7278,34176
7279,34304
7280,34304
7281,34368
7282,34368
7283,34304
7284,34240
7285,34176
7286,34176
7287,34112
7288,34048
7289,34048
7290,34048
7291,34048
7292,33856
7293,33792
7294,33792
7295,33728
7296,33664
7297,33664
7298,33600
7299,33472
7300,33344
7301,33280
7302,33216
7303,33216
7304,33152
7305,33152
7306,33216
7307,33280
7308,33280
7309,33344
7310,33472
7311,33536
7312,33472
7313,33472
7314,33600
7315,33664
7316,33728
7317,33664
7318,33600
7319,33664
7320,33728
7321,33728
7322,33728
7323,33728
7324,33664
7325,33600
7326,33600
7327,33536
7328,33536
7329,33536
7330,33536
7331,33536
7332,33472
7333,33472
7334,33472
7335,33472
7336,33536
7337,33600
7338,33536
7339,33536
7340,33536
7341,33472
7342,33408
7343,33408
7344,33408
7345,33408
7346,33408
7347,33472
7348,33600
7349,33728
7350,33792
7351,33984
7352,34112
7353,34112
7354,34112
7355,34240
7356,34368
7357,34432
7358,34496
7359,34496
7360,34624
7361,34752
7362,34752
7363,34624
7364,34304
7365,33984
7366,33664
7367,33344
7368,33088
7369,32960
7370,32832
7371,32768
7372,32768
7373,32832
7374,32832
7375,32832
7376,32960
7377,33152
7378,33280
7379,33344
7380,33344
7381,33408
7382,33216
7383,32960
7384,32768
7385,33152
7386,34240
7387,35904
7388,38080
7389,40256
7390,42240
7391,43456
7392,43392
7393,40576
7394,37120
7395,33728
7396,33216
7397,30208
7398,29696
7399,29696
7400,30080
7401,30720
7402,31360
7403,31936
7404,32384
7405,32768
7406,33088
7407,33280
7408,33408
7409,33472
7410,33536
7411,33600
7412,33600
7413,33536
7414,33536
7415,33536
7416,33536
7417,33536
7418,33536
7419,33536
7420,33536
7421,33536
7422,33536
7423,33600
7424,33600
7425,33600
7426,33600
7427,33664
7428,33728
7429,33728
7430,33792
7431,33920
7432,33984
7433,34048
7434,34112
7435,34176
7436,34240
7437,34304
7438,34368
7439,34432
7440,34496
7441,34496
7442,34560
7443,34560
7444,34560
7445,34496
7446,34432
7447,34496
7448,34496
7449,34432
7450,34304
7451,34112
7452,33984
7453,33920
7454,33856
7455,33856
7456,33920
7457,33920
7458,33792
7459,33728
7460,33664
7461,33536
7462,33408
7463,33280
7464,33280
7465,33280
7466,33280
7467,33344
7468,33408
7469,33472
7470,33472
7471,33472
7472,33472
7473,33472
7474,33472
7475,33536
7476,33664
7477,33728
7478,33728
7479,33664
7480,33664
7481,33792
7482,33792
7483,33792
7484,33728
7485,33728
7486,33728
7487,33728
7488,33728
7489,33792
7490,33728
7491,33664
7492,33664
7493,33664
7494,33792
7495,33856
7496,33856
7497,33792
7498,33728
7499,33792
7500,33792
7501,33664
7502,33600
7503,33536
7504,33600
7505,33664
7506,33664
7507,33600
7508,33536
7509,33472
7510,33600
7511,33664
7512,33664
7513,33728
7514,33920
7515,34112
7516,34176
7517,34176
7518,34304
7519,34432
7520,34496
7521,34560
7522,34688
7523,34752
7524,34880
7525,34880
7526,34688
7527,34368
7528,34048
7529,33728
7530,33408
7531,33152
7532,32896
7533,32704
7534,32640
7535,32704
7536,32832
7537,32896
7538,33024
7539,33216
7540,33408
7541,33472
7542,33408
7543,33408
7544,33344
7545,33152
7546,32896
7547,32768
7548,33024
7549,33920
7550,35456
7551,37504
7552,39808
7553,41920
7554,43328
7555,43392
7556,41344
7557,37952
7558,34624
7559,32128
7560,30656
7561,30016
7562,29952
7563,30272
7564,30720
7565,31168
7566,31616
7567,32000
7568,32320
7569,32704
7570,33024
7571,33280
7572,33472
7573,33600
7574,33664
7575,33600
7576,33536
7577,33536
7578,33600
7579,33536
7580,33536
7581,33536
7582,33536
7583,33472
7584,33408
7585,33472
7586,33536
7587,33472
7588,33536
7589,33600
7590,33664
7591,33728
7592,33728
7593,33792
7594,33856
7595,33792
7596,33792
7597,33792
7598,33856
7599,33984
7600,34048
7601,34112
7602,34240
7603,34240
7604,34240
7605,34240
7606,34240
7607,34240
7608,34176
7609,34176
7610,34240
7611,34240
7612,34176
7613,34112
7614,34112
7615,34048
7616,34048
7617,33984
7618,33984
7619,33984
7620,33920
7621,33792
7622,33600
7623,33536
7624,33408
7625,33344
7626,33344
7627,33344
7628,33344
7629,33216
7630,33088
7631,33088
7632,33152
7633,33216
7634,33280
7635,33344
7636,33408
7637,33408
7638,33408
7639,33536
7640,33600
7641,33664
7642,33664
7643,33664
7644,33728
7645,33728
7646,33664
7647,33664
7648,33728
7649,33728
7650,33728
7651,33856
7652,33920
7653,33920
7654,33792
7655,33664
7656,33664
7657,33664
7658,33664
7659,33664
7660,33664
7661,33664
7662,33600
7663,33600
7664,33600
7665,33664
7666,33664
7667,33664
7668,33664
7669,33728
7670,33728
7671,33664
7672,33664
7673,33664
7674,33600
7675,33600
7676,33600
7677,33600
7678,33600
7679,33536
7680,33536
7681,33664
7682,33856
7683,34048
7684,34176
7685,34304
7686,34304
7687,34304
7688,34368
7689,34432
7690,34496
7691,34560
7692,34624
7693,34688
7694,34752
7695,34752
7696,34560
7697,34240
7698,33984
7699,33664
7700,33344
7701,33088
7702,32832
7703,32704
7704,32640
7705,32704
7706,32768
7707,32896
7708,32960
7709,33088
7710,33280
7711,33344
7712,33408
7713,33344
7714,33216
7715,32960
7716,32640
7717,32704
7718,33472
7719,35072
7720,37184
7721,39424
7722,41600
7723,43264
7724,43584
7725,41856
7726,38592
7727,35136
7728,32384
7729,30592
7730,29760
7731,29632
7732,29952
7733,30400
7734,30912
7735,31552
7736,32128
7737,32512
7738,32832
7739,33152
7740,33408
7741,33536
7742,33536
7743,33600
7744,33600
7745,33600
7746,33600
7747,33600
7748,33664
7749,33664
7750,33664
7751,33600
7752,33664
7753,33600
7754,33536
7755,33472
7756,33472
7757,33536
7758,33600
7759,33664
7760,33728
7761,33856
7762,33856
7763,33920
7764,33984
7765,34112
7766,34112
7767,34112
7768,34176
7769,34240
7770,34304
7771,34368
7772,34432
7773,34560
7774,34560
7775,34560
7776,34560
7777,34560
7778,34624
7779,34624
7780,34560
7781,34496
7782,34496
7783,34432
7784,34368
7785,34368
7786,34432
7787,34368
7788,34176
7789,34048
7790,33984
7791,33920
7792,33728
7793,33664
7794,33536
7795,33472
7796,33344
7797,33280
7798,33280
7799,33216
7800,33216
7801,33216
7802,33344
7803,33408
7804,33472
7805,33472
7806,33600
7807,33664
7808,33600
7809,33600
7810,33728
7811,33728
7812,33728
7813,33664
7814,33728
7815,33728
7816,33728
7817,33664
7818,33664
7819,33728
7820,33664
7821,33600
7822,33600
7823,33600
7824,33664
7825,33664
7826,33664
7827,33664
7828,33664
7829,33600
7830,33536
7831,33536
7832,33472
7833,33408
7834,33344
7835,33344
7836,33408
7837,33472
7838,33408
7839,33408
7840,33472
7841,33472
7842,33408
7843,33408
7844,33408
7845,33408
7846,33408
7847,33408
7848,33472
7849,33408
7850,33408
7851,33472
7852,33600
7853,33792
7854,33920
7855,34048
7856,34112
7857,34176
7858,34176
7859,34176
7860,34240
7861,34368
7862,34496
7863,34560
7864,34624
7865,34688
7866,34560
7867,34304
7868,34048
7869,33728
7870,33408
7871,33088
7872,32768
7873,32640
7874,32640
7875,32640
7876,32640
7877,32768
7878,32832
7879,32960
7880,33024
7881,33152
7882,33216
7883,33152
7884,33088
7885,32896
7886,32704
7887,32576
7888,33024
7889,34176
7890,36032
7891,38208
7892,40448
7893,42432
7894,43520
7895,43008
7896,40384
7897,36864
7898,33664
7899,31360
7900,30016
7901,29504
7902,29632
7903,30080
7904,30592
7905,31104
7906,31680
7907,32256
7908,32640
7909,32896
7910,33152
7911,33344
7912,33472
7913,33536
7914,33536
7915,33600
7916,33600
7917,33536
7918,33536
7919,33472
7920,33472
7921,33408
7922,33344
7923,33408
7924,33472
7925,33408
7926,33472
7927,33472
7928,33600
7929,33600
7930,33664
7931,33728
7932,33792
7933,33792
7934,33728
7935,33728
7936,33792
7937,33856
7938,33920
7939,33984
7940,34112
7941,34176
7942,34240
7943,34240
7944,34304
7945,34304
7946,34304
7947,34304
7948,34304
7949,34304
7950,34240
7951,34240
7952,34240
7953,34240
7954,34240
7955,34176
7956,34112
7957,34112
7958,33984
7959,33920
7960,33856
7961,33792
7962,33664
7963,33472
7964,33408
7965,33344
7966,33280
7967,33216
7968,33152
7969,33152
7970,33152
7971,33216
7972,33280
7973,33344
7974,33472
7975,33472
7976,33536
7977,33536
7978,33600
7979,33536
7980,33536
7981,33600
7982,33600
7983,33600
7984,33600
7985,33600
7986,33664
7987,33664
7988,33600
7989,33600
7990,33728
7991,33728
7992,33728
7993,33728
7994,33728
7995,33728
7996,33664
7997,33664
7998,33728
7999,33728
8000,33664
8001,33600
8002,33664
8003,33728
8004,33856
8005,33920
8006,34048
8007,34112
8008,34112
8009,34112
8010,34176
8011,34304
8012,34368
8013,34368
8014,34432
8015,34496
8016,34624
8017,34688
8018,34688
8019,34560
8020,34304
8021,34048
8022,33664
8023,33344
8024,33024
8025,32768
8026,32576
8027,32512
8028,32576
8029,32704
8030,32832
8031,33024
8032,33216
8033,33280
8034,33344
8035,33408
8036,33472
8037,33408
8038,33152
8039,32832
8040,32576
8041,32832
8042,33792
8043,35584
8044,37760
8045,40064
8046,42048
8047,43200
8048,43072
8049,40896
8050,37632
8051,34496
8052,31936
8053,30400
8054,29632
8055,29504
8056,29824
8057,30400
8058,31040
8059,31616
8060,32192
8061,32704
8062,33088
8063,33280
8064,33344
8065,33472
8066,33600
8067,33600
8068,33600
8069,33600
8070,33600
8071,33536
8072,33536
8073,33536
8074,33536
8075,33536
8076,33536
8077,33600
8078,33600
8079,33600
8080,33600
8081,33664
8082,33664
8083,33664
8084,33600
8085,33600
8086,33664
8087,33728
8088,33792
8089,33856
8090,33984
8091,34048
8092,34176
8093,34176
8094,34240
8095,34304
8096,34304
8097,34240
8098,34304
8099,34368
8100,34368
8101,34368
8102,34368
8103,34368
8104,34368
8105,34304
8106,34176
8107,34176
8108,34176
8109,34112
8110,34048
8111,34048
8112,33984
8113,33856
8114,33792
8115,33664
8116,33600
8117,33472
8118,33408
8119,33408
8120,33408
8121,33344
8122,33344
8123,33344
8124,33408
8125,33408
8126,33408
8127,33536
8128,33600
8129,33600
8130,33536
8131,33600
8132,33664
8133,33664
8134,33600
8135,33600
8136,33728
8137,33728
8138,33728
8139,33728
8140,33728
8141,33792
8142,33856
8143,33792
8144,33792
8145,33728
8146,33664
8147,33600
8148,33664
8149,33728
8150,33792
8151,33728
8152,33728
8153,33856
8154,33920
8155,33984
8156,34048
8157,34112
8158,34176
8159,34176
8160,34176
8161,34240
8162,34304
8163,34304
8164,34432
8165,34624
8166,34752
8167,34624
8168,34368
8169,34112
8170,33856
8171,33536
8172,33216
8173,32960
8174,32832
8175,32768
8176,32704
8177,32768
8178,32896
8179,32960
8180,33024
8181,33088
8182,33216
8183,33344
8184,33344
8185,33344
8186,33216
8187,32960
8188,32640
8189,32640
8190,33344
8191,34752
8192,36800
8193,39168
8194,41408
8195,43200
8196,43840
8197,42560
8198,39488
8199,36032
8200,33024
8201,30976
8202,29888
8203,29632
8204,29760
8205,30144
8206,30656
8207,31296
8208,31936
8209,32320
8210,32768
8211,33088
8212,33344
8213,33472
8214,33536
8215,33600
8216,33664
8217,33664
8218,33600
8219,33536
8220,33472
8221,33408
8222,33344
8223,33344
8224,33344
8225,33408
8226,33408
8227,33536
8228,33600
8229,33600
8230,33600
8231,33664
8232,33728
8233,33728
8234,33728
8235,33792
8236,33856
8237,33920
8238,33920
8239,33984
8240,34048
8241,34112
8242,34112
8243,34176
8244,34240
8245,34304
8246,34368
8247,34368
8248,34432
8249,34432
8250,34496
8251,34432
8252,34368
8253,34304
8254,34240
8255,34112
8256,34048
8257,34112
8258,34048
8259,33984
8260,33984
8261,33984
8262,33856
8263,33728
8264,33600
8265,33536
8266,33536
8267,33408
8268,33344
8269,33344
8270,33344
8271,33280
8272,33280
8273,33344
8274,33408
8275,33472
8276,33472
8277,33536
8278,33600
8279,33600
8280,33600
8281,33600
8282,33728
8283,33792
8284,33792
8285,33792
8286,33856
8287,33920
8288,33792
8289,33728
8290,33728
8291,33728
8292,33664
8293,33600
8294,33600
8295,33664
8296,33600
8297,33600
8298,33664
8299,33728
8300,33728
8301,33792
8302,33920
8303,34048
8304,34176
8305,34240
8306,34240
8307,34304
8308,34368
8309,34368
8310,34368
8311,34368
8312,34368
8313,34432
8314,34496
8315,34560
8316,34496
8317,34304
8318,33984
8319,33664
8320,33344
8321,33024
8322,32768
8323,32704
8324,32704
8325,32704
8326,32704
8327,32768
8328,32896
8329,33024
8330,33088
8331,33152
8332,33280
8333,33344
8334,33280
8335,33024
8336,32768
8337,32512
8338,32704
8339,33728
8340,35520
8341,37888
8342,40256
8343,42368
8344,43776
8345,43584
8346,41152
8347,37504
8348,34176
8349,31680
8350,30208
8351,29568
8352,29568
8353,29952
8354,30464
8355,31040
8356,31616
8357,32128
8358,32512
8359,32832
8360,33088
8361,33344
8362,33472
8363,33536
8364,33536
8365,33536
8366,33472
8367,33408
8368,33408
8369,33344
8370,33344
8371,33280
8372,33280
8373,33344
8374,33408
8375,33472
8376,33472
8377,33536
8378,33600
8379,33600
8380,33536
8381,33600
8382,33664
8383,33664
8384,33664
8385,33728
8386,33792
8387,33856
8388,33920
8389,33984
8390,34048
8391,34112
8392,34176
8393,34176
8394,34240
8395,34304
8396,34304
8397,34240
8398,34176
8399,34240
8400,34240
8401,34112
8402,34112
8403,34112
8404,34112
8405,34112
8406,34048
8407,33984
8408,33920
8409,33792
8410,33728
8411,33664
8412,33536
8413,33408
8414,33280
8415,33216
8416,33216
8417,33216
8418,33152
8419,33216
8420,33280
8421,33280
8422,33216
8423,33216
8424,33280
8425,33408
8426,33472
8427,33536
8428,33664
8429,33664
8430,33600
8431,33600
8432,33600
8433,33600
8434,33600
8435,33600
8436,33600
8437,33664
8438,33600
8439,33600
8440,33600
8441,33600
8442,33536
8443,33472
8444,33472
8445,33536
8446,33536
8447,33536
8448,33600
8449,33600
8450,33600
8451,33600
8452,33664
8453,33856
8454,33984
8455,34112
8456,34176
8457,34240
8458,34240
8459,34240
8460,34176
8461,34240
8462,34368
8463,34432
8464,34496
8465,34560
8466,34496
8467,34304
8468,33984
8469,33728
8470,33472
8471,33088
8472,32768
8473,32576
8474,32512
8475,32512
8476,32576
8477,32704
8478,32832
8479,32960
8480,33024
8481,33088
8482,33280
8483,33408
8484,33280
8485,33088
8486,32896
8487,32640
8488,32640
8489,33280
8490,34880
8491,36864
8492,39232
8493,41408
8494,43072
8495,43648
8496,42304
8497,39232
8498,35712
8499,32768
8500,30784
8501,29760
8502,29440
8503,29632
8504,30144
8505,30720
8506,31360
8507,32000
8508,32448
8509,32768
8510,33152
8511,33408
8512,33600
8513,33600
8514,33536
8515,33472
8516,33472
8517,33408
8518,33408
8519,33344
8520,33408
8521,33408
8522,33344
8523,33344
8524,33472
8525,33536
8526,33536
8527,33536
8528,33600
8529,33664
8530,33728
8531,33664
8532,33728
8533,33792
8534,33792
8535,33792
8536,33792
8537,33856
8538,33856
8539,33920
8540,34048
8541,34176
8542,34304
8543,34304
8544,34368
8545,34432
8546,34432
8547,34368
8548,34368
8549,34368
8550,34304
8551,34176
8552,34112
8553,34112
8554,34112
8555,34048
8556,33920
8557,33856
8558,33856
8559,33792
8560,33728
8561,33728
8562,33664
8563,33600
8564,33408
8565,33344
8566,33280
8567,33216
8568,33152
8569,33152
8570,33216
8571,33216
8572,33280
8573,33280
8574,33344
8575,33408
8576,33408
8577,33472
8578,33536
8579,33536
8580,33536
8581,33536
8582,33600
8583,33664
8584,33728
8585,33664
8586,33664
8587,33728
8588,33728
8589,33792
8590,33792
8591,33792
8592,33792
8593,33792
8594,33792
8595,33856
8596,33920
8597,33984
8598,34048
8599,34112
8600,34176
8601,34176
8602,34240
8603,34304
8604,34432
8605,34432
8606,34496
8607,34560
8608,34624
8609,34560
8610,34368
8611,34112
8612,33792
8613,33472
8614,33152
8615,32832
8616,32704
8617,32640
8618,32640
8619,32704
8620,32768
8621,32896
8622,32960
8623,33088
8624,33216
8625,33344
8626,33344
8627,33344
8628,33280
8629,32960
8630,32512
8631,32384
8632,32896
8633,34304
8634,36288
8635,38720
8636,41152
8637,43072
8638,43904
8639,42880
8640,39296
8641,36416
8642,33408
8643,31232
8644,30016
8645,29568
8646,29632
8647,30016
8648,30592
8649,31232
8650,31872
8651,32384
8652,32768
8653,33024
8654,33216
8655,33344
8656,33408
8657,33472
8658,33472
8659,33472
8660,33472
8661,33536
8662,33536
8663,33600
8664,33600
8665,33600
8666,33536
8667,33472
8668,33408
8669,33408
8670,33472
8671,33536
8672,33536
8673,33536
8674,33600
8675,33664
8676,33728
8677,33728
8678,33792
8679,33856
8680,33856
8681,33920
8682,34048
8683,34176
8684,34112
8685,34176
8686,34176
8687,34240
8688,34240
8689,34240
8690,34240
8691,34240
8692,34176
8693,34112
8694,34048
8695,34048
8696,34048
8697,34048
8698,33984
8699,33984
8700,33920
8701,33856
8702,33856
8703,33792
8704,33728
8705,33664
8706,33600
8707,33536
8708,33536
8709,33472
8710,33344
8711,33344
8712,33280
8713,33216
8714,33216
8715,33280
8716,33408
8717,33408
8718,33408
8719,33472
8720,33600
8721,33664
8722,33664
8723,33664
8724,33728
8725,33728
8726,33728
8727,33664
8728,33728
8729,33792
8730,33728
8731,33728
8732,33728
8733,33728
8734,33664
8735,33664
8736,33664
8737,33664
8738,33600
8739,33600
8740,33664
8741,33792
8742,33856
8743,33984
8744,34048
8745,34240
8746,34240
8747,34240
8748,34240
8749,34304
8750,34368
8751,34368
8752,34432
8753,34560
8754,34688
8755,34688
8756,34496
8757,34304
8758,33984
8759,33664
8760,33152
8761,32960
8762,32704
8763,32576
8764,32512
8765,32576
8766,32768
8767,32896
8768,32960
8769,33024
8770,33088
8771,33152
8772,33216
8773,33280
8774,33216
8775,33024
8776,32768
8777,32576
8778,33024
8779,34304
8780,36160
8781,38528
8782,40896
8783,43136
8784,43904
8785,43136
8786,40320
8787,36736
8788,33536
8789,31232
8790,29696
8791,29440
8792,29504
8793,29888
8794,30464
8795,31040
8796,31616
8797,32128
8798,32576
8799,32896
8800,33216
8801,33344
8802,33408
8803,33472
8804,33536
8805,33536
8806,33536
8807,33536
8808,33600
8809,33536
8810,33408
8811,33408
8812,33472
8813,33408
8814,33408
8815,33472
8816,33472
8817,33536
8818,33472
8819,33472
8820,33600
8821,33600
8822,33600
8823,33600
8824,33728
8825,33792
8826,33920
8827,33920
8828,34048
8829,34112
8830,34176
8831,34176
8832,34304
8833,34368
8834,34368
8835,34304
8836,34304
8837,34304
8838,34304
8839,34304
8840,34240
8841,34240
8842,34240
8843,34240
8844,34240
8845,34240
8846,34176
8847,34112
8848,34048
8849,34048
8850,33984
8851,33920
8852,33856
8853,33792
8854,33728
8855,33600
8856,33472
8857,33408
8858,33344
8859,33344
8860,33344
8861,33408
8862,33536
8863,33536
8864,33472
8865,33472
8866,33536
8867,33664
8868,33728
8869,33856
8870,33984
8871,33984
8872,33984
8873,33856
8874,33792
8875,33792
8876,33792
8877,33728
8878,33792
8879,33920
8880,33984
8881,33920
8882,33856
8883,33856
8884,33792
8885,33728
8886,33792
8887,33792
8888,33728
8889,33600
8890,33536
8891,33600
8892,33664
8893,33728
8894,33792
8895,33984
8896,34048
8897,34176
8898,34240
8899,34368
8900,34432
8901,34496
8902,34560
8903,34688
8904,34752
8905,34752
8906,34752
8907,34752
8908,34688
8909,34496
8910,34048
8911,33792
8912,33472
8913,33152
8914,32832
8915,32640
8916,32576
8917,32576
8918,32640
8919,32768
8920,32960
8921,33088
8922,33152
8923,33216
8924,33280
8925,33344
8926,33344
8927,33216
8928,32960
8929,32704
8930,32704
8931,33472
8932,34944
8933,37184
8934,39488
8935,41664
8936,43328
8937,43776
8938,42176
8939,38784
8940,34304
8941,32448
8942,30720
8943,29824
8944,29632
8945,29888
8946,30400
8947,30976
8948,31488
8949,32000
8950,32512
8951,32832
8952,33024
8953,33216
8954,33408
8955,33536
8956,33536
8957,33600
8958,33600
8959,33536
8960,33472
8961,33472
8962,33536
8963,33472
8964,33408
8965,33408
8966,33408
8967,33472
8968,33472
8969,33536
8970,33728
8971,33728
8972,33728
8973,33664
8974,33664
8975,33728
8976,33792
8977,33856
8978,33920
8979,33984
8980,33984
8981,34048
8982,34112
8983,34112
8984,34112
8985,34176
8986,34240
8987,34304
8988,34304
8989,34304
8990,34304
8991,34304
8992,34368
8993,34304
8994,34240
8995,34176
8996,34176
8997,34112
8998,34048
8999,34048
9000,33984
9001,33920
9002,33856
9003,33792
9004,33728
9005,33600
9006,33472
9007,33472
9008,33536
9009,33536
9010,33472
9011,33408
9012,33408
9013,33344
9014,33344
9015,33408
9016,33408
9017,33536
9018,33536
9019,33600
9020,33792
9021,33920
9022,33920
9023,33856
9024,33856
9025,33856
9026,33792
9027,33792
9028,33792
9029,33792
9030,33792
9031,33792
9032,33792
9033,33856
9034,33856
9035,33728
9036,33664
9037,33664
9038,33664
9039,33664
9040,33664
9041,33728
9042,33664
9043,33600
9044,33600
9045,33600
9046,33600
9047,33664
9048,33664
9049,33728
9050,33728
9051,33728
9052,33664
9053,33792
9054,33920
9055,34048
9056,34112
9057,34176
9058,34240
9059,34304
9060,34496
9061,34496
9062,34624
9063,34688
9064,34688
9065,34752
9066,34688
9067,34624
9068,34368
9069,34048
9070,33792
9071,33472
9072,33152
9073,32832
9074,32640
9075,32576
9076,32576
9077,32640
9078,32768
9079,32960
9080,33024
9081,33088
9082,33152
9083,33216
9084,33216
9085,33088
9086,32896
9087,32640
9088,32448
9089,32768
9090,33920
9091,35776
9092,38080
9093,40320
9094,42368
9095,43520
9096,43072
9097,40384
9098,36736
9099,33664
9100,31424
9101,30144
9102,29632
9103,29696
9104,30144
9105,30720
9106,31296
9107,31808
9108,32320
9109,32704
9110,33024
9111,33216
9112,33536
9113,33536
9114,33600
9115,33664
9116,33664
9117,33600
9118,33472
9119,33408
9120,33408
9121,33408
9122,33472
9123,33472
9124,33472
9125,33472
9126,33536
9127,33536
9128,33600
9129,33664
9130,33600
9131,33664
9132,33728
9133,33728
9134,33728
9135,33664
9136,33856
9137,33920
9138,33920
9139,33920
9140,33984
9141,34176
9142,34176
9143,34176
9144,34304
9145,34368
9146,34432
9147,34368
9148,34432
9149,34304
9150,34240
9151,34048
9152,33984
9153,34048
9154,34048
9155,33984
9156,33984
9157,33984
9158,33920
9159,33920
9160,33856
9161,33792
9162,33792
9163,33664
9164,33536
9165,33472
9166,33472
9167,33408
9168,33344
9169,33280
9170,33280
9171,33280
9172,33344
9173,33280
9174,33472
9175,33536
9176,33600
9177,33664
9178,33792
9179,33792
9180,33792
9181,33792
9182,33792
9183,33792
9184,33728
9185,33664
9186,33728
9187,33728
9188,33664
9189,33664
9190,33728
9191,33728
9192,33792
9193,33728
9194,33792
9195,33856
9196,33728
9197,33664
9198,33600
9199,33600
9200,33600
9201,33600
9202,33600
9203,33664
9204,33664
9205,33664
9206,33664
9207,33664
9208,33600
9209,33536
9210,33472
9211,33472
9212,33600
9213,33728
9214,33856
9215,34048
9216,34176
9217,34240
9218,34240
9219,34304
9220,34432
9221,34432
9222,34496
9223,34624
9224,34688
9225,34816
9226,34816
9227,34752
9228,34624
9229,34368
9230,33984
9231,33728
9232,33408
9233,33088
9234,32768
9235,32640
9236,32640
9237,32704
9238,32768
9239,32832
9240,32960
9241,33152
9242,33216
9243,33280
9244,33344
9245,33344
9246,33216
9247,32896
9248,32640
9249,32832
9250,33600
9251,35136
9252,37312
9253,39680
9254,41856
9255,43328
9256,43520
9257,41664
9258,38400
9259,35008
9260,32384
9261,30720
9262,29888
9263,29760
9264,30016
9265,30528
9266,31104
9267,31680
9268,32192
9269,32640
9270,33024
9271,33152
9272,33280
9273,33472
9274,33600
9275,33600
9276,33600
9277,33600
9278,33600
9279,33600
9280,33536
9281,33536
9282,33536
9283,33600
9284,33536
9285,33536
9286,33600
9287,33664
9288,33728
9289,33728
9290,33664
9291,33664
9292,33728
9293,33728
9294,33792
9295,33856
9296,33984
9297,33984
9298,33984
9299,33984
9300,34048
9301,34048
9302,34048
9303,34176
9304,34304
9305,34368
9306,34432
9307,34432
9308,34432
9309,34368
9310,34368
9311,34432
9312,34368
9313,34368
9314,34304
9315,34304
9316,34368
9317,34304
9318,34240
9319,34240
9320,34176
9321,34048
9322,33792
9323,33600
9324,33536
9325,33408
9326,33280
9327,33280
9328,33280
9329,33344
9330,33344
9331,33408
9332,33472
9333,33536
9334,33472
9335,33472
9336,33536
9337,33600
9338,33600
9339,33536
9340,33600
9341,33600
9342,33600
9343,33536
9344,33664
9345,33792
9346,33856
9347,33792
9348,33664
9349,33664
9350,33664
9351,33664
9352,33600
9353,33664
9354,33664
9355,33536
9356,33536
9357,33536
9358,33536
9359,33536
9360,33536
9361,33536
9362,33536
9363,33536
9364,33472
9365,33536
9366,33600
9367,33536
9368,33472
9369,33472
9370,33536
9371,33536
9372,33536
9373,33536
9374,33664
9375,33792
9376,33920
9377,34048
9378,34112
9379,34240
9380,34240
9381,34304
9382,34368
9383,34432
9384,34432
9385,34496
9386,34688
9387,34880
9388,34816
9389,34624
9390,34304
9391,34048
9392,33664
9393,33344
9394,32960
9395,32704
9396,32640
9397,32512
9398,32576
9399,32768
9400,32960
9401,33088
9402,33152
9403,33152
9404,33216
9405,33280
9406,33280
9407,33280
9408,33088
9409,32832
9410,32768
9411,33280
9412,34688
9413,36480
9414,38720
9415,40960
9416,42816
9417,43584
9418,42496
9419,39488
9420,35840
9421,33088
9422,31040
9423,30016
9424,29696
9425,29888
9426,30272
9427,30784
9428,31296
9429,31808
9430,32320
9431,32704
9432,32960
9433,33152
9434,33216
9435,33280
9436,33408
9437,33472
9438,33536
9439,33536
9440,33536
9441,33536
9442,33472
9443,33408
9444,33344
9445,33344
9446,33408
9447,33344
9448,33344
9449,33408
9450,33408
9451,33408
9452,33344
9453,33408
9454,33472
9455,33472
9456,33536
9457,33664
9458,33728
9459,33792
9460,33856
9461,33920
9462,33984
9463,33984
9464,33984
9465,34048
9466,34112
9467,34112
9468,34112
9469,34112
9470,34176
9471,34176
9472,34112
9473,34112
9474,34112
9475,34048
9476,34048
9477,33984
9478,33984
9479,33920
9480,33792
9481,33664
9482,33600
9483,33600
9484,33536
9485,33536
9486,33472
9487,33472
9488,33344
9489,33280
9490,33280
9491,33216
9492,33216
9493,33216
9494,33280
9495,33344
9496,33408
9497,33408
9498,33408
9499,33472
9500,33600
9501,33664
9502,33664
9503,33664
9504,33664
9505,33664
9506,33664
9507,33664
9508,33664
9509,33664
9510,33600
9511,33600
9512,33600
9513,33536
9514,33536
9515,33600
9516,33664
9517,33664
9518,33664
9519,33664
9520,33600
9521,33536
9522,33600
9523,33728
9524,33856
9525,33984
9526,33984
9527,34048
9528,34048
9529,34112
9530,34176
9531,34240
9532,34240
9533,34304
9534,34368
9535,34496
9536,34560
9537,34496
9538,34240
9539,33984
9540,33664
9541,33344
9542,33024
9543,32768
9544,32640
9545,32576
9546,32640
9547,32704
9548,32768
9549,32832
9550,32960
9551,33088
9552,33152
9553,33216
9554,33216
9555,33216
9556,33088
9557,32832
9558,32576
9559,32512
9560,33024
9561,34304
9562,36416
9563,38464
9564,40640
9565,42368
9566,43200
9567,42304
9568,39616
9569,36416
9570,33472
9571,31360
9572,30080
9573,29632
9574,29696
9575,30144
9576,30656
9577,31296
9578,31808
9579,32320
9580,32704
9581,32960
9582,33216
9583,33344
9584,33472
9585,33536
9586,33600
9587,33664
9588,33664
9589,33536
9590,33472
9591,33472
9592,33472
9593,33408
9594,33408
9595,33408
9596,33408
9597,33344
9598,33344
9599,33408
9600,33536
9601,33600
9602,33600
9603,33664
9604,33664
9605,33728
9606,33728
9607,33792
9608,33856
9609,33920
9610,33984
9611,34048
9612,34112
9613,34112
9614,34112
9615,34112
9616,34240
9617,34240
9618,34176
9619,34176
9620,34176
9621,34176
9622,34112
9623,34048
9624,34048
9625,34048
9626,34048
9627,33984
9628,34048
9629,33984
9630,33920
9631,33856
9632,33792
9633,33792
9634,33792
9635,33728
9636,33664
9637,33600
9638,33536
9639,33472
9640,33408
9641,33472
9642,33536
9643,33536
9644,33600
9645,33664
9646,33728
9647,33728
9648,33664
9649,33664
9650,33600
9651,33600
9652,33600
9653,33664
9654,33728
9655,33728
9656,33728
9657,33792
9658,33856
9659,33856
9660,33856
9661,33856
9662,33792
9663,33792
9664,33792
9665,33728
9666,33792
9667,33792
9668,33792
9669,33856
9670,34048
9671,34176
9672,34112
9673,34112
9674,34112
9675,34176
9676,34304
9677,34368
9678,34496
9679,34560
9680,34688
9681,34816
9682,34816
9683,34624
9684,34304
9685,34048
9686,33728
9687,33472
9688,33088
9689,32768
9690,32640
9691,32640
9692,32704
9693,32704
9694,32832
9695,33024
9696,33152
9697,33216
9698,33280
9699,33408
9700,33536
9701,33408
9702,33152
9703,32768
9704,32512
9705,32704
9706,33536
9707,35264
9708,37504
9709,39872
9710,41920
9711,43328
9712,43328
9713,41216
9714,37824
9715,34560
9716,32000
9717,30464
9718,29696
9719,29568
9720,29952
9721,30464
9722,30976
9723,31552
9724,32128
9725,32640
9726,32896
9727,33152
9728,33344
9729,33472
9730,33536
9731,33536
9732,33600
9733,33600
9734,33536
9735,33536
9736,33536
9737,33536
9738,33536
9739,33472
9740,33472
9741,33472
9742,33472
9743,33408
9744,33408
9745,33472
9746,33472
9747,33536
9748,33536
9749,33600
9750,33664
9751,33728
9752,33792
9753,33856
9754,33920
9755,33984
9756,33984
9757,34048
9758,34048
9759,34048
9760,34048
9761,34176
9762,34240
9763,34304
9764,34240
9765,34240
9766,34240
9767,34176
9768,34176
9769,34112
9770,34112
9771,34048
9772,34048
9773,33920
9774,33856
9775,33856
9776,33856
9777,33792
9778,33728
9779,33664
9780,33600
9781,33536
9782,33472
9783,33472
9784,33408
9785,33344
9786,33344
9787,33472
9788,33472
9789,33472
9790,33472
9791,33600
9792,33728
9793,33664
9794,33600
9795,33600
9796,33728
9797,33792
9798,33792
9799,33792
9800,33792
9801,33728
9802,33728
9803,33728
9804,33792
9805,33792
9806,33728
9807,33728
9808,33728
9809,33728
9810,33664
9811,33728
9812,33792
9813,33856
9814,33920
9815,34112
9816,34240
9817,34240
9818,34240
9819,34176
9820,34240
9821,34368
9822,34304
9823,34304
9824,34432
9825,34560
9826,34624
9827,34624
9828,34560
9829,34368
9830,34048
9831,33664
9832,33408
9833,33152
9834,32896
9835,32768
9836,32704
9837,32704
9838,32704
9839,32832
9840,32960
9841,33024
9842,33152
9843,33216
9844,33216
9845,33280
9846,33216
9847,33024
9848,32704
9849,32576
9850,32896
9851,33920
9852,35712
9853,37952
9854,40256
9855,42304
9856,43520
9857,43392
9858,41088
9859,37568
9860,34240
9861,31744
9862,30272
9863,29568
9864,29504
9865,29824
9866,30400
9867,31040
9868,31616
9869,32128
9870,32576
9871,32896
9872,33152
9873,33280
9874,33408
9875,33472
9876,33472
9877,33408
9878,33408
9879,33408
9880,33408
9881,33408
9882,33472
9883,33472
9884,33472
9885,33408
9886,33344
9887,33344
9888,33408
9889,33408
9890,33408
9891,33408
9892,33536
9893,33600
9894,33600
9895,33664
9896,33728
9897,33728
9898,33792
9899,33920
9900,33984
9901,34048
9902,34112
9903,34112
9904,34112
9905,34112
9906,34112
9907,34112
9908,34112
9909,34176
9910,34176
9911,34112
9912,34048
9913,33984
9914,33984
9915,33984
9916,34048
9917,34112
9918,33984
9919,33856
9920,33792
9921,33728
9922,33664
9923,33600
9924,33536
9925,33472
9926,33408
9927,33344
9928,33344
9929,33344
9930,33344
9931,33344
9932,33408
9933,33472
9934,33472
9935,33472
9936,33536
9937,33600
9938,33664
9939,33664
9940,33600
9941,33664
9942,33664
9943,33664
9944,33664
9945,33792
9946,33856
9947,33856
9948,33792
9949,33792
9950,33792
9951,33792
9952,33856
9953,33856
9954,33920
9955,33920
9956,33856
9957,33728
9958,33728
9959,33728
9960,33792
9961,33920
9962,34048
9963,34176
9964,34240
9965,34304
9966,34432
9967,34432
9968,34432
9969,34368
9970,34432
9971,34496
9972,34624
9973,34816
9974,34816
9975,34624
9976,34368
9977,34112
9978,33792
9979,33536
9980,33216
9981,32832
9982,32640
9983,32576
9984,32640
9985,32768
9986,32832
9987,32896
9988,33024
9989,33152
9990,33280
9991,33408
9992,33472
9993,33344
9994,33152
9995,32832
9996,32576
9997,32704
9998,33536
9999,35200
10000,37440
10001,39808
10002,41984
10003,43456
10004,43584
10005,41536
10006,38208
10007,34816
10008,32192
10009,30528
10010,29696
10011,29568
10012,29952
10013,30464
10014,31104
10015,31680
10016,32192
10017,32640
10018,32896
10019,33088
10020,33280
10021,33472
10022,33536
10023,33472
10024,33408
10025,33408
10026,33408
10027,33408
10028,33408
10029,33472
10030,33536
10031,33536
10032,33472
10033,33536
10034,33600
10035,33600
10036,33600
10037,33664
10038,33728
10039,33792
10040,33856
10041,33856
10042,33856
10043,33856
10044,33856
10045,33920
10046,33984
10047,34048
10048,34048
10049,34112
10050,34176
10051,34176
10052,34176
10053,34240
10054,34368
10055,34368
10056,34368
10057,34304
10058,34240
10059,34304
10060,34240
10061,34176
10062,34176
10063,34176
10064,34176
10065,34112
10066,34176
10067,34176
10068,34048
10069,33920
10070,33792
10071,33728
10072,33664
10073,33536
10074,33536
10075,33472
10076,33408
10077,33344
10078,33408
10079,33472
10080,33536
10081,33536
10082,33600
10083,33664
10084,33664
10085,33664
10086,33664
10087,33664
10088,33728
10089,33792
10090,33792
10091,33856
10092,33920
10093,33984
10094,33984
10095,33984
10096,33984
10097,33984
10098,33856
10099,33856
10100,33856
10101,33856
10102,33856
10103,33792
10104,33792
10105,33792
10106,33728
10107,33664
10108,33664
10109,33728
10110,33664
10111,33664
10112,33664
10113,33728
10114,33792
10115,33856
10116,33984
10117,34112
10118,34240
10119,34304
10120,34368
10121,34432
10122,34496
10123,34496
10124,34560
10125,34688
10126,34688
10127,34752
10128,34880
10129,34880
10130,34752
10131,34496
10132,34112
10133,33792
10134,33536
10135,33152
10136,32960
10137,32832
10138,32832
10139,32768
10140,32832
10141,32960
10142,33088
10143,33152
10144,33216
10145,33344
10146,33472
10147,33536
10148,33408
10149,33216
10150,32832
10151,32704
10152,33088
10153,34368
10154,36288
10155,38720
10156,40960
10157,42880
10158,43776
10159,42816
10160,39872
10161,36224
10162,33024
10163,31104
10164,30016
10165,29696
10166,29888
10167,30336
10168,30848
10169,31424
10170,31936
10171,32448
10172,32832
10173,33152
10174,33408
10175,33536
10176,33600
10177,33600
10178,33664
10179,33728
10180,33728
10181,33664
10182,33600
10183,33600
10184,33536
10185,33536
10186,33536
10187,33536
10188,33600
10189,33600
10190,33600
10191,33600
10192,33600
10193,33536
10194,33536
10195,33600
10196,33664
10197,33728
10198,33664
10199,33728
10200,33792
10201,33856
10202,33920
10203,33984
10204,34112
10205,34240
10206,34240
10207,34240
10208,34304
10209,34368
10210,34368
10211,34368
10212,34432
10213,34368
10214,34304
10215,34240
10216,34240
10217,34176
10218,34176
10219,34112
10220,33984
10221,33920
10222,33856
10223,33792
10224,33728
10225,33728
10226,33664
10227,33536
10228,33536
10229,33472
10230,33472
10231,33344
10232,33216
10233,33280
10234,33280
10235,33344
10236,33344
10237,33408
10238,33472
10239,33536
10240,33472
10241,33536
10242,33600
10243,33664
10244,33664
10245,33664
10246,33728
10247,33792
10248,33728
10249,33728
10250,33792
10251,33856
10252,33856
10253,33792
10254,33664
10255,33600
10256,33536
10257,33600
10258,33664
10259,33664
10260,33728
10261,33664
10262,33600
10263,33600
10264,33600
10265,33600
10266,33664
10267,33664
10268,33664
10269,33600
10270,33600
10271,33664
10272,33664
10273,33600
10274,33664
10275,33792
10276,33984
10277,34048
10278,34112
10279,34112
10280,34112
10281,34112
10282,34240
10283,34368
10284,34496
10285,34624
10286,34688
10287,34688
10288,34560
10289,34368
10290,34048
10291,33856
10292,33600
10293,33344
10294,32960
10295,32704
10296,32576
10297,32512
10298,32512
10299,32640
10300,32832
10301,32960
10302,33088
10303,33152
10304,33280
10305,33408
10306,33344
10307,33216
10308,32960
10309,32768
10310,32832
10311,33472
10312,34944
10313,36928
10314,39168
10315,41344
10316,42944
10317,43392
10318,41728
10319,38528
10320,35200
10321,32448
10322,30656
10323,29760
10324,29504
10325,29760
10326,30272
10327,30848
10328,31360
10329,31936
10330,32448
10331,32832
10332,33152
10333,33408
10334,33536
10335,33600
10336,33600
10337,33600
10338,33536
10339,33472
10340,33472
10341,33472
10342,33536
10343,33472
10344,33408
10345,33408
10346,33472
10347,33472
10348,33472
10349,33536
10350,33536
10351,33664
10352,33728
10353,33792
10354,33792
10355,33792
10356,33792
10357,33792
10358,33920
10359,33984
10360,34048
10361,34048
10362,34176
10363,34176
10364,34240
10365,34304
10366,34304
10367,34304
10368,34304
10369,34304
10370,34304
10371,34304
10372,34304
10373,34240
10374,34176
10375,34176
10376,34240
10377,34176
10378,34176
10379,34112
10380,34048
10381,33920
10382,33728
10383,33664
10384,33600
10385,33536
10386,33472
10387,33408
10388,33344
10389,33344
10390,33344
10391,33344
10392,33344
10393,33344
10394,33344
10395,33344
10396,33408
10397,33472
10398,33536
10399,33600
10400,33664
10401,33664
10402,33664
10403,33664
10404,33728
10405,33728
10406,33664
10407,33728
10408,33856
10409,33920
10410,33920
10411,33920
10412,33856
10413,33792
10414,33728
10415,33728
10416,33728
10417,33792
10418,33792
10419,33792
10420,33792
10421,33920
10422,34048
10423,34112
10424,34240
10425,34368
10426,34432
10427,34432
10428,34432
10429,34496
10430,34560
10431,34560
10432,34624
10433,34752
10434,34880
10435,34816
10436,34624
10437,34432
10438,34176
10439,33792
10440,33344
10441,33088
10442,32896
10443,32768
10444,32704
10445,32704
10446,32832
10447,32960
10448,33024
10449,33152
10450,33280
10451,33408
10452,33408
10453,33408
10454,33408
10455,33152
10456,32768
10457,32512
10458,32768
10459,33728
10460,35456
10461,37632
10462,40000
10463,41984
10464,43328
10465,43264
10466,41152
10467,37952
10468,34688
10469,32128
10470,30336
10471,29824
10472,29696
10473,29952
10474,30464
10475,31104
10476,31680
10477,32192
10478,32640
10479,32960
10480,33280
10481,33408
10482,33472
10483,33600
10484,33728
10485,33728
10486,33664
10487,33600
10488,33600
10489,33536
10490,33472
10491,33472
10492,33536
10493,33536
10494,33472
10495,33472
10496,33536
10497,33536
10498,33536
10499,33536
10500,33600
10501,33600
10502,33600
10503,33664
10504,33728
10505,33728
10506,33792
10507,33856
10508,33984
10509,34048
10510,34112
10511,34176
10512,34304
10513,34368
10514,34304
10515,34240
10516,34176
10517,34176
10518,34176
10519,34176
10520,34176
10521,34240
10522,34240
10523,34176
10524,34176
10525,34176
10526,34112
10527,33984
10528,33920
10529,33856
10530,33792
10531,33728
10532,33664
10533,33600
10534,33536
10535,33472
10536,33472
10537,33472
10538,33536
10539,33472
10540,33472
10541,33472
10542,33536
10543,33536
10544,33600
10545,33664
10546,33728
10547,33728
10548,33728
10549,33792
10550,33920
10551,33984
10552,33920
10553,33920
10554,33920
10555,33920
10556,33920
10557,33856
10558,33856
10559,33920
10560,33856
10561,33792
10562,33792
10563,33856
10564,33920
10565,33856
10566,33856
10567,33920
10568,33920
10569,33920
10570,33920
10571,34048
10572,34176
10573,34176
10574,34176
10575,34240
10576,34304
10577,34368
10578,34432
10579,34496
10580,34560
10581,34560
10582,34624
10583,34624
10584,34496
10585,34304
10586,33984
10587,33728
10588,33408
10589,33088
10590,32704
10591,32640
10592,32704
10593,32704
10594,32768
10595,32896
10596,33088
10597,33216
10598,33280
10599,33344
10600,33472
10601,33472
10602,33344
10603,33088
10604,32768
10605,32640
10606,33024
10607,34176
10608,36032
10609,38400
10610,40640
10611,42624
10612,43712
10613,43136
10614,40320
10615,36672
10616,33472
10617,31232
10618,29952
10619,29440
10620,29696
10621,30016
10622,30656
10623,31232
10624,31744
10625,32256
10626,32640
10627,32960
10628,33152
10629,33344
10630,33472
10631,33472
10632,33472
10633,33472
10634,33472
10635,33536
10636,33472
10637,33408
10638,33344
10639,33344
10640,33344
10641,33344
10642,33408
10643,33472
10644,33536
10645,33536
10646,33536
10647,33536
10648,33472
10649,33536
10650,33600
10651,33728
10652,33728
10653,33728
10654,33856
10655,33984
10656,34048
10657,34112
10658,34112
10659,34176
10660,34240
10661,34240
10662,34304
10663,34368
10664,34368
10665,34304
10666,34240
10667,34176
10668,34112
10669,34112
10670,34112
10671,34112
10672,34112
10673,34112
10674,34048
10675,33984
10676,33984
10677,33856
10678,33792
10679,33728
10680,33600
10681,33536
10682,33408
10683,33408
10684,33344
10685,33344
10686,33280
10687,33280
10688,33344
10689,33344
10690,33344
10691,33344
10692,33472
10693,33536
10694,33600
10695,33664
10696,33728
10697,33728
10698,33728
10699,33664
10700,33728
10701,33792
10702,33728
10703,33664
10704,33728
10705,33792
10706,33792
10707,33728
10708,33728
10709,33664
10710,33600
10711,33536
10712,33536
10713,33600
10714,33600
10715,33600
10716,33600
10717,33600
10718,33600
10719,33536
10720,33600
10721,33664
10722,33792
10723,33856
10724,33984
10725,34240
10726,34304
10727,34304
10728,34304
10729,34368
10730,34496
10731,34496
10732,34496
10733,34496
10734,34560
10735,34560
10736,34560
10737,34432
10738,34304
10739,34048
10740,33600
10741,33344
10742,33024
10743,32832
10744,32640
10745,32640
10746,32768
10747,32832
10748,32832
10749,32832
10750,32896
10751,33088
10752,33152
10753,33280
10754,33408
10755,33408
10756,33152
10757,32768
10758,32576
10759,33024
10760,34240
10761,36096
10762,38400
10763,40704
10764,42752
10765,43712
10766,42944
10767,40192
10768,36608
10769,33472
10770,31168
10771,30016
10772,29568
10773,29696
10774,30080
10775,30656
10776,31232
10777,31744
10778,32256
10779,32704
10780,33088
10781,33280
10782,33408
10783,33472
10784,33600
10785,33600
10786,33600
10787,33600
10788,33600
10789,33536
10790,33408
10791,33408
10792,33472
10793,33536
10794,33536
10795,33536
10796,33600
10797,33664
10798,33728
10799,33664
10800,33600
10801,33536
10802,33600
10803,33600
10804,33728
10805,33856
10806,33920
10807,33920
10808,34048
10809,34176
10810,34176
10811,34176
10812,34240
10813,34304
10814,34304
10815,34368
10816,34368
10817,34432
10818,34496
10819,34432
10820,34368
10821,34368
10822,34368
10823,34304
10824,34240
10825,34176
10826,34176
10827,34112
10828,34048
10829,34048
10830,33984
10831,33920
10832,33728
10833,33600
10834,33536
10835,33472
10836,33472
10837,33408
10838,33472
10839,33472
10840,33408
10841,33344
10842,33408
10843,33408
10844,33408
10845,33408
10846,33472
10847,33536
10848,33600
10849,33600
10850,33600
10851,33664
10852,33728
10853,33792
10854,33792
10855,33856
10856,33792
10857,33728
10858,33728
10859,33792
10860,33792
10861,33792
10862,33728
10863,33728
10864,33728
10865,33728
10866,33664
10867,33664
10868,33728
10869,33728
10870,33664
10871,33728
10872,33728
10873,33728
10874,33728
10875,33728
10876,33792
10877,33728
10878,33728
10879,33792
10880,33856
10881,33792
10882,33856
10883,33920
10884,34048
10885,34176
10886,34240
10887,34304
10888,34368
10889,34432
10890,34432
10891,34496
10892,34624
10893,34752
10894,34816
10895,34816
10896,34752
10897,34560
10898,34176
10899,33920
10900,33664
10901,33408
10902,33152
10903,32832
10904,32704
10905,32768
10906,32768
10907,32768
10908,32896
10909,33024
10910,33088
10911,33152
10912,33216
10913,33280
10914,33344
10915,33216
10916,32960
10917,32704
10918,32704
10919,33280
10920,34624
10921,36608
10922,38912
10923,41088
10924,42880
