,ECG
0,33152
1,33472
2,33536
3,33536
4,33408
5,33344
6,33216
7,32832
8,32512
9,32832
10,33984
11,36032
12,38400
13,40832
14,43456
15,43648
16,42880
17,40064
18,36672
19,33600
20,31488
21,30464
22,30208
23,30336
24,30656
25,31168
26,31744
27,32256
28,32960
29,32960
30,33344
31,33472
32,33600
33,33792
34,33792
35,33856
36,33856
37,33984
38,34048
39,33984
40,33856
41,33792
42,33792
43,33792
44,33728
45,33728
46,33728
47,33792
48,33856
49,33984
50,34176
51,34368
52,34368
53,34304
54,34304
55,34304
56,34304
57,34368
58,34432
59,34368
60,34432
61,34368
62,34304
63,34560
64,34496
65,34496
66,34624
67,34624
68,34624
69,34624
70,34816
71,34688
72,34432
73,34112
74,33920
75,33856
76,33984
77,33920
78,33920
79,33920
80,33856
81,33792
82,33664
83,33728
84,33920
85,34048
86,33856
87,33600
88,33472
89,33408
90,33344
91,33408
92,33536
93,33664
94,33664
95,33856
96,33856
97,33792
98,33856
99,34048
100,34240
101,34304
102,34176
103,33984
104,33856
105,33792
106,33792
107,33728
108,33792
109,33728
110,34112
111,34432
112,34688
113,34880
114,34880
115,34816
116,34944
117,35136
118,35264
119,35264
120,35200
121,35136
122,35072
123,34880
124,34688
125,34496
126,34304
127,33984
128,33664
129,33408
130,33152
131,33024
132,33088
133,33344
134,33600
135,33728
136,33792
137,33920
138,33984
139,33792
140,33408
141,33216
142,33088
143,32960
144,32640
145,32512
146,32768
147,33600
148,35200
149,37440
150,39744
151,41856
152,43200
153,43264
154,41280
155,38080
156,34880
157,32448
158,31040
159,30528
160,30400
161,30592
162,31104
163,31744
164,32320
165,32768
166,33152
167,33472
168,33664
169,33792
170,33920
171,33984
172,33920
173,33728
174,33664
175,33728
176,33792
177,33856
178,33856
179,33792
180,33728
181,33728
182,33792
183,33920
184,33984
185,34112
186,34240
187,34368
188,34304
189,34176
190,34048
191,34112
192,34176
193,34240
194,34176
195,34176
196,34176
197,34240
198,34240
199,34304
200,34304
201,34368
202,34432
203,34560
204,34816
205,34880
206,34816
207,34688
208,34560
209,34560
210,34368
211,34176
212,34112
213,34112
214,34048
215,33984
216,33984
217,33984
218,33792
219,33664
220,33664
221,33600
222,33536
223,33472
224,33536
225,33600
226,33664
227,33728
228,33728
229,33792
230,33920
231,34112
232,34240
233,34176
234,33856
235,33536
236,33344
237,33472
238,33600
239,33600
240,33600
241,33664
242,33920
243,34176
244,34368
245,34496
246,34560
247,34624
248,34624
249,34624
250,34368
251,34240
252,34240
253,34304
254,34432
255,34560
256,34688
257,34880
258,35136
259,35200
260,35008
261,34688
262,34496
263,34368
264,34240
265,33984
266,33728
267,33536
268,33344
269,33152
270,32896
271,32704
272,32576
273,32576
274,32704
275,33024
276,33472
277,33664
278,33664
279,33536
280,33216
281,32768
282,32640
283,33088
284,34496
285,36288
286,38528
287,40832
288,42560
289,43328
290,42496
291,39808
292,36608
293,33664
294,31552
295,30400
296,30016
297,30144
298,30656
299,31360
300,32064
301,32640
302,33088
303,33344
304,33600
305,33792
306,33856
307,33856
308,33920
309,33984
310,33984
311,33920
312,33920
313,33920
314,33856
315,33920
316,34112
317,34112
318,33920
319,33664
320,33664
321,33856
322,34112
323,34304
324,34304
325,34240
326,34112
327,34048
328,34176
329,34496
330,34688
331,34688
332,34560
333,34496
334,34432
335,34368
336,34432
337,34560
338,34688
339,34624
340,34432
341,34432
342,34496
343,34496
344,34432
345,34432
346,34496
347,34496
348,34368
349,34112
350,33984
351,34048
352,34304
353,34368
354,34240
355,33984
356,33856
357,33792
358,33856
359,33792
360,33728
361,33728
362,33664
363,33536
364,33408
365,33344
366,33408
367,33536
368,33600
369,33664
370,33792
371,33984
372,34176
373,34176
374,34112
375,34176
376,34240
377,34176
378,34112
379,33984
380,33856
381,33792
382,33792
383,33856
384,33984
385,34112
386,34176
387,34304
388,34560
389,34624
390,34624
391,34688
392,34816
393,34944
394,34944
395,35008
396,35136
397,35136
398,35072
399,35008
400,34816
401,34496
402,34048
403,33728
404,33472
405,33344
406,33152
407,33152
408,33280
409,33344
410,33344
411,33280
412,33280
413,33408
414,33664
415,33792
416,33792
417,33664
418,33280
419,32704
420,32448
421,32704
422,33728
423,35712
424,38080
425,40448
426,42496
427,43520
428,43072
429,40576
430,37184
431,34112
432,31936
433,30720
434,30208
435,30144
436,30400
437,30784
438,31360
439,32000
440,32640
441,33152
442,33472
443,33600
444,33600
445,33792
446,34048
447,34112
448,33984
449,33792
450,33664
451,33728
452,33728
453,33664
454,33664
455,33536
456,33536
457,33728
458,33920
459,34112
460,34112
461,34112
462,34176
463,34240
464,34304
465,34304
466,34304
467,34304
468,34304
469,34176
470,34176
471,34304
472,34304
473,34240
474,34368
475,34496
476,34432
477,34368
478,34432
479,34688
480,34816
481,34752
482,34624
483,34560
484,34624
485,34496
486,34368
487,34240
488,34176
489,34112
490,33984
491,33856
492,33856
493,33856
494,33792
495,33792
496,33792
497,33792
498,33792
499,33728
500,33600
501,33536
502,33600
503,33728
504,33856
505,33856
506,33856
507,33792
508,33792
509,33856
510,33792
511,33728
512,33856
513,33920
514,33920
515,33920
516,33984
517,34048
518,33984
519,33920
520,33920
521,33984
522,34048
523,34048
524,34176
525,34176
526,34176
527,34176
528,34304
529,34496
530,34624
531,34688
532,34688
533,34880
534,35008
535,35072
536,35264
537,35712
538,35968
539,35520
540,34880
541,34368
542,33984
543,33664
544,33408
545,33344
546,33344
547,33280
548,33280
549,33280
550,33344
551,33472
552,33536
553,33472
554,33536
555,33600
556,33536
557,33408
558,33216
559,32960
560,32640
561,32576
562,33216
563,34688
564,36800
565,39040
566,41280
567,43008
568,43776
569,42688
570,39936
571,36608
572,33728
573,31552
574,30336
575,29888
576,30016
577,30464
578,31040
579,31744
580,32384
581,32832
582,33024
583,33152
584,33280
585,33472
586,33664
587,33920
588,34112
589,34112
590,33920
591,33792
592,33792
593,33856
594,33920
595,33920
596,33920
597,33920
598,33984
599,34240
600,34304
601,34048
602,33792
603,33600
604,33536
605,33664
606,33792
607,33856
608,34048
609,34240
610,34304
611,34048
612,33984
613,34240
614,34560
615,34816
616,34944
617,34880
618,34944
619,34880
620,34880
621,34816
622,34688
623,34560
624,34368
625,34368
626,34304
627,34240
628,34240
629,34240
630,34176
631,33984
632,33856
633,33664
634,33536
635,33600
636,33600
637,33664
638,33664
639,33600
640,33344
641,33280
642,33536
643,33728
644,33792
645,33664
646,33728
647,33792
648,33792
649,33792
650,33856
651,33984
652,34048
653,34112
654,34048
655,33920
656,33792
657,33792
658,33856
659,33984
660,34048
661,33920
662,33856
663,33984
664,34048
665,34112
666,34304
667,34432
668,34560
669,34624
670,34624
671,34752
672,34752
673,34752
674,34752
675,34880
676,35072
677,35136
678,35072
679,34944
680,34880
681,34624
682,34304
683,33984
684,33664
685,33216
686,32896
687,32768
688,32768
689,32768
690,32896
691,33024
692,33280
693,33536
694,33600
695,33664
696,33792
697,33728
698,33472
699,33024
700,32704
701,32832
702,33728
703,35456
704,37888
705,40192
706,42368
707,43712
708,43584
709,41536
710,38208
711,34880
712,32320
713,30784
714,30144
715,30016
716,30336
717,30976
718,31552
719,32064
720,32576
721,33152
722,33472
723,33664
724,33728
725,33856
726,33984
727,33920
728,33792
729,33728
730,33856
731,33856
732,33856
733,33856
734,33920
735,33920
736,33856
737,33856
738,34048
739,34112
740,34048
741,33984
742,33920
743,33856
744,33792
745,33792
746,33984
747,34048
748,34112
749,34176
750,34240
751,34368
752,34240
753,34048
754,33984
755,34176
756,34304
757,34368
758,34368
759,34432
760,34432
761,34432
762,34496
763,34560
764,34560
765,34368
766,34240
767,34240
768,34240
769,34112
770,33920
771,33856
772,33792
773,33728
774,33600
775,33600
776,33600
777,33536
778,33408
779,33280
780,33216
781,33216
782,33344
783,33408
784,33536
785,33536
786,33536
787,33664
788,33728
789,33728
790,33664
791,33664
792,33792
793,33856
794,33792
795,33792
796,33792
797,33792
798,33728
799,33664
800,33728
801,33792
802,33792
803,33792
804,33792
805,33856
806,33856
807,33792
808,33856
809,33984
810,34112
811,34176
812,34368
813,34496
814,34496
815,34432
816,34496
817,34688
818,34880
819,34944
820,35008
821,35072
822,35136
823,35072
824,34944
825,34880
826,34688
827,34304
828,33984
829,33728
830,33536
831,33408
832,33216
833,33152
834,33216
835,33344
836,33408
837,33472
838,33600
839,33664
840,33536
841,33408
842,33088
843,32640
844,32128
845,32192
846,33152
847,35008
848,37504
849,40128
850,42624
851,44416
852,44608
853,42560
854,38912
855,35520
856,32768
857,30976
858,30208
859,30080
860,30336
861,30784
862,31360
863,32000
864,32576
865,33088
866,33536
867,33920
868,34176
869,34304
870,34304
871,34304
872,34368
873,34304
874,34240
875,34176
876,34240
877,34176
878,34176
879,34176
880,34240
881,34240
882,34176
883,34176
884,34176
885,34048
886,33792
887,33664
888,33664
889,33664
890,33600
891,33600
892,33728
893,33856
894,33984
895,34176
896,34432
897,34624
898,34752
899,34816
900,34880
901,34880
902,34880
903,34816
904,34816
905,34880
906,34816
907,34688
908,34624
909,34560
910,34432
911,34176
912,34048
913,34048
914,33984
915,33920
916,33984
917,33984
918,33856
919,33536
920,33344
921,33216
922,33216
923,33216
924,33408
925,33664
926,33856
927,34048
928,34048
929,34176
930,34240
931,34368
932,34432
933,34496
934,34688
935,34688
936,34624
937,34560
938,34560
939,34496
940,34304
941,34240
942,34240
943,34240
944,34176
945,34176
946,34240
947,34368
948,34368
949,34368
950,34368
951,34432
952,34496
953,34560
954,34688
955,34816
956,34880
957,34880
958,34816
959,34944
960,34944
961,34880
962,34880
963,35008
964,35072
965,35136
966,35072
967,34944
968,34752
969,34432
970,34112
971,33856
972,33536
973,33216
974,32960
975,32896
976,32960
977,33024
978,33088
979,33216
980,33408
981,33472
982,33472
983,33472
984,33536
985,33408
986,33088
987,32768
988,32640
989,33024
990,34048
991,35968
992,38400
993,40896
994,42880
995,43840
996,43392
997,40896
998,37568
999,34368
1000,32064
1001,30656
1002,30080
1003,30016
1004,30336
1005,30912
1006,31552
1007,32128
1008,32704
1009,33152
1010,33472
1011,33664
1012,33856
1013,33984
1014,33984
1015,33920
1016,33920
1017,33984
1018,33984
1019,33856
1020,33792
1021,33856
1022,33856
1023,33792
1024,33792
1025,33856
1026,33920
1027,33856
1028,33792
1029,33856
1030,33920
1031,33984
1032,33920
1033,33984
1034,34112
1035,34112
1036,34176
1037,34240
1038,34368
1039,34432
1040,34432
1041,34432
1042,34496
1043,34496
1044,34496
1045,34496
1046,34560
1047,34560
1048,34432
1049,34432
1050,34368
1051,34432
1052,34368
1053,34304
1054,34368
1055,34432
1056,34368
1057,34304
1058,34240
1059,34240
1060,34112
1061,34048
1062,33984
1063,33984
1064,33920
1065,33792
1066,33792
1067,33792
1068,33856
1069,33792
1070,33856
1071,33920
1072,33984
1073,33984
1074,33984
1075,34048
1076,34112
1077,34112
1078,34048
1079,34112
1080,34176
1081,34176
1082,34112
1083,34112
1084,34176
1085,34176
1086,34176
1087,34112
1088,34176
1089,34176
1090,34176
1091,34240
1092,34368
1093,34496
1094,34624
1095,34688
1096,34816
1097,34816
1098,34816
1099,34816
1100,34944
1101,35072
1102,35072
1103,35136
1104,35264
1105,35392
1106,35328
1107,35136
1108,34944
1109,34752
1110,34432
1111,34048
1112,33664
1113,33408
1114,33216
1115,33024
1116,33024
1117,33088
1118,33152
1119,33216
1120,33344
1121,33536
1122,33600
1123,33664
1124,33664
1125,33600
1126,33408
1127,33024
1128,32768
1129,33088
1130,34304
1131,36160
1132,38528
1133,40960
1134,43136
1135,44352
1136,43904
1137,41280
1138,37696
1139,34368
1140,31936
1141,30528
1142,30016
1143,30080
1144,30464
1145,30976
1146,31552
1147,32128
1148,32640
1149,33024
1150,33408
1151,33664
1152,33856
1153,33920
1154,34048
1155,34048
1156,34048
1157,33984
1158,34048
1159,34048
1160,34048
1161,33984
1162,33984
1163,33984
1164,33984
1165,33984
1166,33984
1167,34048
1168,34048
1169,34048
1170,34048
1171,34176
1172,34240
1173,34240
1174,34240
1175,34304
1176,34368
1177,34304
1178,34304
1179,34368
1180,34496
1181,34560
1182,34496
1183,34560
1184,34624
1185,34624
1186,34560
1187,34496
1188,34560
1189,34496
1190,34432
1191,34432
1192,34432
1193,34368
1194,34240
1195,34176
1196,34176
1197,34176
1198,34112
1199,34048
1200,34048
1201,33984
1202,33856
1203,33664
1204,33600
1205,33600
1206,33536
1207,33472
1208,33472
1209,33536
1210,33600
1211,33600
1212,33600
1213,33728
1214,33792
1215,33856
1216,33856
1217,33856
1218,33920
1219,33856
1220,33792
1221,33792
1222,33856
1223,33856
1224,33856
1225,33984
1226,34048
1227,34048
1228,33984
1229,34048
1230,34112
1231,34048
1232,34048
1233,34176
1234,34304
1235,34432
1236,34496
1237,34496
1238,34624
1239,34688
1240,34752
1241,34816
1242,34944
1243,35072
1244,35136
1245,35136
1246,35136
1247,35008
1248,34816
1249,34432
1250,34176
1251,33920
1252,33536
1253,33216
1254,33024
1255,33024
1256,33024
1257,33088
1258,33152
1259,33344
1260,33472
1261,33472
1262,33600
1263,33728
1264,33728
1265,33536
1266,33216
1267,32832
1268,32640
1269,33024
1270,34304
1271,36480
1272,39040
1273,41472
1274,43776
1275,44544
1276,43648
1277,40640
1278,36928
1279,33728
1280,31616
1281,30464
1282,30016
1283,30208
1284,30656
1285,31232
1286,31744
1287,32256
1288,32768
1289,33152
1290,33408
1291,33600
1292,33792
1293,33920
1294,33920
1295,33856
1296,33856
1297,33920
1298,33856
1299,33792
1300,33792
1301,33856
1302,33856
1303,33792
1304,33856
1305,33920
1306,33984
1307,33984
1308,34048
1309,34112
1310,34112
1311,34112
1312,34112
1313,34240
1314,34304
1315,34240
1316,34240
1317,34304
1318,34368
1319,34432
1320,34432
1321,34496
1322,34560
1323,34560
1324,34560
1325,34560
1326,34624
1327,34560
1328,34496
1329,34496
1330,34560
1331,34496
1332,34368
1333,34304
1334,34304
1335,34304
1336,34240
1337,34176
1338,34176
1339,34112
1340,34048
1341,33984
1342,33920
1343,33856
1344,33728
1345,33664
1346,33664
1347,33664
1348,33600
1349,33472
1350,33536
1351,33664
1352,33664
1353,33600
1354,33664
1355,33728
1356,33792
1357,33792
1358,33792
1359,33920
1360,33920
1361,33920
1362,33920
1363,33984
1364,34048
1365,33984
1366,33920
1367,33984
1368,34048
1369,33984
1370,33920
1371,33984
1372,33984
1373,33984
1374,33920
1375,33984
1376,33984
1377,33920
1378,33856
1379,33920
1380,33920
1381,33984
1382,34112
1383,34240
1384,34432
1385,34560
1386,34496
1387,34496
1388,34624
1389,34752
1390,34816
1391,34880
1392,34944
1393,35072
1394,35072
1395,34944
1396,34816
1397,34688
1398,34368
1399,34048
1400,33728
1401,33472
1402,33152
1403,32960
1404,32960
1405,33024
1406,33152
1407,33216
1408,33280
1409,33472
1410,33600
1411,33600
1412,33664
1413,33664
1414,33472
1415,33088
1416,32704
1417,32896
1418,33920
1419,35648
1420,38016
1421,40576
1422,42880
1423,44352
1424,43968
1425,41792
1426,38464
1427,35008
1428,32256
1429,30656
1430,30016
1431,29952
1432,30272
1433,30784
1434,31424
1435,32000
1436,32448
1437,32832
1438,33216
1439,33536
1440,33728
1441,33856
1442,33984
1443,34048
1444,33984
1445,33920
1446,33920
1447,33920
1448,33856
1449,33792
1450,33792
1451,33856
1452,33856
1453,33856
1454,33920
1455,33984
1456,33984
1457,33920
1458,33920
1459,34048
1460,34112
1461,34112
1462,34112
1463,34240
1464,34368
1465,34432
1466,34496
1467,34624
1468,34688
1469,34688
1470,34688
1471,34752
1472,34816
1473,34752
1474,34688
1475,34688
1476,34624
1477,34560
1478,34560
1479,34496
1480,34560
1481,34560
1482,34432
1483,34368
1484,34368
1485,34368
1486,34368
1487,34304
1488,34240
1489,34176
1490,34112
1491,33920
1492,33728
1493,33600
1494,33408
1495,33280
1496,33408
1497,33536
1498,33600
1499,33664
1500,33728
1501,33856
1502,33920
1503,33920
1504,33920
1505,33984
1506,33984
1507,33984
1508,33920
1509,33984
1510,33984
1511,33856
1512,33664
1513,33664
1514,33728
1515,33728
1516,33728
1517,33856
1518,33984
1519,33984
1520,33984
1521,34048
1522,34048
1523,34048
1524,33984
1525,33984
1526,33984
1527,33984
1528,33792
1529,33664
1530,33664
1531,33792
1532,33856
1533,33920
1534,34112
1535,34240
1536,34368
1537,34432
1538,34560
1539,34624
1540,34624
1541,34752
1542,34880
1543,35008
1544,35008
1545,34944
1546,35008
1547,35136
1548,35072
1549,34752
1550,34368
1551,34112
1552,33856
1553,33536
1554,33152
1555,32896
1556,32704
1557,32448
1558,32640
1559,32896
1560,33024
1561,33024
1562,33024
1563,33088
1564,33280
1565,33472
1566,33472
1567,33280
1568,32960
1569,32640
1570,32704
1571,33600
1572,35264
1573,37568
1574,40768
1575,42368
1576,43904
1577,43968
1578,41792
1579,38336
1580,34880
1581,32128
1582,30400
1583,29696
1584,29760
1585,30144
1586,30656
1587,31168
1588,31744
1589,32320
1590,32832
1591,33216
1592,33472
1593,33600
1594,33536
1595,33600
1596,33856
1597,34112
1598,34112
1599,33984
1600,33984
1601,34176
1602,34240
1603,34112
1604,33920
1605,33856
1606,33792
1607,33728
1608,33920
1609,34112
1610,34240
1611,34240
1612,34240
1613,34240
1614,34304
1615,34304
1616,34304
1617,34304
1618,34304
1619,34432
1620,34496
1621,34496
1622,34560
1623,34560
1624,34560
1625,34560
1626,34688
1627,34816
1628,34880
1629,34816
1630,34816
1631,34752
1632,34496
1633,34304
1634,34304
1635,34240
1636,34112
1637,34112
1638,34240
1639,34368
1640,34176
1641,33984
1642,33920
1643,33920
1644,33856
1645,33728
1646,33600
1647,33472
1648,33344
1649,33216
1650,33152
1651,33216
1652,33408
1653,33536
1654,33600
1655,33728
1656,33792
1657,33792
1658,33856
1659,33920
1660,33984
1661,33984
1662,33920
1663,33984
1664,34048
1665,34048
1666,34048
1667,34176
1668,34304
1669,34304
1670,34240
1671,34240
1672,34304
1673,34304
1674,34240
1675,34240
1676,34304
1677,34240
1678,34176
1679,34112
1680,34112
1681,34176
1682,34304
1683,34496
1684,34688
1685,34816
1686,34816
1687,34816
1688,34944
1689,35136
1690,35200
1691,35264
1692,35328
1693,35456
1694,35520
1695,35392
1696,35328
1697,35200
1698,34944
1699,34752
1700,34496
1701,34176
1702,33728
1703,33280
1704,33088
1705,33088
1706,33088
1707,33152
1708,33280
1709,33472
1710,33728
1711,33792
1712,33856
1713,33920
1714,33856
1715,33600
1716,33216
1717,32960
1718,33216
1719,34240
1720,36096
1721,38592
1722,41152
1723,43328
1724,44608
1725,44096
1726,41728
1727,38208
1728,34752
1729,32064
1730,30592
1731,29888
1732,29888
1733,30272
1734,30976
1735,31744
1736,32320
1737,32832
1738,33280
1739,33728
1740,33856
1741,33920
1742,34048
1743,34112
1744,34176
1745,34048
1746,33984
1747,33984
1748,33856
1749,33792
1750,33728
1751,33856
1752,33920
1753,33984
1754,34048
1755,34112
1756,34112
1757,34112
1758,34048
1759,34112
1760,34112
1761,34048
1762,33984
1763,33984
1764,34048
1765,34176
1766,34240
1767,34304
1768,34432
1769,34432
1770,34432
1771,34496
1772,34624
1773,34624
1774,34560
1775,34560
1776,34624
1777,34624
1778,34560
1779,34496
1780,34432
1781,34368
1782,34304
1783,34176
1784,34240
1785,34176
1786,34112
1787,34048
1788,33984
1789,33984
1790,33984
1791,33984
1792,33984
1793,33984
1794,33856
1795,33728
1796,33792
1797,33984
1798,34048
1799,33856
1800,33728
1801,33600
1802,33472
1803,33344
1804,33344
1805,33472
1806,33664
1807,33664
1808,33728
1809,33792
1810,33920
1811,33984
1812,33984
1813,33984
1814,34048
1815,34048
1816,33984
1817,34048
1818,34048
1819,34048
1820,33920
1821,33920
1822,34048
1823,34048
1824,33984
1825,33984
1826,34176
1827,34368
1828,34432
1829,34496
1830,34560
1831,34688
1832,34688
1833,34816
1834,35008
1835,35136
1836,35072
1837,35072
1838,35008
1839,34816
1840,34496
1841,34048
1842,33792
1843,33600
1844,33280
1845,33088
1846,32960
1847,32960
1848,32960
1849,32960
1850,33216
1851,33344
1852,33472
1853,33600
1854,33664
1855,33664
1856,33472
1857,33152
1858,32704
1859,32640
1860,32512
1861,33408
1862,35136
1863,37504
1864,40000
1865,42240
1866,43840
1867,44160
1868,42432
1869,39040
1870,35584
1871,32768
1872,30912
1873,29888
1874,29824
1875,30016
1876,30656
1877,31168
1878,31680
1879,31744
1880,32640
1881,33024
1882,33344
1883,33664
1884,33920
1885,33984
1886,33984
1887,33920
1888,33920
1889,33856
1890,33792
1891,33728
1892,33792
1893,33856
1894,33856
1895,33856
1896,33984
1897,34048
1898,34048
1899,34048
1900,34112
1901,34176
1902,34112
1903,34112
1904,34048
1905,34240
1906,34304
1907,34304
1908,34304
1909,34304
1910,34304
1911,34368
1912,34496
1913,34688
1914,34624
1915,34496
1916,34496
1917,34496
1918,34560
1919,34496
1920,34560
1921,34560
1922,34560
1923,34560
1924,34496
1925,34752
1926,34880
1927,34944
1928,34624
1929,34304
1930,34048
1931,33792
1932,33664
1933,33728
1934,33728
1935,33728
1936,33664
1937,33664
1938,33792
1939,33728
1940,33728
1941,33728
1942,33856
1943,33856
1944,33920
1945,34112
1946,34240
1947,34240
1948,33792
1949,33728
1950,33600
1951,33600
1952,33664
1953,33728
1954,33856
1955,33984
1956,34048
1957,34048
1958,34112
1959,34176
1960,34240
1961,34304
1962,34368
1963,34368
1964,34304
1965,34240
1966,34304
1967,34368
1968,34368
1969,34304
1970,34304
1971,34496
1972,34688
1973,34816
1974,34880
1975,35008
1976,35136
1977,35264
1978,35264
1979,35136
1980,34880
1981,34432
1982,34112
1983,33856
1984,33600
1985,33344
1986,33024
1987,32896
1988,33024
1989,32960
1990,32960
1991,33024
1992,33216
1993,33472
1994,33472
1995,33600
1996,33728
1997,33728
1998,33472
1999,33024
2000,32704
2001,33088
2002,34240
2003,36288
2004,38784
2005,41280
2006,43392
2007,44352
2008,43712
2009,40768
2010,37376
2011,34048
2012,31680
2013,30336
2014,29760
2015,29824
2016,30272
2017,30912
2018,31488
2019,32000
2020,32640
2021,33280
2022,33728
2023,33792
2024,33728
2025,33728
2026,33728
2027,33728
2028,33728
2029,33792
2030,33920
2031,33920
2032,33920
2033,33984
2034,34048
2035,34048
2036,34048
2037,34304
2038,34496
2039,34304
2040,33984
2041,33856
2042,33856
2043,33856
2044,33856
2045,33920
2046,34048
2047,34176
2048,34240
2049,34368
2050,34496
2051,34624
2052,34752
2053,34880
2054,34880
2055,34816
2056,34688
2057,34432
2058,34240
2059,34176
2060,34176
2061,34240
2062,34304
2063,34432
2064,34432
2065,34368
2066,34304
2067,34368
2068,34496
2069,34496
2070,34432
2071,34432
2072,34368
2073,34176
2074,33728
2075,33408
2076,33280
2077,33216
2078,33216
2079,33344
2080,33472
2081,33536
2082,33600
2083,33664
2084,33792
2085,33792
2086,33728
2087,33792
2088,33920
2089,33920
2090,33856
2091,33792
2092,33856
2093,33792
2094,33728
2095,33792
2096,33856
2097,33920
2098,33856
2099,33792
2100,33792
2101,33856
2102,33984
2103,34112
2104,34304
2105,34496
2106,34496
2107,34368
2108,34432
2109,34496
2110,34624
2111,34752
2112,34752
2113,34752
2114,34752
2115,34688
2116,34688
2117,34816
2118,34816
2119,34688
2120,34432
2121,34112
2122,33664
2123,33280
2124,33024
2125,32960
2126,33024
2127,33088
2128,33088
2129,33088
2130,33152
2131,33216
2132,33216
2133,33344
2134,33600
2135,33664
2136,33408
2137,32960
2138,32576
2139,32640
2140,33408
2141,35072
2142,37568
2143,40192
2144,42624
2145,44352
2146,44800
2147,43200
2148,39744
2149,36096
2150,33024
2151,30976
2152,29952
2153,29632
2154,29824
2155,30336
2156,30976
2157,31680
2158,32448
2159,33024
2160,33344
2161,33472
2162,33600
2163,33664
2164,33664
2165,33664
2166,33664
2167,33728
2168,33792
2169,33792
2170,33728
2171,33792
2172,33856
2173,33984
2174,34112
2175,34240
2176,34240
2177,34240
2178,34240
2179,34048
2180,33792
2181,33600
2182,33536
2183,33600
2184,33792
2185,33984
2186,34048
2187,34240
2188,34432
2189,34560
2190,34624
2191,34752
2192,34944
2193,34816
2194,34624
2195,34432
2196,34432
2197,34496
2198,34368
2199,34304
2200,34304
2201,34368
2202,34432
2203,34368
2204,34368
2205,34368
2206,34240
2207,34112
2208,34048
2209,34112
2210,34112
2211,33920
2212,33792
2213,33728
2214,33728
2215,33664
2216,33728
2217,33728
2218,33600
2219,33408
2220,33280
2221,33280
2222,33344
2223,33408
2224,33472
2225,33536
2226,33600
2227,33664
2228,33792
2229,33920
2230,34048
2231,34112
2232,34112
2233,34112
2234,34176
2235,34048
2236,33920
2237,33920
2238,33920
2239,33856
2240,33792
2241,33856
2242,34048
2243,34304
2244,34496
2245,34560
2246,34624
2247,34752
2248,34880
2249,34944
2250,35008
2251,35072
2252,35136
2253,35136
2254,35072
2255,35072
2256,34816
2257,34432
2258,34048
2259,33792
2260,33408
2261,33088
2262,32832
2263,32832
2264,32960
2265,33024
2266,33152
2267,33280
2268,33472
2269,33728
2270,33984
2271,34112
2272,33984
2273,33600
2274,33152
2275,32704
2276,32448
2277,32768
2278,33792
2279,35776
2280,38144
2281,40704
2282,43008
2283,44608
2284,44736
2285,42496
2286,38784
2287,35072
2288,32192
2289,30336
2290,29376
2291,29248
2292,29696
2293,30400
2294,31040
2295,31744
2296,32384
2297,32960
2298,33344
2299,33536
2300,33664
2301,33792
2302,33856
2303,33920
2304,33984
2305,34112
2306,34048
2307,33792
2308,33664
2309,33600
2310,33600
2311,33536
2312,33664
2313,33792
2314,33856
2315,33792
2316,33792
2317,33920
2318,34048
2319,34112
2320,34176
2321,34368
2322,34304
2323,34176
2324,33984
2325,33984
2326,34112
2327,34240
2328,34240
2329,34368
2330,34560
2331,34624
2332,34624
2333,34688
2334,34688
2335,34688
2336,34560
2337,34496
2338,34432
2339,34368
2340,34240
2341,34176
2342,34176
2343,34304
2344,34176
2345,34112
2346,34176
2347,34304
2348,34368
2349,34176
2350,33984
2351,33856
2352,33664
2353,33536
2354,33472
2355,33472
2356,33472
2357,33408
2358,33472
2359,33600
2360,33664
2361,33664
2362,33664
2363,33728
2364,33792
2365,33856
2366,34048
2367,34304
2368,34432
2369,34368
2370,34368
2371,34240
2372,33984
2373,33728
2374,33664
2375,33728
2376,33920
2377,34048
2378,34112
2379,34240
2380,34432
2381,34688
2382,34816
2383,34944
2384,35008
2385,35072
2386,35008
2387,34816
2388,34624
2389,34560
2390,34624
2391,34624
2392,34624
2393,34560
2394,34240
2395,33920
2396,33664
2397,33536
2398,33344
2399,33216
2400,33216
2401,33216
2402,33216
2403,33152
2404,33216
2405,33536
2406,33728
2407,33728
2408,33600
2409,33472
2410,33280
2411,32896
2412,32384
2413,32128
2414,32448
2415,33472
2416,35328
2417,37888
2418,40832
2419,43008
2420,44608
2421,44800
2422,42752
2423,39104
2424,35392
2425,32320
2426,30528
2427,29632
2428,29440
2429,29632
2430,30272
2431,30976
2432,31616
2433,32320
2434,32768
2435,33216
2436,33472
2437,33664
2438,33792
2439,33920
2440,33856
2441,33792
2442,33728
2443,33728
2444,33664
2445,33664
2446,33728
2447,33792
2448,33856
2449,33920
2450,33920
2451,33984
2452,33984
2453,33984
2454,33920
2455,33984
2456,33984
2457,33984
2458,33984
2459,34048
2460,34112
2461,34048
2462,34112
2463,34240
2464,34368
2465,34368
2466,34496
2467,34752
2468,34880
2469,34816
2470,34816
2471,34816
2472,34816
2473,34688
2474,34432
2475,34368
2476,34368
2477,34304
2478,34240
2479,34176
2480,34176
2481,34176
2482,34112
2483,34176
2484,34240
2485,34240
2486,34304
2487,34176
2488,33984
2489,33792
2490,33536
2491,33344
2492,33344
2493,33408
2494,33344
2495,33344
2496,33408
2497,33600
2498,33664
2499,33664
2500,33728
2501,33920
2502,33984
2503,33920
2504,33984
2505,34176
2506,34304
2507,34176
2508,33984
2509,33856
2510,33856
2511,33792
2512,33856
2513,33856
2514,33984
2515,34176
2516,34304
2517,34368
2518,34432
2519,34496
2520,34560
2521,34688
2522,34624
2523,34368
2524,34240
2525,34240
2526,34432
2527,34560
2528,34688
2529,34816
2530,35008
2531,35072
2532,35072
2533,35008
2534,34816
2535,34432
2536,33984
2537,33664
2538,33344
2539,33152
2540,32960
2541,32896
2542,32960
2543,33088
2544,33216
2545,33280
2546,33344
2547,33536
2548,33600
2549,33600
2550,33536
2551,33472
2552,33280
2553,32960
2554,33088
2555,33984
2556,35840
2557,38400
2558,41024
2559,43392
2560,44800
2561,44608
2562,42176
2563,38464
2564,34560
2565,31936
2566,30272
2567,29632
2568,29632
2569,30080
2570,30592
2571,31232
2572,31936
2573,32448
2574,32832
2575,33152
2576,33472
2577,33664
2578,33792
2579,33920
2580,33984
2581,33920
2582,33856
2583,33856
2584,33792
2585,33664
2586,33536
2587,33408
2588,33472
2589,33600
2590,33664
2591,33792
2592,33920
2593,34048
2594,34240
2595,34304
2596,34240
2597,34112
2598,34048
2599,33984
2600,33984
2601,34048
2602,34048
2603,34112
2604,34240
2605,34368
2606,34496
2607,34432
2608,34432
2609,34560
2610,34688
2611,34816
2612,34816
2613,34816
2614,34816
2615,34688
2616,34560
2617,34496
2618,34496
2619,34496
2620,34432
2621,34368
2622,34304
2623,34176
2624,34048
2625,33984
2626,34048
2627,33984
2628,33856
2629,33728
2630,33728
2631,33728
2632,33728
2633,33664
2634,33728
2635,33728
2636,33600
2637,33472
2638,33472
2639,33536
2640,33536
2641,33600
2642,33664
2643,33792
2644,33920
2645,33984
2646,34048
2647,34112
2648,34048
2649,33984
2650,33984
2651,34112
2652,34112
2653,34112
2654,34112
2655,34112
2656,34112
2657,34048
2658,34048
2659,34112
2660,34176
2661,34176
2662,34240
2663,34432
2664,34688
2665,34688
2666,34688
2667,34816
2668,34880
2669,34880
2670,34880
2671,34944
2672,35072
2673,35072
2674,34944
2675,34752
2676,34496
2677,34176
2678,33664
2679,33280
2680,33088
2681,33088
2682,33024
2683,33024
2684,33152
2685,33408
2686,33600
2687,33600
2688,33536
2689,33600
2690,33664
2691,33728
2692,33600
2693,33280
2694,32768
2695,32384
2696,32896
2697,34304
2698,36544
2699,39296
2700,41856
2701,44224
2702,45376
2703,44544
2704,41472
2705,37632
2706,34240
2707,31744
2708,30336
2709,29760
2710,29760
2711,30080
2712,30528
2713,31104
2714,31680
2715,32192
2716,32640
2717,33088
2718,33472
2719,33664
2720,33664
2721,33792
2722,33984
2723,34112
2724,34048
2725,33984
2726,33920
2727,33856
2728,33792
2729,33792
2730,33920
2731,33984
2732,33920
2733,33728
2734,33664
2735,33728
2736,33728
2737,33664
2738,33728
2739,33792
2740,33920
2741,33984
2742,34176
2743,34304
2744,34368
2745,34368
2746,34368
2747,34496
2748,34560
2749,34560
2750,34560
2751,34560
2752,34560
2753,34560
2754,34496
2755,34496
2756,34368
2757,34240
2758,34112
2759,34112
2760,34240
2761,34304
2762,34240
2763,34304
2764,34304
2765,34240
2766,34112
2767,34048
2768,34048
2769,33920
2770,33728
2771,33728
2772,33728
2773,33600
2774,33408
2775,33216
2776,33344
2777,33408
2778,33472
2779,33408
2780,33472
2781,33536
2782,33600
2783,33600
2784,33728
2785,33792
2786,33856
2787,33920
2788,34048
2789,34176
2790,34240
2791,34240
2792,34176
2793,34048
2794,33984
2795,33920
2796,33920
2797,33984
2798,33920
2799,33856
2800,33856
2801,33984
2802,34112
2803,34112
2804,34112
2805,34112
2806,34048
2807,33984
2808,34048
2809,34240
2810,34496
2811,34624
2812,34688
2813,34752
2814,34880
2815,34816
2816,34688
2817,34688
2818,34752
2819,34688
2820,34624
2821,34624
2822,34688
2823,34560
2824,34304
2825,33984
2826,33792
2827,33472
2828,33216
2829,32960
2830,33024
2831,33088
2832,33216
2833,33216
2834,33280
2835,33344
2836,33408
2837,33344
2838,33472
2839,33472
2840,33216
2841,32832
2842,32576
2843,32640
2844,33408
2845,34880
2846,37184
2847,39808
2848,42304
2849,44352
2850,44992
2851,43648
2852,40320
2853,36416
2854,33152
2855,30976
2856,29824
2857,29440
2858,29632
2859,30208
2860,30976
2861,31552
2862,32064
2863,32512
2864,32960
2865,33216
2866,33408
2867,33600
2868,33792
2869,33792
2870,33728
2871,33728
2872,33792
2873,33792
2874,33664
2875,33664
2876,33728
2877,33856
2878,33856
2879,33792
2880,33728
2881,33664
2882,33664
2883,33728
2884,33856
2885,33984
2886,33984
2887,33984
2888,34048
2889,34112
2890,34176
2891,34176
2892,34240
2893,34368
2894,34496
2895,34432
2896,34432
2897,34560
2898,34688
2899,34688
2900,34624
2901,34560
2902,34560
2903,34496
2904,34432
2905,34432
2906,34368
2907,34240
2908,34112
2909,34112
2910,34112
2911,33984
2912,33920
2913,33920
2914,33984
2915,33856
2916,33728
2917,33728
2918,33792
2919,33728
2920,33600
2921,33664
2922,33664
2923,33472
2924,33152
2925,33088
2926,33152
2927,33280
2928,33344
2929,33344
2930,33472
2931,33664
2932,33664
2933,33728
2934,33856
2935,34048
2936,34240
2937,34176
2938,33984
2939,33728
2940,33600
2941,33600
2942,33728
2943,33920
2944,33920
2945,33856
2946,33792
2947,33856
2948,33856
2949,33920
2950,34112
2951,34304
2952,34496
2953,34560
2954,34560
2955,34624
2956,34688
2957,34752
2958,34816
2959,34880
2960,34944
2961,34880
2962,34880
2963,34816
2964,34752
2965,34496
2966,34240
2967,33984
2968,33856
2969,33600
2970,33280
2971,33024
2972,33024
2973,33088
2974,33152
2975,33280
2976,33344
2977,33408
2978,33344
2979,33344
2980,33472
2981,33664
2982,33664
2983,33408
2984,33024
2985,32576
2986,32448
2987,33024
2988,34624
2989,37056
2990,39744
2991,42240
2992,44032
2993,44608
2994,43136
2995,39808
2996,36224
2997,33216
2998,31104
2999,29952
3000,29568
3001,29888
3002,30400
3003,30976
3004,31552
3005,32064
3006,32512
3007,32960
3008,33344
3009,33664
3010,33920
3011,33984
3012,33920
3013,33984
3014,34112
3015,34048
3016,33856
3017,33664
3018,33664
3019,33664
3020,33600
3021,33600
3022,33728
3023,33792
3024,33792
3025,33856
3026,33920
3027,33920
3028,33792
3029,33792
3030,33856
3031,34048
3032,34176
3033,34432
3034,34560
3035,34624
3036,34432
3037,34368
3038,34368
3039,34432
3040,34560
3041,34496
3042,34432
3043,34432
3044,34496
3045,34496
3046,34496
3047,34560
3048,34496
3049,34432
3050,34368
3051,34368
3052,34304
3053,34240
3054,34176
3055,34048
3056,33920
3057,33856
3058,33792
3059,33920
3060,33984
3061,33984
3062,33728
3063,33536
3064,33536
3065,33536
3066,33408
3067,33344
3068,33408
3069,33472
3070,33408
3071,33472
3072,33536
3073,33600
3074,33600
3075,33728
3076,33856
3077,33984
3078,34048
3079,34048
3080,34048
3081,33984
3082,33856
3083,33728
3084,33728
3085,33792
3086,33792
3087,33728
3088,33792
3089,33984
3090,34048
3091,33920
3092,33792
3093,33856
3094,34112
3095,34304
3096,34432
3097,34368
3098,34304
3099,34176
3100,34048
3101,34176
3102,34368
3103,34560
3104,34624
3105,34688
3106,34816
3107,34944
3108,34944
3109,35008
3110,34880
3111,34688
3112,34368
3113,33984
3114,33728
3115,33408
3116,32960
3117,32704
3118,32640
3119,32768
3120,32832
3121,32896
3122,33088
3123,33280
3124,33280
3125,33344
3126,33472
3127,33664
3128,33472
3129,33216
3130,32896
3131,33024
3132,33792
3133,35328
3134,37568
3135,40128
3136,42432
3137,44096
3138,44544
3139,43008
3140,39680
3141,35968
3142,32832
3143,30848
3144,29824
3145,29440
3146,29632
3147,30144
3148,30784
3149,31552
3150,32128
3151,32768
3152,33280
3153,33536
3154,33664
3155,33856
3156,33920
3157,33856
3158,33792
3159,33728
3160,33792
3161,33792
3162,33728
3163,33792
3164,33984
3165,33984
3166,33792
3167,33600
3168,33536
3169,33600
3170,33600
3171,33600
3172,33728
3173,33856
3174,33920
3175,33984
3176,34112
3177,34240
3178,34240
3179,34176
3180,34240
3181,34304
3182,34432
3183,34624
3184,34880
3185,34944
3186,34752
3187,34496
3188,34432
3189,34432
3190,34496
3191,34432
3192,34368
3193,34368
3194,34368
3195,34304
3196,34304
3197,34368
3198,34368
3199,34240
3200,34240
3201,34240
3202,34112
3203,33856
3204,33728
3205,33728
3206,33792
3207,33600
3208,33408
3209,33344
3210,33344
3211,33472
3212,33536
3213,33600
3214,33664
3215,33664
3216,33600
3217,33600
3218,33664
3219,33792
3220,33728
3221,33600
3222,33664
3223,33728
3224,33792
3225,33792
3226,33856
3227,33920
3228,33792
3229,33664
3230,33728
3231,33856
3232,33920
3233,33920
3234,33920
3235,33984
3236,34112
3237,34112
3238,34048
3239,34048
3240,33920
3241,33792
3242,33664
3243,33728
3244,33856
3245,33984
3246,34048
3247,34176
3248,34176
3249,34176
3250,34240
3251,34496
3252,34688
3253,34752
3254,34688
3255,34816
3256,34944
3257,34944
3258,34816
3259,34688
3260,34496
3261,34240
3262,33920
3263,33664
3264,33536
3265,33280
3266,32960
3267,32896
3268,32896
3269,32960
3270,32896
3271,32896
3272,33088
3273,33344
3274,33472
3275,33536
3276,33664
3277,33728
3278,33472
3279,33088
3280,32960
3281,33600
3282,34944
3283,36736
3284,38976
3285,41344
3286,43456
3287,44480
3288,43904
3289,41088
3290,37696
3291,34240
3292,31616
3293,30080
3294,29504
3295,29568
3296,30080
3297,30784
3298,31360
3299,31872
3300,32320
3301,32768
3302,33152
3303,33344
3304,33472
3305,33536
3306,33664
3307,33664
3308,33600
3309,33728
3310,33920
3311,33920
3312,33728
3313,33664
3314,33728
3315,33792
3316,33792
3317,33856
3318,33856
3319,33856
3320,33728
3321,33664
3322,33600
3323,33600
3324,33728
3325,33792
3326,33984
3327,34176
3328,34304
3329,34432
3330,34496
3331,34624
3332,34688
3333,34688
3334,34688
3335,34688
3336,34688
3337,34624
3338,34560
3339,34496
3340,34496
3341,34432
3342,34432
3343,34496
3344,34496
3345,34368
3346,34304
3347,34368
3348,34432
3349,34368
3350,34368
3351,34304
3352,34176
3353,33856
3354,33600
3355,33408
3356,33280
3357,33216
3358,33216
3359,33280
3360,33408
3361,33472
3362,33472
3363,33472
3364,33600
3365,33664
3366,33728
3367,33728
3368,33856
3369,33920
3370,33984
3371,34048
3372,34048
3373,33856
3374,33600
3375,33472
3376,33600
3377,33728
3378,33728
3379,33728
3380,33856
3381,34112
3382,34176
3383,34240
3384,34304
3385,34240
3386,33984
3387,33728
3388,33600
3389,33600
3390,33600
3391,33600
3392,33600
3393,33728
3394,33920
3395,34112
3396,34240
3397,34432
3398,34560
3399,34560
3400,34496
3401,34560
3402,34688
3403,34816
3404,34816
3405,34816
3406,34880
3407,34880
3408,34816
3409,34688
3410,34432
3411,34048
3412,33664
3413,33472
3414,33408
3415,33280
3416,33088
3417,32960
3418,33024
3419,33152
3420,33216
3421,33216
3422,33280
3423,33408
3424,33408
3425,33408
3426,33536
3427,33536
3428,33408
3429,33024
3430,32704
3431,32832
3432,33856
3433,35648
3434,38656
3435,40640
3436,43008
3437,44672
3438,44864
3439,42944
3440,39360
3441,35584
3442,32512
3443,30592
3444,29632
3445,29376
3446,29568
3447,30144
3448,30912
3449,31616
3450,32128
3451,32704
3452,33216
3453,33600
3454,33920
3455,34048
3456,34112
3457,34112
3458,34112
3459,34048
3460,33920
3461,33728
3462,33600
3463,33536
3464,33664
3465,33728
3466,33792
3467,33856
3468,34112
3469,34496
3470,34560
3471,34304
3472,34176
3473,34240
3474,34240
3475,34112
3476,33984
3477,33984
3478,34112
3479,34112
3480,34176
3481,34368
3482,34496
3483,34560
3484,34624
3485,34752
3486,34816
3487,34816
3488,34816
3489,34944
3490,35008
3491,35072
3492,35008
3493,34880
3494,34752
3495,34496
3496,34240
3497,34048
3498,33984
3499,33920
3500,33920
3501,33984
3502,34048
3503,34048
3504,33856
3505,33728
3506,33664
3507,33600
3508,33472
3509,33408
3510,33344
3511,33344
3512,33344
3513,33408
3514,33536
3515,33664
3516,33600
3517,33600
3518,33728
3519,33792
3520,33728
3521,33664
3522,33728
3523,33792
3524,33728
3525,33600
3526,33664
3527,33728
3528,33728
3529,33728
3530,33920
3531,34048
3532,34112
3533,34048
3534,34048
3535,34176
3536,34176
3537,34112
3538,33984
3539,34048
3540,34048
3541,33984
3542,33920
3543,33984
3544,33984
3545,33920
3546,33920
3547,33920
3548,33920
3549,33984
3550,33984
3551,34176
3552,34432
3553,34560
3554,34624
3555,34560
3556,34560
3557,34560
3558,34624
3559,34688
3560,34816
3561,34944
3562,34880
3563,34816
3564,34816
3565,34688
3566,34432
3567,34112
3568,33984
3569,33728
3570,33472
3571,33152
3572,33024
3573,32960
3574,32896
3575,33024
3576,33280
3577,33536
3578,33664
3579,33728
3580,33792
3581,33920
3582,33792
3583,33472
3584,33024
3585,32768
3586,32640
3587,33216
3588,34688
3589,36992
3590,39680
3591,42240
3592,44352
3593,45312
3594,44480
3595,41344
3596,37632
3597,34432
3598,31936
3599,30336
3600,29696
3601,29696
3602,29952
3603,30464
3604,31040
3605,31680
3606,32384
3607,32960
3608,33344
3609,33664
3610,33856
3611,34048
3612,34048
3613,34112
3614,34304
3615,34496
3616,34688
3617,34560
3618,34304
3619,34240
3620,33920
3621,33600
3622,33600
3623,33728
3624,33728
3625,33664
3626,33728
3627,33920
3628,34048
3629,34176
3630,34240
3631,34496
3632,34624
3633,34624
3634,34624
3635,34624
3636,34624
3637,34624
3638,34624
3639,34816
3640,34880
3641,34688
3642,34560
3643,34560
3644,34688
3645,34688
3646,34752
3647,34880
3648,34880
3649,34816
3650,34624
3651,34560
3652,34624
3653,34624
3654,34496
3655,34432
3656,34368
3657,34240
3658,34112
3659,34048
3660,34240
3661,34240
3662,33984
3663,33728
3664,33664
3665,33472
3666,33216
3667,33088
3668,33216
3669,33344
3670,33408
3671,33536
3672,33664
3673,33664
3674,33600
3675,33536
3676,33856
3677,33984
3678,34048
3679,34048
3680,34048
3681,34048
3682,33920
3683,33920
3684,33984
3685,34048
3686,34048
3687,34048
3688,34048
3689,34048
3690,33984
3691,33920
3692,33920
3693,34048
3694,34048
3695,33920
3696,33792
3697,33728
3698,33664
3699,33600
3700,33600
3701,33600
3702,33664
3703,33728
3704,33728
3705,33728
3706,33792
3707,33792
3708,33920
3709,34112
3710,34304
3711,34368
3712,34368
3713,34432
3714,34496
3715,34560
3716,34624
3717,34688
3718,34880
3719,34816
3720,34816
3721,34752
3722,34752
3723,34560
3724,34240
3725,33920
3726,33664
3727,33408
3728,33088
3729,32832
3730,32832
3731,32832
3732,32896
3733,33088
3734,33088
3735,33344
3736,33408
3737,33408
3738,33536
3739,33664
3740,33664
3741,33536
3742,33344
3743,33024
3744,33024
3745,33728
3746,35328
3747,37568
3748,41216
3749,41472
3750,44480
3751,45120
3752,43648
3753,40128
3754,36224
3755,33152
3756,31104
3757,30016
3758,29696
3759,29952
3760,30464
3761,31040
3762,31616
3763,32192
3764,32768
3765,33216
3766,33472
3767,33728
3768,33856
3769,33856
3770,33792
3771,33792
3772,33856
3773,33920
3774,33920
3775,33920
3776,33984
3777,34048
3778,33920
3779,33920
3780,33984
3781,34048
3782,33920
3783,33792
3784,33792
3785,33856
3786,33856
3787,33792
3788,33856
3789,33984
3790,34112
3791,34176
3792,34240
3793,34496
3794,34432
3795,34496
3796,34560
3797,34688
3798,34752
3799,34688
3800,34688
3801,34752
3802,34752
3803,34688
3804,34624
3805,34624
3806,34688
3807,34560
3808,34496
3809,34496
3810,34560
3811,34560
3812,34432
3813,34368
3814,34304
3815,34176
3816,34048
3817,33920
3818,33856
3819,33792
3820,33664
3821,33600
3822,33600
3823,33536
3824,33472
3825,33408
3826,33472
3827,33536
3828,33600
3829,33536
3830,33600
3831,33600
3832,33664
3833,33664
3834,33792
3835,33856
3836,33856
3837,33792
3838,33856
3839,33856
3840,33920
3841,33920
3842,33984
3843,34048
3844,34112
3845,34048
3846,34048
3847,34048
3848,34048
3849,33984
3850,33984
3851,33984
3852,34048
3853,34048
3854,33984
3855,34112
3856,34176
3857,34112
3858,34048
3859,34048
3860,33984
3861,33920
3862,33792
3863,33856
3864,33920
3865,33920
3866,33920
3867,33920
3868,33984
3869,34048
3870,33984
3871,33920
3872,33984
3873,33984
3874,33984
3875,34048
3876,34240
3877,34432
3878,34560
3879,34624
3880,34688
3881,34688
3882,34752
3883,34880
3884,34816
3885,35008
3886,35072
3887,35072
3888,35136
3889,35136
3890,35008
3891,34688
3892,34432
3893,34176
3894,33856
3895,33536
3896,33216
3897,33088
3898,33088
3899,33024
3900,33088
3901,33216
3902,33344
3903,33408
3904,33472
3905,33600
3906,33728
3907,33792
3908,33664
3909,33472
3910,33152
3911,33088
3912,33664
3913,35328
3914,37312
3915,39744
3916,42176
3917,44096
3918,44928
3919,43776
3920,40512
3921,36672
3922,33408
3923,31232
3924,30016
3925,29632
3926,29824
3927,30336
3928,31296
3929,31296
3930,32192
3931,32704
3932,33088
3933,33344
3934,33600
3935,33792
3936,33920
3937,33920
3938,33984
3939,33984
3940,33984
3941,33920
3942,33856
3943,33984
3944,33920
3945,33920
3946,33856
3947,33920
3948,33920
3949,33920
3950,33856
3951,33920
3952,33984
3953,33984
3954,33984
3955,34112
3956,34176
3957,34176
3958,34304
3959,34240
3960,34432
3961,34432
3962,34496
3963,34560
3964,34752
3965,34816
3966,34752
3967,34816
3968,34944
3969,35008
3970,34944
3971,34944
3972,34944
3973,34944
3974,34816
3975,34688
3976,34688
3977,34624
3978,34496
3979,34368
3980,34368
3981,34368
3982,34240
3983,34112
3984,34048
3985,34048
3986,33984
3987,33792
3988,33664
3989,33600
3990,33472
3991,33344
3992,33344
3993,33408
3994,33472
3995,33408
3996,33472
3997,33600
3998,33664
3999,33664
4000,33664
4001,33728
4002,33792
4003,33728
4004,33728
4005,33856
4006,33920
4007,33984
4008,33984
4009,34048
4010,34048
4011,34048
4012,33984
4013,33984
4014,34048
4015,34048
4016,33984
4017,33984
4018,33984
4019,33984
4020,33920
4021,33856
4022,33920
4023,33984
4024,33920
4025,33920
4026,33920
4027,33984
4028,33984
4029,33920
4030,33984
4031,33984
4032,33984
4033,33920
4034,33920
4035,33984
4036,33984
4037,33856
4038,33920
4039,34048
4040,34176
4041,34304
4042,34496
4043,34624
4044,34688
4045,34624
4046,34560
4047,34624
4048,34752
4049,34816
4050,34816
4051,34880
4052,34944
4053,34816
4054,34560
4055,34304
4056,34112
4057,33920
4058,33664
4059,33472
4060,33344
4061,33152
4062,33088
4063,33216
4064,33408
4065,33472
4066,33472
4067,33472
4068,33536
4069,33472
4070,33344
4071,33280
4072,33344
4073,33216
4074,32896
4075,32704
4076,33216
4077,34496
4078,36352
4079,38720
4080,41152
4081,43328
4082,44544
4083,44160
4084,41792
4085,38272
4086,34816
4087,32064
4088,30400
4089,29632
4090,29632
4091,29952
4092,30592
4093,31360
4094,32000
4095,32576
4096,33024
4097,33472
4098,33792
4099,33856
4100,33920
4101,33984
4102,34048
4103,33984
4104,33920
4105,33920
4106,33920
4107,33920
4108,33856
4109,33856
4110,33920
4111,33920
4112,33856
4113,33920
4114,33984
4115,34048
4116,34048
4117,34048
4118,34176
4119,34240
4120,34240
4121,34240
4122,34304
4123,34368
4124,34368
4125,34432
4126,34496
4127,34560
4128,34624
4129,34624
4130,34688
4131,34816
4132,34816
4133,34752
4134,34752
4135,34752
4136,34752
4137,34624
4138,34624
4139,34624
4140,34624
4141,34496
4142,34432
4143,34432
4144,34368
4145,33984
4146,33664
4147,33664
4148,33664
4149,33600
4150,33600
4151,33664
4152,33728
4153,33664
4154,33600
4155,33536
4156,33600
4157,33536
4158,33536
4159,33536
4160,33600
4161,33664
4162,33600
4163,33664
4164,33664
4165,33728
4166,33664
4167,33664
4168,33792
4169,33856
4170,33728
4171,33728
4172,33792
4173,33856
4174,33792
4175,33792
4176,33856
4177,33920
4178,33920
4179,33920
4180,33920
4181,33920
4182,33856
4183,33792
4184,33792
4185,33856
4186,33856
4187,33856
4188,33856
4189,33984
4190,33984
4191,33920
4192,33920
4193,33984
4194,34048
4195,34048
4196,34048
4197,34240
4198,34432
4199,34496
4200,34496
4201,34496
4202,34560
4203,34560
4204,34624
4205,34688
4206,34880
4207,35008
4208,35008
4209,35072
4210,35008
4211,34880
4212,34496
4213,34176
4214,33920
4215,33664
4216,33280
4217,33088
4218,32960
4219,33024
4220,33088
4221,33216
4222,33408
4223,33600
4224,33664
4225,33664
4226,33792
4227,33856
4228,33856
4229,33664
4230,33408
4231,33088
4232,33088
4233,33728
4234,35072
4235,37184
4236,39616
4237,41920
4238,43776
4239,44544
4240,43456
4241,40384
4242,36800
4243,33728
4244,31552
4245,30336
4246,29888
4247,30080
4248,30656
4249,31232
4250,31808
4251,32384
4252,32896
4253,33280
4254,33536
4255,33792
4256,34048
4257,34112
4258,34112
4259,34048
4260,34048
4261,34048
4262,33984
4263,33984
4264,34048
4265,34112
4266,34048
4267,34112
4268,34176
4269,34240
4270,34176
4271,34112
4272,34176
4273,34240
4274,34304
4275,34240
4276,34304
4277,34496
4278,34496
4279,34496
4280,34624
4281,34816
4282,34880
4283,34944
4284,34944
4285,35072
4286,35072
4287,35072
4288,35136
4289,35200
4290,35264
4291,35200
4292,35136
4293,35136
4294,35136
4295,35072
4296,34944
4297,34880
4298,34816
4299,34752
4300,34688
4301,34624
4302,34688
4303,34624
4304,34496
4305,34368
4306,34304
4307,34176
4308,33984
4309,33920
4310,33920
4311,33856
4312,33792
4313,33728
4314,33792
4315,33856
4316,33856
4317,33792
4318,33856
4319,33856
4320,33920
4321,33920
4322,33984
4323,34048
4324,34048
4325,34048
4326,34112
4327,34240
4328,34240
4329,34176
4330,34176
4331,34176
4332,34176
4333,34112
4334,34112
4335,34176
4336,34112
4337,34048
4338,33984
4339,34048
4340,34048
4341,33984
4342,34048
4343,34048
4344,34112
4345,34048
4346,33984
4347,33984
4348,34048
4349,33984
4350,33920
4351,33920
4352,33920
4353,33856
4354,33792
4355,33792
4356,33920
4357,33856
4358,33792
4359,33792
4360,33920
4361,33920
4362,33792
4363,33728
4364,33728
4365,33728
4366,33664
4367,33600
4368,33728
4369,33856
4370,33984
4371,34112
4372,34304
4373,34432
4374,34432
4375,34368
4376,34432
4377,34560
4378,34624
4379,34624
4380,34688
4381,34816
4382,34816
4383,34752
4384,34624
4385,34496
4386,34240
4387,33920
4388,33536
4389,33152
4390,32960
4391,32832
4392,32768
4393,32832
4394,33024
4395,33088
4396,33216
4397,33344
4398,33472
4399,33600
4400,33600
4401,33600
4402,33600
4403,33280
4404,32896
4405,32896
4406,33664
4407,35264
4408,37440
4409,40064
4410,42496
4411,44480
4412,45184
4413,43904
4414,40576
4415,36736
4416,33344
4417,31040
4418,29888
4419,29504
4420,29632
4421,30080
4422,30720
4423,31360
4424,32000
4425,32448
4426,32896
4427,33280
4428,33536
4429,33600
4430,33664
4431,33728
4432,33792
4433,33792
4434,33792
4435,33856
4436,33856
4437,33792
4438,33728
4439,33728
4440,33792
4441,33728
4442,33728
4443,33856
4444,33920
4445,33920
4446,33984
4447,34048
4448,34176
4449,34176
4450,34112
4451,34048
4452,34176
4453,34240
4454,34240
4455,34240
4456,34432
4457,34560
4458,34560
4459,34624
4460,34624
4461,34752
4462,34752
4463,34752
4464,34816
4465,34880
4466,34880
4467,34816
4468,34816
4469,34816
4470,34688
4471,34560
4472,34496
4473,34496
4474,34496
4475,34432
4476,34432
4477,34432
4478,34368
4479,34176
4480,34112
4481,34048
4482,33984
4483,33856
4484,33792
4485,33792
4486,33792
4487,33664
4488,33664
4489,33664
4490,33728
4491,33728
4492,33728
4493,33856
4494,33984
4495,33984
4496,33984
4497,33984
4498,34048
4499,34048
4500,33984
4501,33984
4502,33984
4503,34048
4504,33984
4505,34048
4506,34176
4507,34240
4508,34112
4509,34048
4510,33984
4511,33984
4512,33920
4513,33856
4514,33984
4515,34048
4516,34112
4517,34112
4518,34112
4519,34176
4520,34176
4521,34112
4522,34048
4523,34048
4524,33984
4525,33920
4526,33856
4527,33920
4528,33920
4529,33792
4530,33728
4531,33792
4532,33856
4533,33856
4534,33856
4535,33920
4536,34112
4537,34240
4538,34304
4539,34432
4540,34496
4541,34560
4542,34560
4543,34624
4544,34752
4545,34752
4546,34816
4547,34880
4548,34944
4549,34816
4550,34496
4551,34240
4552,34048
4553,33728
4554,33344
4555,33152
4556,33088
4557,33024
4558,32960
4559,32960
4560,33088
4561,33280
4562,33344
4563,33408
4564,33536
4565,33664
4566,33728
4567,33664
4568,33536
4569,33280
4570,32960
4571,32896
4572,33728
4573,35392
4574,37696
4575,40128
4576,42496
4577,44416
4578,44992
4579,43392
4580,39936
4581,36224
4582,33088
4583,30976
4584,29888
4585,29632
4586,29888
4587,30400
4588,31040
4589,31680
4590,32320
4591,32768
4592,33088
4593,33408
4594,33728
4595,33920
4596,33984
4597,34048
4598,34176
4599,34176
4600,34048
4601,33984
4602,34048
4603,34048
4604,33920
4605,33856
4606,33856
4607,33856
4608,33792
4609,33792
4610,33856
4611,33920
4612,33984
4613,33984
4614,34048
4615,34176
4616,34176
4617,34176
4618,34240
4619,34432
4620,34496
4621,34496
4622,34496
4623,34496
4624,34560
4625,34496
4626,34496
4627,34560
4628,34624
4629,34688
4630,34752
4631,34816
4632,34816
4633,34688
4634,34624
4635,34560
4636,34560
4637,34368
4638,34304
4639,34240
4640,34240
4641,34112
4642,33984
4643,33920
4644,33920
4645,33792
4646,33664
4647,33600
4648,33600
4649,33536
4650,33472
4651,33408
4652,33408
4653,33472
4654,33472
4655,33472
4656,33536
4657,33600
4658,33536
4659,33536
4660,33600
4661,33664
4662,33664
4663,33664
4664,33792
4665,33856
4666,33920
4667,33920
4668,33984
4669,34048
4670,34048
4671,33984
4672,33920
4673,33984
4674,33984
4675,33920
4676,33920
4677,33984
4678,33984
4679,33984
4680,33920
4681,34048
4682,34176
4683,34176
4684,34112
4685,34112
4686,34048
4687,33984
4688,33920
4689,33984
4690,34048
4691,34112
4692,34176
4693,34368
4694,34560
4695,34560
4696,34560
4697,34496
4698,34560
4699,34624
4700,34688
4701,34816
4702,34944
4703,35072
4704,35072
4705,35072
4706,35008
4707,34880
4708,34624
4709,34304
4710,33984
4711,33664
4712,33344
4713,33152
4714,33216
4715,33280
4716,33408
4717,33472
4718,33600
4719,33792
4720,33856
4721,33856
4722,33856
4723,33984
4724,34048
4725,33792
4726,33408
4727,33088
4728,33152
4729,33920
4730,35392
4731,37632
4732,40192
4733,42624
4734,44480
4735,45120
4736,43776
4737,40512
4738,36800
4739,33600
4740,31488
4741,30336
4742,29952
4743,30144
4744,30784
4745,31424
4746,32064
4747,32576
4748,33088
4749,33536
4750,33792
4751,34048
4752,34240
4753,34368
4754,34368
4755,34304
4756,34304
4757,34240
4758,34176
4759,34176
4760,34240
4761,34368
4762,34368
4763,34432
4764,34368
4765,34240
4766,34048
4767,33920
4768,33920
4769,34112
4770,34304
4771,34496
4772,34496
4773,34368
4774,34240
4775,34176
4776,34240
4777,34240
4778,34304
4779,34304
4780,34368
4781,34560
4782,34688
4783,34752
4784,34816
4785,34944
4786,35008
4787,34944
4788,34944
4789,34944
4790,34880
4791,34816
4792,34688
4793,34624
4794,34624
4795,34560
4796,34432
4797,34304
4798,34304
4799,34240
4800,34112
4801,33984
4802,33920
4803,33792
4804,33664
4805,33536
4806,33472
4807,33472
4808,33344
4809,33344
4810,33344
4811,33408
4812,33408
4813,33408
4814,33408
4815,33408
4816,33344
4817,33408
4818,33536
4819,33728
4820,33856
4821,33792
4822,33792
4823,33792
4824,33728
4825,33728
4826,33664
4827,33664
4828,33600
4829,33536
4830,33536
4831,33664
4832,33728
4833,33728
4834,33728
4835,33728
4836,33792
4837,33728
4838,33728
4839,33792
4840,33792
4841,33792
4842,33728
4843,33664
4844,33664
4845,33664
4846,33600
4847,33536
4848,33600
4849,33600
4850,33664
4851,33728
4852,33920
4853,34112
4854,34304
4855,34304
4856,34368
4857,34432
4858,34496
4859,34496
4860,34624
4861,34688
4862,34688
4863,34688
4864,34688
4865,34752
4866,34560
4867,34240
4868,33920
4869,33664
4870,33344
4871,33088
4872,32896
4873,32896
4874,32960
4875,33024
4876,33088
4877,33216
4878,33344
4879,33408
4880,33472
4881,33536
4882,33664
4883,33664
4884,33536
4885,33280
4886,33024
4887,32960
4888,33664
4889,35328
4890,37376
4891,39808
4892,42112
4893,43968
4894,44800
4895,43648
4896,40512
4897,36800
4898,33536
4899,31232
4900,29952
4901,29504
4902,29760
4903,30272
4904,30848
4905,31424
4906,32064
4907,32640
4908,33152
4909,33472
4910,33728
4911,33920
4912,34048
4913,34112
4914,34112
4915,34112
4916,33984
4917,33792
4918,33600
4919,33600
4920,33728
4921,33856
4922,33920
4923,33856
4924,33728
4925,33600
4926,33600
4927,33728
4928,33856
4929,33920
4930,33984
4931,34112
4932,34240
4933,34304
4934,34304
4935,34432
4936,34496
4937,34432
4938,34368
4939,34432
4940,34624
4941,34752
4942,34752
4943,34688
4944,34688
4945,34624
4946,34496
4947,34496
4948,34560
4949,34624
4950,34560
4951,34496
4952,34496
4953,34496
4954,34432
4955,34432
4956,34560
4957,34624
4958,34560
4959,34304
4960,33984
4961,33856
4962,33664
4963,33472
4964,33408
4965,33472
4966,33472
4967,33408
4968,33408
4969,33536
4970,33664
4971,33920
4972,34112
4973,34048
4974,33920
4975,33664
4976,33600
4977,33792
4978,34048
4979,33920
4980,33728
4981,33664
4982,33600
4983,33664
4984,33792
4985,33984
4986,34240
4987,34304
4988,34304
4989,34176
4990,34176
4991,34176
4992,34048
4993,34048
4994,34048
4995,34048
4996,33984
4997,33920
4998,33984
4999,34048
5000,34112
5001,34112
5002,34240
5003,34368
5004,34432
5005,34496
5006,34560
5007,34688
5008,34752
5009,34688
5010,34752
5011,34816
5012,34752
5013,34688
5014,34688
5015,34752
5016,34880
5017,34944
5018,35008
5019,35072
5020,34944
5021,34560
5022,34112
5023,33728
5024,33408
5025,33152
5026,33088
5027,33216
5028,33280
5029,33280
5030,33216
5031,33280
5032,33472
5033,33600
5034,33728
5035,33856
5036,33920
5037,33792
5038,33344
5039,32896
5040,32832
5041,33536
5042,35072
5043,37312
5044,40064
5045,42496
5046,44544
5047,45312
5048,44224
5049,41024
5050,37184
5051,33792
5052,31552
5053,30400
5054,29888
5055,29952
5056,30272
5057,30912
5058,31552
5059,32064
5060,32576
5061,33024
5062,33344
5063,33536
5064,33792
5065,34048
5066,34176
5067,34176
5068,34240
5069,34304
5070,34176
5071,34048
5072,33920
5073,33920
5074,33984
5075,33920
5076,33856
5077,33856
5078,33920
5079,33856
5080,33856
5081,33984
5082,34112
5083,34176
5084,34240
5085,34304
5086,34432
5087,34432
5088,34496
5089,34560
5090,34560
5091,34496
5092,34368
5093,34368
5094,34432
5095,34560
5096,34624
5097,34752
5098,34816
5099,34752
5100,34624
5101,34560
5102,34560
5103,34560
5104,34496
5105,34368
5106,34240
5107,34304
5108,34240
5109,34240
5110,34176
5111,34176
5112,34048
5113,33856
5114,33728
5115,33664
5116,33600
5117,33472
5118,33472
5119,33536
5120,33536
5121,33344
5122,33152
5123,33088
5124,33152
5125,33216
5126,33280
5127,33408
5128,33536
5129,33472
5130,33408
5131,33472
5132,33600
5133,33664
5134,33728
5135,33856
5136,33984
5137,33984
5138,33856
5139,33728
5140,33728
5141,33792
5142,33728
5143,33728
5144,33856
5145,33856
5146,33792
5147,33600
5148,33600
5149,33664
5150,33664
5151,33664
5152,33728
5153,33856
5154,34048
5155,34112
5156,34304
5157,34432
5158,34432
5159,34432
5160,34432
5161,34368
5162,34432
5163,34496
5164,34624
5165,34816
5166,34880
5167,34688
5168,34304
5169,33920
5170,33664
5171,33280
5172,33024
5173,32960
5174,32960
5175,32960
5176,32960
5177,32960
5178,33088
5179,33216
5180,33280
5181,33472
5182,33728
5183,33856
5184,33728
5185,33472
5186,33216
5187,32768
5188,32512
5189,33216
5190,34496
5191,36416
5192,38848
5193,41280
5194,43456
5195,44736
5196,44288
5197,41664
5198,38016
5199,34560
5200,32000
5201,30464
5202,29888
5203,29824
5204,30080
5205,30528
5206,31168
5207,31744
5208,32256
5209,32768
5210,33216
5211,33664
5212,33856
5213,33920
5214,33984
5215,34048
5216,34048
5217,33984
5218,33856
5219,33792
5220,33728
5221,33728
5222,33728
5223,33728
5224,33792
5225,33792
5226,33792
5227,33792
5228,33856
5229,33792
5230,33792
5231,33856
5232,34048
5233,34112
5234,34112
5235,34240
5236,34432
5237,34560
5238,34496
5239,34368
5240,34368
5241,34368
5242,34304
5243,34304
5244,34432
5245,34560
5246,34624
5247,34624
5248,34688
5249,34688
5250,34624
5251,34624
5252,34624
5253,34560
5254,34432
5255,34304
5256,34176
5257,34176
5258,34176
5259,34176
5260,34112
5261,34048
5262,33920
5263,33792
5264,33728
5265,33664
5266,33600
5267,33472
5268,33472
5269,33600
5270,33664
5271,33600
5272,33536
5273,33536
5274,33664
5275,33664
5276,33664
5277,33728
5278,33856
5279,33856
5280,33856
5281,33856
5282,33984
5283,34048
5284,34048
5285,33984
5286,34048
5287,34112
5288,34048
5289,34048
5290,34176
5291,34240
5292,34176
5293,34048
5294,33984
5295,33984
5296,33984
5297,34048
5298,34240
5299,34560
5300,34624
5301,34624
5302,34560
5303,34624
5304,34624
5305,34560
5306,34688
5307,34944
5308,35200
5309,35456
5310,35328
5311,35072
5312,34752
5313,34368
5314,33920
5315,33600
5316,33344
5317,33024
5318,32896
5319,32960
5320,33088
5321,33088
5322,33088
5323,33280
5324,33664
5325,33856
5326,33920
5327,33920
5328,33920
5329,33728
5330,33408
5331,32960
5332,32640
5333,32768
5334,33728
5335,35520
5336,38016
5337,40704
5338,43072
5339,44672
5340,44928
5341,42944
5342,39360
5343,35776
5344,32768
5345,30912
5346,29824
5347,29504
5348,29824
5349,30528
5350,31168
5351,31680
5352,32256
5353,32832
5354,33344
5355,33472
5356,33600
5357,33792
5358,33920
5359,33984
5360,33920
5361,33984
5362,34048
5363,33984
5364,33920
5365,33920
5366,33984
5367,33984
5368,33856
5369,33856
5370,33856
5371,33792
5372,33728
5373,33792
5374,33920
5375,34048
5376,34048
5377,34048
5378,34112
5379,34176
5380,34176
5381,34240
5382,34368
5383,34560
5384,34560
5385,34496
5386,34560
5387,34624
5388,34560
5389,34560
5390,34624
5391,34688
5392,34624
5393,34496
5394,34496
5395,34496
5396,34432
5397,34432
5398,34496
5399,34496
5400,34432
5401,34304
5402,34304
5403,34240
5404,34240
5405,34240
5406,34176
5407,34112
5408,33856
5409,33664
5410,33536
5411,33536
5412,33600
5413,33536
5414,33536
5415,33600
5416,33728
5417,33792
5418,33856
5419,33920
5420,33856
5421,33728
5422,33664
5423,33792
5424,33984
5425,34048
5426,34048
5427,33984
5428,33984
5429,33984
5430,33920
5431,33856
5432,33920
5433,34048
5434,34048
5435,34048
5436,34112
5437,34048
5438,33984
5439,33920
5440,33984
5441,34112
5442,34240
5443,34368
5444,34560
5445,34688
5446,34688
5447,34688
5448,34752
5449,34944
5450,35072
5451,35008
5452,35008
5453,35136
5454,35072
5455,34880
5456,34624
5457,34432
5458,34112
5459,33536
5460,33216
5461,32960
5462,32832
5463,32832
5464,32896
5465,33088
5466,33280
5467,33344
5468,33344
5469,33472
5470,33664
5471,33664
5472,33664
5473,33664
5474,33536
5475,33152
5476,32704
5477,32704
5478,33728
5479,35712
5480,38208
5481,40896
5482,43392
5483,45120
5484,45248
5485,43008
5486,39296
5487,32576
5488,30656
5489,29760
5490,29632
5491,29888
5492,30400
5493,31168
5494,31232
5495,32512
5496,32960
5497,33408
5498,33728
5499,33920
5500,33984
5501,33984
5502,33984
5503,33984
5504,33920
5505,33856
5506,33920
5507,33920
5508,33856
5509,33792
5510,33856
5511,33920
5512,33984
5513,34048
5514,34112
5515,34176
5516,34112
5517,34112
5518,34240
5519,34240
5520,34368
5521,34368
5522,34368
5523,34368
5524,34304
5525,34240
5526,34240
5527,34368
5528,34496
5529,34496
5530,34496
5531,34624
5532,34752
5533,34752
5534,34688
5535,34752
5536,34752
5537,34752
5538,34944
5539,35072
5540,34880
5541,34496
5542,34176
5543,33984
5544,33984
5545,33984
5546,33984
5547,34048
5548,34176
5549,34176
5550,34112
5551,34112
5552,34112
5553,33984
5554,33920
5555,33472
5556,33472
5557,33408
5558,33408
5559,33344
5560,33472
5561,33600
5562,33664
5563,33728
5564,33664
5565,33984
5566,33984
5567,33984
5568,34048
5569,34048
5570,33984
5571,33920
5572,33920
5573,33920
5574,33984
5575,33920
5576,33920
5577,34048
5578,34048
5579,33984
5580,33920
5581,34048
5582,34176
5583,34176
5584,34176
5585,34112
5586,34176
5587,34240
5588,34304
5589,34432
5590,34560
5591,34496
5592,34368
5593,34432
5594,34496
5595,34560
5596,34560
5597,34624
5598,34816
5599,34944
5600,35008
5601,34944
5602,34752
5603,34496
5604,34048
5605,33600
5606,33280
5607,32896
5608,32512
5609,32448
5610,32576
5611,32768
5612,32960
5613,33088
5614,33280
5615,33344
5616,33344
5617,33344
5618,33344
5619,33344
5620,33088
5621,32704
5622,32640
5623,33920
5624,34048
5625,37184
5626,39744
5627,42368
5628,44416
5629,44992
5630,43520
5631,40192
5632,36416
5633,33152
5634,30912
5635,29824
5636,29568
5637,29760
5638,30464
5639,30464
5640,31296
5641,31744
5642,32192
5643,32768
5644,33280
5645,33600
5646,33728
5647,33856
5648,33920
5649,33984
5650,33920
5651,33856
5652,33856
5653,33920
5654,33920
5655,33920
5656,33920
5657,33920
5658,33856
5659,33728
5660,33728
5661,33728
5662,33664
5663,33664
5664,33792
5665,33920
5666,33984
5667,34048
5668,34240
5669,34240
5670,34560
5671,34688
5672,34688
5673,34688
5674,34496
5675,34304
5676,34176
5677,34304
5678,34368
5679,34368
5680,34368
5681,34432
5682,34560
5683,34496
5684,34432
5685,34560
5686,34496
5687,34368
5688,34240
5689,34304
5690,34368
5691,34304
5692,34240
5693,34176
5694,34112
5695,33856
5696,33536
5697,33408
5698,33408
5699,33408
5700,33408
5701,33472
5702,33536
5703,33600
5704,33600
5705,33600
5706,33664
5707,33664
5708,33664
5709,33664
5710,33856
5711,34048
5712,33920
5713,33536
5714,33472
5715,33472
5716,33600
5717,33792
5718,33920
5719,34048
5720,34048
5721,34048
5722,34048
5723,34176
5724,34176
5725,34048
5726,33984
5727,33984
5728,33984
5729,33920
5730,34048
5731,34176
5732,34432
5733,34496
5734,34560
5735,34624
5736,34752
5737,34752
5738,34688
5739,34624
5740,34688
5741,34816
5742,34816
5743,34880
5744,34816
5745,34624
5746,34304
5747,33920
5748,33664
5749,33472
5750,33280
5751,33088
5752,33024
5753,32960
5754,32960
5755,33024
5756,33216
5757,33408
5758,33472
5759,33472
5760,33600
5761,33664
5762,33600
5763,33344
5764,33024
5765,32832
5766,33280
5767,34496
5768,36480
5769,38912
5770,41344
5771,43456
5772,44672
5773,43200
5774,42752
5775,37696
5776,34240
5777,31744
5778,30272
5779,29632
5780,29632
5781,30144
5782,30848
5783,31424
5784,32064
5785,32768
5786,33280
5787,33664
5788,33856
5789,33856
5790,33984
5791,33856
5792,33728
5793,33664
5794,33728
5795,33728
5796,33728
5797,33792
5798,33792
5799,33792
5800,33728
5801,33792
5802,33984
5803,34176
5804,34112
5805,33984
5806,33856
5807,33920
5808,33920
5809,33920
5810,33984
5811,34048
5812,34048
5813,33984
5814,34048
5815,34240
5816,34304
5817,34304
5818,34496
5819,34432
5820,34688
5821,34688
5822,34688
5823,34688
5824,34688
5825,34624
5826,34560
5827,34496
5828,34496
5829,34432
5830,34368
5831,34368
5832,34368
5833,34176
5834,34112
5835,33984
5836,33984
5837,33920
5838,33792
5839,33728
5840,33792
5841,33728
5842,33600
5843,33600
5844,33664
5845,33664
5846,33600
5847,33664
5848,33856
5849,33792
5850,33856
5851,33856
5852,33856
5853,33792
5854,33728
5855,33664
5856,33664
5857,33792
5858,33920
5859,33984
5860,33984
5861,34048
5862,34048
5863,34048
5864,34112
5865,34176
5866,34240
5867,34112
5868,34048
5869,34048
5870,34048
5871,33984
5872,34048
5873,34240
5874,34368
5875,34432
5876,34496
5877,34624
5878,34816
5879,34752
5880,34880
5881,35008
5882,35200
5883,35328
5884,35328
5885,35200
5886,35008
5887,34688
5888,34304
5889,33920
5890,33664
5891,33280
5892,33024
5893,33024
5894,32960
5895,33088
5896,33152
5897,33280
5898,33536
5899,33664
5900,33728
5901,33792
5902,33920
5903,34176
5904,34304
5905,33856
5906,33216
5907,32640
5908,32640
5909,33344
5910,35200
5911,37760
5912,40384
5913,43008
5914,44672
5915,44928
5916,42880
5917,39360
5918,35840
5919,33088
5920,31296
5921,30208
5922,29760
5923,30144
5924,30592
5925,31104
5926,31616
5927,32320
5928,33152
5929,33600
5930,33664
5931,33664
5932,33792
5933,33920
5934,34048
5935,34112
5936,34176
5937,34112
5938,33920
5939,33856
5940,33984
5941,34176
5942,34240
5943,34240
5944,34240
5945,34240
5946,34048
5947,33920
5948,33856
5949,33856
5950,33984
5951,34112
5952,34176
5953,34176
5954,34112
5955,34112
5956,34176
5957,34304
5958,34432
5959,34432
5960,34496
5961,34624
5962,34560
5963,34560
5964,34496
5965,34560
5966,34560
5967,34560
5968,34624
5969,34752
5970,34816
5971,34752
5972,34688
5973,34688
5974,34624
5975,34432
5976,34240
5977,34240
5978,34240
5979,34048
5980,33792
5981,33664
5982,33600
5983,33536
5984,33472
5985,33472
5986,33536
5987,33536
5988,33472
5989,33472
5990,33536
5991,33664
5992,33728
5993,33728
5994,33856
5995,34048
5996,34112
5997,34112
5998,33920
5999,33728
6000,33536
6001,33472
6002,33472
6003,33600
6004,33600
6005,33664
6006,33792
6007,33920
6008,33984
6009,33984
6010,34048
6011,34176
6012,34240
6013,34112
6014,33984
6015,33920
6016,33984
6017,34048
6018,34176
6019,34432
6020,34560
6021,34560
6022,34624
6023,34688
6024,34752
6025,34752
6026,34688
6027,34816
6028,35008
6029,35008
6030,34880
6031,34816
6032,34752
6033,34624
6034,34304
6035,34048
6036,33856
6037,33536
6038,33216
6039,33024
6040,32960
6041,32896
6042,32896
6043,32960
6044,33152
6045,33216
6046,33280
6047,33344
6048,33344
6049,33344
6050,33280
6051,33152
6052,33024
6053,32832
6054,32768
6055,33344
6056,34816
6057,37120
6058,39808
6059,42432
6060,44352
6061,45184
6062,43904
6063,40384
6064,36416
6065,33216
6066,30976
6067,29760
6068,29376
6069,29632
6070,30208
6071,30784
6072,31424
6073,32000
6074,32512
6075,32832
6076,33088
6077,33280
6078,33536
6079,33728
6080,33728
6081,33792
6082,33920
6083,33984
6084,33984
6085,33984
6086,34048
6087,34048
6088,33984
6089,33984
6090,34048
6091,34176
6092,34112
6093,33920
6094,33792
6095,33728
6096,33856
6097,33984
6098,34176
6099,34304
6100,34304
6101,34240
6102,34304
6103,34432
6104,34624
6105,34624
6106,34624
6107,34688
6108,34752
6109,34688
6110,34688
6111,34752
6112,34752
6113,34624
6114,34496
6115,34496
6116,34496
6117,34368
6118,34240
6119,34176
6120,34176
6121,34048
6122,33984
6123,33984
6124,33856
6125,33792
6126,33664
6127,33728
6128,33728
6129,33728
6130,33600
6131,33664
6132,33792
6133,33728
6134,33664
6135,33728
6136,33728
6137,33792
6138,33792
6139,33984
6140,34368
6141,34560
6142,34368
6143,34240
6144,34176
6145,34112
6146,34176
6147,34240
6148,34368
6149,34496
6150,34496
6151,34496
6152,34560
6153,34560
6154,34560
6155,34496
6156,34560
6157,34688
6158,34816
6159,34944
6160,35072
6161,35200
6162,35328
6163,35328
6164,35328
6165,35456
6166,35520
6167,35520
6168,35456
6169,35456
6170,35456
6171,35328
6172,35264
6173,35392
6174,35520
6175,35520
6176,35520
6177,35520
6178,35584
6179,35584
6180,35392
6181,35136
6182,34816
6183,34304
6184,33664
6185,33088
6186,32704
6187,32512
6188,32448
6189,32448
6190,32512
6191,32640
6192,32704
6193,32704
6194,32704
6195,32640
6196,32576
6197,32512
6198,32448
6199,32192
6200,31808
6201,31424
6202,31616
6203,32768
6204,34688
6205,36992
6206,39488
6207,41856
6208,43456
6209,43072
6210,40448
6211,36736
6212,33280
6213,30656
6214,29120
6215,28480
6216,28416
6217,28800
6218,29376
6219,30144
6220,30848
6221,31488
6222,32000
6223,32448
6224,32832
6225,33088
6226,33216
6227,33408
6228,33536
6229,33536
6230,33472
6231,33408
6232,33408
6233,33408
6234,33344
6235,33408
6236,33472
6237,33600
6238,33600
6239,33600
6240,33472
6241,33344
6242,33152
6243,33024
6244,33024
6245,33024
6246,33024
6247,33024
6248,33088
6249,33152
6250,33152
6251,33216
6252,33408
6253,33664
6254,33984
6255,34304
6256,34688
6257,35072
6258,35328
6259,35456
6260,35456
6261,35584
6262,35584
6263,35584
6264,35520
6265,35584
6266,35584
6267,35584
6268,35520
6269,35456
6270,35456
6271,35328
6272,35264
6273,35200
6274,35136
6275,35072
6276,34944
6277,34880
6278,34816
6279,34624
6280,34304
6281,33984
6282,33792
6283,33600
6284,33472
6285,33536
6286,33792
6287,34048
6288,34176
6289,34240
6290,34304
6291,34304
6292,34176
6293,33920
6294,33728
6295,33472
6296,33152
6297,32768
6298,32576
6299,32448
6300,32384
6301,32320
6302,32384
6303,32576
6304,32704
6305,32832
6306,33152
6307,33472
6308,33728
6309,33984
6310,34176
6311,34496
6312,34752
6313,34880
6314,34944
6315,35072
6316,35072
6317,35008
6318,34944
6319,34880
6320,34880
6321,34880
6322,34816
6323,34816
6324,34880
6325,34944
6326,35008
6327,35200
6328,35392
6329,35456
6330,35392
6331,35264
6332,35200
6333,35072
6334,34880
6335,34752
6336,34688
6337,34560
6338,34560
6339,34560
6340,34624
6341,34752
6342,34880
6343,34944
6344,35072
6345,35008
6346,34816
6347,34560
6348,34240
6349,33984
6350,33792
6351,33600
6352,33472
6353,33472
6354,33472
6355,33536
6356,33664
6357,33856
6358,34048
6359,34112
6360,34176
6361,34240
6362,34240
6363,34240
6364,34112
6365,33920
6366,33600
6367,33344
6368,33536
6369,34560
6370,36288
6371,38592
6372,40960
6373,43200
6374,44736
6375,44736
6376,42624
6377,39104
6378,35584
6379,32640
6380,30784
6381,29760
6382,29568
6383,29888
6384,30464
6385,31104
6386,31680
6387,32256
6388,32704
6389,33088
6390,33408
6391,33600
6392,33728
6393,33728
6394,33728
6395,33728
6396,33664
6397,33664
6398,33600
6399,33664
6400,33664
6401,33664
6402,33728
6403,33792
6404,33792
6405,33728
6406,33664
6407,33728
6408,33792
6409,33856
6410,33856
6411,33856
6412,33984
6413,33984
6414,33984
6415,34048
6416,34112
6417,34176
6418,34176
6419,34240
6420,34368
6421,34368
6422,34368
6423,34240
6424,34240
6425,34176
6426,34176
6427,34176
6428,34304
6429,34304
6430,34304
6431,34240
6432,34240
6433,34240
6434,34240
6435,34176
6436,34112
6437,34176
6438,34112
6439,33984
6440,33920
6441,33856
6442,33792
6443,33664
6444,33536
6445,33472
6446,33408
6447,33344
6448,33344
6449,33408
6450,33408
6451,33344
6452,33344
6453,33408
6454,33472
6455,33472
6456,33472
6457,33600
6458,33664
6459,33664
6460,33600
6461,33664
6462,33664
6463,33664
6464,33664
6465,33664
6466,33728
6467,33664
6468,33600
6469,33600
6470,33664
6471,33664
6472,33664
6473,33664
6474,33728
6475,33728
6476,33728
6477,33728
6478,33856
6479,33920
6480,33984
6481,34048
6482,34176
6483,34304
6484,34304
6485,34304
6486,34368
6487,34496
6488,34560
6489,34560
6490,34624
6491,34752
6492,34880
6493,34880
6494,34752
6495,34560
6496,34304
6497,33984
6498,33600
6499,33280
6500,33024
6501,32768
6502,32704
6503,32768
6504,32896
6505,32960
6506,33088
6507,33280
6508,33408
6509,33472
6510,33536
6511,33600
6512,33664
6513,33536
6514,33216
6515,32832
6516,32832
6517,33472
6518,34944
6519,37120
6520,39680
6521,42112
6522,44032
6523,44800
6524,43648
6525,40512
6526,36800
6527,33600
6528,31360
6529,30144
6530,29632
6531,29760
6532,30272
6533,30912
6534,31552
6535,32064
6536,32576
6537,33152
6538,33472
6539,33664
6540,33792
6541,33856
6542,33920
6543,33920
6544,33984
6545,33984
6546,33984
6547,33920
6548,33856
6549,33856
6550,33856
6551,33792
6552,33792
6553,33792
6554,33856
6555,33856
6556,33920
6557,33920
6558,33984
6559,34048
6560,34048
6561,34048
6562,34112
6563,34176
6564,34240
6565,34240
6566,34368
6567,34432
6568,34432
6569,34496
6570,34496
6571,34560
6572,34560
6573,34560
6574,34624
6575,34560
6576,34496
6577,34432
6578,34432
6579,34432
6580,34368
6581,34368
6582,34304
6583,34304
6584,34240
6585,34112
6586,34112
6587,34048
6588,33984
6589,33856
6590,33792
6591,33792
6592,33664
6593,33536
6594,33472
6595,33536
6596,33536
6597,33472
6598,33472
6599,33536
6600,33600
6601,33600
6602,33600
6603,33664
6604,33792
6605,33792
6606,33728
6607,33728
6608,33856
6609,33856
6610,33856
6611,33856
6612,33920
6613,33920
6614,33920
6615,33920
6616,33984
6617,33984
6618,33920
6619,33920
6620,33920
6621,33984
6622,33984
6623,33984
6624,33984
6625,33984
6626,33984
6627,33920
6628,33920
6629,33984
6630,33984
6631,33984
6632,34112
6633,34240
6634,34368
6635,34432
6636,34496
6637,34560
6638,34624
6639,34624
6640,34688
6641,34752
6642,34816
6643,34880
6644,34944
6645,35008
6646,34944
6647,34752
6648,34432
6649,34176
6650,33856
6651,33472
6652,33152
6653,32960
6654,32960
6655,32960
6656,32960
6657,33088
6658,33280
6659,33408
6660,33472
6661,33600
6662,33664
6663,33792
6664,33728
6665,33600
6666,33344
6667,33024
6668,32832
6669,33408
6670,34944
6671,37120
6672,39680
6673,42112
6674,44288
6675,45056
6676,44032
6677,40768
6678,36928
6679,33408
6680,31232
6681,29952
6682,29568
6683,29760
6684,30272
6685,30848
6686,31488
6687,32128
6688,32640
6689,33024
6690,33344
6691,33664
6692,33856
6693,33920
6694,33920
6695,33920
6696,33920
6697,33856
6698,33792
6699,33856
6700,33856
6701,33792
6702,33792
6703,33792
6704,33792
6705,33792
6706,33792
6707,33792
6708,33920
6709,33984
6710,33984
6711,34048
6712,34112
6713,34176
6714,34176
6715,34176
6716,34240
6717,34368
6718,34368
6719,34368
6720,34432
6721,34560
6722,34560
6723,34624
6724,34688
6725,34688
6726,34688
6727,34688
6728,34624
6729,34624
6730,34624
6731,34560
6732,34496
6733,34496
6734,34496
6735,34368
6736,34304
6737,34240
6738,34176
6739,34048
6740,33920
6741,33856
6742,33792
6743,33664
6744,33600
6745,33536
6746,33472
6747,33408
6748,33344
6749,33408
6750,33472
6751,33472
6752,33472
6753,33536
6754,33664
6755,33664
6756,33600
6757,33664
6758,33792
6759,33856
6760,33856
6761,33856
6762,33920
6763,33984
6764,33984
6765,33920
6766,33984
6767,33984
6768,33984
6769,33984
6770,33984
6771,33984
6772,33984
6773,33984
6774,33984
6775,34048
6776,34048
6777,34048
6778,34048
6779,34112
6780,34048
6781,33984
6782,33920
6783,33920
6784,33920
6785,33856
6786,33792
6787,33856
6788,33856
6789,33792
6790,33856
6791,33920
6792,33984
6793,33984
6794,33984
6795,33984
6796,34048
6797,34048
6798,33984
6799,33920
6800,33920
6801,33984
6802,33920
6803,33984
6804,34048
6805,33984
6806,33984
6807,34048
6808,34240
6809,34432
6810,34496
6811,34560
6812,34624
6813,34624
6814,34688
6815,34816
6816,34944
6817,35072
6818,35136
6819,35136
6820,35136
6821,35072
6822,34944
6823,34688
6824,34496
6825,34176
6826,33856
6827,33536
6828,33280
6829,33216
6830,33280
6831,33280
6832,33408
6833,33472
6834,33536
6835,33600
6836,33728
6837,33984
6838,34048
6839,33920
6840,33600
6841,33280
6842,32960
6843,33088
6844,34048
6845,35840
6846,38144
6847,40704
6848,43072
6849,44864
6850,45248
6851,43456
6852,39936
6853,36096
6854,33024
6855,31040
6856,30080
6857,29952
6858,30208
6859,30720
6860,31232
6861,31872
6862,32384
6863,32896
6864,33216
6865,33472
6866,33728
6867,33920
6868,34048
6869,34048
6870,34112
6871,34176
6872,34176
6873,34112
6874,34048
6875,34048
6876,34048
6877,33984
6878,33984
6879,34048
6880,34112
6881,34112
6882,34112
6883,34240
6884,34368
6885,34368
6886,34368
6887,34432
6888,34496
6889,34560
6890,34560
6891,34560
6892,34560
6893,34624
6894,34560
6895,34560
6896,34624
6897,34688
6898,34752
6899,34752
6900,34816
6901,34816
6902,34816
6903,34816
6904,34816
6905,34816
6906,34752
6907,34688
6908,34624
6909,34624
6910,34496
6911,34432
6912,34432
6913,34432
6914,34304
6915,34240
6916,34176
6917,34112
6918,33984
6919,33792
6920,33664
6921,33664
6922,33600
6923,33536
6924,33472
6925,33536
6926,33536
6927,33536
6928,33536
6929,33664
6930,33664
6931,33664
6932,33664
6933,33792
6934,33856
6935,33856
6936,33856
6937,33856
6938,33984
6939,33984
6940,33984
6941,34048
6942,34112
6943,34048
6944,33984
6945,33984
6946,34048
6947,33984
6948,33984
6949,33984
6950,34112
6951,34048
6952,33984
6953,33984
6954,33984
6955,33920
6956,33856
6957,33856
6958,33920
6959,33920
6960,33856
6961,33792
6962,33856
6963,33856
6964,33856
6965,33792
6966,33792
6967,33856
6968,33856
6969,33856
6970,33856
6971,33920
6972,33920
6973,33856
6974,33920
6975,33920
6976,33920
6977,33856
6978,33792
6979,33856
6980,33856
6981,33856
6982,33856
6983,34048
6984,34240
6985,34368
6986,34496
6987,34624
6988,34688
6989,34624
6990,34688
6991,34816
6992,34944
6993,35008
6994,35072
6995,35136
6996,35200
6997,35008
6998,34816
6999,34624
7000,34432
7001,34176
7002,33856
7003,33472
7004,33216
7005,33088
7006,32832
7007,32832
7008,33088
7009,33280
7010,33344
7011,33472
7012,33600
7013,33728
7014,33792
7015,33792
7016,33664
7017,33344
7018,33024
7019,33088
7020,34048
7021,35840
7022,38144
7023,40704
7024,43136
7025,44864
7026,45120
7027,43200
7028,39552
7029,35840
7030,32832
7031,30848
7032,29952
7033,29760
7034,30080
7035,30592
7036,31104
7037,31744
7038,32384
7039,32896
7040,33280
7041,33600
7042,33856
7043,33920
7044,33984
7045,33984
7046,34048
7047,34048
7048,34048
7049,33984
7050,33984
7051,33984
7052,33920
7053,33920
7054,33984
7055,33920
7056,33856
7057,33920
7058,33984
7059,33984
7060,33984
7061,34048
7062,34112
7063,34176
7064,34176
7065,34176
7066,34240
7067,34304
7068,34368
7069,34368
7070,34368
7071,34496
7072,34560
7073,34624
7074,34624
7075,34752
7076,34752
7077,34688
7078,34624
7079,34688
7080,34624
7081,34560
7082,34496
7083,34496
7084,34496
7085,34432
7086,34368
7087,34368
7088,34368
7089,34368
7090,34240
7091,34176
7092,34112
7093,33984
7094,33792
7095,33664
7096,33600
7097,33536
7098,33472
7099,33408
7100,33472
7101,33472
7102,33408
7103,33408
7104,33536
7105,33600
7106,33600
7107,33600
7108,33600
7109,33728
7110,33728
7111,33728
7112,33792
7113,33856
7114,33856
7115,33792
7116,33792
7117,33792
7118,33856
7119,33856
7120,33856
7121,33920
7122,33856
7123,33856
7124,33856
7125,33920
7126,33920
7127,33856
7128,33792
7129,33856
7130,33856
7131,33792
7132,33792
7133,33792
7134,33856
7135,33792
7136,33728
7137,33792
7138,33792
7139,33792
7140,33728
7141,33728
7142,33792
7143,33792
7144,33728
7145,33728
7146,33792
7147,33728
7148,33728
7149,33792
7150,33792
7151,33728
7152,33728
7153,33728
7154,33792
7155,33792
7156,33856
7157,33920
7158,34176
7159,34496
7160,34560
7161,34560
7162,34496
7163,34560
7164,34624
7165,34752
7166,34816
7167,34816
7168,34880
7169,34880
7170,35008
7171,35008
7172,34880
7173,34688
7174,34432
7175,34112
7176,33728
7177,33344
7178,33088
7179,32960
7180,33024
7181,33024
7182,33088
7183,33216
7184,33344
7185,33408
7186,33472
7187,33536
7188,33664
7189,33664
7190,33536
7191,33280
7192,32960
7193,32896
7194,33536
7195,35072
7196,37312
7197,39808
7198,42240
7199,44352
7200,44800
7201,43392
7202,40000
7203,36160
7204,32896
7205,30976
7206,29952
7207,29632
7208,29888
7209,30400
7210,30976
7211,31552
7212,32128
7213,32640
7214,33024
7215,33216
7216,33472
7217,33664
7218,33792
7219,33856
7220,33856
7221,33920
7222,33856
7223,33792
7224,33728
7225,33728
7226,33792
7227,33728
7228,33728
7229,33792
7230,33920
7231,33920
7232,33920
7233,33920
7234,33984
7235,33984
7236,33984
7237,34048
7238,34112
7239,34176
7240,34176
7241,34176
7242,34304
7243,34368
7244,34432
7245,34432
7246,34560
7247,34560
7248,34560
7249,34624
7250,34688
7251,34688
7252,34688
7253,34624
7254,34624
7255,34624
7256,34560
7257,34560
7258,34560
7259,34496
7260,34368
7261,34304
7262,34240
7263,34240
7264,34176
7265,34112
7266,34048
7267,33984
7268,33856
7269,33728
7270,33600
7271,33600
7272,33536
7273,33472
7274,33408
7275,33408
7276,33472
7277,33472
7278,33472
7279,33600
7280,33728
7281,33728
7282,33728
7283,33728
7284,33792
7285,33792
7286,33792
7287,33856
7288,33856
7289,33856
7290,33792
7291,33792
7292,33856
7293,33856
7294,33792
7295,33856
7296,33856
7297,33856
7298,33792
7299,33728
7300,33728
7301,33792
7302,33792
7303,33792
7304,33856
7305,33920
7306,33920
7307,33856
7308,33920
7309,33856
7310,33792
7311,33728
7312,33728
7313,33728
7314,33664
7315,33600
7316,33664
7317,33728
7318,33920
7319,33856
7320,33984
7321,34496
7322,34496
7323,34496
7324,34496
7325,34560
7326,34560
7327,34560
7328,34688
7329,34752
7330,34816
7331,34816
7332,34816
7333,34688
7334,34432
7335,34048
7336,33728
7337,33408
7338,33216
7339,33088
7340,32896
7341,32960
7342,33024
7343,33152
7344,33216
7345,33344
7346,33472
7347,33600
7348,33664
7349,33600
7350,33664
7351,33536
7352,33216
7353,32896
7354,33024
7355,33856
7356,35456
7357,37696
7358,40192
7359,42432
7360,44096
7361,44480
7362,43008
7363,39040
7364,38464
7365,36224
7366,31296
7367,30144
7368,29696
7369,29888
7370,30400
7371,31040
7372,31680
7373,32192
7374,32704
7375,33152
7376,33472
7377,33664
7378,33856
7379,33984
7380,33984
7381,33920
7382,33920
7383,33984
7384,33984
7385,33920
7386,33856
7387,33856
7388,33856
7389,33792
7390,33792
7391,33792
7392,33856
7393,33856
7394,33792
7395,33856
7396,34048
7397,34112
7398,34176
7399,34240
7400,34304
7401,34304
7402,34368
7403,34496
7404,34560
7405,34624
7406,34624
7407,34624
7408,34688
7409,34688
7410,34688
7411,34752
7412,34816
7413,34816
7414,34752
7415,34688
7416,34688
7417,34688
7418,34624
7419,34560
7420,34560
7421,34560
7422,34496
7423,34432
7424,34432
7425,34432
7426,34304
7427,34112
7428,33984
7429,33856
7430,33728
7431,33664
7432,33664
7433,33664
7434,33664
7435,33664
7436,33664
7437,33728
7438,33792
7439,33792
7440,33792
7441,33856
7442,33920
7443,33920
7444,33856
7445,33920
7446,33920
7447,33920
7448,33856
7449,33920
7450,33920
7451,33920
7452,33856
7453,33984
7454,33920
7455,33984
7456,33984
7457,33984
7458,34048
7459,33984
7460,33920
7461,33920
7462,33920
7463,33920
7464,33856
7465,33792
7466,33856
7467,33920
7468,33856
7469,33792
7470,33792
7471,33856
7472,33920
7473,33984
7474,34176
7475,34368
7476,34432
7477,34368
7478,34368
7479,34432
7480,34432
7481,34432
7482,34496
7483,34624
7484,34752
7485,34816
7486,34880
7487,34880
7488,34752
7489,34368
7490,34048
7491,33728
7492,33408
7493,33152
7494,32960
7495,32960
7496,33024
7497,33024
7498,33152
7499,33152
7500,33472
7501,33472
7502,33536
7503,33600
7504,33728
7505,33664
7506,33472
7507,33216
7508,32896
7509,32896
7510,33536
7511,35072
7512,37376
7513,40768
7514,41024
7515,44160
7516,44864
7517,43456
7518,39872
7519,36288
7520,33152
7521,31040
7522,29952
7523,29568
7524,29824
7525,30400
7526,30976
7527,31552
7528,32320
7529,32384
7530,33024
7531,33280
7532,33536
7533,33728
7534,33856
7535,33856
7536,33920
7537,33984
7538,33984
7539,33920
7540,33856
7541,33920
7542,33984
7543,33920
7544,33856
7545,33856
7546,33856
7547,33856
7548,33856
7549,33920
7550,33984
7551,33984
7552,33920
7553,33984
7554,34048
7555,34112
7556,34176
7557,34304
7558,34432
7559,34432
7560,34496
7561,34560
7562,34624
7563,34688
7564,34688
7565,34688
7566,34752
7567,34816
7568,34752
7569,34624
7570,34560
7571,34560
7572,34560
7573,34496
7574,34432
7575,34432
7576,34432
7577,34368
7578,34304
7579,34304
7580,34240
7581,34112
7582,33920
7583,33856
7584,33728
7585,33600
7586,33536
7587,33536
7588,33536
7589,33472
7590,33408
7591,33472
7592,33536
7593,33536
7594,33536
7595,33600
7596,33728
7597,33728
7598,33728
7599,33792
7600,33856
7601,33856
7602,33792
7603,33792
7604,33792
7605,33856
7606,33856
7607,33856
7608,33920
7609,33984
7610,33984
7611,33984
7612,33984
7613,34048
7614,34048
7615,34048
7616,34112
7617,34112
7618,33984
7619,33920
7620,33920
7621,33920
7622,33856
7623,33792
7624,33856
7625,33984
7626,34048
7627,34112
7628,34240
7629,34432
7630,34560
7631,34560
7632,34560
7633,34688
7634,34624
7635,34688
7636,34688
7637,34752
7638,34816
7639,34880
7640,34880
7641,34880
7642,34752
7643,34432
7644,34048
7645,33728
7646,33472
7647,33280
7648,33088
7649,33088
7650,33216
7651,33344
7652,33408
7653,33600
7654,33664
7655,33728
7656,33728
7657,33792
7658,33856
7659,33856
7660,33664
7661,33344
7662,33024
7663,33216
7664,33280
7665,35200
7666,37440
7667,40000
7668,42496
7669,44544
7670,45120
7671,43712
7672,40384
7673,36544
7674,33408
7675,31296
7676,30080
7677,29696
7678,30144
7679,30144
7680,31104
7681,31744
7682,32320
7683,32896
7684,33280
7685,33600
7686,33728
7687,33920
7688,34048
7689,34048
7690,34048
7691,34112
7692,34112
7693,34048
7694,33984
7695,33984
7696,34048
7697,34048
7698,33984
7699,33984
7700,34048
7701,34048
7702,34048
7703,34112
7704,34240
7705,34304
7706,34240
7707,34240
7708,34432
7709,34368
7710,34496
7711,34560
7712,34688
7713,34752
7714,34688
7715,34560
7716,34560
7717,34624
7718,34624
7719,34624
7720,34688
7721,34752
7722,34752
7723,34688
7724,34624
7725,34688
7726,34560
7727,34496
7728,34432
7729,34432
7730,34368
7731,34240
7732,34048
7733,33984
7734,33920
7735,33792
7736,33728
7737,33664
7738,33536
7739,33472
7740,33408
7741,33408
7742,33472
7743,33408
7744,33344
7745,33280
7746,33280
7747,33280
7748,33344
7749,33408
7750,33472
7751,33472
7752,33408
7753,33472
7754,33536
7755,33664
7756,33664
7757,33664
7758,33792
7759,33856
7760,33856
7761,33792
7762,33856
7763,33856
7764,33856
7765,33792
7766,33856
7767,33856
7768,33792
7769,33728
7770,33728
7771,33728
7772,33792
7773,33792
7774,33856
7775,33856
7776,33856
7777,33792
7778,33792
7779,33856
7780,33856
7781,33792
7782,33792
7783,34048
7784,34048
7785,34368
7786,34432
7787,34432
7788,34432
7789,34432
7790,34368
7791,34432
7792,34560
7793,34688
7794,34752
7795,34816
7796,34880
7797,34752
7798,34496
7799,34176
7800,33856
7801,33536
7802,33216
7803,32960
7804,32832
7805,32768
7806,32768
7807,32832
7808,33088
7809,33280
7810,33408
7811,33472
7812,33600
7813,33792
7814,33792
7815,33728
7816,33536
7817,33280
7818,32960
7819,33216
7820,34368
7821,36352
7822,38848
7823,41344
7824,43648
7825,44928
7826,44608
7827,41856
7828,36224
7829,35712
7830,31872
7831,30336
7832,29760
7833,29824
7834,30336
7835,30912
7836,31488
7837,32128
7838,32704
7839,33152
7840,33472
7841,33792
7842,33984
7843,33984
7844,33984
7845,33984
7846,34112
7847,34048
7848,33984
7849,33920
7850,33920
7851,33920
7852,33856
7853,33920
7854,34048
7855,34112
7856,34112
7857,34112
7858,34176
7859,34240
7860,34176
7861,34176
7862,34176
7863,34176
7864,34176
7865,34176
7866,34240
7867,34368
7868,34432
7869,34496
7870,34560
7871,34688
7872,34752
7873,34752
7874,34688
7875,34752
7876,34752
7877,34688
7878,34816
7879,34816
7880,34880
7881,34816
7882,34688
7883,34560
7884,34432
7885,34368
7886,34240
7887,34240
7888,34304
7889,34240
7890,34176
7891,34112
7892,33984
7893,33792
7894,33600
7895,33536
7896,33664
7897,33792
7898,33600
7899,33344
7900,33216
7901,33152
7902,33216
7903,33216
7904,33408
7905,33536
7906,33600
7907,33664
7908,33728
7909,33856
7910,33856
7911,33792
7912,33856
7913,33984
7914,34048
7915,34048
7916,34048
7917,33920
7918,33792
7919,33728
7920,33664
7921,33792
7922,33792
7923,33856
7924,33856
7925,33856
7926,33984
7927,33984
7928,33984
7929,33920
7930,33984
7931,33984
7932,34048
7933,34048
7934,34112
7935,34176
7936,34304
7937,34432
7938,34560
7939,34624
7940,34560
7941,34560
7942,34624
7943,34624
7944,34624
7945,34816
7946,34944
7947,34944
7948,34880
7949,34752
7950,34560
7951,34304
7952,34048
7953,33792
7954,33536
7955,33216
7956,32960
7957,32832
7958,32832
7959,32896
7960,32960
7961,33024
7962,33152
7963,33344
7964,33472
7965,33472
7966,33536
7967,33536
7968,33344
7969,33024
7970,32768
7971,33152
7972,34304
7973,36224
7974,38720
7975,41344
7976,43648
7977,44992
7978,44608
7979,41920
7980,38144
7981,34560
7982,31808
7983,30208
7984,29568
7985,29568
7986,30016
7987,30720
7988,31424
7989,32064
7990,32640
7991,33088
7992,33472
7993,33664
7994,33792
7995,33856
7996,33984
7997,33984
7998,33984
7999,33920
8000,33920
8001,33856
8002,33792
8003,33792
8004,33792
8005,33920
8006,33984
8007,33920
8008,33984
8009,34048
8010,34112
8011,34176
8012,34304
8013,34432
8014,34432
8015,34304
8016,34304
8017,34304
8018,34176
8019,34112
8020,34176
8021,34304
8022,34432
8023,34496
8024,34560
8025,34688
8026,34816
8027,34816
8028,34816
8029,34880
8030,34880
8031,34752
8032,34624
8033,34624
8034,34624
8035,34560
8036,34432
8037,34240
8038,34240
8039,34240
8040,34304
8041,34304
8042,34304
8043,34176
8044,33984
8045,33920
8046,33984
8047,33920
8048,33664
8049,33472
8050,33344
8051,33280
8052,33216
8053,33216
8054,33408
8055,33536
8056,33664
8057,33792
8058,33856
8059,33856
8060,33856
8061,33856
8062,33856
8063,33920
8064,33920
8065,33920
8066,33920
8067,33856
8068,33856
8069,33856
8070,33856
8071,33792
8072,33728
8073,33728
8074,33856
8075,33984
8076,34112
8077,34112
8078,34048
8079,34048
8080,34112
8081,34048
8082,33856
8083,33856
8084,34048
8085,34176
8086,34240
8087,34304
8088,34432
8089,34432
8090,34368
8091,34304
8092,34432
8093,34560
8094,34688
8095,34752
8096,34880
8097,34944
8098,34816
8099,34624
8100,34304
8101,33920
8102,33472
8103,33024
8104,32768
8105,32704
8106,32704
8107,32640
8108,32640
8109,32768
8110,32960
8111,33152
8112,33344
8113,33600
8114,33728
8115,33792
8116,33728
8117,33472
8118,33024
8119,32832
8120,33408
8121,34816
8122,37056
8123,39616
8124,41984
8125,43968
8126,44800
8127,43584
8128,40384
8129,36672
8130,33408
8131,31040
8132,29824
8133,29376
8134,29632
8135,30272
8136,30912
8137,31616
8138,32256
8139,32832
8140,33152
8141,33472
8142,33792
8143,34048
8144,34112
8145,34048
8146,34112
8147,34112
8148,33920
8149,33728
8150,33664
8151,33728
8152,33728
8153,33664
8154,33728
8155,33856
8156,33920
8157,33984
8158,34048
8159,34176
8160,34112
8161,33984
8162,33920
8163,33984
8164,33984
8165,33984
8166,34112
8167,34304
8168,34368
8169,34368
8170,34368
8171,34432
8172,34496
8173,34496
8174,34560
8175,34560
8176,34624
8177,34560
8178,34560
8179,34560
8180,34496
8181,34368
8182,34176
8183,34176
8184,34304
8185,34368
8186,34368
8187,34304
8188,34176
8189,34112
8190,33984
8191,33856
8192,33792
8193,33792
8194,33664
8195,33536
8196,33600
8197,33664
8198,33664
8199,33600
8200,33472
8201,33472
8202,33408
8203,33344
8204,33408
8205,33472
8206,33536
8207,33664
8208,33792
8209,33920
8210,34048
8211,33984
8212,33984
8213,34048
8214,34048
8215,33920
8216,33856
8217,33856
8218,33856
8219,33728
8220,33728
8221,33792
8222,33856
8223,33856
8224,33856
8225,33920
8226,34048
8227,34112
8228,34240
8229,34368
8230,34496
8231,34560
8232,34560
8233,34560
8234,34624
8235,34624
8236,34560
8237,34624
8238,34752
8239,34944
8240,35072
8241,35072
8242,34944
8243,34624
8244,34304
8245,34112
8246,33920
8247,33536
8248,33152
8249,32896
8250,32832
8251,32960
8252,32960
8253,33024
8254,33152
8255,33408
8256,33664
8257,33792
8258,33856
8259,33856
8260,33664
8261,33344
8262,32960
8263,32704
8264,32896
8265,33792
8266,35712
8267,38208
8268,40768
8269,43072
8270,44480
8271,44480
8272,42304
8273,38848
8274,35456
8275,32704
8276,30720
8277,29632
8278,29312
8279,29696
8280,30336
8281,31040
8282,31680
8283,32256
8284,32896
8285,33408
8286,33664
8287,33856
8288,33984
8289,34048
8290,34048
8291,34048
8292,34048
8293,33984
8294,33856
8295,33728
8296,33856
8297,33984
8298,34048
8299,34048
8300,33984
8301,33984
8302,33984
8303,33920
8304,33920
8305,34048
8306,34112
8307,34048
8308,34048
8309,34176
8310,34176
8311,34176
8312,34240
8313,34368
8314,34368
8315,34432
8316,34496
8317,34688
8318,34880
8319,34880
8320,34688
8321,34560
8322,34496
8323,34432
8324,34432
8325,34496
8326,34560
8327,34496
8328,34368
8329,34304
8330,34304
8331,34304
8332,34176
8333,34240
8334,34304
8335,34368
8336,34176
8337,33984
8338,33856
8339,33728
8340,33600
8341,33472
8342,33600
8343,33728
8344,33664
8345,33600
8346,33664
8347,33792
8348,33728
8349,33600
8350,33664
8351,33792
8352,33792
8353,33728
8354,33792
8355,33920
8356,33984
8357,34048
8358,33984
8359,33984
8360,33984
8361,33920
8362,33984
8363,34112
8364,34176
8365,34112
8366,34112
8367,34176
8368,34240
8369,34304
8370,34304
8371,34368
8372,34624
8373,34752
8374,34816
8375,34688
8376,34496
8377,34368
8378,34304
8379,34368
8380,34560
8381,34688
8382,34816
8383,34880
8384,34944
8385,34944
8386,34752
8387,34496
8388,34176
8389,33856
8390,33472
8391,33152
8392,33024
8393,33024
8394,33024
8395,33024
8396,33152
8397,33280
8398,33408
8399,33472
8400,33536
8401,33600
8402,33600
8403,33664
8404,33536
8405,33280
8406,32896
8407,32640
8408,33216
8409,34880
8410,37248
8411,39872
8412,42368
8413,44416
8414,45120
8415,43776
8416,40512
8417,36736
8418,33472
8419,31168
8420,29824
8421,29376
8422,29632
8423,30208
8424,30912
8425,31616
8426,32256
8427,32832
8428,33152
8429,33472
8430,33728
8431,33856
8432,33856
8433,33920
8434,33984
8435,34048
8436,34048
8437,34048
8438,34048
8439,33984
8440,33856
8441,33728
8442,33856
8443,33984
8444,34048
8445,33920
8446,33856
8447,33920
8448,34048
8449,34176
8450,34176
8451,34240
8452,34240
8453,34176
8454,34176
8455,34368
8456,34432
8457,34496
8458,34496
8459,34496
8460,34560
8461,34496
8462,34496
8463,34624
8464,34816
8465,34816
8466,34816
8467,34816
8468,34816
8469,34816
8470,34688
8471,34624
8472,34688
8473,34688
8474,34560
8475,34368
8476,34176
8477,33984
8478,33792
8479,33664
8480,33664
8481,33728
8482,33728
8483,33728
8484,33664
8485,33664
8486,33664
8487,33664
8488,33728
8489,33792
8490,33792
8491,33792
8492,33856
8493,33984
8494,33856
8495,33728
8496,33664
8497,33664
8498,33728
8499,33728
8500,33856
8501,33984
8502,33920
8503,33856
8504,33856
8505,33920
8506,33984
8507,34112
8508,34240
8509,34368
8510,34304
8511,34112
8512,34112
8513,34304
8514,34368
8515,34368
8516,34432
8517,34624
8518,34688
8519,34624
8520,34496
8521,34560
8522,34688
8523,34816
8524,35008
8525,35136
8526,35200
8527,35136
8528,35072
8529,34880
8530,34752
8531,34496
8532,34176
8533,33856
8534,33536
8535,33216
8536,32960
8537,32960
8538,33216
8539,33600
8540,33664
8541,33728
8542,33792
8543,33664
8544,33536
8545,33472
8546,33536
8547,33472
8548,33344
8549,33024
8550,32704
8551,32832
8552,33728
8553,35456
8554,38016
8555,40768
8556,43328
8557,45120
8558,45376
8559,43264
8560,39552
8561,35776
8562,32704
8563,30720
8564,29760
8565,29568
8566,29952
8567,30720
8568,31360
8569,31936
8570,32320
8571,32768
8572,33152
8573,33344
8574,33472
8575,33600
8576,33792
8577,33920
8578,33920
8579,33984
8580,34112
8581,34112
8582,33984
8583,33920
8584,33984
8585,33984
8586,33984
8587,33920
8588,33984
8589,34112
8590,34176
8591,34048
8592,34112
8593,34176
8594,34112
8595,34048
8596,34048
8597,34112
8598,34176
8599,34240
8600,34304
8601,34496
8602,34560
8603,34560
8604,34560
8605,34624
8606,34624
8607,34624
8608,34624
8609,34624
8610,34560
8611,34560
8612,34560
8613,34624
8614,34624
8615,34560
8616,34368
8617,34304
8618,34240
8619,34112
8620,33984
8621,33920
8622,33856
8623,33792
8624,33728
8625,33664
8626,33600
8627,33536
8628,33408
8629,33344
8630,33344
8631,33408
8632,33408
8633,33408
8634,33472
8635,33600
8636,33664
8637,33664
8638,33792
8639,33984
8640,33984
8641,33856
8642,33792
8643,33856
8644,33856
8645,33792
8646,33792
8647,33856
8648,33856
8649,33792
8650,33792
8651,33856
8652,33920
8653,33856
8654,33920
8655,33984
8656,33984
8657,33984
8658,33984
8659,33984
8660,33984
8661,34048
8662,34112
8663,34240
8664,34368
8665,34432
8666,34432
8667,34432
8668,34496
8669,34560
8670,34624
8671,34688
8672,34816
8673,34880
8674,34880
8675,34816
8676,34752
8677,34560
8678,34368
8679,34048
8680,33792
8681,33472
8682,33152
8683,32960
8684,32896
8685,32896
8686,32896
8687,32896
8688,32896
8689,33024
8690,33152
8691,33280
8692,33344
8693,33472
8694,33472
8695,33216
8696,32832
8697,32576
8698,32896
8699,34112
8700,36160
8701,38784
8702,41472
8703,43712
8704,45056
8705,44672
8706,41984
8707,38016
8708,34304
8709,31680
8710,30208
8711,29632
8712,29568
8713,29952
8714,30592
8715,31232
8716,31808
8717,32320
8718,32768
8719,33152
8720,33344
8721,33536
8722,33728
8723,33856
8724,33856
8725,33856
8726,33856
8727,33792
8728,33728
8729,33664
8730,33664
8731,33664
8732,33664
8733,33664
8734,33664
8735,33728
8736,33728
8737,33728
8738,33792
8739,33856
8740,33792
8741,33792
8742,33792
8743,33920
8744,34048
8745,34112
8746,34176
8747,34240
8748,34304
8749,34304
8750,34304
8751,34368
8752,34368
8753,34368
8754,34368
8755,34368
8756,34432
8757,34368
8758,34304
8759,34304
8760,34304
8761,34240
8762,34240
8763,34304
8764,34368
8765,34368
8766,34240
8767,34176
8768,34112
8769,34048
8770,33920
8771,33792
8772,33728
8773,33600
8774,33408
8775,33344
8776,33344
8777,33344
8778,33280
8779,33280
8780,33344
8781,33408
8782,33472
8783,33472
8784,33536
8785,33664
8786,33728
8787,33728
8788,33792
8789,33856
8790,33856
8791,33856
8792,33856
8793,33920
8794,33920
8795,33920
8796,33920
8797,33984
8798,34048
8799,34048
8800,34048
8801,34048
8802,34112
8803,33984
8804,33920
8805,33920
8806,33856
8807,33792
8808,33792
8809,33856
8810,33920
8811,33920
8812,33920
8813,33920
8814,33984
8815,34048
8816,34112
8817,34240
8818,34432
8819,34624
8820,34624
8821,34624
8822,34688
8823,34752
8824,34816
8825,34880
8826,34944
8827,35072
8828,35136
8829,35136
8830,35136
8831,35008
8832,34752
8833,34368
8834,34048
8835,33728
8836,33344
8837,33088
8838,33024
8839,33088
8840,33152
8841,33216
8842,33280
8843,33472
8844,33600
8845,33664
8846,33728
8847,33792
8848,33792
8849,33600
8850,33280
8851,32896
8852,32896
8853,33600
8854,35200
8855,37440
8856,40064
8857,42496
8858,44416
8859,44992
8860,43520
8861,40064
8862,36160
8863,33024
8864,30976
8865,29952
8866,29632
8867,29888
8868,30464
8869,31104
8870,31616
8871,32128
8872,32640
8873,33088
8874,33344
8875,33536
8876,33728
8877,33856
8878,33856
8879,33856
8880,33856
8881,33920
8882,33920
8883,33856
8884,33856
8885,33856
8886,33856
8887,33792
8888,33728
8889,33728
8890,33792
8891,33728
8892,33792
8893,33856
8894,33920
8895,33920
8896,33984
8897,34048
8898,34112
8899,34176
8900,34176
8901,34240
8902,34368
8903,34432
8904,34432
8905,34496
8906,34560
8907,34560
8908,34560
8909,34560
8910,34560
8911,34560
8912,34496
8913,34496
8914,34496
8915,34432
8916,34304
8917,34240
8918,34240
8919,34304
8920,34240
8921,34176
8922,34176
8923,34112
8924,34048
8925,33920
8926,33856
8927,33792
8928,33664
8929,33536
8930,33536
8931,33472
8932,33472
8933,33472
8934,33472
8935,33536
8936,33600
8937,33600
8938,33664
8939,33792
8940,33792
8941,33792
8942,33856
8943,33920
8944,33984
8945,33984
8946,33984
8947,33984
8948,34048
8949,34048
8950,34048
8951,34048
8952,34048
8953,34048
8954,34048
8955,34048
8956,34048
8957,33984
8958,33920
8959,33920
8960,33920
8961,33920
8962,33856
8963,33856
8964,33856
8965,33920
8966,33920
8967,33920
8968,33984
8969,33984
8970,33920
8971,33856
8972,33856
8973,33920
8974,33920
8975,33792
8976,33856
8977,33856
8978,33856
8979,33792
8980,33792
8981,33856
8982,33792
8983,33792
8984,33792
8985,33856
8986,33856
8987,33856
8988,33856
8989,33920
8990,33856
8991,33856
8992,33856
8993,33984
8994,34176
8995,34368
8996,34496
8997,34624
8998,34688
8999,34688
9000,34688
9001,34816
9002,34944
9003,34944
9004,34944
9005,35008
9006,35072
9007,34944
9008,34752
9009,34560
9010,34304
9011,34048
9012,33664
9013,33344
9014,33152
9015,33088
9016,33024
9017,33024
9018,33152
9019,33344
9020,33344
9021,33408
9022,33536
9023,33664
9024,33728
9025,33664
9026,33472
9027,33216
9028,32960
9029,33216
9030,34176
9031,35968
9032,38208
9033,40640
9034,43008
9035,44480
9036,44608
9037,42496
9038,38912
9039,35328
9040,32448
9041,30656
9042,29824
9043,29696
9044,30144
9045,30592
9046,31232
9047,31872
9048,32448
9049,32832
9050,33152
9051,33408
9052,33664
9053,33792
9054,33856
9055,33856
9056,33920
9057,33920
9058,33856
9059,33792
9060,33856
9061,33792
9062,33792
9063,33728
9064,33792
9065,33856
9066,33856
9067,33920
9068,33984
9069,34048
9070,34048
9071,34048
9072,34048
9073,34176
9074,34176
9075,34176
9076,34240
9077,34368
9078,34368
9079,34368
9080,34432
9081,34560
9082,34560
9083,34560
9084,34560
9085,34624
9086,34624
9087,34624
9088,34624
9089,34624
9090,34624
9091,34560
9092,34496
9093,34432
9094,34432
9095,34368
9096,34304
9097,34240
9098,34240
9099,34176
9100,34048
9101,33984
9102,33984
9103,33856
9104,33728
9105,33664
9106,33664
9107,33600
9108,33536
9109,33536
9110,33536
9111,33600
9112,33600
9113,33600
9114,33600
9115,33664
9116,33664
9117,33728
9118,33728
9119,33792
9120,33792
9121,33792
9122,33856
9123,33920
9124,33984
9125,33984
9126,33984
9127,33984
9128,33984
9129,34048
9130,34048
9131,34048
9132,33984
9133,33984
9134,33920
9135,33984
9136,33984
9137,33984
9138,34048
9139,33984
9140,34048
9141,34048
9142,34048
9143,33984
9144,33984
9145,33920
9146,33920
9147,33984
9148,33984
9149,33920
9150,33984
9151,34304
9152,34432
9153,34432
9154,34432
9155,34496
9156,34560
9157,34624
9158,34688
9159,34816
9160,34944
9161,35008
9162,35008
9163,35008
9164,34880
9165,34688
9166,34368
9167,34048
9168,33792
9169,33728
9170,33152
9171,32960
9172,32960
9173,33024
9174,33024
9175,33152
9176,33280
9177,33408
9178,33472
9179,33472
9180,33536
9181,33792
9182,33728
9183,33536
9184,33472
9185,32960
9186,33024
9187,33920
9188,35648
9189,38016
9190,40512
9191,42816
9192,44416
9193,44480
9194,44160
9195,42368
9196,35520
9197,32640
9198,30720
9199,30528
9200,29696
9201,30016
9202,30592
9203,31232
9204,31872
9205,32512
9206,33024
9207,33344
9208,33600
9209,33792
9210,33920
9211,33984
9212,33984
9213,33984
9214,33920
9215,33920
9216,33856
9217,33920
9218,33920
9219,33920
9220,33856
9221,33856
9222,33920
9223,33920
9224,33920
9225,33984
9226,34048
9227,34112
9228,34112
9229,34176
9230,34240
9231,34304
9232,34368
9233,34368
9234,34496
9235,34560
9236,34560
9237,34624
9238,34688
9239,34688
9240,34752
9241,34752
9242,34816
9243,34880
9244,34816
9245,34752
9246,34688
9247,34688
9248,34688
9249,34560
9250,34560
9251,34560
9252,34496
9253,34432
9254,34368
9255,34304
9256,34240
9257,34112
9258,34048
9259,33984
9260,33856
9261,33728
9262,33600
9263,33536
9264,33536
9265,33536
9266,33472
9267,33472
9268,33536
9269,33536
9270,33536
9271,33600
9272,33664
9273,33728
9274,33728
9275,33792
9276,33856
9277,33984
9278,33984
9279,33984
9280,33984
9281,34048
9282,33984
9283,33920
9284,33920
9285,33920
9286,33920
9287,33856
9288,33920
9289,33984
9290,33984
9291,33984
9292,33984
9293,33984
9294,33984
9295,33920
9296,33920
9297,33984
9298,33984
9299,33920
9300,33920
9301,33984
9302,33984
9303,33920
9304,33856
9305,33856
9306,33856
9307,33856
9308,33792
9309,33856
9310,33856
9311,33792
9312,33792
9313,33792
9314,33792
9315,33792
9316,33792
9317,33792
9318,33856
9319,33856
9320,33920
9321,33984
9322,34176
9323,34304
9324,34432
9325,34560
9326,34624
9327,34624
9328,34624
9329,34752
9330,34880
9331,34944
9332,35008
9333,35072
9334,35136
9335,35136
9336,34944
9337,34752
9338,34560
9339,34304
9340,33984
9341,33664
9342,33408
9343,33280
9344,33216
9345,33152
9346,33216
9347,33280
9348,33408
9349,33472
9350,33536
9351,33664
9352,33792
9353,33728
9354,33664
9355,33408
9356,33152
9357,33024
9358,33920
9359,34048
9360,37120
9361,39552
9362,41984
9363,44096
9364,45056
9365,44096
9366,40960
9367,37056
9368,33728
9369,31424
9370,30208
9371,29760
9372,29952
9373,30464
9374,30976
9375,31552
9376,32128
9377,32704
9378,33088
9379,33408
9380,33600
9381,33792
9382,33856
9383,33920
9384,33984
9385,33984
9386,33984
9387,33984
9388,33984
9389,33920
9390,33920
9391,33856
9392,33856
9393,33920
9394,33920
9395,33920
9396,33984
9397,34112
9398,34112
9399,34112
9400,34112
9401,34112
9402,34176
9403,34176
9404,34176
9405,34304
9406,34368
9407,34432
9408,34432
9409,34496
9410,34560
9411,34624
9412,34624
9413,34688
9414,34752
9415,34752
9416,34688
9417,34688
9418,34688
9419,34624
9420,34560
9421,34496
9422,34560
9423,34496
9424,34432
9425,34304
9426,34304
9427,34240
9428,34176
9429,34048
9430,33920
9431,33856
9432,33664
9433,33536
9434,33472
9435,33472
9436,33408
9437,33408
9438,33408
9439,33472
9440,33408
9441,33408
9442,33472
9443,33600
9444,33664
9445,33664
9446,33728
9447,33792
9448,33856
9449,33792
9450,33792
9451,33856
9452,33920
9453,33920
9454,33920
9455,33920
9456,33920
9457,33920
9458,33920
9459,33984
9460,33984
9461,33984
9462,33920
9463,33984
9464,33920
9465,33984
9466,33984
9467,33984
9468,33984
9469,34048
9470,33984
9471,33984
9472,34048
9473,34048
9474,33984
9475,33920
9476,33984
9477,33984
9478,33920
9479,33856
9480,33856
9481,33920
9482,33920
9483,33856
9484,33920
9485,34048
9486,34176
9487,34240
9488,34432
9489,34560
9490,34560
9491,34496
9492,34560
9493,34688
9494,34624
9495,34752
9496,34816
9497,34944
9498,35072
9499,35008
9500,34880
9501,34752
9502,34496
9503,34112
9504,33792
9505,33472
9506,33216
9507,33024
9508,32960
9509,32960
9510,33088
9511,33216
9512,33280
9513,33408
9514,33600
9515,33664
9516,33664
9517,33728
9518,33728
9519,33472
9520,33088
9521,32832
9522,33088
9523,34752
9524,34944
9525,38336
9526,40896
9527,43200
9528,44544
9529,44352
9530,41984
9531,38400
9532,34816
9533,32064
9534,30464
9535,29824
9536,29824
9537,30144
9538,30720
9539,31424
9540,32000
9541,32512
9542,32960
9543,33344
9544,33600
9545,33728
9546,33792
9547,33920
9548,33984
9549,33984
9550,33920
9551,33920
9552,33984
9553,33920
9554,33856
9555,33920
9556,33920
9557,33920
9558,33920
9559,33920
9560,33984
9561,33984
9562,33984
9563,33984
9564,34112
9565,34112
9566,34112
9567,34176
9568,34368
9569,34304
9570,34368
9571,34432
9572,34560
9573,34624
9574,34688
9575,34688
9576,34752
9577,34816
9578,34816
9579,34816
9580,34816
9581,34816
9582,34816
9583,34752
9584,34752
9585,34752
9586,34688
9587,34560
9588,34496
9589,34496
9590,34432
9591,34304
9592,34240
9593,34176
9594,34048
9595,33920
9596,33792
9597,33728
9598,33600
9599,33536
9600,33472
9601,33408
9602,33472
9603,33472
9604,33472
9605,33536
9606,33600
9607,33600
9608,33600
9609,33664
9610,33728
9611,33728
9612,33728
9613,33856
9614,33792
9615,33856
9616,33856
9617,33856
9618,33920
9619,33984
9620,33856
9621,33856
9622,33920
9623,33920
9624,33920
9625,33856
9626,33920
9627,33920
9628,33920
9629,33920
9630,33984
9631,33984
9632,33984
9633,33920
9634,33920
9635,33984
9636,33920
9637,33920
9638,33920
9639,33920
9640,33984
9641,33920
9642,33920
9643,33984
9644,34048
9645,34048
9646,34176
9647,34368
9648,34560
9649,34624
9650,34624
9651,34624
9652,34688
9653,34688
9654,34688
9655,34816
9656,34944
9657,35008
9658,35008
9659,34944
9660,34880
9661,34624
9662,34304
9663,33984
9664,33728
9665,33408
9666,33152
9667,33024
9668,33088
9669,33152
9670,33216
9671,33344
9672,33472
9673,33600
9674,33600
9675,33664
9676,33792
9677,33856
9678,33728
9679,33344
9680,33024
9681,32960
9682,33536
9683,34944
9684,37120
9685,39616
9686,42112
9687,44096
9688,44864
9689,43776
9690,40512
9691,36672
9692,33408
9693,31232
9694,30144
9695,29824
9696,29952
9697,30464
9698,31104
9699,31680
9700,32192
9701,32704
9702,33152
9703,33536
9704,33536
9705,33792
9706,33920
9707,33984
9708,33984
9709,33984
9710,33984
9711,33920
9712,33856
9713,33856
9714,33856
9715,33856
9716,33792
9717,33792
9718,33920
9719,33920
9720,33920
9721,33920
9722,33984
9723,34048
9724,34112
9725,34048
9726,34112
9727,34240
9728,34240
9729,34304
9730,34368
9731,34496
9732,34560
9733,34624
9734,34560
9735,34688
9736,34688
9737,34688
9738,34752
9739,34816
9740,34816
9741,34752
9742,34688
9743,34688
9744,34624
9745,34560
9746,34496
9747,34496
9748,34496
9749,34368
9750,34304
9751,34240
9752,34176
9753,34112
9754,33920
9755,33856
9756,33792
9757,33664
9758,33536
9759,33472
9760,33472
9761,33408
9762,33408
9763,33472
9764,33408
9765,33536
9766,33536
9767,33536
9768,33664
9769,33664
9770,33664
9771,33664
9772,33728
9773,33856
9774,33856
9775,33856
9776,33920
9777,33920
9778,33984
9779,33920
9780,33984
9781,33984
9782,33984
9783,33984
9784,33920
9785,33984
9786,33984
9787,33984
9788,33984
9789,33984
9790,33984
9791,33984
9792,33920
9793,33984
9794,33984
9795,33920
9796,33856
9797,33920
9798,33984
9799,33984
9800,33920
9801,33920
9802,33984
9803,33920
9804,33920
9805,33920
9806,33984
9807,33984
9808,33920
9809,33856
9810,33984
9811,33984
9812,34048
9813,34176
9814,34368
9815,34560
9816,34624
9817,34560
9818,34624
9819,34624
9820,34624
9821,34624
9822,34816
9823,35008
9824,34944
9825,34944
9826,34880
9827,34752
9828,34496
9829,34240
9830,33920
9831,33600
9832,33280
9833,33088
9834,32960
9835,33024
9836,33088
9837,33152
9838,33344
9839,33344
9840,33472
9841,33536
9842,33600
9843,33728
9844,33728
9845,33536
9846,33216
9847,32896
9848,32832
9849,33472
9850,34880
9851,37056
9852,39616
9853,42304
9854,43968
9855,44736
9856,43584
9857,40384
9858,36544
9859,33344
9860,31232
9861,30144
9862,29824
9863,30016
9864,30592
9865,31232
9866,31744
9867,32256
9868,32704
9869,33152
9870,33408
9871,33600
9872,33792
9873,33856
9874,33920
9875,33856
9876,33856
9877,33920
9878,33856
9879,33856
9880,33856
9881,33920
9882,33920
9883,33920
9884,33920
9885,33984
9886,33984
9887,33984
9888,33984
9889,34048
9890,34048
9891,34112
9892,34112
9893,34176
9894,34240
9895,34368
9896,34432
9897,34496
9898,34560
9899,34624
9900,34624
9901,34688
9902,34816
9903,34816
9904,34752
9905,34688
9906,34752
9907,34752
9908,34688
9909,34688
9910,34688
9911,34688
9912,34624
9913,34560
9914,34560
9915,34496
9916,34432
9917,34304
9918,34304
9919,34240
9920,34112
9921,33920
9922,33856
9923,33728
9924,33664
9925,33536
9926,33472
9927,33536
9928,33472
9929,33344
9930,33344
9931,33344
9932,33408
9933,33408
9934,33472
9935,33600
9936,33728
9937,33728
9938,33728
9939,33792
9940,33792
9941,33792
9942,33856
9943,33856
9944,33856
9945,33856
9946,33856
9947,33920
9948,33920
9949,33920
9950,33920
9951,33920
9952,33984
9953,33984
9954,33856
9955,33856
9956,33920
9957,33920
9958,33920
9959,33920
9960,33984
9961,33984
9962,33920
9963,33920
9964,33984
9965,33984
9966,33920
9967,33856
9968,33920
9969,33984
9970,33984
9971,33920
9972,33984
9973,33984
9974,33984
9975,33984
9976,34048
9977,34176
9978,34304
9979,34368
9980,34496
9981,34560
9982,34496
9983,34496
9984,34496
9985,34624
9986,34752
9987,34816
9988,34880
9989,35008
9990,35008
9991,34880
9992,34624
9993,34368
9994,34112
9995,33728
9996,33344
9997,33088
9998,33024
9999,33024
10000,32960
10001,33088
10002,33280
10003,33408
10004,33472
10005,33536
10006,33664
10007,33664
10008,33600
10009,33536
10010,33344
10011,32960
10012,32768
10013,33216
10014,34496
10015,36480
10016,38784
10017,41152
10018,43264
10019,44480
10020,43968
10021,41408
10022,37888
10023,34624
10024,32000
10025,30464
10026,29824
10027,29824
10028,30272
10029,30848
10030,31488
10031,32128
10032,32704
10033,33088
10034,33408
10035,33664
10036,33856
10037,33984
10038,34048
10039,34112
10040,34112
10041,34048
10042,33920
10043,33920
10044,33984
10045,33920
10046,33920
10047,33920
10048,33984
10049,33984
10050,33920
10051,33920
10052,34048
10053,34048
10054,34048
10055,34048
10056,34112
10057,34176
10058,34176
10059,34240
10060,34304
10061,34432
10062,34432
10063,34368
10064,34432
10065,34496
10066,34496
10067,34496
10068,34560
10069,34624
10070,34624
10071,34624
10072,34560
10073,34560
10074,34496
10075,34432
10076,34432
10077,34432
10078,34432
10079,34368
10080,34240
10081,34240
10082,34176
10083,34048
10084,33984
10085,33984
10086,33920
10087,33792
10088,33664
10089,33600
10090,33536
10091,33472
10092,33408
10093,33472
10094,33472
10095,33472
10096,33472
10097,33536
10098,33664
10099,33728
10100,33728
10101,33728
10102,33728
10103,33792
10104,33728
10105,33792
10106,33792
10107,33856
10108,33856
10109,33856
10110,33920
10111,33984
10112,33920
10113,33920
10114,33920
10115,33920
10116,33920
10117,33920
10118,33984
10119,34048
10120,34048
10121,33984
10122,33984
10123,33984
10124,33984
10125,33920
10126,33920
10127,33984
10128,34048
10129,34048
10130,34176
10131,34240
10132,34368
10133,34496
10134,34560
10135,34688
10136,34944
10137,35008
10138,34944
10139,34880
10140,34944
10141,34880
10142,34816
10143,34880
10144,34752
10145,34560
10146,34176
10147,33920
10148,33728
10149,33472
10150,33216
10151,33088
10152,33024
10153,32960
10154,33024
10155,33152
10156,33344
10157,33408
10158,33408
10159,33472
10160,33600
10161,33728
10162,33728
10163,33664
10164,33472
10165,33344
10166,33152
10167,33408
10168,34560
10169,36416
10170,38720
10171,41088
10172,43264
10173,44608
10174,44544
10175,42240
10176,38784
10177,35392
10178,32704
10179,31040
10180,30208
10181,30144
10182,30528
10183,31104
10184,31808
10185,32448
10186,33024
10187,33472
10188,33856
10189,34176
10190,34368
10191,34496
10192,34560
10193,34560
10194,34560
10195,34496
10196,34432
10197,34432
10198,34432
10199,34432
10200,34304
10201,34240
10202,34240
10203,34304
10204,34368
10205,34432
10206,34496
10207,34368
10208,34112
10209,33856
10210,33728
10211,33664
10212,33600
10213,33728
10214,33920
10215,34112
10216,34176
10217,34112
10218,34240
10219,34432
10220,34496
10221,34496
10222,34496
10223,34560
10224,34560
10225,34560
10226,34432
10227,34432
10228,34368
10229,34240
10230,34176
10231,34176
10232,34240
10233,34112
10234,34048
10235,33984
10236,33984
10237,33856
10238,33728
10239,33600
10240,33536
10241,33344
10242,33216
10243,33152
10244,33088
10245,33024
10246,33024
10247,33088
10248,33216
10249,33344
10250,33344
10251,33408
10252,33472
10253,33536
10254,33536
10255,33600
10256,33664
10257,33792
10258,33856
10259,33856
10260,33856
10261,33920
10262,33920
10263,33920
10264,33920
10265,33920
10266,33792
10267,33728
10268,33792
10269,33856
10270,33856
10271,33856
10272,33920
10273,33920
10274,33792
10275,33664
10276,33664
10277,33792
10278,33856
10279,33792
10280,33792
10281,33920
10282,33792
10283,33728
10284,33664
10285,33728
10286,33728
10287,33664
10288,33664
10289,33792
10290,33920
10291,34048
10292,34048
10293,34048
10294,34048
10295,34048
10296,34240
10297,34560
10298,34880
10299,35008
10300,34944
10301,34880
10302,34880
10303,34944
10304,34944
10305,34944
10306,35136
10307,35200
10308,35200
10309,35136
10310,35072
10311,34880
10312,34496
10313,34176
10314,33856
10315,33600
10316,33344
10317,33280
10318,33280
10319,33408
10320,33600
10321,33728
10322,33920
10323,33984
10324,33984
10325,34048
10326,34176
10327,34112
10328,33984
10329,33600
10330,33216
10331,33088
10332,33536
10333,34880
10334,37056
10335,39808
10336,42496
10337,44672
10338,45888
10339,45056
10340,41920
10341,37824
10342,34048
10343,31488
10344,30016
10345,29504
10346,29696
10347,30336
10348,31040
10349,31680
10350,32256
10351,32832
10352,33408
10353,33792
10354,34112
10355,34304
10356,34496
10357,34496
10358,34368
10359,34112
10360,34048
10361,33984
10362,33920
10363,33856
10364,33920
10365,34048
10366,34048
10367,34048
10368,34240
10369,34560
10370,34816
10371,34816
10372,34816
10373,34880
10374,34880
10375,34752
10376,34560
10377,34496
10378,34304
10379,34176
10380,34176
10381,34240
10382,34240
10383,34176
10384,34112
10385,34112
10386,34176
10387,34112
10388,34048
10389,34112
10390,34176
10391,34176
10392,34112
10393,34048
10394,34048
10395,33920
10396,33728
10397,33536
10398,33472
10399,33280
10400,32960
10401,32640
10402,32448
10403,32256
10404,32128
10405,31936
10406,31680
10407,31488
10408,31296
10409,31168
10410,31168
10411,31168
10412,31168
10413,31168
10414,31360
10415,31680
10416,32128
10417,32704
10418,33216
10419,33472
10420,33344
10421,33088
10422,32896
10423,32896
10424,32896
10425,33024
10426,33152
10427,33344
10428,33472
10429,33600
10430,33664
10431,33920
10432,34112
10433,34368
10434,34560
10435,34816
10436,35008
10437,35136
10438,35200
10439,35392
10440,35520
10441,35584
10442,35648
10443,35776
10444,35904
10445,35840
10446,35840
10447,35904
10448,35776
10449,35584
10450,35328
10451,35200
10452,35264
10453,35456
10454,35648
10455,35968
10456,36224
10457,36544
10458,36800
10459,37056
10460,37312
10461,37568
10462,37824
10463,38016
10464,38144
10465,38208
10466,38080
10467,37696
10468,37312
10469,36928
10470,36544
10471,36096
10472,35712
10473,35584
10474,35456
10475,35328
10476,35264
10477,35264
10478,35392
10479,35520
10480,35584
10481,35648
10482,35584
10483,35456
10484,35200
10485,34944
10486,34496
10487,34176
10488,34432
10489,35904
10490,37952
10491,40576
10492,43264
10493,45568
10494,46720
10495,45760
10496,42752
10497,38976
10498,35648
10499,33344
10500,32128
10501,31744
10502,32064
10503,32576
10504,33216
10505,33792
10506,34368
10507,34880
10508,35200
10509,35392
10510,35584
10511,35712
10512,35648
10513,35648
10514,35648
10515,35520
10516,35392
10517,35264
10518,35200
10519,35200
10520,35136
10521,35008
10522,34944
10523,34944
10524,34880
10525,34816
10526,34752
10527,34688
10528,34496
10529,34176
10530,33920
10531,33792
10532,33664
10533,33664
10534,33664
10535,33792
10536,33984
10537,34112
10538,34240
10539,34496
10540,34688
10541,34880
10542,34944
10543,35008
10544,35072
10545,35072
10546,35008
10547,34944
10548,34944
10549,34880
10550,34752
10551,34560
10552,34496
10553,34368
10554,34368
10555,34304
10556,34368
10557,34432
10558,34368
10559,34368
10560,34368
10561,34368
10562,34304
10563,34240
10564,34176
10565,34176
10566,34112
10567,34048
10568,34048
10569,34176
10570,34240
10571,34304
10572,34304
10573,34368
10574,34368
10575,34304
10576,34240
10577,34240
10578,34240
10579,34240
10580,34240
10581,34304
10582,34368
10583,34496
10584,34560
10585,34624
10586,34624
10587,34560
10588,34432
10589,34368
10590,34368
10591,34368
10592,34304
10593,34304
10594,34368
10595,34368
10596,34368
10597,34368
10598,34496
10599,34496
10600,34432
10601,34368
10602,34368
10603,34368
10604,34304
10605,34240
10606,34368
10607,34496
10608,34560
10609,34688
10610,34752
10611,34816
10612,34816
10613,34816
10614,34880
10615,35008
10616,35072
10617,35072
10618,35200
10619,35264
10620,35264
10621,35200
10622,35008
10623,34752
10624,34432
10625,34048
10626,33728
10627,33600
10628,33472
10629,33408
10630,33472
10631,33664
10632,33856
10633,33984
10634,34048
10635,34048
10636,34048
10637,33984
10638,33920
10639,33920
10640,33920
10641,33728
10642,33408
10643,33344
10644,33856
10645,35200
10646,37248
10647,39744
10648,42304
10649,44288
10650,45120
10651,44288
10652,41408
10653,37824
10654,34304
10655,32064
10656,30720
10657,30208
10658,30272
10659,30720
10660,31360
10661,32128
10662,32704
10663,33152
10664,33600
10665,33984
10666,34240
10667,34368
10668,34496
10669,34560
10670,34496
10671,34432
10672,34368
10673,34368
10674,34368
10675,34304
10676,34240
10677,34304
10678,34304
10679,34240
10680,34176
10681,34240
10682,34304
10683,34304
10684,34368
10685,34432
10686,34496
10687,34560
10688,34560
10689,34624
10690,34688
10691,34688
10692,34688
10693,34752
10694,34816
10695,34816
10696,34816
10697,34880
10698,34944
10699,35008
10700,34944
10701,34944
10702,34944
10703,34944
10704,34816
10705,34688
10706,34688
10707,34688
10708,34688
10709,34688
10710,34688
10711,34688
10712,34624
10713,34496
10714,34496
10715,34432
10716,34304
10717,34176
10718,34048
10719,33984
10720,33920
10721,33792
10722,33792
10723,33792
10724,33792
10725,33728
10726,33728
10727,33792
10728,33856
10729,33920
10730,33984
10731,34048
10732,34112
10733,34112
10734,34112
10735,34176
10736,34176
10737,34176
10738,34112
10739,34176
10740,34176
10741,34176
10742,34112
10743,34048
10744,34176
10745,34176
10746,34176
10747,34176
10748,34304
10749,34304
10750,34240
10751,34240
10752,34304
10753,34304
10754,34304
10755,34368
10756,34496
10757,34560
10758,34560
10759,34560
10760,34624
10761,34752
10762,34816
10763,34816
10764,34944
10765,35072
10766,35200
10767,35200
10768,35200
10769,35200
10770,34944
10771,34624
10772,34304
10773,34112
10774,33792
10775,33536
10776,33408
10777,33408
10778,33408
10779,33472
10780,33536
10781,33600
10782,33728
10783,33792
10784,33856
10785,33920
10786,34048
10787,34048
10788,33856
10789,33536
10790,33216
10791,33280
10792,33984
10793,35520
10794,37760
10795,40256
10796,42624
10797,44288
10798,44800
10799,43200
10800,39936
10801,36352
10802,33344
10803,31296
10804,30208
10805,29824
10806,30080
10807,30656
10808,31296
10809,31936
10810,32576
10811,33152
10812,33536
10813,33792
10814,33984
10815,34176
10816,34176
10817,34176
10818,34176
10819,34240
10820,34176
10821,34176
10822,34112
10823,34112
10824,34176
10825,34112
10826,34112
10827,34112
10828,34176
10829,34176
10830,34176
10831,34304
10832,34368
10833,34368
10834,34368
10835,34432
10836,34496
10837,34560
10838,34560
10839,34688
10840,34752
10841,34752
10842,34752
10843,34752
10844,34816
10845,34880
10846,34944
10847,34944
10848,35008
10849,35072
10850,34944
10851,34944
10852,34944
10853,34944
10854,34880
10855,34752
10856,34688
10857,34688
10858,34624
10859,34624
10860,34560
10861,34496
10862,34432
10863,34304
10864,34176
10865,34048
10866,33984
10867,33792
10868,33728
10869,33728
10870,33728
10871,33664
10872,33664
10873,33728
10874,33792
10875,33792
10876,33792
10877,33920
10878,33984
10879,33984
10880,33984
10881,34048
10882,34112
10883,34048
10884,33984
10885,33984
10886,34048
10887,34048
10888,33984
10889,34048
10890,34048
10891,34048
10892,33984
10893,34048
10894,34112
10895,34176
10896,34176
10897,34176
10898,34176
10899,34176
10900,34176
10901,34176
10902,34240
10903,34368
10904,34432
10905,34560
10906,34624
10907,34752
10908,34752
10909,34688
10910,34752
10911,34816
10912,34880
10913,34944
10914,35008
10915,35136
10916,35200
10917,35136
10918,34944
10919,34752
10920,34496
10921,34048
10922,33664
10923,33408
10924,33280
