,ECG
0,72
1,65
2,56
3,47
4,41
5,35
6,31
7,30
8,30
9,28
10,27
11,23
12,17
13,11
14,4
15,0
16,-2
17,-4
18,-5
19,-4
20,-1
21,0
22,0
23,-2
24,-2
25,-5
26,-9
27,-12
28,-15
29,-17
30,-15
31,-9
32,-5
33,-2
34,0
35,-1
36,-2
37,-4
38,-7
39,-10
40,-11
41,-12
42,-9
43,-6
44,-1
45,4
46,11
47,17
48,21
49,23
50,22
51,19
52,13
53,13
54,14
55,18
56,22
57,25
58,28
59,29
60,28
61,26
62,25
63,24
64,25
65,28
66,30
67,33
68,33
69,30
70,27
71,23
72,21
73,20
74,22
75,26
76,28
77,28
78,26
79,24
80,23
81,23
82,23
83,27
84,36
85,40
86,43
87,43
88,41
89,40
90,38
91,37
92,37
93,38
94,38
95,40
96,42
97,44
98,42
99,38
100,34
101,31
102,26
103,23
104,24
105,25
106,27
107,31
108,32
109,33
110,34
111,32
112,32
113,30
114,28
115,27
116,28
117,30
118,32
119,34
120,38
121,40
122,41
123,44
124,43
125,41
126,38
127,35
128,32
129,31
130,31
131,31
132,32
133,35
134,39
135,39
136,40
137,36
138,33
139,31
140,27
141,22
142,22
143,21
144,22
145,26
146,31
147,34
148,37
149,39
150,35
151,33
152,32
153,31
154,30
155,32
156,31
157,27
158,26
159,24
160,24
161,24
162,25
163,28
164,33
165,32
166,33
167,35
168,35
169,37
170,39
171,40
172,41
173,41
174,41
175,40
176,39
177,37
178,38
179,40
180,43
181,44
182,46
183,48
184,49
185,48
186,46
187,43
188,44
189,47
190,50
191,53
192,58
193,63
194,66
195,67
196,66
197,64
198,61
199,57
200,57
201,57
202,57
203,58
204,61
205,63
206,65
207,67
208,66
209,63
210,63
211,63
212,67
213,67
214,70
215,71
216,72
217,75
218,78
219,81
220,82
221,84
222,84
223,82
224,78
225,70
226,67
227,66
228,65
229,65
230,65
231,64
232,62
233,61
234,58
235,56
236,53
237,51
238,51
239,52
240,50
241,49
242,50
243,51
244,53
245,58
246,58
247,58
248,60
249,61
250,59
251,62
252,68
253,80
254,97
255,118
256,141
257,164
258,183
259,199
260,215
261,228
262,242
263,264
264,300
265,347
266,397
267,438
268,465
269,468
270,446
271,399
272,399
273,338
274,270
275,201
276,136
277,81
278,-11
279,-54
280,-91
281,-117
282,-132
283,-133
284,-123
285,-104
286,-81
287,-55
288,-31
289,-13
290,-2
291,2
292,2
293,1
294,1
295,2
296,5
297,7
298,11
299,14
300,13
301,11
302,9
303,9
304,14
305,21
306,28
307,33
308,36
309,36
310,32
311,27
312,24
313,24
314,25
315,29
316,33
317,39
318,44
319,45
320,45
321,45
322,42
323,39
324,38
325,36
326,36
327,38
328,41
329,42
330,41
331,41
332,39
333,38
334,37
335,33
336,31
337,32
338,33
339,38
340,45
341,51
342,53
343,55
344,54
345,56
346,57
347,60
348,63
349,64
350,62
351,58
352,53
353,50
354,50
355,54
356,58
357,64
358,72
359,76
360,79
361,81
362,81
363,81
364,82
365,81
366,82
367,83
368,84
369,84
370,85
371,84
372,83
373,80
374,82
375,82
376,86
377,92
378,98
379,104
380,112
381,122
382,131
383,140
384,147
385,152
386,155
387,154
388,152
389,152
390,152
391,153
392,157
393,159
394,162
395,165
396,167
397,168
398,169
399,167
400,166
401,164
402,163
403,164
404,163
405,166
406,167
407,166
408,165
409,162
410,155
411,148
412,138
413,130
414,130
415,122
416,114
417,110
418,110
419,105
420,99
421,93
422,85
423,74
424,65
425,57
426,51
427,46
428,42
429,40
430,37
431,34
432,31
433,26
434,21
435,17
436,14
437,5
438,2
439,0
440,-3
441,-5
442,-7
443,-8
444,-12
445,-13
446,-14
447,-16
448,-19
449,-18
450,-13
451,-10
452,-5
453,-2
454,-1
455,-3
456,-4
457,-6
458,-9
459,-10
460,-10
461,-11
462,-10
463,-7
464,-7
465,-6
466,-3
467,-1
468,0
469,2
470,5
471,7
472,7
473,10
474,12
475,9
476,4
477,2
478,0
479,0
480,2
481,6
482,8
483,8
484,10
485,12
486,13
487,14
488,14
489,16
490,20
491,22
492,23
493,24
494,23
495,23
496,24
497,25
498,28
499,29
500,30
501,31
502,29
503,27
504,26
505,25
506,24
507,25
508,24
509,22
510,19
511,16
512,14
513,14
514,14
515,16
516,18
517,21
518,22
519,23
520,26
521,25
522,25
523,27
524,27
525,27
526,27
527,24
528,21
529,21
530,21
531,23
532,28
533,30
534,32
535,33
536,33
537,32
538,31
539,30
540,29
541,27
542,26
543,26
544,26
545,28
546,30
547,31
548,31
549,32
550,33
551,31
552,31
553,33
554,36
555,37
556,41
557,41
558,45
559,49
560,50
561,50
562,50
563,47
564,41
565,38
566,35
567,34
568,36
569,39
570,42
571,43
572,46
573,49
574,52
575,51
576,49
577,45
578,42
579,40
580,37
581,34
582,31
583,31
584,32
585,33
586,37
587,37
588,35
589,36
590,35
591,34
592,33
593,33
594,34
595,37
596,40
597,43
598,48
599,49
600,52
601,54
602,52
603,49
604,46
605,43
606,43
607,44
608,46
609,50
610,56
611,56
612,54
613,53
614,47
615,42
616,39
617,36
618,37
619,40
620,43
621,50
622,56
623,59
624,61
625,62
626,63
627,61
628,60
629,60
630,61
631,62
632,63
633,62
634,60
635,59
636,59
637,60
638,62
639,66
640,70
641,75
642,78
643,80
644,78
645,77
646,78
647,82
648,84
649,87
650,87
651,86
652,82
653,74
654,66
655,59
656,56
657,56
658,58
659,66
660,68
661,68
662,65
663,59
664,52
665,48
666,47
667,48
668,49
669,51
670,55
671,59
672,60
673,62
674,62
675,61
676,63
677,64
678,64
679,64
680,65
681,71
682,84
683,104
684,126
685,153
686,179
687,202
688,218
689,230
690,255
691,274
692,303
693,349
694,402
695,449
696,481
697,489
698,468
699,468
700,419
701,353
702,280
703,207
704,143
705,92
706,51
707,13
708,-30
709,-69
710,-100
711,-123
712,-132
713,-128
714,-115
715,-95
716,-69
717,-48
718,-32
719,-19
720,-11
721,-4
722,-1
723,0
724,0
725,0
726,1
727,1
728,-2
729,-3
730,-2
731,2
732,8
733,13
734,18
735,22
736,24
737,24
738,25
739,26
740,25
741,26
742,28
743,26
744,23
745,22
746,23
747,26
748,29
749,32
750,35
751,38
752,39
753,39
754,41
755,40
756,39
757,39
758,36
759,36
760,35
761,33
762,39
763,45
764,48
765,53
766,56
767,55
768,53
769,52
770,50
771,51
772,50
773,49
774,52
775,53
776,50
777,50
778,51
779,51
780,54
781,57
782,60
783,63
784,65
785,65
786,66
787,64
788,65
789,70
790,74
791,79
792,82
793,85
794,86
795,84
796,83
797,84
798,85
799,90
800,99
801,107
802,113
803,114
804,116
805,119
806,120
807,116
808,116
809,115
810,113
811,114
812,120
813,126
814,133
815,143
816,152
817,157
818,158
819,151
820,147
821,142
822,139
823,139
824,139
825,143
826,148
827,154
828,161
829,167
830,171
831,173
832,172
833,168
834,163
835,160
836,157
837,154
838,151
839,148
840,146
841,146
842,141
843,136
844,132
845,127
846,121
847,115
848,108
849,101
850,95
851,90
852,77
853,69
854,59
855,50
856,39
857,28
858,21
859,16
860,15
861,16
862,17
863,15
864,13
865,10
866,8
867,4
868,0
869,-4
870,-5
871,-5
872,-5
873,-6
874,-5
875,-4
876,0
877,3
878,3
879,2
880,0
881,0
882,-2
883,-6
884,-8
885,-10
886,-8
887,-4
888,-2
889,-2
890,0
891,4
892,7
893,8
894,6
895,6
896,6
897,4
898,1
899,0
900,-2
901,-1
902,0
903,3
904,7
905,11
906,14
907,19
908,21
909,23
910,21
911,18
912,16
913,16
914,15
915,15
916,17
917,23
918,24
919,26
920,29
921,32
922,34
923,37
924,37
925,35
926,35
927,34
928,32
929,29
930,29
931,32
932,35
933,36
934,38
935,40
936,39
937,39
938,39
939,40
940,40
941,41
942,44
943,46
944,45
945,44
946,43
947,41
948,37
949,38
950,36
951,33
952,31
953,31
954,31
955,32
956,36
957,39
958,40
959,41
960,41
961,42
962,41
963,40
964,42
965,46
966,47
967,50
968,49
969,48
970,48
971,48
972,48
973,47
974,44
975,41
976,39
977,36
978,34
979,36
980,38
981,48
982,55
983,55
984,59
985,58
986,55
987,51
988,47
989,41
990,38
991,38
992,39
993,40
994,40
995,41
996,40
997,39
998,41
999,42
1000,42
1001,42
1002,41
1003,40
1004,38
1005,35
1006,35
1007,37
1008,38
1009,39
1010,41
1011,42
1012,42
1013,43
1014,43
1015,44
1016,46
1017,47
1018,49
1019,51
1020,53
1021,56
1022,57
1023,57
1024,57
1025,57
1026,57
1027,59
1028,59
1029,57
1030,58
1031,58
1032,58
1033,61
1034,62
1035,62
1036,62
1037,61
1038,59
1039,56
1040,52
1041,49
1042,49
1043,50
1044,51
1045,52
1046,51
1047,49
1048,47
1049,47
1050,48
1051,49
1052,51
1053,54
1054,58
1055,59
1056,57
1057,57
1058,58
1059,57
1060,55
1061,55
1062,56
1063,56
1064,59
1065,63
1066,67
1067,72
1068,77
1069,78
1070,78
1071,74
1072,67
1073,64
1074,61
1075,62
1076,70
1077,77
1078,91
1079,96
1080,96
1081,93
1082,90
1083,84
1084,80
1085,76
1086,73
1087,71
1088,70
1089,69
1090,69
1091,70
1092,71
1093,67
1094,64
1095,65
1096,65
1097,64
1098,64
1099,65
1100,65
1101,64
1102,62
1103,61
1104,59
1105,58
1106,59
1107,62
1108,66
1109,66
1110,65
1111,63
1112,61
1113,62
1114,67
1115,79
1116,101
1117,127
1118,153
1119,180
1120,201
1121,213
1122,222
1123,229
1124,240
1125,240
1126,258
1127,285
1128,331
1129,389
1130,445
1131,489
1132,510
1133,506
1134,472
1135,413
1136,343
1137,269
1138,196
1139,131
1140,77
1141,27
1142,-19
1143,-101
1144,-127
1145,-137
1146,-133
1147,-115
1148,-90
1149,-64
1150,-38
1151,-18
1152,-8
1153,-1
1154,1
1155,0
1156,0
1157,2
1158,3
1159,5
1160,8
1161,9
1162,11
1163,14
1164,16
1165,17
1166,18
1167,15
1168,13
1169,13
1170,13
1171,17
1172,23
1173,29
1174,36
1175,47
1176,46
1177,43
1178,39
1179,35
1180,31
1181,30
1182,28
1183,28
1184,33
1185,38
1186,40
1187,42
1188,45
1189,46
1190,49
1191,50
1192,50
1193,49
1194,49
1195,49
1196,49
1197,50
1198,50
1199,51
1200,51
1201,52
1202,54
1203,54
1204,53
1205,54
1206,56
1207,56
1208,58
1209,58
1210,57
1211,56
1212,58
1213,59
1214,62
1215,62
1216,63
1217,64
1218,63
1219,61
1220,63
1221,68
1222,74
1223,80
1224,87
1225,90
1226,92
1227,93
1228,92
1229,92
1230,97
1231,102
1232,105
1233,106
1234,104
1235,103
1236,103
1237,104
1238,108
1239,115
1240,120
1241,126
1242,130
1243,132
1244,135
1245,142
1246,150
1247,156
1248,160
1249,162
1250,160
1251,159
1252,158
1253,158
1254,161
1255,164
1256,169
1257,173
1258,174
1259,174
1260,174
1261,173
1262,174
1263,178
1264,179
1265,181
1266,182
1267,181
1268,181
1269,180
1270,182
1271,182
1272,183
1273,182
1274,176
1275,166
1276,155
1277,145
1278,135
1279,128
1280,125
1281,122
1282,118
1283,115
1284,111
1285,106
1286,97
1287,89
1288,82
1289,74
1290,67
1291,61
1292,55
1293,51
1294,48
1295,46
1296,43
1297,40
1298,37
1299,35
1300,34
1301,31
1302,27
1303,12
1304,3
1305,-3
1306,-5
1307,-5
1308,-4
1309,1
1310,9
1311,12
1312,12
1313,10
1314,8
1315,5
1316,3
1317,2
1318,1
1319,-1
1320,-3
1321,-1
1322,0
1323,4
1324,6
1325,10
1326,14
1327,16
1328,16
1329,17
1330,17
1331,18
1332,18
1333,18
1334,21
1335,22
1336,22
1337,24
1338,24
1339,22
1340,21
1341,21
1342,21
1343,21
1344,24
1345,26
1346,28
1347,28
1348,28
1349,29
1350,33
1351,35
1352,37
1353,37
1354,37
1355,37
1356,36
1357,36
1358,36
1359,37
1360,39
1361,41
1362,43
1363,43
1364,42
1365,41
1366,40
1367,38
1368,36
1369,35
1370,36
1371,38
1372,42
1373,45
1374,45
1375,46
1376,46
1377,45
1378,46
1379,46
1380,45
1381,44
1382,41
1383,37
1384,34
1385,30
1386,27
1387,29
1388,33
1389,37
1390,42
1391,45
1392,45
1393,42
1394,38
1395,36
1396,35
1397,34
1398,36
1399,45
1400,49
1401,53
1402,57
1403,57
1404,55
1405,53
1406,52
1407,47
1408,41
1409,37
1410,37
1411,35
1412,34
1413,35
1414,38
1415,41
1416,40
1417,40
1418,46
1419,51
1420,53
1421,55
1422,57
1423,54
1424,49
1425,45
1426,43
1427,41
1428,42
1429,45
1430,50
1431,51
1432,47
1433,46
1434,44
1435,42
1436,42
1437,41
1438,40
1439,41
1440,43
1441,44
1442,46
1443,50
1444,51
1445,52
1446,53
1447,50
1448,46
1449,45
1450,44
1451,45
1452,47
1453,49
1454,50
1455,54
1456,55
1457,54
1458,54
1459,55
1460,54
1461,54
1462,55
1463,54
1464,53
1465,52
1466,52
1467,52
1468,52
1469,55
1470,59
1471,59
1472,58
1473,57
1474,56
1475,55
1476,55
1477,58
1478,62
1479,66
1480,68
1481,70
1482,72
1483,74
1484,75
1485,75
1486,73
1487,71
1488,68
1489,64
1490,63
1491,62
1492,62
1493,67
1494,83
1495,86
1496,87
1497,86
1498,83
1499,82
1500,76
1501,72
1502,69
1503,66
1504,66
1505,67
1506,66
1507,64
1508,64
1509,62
1510,59
1511,58
1512,54
1513,49
1514,50
1515,51
1516,52
1517,54
1518,54
1519,53
1520,55
1521,55
1522,57
1523,61
1524,61
1525,59
1526,57
1527,55
1528,55
1529,62
1530,76
1531,95
1532,116
1533,137
1534,160
1535,179
1536,197
1537,214
1538,230
1539,245
1540,263
1541,290
1542,331
1543,379
1544,424
1545,456
1546,470
1547,458
1548,420
1549,362
1550,295
1551,227
1552,227
1553,166
1554,113
1555,68
1556,26
1557,-16
1558,-61
1559,-97
1560,-140
1561,-143
1562,-133
1563,-115
1564,-89
1565,-64
1566,-40
1567,-21
1568,-11
1569,-5
1570,1
1571,2
1572,2
1573,1
1574,1
1575,3
1576,2
1577,3
1578,7
1579,9
1580,11
1581,15
1582,19
1583,21
1584,23
1585,25
1586,27
1587,30
1588,32
1589,33
1590,33
1591,30
1592,27
1593,28
1594,28
1595,29
1596,31
1597,33
1598,35
1599,38
1600,38
1601,35
1602,31
1603,27
1604,25
1605,25
1606,27
1607,32
1608,38
1609,41
1610,43
1611,44
1612,42
1613,42
1614,42
1615,43
1616,47
1617,52
1618,54
1619,54
1620,53
1621,48
1622,44
1623,42
1624,46
1625,51
1626,56
1627,63
1628,69
1629,72
1630,72
1631,72
1632,68
1633,65
1634,65
1635,65
1636,67
1637,68
1638,69
1639,69
1640,69
1641,70
1642,70
1643,72
1644,73
1645,72
1646,72
1647,75
1648,76
1649,79
1650,82
1651,87
1652,95
1653,104
1654,112
1655,121
1656,120
1657,119
1658,115
1659,112
1660,112
1661,113
1662,116
1663,125
1664,132
1665,136
1666,141
1667,143
1668,143
1669,144
1670,144
1671,147
1672,152
1673,154
1674,155
1675,157
1676,158
1677,158
1678,158
1679,155
1680,154
1681,154
1682,154
1683,154
1684,153
1685,149
1686,144
1687,133
1688,131
1689,127
1690,122
1691,120
1692,116
1693,110
1694,110
1695,106
1696,100
1697,95
1698,91
1699,87
1700,80
1701,75
1702,68
1703,59
1704,54
1705,51
1706,48
1707,47
1708,44
1709,39
1710,34
1711,27
1712,21
1713,16
1714,12
1715,10
1716,9
1717,8
1718,8
1719,9
1720,9
1721,6
1722,3
1723,-2
1724,-8
1725,-14
1726,-17
1727,-19
1728,-18
1729,-15
1730,-12
1731,-10
1732,-9
1733,-7
1734,-6
1735,-7
1736,-5
1737,-1
1738,2
1739,2
1740,2
1741,2
1742,0
1743,0
1744,1
1745,4
1746,6
1747,10
1748,14
1749,17
1750,20
1751,20
1752,19
1753,15
1754,12
1755,12
1756,13
1757,14
1758,20
1759,25
1760,27
1761,28
1762,30
1763,30
1764,31
1765,29
1766,28
1767,28
1768,28
1769,28
1770,29
1771,28
1772,26
1773,27
1774,29
1775,29
1776,29
1777,30
1778,30
1779,31
1780,30
1781,29
1782,26
1783,27
1784,31
1785,32
1786,31
1787,29
1788,27
1789,27
1790,27
1791,27
1792,26
1793,28
1794,30
1795,30
1796,32
1797,35
1798,37
1799,41
1800,43
1801,44
1802,43
1803,39
1804,34
1805,33
1806,32
1807,32
1808,35
1809,37
1810,36
1811,37
1812,36
1813,34
1814,35
1815,37
1816,44
1817,46
1818,47
1819,46
1820,45
1821,42
1822,37
1823,33
1824,31
1825,28
1826,26
1827,27
1828,27
1829,30
1830,35
1831,38
1832,41
1833,41
1834,40
1835,37
1836,37
1837,37
1838,35
1839,36
1840,38
1841,40
1842,41
1843,42
1844,41
1845,38
1846,39
1847,39
1848,40
1849,43
1850,49
1851,53
1852,57
1853,59
1854,61
1855,60
1856,55
1857,50
1858,47
1859,44
1860,43
1861,46
1862,50
1863,53
1864,56
1865,60
1866,60
1867,58
1868,55
1869,53
1870,54
1871,55
1872,56
1873,59
1874,61
1875,64
1876,69
1877,71
1878,71
1879,72
1880,74
1881,75
1882,74
1883,70
1884,64
1885,61
1886,60
1887,58
1888,54
1889,51
1890,50
1891,49
1892,46
1893,44
1894,42
1895,42
1896,43
1897,48
1898,50
1899,50
1900,48
1901,47
1902,47
1903,45
1904,43
1905,43
1906,42
1907,40
1908,40
1909,39
1910,39
1911,41
1912,55
1913,70
1914,89
1915,113
1916,138
1917,162
1918,182
1919,199
1920,213
1921,224
1922,237
1923,251
1924,274
1925,307
1926,347
1927,388
1928,416
1929,425
1930,414
1931,381
1932,331
1933,271
1934,211
1935,152
1936,102
1937,61
1938,20
1939,-20
1940,-60
1941,-96
1942,-120
1943,-132
1944,-119
1945,-99
1946,-76
1947,-50
1948,-26
1949,-11
1950,-3
1951,1
1952,1
1953,-1
1954,-4
1955,-6
1956,-5
1957,-2
1958,4
1959,8
1960,13
1961,16
1962,15
1963,15
1964,15
1965,14
1966,15
1967,14
1968,16
1969,18
1970,19
1971,20
1972,23
1973,26
1974,27
1975,31
1976,27
1977,24
1978,21
1979,21
1980,20
1981,21
1982,25
1983,28
1984,30
1985,32
1986,35
1987,39
1988,43
1989,48
1990,53
1991,54
1992,51
1993,49
1994,46
1995,42
1996,38
1997,39
1998,40
1999,41
2000,43
2001,44
2002,45
2003,45
2004,44
2005,42
2006,41
2007,39
2008,40
2009,42
2010,47
2011,54
2012,60
2013,66
2014,70
2015,71
2016,70
2017,70
2018,67
2019,66
2020,64
2021,61
2022,60
2023,60
2024,60
2025,62
2026,67
2027,76
2028,86
2029,95
2030,100
2031,102
2032,101
2033,98
2034,94
2035,91
2036,89
2037,89
2038,92
2039,99
2040,112
2041,118
2042,123
2043,125
2044,126
2045,127
2046,127
2047,131
2048,136
2049,144
2050,148
2051,150
2052,150
2053,147
2054,145
2055,143
2056,143
2057,146
2058,149
2059,152
2060,155
2061,156
2062,155
2063,152
2064,147
2065,143
2066,138
2067,135
2068,132
2069,131
2070,133
2071,133
2072,132
2073,128
2074,122
2075,115
2076,108
2077,98
2078,92
2079,85
2080,79
2081,73
2082,66
2083,57
2084,50
2085,45
2086,42
2087,40
2088,38
2089,35
2090,33
2091,29
2092,24
2093,20
2094,13
2095,6
2096,3
2097,1
2098,-3
2099,-5
2100,-6
2101,-8
2102,-10
2103,-11
2104,-18
2105,-21
2106,-24
2107,-25
2108,-25
2109,-22
2110,-18
2111,-14
2112,-11
2113,-6
2114,0
2115,1
2116,0
2117,1
2118,2
2119,2
2120,2
2121,2
2122,2
2123,3
2124,3
2125,3
2126,4
2127,4
2128,1
2129,0
2130,-2
2131,-3
2132,0
2133,3
2134,8
2135,13
2136,18
2137,21
2138,18
2139,15
2140,14
2141,13
2142,11
2143,13
2144,14
2145,14
2146,16
2147,19
2148,23
2149,26
2150,27
2151,28
2152,30
2153,30
2154,27
2155,26
2156,26
2157,24
2158,22
2159,21
2160,21
2161,22
2162,23
2163,24
2164,26
2165,26
2166,27
2167,27
2168,28
2169,27
2170,28
2171,28
2172,28
2173,27
2174,27
2175,26
2176,26
2177,28
2178,29
2179,29
2180,30
2181,31
2182,31
2183,29
2184,30
2185,32
2186,34
2187,35
2188,35
2189,35
2190,32
2191,28
2192,26
2193,24
2194,22
2195,22
2196,25
2197,26
2198,24
2199,22
2200,22
2201,21
2202,23
2203,26
2204,28
2205,30
2206,31
2207,30
2208,26
2209,21
2210,20
2211,21
2212,24
2213,25
2214,27
2215,29
2216,30
2217,29
2218,29
2219,28
2220,29
2221,31
2222,34
2223,35
2224,37
2225,36
2226,34
2227,35
2228,35
2229,36
2230,40
2231,45
2232,51
2233,56
2234,56
2235,57
2236,56
2237,53
2238,53
2239,53
2240,55
2241,57
2242,57
2243,58
2244,57
2245,55
2246,53
2247,52
2248,52
2249,52
2250,51
2251,52
2252,56
2253,58
2254,61
2255,63
2256,64
2257,63
2258,63
2259,61
2260,59
2261,56
2262,55
2263,55
2264,52
2265,51
2266,51
2267,49
2268,47
2269,45
2270,42
2271,42
2272,41
2273,40
2274,38
2275,35
2276,28
2277,25
2278,22
2279,21
2280,21
2281,26
2282,32
2283,39
2284,45
2285,49
2286,53
2287,53
2288,53
2289,55
2290,59
2291,67
2292,77
2293,93
2294,113
2295,133
2296,153
2297,172
2298,186
2299,210
2300,222
2301,239
2302,266
2303,308
2304,360
2305,411
2306,451
2307,469
2308,459
2309,418
2310,356
2311,285
2312,208
2313,136
2314,78
2315,29
2316,-16
2317,-61
2318,-101
2319,-134
2320,-156
2321,-164
2322,-154
2323,-134
2324,-106
2325,-76
2326,-47
2327,-26
2328,-12
2329,-5
2330,-2
2331,-2
2332,0
2333,2
2334,6
2335,8
2336,11
2337,13
2338,13
2339,14
2340,17
2341,18
2342,18
2343,17
2344,16
2345,16
2346,18
2347,19
2348,22
2349,25
2350,25
2351,25
2352,24
2353,24
2354,24
2355,26
2356,31
2357,36
2358,39
2359,43
2360,46
2361,46
2362,45
2363,46
2364,45
2365,43
2366,41
2367,39
2368,37
2369,38
2370,41
2371,46
2372,49
2373,52
2374,52
2375,49
2376,45
2377,42
2378,42
2379,45
2380,49
2381,54
2382,60
2383,64
2384,65
2385,66
2386,64
2387,61
2388,62
2389,64
2390,66
2391,68
2392,70
2393,72
2394,72
2395,69
2396,68
2397,66
2398,64
2399,65
2400,67
2401,70
2402,72
2403,77
2404,83
2405,89
2406,89
2407,94
2408,98
2409,98
2410,97
2411,97
2412,99
2413,103
2414,108
2415,112
2416,118
2417,123
2418,126
2419,128
2420,132
2421,134
2422,139
2423,145
2424,151
2425,156
2426,159
2427,162
2428,167
2429,169
2430,170
2431,170
2432,170
2433,170
2434,171
2435,172
2436,173
2437,172
2438,170
2439,166
2440,164
2441,162
2442,162
2443,163
2444,166
2445,170
2446,172
2447,170
2448,164
2449,154
2450,141
2451,129
2452,119
2453,112
2454,108
2455,104
2456,101
2457,98
2458,92
2459,85
2460,72
2461,68
2462,64
2463,61
2464,59
2465,56
2466,50
2467,42
2468,35
2469,27
2470,21
2471,17
2472,11
2473,6
2474,4
2475,6
2476,7
2477,8
2478,7
2479,3
2480,-1
2481,-6
2482,-11
2483,-12
2484,-14
2485,-11
2486,-3
2487,2
2488,3
2489,4
2490,2
2491,0
2492,-3
2493,-2
2494,-3
2495,-3
2496,-1
2497,0
2498,1
2499,5
2500,10
2501,11
2502,14
2503,17
2504,18
2505,16
2506,14
2507,11
2508,9
2509,5
2510,3
2511,1
2512,1
2513,2
2514,6
2515,9
2516,13
2517,13
2518,13
2519,14
2520,14
2521,14
2522,18
2523,21
2524,25
2525,24
2526,23
2527,23
2528,23
2529,25
2530,29
2531,30
2532,29
2533,29
2534,27
2535,22
2536,21
2537,22
2538,22
2539,25
2540,26
2541,27
2542,28
2543,26
2544,27
2545,30
2546,30
2547,32
2548,32
2549,35
2550,37
2551,36
2552,33
2553,30
2554,25
2555,20
2556,17
2557,17
2558,17
2559,19
2560,23
2561,25
2562,24
2563,25
2564,28
2565,28
2566,25
2567,23
2568,23
2569,23
2570,24
2571,27
2572,30
2573,31
2574,32
2575,33
2576,35
2577,36
2578,36
2579,38
2580,41
2581,42
2582,44
2583,43
2584,40
2585,34
2586,28
2587,20
2588,12
2589,11
2590,13
2591,18
2592,25
2593,30
2594,33
2595,32
2596,31
2597,29
2598,28
2599,29
2600,31
2601,31
2602,31
2603,32
2604,33
2605,31
2606,31
2607,32
2608,32
2609,33
2610,35
2611,35
2612,35
2613,35
2614,35
2615,33
2616,32
2617,32
2618,33
2619,35
2620,42
2621,47
2622,49
2623,50
2624,50
2625,51
2626,50
2627,51
2628,55
2629,58
2630,61
2631,63
2632,64
2633,61
2634,58
2635,53
2636,51
2637,52
2638,55
2639,60
2640,66
2641,70
2642,70
2643,69
2644,65
2645,61
2646,59
2647,57
2648,54
2649,53
2650,52
2651,51
2652,48
2653,50
2654,52
2655,54
2656,56
2657,57
2658,54
2659,51
2660,46
2661,42
2662,38
2663,34
2664,32
2665,34
2666,33
2667,34
2668,38
2669,40
2670,41
2671,40
2672,38
2673,38
2674,39
2675,40
2676,43
2677,46
2678,47
2679,51
2680,56
2681,61
2682,70
2683,84
2684,126
2685,149
2686,172
2687,189
2688,205
2689,219
2690,219
2691,238
2692,259
2693,292
2694,339
2695,393
2696,445
2697,484
2698,502
2699,492
2700,450
2701,385
2702,310
2703,231
2704,155
2705,94
2706,44
2707,-2
2708,-47
2709,-85
2710,-117
2711,-139
2712,-147
2713,-141
2714,-124
2715,-100
2716,-76
2717,-39
2718,-31
2719,-24
2720,-18
2721,-12
2722,-7
2723,-1
2724,2
2725,5
2726,5
2727,5
2728,3
2729,1
2730,2
2731,4
2732,7
2733,8
2734,8
2735,8
2736,7
2737,7
2738,8
2739,8
2740,8
2741,8
2742,7
2743,6
2744,7
2745,10
2746,13
2747,18
2748,23
2749,28
2750,32
2751,32
2752,30
2753,28
2754,28
2755,27
2756,27
2757,29
2758,30
2759,31
2760,34
2761,37
2762,40
2763,41
2764,41
2765,42
2766,40
2767,39
2768,39
2769,38
2770,40
2771,41
2772,46
2773,49
2774,50
2775,49
2776,50
2777,49
2778,48
2779,50
2780,53
2781,59
2782,63
2783,64
2784,64
2785,64
2786,64
2787,65
2788,67
2789,70
2790,71
2791,74
2792,77
2793,81
2794,84
2795,85
2796,85
2797,86
2798,88
2799,89
2800,90
2801,91
2802,92
2803,93
2804,97
2805,102
2806,108
2807,113
2808,119
2809,124
2810,128
2811,130
2812,129
2813,129
2814,130
2815,133
2816,139
2817,145
2818,150
2819,154
2820,154
2821,154
2822,153
2823,153
2824,154
2825,155
2826,158
2827,162
2828,162
2829,160
2830,157
2831,154
2832,154
2833,151
2834,150
2835,151
2836,150
2837,150
2838,150
2839,148
2840,145
2841,138
2842,132
2843,126
2844,118
2845,111
2846,104
2847,99
2848,92
2849,87
2850,80
2851,71
2852,64
2853,59
2854,54
2855,50
2856,49
2857,48
2858,45
2859,39
2860,32
2861,25
2862,20
2863,17
2864,17
2865,16
2866,14
2867,12
2868,9
2869,4
2870,-1
2871,-4
2872,-6
2873,-6
2874,-5
2875,-5
2876,-6
2877,-7
2878,-9
2879,-9
2880,-10
2881,-11
2882,-9
2883,-8
2884,-7
2885,-4
2886,-3
2887,-2
2888,-1
2889,0
2890,-2
2891,-4
2892,-3
2893,-2
2894,-1
2895,2
2896,7
2897,8
2898,9
2899,9
2900,8
2901,6
2902,3
2903,3
2904,6
2905,8
2906,9
2907,14
2908,20
2909,19
2910,19
2911,20
2912,17
2913,18
2914,20
2915,23
2916,28
2917,31
2918,36
2919,36
2920,32
2921,31
2922,29
2923,25
2924,22
2925,21
2926,18
2927,15
2928,13
2929,11
2930,11
2931,12
2932,16
2933,23
2934,29
2935,33
2936,34
2937,36
2938,37
2939,37
2940,36
2941,36
2942,35
2943,33
2944,34
2945,35
2946,37
2947,40
2948,39
2949,36
2950,33
2951,30
2952,29
2953,29
2954,35
2955,44
2956,50
2957,54
2958,58
2959,59
2960,55
2961,51
2962,46
2963,41
2964,37
2965,34
2966,35
2967,36
2968,36
2969,39
2970,44
2971,50
2972,54
2973,56
2974,55
2975,53
2976,50
2977,47
2978,41
2979,37
2980,35
2981,36
2982,39
2983,40
2984,42
2985,42
2986,42
2987,44
2988,46
2989,44
2990,42
2991,42
2992,42
2993,41
2994,44
2995,49
2996,54
2997,57
2998,59
2999,60
3000,57
3001,50
3002,45
3003,43
3004,42
3005,40
3006,41
3007,43
3008,43
3009,41
3010,42
3011,45
3012,47
3013,51
3014,57
3015,59
3016,58
3017,55
3018,53
3019,50
3020,47
3021,44
3022,46
3023,48
3024,52
3025,55
3026,57
3027,57
3028,58
3029,60
3030,62
3031,61
3032,60
3033,58
3034,54
3035,51
3036,48
3037,46
3038,46
3039,46
3040,54
3041,55
3042,56
3043,57
3044,55
3045,53
3046,50
3047,47
3048,45
3049,44
3050,45
3051,51
3052,60
3053,69
3054,77
3055,84
3056,86
3057,85
3058,83
3059,78
3060,75
3061,72
3062,69
3063,66
3064,64
3065,59
3066,54
3067,52
3068,50
3069,48
3070,47
3071,46
3072,46
3073,46
3074,47
3075,48
3076,49
3077,50
3078,47
3079,44
3080,43
3081,43
3082,41
3083,40
3084,41
3085,43
3086,45
3087,51
3088,56
3089,59
3090,62
3091,68
3092,77
3093,93
3094,111
3095,132
3096,153
3097,172
3098,187
3099,203
3100,218
3101,237
3102,265
3103,308
3104,415
3105,461
3106,490
3107,491
3108,466
3109,418
3110,354
3111,283
3112,208
3113,136
3114,73
3115,18
3116,-33
3117,-33
3118,-78
3119,-117
3120,-145
3121,-157
3122,-153
3123,-137
3124,-112
3125,-87
3126,-62
3127,-41
3128,-29
3129,-24
3130,-23
3131,-26
3132,-29
3133,-27
3134,-23
3135,-17
3136,-11
3137,4
3138,10
3139,12
3140,12
3141,9
3142,7
3143,7
3144,7
3145,10
3146,14
3147,18
3148,23
3149,25
3150,25
3151,22
3152,18
3153,15
3154,16
3155,18
3156,20
3157,24
3158,28
3159,30
3160,30
3161,28
3162,29
3163,27
3164,28
3165,30
3166,31
3167,33
3168,35
3169,35
3170,36
3171,40
3172,45
3173,49
3174,50
3175,51
3176,50
3177,49
3178,50
3179,49
3180,47
3181,47
3182,48
3183,48
3184,49
3185,52
3186,55
3187,59
3188,64
3189,68
3190,70
3191,72
3192,69
3193,66
3194,65
3195,64
3196,64
3197,66
3198,71
3199,75
3200,79
3201,87
3202,88
3203,86
3204,84
3205,85
3206,84
3207,83
3208,83
3209,87
3210,90
3211,93
3212,99
3213,106
3214,111
3215,117
3216,124
3217,127
3218,128
3219,128
3220,128
3221,130
3222,131
3223,133
3224,137
3225,140
3226,143
3227,146
3228,147
3229,147
3230,149
3231,151
3232,153
3233,156
3234,163
3235,165
3236,167
3237,168
3238,167
3239,163
3240,159
3241,157
3242,155
3243,154
3244,156
3245,157
3246,156
3247,153
3248,147
3249,139
3250,129
3251,121
3252,115
3253,114
3254,117
3255,117
3256,115
3257,110
3258,103
3259,103
3260,95
3261,84
3262,75
3263,68
3264,62
3265,57
3266,53
3267,47
3268,43
3269,41
3270,41
3271,41
3272,38
3273,35
3274,33
3275,30
3276,26
3277,22
3278,19
3279,18
3280,14
3281,9
3282,7
3283,6
3284,4
3285,3
3286,2
3287,3
3288,0
3289,-3
3290,-3
3291,0
3292,-2
3293,-3
3294,-2
3295,-3
3296,-6
3297,-5
3298,-5
3299,0
3300,4
3301,9
3302,11
3303,10
3304,11
3305,10
3306,12
3307,15
3308,17
3309,15
3310,13
3311,12
3312,13
3313,14
3314,15
3315,19
3316,23
3317,26
3318,28
3319,27
3320,25
3321,25
3322,26
3323,27
3324,28
3325,26
3326,26
3327,24
3328,23
3329,25
3330,26
3331,31
3332,33
3333,32
3334,31
3335,31
3336,31
3337,30
3338,31
3339,32
3340,33
3341,34
3342,35
3343,34
3344,33
3345,31
3346,31
3347,32
3348,33
3349,33
3350,35
3351,36
3352,36
3353,39
3354,43
3355,45
3356,44
3357,42
3358,40
3359,38
3360,34
3361,33
3362,32
3363,30
3364,30
3365,30
3366,28
3367,24
3368,22
3369,24
3370,28
3371,33
3372,41
3373,48
3374,51
3375,52
3376,50
3377,45
3378,40
3379,34
3380,30
3381,29
3382,28
3383,29
3384,32
3385,33
3386,34
3387,36
3388,40
3389,43
3390,43
3391,43
3392,44
3393,42
3394,40
3395,38
3396,37
3397,36
3398,38
3399,39
3400,40
3401,40
3402,41
3403,44
3404,45
3405,44
3406,44
3407,46
3408,49
3409,50
3410,51
3411,52
3412,50
3413,44
3414,39
3415,35
3416,29
3417,27
3418,27
3419,29
3420,29
3421,31
3422,37
3423,45
3424,47
3425,47
3426,46
3427,41
3428,33
3429,34
3430,36
3431,42
3432,47
3433,50
3434,53
3435,53
3436,53
3437,51
3438,49
3439,48
3440,46
3441,43
3442,42
3443,43
3444,43
3445,45
3446,49
3447,52
3448,53
3449,52
3450,50
3451,51
3452,50
3453,50
3454,53
3455,55
3456,57
3457,59
3458,62
3459,61
3460,63
3461,64
3462,66
3463,67
3464,68
3465,70
3466,69
3467,67
3468,64
3469,61
3470,60
3471,65
3472,72
3473,77
3474,79
3475,80
3476,79
3477,77
3478,76
3479,74
3480,73
3481,72
3482,72
3483,73
3484,72
3485,69
3486,67
3487,67
3488,67
3489,67
3490,66
3491,63
3492,61
3493,59
3494,61
3495,63
3496,63
3497,65
3498,66
3499,65
3500,65
3501,64
3502,63
3503,66
3504,69
3505,72
3506,74
3507,72
3508,70
3509,71
3510,72
3511,76
3512,87
3513,102
3514,124
3515,151
3516,179
3517,203
3518,224
3519,238
3520,252
3521,268
3522,285
3523,309
3524,348
3525,449
3526,490
3527,509
3528,501
3529,465
3530,404
3531,330
3532,251
3533,176
3534,113
3535,63
3536,19
3537,-21
3538,-58
3539,-89
3540,-112
3541,-125
3542,-124
3543,-112
3544,-112
3545,-93
3546,-66
3547,-41
3548,-22
3549,-9
3550,-2
3551,0
3552,1
3553,1
3554,5
3555,12
3556,18
3557,24
3558,25
3559,23
3560,20
3561,18
3562,19
3563,24
3564,30
3565,39
3566,44
3567,46
3568,46
3569,42
3570,40
3571,39
3572,36
3573,36
3574,38
3575,40
3576,41
3577,43
3578,43
3579,45
3580,48
3581,49
3582,52
3583,54
3584,53
3585,53
3586,54
3587,53
3588,54
3589,55
3590,53
3591,53
3592,50
3593,49
3594,52
3595,56
3596,64
3597,74
3598,81
3599,87
3600,85
3601,79
3602,74
3603,70
3604,67
3605,69
3606,72
3607,75
3608,79
3609,82
3610,81
3611,82
3612,84
3613,87
3614,93
3615,96
3616,96
3617,97
3618,93
3619,91
3620,91
3621,90
3622,90
3623,93
3624,95
3625,98
3626,101
3627,103
3628,109
3629,114
3630,117
3631,121
3632,121
3633,121
3634,122
3635,121
3636,123
3637,128
3638,130
3639,133
3640,139
3641,142
3642,144
3643,147
3644,150
3645,152
3646,154
3647,157
3648,160
3649,162
3650,165
3651,168
3652,171
3653,175
3654,178
3655,183
3656,183
3657,180
3658,178
3659,174
3660,167
3661,162
3662,162
3663,162
3664,164
3665,167
3666,167
3667,166
3668,160
3669,153
3670,145
3671,138
3672,128
3673,121
3674,119
3675,117
3676,114
3677,111
3678,108
3679,104
3680,98
3681,93
3682,88
3683,82
3684,75
3685,69
3686,65
3687,65
3688,54
3689,51
3690,50
3691,48
3692,45
3693,42
3694,38
3695,32
3696,27
3697,23
3698,20
3699,16
3700,12
3701,10
3702,9
3703,8
3704,9
3705,11
3706,12
3707,12
3708,13
3709,12
3710,11
3711,13
3712,14
3713,17
3714,20
3715,20
3716,18
3717,16
3718,13
3719,12
3720,11
3721,12
3722,15
3723,15
3724,16
3725,16
3726,13
3727,11
3728,9
3729,6
3730,5
3731,2
3732,2
3733,7
3734,12
3735,20
3736,29
3737,36
3738,41
3739,44
3740,45
3741,43
3742,39
3743,33
3744,30
3745,27
3746,24
3747,25
3748,28
3749,33
3750,37
3751,39
3752,39
3753,34
3754,31
3755,29
3756,29
3757,31
3758,31
3759,32
3760,32
3761,31
3762,29
3763,28
3764,28
3765,30
3766,29
3767,29
3768,28
3769,24
3770,21
3771,21
3772,21
3773,25
3774,29
3775,30
3776,33
3777,34
3778,33
3779,31
3780,30
3781,28
3782,29
3783,31
3784,34
3785,40
3786,39
3787,41
3788,42
3789,39
3790,35
3791,32
3792,30
3793,27
3794,26
3795,27
3796,30
3797,32
3798,36
3799,40
3800,40
3801,37
3802,33
3803,30
3804,29
3805,28
3806,28
3807,30
3808,32
3809,32
3810,33
3811,32
3812,32
3813,33
3814,32
3815,31
3816,31
3817,25
3818,23
3819,24
3820,25
3821,28
3822,31
3823,37
3824,40
3825,41
3826,43
3827,45
3828,45
3829,46
3830,45
3831,45
3832,45
3833,46
3834,49
3835,53
3836,54
3837,55
3838,54
3839,53
3840,47
3841,41
3842,35
3843,31
3844,29
3845,31
3846,35
3847,39
3848,42
3849,47
3850,49
3851,48
3852,46
3853,43
3854,41
3855,43
3856,47
3857,51
3858,56
3859,60
3860,63
3861,66
3862,67
3863,68
3864,68
3865,65
3866,62
3867,62
3868,62
3869,62
3870,63
3871,68
3872,74
3873,79
3874,83
3875,82
3876,77
3877,71
3878,65
3879,61
3880,59
3881,59
3882,62
3883,63
3884,63
3885,63
3886,62
3887,61
3888,59
3889,59
3890,59
3891,58
3892,57
3893,57
3894,55
3895,55
3896,53
3897,50
3898,47
3899,45
3900,44
3901,46
3902,48
3903,50
3904,54
3905,56
3906,58
3907,59
3908,61
3909,65
3910,70
3911,80
3912,98
3913,118
3914,164
3915,185
3916,201
3917,216
3918,228
3919,240
3920,254
3921,273
3922,304
3923,344
3924,383
3925,414
3926,431
3927,425
3928,399
3929,356
3930,300
3931,243
3932,187
3933,136
3934,92
3935,51
3936,8
3937,-32
3938,-71
3939,-102
3940,-119
3941,-127
3942,-122
3943,-104
3944,-79
3945,-52
3946,-24
3947,0
3948,19
3949,18
3950,10
3951,0
3952,-6
3953,-8
3954,-5
3955,0
3956,7
3957,14
3958,20
3959,22
3960,24
3961,27
3962,28
3963,27
3964,30
3965,32
3966,33
3967,34
3968,37
3969,38
3970,38
3971,38
3972,37
3973,35
3974,35
3975,35
3976,37
3977,41
3978,46
3979,50
3980,53
3981,59
3982,59
3983,57
3984,56
3985,56
3986,56
3987,57
3988,58
3989,59
3990,59
3991,59
3992,58
3993,55
3994,49
3995,45
3996,43
3997,42
3998,43
3999,47
4000,49
4001,54
4002,58
4003,62
4004,65
4005,65
4006,64
4007,65
4008,64
4009,61
4010,62
4011,64
4012,66
4013,68
4014,73
4015,75
4016,74
4017,72
4018,72
4019,73
4020,73
4021,74
4022,76
4023,77
4024,79
4025,82
4026,83
4027,87
4028,90
4029,95
4030,100
4031,102
4032,105
4033,108
4034,110
4035,113
4036,114
4037,114
4038,115
4039,117
4040,121
4041,128
4042,133
4043,136
4044,139
4045,139
4046,136
4047,135
4048,138
4049,144
4050,151
4051,158
4052,164
4053,168
4054,171
4055,173
4056,171
4057,170
4058,166
4059,161
4060,156
4061,153
4062,150
4063,147
4064,146
4065,146
4066,143
4067,136
4068,129
4069,124
4070,118
4071,112
4072,108
4073,103
4074,100
4075,95
4076,90
4077,85
4078,77
4079,75
4080,73
4081,71
4082,68
4083,65
4084,59
4085,54
4086,49
4087,44
4088,39
4089,34
4090,30
4091,23
4092,15
4093,10
4094,3
4095,-3
4096,-6
4097,-7
4098,-7
4099,-6
4100,-3
4101,-2
4102,0
4103,5
4104,8
4105,11
4106,13
4107,16
4108,18
4109,16
4110,10
4111,9
4112,10
4113,10
4114,14
4115,17
4116,16
4117,15
4118,11
4119,7
4120,1
4121,0
4122,0
4123,2
4124,3
4125,8
4126,10
4127,9
4128,9
4129,12
4130,15
4131,18
4132,21
4133,24
4134,25
4135,24
4136,24
4137,27
4138,29
4139,32
4140,36
4141,37
4142,36
4143,36
4144,35
4145,32
4146,31
4147,33
4148,33
4149,31
4150,30
4151,30
4152,30
4153,31
4154,34
4155,36
4156,39
4157,40
4158,40
4159,40
4160,39
4161,38
4162,38
4163,36
4164,37
4165,37
4166,35
4167,34
4168,36
4169,39
4170,43
4171,46
4172,49
4173,53
4174,53
4175,51
4176,48
4177,45
4178,46
4179,47
4180,49
4181,48
4182,46
4183,43
4184,41
4185,39
4186,39
4187,40
4188,41
4189,41
4190,38
4191,34
4192,29
4193,27
4194,28
4195,32
4196,35
4197,39
4198,41
4199,40
4200,36
4201,33
4202,30
4203,28
4204,27
4205,27
4206,28
4207,29
4208,29
4209,31
4210,34
4211,37
4212,42
4213,46
4214,50
4215,55
4216,58
4217,57
4218,58
4219,55
4220,53
4221,51
4222,48
4223,46
4224,44
4225,39
4226,35
4227,34
4228,33
4229,33
4230,34
4231,37
4232,41
4233,46
4234,50
4235,55
4236,59
4237,59
4238,58
4239,56
4240,50
4241,47
4242,43
4243,45
4244,48
4245,49
4246,51
4247,52
4248,54
4249,54
4250,54
4251,57
4252,59
4253,61
4254,60
4255,60
4256,59
4257,58
4258,55
4259,51
4260,48
4261,47
4262,47
4263,51
4264,55
4265,57
4266,58
4267,58
4268,58
4269,61
4270,64
4271,65
4272,66
4273,68
4274,62
4275,55
4276,50
4277,46
4278,43
4279,44
4280,46
4281,47
4282,50
4283,53
4284,54
4285,51
4286,47
4287,43
4288,39
4289,35
4290,34
4291,33
4292,35
4293,37
4294,41
4295,44
4296,47
4297,46
4298,46
4299,47
4300,48
4301,52
4302,57
4303,66
4304,83
4305,103
4306,145
4307,166
4308,183
4309,195
4310,207
4311,219
4312,235
4313,257
4314,292
4315,338
4316,387
4317,430
4318,459
4319,465
4320,445
4321,400
4322,339
4323,269
4324,196
4325,130
4326,73
4327,25
4328,-17
4329,-53
4330,-86
4331,-108
4332,-121
4333,-121
4334,-110
4335,-92
4336,-70
4337,-45
4338,-11
4339,-2
4340,1
4341,0
4342,-3
4343,-2
4344,0
4345,5
4346,10
4347,14
4348,16
4349,16
4350,13
4351,11
4352,9
4353,7
4354,5
4355,7
4356,11
4357,13
4358,13
4359,14
4360,16
4361,14
4362,12
4363,14
4364,17
4365,21
4366,27
4367,35
4368,41
4369,42
4370,44
4371,42
4372,41
4373,43
4374,46
4375,47
4376,44
4377,43
4378,42
4379,41
4380,40
4381,42
4382,43
4383,43
4384,43
4385,44
4386,45
4387,45
4388,44
4389,45
4390,44
4391,42
4392,40
4393,40
4394,43
4395,47
4396,50
4397,50
4398,53
4399,55
4400,55
4401,57
4402,60
4403,72
4404,77
4405,81
4406,82
4407,78
4408,76
4409,76
4410,76
4411,80
4412,84
4413,87
4414,90
4415,88
4416,85
4417,85
4418,85
4419,84
4420,86
4421,88
4422,90
4423,93
4424,98
4425,104
4426,111
4427,115
4428,115
4429,116
4430,116
4431,114
4432,114
4433,117
4434,119
4435,121
4436,125
4437,129
4438,134
4439,142
4440,152
4441,162
4442,166
4443,167
4444,165
4445,160
4446,158
4447,156
4448,156
4449,157
4450,160
4451,163
4452,164
4453,164
4454,162
4455,158
4456,155
4457,150
4458,144
4459,137
4460,133
4461,130
4462,128
4463,125
4464,121
4465,115
4466,108
4467,100
4468,86
4469,78
4470,72
4471,69
4472,67
4473,64
4474,61
4475,59
4476,55
4477,48
4478,41
4479,35
4480,30
4481,25
4482,22
4483,22
4484,22
4485,21
4486,20
4487,17
4488,12
4489,8
4490,2
4491,0
4492,0
4493,1
4494,0
4495,0
4496,-2
4497,-5
4498,-12
4499,-17
4500,-14
4501,-9
4502,-3
4503,2
4504,4
4505,3
4506,0
4507,-2
4508,-4
4509,-3
4510,0
4511,6
4512,10
4513,10
4514,10
4515,9
4516,7
4517,6
4518,6
4519,6
4520,6
4521,9
4522,11
4523,10
4524,10
4525,9
4526,10
4527,11
4528,10
4529,11
4530,12
4531,11
4532,10
4533,9
4534,8
4535,8
4536,10
4537,12
4538,14
4539,14
4540,17
4541,17
4542,18
4543,21
4544,22
4545,24
4546,27
4547,26
4548,24
4549,25
4550,23
4551,22
4552,24
4553,25
4554,31
4555,39
4556,42
4557,41
4558,40
4559,36
4560,29
4561,25
4562,23
4563,25
4564,29
4565,35
4566,43
4567,41
4568,35
4569,32
4570,30
4571,28
4572,29
4573,29
4574,32
4575,32
4576,33
4577,35
4578,37
4579,37
4580,37
4581,39
4582,39
4583,36
4584,33
4585,30
4586,29
4587,29
4588,31
4589,35
4590,39
4591,42
4592,45
4593,47
4594,47
4595,45
4596,44
4597,42
4598,38
4599,39
4600,40
4601,39
4602,39
4603,40
4604,40
4605,41
4606,41
4607,41
4608,37
4609,34
4610,34
4611,36
4612,39
4613,40
4614,42
4615,45
4616,44
4617,39
4618,32
4619,25
4620,18
4621,15
4622,17
4623,18
4624,19
4625,22
4626,25
4627,28
4628,30
4629,31
4630,34
4631,37
4632,42
4633,45
4634,47
4635,51
4636,55
4637,56
4638,55
4639,53
4640,49
4641,44
4642,38
4643,35
4644,36
4645,38
4646,41
4647,45
4648,50
4649,54
4650,57
4651,60
4652,60
4653,58
4654,54
4655,51
4656,50
4657,49
4658,50
4659,52
4660,58
4661,62
4662,63
4663,63
4664,62
4665,60
4666,61
4667,62
4668,63
4669,65
4670,65
4671,66
4672,66
4673,63
4674,60
4675,62
4676,61
4677,61
4678,62
4679,63
4680,63
4681,61
4682,61
4683,58
4684,56
4685,54
4686,51
4687,52
4688,54
4689,53
4690,54
4691,53
4692,52
4693,52
4694,49
4695,47
4696,43
4697,41
4698,43
4699,46
4700,48
4701,55
4702,62
4703,66
4704,70
4705,70
4706,68
4707,67
4708,66
4709,70
4710,83
4711,101
4712,121
4713,146
4714,169
4715,187
4716,202
4717,213
4718,225
4719,243
4720,267
4721,307
4722,362
4723,418
4724,463
4725,490
4726,459
4727,402
4728,329
4729,251
4730,177
4731,111
4732,57
4733,14
4734,-26
4735,-69
4736,-104
4737,-128
4738,-141
4739,-142
4740,-127
4741,-103
4742,-74
4743,-44
4744,-23
4745,-10
4746,-5
4747,-5
4748,-6
4749,-3
4750,0
4751,1
4752,5
4753,8
4754,10
4755,10
4756,7
4757,2
4758,2
4759,2
4760,2
4761,5
4762,10
4763,15
4764,20
4765,23
4766,20
4767,14
4768,9
4769,7
4770,8
4771,10
4772,13
4773,17
4774,20
4775,22
4776,23
4777,23
4778,25
4779,27
4780,30
4781,32
4782,32
4783,28
4784,25
4785,23
4786,25
4787,28
4788,33
4789,38
4790,42
4791,47
4792,50
4793,50
4794,49
4795,48
4796,50
4797,51
4798,53
4799,53
4800,51
4801,48
4802,47
4803,45
4804,43
4805,44
4806,44
4807,45
4808,48
4809,49
4810,50
4811,54
4812,57
4813,60
4814,64
4815,65
4816,65
4817,65
4818,64
4819,65
4820,67
4821,68
4822,70
4823,75
4824,75
4825,77
4826,80
4827,83
4828,87
4829,91
4830,97
4831,101
4832,103
4833,105
4834,109
4835,116
4836,120
4837,126
4838,130
4839,134
4840,135
4841,135
4842,134
4843,134
4844,136
4845,138
4846,144
4847,148
4848,147
4849,149
4850,151
4851,150
4852,151
4853,153
4854,154
4855,157
4856,160
4857,160
4858,156
4859,153
4860,151
4861,149
4862,146
4863,145
4864,144
4865,142
4866,142
4867,135
4868,128
4869,121
4870,113
4871,107
4872,102
4873,96
4874,93
4875,89
4876,83
4877,78
4878,74
4879,67
4880,63
4881,60
4882,56
4883,50
4884,44
4885,37
4886,32
4887,27
4888,20
4889,18
4890,17
4891,16
4892,14
4893,10
4894,6
4895,4
4896,2
4897,0
4898,-3
4899,-9
4900,-16
4901,-23
4902,-28
4903,-28
4904,-25
4905,-21
4906,-14
4907,-6
4908,-1
4909,0
4910,-1
4911,-4
4912,-5
4913,-6
4914,-6
4915,-4
4916,-3
4917,-1
4918,1
4919,2
4920,4
4921,5
4922,8
4923,8
4924,6
4925,6
4926,7
4927,7
4928,10
4929,11
4930,13
4931,13
4932,12
4933,9
4934,10
4935,9
4936,11
4937,14
4938,19
4939,21
4940,22
4941,21
4942,22
4943,21
4944,18
4945,18
4946,17
4947,14
4948,14
4949,12
4950,11
4951,12
4952,15
4953,15
4954,16
4955,16
4956,17
4957,16
4958,15
4959,16
4960,16
4961,15
4962,14
4963,13
4964,11
4965,8
4966,8
4967,7
4968,6
4969,5
4970,6
4971,9
4972,11
4973,11
4974,13
4975,13
4976,12
4977,10
4978,5
4979,1
4980,0
4981,0
4982,-1
4983,-1
4984,0
4985,6
4986,11
4987,15
4988,19
4989,20
4990,19
4991,16
4992,13
4993,7
4994,3
4995,4
4996,3
4997,5
4998,8
4999,10
5000,13
5001,17
5002,20
5003,23
5004,24
5005,21
5006,18
5007,14
5008,10
5009,10
5010,12
5011,16
5012,22
5013,24
5014,25
5015,26
5016,22
5017,17
5018,15
5019,16
5020,17
5021,18
5022,20
5023,19
5024,14
5025,12
5026,13
5027,13
5028,16
5029,19
5030,22
5031,25
5032,27
5033,26
5034,26
5035,25
5036,26
5037,26
5038,27
5039,30
5040,31
5041,31
5042,31
5043,32
5044,31
5045,27
5046,26
5047,27
5048,27
5049,25
5050,27
5051,26
5052,24
5053,22
5054,20
5055,19
5056,20
5057,24
5058,27
5059,30
5060,32
5061,33
5062,33
5063,34
5064,35
5065,34
5066,37
5067,39
5068,40
5069,39
5070,37
5071,35
5072,35
5073,34
5074,36
5075,40
5076,42
5077,45
5078,49
5079,51
5080,50
5081,51
5082,53
5083,56
5084,58
5085,59
5086,63
5087,65
5088,66
5089,67
5090,66
5091,64
5092,61
5093,59
5094,57
5095,56
5096,56
5097,59
5098,64
5099,68
5100,74
5101,76
5102,75
5103,74
5104,73
5105,69
5106,65
5107,63
5108,63
5109,63
5110,62
5111,61
5112,58
5113,56
5114,56
5115,58
5116,57
5117,54
5118,49
5119,45
5120,41
5121,37
5122,34
5123,36
5124,39
5125,44
5126,48
5127,50
5128,51
5129,52
5130,52
5131,52
5132,54
5133,55
5134,56
5135,61
5136,66
5137,74
5138,87
5139,105
5140,127
5141,149
5142,170
5143,190
5144,205
5145,218
5146,232
5147,267
5148,297
5149,339
5150,390
5151,440
5152,478
5153,492
5154,480
5155,439
5156,377
5157,304
5158,228
5159,159
5160,101
5161,52
5162,7
5163,-35
5164,-75
5165,-111
5166,-135
5167,-143
5168,-136
5169,-116
5170,-89
5171,-61
5172,-38
5173,-22
5174,-14
5175,-11
5176,-10
5177,-12
5178,-11
5179,-9
5180,-3
5181,-2
5182,-4
5183,-4
5184,-1
5185,3
5186,11
5187,19
5188,26
5189,31
5190,33
5191,32
5192,31
5193,28
5194,24
5195,23
5196,22
5197,21
5198,19
5199,18
5200,17
5201,15
5202,17
5203,19
5204,23
5205,28
5206,34
5207,38
5208,40
5209,39
5210,37
5211,36
5212,33
5213,33
5214,35
5215,38
5216,42
5217,43
5218,45
5219,46
5220,47
5221,49
5222,51
5223,51
5224,50
5225,49
5226,50
5227,49
5228,49
5229,49
5230,49
5231,49
5232,51
5233,53
5234,56
5235,60
5236,62
5237,64
5238,66
5239,68
5240,70
5241,70
5242,70
5243,71
5244,77
5245,76
5246,76
5247,75
5248,74
5249,77
5250,77
5251,82
5252,85
5253,88
5254,90
5255,92
5256,94
5257,94
5258,93
5259,95
5260,98
5261,102
5262,108
5263,115
5264,121
5265,125
5266,128
5267,133
5268,139
5269,142
5270,145
5271,148
5272,151
5273,151
5274,152
5275,151
5276,151
5277,152
5278,160
5279,167
5280,171
5281,174
5282,177
5283,178
5284,178
5285,175
5286,174
5287,172
5288,171
5289,169
5290,169
5291,167
5292,162
5293,157
5294,152
5295,147
5296,145
5297,142
5298,138
5299,134
5300,128
5301,124
5302,117
5303,108
5304,101
5305,96
5306,91
5307,87
5308,84
5309,81
5310,71
5311,65
5312,58
5313,52
5314,42
5315,32
5316,27
5317,23
5318,21
5319,22
5320,25
5321,26
5322,25
5323,22
5324,20
5325,14
5326,7
5327,1
5328,0
5329,1
5330,5
5331,10
5332,17
5333,21
5334,22
5335,22
5336,20
5337,16
5338,14
5339,14
5340,17
5341,20
5342,21
5343,18
5344,14
5345,11
5346,9
5347,7
5348,7
5349,7
5350,8
5351,10
5352,11
5353,11
5354,11
5355,12
5356,14
5357,16
5358,18
5359,18
5360,19
5361,22
5362,25
5363,26
5364,26
5365,27
5366,27
5367,26
5368,27
5369,28
5370,26
5371,26
5372,27
5373,28
5374,26
5375,24
5376,23
5377,22
5378,25
5379,29
5380,32
5381,35
5382,36
5383,35
5384,33
5385,32
5386,32
5387,36
5388,39
5389,41
5390,42
5391,40
5392,37
5393,37
5394,33
5395,31
5396,30
5397,33
5398,36
5399,36
5400,37
5401,36
5402,32
5403,29
5404,30
5405,31
5406,31
5407,31
5408,30
5409,28
5410,28
5411,28
5412,29
5413,29
5414,28
5415,27
5416,28
5417,26
5418,24
5419,27
5420,34
5421,40
5422,44
5423,48
5424,50
5425,49
5426,45
5427,39
5428,35
5429,31
5430,26
5431,30
5432,35
5433,36
5434,37
5435,40
5436,41
5437,42
5438,39
5439,36
5440,35
5441,30
5442,31
5443,31
5444,31
5445,33
5446,34
5447,35
5448,35
5449,36
5450,37
5451,41
5452,43
5453,45
5454,48
5455,50
5456,49
5457,46
5458,43
5459,41
5460,41
5461,43
5462,47
5463,51
5464,52
5465,50
5466,44
5467,37
5468,31
5469,27
5470,25
5471,28
5472,32
5473,38
5474,49
5475,49
5476,46
5477,44
5478,43
5479,43
5480,43
5481,43
5482,44
5483,44
5484,45
5485,46
5486,45
5487,42
5488,39
5489,38
5490,37
5491,37
5492,40
5493,40
5494,39
5495,41
5496,41
5497,41
5498,43
5499,45
5500,48
5501,51
5502,52
5503,52
5504,50
5505,46
5506,36
5507,35
5508,34
5509,36
5510,39
5511,40
5512,41
5513,41
5514,39
5515,36
5516,33
5517,30
5518,30
5519,33
5520,38
5521,43
5522,46
5523,47
5524,47
5525,47
5526,45
5527,44
5528,45
5529,47
5530,49
5531,50
5532,51
5533,53
5534,56
5535,56
5536,60
5537,65
5538,71
5539,74
5540,69
5541,65
5542,59
5543,54
5544,54
5545,58
5546,61
5547,63
5548,63
5549,63
5550,61
5551,59
5552,58
5553,60
5554,63
5555,66
5556,71
5557,75
5558,79
5559,82
5560,83
5561,83
5562,83
5563,82
5564,79
5565,76
5566,72
5567,69
5568,67
5569,64
5570,59
5571,50
5572,51
5573,53
5574,54
5575,56
5576,58
5577,59
5578,61
5579,61
5580,58
5581,57
5582,57
5583,57
5584,59
5585,61
5586,62
5587,65
5588,68
5589,71
5590,71
5591,69
5592,67
5593,66
5594,65
5595,68
5596,77
5597,92
5598,111
5599,133
5600,157
5601,180
5602,199
5603,232
5604,249
5605,267
5606,290
5607,326
5608,374
5609,428
5610,475
5611,506
5612,512
5613,488
5614,438
5615,371
5616,296
5617,223
5618,157
5619,103
5620,56
5621,10
5622,-35
5623,-75
5624,-106
5625,-125
5626,-129
5627,-116
5628,-96
5629,-72
5630,-47
5631,-26
5632,-10
5633,-1
5634,2
5635,4
5636,6
5637,7
5638,12
5639,16
5640,18
5641,21
5642,24
5643,28
5644,33
5645,36
5646,38
5647,39
5648,38
5649,34
5650,30
5651,28
5652,26
5653,27
5654,33
5655,37
5656,41
5657,43
5658,41
5659,39
5660,38
5661,35
5662,35
5663,36
5664,38
5665,41
5666,46
5667,47
5668,49
5669,47
5670,47
5671,47
5672,45
5673,43
5674,41
5675,40
5676,42
5677,42
5678,46
5679,46
5680,48
5681,52
5682,51
5683,49
5684,49
5685,47
5686,48
5687,51
5688,56
5689,60
5690,64
5691,65
5692,66
5693,67
5694,66
5695,67
5696,71
5697,75
5698,80
5699,86
5700,93
5701,96
5702,99
5703,101
5704,102
5705,102
5706,102
5707,104
5708,104
5709,102
5710,100
5711,98
5712,95
5713,95
5714,97
5715,102
5716,107
5717,114
5718,121
5719,127
5720,129
5721,125
5722,124
5723,128
5724,133
5725,136
5726,142
5727,146
5728,150
5729,151
5730,150
5731,148
5732,149
5733,154
5734,159
5735,162
5736,165
5737,168
5738,173
5739,180
5740,184
5741,188
5742,191
5743,190
5744,190
5745,189
5746,184
5747,180
5748,178
5749,174
5750,171
5751,167
5752,163
5753,158
5754,155
5755,153
5756,150
5757,148
5758,144
5759,140
5760,135
5761,130
5762,122
5763,105
5764,98
5765,92
5766,89
5767,84
5768,79
5769,76
5770,74
5771,70
5772,65
5773,58
5774,53
5775,49
5776,46
5777,43
5778,39
5779,33
5780,28
5781,24
5782,22
5783,18
5784,14
5785,12
5786,11
5787,12
5788,13
5789,15
5790,15
5791,13
5792,15
5793,17
5794,18
5795,20
5796,20
5797,18
5798,16
5799,12
5800,7
5801,4
5802,2
5803,3
5804,5
5805,8
5806,10
5807,10
5808,9
5809,7
5810,5
5811,3
5812,5
5813,6
5814,8
5815,8
5816,6
5817,6
5818,8
5819,8
5820,9
5821,11
5822,14
5823,19
5824,26
5825,32
5826,33
5827,31
5828,26
5829,23
5830,21
5831,17
5832,14
5833,15
5834,19
5835,23
5836,28
5837,34
5838,39
5839,41
5840,39
5841,35
5842,30
5843,27
5844,25
5845,27
5846,30
5847,32
5848,36
5849,39
5850,37
5851,36
5852,36
5853,34
5854,34
5855,35
5856,33
5857,30
5858,29
5859,28
5860,25
5861,23
5862,23
5863,24
5864,22
5865,23
5866,25
5867,26
5868,29
5869,35
5870,39
5871,42
5872,43
5873,41
5874,37
5875,33
5876,28
5877,26
5878,26
5879,28
5880,29
5881,30
5882,29
5883,30
5884,29
5885,27
5886,28
5887,29
5888,29
5889,29
5890,28
5891,27
5892,28
5893,31
5894,34
5895,37
5896,38
5897,40
5898,39
5899,36
5900,34
5901,34
5902,37
5903,42
5904,45
5905,47
5906,46
5907,42
5908,36
5909,32
5910,28
5911,27
5912,31
5913,35
5914,42
5915,46
5916,48
5917,50
5918,52
5919,50
5920,50
5921,49
5922,45
5923,45
5924,43
5925,43
5926,43
5927,42
5928,41
5929,38
5930,37
5931,39
5932,39
5933,38
5934,42
5935,44
5936,44
5937,46
5938,48
5939,49
5940,49
5941,51
5942,52
5943,50
5944,46
5945,42
5946,43
5947,40
5948,39
5949,41
5950,45
5951,44
5952,46
5953,48
5954,48
5955,45
5956,44
5957,47
5958,48
5959,49
5960,51
5961,53
5962,53
5963,54
5964,54
5965,54
5966,54
5967,55
5968,57
5969,59
5970,63
5971,64
5972,63
5973,62
5974,61
5975,60
5976,59
5977,59
5978,58
5979,58
5980,58
5981,57
5982,56
5983,57
5984,58
5985,61
5986,64
5987,68
5988,71
5989,72
5990,72
5991,70
5992,68
5993,68
5994,69
5995,73
5996,79
5997,82
5998,86
5999,90
6000,90
6001,89
6002,88
6003,87
6004,84
6005,81
6006,78
6007,77
6008,77
6009,79
6010,81
6011,83
6012,86
6013,89
6014,89
6015,90
6016,88
6017,84
6018,79
6019,77
6020,75
6021,75
6022,71
6023,69
6024,68
6025,65
6026,62
6027,62
6028,63
6029,64
6030,65
6031,64
6032,63
6033,60
6034,58
6035,58
6036,57
6037,58
6038,59
6039,58
6040,60
6041,61
6042,61
6043,64
6044,70
6045,74
6046,84
6047,100
6048,120
6049,143
6050,169
6051,192
6052,210
6053,222
6054,231
6055,243
6056,279
6057,315
6058,363
6059,414
6060,457
6061,482
6062,485
6063,458
6064,408
6065,342
6066,271
6067,199
6068,136
6069,85
6070,39
6071,0
6072,-39
6073,-75
6074,-102
6075,-117
6076,-119
6077,-107
6078,-87
6079,-63
6080,-37
6081,-18
6082,-2
6083,6
6084,9
6085,9
6086,10
6087,11
6088,14
6089,19
6090,26
6091,33
6092,37
6093,40
6094,38
6095,34
6096,27
6097,22
6098,15
6099,12
6100,14
6101,19
6102,25
6103,31
6104,31
6105,36
6106,39
6107,41
6108,41
6109,43
6110,43
6111,45
6112,47
6113,49
6114,48
6115,48
6116,47
6117,47
6118,46
6119,47
6120,47
6121,46
6122,44
6123,45
6124,45
6125,47
6126,51
6127,54
6128,52
6129,52
6130,52
6131,52
6132,53
6133,56
6134,59
6135,62
6136,62
6137,63
6138,64
6139,61
6140,58
6141,58
6142,59
6143,60
6144,61
6145,61
6146,62
6147,62
6148,61
6149,62
6150,63
6151,66
6152,70
6153,74
6154,77
6155,78
6156,79
6157,80
6158,79
6159,79
6160,80
6161,84
6162,87
6163,90
6164,94
6165,98
6166,102
6167,104
6168,105
6169,103
6170,103
6171,105
6172,107
6173,112
6174,117
6175,122
6176,128
6177,134
6178,139
6179,144
6180,149
6181,152
6182,156
6183,161
6184,162
6185,159
6186,153
6187,149
6188,146
6189,145
6190,147
6191,152
6192,157
6193,161
6194,163
6195,162
6196,160
6197,158
6198,157
6199,159
6200,159
6201,156
6202,151
6203,144
6204,133
6205,121
6206,109
6207,101
6208,97
6209,94
6210,93
6211,94
6212,94
6213,92
6214,88
6215,83
6216,74
6217,71
6218,67
6219,63
6220,56
6221,52
6222,46
6223,38
6224,31
6225,27
6226,25
6227,23
6228,21
6229,18
6230,14
6231,10
6232,7
6233,7
6234,7
6235,7
6236,6
6237,5
6238,2
6239,0
6240,0
6241,2
6242,6
6243,11
6244,11
6245,9
6246,5
6247,5
6248,0
6249,-10
6250,-11
6251,-8
6252,-5
6253,-1
6254,-1
6255,-3
6256,-4
6257,-5
6258,-4
6259,-1
6260,0
6261,4
6262,7
6263,11
6264,13
6265,14
6266,13
6267,13
6268,13
6269,12
6270,12
6271,16
6272,21
6273,27
6274,33
6275,37
6276,39
6277,39
6278,36
6279,30
6280,27
6281,17
6282,17
6283,19
6284,22
6285,27
6286,33
6287,38
6288,42
6289,41
6290,38
6291,36
6292,33
6293,25
6294,21
6295,22
6296,22
6297,23
6298,26
6299,29
6300,30
6301,29
6302,27
6303,23
6304,20
6305,22
6306,27
6307,36
6308,41
6309,42
6310,40
6311,34
6312,25
6313,8
6314,2
6315,1
6316,5
6317,8
6318,10
6319,14
6320,18
6321,23
6322,25
6323,24
6324,24
6325,22
6326,21
6327,22
6328,22
6329,22
6330,25
6331,26
6332,26
6333,25
6334,25
6335,25
6336,26
6337,27
6338,27
6339,27
6340,26
6341,26
6342,29
6343,31
6344,34
6345,40
6346,41
6347,40
6348,36
6349,32
6350,28
6351,26
6352,26
6353,26
6354,27
6355,29
6356,31
6357,32
6358,32
6359,32
6360,30
6361,31
6362,33
6363,33
6364,34
6365,38
6366,42
6367,45
6368,48
6369,47
6370,44
6371,41
6372,36
6373,32
6374,31
6375,30
6376,36
6377,40
6378,40
6379,41
6380,39
6381,37
6382,37
6383,37
6384,35
6385,34
6386,31
6387,29
6388,29
6389,27
6390,26
6391,25
6392,29
6393,34
6394,38
6395,42
6396,42
6397,38
6398,34
6399,30
6400,30
6401,33
6402,34
6403,36
6404,40
6405,39
6406,38
6407,36
6408,34
6409,39
6410,45
6411,51
6412,55
6413,56
6414,54
6415,53
6416,51
6417,50
6418,52
6419,53
6420,54
6421,54
6422,53
6423,50
6424,48
6425,47
6426,52
6427,56
6428,59
6429,63
6430,67
6431,68
6432,69
6433,70
6434,69
6435,73
6436,77
6437,78
6438,79
6439,77
6440,74
6441,69
6442,66
6443,66
6444,65
6445,64
6446,65
6447,63
6448,59
6449,54
6450,52
6451,51
6452,51
6453,50
6454,52
6455,54
6456,54
6457,53
6458,53
6459,52
6460,53
6461,53
6462,56
6463,60
6464,65
6465,67
6466,69
6467,66
6468,62
6469,59
6470,58
6471,60
6472,66
6473,93
6474,116
6475,140
6476,164
6477,186
6478,204
6479,221
6480,234
6481,247
6482,259
6483,276
6484,305
6485,344
6486,387
6487,421
6488,438
6489,435
6490,408
6491,362
6492,306
6493,246
6494,189
6495,140
6496,98
6497,61
6498,22
6499,-19
6500,-58
6501,-89
6502,-108
6503,-113
6504,-104
6505,-63
6506,-37
6507,-12
6508,6
6509,19
6510,24
6511,23
6512,20
6513,13
6514,8
6515,7
6516,11
6517,17
6518,24
6519,31
6520,36
6521,40
6522,40
6523,38
6524,37
6525,35
6526,35
6527,37
6528,41
6529,43
6530,46
6531,46
6532,47
6533,49
6534,49
6535,49
6536,49
6537,52
6538,56
6539,58
6540,60
6541,63
6542,67
6543,66
6544,64
6545,63
6546,59
6547,55
6548,52
6549,48
6550,47
6551,53
6552,57
6553,62
6554,64
6555,63
6556,62
6557,63
6558,63
6559,62
6560,63
6561,64
6562,63
6563,65
6564,65
6565,63
6566,62
6567,65
6568,67
6569,69
6570,70
6571,66
6572,66
6573,64
6574,65
6575,69
6576,72
6577,74
6578,77
6579,77
6580,74
6581,70
6582,66
6583,65
6584,67
6585,71
6586,80
6587,90
6588,99
6589,107
6590,116
6591,119
6592,118
6593,118
6594,116
6595,113
6596,109
6597,110
6598,113
6599,116
6600,120
6601,124
6602,129
6603,135
6604,140
6605,143
6606,145
6607,147
6608,150
6609,155
6610,155
6611,155
6612,157
6613,159
6614,162
6615,165
6616,170
6617,173
6618,174
6619,171
6620,168
6621,164
6622,156
6623,151
6624,148
6625,148
6626,149
6627,150
6628,152
6629,152
6630,149
6631,144
6632,139
6633,135
6634,130
6635,121
6636,117
6637,113
6638,107
6639,102
6640,98
6641,93
6642,88
6643,84
6644,79
6645,75
6646,68
6647,60
6648,52
6649,44
6650,36
6651,33
6652,30
6653,25
6654,24
6655,24
6656,23
6657,22
6658,20
6659,15
6660,11
6661,5
6662,0
6663,-1
6664,-2
6665,-2
6666,0
6667,10
6668,13
6669,15
6670,15
6671,15
6672,12
6673,12
6674,10
6675,10
6676,7
6677,6
6678,6
6679,7
6680,7
6681,7
6682,6
6683,6
6684,6
6685,7
6686,10
6687,14
6688,18
6689,25
6690,30
6691,30
6692,32
6693,31
6694,29
6695,27
6696,26
6697,26
6698,26
6699,27
6700,26
6701,29
6702,28
6703,31
6704,33
6705,35
6706,39
6707,40
6708,40
6709,39
6710,38
6711,36
6712,35
6713,33
6714,31
6715,31
6716,31
6717,31
6718,33
6719,34
6720,36
6721,38
6722,39
6723,38
6724,34
6725,31
6726,29
6727,26
6728,25
6729,24
6730,24
6731,26
6732,26
6733,25
6734,25
6735,25
6736,27
6737,28
6738,28
6739,29
6740,30
6741,32
6742,32
6743,32
6744,33
6745,34
6746,33
6747,32
6748,31
6749,30
6750,31
6751,33
6752,36
6753,37
6754,38
6755,36
6756,31
6757,27
6758,23
6759,22
6760,23
6761,27
6762,29
6763,32
6764,33
6765,31
6766,27
6767,26
6768,28
6769,31
6770,36
6771,42
6772,47
6773,48
6774,48
6775,45
6776,39
6777,35
6778,33
6779,33
6780,35
6781,35
6782,35
6783,37
6784,39
6785,39
6786,39
6787,42
6788,45
6789,47
6790,46
6791,45
6792,44
6793,41
6794,40
6795,43
6796,47
6797,49
6798,51
6799,52
6800,50
6801,48
6802,47
6803,48
6804,49
6805,52
6806,55
6807,55
6808,54
6809,51
6810,46
6811,42
6812,40
6813,40
6814,43
6815,43
6816,47
6817,51
6818,53
6819,55
6820,57
6821,57
6822,57
6823,60
6824,61
6825,61
6826,62
6827,61
6828,59
6829,57
6830,56
6831,64
6832,68
6833,68
6834,69
6835,71
6836,71
6837,72
6838,74
6839,75
6840,77
6841,77
6842,77
6843,79
6844,82
6845,84
6846,86
6847,91
6848,94
6849,94
6850,93
6851,90
6852,88
6853,87
6854,84
6855,83
6856,81
6857,78
6858,76
6859,75
6860,72
6861,69
6862,67
6863,61
6864,60
6865,59
6866,60
6867,61
6868,60
6869,59
6870,58
6871,55
6872,55
6873,55
6874,56
6875,55
6876,54
6877,55
6878,56
6879,56
6880,60
6881,65
6882,70
6883,79
6884,88
6885,101
6886,119
6887,138
6888,161
6889,183
6890,203
6891,220
6892,237
6893,251
6894,300
6895,341
6896,390
6897,437
6898,472
6899,483
6900,468
6901,424
6902,361
6903,287
6904,211
6905,142
6906,87
6907,40
6908,-3
6909,-42
6910,-79
6911,-113
6912,-135
6913,-144
6914,-138
6915,-121
6916,-98
6917,-72
6918,-47
6919,-28
6920,-14
6921,-7
6922,-8
6923,-10
6924,-10
6925,-10
6926,-3
6927,2
6928,8
6929,14
6930,17
6931,19
6932,20
6933,18
6934,19
6935,20
6936,21
6937,23
6938,26
6939,29
6940,31
6941,34
6942,34
6943,33
6944,30
6945,28
6946,27
6947,28
6948,31
6949,35
6950,39
6951,42
6952,42
6953,41
6954,36
6955,29
6956,24
6957,24
6958,24
6959,35
6960,42
6961,50
6962,56
6963,56
6964,51
6965,45
6966,40
6967,36
6968,40
6969,46
6970,50
6971,56
6972,59
6973,58
6974,56
6975,55
6976,53
6977,52
6978,55
6979,57
6980,61
6981,62
6982,61
6983,64
6984,65
6985,64
6986,66
6987,68
6988,68
6989,69
6990,71
6991,73
6992,75
6993,76
6994,79
6995,80
6996,82
6997,84
6998,85
6999,86
7000,90
7001,93
7002,98
7003,106
7004,113
7005,118
7006,122
7007,124
7008,124
7009,122
7010,122
7011,123
7012,127
7013,130
7014,137
7015,143
7016,147
7017,147
7018,150
7019,151
7020,152
7021,154
7022,163
7023,167
7024,168
7025,170
7026,170
7027,167
7028,163
7029,162
7030,161
7031,159
7032,157
7033,155
7034,153
7035,150
7036,150
7037,151
7038,152
7039,150
7040,148
7041,148
7042,145
7043,139
7044,133
7045,128
7046,121
7047,114
7048,107
7049,101
7050,95
7051,91
7052,89
7053,89
7054,78
7055,72
7056,65
7057,56
7058,50
7059,43
7060,38
7061,37
7062,34
7063,30
7064,28
7065,23
7066,19
7067,15
7068,12
7069,9
7070,7
7071,6
7072,5
7073,5
7074,5
7075,4
7076,5
7077,6
7078,5
7079,5
7080,6
7081,6
7082,5
7083,5
7084,3
7085,3
7086,-2
7087,-7
7088,-7
7089,-7
7090,-4
7091,0
7092,7
7093,12
7094,16
7095,14
7096,12
7097,11
7098,10
7099,10
7100,10
7101,13
7102,13
7103,13
7104,12
7105,14
7106,16
7107,18
7108,20
7109,22
7110,22
7111,22
7112,20
7113,18
7114,16
7115,15
7116,13
7117,13
7118,10
7119,11
7120,14
7121,15
7122,16
7123,18
7124,15
7125,9
7126,6
7127,9
7128,17
7129,25
7130,34
7131,40
7132,40
7133,33
7134,25
7135,20
7136,17
7137,15
7138,17
7139,23
7140,28
7141,31
7142,32
7143,32
7144,30
7145,30
7146,28
7147,27
7148,24
7149,22
7150,22
7151,23
7152,26
7153,27
7154,27
7155,28
7156,29
7157,31
7158,32
7159,34
7160,37
7161,38
7162,37
7163,37
7164,34
7165,31
7166,29
7167,28
7168,29
7169,31
7170,34
7171,37
7172,39
7173,41
7174,41
7175,42
7176,43
7177,45
7178,43
7179,41
7180,35
7181,31
7182,29
7183,33
7184,38
7185,42
7186,45
7187,44
7188,41
7189,34
7190,28
7191,27
7192,31
7193,38
7194,48
7195,60
7196,69
7197,73
7198,73
7199,68
7200,58
7201,49
7202,43
7203,39
7204,37
7205,39
7206,41
7207,43
7208,43
7209,40
7210,39
7211,39
7212,38
7213,37
7214,37
7215,29
7216,27
7217,26
7218,24
7219,25
7220,27
7221,29
7222,33
7223,36
7224,37
7225,39
7226,40
7227,40
7228,40
7229,42
7230,41
7231,39
7232,39
7233,40
7234,44
7235,50
7236,55
7237,58
7238,58
7239,53
7240,48
7241,45
7242,45
7243,44
7244,45
7245,51
7246,57
7247,56
7248,48
7249,36
7250,25
7251,18
7252,19
7253,25
7254,32
7255,40
7256,46
7257,51
7258,53
7259,55
7260,54
7261,52
7262,51
7263,52
7264,52
7265,53
7266,55
7267,58
7268,64
7269,70
7270,74
7271,74
7272,74
7273,73
7274,71
7275,68
7276,63
7277,60
7278,60
7279,61
7280,63
7281,64
7282,66
7283,68
7284,67
7285,62
7286,55
7287,47
7288,41
7289,37
7290,35
7291,37
7292,39
7293,45
7294,50
7295,54
7296,56
7297,56
7298,54
7299,51
7300,51
7301,51
7302,51
7303,53
7304,58
7305,66
7306,80
7307,98
7308,119
7309,143
7310,167
7311,208
7312,224
7313,237
7314,255
7315,278
7316,312
7317,359
7318,409
7319,451
7320,478
7321,481
7322,457
7323,406
7324,339
7325,267
7326,198
7327,134
7328,81
7329,36
7330,-10
7331,-55
7332,-97
7333,-133
7334,-156
7335,-163
7336,-153
7337,-133
7338,-107
7339,-78
7340,-53
7341,-33
7342,-22
7343,-12
7344,-10
7345,-17
7346,-18
7347,-19
7348,-19
7349,-16
7350,-10
7351,-6
7352,-3
7353,0
7354,3
7355,5
7356,6
7357,6
7358,10
7359,10
7360,8
7361,7
7362,5
7363,3
7364,4
7365,8
7366,12
7367,17
7368,20
7369,22
7370,23
7371,22
7372,20
7373,19
7374,15
7375,13
7376,13
7377,16
7378,15
7379,18
7380,19
7381,18
7382,19
7383,23
7384,23
7385,26
7386,30
7387,35
7388,37
7389,39
7390,38
7391,36
7392,37
7393,38
7394,39
7395,43
7396,47
7397,48
7398,46
7399,45
7400,44
7401,43
7402,47
7403,50
7404,55
7405,60
7406,63
7407,65
7408,64
7409,61
7410,59
7411,57
7412,58
7413,61
7414,63
7415,69
7416,75
7417,79
7418,80
7419,81
7420,81
7421,80
7422,79
7423,79
7424,80
7425,84
7426,88
7427,95
7428,101
7429,106
7430,110
7431,112
7432,111
7433,111
7434,113
7435,114
7436,116
7437,118
7438,119
7439,119
7440,119
7441,118
7442,121
7443,125
7444,140
7445,150
7446,158
7447,162
7448,164
7449,163
7450,159
7451,156
7452,151
7453,148
7454,145
7455,144
7456,143
7457,144
7458,145
7459,146
7460,145
7461,145
7462,142
7463,140
7464,135
7465,128
7466,122
7467,118
7468,114
7469,110
7470,106
7471,103
7472,99
7473,94
7474,89
7475,73
7476,62
7477,52
7478,44
7479,37
7480,33
7481,30
7482,28
7483,26
7484,22
7485,17
7486,13
7487,7
7488,1
7489,-2
7490,-3
7491,-3
7492,-3
7493,-3
7494,-2
7495,-2
7496,-5
7497,-6
7498,-6
7499,-11
7500,-14
7501,-15
7502,-15
7503,-14
7504,-14
7505,-12
7506,-8
7507,-4
7508,-1
7509,-2
7510,-4
7511,-6
7512,-8
7513,-10
7514,-11
7515,-12
7516,-10
7517,-6
7518,-5
7519,-6
7520,-6
7521,-4
7522,-2
7523,2
7524,7
7525,11
7526,11
7527,14
7528,17
7529,18
7530,16
7531,14
7532,12
7533,14
7534,18
7535,21
7536,24
7537,28
7538,28
7539,27
7540,20
7541,17
7542,15
7543,14
7544,15
7545,16
7546,19
7547,25
7548,26
7549,25
7550,24
7551,22
7552,20
7553,18
7554,17
7555,16
7556,14
7557,12
7558,12
7559,17
7560,21
7561,26
7562,34
7563,39
7564,39
7565,37
7566,34
7567,27
7568,21
7569,19
7570,20
7571,24
7572,26
7573,29
7574,31
7575,31
7576,31
7577,29
7578,24
7579,21
7580,20
7581,21
7582,24
7583,31
7584,37
7585,44
7586,47
7587,45
7588,38
7589,30
7590,22
7591,17
7592,18
7593,21
7594,26
7595,31
7596,33
7597,32
7598,30
7599,25
7600,21
7601,21
7602,24
7603,29
7604,39
7605,40
7606,39
7607,35
7608,33
7609,33
7610,35
7611,35
7612,39
7613,41
7614,39
7615,37
7616,34
7617,30
7618,27
7619,26
7620,26
7621,27
7622,26
7623,28
7624,29
7625,31
7626,34
7627,36
7628,37
7629,38
7630,36
7631,34
7632,32
7633,28
7634,25
7635,27
7636,31
7637,44
7638,47
7639,48
7640,50
7641,49
7642,48
7643,50
7644,52
7645,54
7646,56
7647,57
7648,55
7649,54
7650,52
7651,52
7652,54
7653,54
7654,53
7655,57
7656,60
7657,62
7658,67
7659,72
7660,73
7661,74
7662,75
7663,73
7664,71
7665,68
7666,67
7667,68
7668,66
7669,66
7670,65
7671,62
7672,56
7673,52
7674,47
7675,42
7676,40
7677,41
7678,44
7679,46
7680,49
7681,54
7682,56
7683,57
7684,56
7685,54
7686,49
7687,42
7688,36
7689,33
7690,31
7691,34
7692,40
7693,48
7694,53
7695,57
7696,60
7697,59
7698,58
7699,59
7700,66
7701,79
7702,121
7703,142
7704,161
7705,181
7706,198
7707,214
7708,234
7709,255
7710,284
7711,326
7712,379
7713,434
7714,481
7715,505
7716,503
7717,473
7718,416
7719,341
7720,261
7721,183
7722,115
7723,61
7724,13
7725,-32
7726,-75
7727,-113
7728,-141
7729,-154
7730,-151
7731,-138
7732,-113
7733,-81
7734,-25
7735,-6
7736,2
7737,5
7738,4
7739,0
7740,-4
7741,-2
7742,3
7743,9
7744,16
7745,18
7746,21
7747,22
7748,22
7749,22
7750,22
7751,21
7752,23
7753,27
7754,28
7755,26
7756,25
7757,24
7758,24
7759,23
7760,24
7761,27
7762,27
7763,28
7764,32
7765,34
7766,36
7767,39
7768,43
7769,46
7770,48
7771,51
7772,53
7773,54
7774,54
7775,54
7776,53
7777,47
7778,40
7779,36
7780,36
7781,39
7782,45
7783,52
7784,59
7785,65
7786,65
7787,63
7788,59
7789,57
7790,55
7791,57
7792,59
7793,64
7794,68
7795,69
7796,69
7797,68
7798,66
7799,66
7800,66
7801,65
7802,66
7803,67
7804,69
7805,71
7806,74
7807,78
7808,82
7809,89
7810,95
7811,95
7812,100
7813,103
7814,102
7815,102
7816,102
7817,101
7818,99
7819,98
7820,98
7821,100
7822,100
7823,102
7824,107
7825,115
7826,122
7827,130
7828,135
7829,139
7830,140
7831,140
7832,146
7833,148
7834,150
7835,152
7836,154
7837,157
7838,159
7839,160
7840,164
7841,165
7842,165
7843,164
7844,164
7845,163
7846,161
7847,157
7848,154
7849,150
7850,145
7851,143
7852,144
7853,145
7854,147
7855,148
7856,147
7857,143
7858,138
7859,131
7860,125
7861,120
7862,114
7863,110
7864,102
7865,99
7866,95
7867,91
7868,86
7869,79
7870,71
7871,60
7872,50
7873,40
7874,32
7875,27
7876,26
7877,25
7878,26
7879,25
7880,21
7881,16
7882,10
7883,3
7884,-2
7885,-6
7886,-7
7887,-8
7888,-8
7889,-9
7890,-9
7891,-9
7892,-8
7893,-6
7894,-3
7895,-2
7896,-3
7897,-3
7898,-3
7899,-2
7900,0
7901,3
7902,3
7903,0
7904,-3
7905,-5
7906,-6
7907,-6
7908,-3
7909,2
7910,6
7911,10
7912,12
7913,12
7914,11
7915,8
7916,6
7917,6
7918,5
7919,5
7920,8
7921,12
7922,14
7923,16
7924,18
7925,18
7926,18
7927,22
7928,31
7929,36
7930,37
7931,36
7932,32
7933,22
7934,13
7935,8
7936,2
7937,0
7938,5
7939,12
7940,18
7941,24
7942,26
7943,31
7944,31
7945,24
7946,19
7947,16
7948,13
7949,14
7950,17
7951,21
7952,23
7953,23
7954,27
7955,28
7956,27
7957,24
7958,20
7959,20
7960,20
7961,19
7962,18
7963,17
7964,17
7965,17
7966,16
7967,14
7968,16
7969,23
7970,29
7971,36
7972,43
7973,50
7974,54
7975,55
7976,53
7977,49
7978,46
7979,43
7980,42
7981,43
7982,45
7983,41
7984,39
7985,35
7986,30
7987,27
7988,26
7989,25
7990,28
7991,28
7992,28
7993,28
7994,29
7995,30
7996,32
7997,34
7998,37
7999,41
8000,44
8001,44
8002,43
8003,40
8004,38
8005,36
8006,34
8007,33
8008,33
8009,32
8010,32
8011,34
8012,34
8013,34
8014,38
8015,43
8016,48
8017,54
8018,57
8019,55
8020,53
8021,51
8022,49
8023,49
8024,50
8025,53
8026,54
8027,52
8028,52
8029,50
8030,46
8031,46
8032,50
8033,54
8034,60
8035,67
8036,73
8037,77
8038,78
8039,77
8040,74
8041,69
8042,62
8043,55
8044,54
8045,53
8046,51
8047,49
8048,49
8049,47
8050,44
8051,42
8052,42
8053,41
8054,37
8055,37
8056,40
8057,42
8058,46
8059,59
8060,62
8061,64
8062,64
8063,62
8064,60
8065,58
8066,57
8067,57
8068,57
8069,55
8070,52
8071,48
8072,48
8073,48
8074,50
8075,55
8076,64
8077,72
8078,85
8079,102
8080,121
8081,141
8082,159
8083,176
8084,191
8085,204
8086,216
8087,234
8088,253
8089,281
8090,322
8091,422
8092,459
8093,475
8094,465
8095,465
8096,426
8097,368
8098,301
8099,234
8100,170
8101,117
8102,75
8103,34
8104,-9
8105,-54
8106,-95
8107,-123
8108,-139
8109,-137
8110,-121
8111,-99
8112,-76
8113,-55
8114,-37
8115,-24
8116,-16
8117,-11
8118,-6
8119,1
8120,5
8121,7
8122,8
8123,9
8124,7
8125,11
8126,15
8127,19
8128,22
8129,23
8130,24
8131,21
8132,17
8133,16
8134,16
8135,17
8136,22
8137,26
8138,29
8139,31
8140,31
8141,32
8142,34
8143,36
8144,37
8145,39
8146,39
8147,38
8148,36
8149,34
8150,31
8151,29
8152,28
8153,30
8154,35
8155,41
8156,47
8157,48
8158,47
8159,48
8160,46
8161,45
8162,45
8163,45
8164,48
8165,52
8166,51
8167,54
8168,57
8169,60
8170,62
8171,62
8172,60
8173,62
8174,63
8175,64
8176,67
8177,70
8178,70
8179,72
8180,75
8181,76
8182,78
8183,80
8184,84
8185,91
8186,93
8187,93
8188,93
8189,93
8190,96
8191,101
8192,104
8193,108
8194,112
8195,116
8196,117
8197,116
8198,116
8199,117
8200,116
8201,114
8202,113
8203,114
8204,118
8205,124
8206,135
8207,147
8208,157
8209,168
8210,174
8211,174
8212,171
8213,164
8214,159
8215,158
8216,160
8217,163
8218,167
8219,169
8220,174
8221,170
8222,164
8223,162
8224,158
8225,157
8226,158
8227,160
8228,160
8229,158
8230,155
8231,153
8232,149
8233,146
8234,145
8235,143
8236,141
8237,143
8238,143
8239,141
8240,137
8241,132
8242,123
8243,111
8244,98
8245,84
8246,74
8247,68
8248,63
8249,64
8250,66
8251,65
8252,61
8253,46
8254,37
8255,28
8256,21
8257,17
8258,14
8259,13
8260,12
8261,11
8262,10
8263,10
8264,6
8265,3
8266,1
8267,-1
8268,-3
8269,-3
8270,-2
8271,0
8272,2
8273,4
8274,6
8275,4
8276,2
8277,3
8278,0
8279,-4
8280,-5
8281,-6
8282,-4
8283,-1
8284,0
8285,5
8286,4
8287,4
8288,5
8289,4
8290,4
8291,8
8292,10
8293,10
8294,10
8295,11
8296,12
8297,13
8298,14
8299,15
8300,16
8301,17
8302,18
8303,19
8304,20
8305,21
8306,23
8307,25
8308,25
8309,24
8310,23
8311,25
8312,26
8313,29
8314,33
8315,36
8316,38
8317,31
8318,28
8319,25
8320,21
8321,20
8322,21
8323,20
8324,21
8325,24
8326,27
8327,29
8328,31
8329,32
8330,35
8331,36
8332,36
8333,35
8334,34
8335,32
8336,31
8337,28
8338,25
8339,23
8340,22
8341,22
8342,23
8343,26
8344,30
8345,35
8346,39
8347,39
8348,38
8349,30
8350,23
8351,19
8352,17
8353,17
8354,20
8355,26
8356,28
8357,28
8358,28
8359,28
8360,26
8361,25
8362,27
8363,30
8364,31
8365,34
8366,37
8367,39
8368,40
8369,40
8370,43
8371,44
8372,40
8373,39
8374,38
8375,33
8376,29
8377,27
8378,27
8379,27
8380,27
8381,27
8382,36
8383,40
8384,45
8385,52
8386,59
8387,62
8388,62
8389,57
8390,49
8391,38
8392,29
8393,27
8394,30
8395,37
8396,47
8397,56
8398,62
8399,62
8400,59
8401,58
8402,59
8403,61
8404,63
8405,66
8406,69
8407,68
8408,67
8409,65
8410,64
8411,63
8412,61
8413,58
8414,52
8415,41
8416,40
8417,44
8418,50
8419,56
8420,59
8421,60
8422,59
8423,56
8424,50
8425,41
8426,33
8427,26
8428,18
8429,12
8430,9
8431,8
8432,11
8433,20
8434,27
8435,33
8436,39
8437,43
8438,45
8439,47
8440,47
8441,47
8442,47
8443,46
8444,46
8445,48
8446,47
8447,55
8448,66
8449,82
8450,103
8451,127
8452,152
8453,173
8454,189
8455,203
8456,213
8457,225
8458,240
8459,264
8460,302
8461,347
8462,387
8463,419
8464,431
8465,419
8466,385
8467,332
8468,270
8469,205
8470,145
8471,92
8472,49
8473,8
8474,-32
8475,-68
8476,-101
8477,-124
8478,-139
8479,-131
8480,-115
8481,-94
8482,-68
8483,-45
8484,-26
8485,-11
8486,-3
8487,0
8488,0
8489,-3
8490,-5
8491,-6
8492,-9
8493,-8
8494,-5
8495,-4
8496,0
8497,6
8498,10
8499,15
8500,17
8501,17
8502,15
8503,10
8504,5
8505,4
8506,6
8507,11
8508,16
8509,24
8510,30
8511,39
8512,39
8513,39
8514,41
8515,42
8516,43
8517,45
8518,45
8519,41
8520,37
8521,31
8522,31
8523,23
8524,19
8525,17
8526,20
8527,29
8528,36
8529,41
8530,47
8531,51
8532,50
8533,48
8534,44
8535,39
8536,38
8537,38
8538,39
8539,40
8540,42
8541,44
8542,48
8543,51
8544,57
8545,58
8546,58
8547,59
8548,59
8549,60
8550,61
8551,60
8552,59
8553,60
8554,59
8555,58
8556,59
8557,62
8558,66
8559,70
8560,75
8561,81
8562,83
8563,82
8564,83
8565,86
8566,90
8567,96
8568,103
8569,108
8570,112
8571,118
8572,121
8573,124
8574,124
8575,122
8576,121
8577,122
8578,126
8579,128
8580,130
8581,137
8582,144
8583,147
8584,148
8585,147
8586,145
8587,145
8588,146
8589,146
8590,147
8591,151
8592,153
8593,154
8594,153
8595,152
8596,151
8597,148
8598,146
8599,148
8600,149
8601,145
8602,141
8603,136
8604,129
8605,122
8606,116
8607,114
8608,115
8609,117
8610,116
8611,111
8612,103
8613,94
8614,85
8615,76
8616,68
8617,60
8618,55
8619,52
8620,50
8621,51
8622,51
8623,52
8624,51
8625,47
8626,41
8627,31
8628,20
8629,12
8630,7
8631,6
8632,7
8633,12
8634,13
8635,15
8636,16
8637,14
8638,12
8639,12
8640,10
8641,10
8642,12
8643,9
8644,5
8645,0
8646,-3
8647,-2
8648,-2
8649,0
8650,2
8651,4
8652,8
8653,11
8654,11
8655,8
8656,7
8657,4
8658,5
8659,5
8660,7
8661,11
8662,15
8663,19
8664,19
8665,23
8666,28
8667,33
8668,37
8669,40
8670,42
8671,41
8672,41
8673,38
8674,34
8675,26
8676,24
8677,24
8678,23
8679,23
8680,23
8681,23
8682,25
8683,31
8684,36
8685,38
8686,39
8687,42
8688,41
8689,41
8690,40
8691,40
8692,40
8693,41
8694,41
8695,38
8696,34
8697,29
8698,25
8699,26
8700,28
8701,33
8702,39
8703,45
8704,48
8705,48
8706,41
8707,37
8708,34
8709,33
8710,34
8711,36
8712,38
8713,43
8714,45
8715,47
8716,48
8717,47
8718,45
8719,42
8720,38
8721,37
8722,39
8723,40
8724,42
8725,44
8726,44
8727,42
8728,41
8729,39
8730,37
8731,34
8732,34
8733,34
8734,35
8735,35
8736,35
8737,37
8738,43
8739,45
8740,43
8741,41
8742,38
8743,37
8744,37
8745,36
8746,38
8747,42
8748,45
8749,50
8750,53
8751,53
8752,52
8753,53
8754,51
8755,50
8756,50
8757,49
8758,51
8759,54
8760,57
8761,58
8762,59
8763,60
8764,60
8765,61
8766,62
8767,63
8768,65
8769,69
8770,71
8771,69
8772,67
8773,67
8774,67
8775,66
8776,66
8777,64
8778,62
8779,58
8780,55
8781,51
8782,46
8783,42
8784,43
8785,46
8786,47
8787,49
8788,52
8789,53
8790,53
8791,52
8792,50
8793,48
8794,45
8795,43
8796,41
8797,41
8798,40
8799,40
8800,43
8801,45
8802,49
8803,52
8804,52
8805,51
8806,51
8807,51
8808,52
8809,55
8810,63
8811,76
8812,94
8813,111
8814,130
8815,151
8816,171
8817,188
8818,203
8819,218
8820,232
8821,250
8822,279
8823,323
8824,370
8825,412
8826,442
8827,452
8828,432
8829,387
8830,327
8831,258
8832,191
8833,130
8834,79
8835,-11
8836,-59
8837,-99
8838,-130
8839,-151
8840,-156
8841,-144
8842,-120
8843,-91
8844,-64
8845,-40
8846,-23
8847,-12
8848,-6
8849,-4
8850,-7
8851,-11
8852,-13
8853,-11
8854,-8
8855,-3
8856,0
8857,2
8858,3
8859,4
8860,2
8861,2
8862,1
8863,3
8864,6
8865,12
8866,18
8867,26
8868,29
8869,30
8870,32
8871,33
8872,32
8873,31
8874,30
8875,29
8876,30
8877,31
8878,30
8879,32
8880,33
8881,35
8882,39
8883,42
8884,42
8885,45
8886,44
8887,43
8888,44
8889,46
8890,48
8891,50
8892,51
8893,52
8894,52
8895,52
8896,47
8897,41
8898,35
8899,34
8900,43
8901,51
8902,59
8903,65
8904,65
8905,60
8906,52
8907,43
8908,38
8909,43
8910,53
8911,64
8912,74
8913,82
8914,86
8915,85
8916,80
8917,74
8918,71
8919,70
8920,71
8921,76
8922,82
8923,87
8924,92
8925,96
8926,97
8927,95
8928,91
8929,90
8930,90
8931,92
8932,100
8933,105
8934,110
8935,115
8936,122
8937,126
8938,134
8939,144
8940,153
8941,158
8942,161
8943,161
8944,159
8945,155
8946,151
8947,152
8948,155
8949,155
8950,159
8951,165
8952,169
8953,169
8954,167
8955,165
8956,164
8957,164
8958,163
8959,162
8960,160
8961,155
8962,150
8963,147
8964,143
8965,139
8966,135
8967,130
8968,126
8969,123
8970,118
8971,114
8972,109
8973,105
8974,99
8975,90
8976,82
8977,76
8978,70
8979,66
8980,61
8981,55
8982,47
8983,43
8984,42
8985,42
8986,41
8987,39
8988,34
8989,25
8990,11
8991,0
8992,-10
8993,-15
8994,-18
8995,-14
8996,-10
8997,-10
8998,-13
8999,-13
9000,-12
9001,-14
9002,-13
9003,-12
9004,-13
9005,-13
9006,-9
9007,-7
9008,-5
9009,-2
9010,-1
9011,0
9012,-2
9013,-10
9014,-14
9015,-17
9016,-15
9017,-10
9018,-4
9019,0
9020,6
9021,11
9022,13
9023,13
9024,12
9025,8
9026,5
9027,4
9028,2
9029,2
9030,4
9031,8
9032,12
9033,16
9034,17
9035,19
9036,19
9037,17
9038,14
9039,9
9040,6
9041,4
9042,3
9043,4
9044,10
9045,14
9046,18
9047,21
9048,23
9049,23
9050,22
9051,21
9052,22
9053,24
9054,25
9055,28
9056,32
9057,33
9058,34
9059,33
9060,31
9061,25
9062,20
9063,18
9064,17
9065,17
9066,16
9067,15
9068,14
9069,14
9070,18
9071,20
9072,23
9073,27
9074,31
9075,34
9076,37
9077,38
9078,39
9079,39
9080,39
9081,39
9082,38
9083,32
9084,26
9085,23
9086,18
9087,16
9088,19
9089,24
9090,29
9091,29
9092,29
9093,33
9094,33
9095,28
9096,25
9097,25
9098,25
9099,29
9100,33
9101,36
9102,38
9103,40
9104,42
9105,45
9106,44
9107,40
9108,34
9109,29
9110,24
9111,22
9112,23
9113,25
9114,29
9115,35
9116,38
9117,39
9118,39
9119,40
9120,41
9121,41
9122,40
9123,38
9124,34
9125,29
9126,25
9127,25
9128,29
9129,35
9130,43
9131,49
9132,51
9133,53
9134,55
9135,54
9136,53
9137,52
9138,55
9139,56
9140,59
9141,62
9142,65
9143,64
9144,60
9145,57
9146,55
9147,52
9148,53
9149,56
9150,57
9151,59
9152,63
9153,66
9154,69
9155,75
9156,79
9157,82
9158,80
9159,68
9160,60
9161,52
9162,51
9163,53
9164,55
9165,58
9166,61
9167,61
9168,59
9169,57
9170,54
9171,50
9172,47
9173,42
9174,39
9175,42
9176,43
9177,43
9178,46
9179,48
9180,45
9181,40
9182,35
9183,38
9184,45
9185,51
9186,60
9187,70
9188,73
9189,75
9190,80
9191,86
9192,116
9193,139
9194,166
9195,192
9196,208
9197,222
9198,238
9199,251
9200,268
9201,295
9202,337
9203,389
9204,440
9205,480
9206,499
9207,489
9208,449
9209,385
9210,310
9211,229
9212,154
9213,90
9214,39
9215,-6
9216,-50
9217,-89
9218,-116
9219,-132
9220,-132
9221,-121
9222,-101
9223,-79
9224,-34
9225,-16
9226,-4
9227,4
9228,8
9229,9
9230,8
9231,2
9232,-1
9233,-1
9234,-2
9235,1
9236,10
9237,18
9238,23
9239,27
9240,27
9241,26
9242,25
9243,24
9244,24
9245,25
9246,28
9247,31
9248,30
9249,32
9250,33
9251,36
9252,39
9253,42
9254,42
9255,43
9256,46
9257,46
9258,48
9259,49
9260,45
9261,41
9262,36
9263,32
9264,27
9265,25
9266,27
9267,31
9268,36
9269,41
9270,48
9271,52
9272,54
9273,58
9274,62
9275,61
9276,61
9277,61
9278,59
9279,57
9280,56
9281,58
9282,62
9283,66
9284,70
9285,76
9286,78
9287,77
9288,76
9289,75
9290,73
9291,74
9292,77
9293,80
9294,82
9295,84
9296,85
9297,87
9298,88
9299,89
9300,89
9301,91
9302,91
9303,89
9304,90
9305,91
9306,91
9307,93
9308,96
9309,101
9310,104
9311,108
9312,113
9313,119
9314,124
9315,129
9316,133
9317,134
9318,131
9319,125
9320,118
9321,114
9322,120
9323,129
9324,142
9325,155
9326,167
9327,174
9328,177
9329,179
9330,179
9331,179
9332,180
9333,181
9334,179
9335,177
9336,175
9337,171
9338,169
9339,168
9340,167
9341,168
9342,167
9343,167
9344,166
9345,163
9346,161
9347,156
9348,149
9349,143
9350,135
9351,124
9352,116
9353,107
9354,106
9355,105
9356,102
9357,97
9358,90
9359,80
9360,72
9361,65
9362,58
9363,54
9364,51
9365,47
9366,42
9367,37
9368,32
9369,28
9370,22
9371,17
9372,10
9373,3
9374,-5
9375,-5
9376,-14
9377,-20
9378,-23
9379,-23
9380,-23
9381,-21
9382,-17
9383,-13
9384,-8
9385,-1
9386,10
9387,12
9388,14
9389,13
9390,11
9391,6
9392,3
9393,2
9394,1
9395,0
9396,0
9397,-1
9398,0
9399,1
9400,5
9401,8
9402,11
9403,14
9404,16
9405,17
9406,17
9407,16
9408,18
9409,20
9410,22
9411,22
9412,22
9413,20
9414,19
9415,17
9416,13
9417,9
9418,8
9419,11
9420,16
9421,22
9422,27
9423,32
9424,36
9425,37
9426,34
9427,31
9428,30
9429,29
9430,29
9431,33
9432,36
9433,40
9434,40
9435,39
9436,39
9437,38
9438,34
9439,34
9440,35
9441,36
9442,35
9443,34
9444,33
9445,32
9446,32
9447,31
9448,30
9449,29
9450,29
9451,32
9452,33
9453,35
9454,38
9455,38
9456,37
9457,35
9458,30
9459,26
9460,25
9461,24
9462,24
9463,24
9464,24
9465,28
9466,30
9467,31
9468,34
9469,37
9470,38
9471,38
9472,37
9473,34
9474,28
9475,24
9476,21
9477,22
9478,24
9479,27
9480,30
9481,32
9482,31
9483,29
9484,27
9485,28
9486,32
9487,34
9488,35
9489,29
9490,17
9491,5
9492,-2
9493,-1
9494,2
9495,11
9496,25
9497,42
9498,55
9499,62
9500,62
9501,57
9502,50
9503,46
9504,44
9505,43
9506,41
9507,41
9508,45
9509,47
9510,46
9511,45
9512,38
9513,36
9514,34
9515,32
9516,30
9517,27
9518,27
9519,27
9520,29
9521,30
9522,34
9523,41
9524,47
9525,48
9526,49
9527,49
9528,45
9529,37
9530,31
9531,29
9532,29
9533,28
9534,25
9535,22
9536,20
9537,18
9538,21
9539,26
9540,32
9541,38
9542,45
9543,50
9544,53
9545,52
9546,54
9547,59
9548,62
9549,63
9550,63
9551,62
9552,64
9553,65
9554,67
9555,68
9556,69
9557,67
9558,66
9559,67
9560,65
9561,63
9562,63
9563,63
9564,61
9565,59
9566,60
9567,61
9568,64
9569,68
9570,70
9571,70
9572,67
9573,60
9574,53
9575,39
9576,36
9577,37
9578,41
9579,47
9580,51
9581,52
9582,52
9583,50
9584,45
9585,39
9586,33
9587,26
9588,22
9589,23
9590,27
9591,32
9592,37
9593,41
9594,45
9595,48
9596,47
9597,47
9598,49
9599,54
9600,67
9601,91
9602,115
9603,140
9604,165
9605,187
9606,204
9607,226
9608,239
9609,260
9610,289
9611,334
9612,390
9613,441
9614,478
9615,496
9616,485
9617,444
9618,384
9619,312
9620,236
9621,166
9622,107
9623,55
9624,9
9625,-32
9626,-71
9627,-104
9628,-128
9629,-139
9630,-134
9631,-119
9632,-100
9633,-73
9634,-50
9635,-32
9636,-20
9637,-13
9638,-10
9639,-10
9640,-6
9641,0
9642,5
9643,9
9644,12
9645,13
9646,11
9647,9
9648,8
9649,9
9650,10
9651,13
9652,17
9653,17
9654,16
9655,14
9656,13
9657,13
9658,16
9659,19
9660,19
9661,24
9662,30
9663,34
9664,38
9665,39
9666,39
9667,38
9668,38
9669,39
9670,39
9671,41
9672,37
9673,32
9674,24
9675,13
9676,6
9677,6
9678,13
9679,26
9680,42
9681,55
9682,65
9683,71
9684,71
9685,69
9686,65
9687,60
9688,58
9689,58
9690,54
9691,50
9692,49
9693,46
9694,43
9695,43
9696,45
9697,46
9698,47
9699,50
9700,53
9701,57
9702,60
9703,67
9704,68
9705,67
9706,67
9707,67
9708,67
9709,67
9710,67
9711,68
9712,73
9713,80
9714,86
9715,95
9716,102
9717,107
9718,109
9719,110
9720,109
9721,109
9722,110
9723,113
9724,121
9725,130
9726,137
9727,142
9728,145
9729,145
9730,142
9731,137
9732,136
9733,139
9734,146
9735,150
9736,154
9737,157
9738,155
9739,154
9740,153
9741,151
9742,148
9743,146
9744,145
9745,144
9746,147
9747,151
9748,158
9749,166
9750,170
9751,173
9752,174
9753,169
9754,159
9755,146
9756,136
9757,130
9758,124
9759,117
9760,110
9761,101
9762,93
9763,87
9764,81
9765,77
9766,80
9767,82
9768,83
9769,80
9770,74
9771,68
9772,59
9773,48
9774,41
9775,30
9776,22
9777,18
9778,16
9779,13
9780,14
9781,14
9782,15
9783,11
9784,6
9785,0
9786,-4
9787,-9
9788,-9
9789,-5
9790,-1
9791,2
9792,4
9793,5
9794,6
9795,4
9796,2
9797,0
9798,-2
9799,0
9800,3
9801,4
9802,4
9803,1
9804,-3
9805,-6
9806,-10
9807,-14
9808,-13
9809,-8
9810,-2
9811,6
9812,15
9813,19
9814,18
9815,13
9816,9
9817,5
9818,-1
9819,-4
9820,-6
9821,-7
9822,-3
9823,5
9824,13
9825,20
9826,23
9827,25
9828,25
9829,22
9830,11
9831,7
9832,5
9833,13
9834,25
9835,39
9836,56
9837,67
9838,71
9839,66
9840,53
9841,35
9842,17
9843,3
9844,-3
9845,0
9846,3
9847,9
9848,12
9849,13
9850,14
9851,18
9852,20
9853,22
9854,22
9855,22
9856,22
9857,18
9858,18
9859,23
9860,30
9861,41
9862,52
9863,66
9864,65
9865,59
9866,46
9867,33
9868,21
9869,13
9870,8
9871,9
9872,15
9873,21
9874,29
9875,35
9876,39
9877,42
9878,46
9879,52
9880,62
9881,73
9882,78
9883,74
9884,61
9885,41
9886,21
9887,4
9888,-7
9889,-6
9890,3
9891,13
9892,26
9893,36
9894,39
9895,39
9896,42
9897,45
9898,45
9899,43
9900,43
9901,41
9902,35
9903,31
9904,28
9905,23
9906,23
9907,24
9908,26
9909,27
9910,30
9911,31
9912,32
9913,32
9914,31
9915,30
9916,31
9917,30
9918,31
9919,28
9920,25
9921,27
9922,31
9923,34
9924,36
9925,37
9926,40
9927,38
9928,30
9929,22
9930,18
9931,17
9932,20
9933,28
9934,38
9935,46
9936,52
9937,58
9938,64
9939,62
9940,59
9941,58
9942,57
9943,58
9944,58
9945,57
9946,56
9947,58
9948,62
9949,64
9950,68
9951,70
9952,67
9953,64
9954,62
9955,59
9956,57
9957,57
9958,61
9959,74
9960,75
9961,76
9962,75
9963,70
9964,68
9965,70
9966,68
9967,66
9968,63
9969,61
9970,56
9971,48
9972,43
9973,42
9974,42
9975,45
9976,49
9977,48
9978,42
9979,36
9980,33
9981,32
9982,34
9983,39
9984,45
9985,50
9986,55
9987,58
9988,57
9989,55
9990,54
9991,59
9992,66
9993,74
9994,81
9995,84
9996,88
9997,96
9998,105
9999,119
10000,136
10001,156
10002,175
10003,193
10004,208
10005,221
10006,229
10007,235
10008,251
10009,280
10010,320
10011,362
10012,399
10013,418
10014,415
10015,389
10016,342
10017,284
10018,221
10019,164
10020,75
10021,36
10022,-4
10023,-46
10024,-85
10025,-112
10026,-125
10027,-123
10028,-110
10029,-91
10030,-65
10031,-39
10032,-17
10033,-1
10034,7
10035,10
10036,6
10037,-1
10038,-7
10039,-10
10040,-13
10041,-11
10042,-4
10043,3
10044,14
10045,24
10046,30
10047,37
10048,43
10049,42
10050,40
10051,30
10052,26
10053,22
10054,19
10055,21
10056,22
10057,22
10058,26
10059,30
10060,32
10061,36
10062,40
10063,40
10064,40
10065,37
10066,35
10067,33
10068,31
10069,29
10070,31
10071,32
10072,32
10073,32
10074,35
10075,35
10076,37
10077,43
10078,47
10079,49
10080,54
10081,56
10082,65
10083,65
10084,66
10085,67
10086,65
10087,65
10088,63
10089,60
10090,56
10091,56
10092,60
10093,63
10094,64
10095,67
10096,65
10097,65
10098,65
10099,65
10100,65
10101,65
10102,66
10103,70
10104,71
10105,72
10106,75
10107,79
10108,85
10109,93
10110,100
10111,105
10112,107
10113,107
10114,103
10115,101
10116,100
10117,102
10118,104
10119,108
10120,113
10121,117
10122,120
10123,123
10124,125
10125,128
10126,133
10127,137
10128,140
10129,143
10130,145
10131,144
10132,144
10133,144
10134,141
10135,141
10136,144
10137,145
10138,148
10139,152
10140,158
10141,164
10142,168
10143,170
10144,172
10145,161
10146,155
10147,150
10148,143
10149,140
10150,143
10151,148
10152,149
10153,147
10154,142
10155,135
10156,127
10157,119
10158,116
10159,116
10160,118
10161,120
10162,120
10163,115
10164,105
10165,93
10166,81
10167,71
10168,65
10169,61
10170,61
10171,62
10172,59
10173,54
10174,46
10175,38
10176,30
10177,17
10178,14
10179,12
10180,10
10181,10
10182,11
10183,10
10184,6
10185,5
10186,2
10187,0
10188,0
10189,1
10190,1
10191,3
10192,1
10193,-1
10194,-3
10195,-8
10196,-13
10197,-10
10198,-4
10199,4
10200,15
10201,24
10202,26
10203,29
10204,27
10205,23
10206,16
10207,10
10208,6
10209,4
10210,5
10211,7
10212,9
10213,14
10214,21
10215,28
10216,31
10217,31
10218,29
10219,24
10220,16
10221,10
10222,10
10223,12
10224,17
10225,27
10226,35
10227,41
10228,47
10229,47
10230,48
10231,46
10232,44
10233,40
10234,36
10235,35
10236,35
10237,35
10238,38
10239,41
10240,48
10241,49
10242,50
10243,50
10244,50
10245,47
10246,49
10247,50
10248,52
10249,54
10250,56
10251,58
10252,59
10253,57
10254,56
10255,54
10256,51
10257,50
10258,52
10259,53
10260,51
10261,49
10262,45
10263,39
10264,34
10265,29
10266,28
10267,32
10268,38
10269,46
10270,51
10271,51
10272,49
10273,46
10274,42
10275,39
10276,37
10277,36
10278,37
10279,38
10280,41
10281,44
10282,50
10283,54
10284,58
10285,58
10286,58
10287,56
10288,54
10289,52
10290,52
10291,54
10292,53
10293,51
10294,51
10295,50
10296,48
10297,47
10298,47
10299,48
10300,52
10301,55
10302,63
10303,67
10304,69
10305,73
10306,78
10307,80
10308,79
10309,78
10310,73
10311,68
10312,63
10313,56
10314,52
10315,55
10316,57
10317,59
10318,66
10319,70
10320,71
10321,72
10322,74
10323,75
10324,77
10325,75
10326,73
10327,73
10328,69
10329,62
10330,59
10331,54
10332,48
10333,40
10334,37
10335,38
10336,40
10337,44
10338,49
10339,52
10340,54
10341,54
10342,51
10343,48
10344,47
10345,47
10346,47
10347,50
10348,52
10349,52
10350,51
10351,51
10352,51
10353,50
10354,50
10355,54
10356,59
10357,60
10358,62
10359,62
10360,62
10361,66
10362,76
10363,95
10364,118
10365,169
10366,193
10367,210
10368,221
10369,231
10370,242
10371,242
10372,257
10373,286
10374,326
10375,366
10376,402
10377,421
10378,417
10379,390
10380,344
10381,282
10382,220
10383,163
10384,113
10385,74
10386,39
10387,1
10388,-35
10389,-71
10390,-101
10391,-117
10392,-121
10393,-112
10394,-92
10395,-68
10396,-45
10397,-11
10398,-1
10399,5
10400,10
10401,14
10402,18
10403,21
10404,21
10405,21
10406,21
10407,22
10408,21
10409,23
10410,24
10411,23
10412,23
10413,22
10414,22
10415,22
10416,25
10417,32
10418,39
10419,43
10420,47
10421,49
10422,49
10423,49
10424,46
10425,45
10426,45
10427,43
10428,44
10429,47
10430,48
10431,50
10432,52
10433,52
10434,51
10435,47
10436,44
10437,45
10438,46
10439,50
10440,57
10441,62
10442,64
10443,62
10444,58
10445,55
10446,55
10447,55
10448,58
10449,62
10450,64
10451,62
10452,60
10453,56
10454,54
10455,53
10456,56
10457,63
10458,73
10459,80
10460,87
10461,88
10462,86
10463,85
10464,82
10465,80
10466,78
10467,80
10468,82
10469,84
10470,85
10471,86
10472,88
10473,90
10474,91
10475,95
10476,97
10477,99
10478,100
10479,102
10480,104
10481,108
10482,110
10483,113
10484,117
10485,121
10486,124
10487,128
10488,131
10489,134
10490,139
10491,147
10492,151
10493,154
10494,155
10495,157
10496,159
10497,160
10498,160
10499,162
10500,161
10501,160
10502,157
10503,156
10504,161
10505,167
10506,170
10507,174
10508,175
10509,172
10510,167
10511,159
10512,149
10513,149
10514,139
10515,133
10516,130
10517,129
10518,126
10519,124
10520,122
10521,119
10522,115
10523,113
10524,104
10525,104
10526,106
10527,107
10528,106
10529,102
10530,96
10531,87
10532,75
10533,64
10534,54
10535,50
10536,49
10537,48
10538,48
10539,47
10540,45
10541,42
10542,39
10543,36
10544,33
10545,31
10546,28
10547,25
10548,24
10549,21
10550,18
10551,16
10552,12
10553,8
10554,3
10555,6
10556,10
10557,16
10558,22
10559,24
10560,24
10561,20
10562,14
10563,9
10564,7
10565,8
10566,11
10567,17
10568,19
10569,21
10570,24
10571,25
10572,25
10573,25
10574,26
10575,25
10576,21
10577,20
10578,19
10579,19
10580,19
10581,21
10582,22
10583,23
10584,24
10585,24
10586,26
10587,29
10588,30
10589,32
10590,33
10591,36
10592,37
10593,37
10594,39
10595,41
10596,41
10597,41
10598,43
10599,43
10600,42
10601,41
10602,43
10603,45
10604,45
10605,47
10606,49
10607,50
10608,51
10609,49
10610,45
10611,41
10612,39
10613,40
10614,41
10615,45
10616,48
10617,52
10618,53
10619,45
10620,43
10621,41
10622,39
10623,39
10624,42
10625,45
10626,45
10627,44
10628,42
10629,40
10630,36
10631,35
10632,38
10633,41
10634,40
10635,40
10636,41
10637,39
10638,37
10639,37
10640,39
10641,44
10642,49
10643,51
10644,54
10645,52
10646,50
10647,49
10648,47
10649,47
10650,50
10651,51
10652,50
10653,47
10654,43
10655,42
10656,42
10657,42
10658,43
10659,44
10660,44
10661,44
10662,46
10663,47
10664,50
10665,55
10666,59
10667,61
10668,61
10669,57
10670,51
10671,46
10672,41
10673,41
10674,49
10675,58
10676,65
10677,71
10678,74
10679,74
10680,71
10681,66
10682,62
10683,58
10684,52
10685,52
10686,54
10687,57
10688,61
10689,68
10690,75
10691,79
10692,80
10693,78
10694,73
10695,67
10696,63
10697,59
10698,59
10699,59
10700,59
10701,57
10702,55
10703,53
10704,51
10705,52
10706,52
10707,51
10708,51
10709,50
10710,49
10711,49
10712,46
10713,45
10714,44
10715,43
10716,38
10717,34
10718,31
10719,31
10720,34
10721,36
10722,38
10723,40
10724,43
10725,46
10726,49
10727,53
10728,58
10729,66
10730,79
10731,94
10732,113
10733,133
10734,155
10735,175
10736,193
10737,206
10738,219
10739,232
10740,247
10741,273
10742,313
10743,361
10744,407
10745,441
10746,450
10747,386
10748,323
10749,253
10750,183
10751,122
10752,73
10753,34
10754,-2
10755,-42
10756,-79
10757,-110
10758,-132
10759,-138
10760,-128
10761,-106
10762,-80
10763,-52
10764,-28
10765,-11
10766,-3
10767,0
10768,1
10769,2
10770,1
10771,2
10772,4
10773,5
10774,6
10775,8
10776,11
10777,15
10778,18
10779,27
10780,29
10781,32
10782,35
10783,37
10784,40
10785,41
10786,42
10787,45
10788,47
10789,51
10790,54
10791,59
10792,59
10793,58
10794,54
10795,49
10796,43
10797,39
10798,39
10799,37
10800,37
10801,33
10802,30
10803,31
10804,34
10805,37
10806,41
10807,46
10808,50
10809,53
10810,53
10811,51
10812,43
10813,43
10814,49
10815,55
10816,61
10817,68
10818,68
10819,67
10820,64
10821,59
10822,56
10823,56
10824,57
10825,61
10826,65
10827,67
10828,70
10829,70
10830,67
10831,65
10832,65
10833,65
10834,66
10835,64
10836,62
10837,65
10838,68
10839,73
10840,81
10841,89
10842,94
10843,99
10844,100
10845,99
10846,96
10847,95
10848,98
10849,104
10850,108
10851,113
10852,119
10853,124
10854,128
10855,131
10856,136
10857,142
10858,144
10859,147
10860,149
10861,146
10862,143
10863,139
10864,139
10865,143
10866,150
10867,157
10868,165
10869,172
10870,174
10871,173
10872,171
10873,167
10874,163
10875,161
10876,160
10877,159
10878,155
10879,152
10880,150
10881,147
10882,144
10883,142
10884,142
10885,140
10886,139
10887,138
10888,133
10889,127
10890,122
10891,115
10892,106
10893,96
10894,89
10895,82
10896,75
10897,68
10898,62
10899,56
10900,48
10901,46
10902,45
10903,44
10904,46
10905,48
10906,49
10907,40
10908,32
10909,23
10910,14
10911,7
10912,3
10913,0
10914,-4
10915,-6
10916,-8
10917,-12
10918,-12
10919,-11
10920,-9
10921,-6
10922,-4
10923,-4
10924,-4
10925,-7
10926,-9
10927,-10
10928,-11
10929,-13
10930,-14
10931,-13
10932,-11
10933,-6
10934,-2
10935,1
10936,4
10937,5
10938,7
10939,8
10940,8
10941,9
10942,10
10943,10
10944,9
10945,7
10946,3
10947,0
10948,-1
10949,0
10950,2
10951,9
10952,15
10953,17
10954,18
10955,15
10956,9
10957,4
10958,2
10959,1
10960,4
10961,8
10962,16
10963,25
10964,30
10965,31
10966,31
10967,27
10968,22
10969,16
10970,13
10971,10
10972,5
10973,6
10974,6
10975,3
10976,3
10977,3
10978,2
10979,3
10980,6
10981,12
10982,19
10983,21
10984,22
10985,23
10986,22
10987,19
10988,18
10989,20
10990,23
10991,27
10992,29
10993,30
10994,28
10995,24
10996,19
10997,17
10998,17
10999,18
11000,21
11001,24
11002,27
11003,26
11004,20
11005,20
11006,22
11007,26
11008,30
11009,34
11010,35
11011,32
11012,28
11013,23
11014,18
11015,14
11016,14
11017,19
11018,23
11019,24
11020,26
11021,27
11022,26
11023,24
11024,23
11025,24
11026,22
11027,21
11028,19
11029,18
11030,15
11031,16
11032,20
11033,27
11034,32
11035,34
11036,29
11037,24
11038,21
11039,18
11040,15
11041,16
11042,20
11043,26
11044,31
11045,34
11046,35
11047,35
11048,36
11049,37
11050,36
11051,35
11052,32
11053,31
11054,29
11055,25
11056,22
11057,20
11058,18
11059,20
11060,25
11061,32
11062,35
11063,39
11064,42
11065,43
11066,44
11067,42
11068,39
11069,36
11070,34
11071,35
11072,36
11073,39
11074,44
11075,49
11076,54
11077,58
11078,61
11079,61
11080,63
11081,66
11082,66
11083,67
11084,68
11085,69
11086,67
11087,62
11088,59
11089,58
11090,56
11091,55
11092,54
11093,54
11094,56
11095,56
11096,56
11097,56
11098,53
11099,49
11100,46
11101,45
11102,44
11103,42
11104,41
11105,40
11106,37
11107,35
11108,35
11109,35
11110,36
11111,36
11112,35
11113,35
11114,33
11115,31
11116,31
11117,31
11118,32
11119,34
11120,37
11121,41
11122,44
11123,48
11124,52
11125,61
11126,75
11127,94
11128,116
11129,141
11130,164
11131,185
11132,211
11133,221
11134,233
11135,253
11136,289
11137,339
11138,397
11139,449
11140,482
11141,492
11142,473
11143,424
11144,353
11145,275
11146,197
11147,126
11148,73
11149,30
11150,-9
11151,-49
11152,-88
11153,-119
11154,-137
11155,-144
11156,-136
11157,-115
11158,-89
11159,-62
11160,-38
11161,-21
11162,-13
11163,-12
11164,-14
11165,-15
11166,-13
11167,-11
11168,-7
11169,-2
11170,3
11171,6
11172,9
11173,11
11174,15
11175,18
11176,22
11177,25
11178,25
11179,25
11180,25
11181,23
11182,19
11183,19
11184,19
11185,23
11186,25
11187,24
11188,25
11189,25
11190,23
11191,24
11192,24
11193,19
11194,16
11195,20
11196,25
11197,31
11198,37
11199,45
11200,52
11201,56
11202,57
11203,57
11204,55
11205,54
11206,54
11207,54
11208,51
11209,50
11210,50
11211,52
11212,55
11213,58
11214,60
11215,63
11216,66
11217,69
11218,69
11219,70
11220,72
11221,74
11222,73
11223,72
11224,71
11225,71
11226,69
11227,67
11228,67
11229,76
11230,81
11231,87
11232,94
11233,97
11234,93
11235,88
11236,82
11237,77
11238,74
11239,72
11240,74
11241,80
11242,85
11243,89
11244,93
11245,95
11246,95
11247,93
11248,92
11249,95
11250,99
11251,105
11252,113
11253,124
11254,131
11255,135
11256,136
11257,135
11258,132
11259,131
11260,136
11261,151
11262,158
11263,164
11264,166
11265,164
11266,161
11267,157
11268,153
11269,151
11270,150
11271,151
11272,152
11273,152
11274,156
11275,160
11276,162
11277,162
11278,162
11279,160
11280,156
11281,150
11282,145
11283,138
11284,132
11285,127
11286,123
11287,118
11288,110
11289,103
11290,95
11291,88
11292,74
11293,70
11294,62
11295,56
11296,53
11297,46
11298,41
11299,36
11300,31
11301,26
11302,21
11303,16
11304,17
11305,19
11306,19
11307,20
11308,19
11309,15
11310,11
11311,5
11312,-2
11313,-4
11314,-4
11315,-2
11316,0
11317,2
11318,0
11319,-1
11320,-3
11321,-3
11322,-1
11323,-3
11324,-7
11325,-8
11326,-9
11327,-7
11328,-4
11329,-1
11330,-1
11331,-3
11332,-7
11333,-11
11334,-15
11335,-16
11336,-15
11337,-10
11338,-4
11339,0
11340,0
11341,0
11342,1
11343,6
11344,9
11345,13
11346,18
11347,21
11348,20
11349,18
11350,13
11351,7
11352,1
11353,0
11354,0
11355,9
11356,17
11357,21
11358,23
11359,23
11360,20
11361,14
11362,9
11363,6
11364,8
11365,14
11366,21
11367,21
11368,28
11369,32
11370,32
11371,29
11372,24
11373,18
11374,14
11375,17
11376,21
11377,28
11378,36
11379,42
11380,45
11381,42
11382,34
11383,24
11384,16
11385,10
11386,9
11387,22
11388,30
11389,38
11390,42
11391,42
11392,37
11393,30
11394,30
11395,32
11396,34
11397,37
11398,38
11399,34
11400,28
11401,27
11402,29
11403,33
11404,37
11405,44
11406,53
11407,56
11408,52
11409,49
11410,43
11411,34
11412,29
11413,26
11414,25
11415,23
11416,23
11417,25
11418,30
11419,39
11420,44
11421,46
11422,45
11423,44
11424,42
11425,40
11426,40
11427,40
11428,37
11429,37
11430,37
11431,40
11432,41
11433,42
11434,45
11435,47
11436,47
11437,49
11438,49
11439,47
11440,46
11441,46
11442,53
11443,60
11444,67
11445,71
11446,72
11447,68
11448,60
11449,51
11450,40
11451,28
11452,31
11453,40
11454,49
11455,56
11456,59
11457,64
11458,65
11459,64
11460,63
11461,63
11462,63
11463,66
11464,68
11465,67
11466,66
11467,64
11468,62
11469,63
11470,61
11471,60
11472,65
11473,71
11474,76
11475,81
11476,81
11477,78
11478,73
11479,68
11480,67
11481,67
11482,66
11483,81
11484,86
11485,89
11486,89
11487,85
11488,81
11489,77
11490,75
11491,75
11492,75
11493,74
11494,72
11495,72
11496,70
11497,67
11498,62
11499,61
11500,64
11501,64
11502,63
11503,62
11504,59
11505,55
11506,52
11507,50
11508,50
11509,50
11510,49
11511,52
11512,58
11513,67
11514,71
11515,76
11516,72
11517,67
11518,62
11519,57
11520,54
11521,54
11522,57
11523,67
11524,82
11525,101
11526,124
11527,149
11528,171
11529,189
11530,204
11531,215
11532,227
11533,243
11534,266
11535,304
11536,357
11537,414
11538,466
11539,500
11540,509
11541,487
11542,433
11543,360
11544,282
11545,206
11546,136
11547,41
11548,1
11549,-35
11550,-71
11551,-102
11552,-123
11553,-134
11554,-130
11555,-112
11556,-88
11557,-65
11558,-41
11559,-20
11560,-8
11561,-2
11562,0
11563,-2
11564,-4
11565,-3
11566,-2
11567,1
11568,6
11569,9
11570,11
11571,13
11572,12
11573,12
11574,13
11575,13
11576,17
11577,20
11578,23
11579,26
11580,26
11581,27
11582,27
11583,29
11584,31
11585,31
11586,34
11587,40
11588,43
11589,45
11590,46
11591,45
11592,42
11593,39
11594,36
11595,32
11596,30
11597,30
11598,32
11599,35
11600,37
11601,39
11602,42
11603,45
11604,47
11605,50
11606,51
11607,51
11608,54
11609,57
11610,58
11611,58
11612,58
11613,59
11614,61
11615,65
11616,70
11617,72
11618,74
11619,77
11620,76
11621,73
11622,72
11623,72
11624,71
11625,71
11626,73
11627,78
11628,81
11629,85
11630,89
11631,93
11632,96
11633,96
11634,98
11635,101
11636,101
11637,101
11638,103
11639,102
11640,103
11641,105
11642,112
11643,117
11644,122
11645,129
11646,134
11647,136
11648,137
11649,138
11650,139
11651,139
11652,141
11653,142
11654,143
11655,143
11656,138
11657,136
11658,136
11659,132
11660,130
11661,131
11662,134
11663,139
11664,144
11665,150
11666,156
11667,163
11668,168
11669,175
11670,180
11671,182
11672,182
11673,183
11674,182
11675,176
11676,172
11677,167
11678,161
11679,156
11680,152
11681,147
11682,142
11683,138
11684,132
11685,125
11686,119
11687,115
11688,111
11689,108
11690,104
11691,99
11692,94
11693,87
11694,78
11695,72
11696,65
11697,58
11698,55
11699,56
11700,57
11701,60
11702,57
11703,50
11704,45
11705,38
11706,32
11707,22
11708,15
11709,10
11710,4
11711,-4
11712,-12
11713,-21
11714,-26
11715,-23
11716,-18
11717,-14
11718,-14
11719,-14
11720,-14
11721,-15
11722,-13
11723,-11
11724,-10
11725,-8
11726,-4
11727,-1
11728,0
11729,-1
11730,-1
11731,-1
11732,0
11733,0
11734,0
11735,2
11736,4
11737,3
11738,4
11739,5
11740,8
11741,12
11742,16
11743,21
11744,27
11745,30
11746,28
11747,25
11748,18
11749,11
11750,8
11751,7
11752,6
11753,5
11754,4
11755,2
11756,2
11757,2
11758,1
11759,2
11760,3
11761,5
11762,9
11763,13
11764,14
11765,18
11766,20
11767,22
11768,21
11769,20
11770,18
11771,14
11772,16
11773,19
11774,22
11775,23
11776,25
11777,24
11778,26
11779,27
11780,28
11781,29
11782,29
11783,30
11784,30
11785,31
11786,32
11787,34
11788,34
11789,32
11790,30
11791,26
11792,20
11793,16
11794,16
11795,16
11796,19
11797,19
11798,23
11799,31
11800,36
11801,38
11802,37
11803,31
11804,16
11805,9
11806,6
11807,6
11808,5
11809,8
11810,13
11811,14
11812,12
11813,10
11814,8
11815,9
11816,11
11817,13
11818,15
11819,20
11820,23
11821,24
11822,26
11823,28
11824,28
11825,28
11826,29
11827,30
11828,30
11829,29
11830,28
11831,26
11832,24
11833,21
11834,22
11835,26
11836,30
11837,33
11838,33
11839,31
11840,30
11841,27
11842,26
11843,29
11844,34
11845,40
11846,45
11847,44
11848,40
11849,36
11850,31
11851,26
11852,23
11853,20
11854,21
11855,23
11856,25
11857,28
11858,30
11859,34
11860,39
11861,43
11862,46
11863,44
11864,43
11865,47
11866,58
11867,69
11868,77
11869,79
11870,61
11871,45
11872,29
11873,18
11874,15
11875,20
11876,31
11877,44
11878,50
11879,50
11880,51
11881,51
11882,50
11883,50
11884,52
11885,53
11886,54
11887,55
11888,53
11889,53
11890,52
11891,51
11892,51
11893,50
11894,51
11895,54
11896,61
11897,69
11898,76
11899,78
11900,77
11901,58
11902,45
11903,31
11904,21
11905,22
11906,28
11907,34
11908,40
11909,42
11910,40
11911,39
11912,38
11913,37
11914,38
11915,39
11916,41
11917,43
11918,43
11919,39
11920,39
11921,46
11922,59
11923,82
11924,108
11925,137
11926,163
11927,183
11928,198
11929,210
11930,221
11931,235
11932,251
11933,320
11934,369
11935,418
11936,418
11937,455
11938,469
11939,461
11940,430
11941,376
11942,311
11943,244
11944,179
11945,124
11946,77
11947,30
11948,-17
11949,-66
11950,-107
11951,-128
11952,-134
11953,-128
11954,-107
11955,-82
11956,-61
11957,-44
11958,-35
11959,-31
11960,-29
11961,-27
11962,-21
11963,-10
11964,-5
11965,-1
11966,4
11967,6
11968,5
11969,4
11970,4
11971,6
11972,11
11973,18
11974,25
11975,30
11976,33
11977,32
11978,28
11979,22
11980,18
11981,17
11982,18
11983,22
11984,25
11985,25
11986,23
11987,21
11988,17
11989,16
11990,18
11991,24
11992,31
11993,38
11994,44
11995,46
11996,44
11997,43
11998,43
11999,47
12000,50
12001,54
12002,55
12003,53
12004,52
12005,48
12006,47
12007,47
12008,50
12009,51
12010,54
12011,57
12012,57
12013,57
12014,57
12015,56
12016,57
12017,60
12018,62
12019,67
12020,71
12021,71
12022,72
12023,72
12024,67
12025,63
12026,61
12027,61
12028,66
12029,71
12030,75
12031,79
12032,78
12033,74
12034,72
12035,76
12036,81
12037,92
12038,106
12039,118
12040,124
12041,123
12042,116
12043,107
12044,98
12045,92
12046,92
12047,96
12048,101
12049,109
12050,117
12051,121
12052,122
12053,122
12054,122
12055,123
12056,127
12057,132
12058,132
12059,131
12060,134
12061,145
12062,162
12063,178
12064,201
12065,203
12066,195
12067,184
12068,172
12069,159
12070,149
12071,147
12072,147
12073,145
12074,138
12075,129
12076,123
12077,121
12078,121
12079,122
12080,124
12081,126
12082,126
12083,121
12084,117
12085,112
12086,106
12087,100
12088,92
12089,82
12090,72
12091,64
12092,56
12093,48
12094,44
12095,43
12096,38
12097,25
12098,28
12099,38
12100,50
12101,58
12102,61
12103,51
12104,31
12105,11
12106,-5
12107,-16
12108,-22
12109,-17
12110,-13
12111,-17
12112,-30
12113,-46
12114,-68
12115,-96
12116,-117
12117,-122
12118,-115
12119,-98
12120,-72
12121,-38
12122,-10
12123,11
12124,30
12125,46
12126,49
12127,48
12128,50
12129,58
12130,63
12131,62
12132,56
12133,41
12134,27
12135,24
12136,23
12137,17
12138,20
12139,38
12140,66
12141,85
12142,82
12143,64
12144,41
12145,14
12146,8
12147,33
12148,71
12149,105
12150,140
12151,167
12152,167
12153,143
12154,122
12155,109
12156,85
12157,56
12158,32
12159,-2
12160,-28
12161,-22
12162,128
12163,226
12164,293
12165,325
12166,290
12167,189
12168,74
12169,-25
12170,-105
12171,-135
12172,-115
12173,-72
12174,-22
12175,13
12176,40
12177,65
12178,77
12179,73
12180,62
12181,43
12182,21
12183,0
12184,-13
12185,-34
12186,-65
12187,-62
12188,6
12189,127
12190,236
12191,324
12192,438
12193,559
12194,678
12195,630
12196,491
12197,288
12198,79
12199,-91
12200,-182
12201,-189
12202,-126
12203,11
12204,168
12205,265
12206,281
12207,231
12208,143
12209,58
12210,1
12211,-32
12212,-41
12213,-31
12214,-40
12215,-58
12216,-47
12217,-13
12218,23
12219,49
12220,49
12221,45
12222,24
12223,2
12224,-20
12225,-45
12226,-64
12227,-64
12228,-30
12229,15
12230,50
12231,64
12232,63
12233,60
12234,61
12235,59
12236,56
12237,55
12238,49
12239,35
12240,16
12241,-9
12242,-36
12243,-61
12244,-76
12245,-63
12246,-27
12247,12
12248,59
12249,108
12250,135
12251,130
12252,111
12253,84
12254,55
12255,24
12256,3
12257,18
12258,59
12259,106
12260,194
12261,211
12262,206
12263,187
12264,159
12265,132
12266,110
12267,97
12268,96
12269,99
12270,95
12271,89
12272,86
12273,86
12274,84
12275,81
12276,77
12277,70
12278,62
12279,46
12280,30
12281,22
12282,26
12283,33
12284,29
12285,12
12286,-6
12287,-19
12288,-14
12289,8
12290,55
12291,120
12292,247
12293,295
12294,321
12295,326
12296,325
12297,341
12298,368
12299,391
12300,406
12301,424
12302,449
12303,463
12304,451
12305,406
12306,326
12307,224
12308,117
12309,30
12310,-30
12311,-74
12312,-87
12313,-75
12314,-57
12315,-46
12316,-40
12317,-40
12318,-40
12319,-27
12320,-5
12321,13
12322,23
12323,28
12324,33
12325,49
12326,93
12327,177
12328,275
12329,361
12330,398
12331,371
12332,279
12333,155
12334,30
12335,-84
12336,-170
12337,-214
12338,-218
12339,-202
12340,-182
12341,-163
12342,-147
12343,-116
12344,-59
12345,9
12346,76
12347,131
12348,160
12349,171
12350,169
12351,145
12352,113
12353,87
12354,69
12355,60
12356,68
12357,101
12358,119
12359,120
12360,113
12361,120
12362,133
12363,133
12364,149
12365,163
12366,158
12367,128
12368,85
12369,41
12370,11
12371,9
12372,38
12373,91
12374,156
12375,210
12376,237
12377,233
12378,210
12379,174
12380,130
12381,91
12382,68
12383,61
12384,72
12385,98
12386,131
12387,151
12388,154
12389,144
12390,105
12391,91
12392,89
12393,101
12394,121
12395,143
12396,155
12397,156
12398,149
12399,142
12400,141
12401,149
12402,167
12403,185
12404,195
12405,198
12406,190
12407,179
12408,167
12409,158
12410,166
12411,180
12412,197
12413,214
12414,223
12415,232
12416,241
12417,242
12418,246
12419,254
12420,258
12421,260
12422,258
12423,255
12424,249
12425,243
12426,248
12427,255
12428,258
12429,261
12430,264
12431,264
12432,264
12433,261
12434,255
12435,253
12436,253
12437,252
12438,250
12439,237
12440,214
12441,192
12442,173
12443,155
12444,148
12445,154
12446,172
12447,197
12448,223
12449,245
12450,260
12451,266
12452,265
12453,264
12454,244
12455,230
12456,219
12457,211
12458,203
12459,195
12460,189
12461,183
12462,178
12463,174
12464,166
12465,159
12466,154
12467,151
12468,148
12469,145
12470,143
12471,139
12472,129
12473,114
12474,102
12475,97
12476,95
12477,96
12478,99
12479,99
12480,101
12481,111
12482,126
12483,143
12484,159
12485,175
12486,198
12487,197
12488,190
12489,186
12490,188
12491,197
12492,211
12493,219
12494,218
12495,213
12496,208
12497,200
12498,182
12499,148
12500,96
12501,36
12502,-14
12503,-34
12504,-15
12505,-15
12506,38
12507,114
12508,200
12509,265
12510,291
12511,277
12512,234
12513,191
12514,167
12515,165
12516,191
12517,230
12518,255
12519,271
12520,273
12521,244
12522,218
12523,196
12524,180
12525,179
12526,188
12527,209
12528,236
12529,255
12530,267
12531,271
12532,256
12533,228
12534,206
12535,191
12536,180
12537,179
12538,183
12539,187
12540,190
12541,187
12542,181
12543,175
12544,167
12545,160
12546,155
12547,150
12548,148
12549,143
12550,141
12551,144
12552,131
12553,116
12554,103
12555,94
12556,79
12557,66
12558,68
12559,78
12560,73
12561,69
12562,79
12563,80
12564,75
12565,83
12566,100
12567,140
12568,187
12569,208
12570,209
12571,183
12572,119
12573,50
12574,6
12575,-19
12576,-13
12577,35
12578,106
12579,192
12580,263
12581,285
12582,280
12583,266
12584,210
12585,188
12586,177
12587,176
12588,177
12589,171
12590,154
12591,124
12592,93
12593,71
12594,62
12595,67
12596,85
12597,106
12598,123
12599,129
12600,111
12601,74
12602,45
12603,36
12604,45
12605,66
12606,95
12607,123
12608,138
12609,137
12610,129
12611,122
12612,117
12613,116
12614,123
12615,132
12616,116
12617,89
12618,49
12619,8
12620,-24
12621,-23
12622,14
12623,64
12624,111
12625,152
12626,181
12627,186
12628,167
12629,134
12630,105
12631,81
12632,52
12633,22
12634,-15
12635,-51
12636,-56
12637,-24
12638,40
12639,122
12640,203
12641,283
12642,344
12643,363
12644,354
12645,337
12646,315
12647,315
12648,315
12649,326
12650,331
12651,350
12652,386
12653,433
12654,474
12655,494
12656,496
12657,477
12658,427
12659,358
12660,285
12661,209
12662,147
12663,98
12664,59
12665,31
12666,7
12667,-20
12668,-48
12669,-71
12670,-83
12671,-79
12672,-63
12673,-41
12674,-12
12675,14
12676,36
12677,60
12678,77
12679,77
12680,72
12681,83
12682,89
12683,95
12684,91
12685,79
12686,67
12687,56
12688,43
12689,34
12690,25
12691,19
12692,23
12693,30
12694,42
12695,60
12696,89
12697,121
12698,151
12699,182
12700,206
12701,216
12702,202
12703,180
12704,179
12705,196
12706,207
12707,206
12708,191
12709,157
12710,107
12711,52
12712,-16
12713,-21
12714,-2
12715,45
12716,92
12717,114
12718,118
12719,113
12720,107
12721,102
12722,94
12723,86
12724,71
12725,48
12726,21
12727,0
12728,-13
12729,-27
12730,-37
12731,-46
12732,-41
12733,-16
12734,20
12735,66
12736,123
12737,172
12738,212
12739,242
12740,244
12741,225
12742,202
12743,163
12744,147
12745,130
12746,122
12747,119
12748,106
12749,82
12750,59
12751,38
12752,24
12753,24
12754,40
12755,72
12756,107
12757,147
12758,183
12759,192
12760,180
12761,157
12762,141
12763,143
12764,150
12765,160
12766,173
12767,182
12768,184
12769,185
12770,181
12771,171
12772,163
12773,159
12774,155
12775,152
12776,151
12777,152
12778,151
12779,152
12780,154
12781,150
12782,145
12783,141
12784,138
12785,137
12786,137
12787,137
12788,136
12789,136
12790,135
12791,133
12792,130
12793,127
12794,122
12795,120
12796,116
12797,112
12798,108
12799,101
12800,97
12801,91
12802,85
12803,81
12804,76
12805,68
12806,51
12807,42
12808,37
12809,35
12810,35
12811,35
12812,32
12813,23
12814,8
12815,-11
12816,-27
12817,-35
12818,-41
12819,-50
12820,-39
12821,-5
12822,26
12823,34
12824,26
12825,12
12826,-7
12827,-26
12828,-30
12829,-15
12830,13
12831,45
12832,81
12833,106
12834,94
12835,49
12836,2
12837,-36
12838,-98
12839,-113
12840,-111
12841,-102
12842,-92
12843,-79
12844,-57
12845,-31
12846,-4
12847,7
12848,3
12849,-6
12850,-28
12851,-36
12852,-7
12853,17
12854,16
12855,2
12856,-19
12857,-39
12858,-53
12859,-53
12860,-26
12861,8
12862,21
12863,39
12864,60
12865,52
12866,30
12867,31
12868,60
12869,100
12870,129
12871,118
12872,88
12873,56
12874,37
12875,14
12876,-20
12877,-44
12878,-52
12879,-42
12880,-17
12881,12
12882,44
12883,70
12884,76
12885,68
12886,62
12887,56
12888,53
12889,55
12890,54
12891,37
12892,3
12893,-38
12894,-67
12895,-76
12896,-72
12897,-51
12898,-17
12899,9
12900,19
12901,9
12902,4
12903,-1
12904,-1
12905,7
12906,16
12907,19
12908,18
12909,14
12910,6
12911,-5
12912,-13
12913,-15
12914,-16
12915,-17
12916,-14
12917,0
12918,16
12919,15
12920,3
12921,-12
12922,-36
12923,-63
12924,-75
12925,-55
12926,-25
12927,-5
12928,12
12929,26
12930,32
12931,39
12932,39
12933,39
12934,74
12935,69
12936,52
12937,35
12938,10
12939,-16
12940,-22
12941,-7
12942,18
12943,48
12944,60
12945,51
12946,32
12947,13
12948,-4
12949,-20
12950,-28
12951,-36
12952,-47
12953,-51
12954,-46
12955,-38
12956,-23
12957,-13
12958,-15
12959,-22
12960,-44
12961,-76
12962,-102
12963,-123
12964,-132
12965,-52
12966,9
12967,58
12968,88
12969,95
12970,84
12971,62
12972,46
12973,42
12974,46
12975,67
12976,104
12977,125
12978,115
12979,94
12980,78
12981,75
12982,94
12983,143
12984,211
12985,278
12986,316
12987,319
12988,297
12989,241
12990,165
12991,108
12992,70
12993,39
12994,25
12995,15
12996,3
12997,-18
12998,-86
12999,-106
13000,-120
13001,-133
13002,-134
13003,-124
13004,-107
13005,-89
13006,-75
13007,-70
13008,-77
13009,-92
13010,-111
13011,-124
13012,-122
13013,-106
13014,-84
13015,-63
13016,-49
13017,-46
13018,-50
13019,-56
13020,-57
13021,-50
13022,-38
13023,-15
13024,22
13025,56
13026,69
13027,59
13028,38
13029,8
13030,-59
13031,-77
13032,-88
13033,-103
13034,-117
13035,-119
13036,-113
13037,-107
13038,-91
13039,-58
13040,-21
13041,4
13042,20
13043,23
13044,12
13045,-7
13046,-21
13047,-21
13048,-16
13049,-16
13050,-17
13051,-18
13052,-17
13053,-14
13054,-7
13055,-1
13056,-1
13057,-11
13058,-29
13059,-55
13060,-90
13061,-122
13062,-126
13063,-103
13064,-69
13065,-35
13066,-8
13067,7
13068,8
13069,0
13070,-9
13071,-13
13072,-8
13073,6
13074,6
13075,21
13076,32
13077,36
13078,33
13079,33
13080,37
13081,32
13082,24
13083,24
13084,17
13085,1
13086,-6
13087,-7
13088,0
13089,12
13090,25
13091,36
13092,41
13093,35
13094,30
13095,30
13096,33
13097,50
13098,64
13099,70
13100,74
13101,76
13102,74
13103,65
13104,59
13105,58
13106,47
13107,36
13108,36
13109,43
13110,53
13111,65
13112,76
13113,85
13114,87
13115,79
13116,74
13117,74
13118,68
13119,58
13120,38
13121,-4
13122,-48
13123,-86
13124,-113
13125,-111
13126,-80
13127,33
13128,102
13129,144
13130,154
13131,151
13132,143
13133,139
13134,126
13135,103
13136,79
13137,50
13138,15
13139,-15
13140,-39
13141,-60
13142,-77
13143,-78
13144,-71
13145,-71
13146,-79
13147,-87
13148,-94
13149,-102
13150,-100
13151,-96
13152,-90
13153,-85
13154,-83
13155,-78
13156,-69
13157,-61
13158,-66
13159,-89
13160,-120
13161,-167
13162,-173
13163,-162
13164,-137
13165,-98
13166,-55
13167,-19
13168,-4
13169,-11
13170,-20
13171,-14
13172,-6
13173,-18
13174,-41
13175,-69
13176,-107
13177,-133
13178,-141
13179,-142
13180,-129
13181,-98
13182,-60
13183,-28
13184,-14
13185,-30
13186,-51
13187,-60
13188,-70
13189,-76
13190,-81
13191,-92
13192,-78
13193,-35
13194,-19
13195,-6
13196,-8
13197,-8
13198,-7
13199,-15
13200,-27
13201,-42
13202,-55
13203,-53
13204,-50
13205,-53
13206,-51
13207,-54
13208,-64
13209,-65
13210,-70
13211,-74
13212,-73
13213,-71
13214,-55
13215,-29
13216,-29
13217,-8
13218,8
13219,12
13220,1
13221,-10
13222,-13
13223,-11
13224,-4
13225,0
13226,4
13227,-3
13228,-24
13229,-45
13230,-55
13231,-52
13232,-40
13233,-23
13234,-9
13235,-5
13236,-11
13237,-17
13238,-24
13239,-24
13240,-14
13241,-9
13242,-6
13243,-6
13244,-13
13245,-14
13246,-12
13247,-12
13248,-11
13249,-11
13250,-18
13251,-22
13252,-29
13253,-39
13254,-47
13255,-54
13256,-56
13257,-57
13258,-60
13259,-38
13260,-11
13261,5
13262,15
13263,19
13264,16
13265,6
13266,2
13267,8
13268,18
13269,25
13270,25
13271,15
13272,-4
13273,-28
13274,-37
13275,-21
13276,1
13277,12
13278,14
13279,5
13280,-6
13281,-12
13282,-17
13283,-11
13284,6
13285,19
13286,33
13287,47
13288,52
13289,60
13290,75
13291,109
13292,97
13293,50
13294,-7
13295,-60
13296,-97
13297,-106
13298,-90
13299,-69
13300,-45
13301,-26
13302,-22
13303,-31
13304,-52
13305,-61
13306,-42
13307,-4
13308,36
13309,64
13310,79
13311,83
13312,75
13313,70
13314,72
13315,85
13316,112
13317,150
13318,193
13319,240
13320,287
13321,327
13322,359
13323,380
13324,356
13325,314
13326,258
13327,194
13328,134
13329,79
13330,38
13331,17
13332,0
13333,-20
13334,-59
13335,-119
13336,-183
13337,-243
13338,-292
13339,-302
13340,-273
13341,-220
13342,-143
13343,-58
13344,17
13345,77
13346,101
13347,88
13348,65
13349,34
13350,-2
13351,-24
13352,-36
13353,-41
13354,-22
13355,-12
13356,-14
13357,-38
13358,-38
13359,-65
13360,-78
13361,-82
13362,-79
13363,-67
13364,-43
13365,-10
13366,24
13367,61
13368,87
13369,93
13370,83
13371,62
13372,30
13373,-14
13374,-59
13375,-86
13376,-87
13377,-69
13378,-42
13379,-3
13380,29
13381,48
13382,60
13383,51
13384,37
13385,29
13386,24
13387,48
13388,68
13389,79
13390,78
13391,59
13392,36
13393,27
13394,22
13395,17
13396,19
13397,31
13398,34
13399,28
13400,25
13401,17
13402,1
13403,-4
13404,-1
13405,3
13406,6
13407,6
13408,8
13409,19
13410,19
13411,13
13412,17
13413,23
13414,34
13415,48
13416,54
13417,53
13418,56
13419,69
13420,76
13421,83
13422,91
13423,98
13424,100
13425,97
13426,79
13427,52
13428,43
13429,56
13430,81
13431,112
13432,139
13433,155
13434,155
13435,138
13436,113
13437,88
13438,65
13439,52
13440,58
13441,71
13442,80
13443,87
13444,95
13445,110
13446,132
13447,158
13448,177
13449,188
13450,187
13451,168
13452,160
13453,159
13454,161
13455,158
13456,150
13457,137
13458,119
13459,99
13460,87
13461,86
13462,93
13463,104
13464,111
13465,115
13466,111
13467,97
13468,94
13469,109
13470,123
13471,129
13472,127
13473,115
13474,92
13475,56
13476,14
13477,-14
13478,-31
13479,-37
13480,-26
13481,-9
13482,-7
13483,-10
13484,-9
13485,-15
13486,-33
13487,-45
13488,-45
13489,-46
13490,-43
13491,-33
13492,-26
13493,-16
13494,-4
13495,-2
13496,-7
13497,-20
13498,-35
13499,-34
13500,-34
13501,-20
13502,-5
13503,13
13504,28
13505,33
13506,36
13507,29
13508,14
13509,5
13510,-1
13511,-7
13512,-7
13513,0
13514,7
13515,7
13516,12
13517,30
13518,45
13519,48
13520,45
13521,37
13522,20
13523,-2
13524,-14
13525,-16
13526,-13
13527,0
13528,20
13529,38
13530,47
13531,36
13532,16
13533,1
13534,-14
13535,-23
13536,-19
13537,-5
13538,6
13539,7
13540,-2
13541,-14
13542,-21
13543,-28
13544,-21
13545,4
13546,32
13547,56
13548,68
13549,27
13550,-3
13551,-30
13552,-38
13553,-29
13554,-10
13555,16
13556,44
13557,57
13558,64
13559,66
13560,59
13561,58
13562,61
13563,57
13564,44
13565,29
13566,16
13567,4
13568,-3
13569,-8
13570,-7
13571,9
13572,38
13573,65
13574,83
13575,81
13576,65
13577,41
13578,18
13579,3
13580,-6
13581,-34
13582,-38
13583,-36
13584,-39
13585,-37
13586,-26
13587,0
13588,36
13589,69
13590,95
13591,104
13592,97
13593,89
13594,86
13595,77
13596,69
13597,62
13598,48
13599,33
13600,27
13601,26
13602,29
13603,33
13604,35
13605,38
13606,38
13607,33
13608,33
13609,41
13610,48
13611,51
13612,61
13613,70
13614,67
13615,58
13616,49
13617,46
13618,44
13619,45
13620,52
13621,60
13622,64
13623,70
13624,74
13625,70
13626,63
13627,64
13628,63
13629,54
13630,44
13631,39
13632,35
13633,30
13634,24
13635,29
13636,41
13637,42
13638,45
13639,68
13640,86
13641,88
13642,99
13643,99
13644,116
13645,114
13646,97
13647,73
13648,39
13649,22
13650,18
13651,34
13652,48
13653,52
13654,52
13655,48
13656,39
13657,34
13658,39
13659,57
13660,82
13661,115
13662,150
13663,180
13664,200
13665,211
13666,214
13667,218
13668,230
13669,248
13670,279
13671,327
13672,383
13673,434
13674,469
13675,485
13676,476
13677,439
13678,382
13679,310
13680,131
13681,50
13682,-18
13683,-78
13684,-121
13685,-146
13686,-152
13687,-140
13688,-113
13689,-76
13690,-51
13691,-51
13692,-63
13693,-81
13694,-109
13695,-121
13696,-106
13697,-73
13698,-29
13699,12
13700,33
13701,36
13702,18
13703,-10
13704,-27
13705,-26
13706,-12
13707,15
13708,39
13709,44
13710,37
13711,24
13712,9
13713,14
13714,28
13715,42
13716,57
13717,68
13718,71
13719,67
13720,57
13721,46
13722,40
13723,38
13724,40
13725,45
13726,52
13727,68
13728,81
13729,85
13730,82
13731,59
13732,22
13733,-7
13734,-27
13735,-33
13736,-25
13737,-5
13738,19
13739,48
13740,67
13741,75
13742,82
13743,89
13744,102
13745,129
13746,126
13747,109
13748,83
13749,54
13750,29
13751,11
13752,0
13753,1
13754,9
13755,21
13756,30
13757,40
13758,56
13759,69
13760,81
13761,94
13762,104
13763,117
13764,131
13765,138
13766,138
13767,134
13768,123
13769,110
13770,98
13771,90
13772,93
13773,101
13774,111
13775,122
13776,126
13777,126
13778,124
13779,126
13780,133
13781,137
13782,142
13783,148
13784,147
13785,147
13786,147
13787,150
13788,148
13789,140
13790,132
13791,120
13792,110
13793,110
13794,114
13795,124
13796,141
13797,156
13798,169
13799,180
13800,181
13801,173
13802,170
13803,170
13804,168
13805,170
13806,169
13807,167
13808,164
13809,161
13810,157
13811,148
13812,135
13813,145
13814,148
13815,145
13816,138
13817,126
13818,112
13819,97
13820,85
13821,78
13822,67
13823,58
13824,65
13825,71
13826,64
13827,58
13828,54
13829,46
13830,39
13831,29
13832,23
13833,26
13834,21
13835,15
13836,18
13837,16
13838,9
13839,9
13840,5
13841,-9
13842,-23
13843,-35
13844,-33
13845,-32
13846,-28
13847,-7
13848,17
13849,33
13850,43
13851,43
13852,36
13853,30
13854,29
13855,28
13856,23
13857,13
13858,4
13859,2
13860,4
13861,2
13862,-1
13863,-4
13864,-7
13865,-8
13866,-6
13867,-7
13868,-7
13869,6
13870,23
13871,25
13872,16
13873,5
13874,-10
13875,-30
13876,-51
13877,-43
13878,-28
13879,-9
13880,5
13881,8
13882,-1
13883,-8
13884,-6
13885,-2
13886,0
13887,-2
13888,-2
13889,5
13890,16
13891,33
13892,53
13893,63
13894,69
13895,69
13896,51
13897,25
13898,3
13899,-7
13900,-12
13901,-15
13902,-26
13903,-41
13904,-55
13905,-68
13906,-67
13907,-46
13908,6
13909,34
13910,48
13911,43
13912,26
13913,8
13914,-5
13915,-15
13916,-17
13917,-14
13918,-10
13919,0
13920,9
13921,12
13922,15
13923,14
13924,10
13925,10
13926,7
13927,7
13928,4
13929,6
13930,7
13931,4
13932,5
13933,0
13934,-8
13935,-2
13936,-4
13937,-19
13938,-22
13939,-22
13940,-24
13941,-22
13942,-15
13943,-1
13944,8
13945,16
13946,23
13947,13
13948,-2
13949,-3
13950,-1
13951,1
13952,11
13953,23
13954,37
13955,43
13956,37
13957,25
13958,8
13959,-1
13960,2
13961,16
13962,26
13963,29
13964,28
13965,20
13966,0
13967,-16
13968,-26
13969,-28
13970,-35
13971,-38
13972,-32
13973,-31
13974,-27
13975,-6
13976,12
13977,27
13978,40
13979,43
13980,37
13981,21
13982,9
13983,10
13984,14
13985,19
13986,35
13987,50
13988,55
13989,52
13990,41
13991,29
13992,21
13993,15
13994,15
13995,18
13996,21
13997,23
13998,24
13999,25
14000,25
14001,23
14002,18
14003,19
14004,24
14005,31
14006,38
14007,48
14008,58
14009,73
14010,96
14011,126
14012,159
14013,192
14014,223
14015,255
14016,287
14017,320
14018,358
14019,392
14020,398
14021,384
14022,360
14023,321
14024,271
14025,205
14026,129
14027,59
14028,-1
14029,-57
14030,-102
14031,-140
14032,-174
14033,-187
14034,-177
14035,-156
14036,-134
14037,-91
14038,-63
14039,-36
14040,-16
14041,-4
14042,-1
14043,-7
14044,-11
14045,-9
14046,-8
14047,-12
14048,-18
14049,-35
14050,-53
14051,-63
14052,-68
14053,-71
14054,-65
14055,-51
14056,-29
14057,-8
14058,6
14059,13
14060,13
14061,3
14062,0
14063,-3
14064,-4
14065,-5
14066,-6
14067,-6
14068,-4
14069,-4
14070,-7
14071,-15
14072,-20
14073,-24
14074,-31
14075,-28
14076,-19
14077,-14
14078,-9
14079,-4
14080,3
14081,10
14082,16
14083,25
14084,34
14085,43
14086,59
14087,66
14088,54
14089,26
14090,-8
14091,-33
14092,-47
14093,-47
14094,-30
14095,-1
14096,25
14097,49
14098,70
14099,71
14100,61
14101,54
14102,46
14103,48
14104,50
14105,53
14106,60
14107,67
14108,71
14109,70
14110,56
14111,33
14112,10
14113,-8
14114,-20
14115,-20
14116,-12
14117,7
14118,33
14119,54
14120,64
14121,70
14122,69
14123,61
14124,66
14125,79
14126,93
14127,110
14128,116
14129,113
14130,114
14131,104
14132,87
14133,99
14134,109
14135,122
14136,131
14137,128
14138,123
14139,114
14140,113
14141,124
14142,133
14143,133
14144,133
14145,129
14146,121
14147,110
14148,107
14149,109
14150,106
14151,99
14152,90
14153,80
14154,71
14155,70
14156,80
14157,97
14158,117
14159,127
14160,131
14161,125
14162,106
14163,89
14164,75
14165,63
14166,59
14167,56
14168,56
14169,59
14170,66
14171,70
14172,57
14173,40
14174,18
14175,-12
14176,-42
14177,-69
14178,-98
14179,-107
14180,-93
14181,-68
14182,-34
14183,-1
14184,25
14185,51
14186,70
14187,68
14188,58
14189,42
14190,25
14191,21
14192,24
14193,27
14194,32
14195,43
14196,52
14197,48
14198,40
14199,33
14200,27
14201,14
14202,-2
14203,-17
14204,-28
14205,-35
14206,-36
14207,-36
14208,-41
14209,-44
14210,-38
14211,-29
14212,-29
14213,-26
14214,-30
14215,-44
14216,-61
14217,-72
14218,-75
14219,-65
14220,-43
14221,-21
14222,5
14223,38
14224,59
14225,61
