,ECG
0,41
1,29
2,13
3,-3
4,-8
5,-4
6,7
7,27
8,44
9,52
10,54
11,53
12,57
13,62
14,63
15,67
16,79
17,87
18,86
19,85
20,75
21,54
22,33
23,27
24,29
25,28
26,24
27,22
28,25
29,31
30,42
31,50
32,45
33,35
34,24
35,14
36,5
37,3
38,14
39,35
40,57
41,72
42,77
43,71
44,71
45,60
46,50
47,45
48,42
49,43
50,46
51,54
52,58
53,39
54,8
55,-14
56,-27
57,-31
58,-13
59,22
60,66
61,103
62,127
63,136
64,128
65,92
66,14
67,0
68,-9
69,0
70,23
71,55
72,90
73,116
74,131
75,135
76,121
77,92
78,71
79,65
80,61
81,66
82,78
83,93
84,103
85,100
86,86
87,67
88,48
89,34
90,36
91,49
92,64
93,78
94,88
95,92
96,88
97,77
98,66
99,58
100,60
101,66
102,70
103,64
104,55
105,50
106,46
107,44
108,49
109,59
110,73
111,84
112,81
113,60
114,29
115,8
116,-1
117,6
118,27
119,56
120,82
121,94
122,98
123,93
124,74
125,49
126,29
127,24
128,25
129,26
130,40
131,62
132,103
133,117
134,122
135,112
136,93
137,73
138,64
139,66
140,76
141,95
142,118
143,137
144,150
145,158
146,165
147,172
148,179
149,186
150,199
151,218
152,244
153,276
154,313
155,351
156,382
157,409
158,425
159,417
160,384
161,337
162,291
163,253
164,193
165,179
166,170
167,162
168,153
169,135
170,112
171,93
172,96
173,124
174,160
175,192
176,221
177,245
178,257
179,260
180,252
181,240
182,236
183,241
184,252
185,263
186,263
187,264
188,258
189,247
190,238
191,231
192,226
193,228
194,236
195,246
196,256
197,258
198,252
199,244
200,231
201,225
202,227
203,218
204,201
205,191
206,185
207,179
208,179
209,189
210,211
211,234
212,255
213,279
214,295
215,288
216,266
217,245
218,223
219,201
220,190
221,198
222,212
223,221
224,230
225,236
226,234
227,230
228,228
229,236
230,231
231,219
232,208
233,192
234,178
235,176
236,179
237,185
238,193
239,201
240,210
241,215
242,213
243,211
244,213
245,209
246,203
247,188
248,163
249,145
250,138
251,141
252,158
253,181
254,206
255,231
256,252
257,267
258,271
259,267
260,265
261,283
262,287
263,285
264,278
265,263
266,242
267,224
268,207
269,188
270,178
271,182
272,191
273,205
274,215
275,217
276,216
277,209
278,199
279,195
280,199
281,206
282,218
283,229
284,235
285,233
286,218
287,191
288,168
289,151
290,143
291,142
292,148
293,172
294,176
295,154
296,109
297,60
298,25
299,13
300,27
301,63
302,108
303,148
304,173
305,176
306,162
307,135
308,101
309,77
310,64
311,49
312,30
313,18
314,6
315,-1
316,0
317,3
318,5
319,8
320,8
321,9
322,16
323,26
324,39
325,61
326,59
327,56
328,56
329,48
330,34
331,22
332,17
333,13
334,10
335,12
336,17
337,18
338,11
339,2
340,-5
341,-7
342,-6
343,-8
344,-2
345,9
346,20
347,31
348,37
349,35
350,25
351,13
352,3
353,-6
354,-25
355,-46
356,-56
357,-44
358,-25
359,-1
360,20
361,40
362,55
363,66
364,66
365,56
366,49
367,44
368,37
369,27
370,18
371,13
372,7
373,1
374,-8
375,-13
376,-9
377,0
378,10
379,23
380,32
381,35
382,34
383,34
384,30
385,13
386,-5
387,-10
388,-3
389,2
390,7
391,15
392,22
393,27
394,28
395,21
396,10
397,2
398,0
399,-1
400,-8
401,-22
402,-34
403,-42
404,-44
405,-48
406,-56
407,-53
408,-38
409,-28
410,-27
411,-29
412,-30
413,-26
414,-14
415,3
416,27
417,46
418,52
419,58
420,43
421,16
422,-3
423,-5
424,3
425,12
426,20
427,23
428,17
429,4
430,-5
431,-9
432,-16
433,-26
434,-29
435,-22
436,-15
437,-10
438,-2
439,8
440,17
441,27
442,29
443,22
444,7
445,-7
446,-17
447,-22
448,-21
449,-10
450,3
451,4
452,-8
453,-22
454,-38
455,-45
456,-43
457,-33
458,-20
459,-4
460,10
461,19
462,22
463,22
464,19
465,12
466,4
467,-8
468,-19
469,-24
470,-24
471,-21
472,-10
473,0
474,1
475,-3
476,-13
477,-29
478,-38
479,-34
480,-18
481,6
482,36
483,62
484,56
485,35
486,15
487,5
488,5
489,11
490,24
491,40
492,47
493,52
494,57
495,55
496,54
497,59
498,64
499,64
500,63
501,58
502,50
503,42
504,31
505,24
506,26
507,27
508,23
509,18
510,12
511,2
512,-8
513,-17
514,-17
515,-4
516,25
517,34
518,35
519,28
520,20
521,13
522,13
523,15
524,17
525,21
526,19
527,14
528,12
529,14
530,19
531,28
532,41
533,54
534,69
535,85
536,103
537,120
538,139
539,164
540,195
541,224
542,246
543,265
544,283
545,291
546,287
547,270
548,211
549,178
550,143
551,105
552,66
553,29
554,-6
555,-36
556,-65
557,-90
558,-111
559,-124
560,-125
561,-115
562,-99
563,-76
564,-52
565,-32
566,-23
567,-25
568,-32
569,-37
570,-40
571,-36
572,-29
573,-20
574,-13
575,-4
576,2
577,5
578,0
579,-35
580,-41
581,-42
582,-40
583,-33
584,-19
585,-6
586,3
587,13
588,17
589,17
590,20
591,30
592,45
593,48
594,35
595,17
596,1
597,-16
598,-28
599,-23
600,-9
601,8
602,24
603,35
604,44
605,47
606,41
607,33
608,21
609,2
610,-10
611,-7
612,1
613,1
614,16
615,31
616,49
617,62
618,64
619,64
620,63
621,64
622,71
623,82
624,87
625,85
626,78
627,66
628,55
629,49
630,44
631,43
632,46
633,51
634,58
635,67
636,72
637,68
638,53
639,39
640,26
641,15
642,15
643,29
644,74
645,99
646,119
647,130
648,132
649,130
650,132
651,129
652,122
653,114
654,105
655,97
656,93
657,93
658,98
659,107
660,118
661,132
662,145
663,148
664,138
665,124
666,116
667,113
668,112
669,118
670,131
671,140
672,142
673,141
674,136
675,119
676,70
677,71
678,80
679,90
680,103
681,118
682,120
683,110
684,98
685,86
686,74
687,61
688,41
689,27
690,20
691,2
692,-18
693,-26
694,-22
695,-9
696,10
697,30
698,49
699,56
700,48
701,39
702,38
703,29
704,10
705,-3
706,-6
707,-7
708,-31
709,-36
710,-37
711,-35
712,-27
713,-12
714,0
715,9
716,15
717,17
718,11
719,-1
720,-13
721,-13
722,-14
723,-19
724,-19
725,-20
726,-20
727,-23
728,-29
729,-35
730,-36
731,-32
732,-25
733,-14
734,-6
735,2
736,11
737,13
738,8
739,1
740,-3
741,0
742,25
743,28
744,16
745,-5
746,-23
747,-37
748,-47
749,-39
750,-15
751,11
752,30
753,38
754,37
755,37
756,22
757,3
758,-4
759,2
760,12
761,28
762,47
763,63
764,70
765,70
766,67
767,58
768,41
769,28
770,25
771,22
772,22
773,31
774,45
775,50
776,37
777,27
778,12
779,1
780,0
781,6
782,10
783,12
784,16
785,18
786,12
787,2
788,-5
789,-6
790,-3
791,1
792,7
793,13
794,18
795,23
796,26
797,25
798,19
799,10
800,-3
801,-17
802,-30
803,-35
804,-32
805,-21
806,0
807,16
808,-1
809,-24
810,-49
811,-59
812,-46
813,-13
814,32
815,75
816,101
817,114
818,111
819,91
820,72
821,61
822,53
823,51
824,51
825,47
826,44
827,39
828,36
829,41
830,48
831,52
832,57
833,60
834,62
835,61
836,55
837,46
838,37
839,26
840,27
841,33
842,40
843,43
844,35
845,19
846,4
847,-9
848,-16
849,-13
850,-6
851,6
852,27
853,49
854,51
855,26
856,-8
857,-32
858,-40
859,-33
860,-9
861,34
862,78
863,115
864,139
865,144
866,129
867,103
868,86
869,83
870,75
871,49
872,44
873,41
874,41
875,43
876,47
877,48
878,41
879,26
880,8
881,-6
882,-12
883,-8
884,-1
885,9
886,20
887,23
888,21
889,25
890,32
891,41
892,55
893,79
894,101
895,118
896,132
897,132
898,149
899,162
900,169
901,176
902,186
903,188
904,173
905,179
906,202
907,239
908,290
909,339
910,372
911,382
912,365
913,322
914,266
915,204
916,145
917,99
918,59
919,19
920,-19
921,-57
922,-87
923,-108
924,-122
925,-125
926,-109
927,-87
928,-63
929,-40
930,-18
931,-1
932,7
933,13
934,16
935,13
936,11
937,17
938,20
939,19
940,20
941,22
942,22
943,17
944,10
945,5
946,1
947,0
948,8
949,19
950,27
951,25
952,17
953,9
954,4
955,6
956,10
957,9
958,1
959,-3
960,4
961,11
962,15
963,21
964,33
965,47
966,56
967,60
968,62
969,60
970,72
971,90
972,90
973,85
974,81
975,71
976,62
977,57
978,52
979,50
980,48
981,49
982,56
983,66
984,69
985,70
986,70
987,62
988,58
989,57
990,51
991,45
992,49
993,59
994,65
995,57
996,32
997,10
998,2
999,2
1000,51
1001,90
1002,124
1003,149
1004,159
1005,144
1006,112
1007,86
1008,81
1009,91
1010,105
1011,118
1012,124
1013,118
1014,108
1015,103
1016,95
1017,83
1018,86
1019,102
1020,124
1021,143
1022,158
1023,162
1024,156
1025,146
1026,140
1027,140
1028,136
1029,132
1030,139
1031,150
1032,148
1033,137
1034,124
1035,113
1036,108
1037,102
1038,95
1039,95
1040,93
1041,99
1042,105
1043,114
1044,125
1045,131
1046,129
1047,121
1048,112
1049,100
1050,83
1051,70
1052,66
1053,64
1054,61
1055,57
1056,54
1057,47
1058,44
1059,42
1060,40
1061,34
1062,24
1063,13
1064,-7
1065,-8
1066,-5
1067,3
1068,14
1069,24
1070,32
1071,38
1072,39
1073,30
1074,6
1075,-22
1076,-38
1077,-47
1078,-51
1079,-41
1080,-16
1081,11
1082,35
1083,52
1084,57
1085,46
1086,29
1087,23
1088,32
1089,42
1090,49
1091,58
1092,71
1093,76
1094,68
1095,56
1096,24
1097,13
1098,10
1099,11
1100,15
1101,19
1102,23
1103,24
1104,19
1105,13
1106,6
1107,6
1108,6
1109,11
1110,22
1111,33
1112,24
1113,-1
1114,-22
1115,-31
1116,-29
1117,-11
1118,20
1119,51
1120,69
1121,67
1122,55
1123,38
1124,13
1125,0
1126,12
1127,31
1128,68
1129,77
1130,78
1131,82
1132,85
1133,91
1134,96
1135,99
1136,96
1137,86
1138,71
1139,61
1140,56
1141,50
1142,45
1143,41
1144,34
1145,30
1146,32
1147,36
1148,38
1149,37
1150,33
1151,32
1152,29
1153,21
1154,11
1155,5
1156,3
1157,0
1158,-5
1159,-13
1160,-16
1161,-7
1162,8
1163,26
1164,36
1165,46
1166,61
1167,77
1168,85
1169,93
1170,104
1171,114
1172,118
1173,106
1174,77
1175,49
1176,24
1177,8
1178,9
1179,21
1180,37
1181,55
1182,55
1183,67
1184,71
1185,70
1186,61
1187,51
1188,50
1189,52
1190,48
1191,47
1192,46
1193,19
1194,0
1195,-1
1196,10
1197,24
1198,43
1199,68
1200,82
1201,76
1202,59
1203,43
1204,27
1205,9
1206,0
1207,24
1208,57
1209,72
1210,80
1211,83
1212,75
1213,66
1214,56
1215,58
1216,70
1217,75
1218,78
1219,91
1220,102
1221,101
1222,95
1223,88
1224,80
1225,66
1226,67
1227,71
1228,73
1229,75
1230,77
1231,73
1232,64
1233,49
1234,35
1235,24
1236,18
1237,30
1238,43
1239,49
1240,56
1241,63
1242,70
1243,76
1244,79
1245,73
1246,58
1247,39
1248,13
1249,-14
1250,-27
1251,-23
1252,-1
1253,36
1254,74
1255,98
1256,109
1257,99
1258,29
1259,0
1260,-17
1261,-18
1262,-3
1263,23
1264,57
1265,98
1266,143
1267,178
1268,205
1269,232
1270,258
1271,295
1272,338
1273,368
1274,404
1275,436
1276,437
1277,412
1278,363
1279,289
1280,217
1281,164
1282,120
1283,90
1284,75
1285,53
1286,27
1287,-2
1288,-41
1289,-118
1290,-141
1291,-142
1292,-130
1293,-108
1294,-82
1295,-48
1296,-14
1297,6
1298,21
1299,31
1300,28
1301,12
1302,0
1303,-7
1304,-15
1305,-14
1306,-9
1307,-12
1308,-17
1309,-30
1310,-54
1311,-77
1312,-82
1313,-59
1314,-21
1315,16
1316,47
1317,67
1318,67
1319,49
1320,26
1321,2
1322,-3
1323,1
1324,1
1325,14
1326,20
1327,16
1328,14
1329,18
1330,24
1331,33
1332,37
1333,37
1334,33
1335,21
1336,9
1337,7
1338,11
1339,27
1340,49
1341,70
1342,86
1343,84
1344,67
1345,51
1346,34
1347,23
1348,35
1349,58
1350,71
1351,76
1352,74
1353,61
1354,29
1355,18
1356,9
1357,7
1358,18
1359,39
1360,68
1361,103
1362,139
1363,169
1364,184
1365,181
1366,166
1367,139
1368,109
1369,95
1370,100
1371,109
1372,102
1373,86
1374,71
1375,55
1376,54
1377,76
1378,101
1379,119
1380,137
1381,152
1382,167
1383,162
1384,113
1385,52
1386,23
1387,12
1388,70
1389,136
1390,202
1391,260
1392,299
1393,300
1394,258
1395,182
1396,110
1397,79
1398,72
1399,85
1400,127
1401,178
1402,215
1403,242
1404,261
1405,253
1406,228
1407,192
1408,157
1409,144
1410,122
1411,73
1412,32
1413,13
1414,10
1415,34
1416,77
1417,119
1418,157
1419,184
1420,182
1421,155
1422,94
1423,36
1424,15
1425,12
1426,10
1427,31
1428,69
1429,103
1430,119
1431,117
1432,99
1433,74
1434,44
1435,19
1436,25
1437,39
1438,33
1439,34
1440,37
1441,29
1442,27
1443,30
1444,30
1445,30
1446,33
1447,29
1448,14
1449,-7
1450,-24
1451,-27
1452,-20
1453,-6
1454,27
1455,71
1456,78
1457,23
1458,-44
1459,-93
1460,-124
1461,-108
1462,-38
1463,55
1464,131
1465,154
1466,154
1467,149
1468,127
1469,66
1470,2
1471,7
1472,63
1473,101
1474,126
1475,147
1476,144
1477,101
1478,37
1479,-10
1480,-48
1481,-97
1482,-124
1483,-115
1484,-10
1485,78
1486,169
1487,218
1488,207
1489,170
1490,131
1491,90
1492,62
1493,66
1494,88
1495,115
1496,137
1497,140
1498,117
1499,79
1500,47
1501,21
1502,-16
1503,-40
1504,-27
1505,-5
1506,9
1507,40
1508,91
1509,118
1510,112
1511,99
1512,77
1513,43
1514,20
1515,33
1516,94
1517,97
1518,103
1519,107
1520,86
1521,57
1522,41
1523,35
1524,42
1525,50
1526,46
1527,44
1528,47
1529,48
1530,42
1531,32
1532,22
1533,16
1534,20
1535,13
1536,-17
1537,-37
1538,-37
1539,-19
1540,10
1541,37
1542,73
1543,124
1544,155
1545,174
1546,188
1547,168
1548,122
1549,120
1550,97
1551,61
1552,17
1553,-5
1554,-4
1555,-5
1556,7
1557,37
1558,62
1559,83
1560,100
1561,103
1562,79
1563,41
1564,13
1565,-14
1566,-41
1567,-56
1568,-54
1569,-34
1570,0
1571,37
1572,75
1573,105
1574,119
1575,126
1576,130
1577,110
1578,77
1579,65
1580,61
1581,64
1582,67
1583,74
1584,92
1585,102
1586,79
1587,39
1588,2
1589,-34
1590,-44
1591,-28
1592,0
1593,44
1594,73
1595,64
1596,36
1597,0
1598,-35
1599,-35
1600,11
1601,82
1602,153
1603,200
1604,216
1605,214
1606,182
1607,134
1608,134
1609,110
1610,112
1611,109
1612,69
1613,-15
1614,-34
1615,-25
1616,14
1617,69
1618,116
1619,140
1620,143
1621,124
1622,86
1623,45
1624,19
1625,-2
1626,-30
1627,-52
1628,-67
1629,-75
1630,-61
1631,-22
1632,33
1633,85
1634,117
1635,136
1636,147
1637,147
1638,155
1639,179
1640,196
1641,194
1642,195
1643,203
1644,214
1645,306
1646,375
1647,445
1648,483
1649,468
1650,423
1651,345
1652,242
1653,162
1654,114
1655,85
1656,80
1657,72
1658,49
1659,21
1660,-24
1661,-89
1662,-131
1663,-154
1664,-166
1665,-137
1666,-85
1667,-46
1668,-24
1669,-15
1670,-6
1671,3
1672,6
1673,12
1674,38
1675,71
1676,95
1677,109
1678,66
1679,23
1680,-3
1681,-18
1682,-23
1683,-18
1684,3
1685,40
1686,71
1687,77
1688,66
1689,53
1690,24
1691,-20
1692,-46
1693,-41
1694,-27
1695,-12
1696,10
1697,43
1698,68
1699,84
1700,100
1701,101
1702,67
1703,2
1704,-57
1705,-85
1706,-97
1707,-89
1708,-28
1709,66
1710,183
1711,189
1712,144
1713,88
1714,53
1715,8
1716,-34
1717,-44
1718,-41
1719,-30
1720,-7
1721,11
1722,40
1723,77
1724,105
1725,134
1726,151
1727,127
1728,93
1729,94
1730,88
1731,63
1732,45
1733,21
1734,-2
1735,5
1736,17
1737,21
1738,33
1739,42
1740,40
1741,42
1742,43
1743,50
1744,54
1745,66
1746,93
1747,102
1748,94
1749,90
1750,90
1751,72
1752,53
1753,51
1754,53
1755,58
1756,63
1757,75
1758,98
1759,118
1760,123
1761,115
1762,101
1763,83
1764,81
1765,92
1766,102
1767,113
1768,124
1769,127
1770,126
1771,113
1772,86
1773,54
1774,39
1775,51
1776,97
1777,112
1778,114
1779,116
1780,114
1781,99
1782,82
1783,73
1784,71
1785,78
1786,89
1787,84
1788,63
1789,42
1790,23
1791,5
1792,-17
1793,-30
1794,-21
1795,2
1796,24
1797,38
1798,46
1799,58
1800,76
1801,92
1802,111
1803,125
1804,115
1805,85
1806,34
1807,-19
1808,-75
1809,-57
1810,-13
1811,31
1812,55
1813,62
1814,57
1815,37
1816,5
1817,-21
1818,-31
1819,-33
1820,-40
1821,-47
1822,-55
1823,-63
1824,-61
1825,-51
1826,-40
1827,-25
1828,-11
1829,0
1830,-1
1831,-12
1832,-27
1833,-39
1834,-60
1835,-83
1836,-83
1837,-63
1838,-54
1839,-55
1840,-23
1841,0
1842,34
1843,60
1844,72
1845,72
1846,53
1847,28
1848,19
1849,7
1850,0
1851,18
1852,43
1853,63
1854,78
1855,73
1856,59
1857,51
1858,37
1859,18
1860,5
1861,-13
1862,-30
1863,-32
1864,-27
1865,-14
1866,5
1867,25
1868,32
1869,29
1870,27
1871,30
1872,8
1873,-18
1874,-42
1875,-80
1876,-118
1877,-102
1878,-54
1879,-5
1880,65
1881,146
1882,198
1883,211
1884,191
1885,164
1886,138
1887,89
1888,43
1889,43
1890,43
1891,32
1892,43
1893,43
1894,67
1895,80
1896,83
1897,81
1898,74
1899,57
1900,29
1901,14
1902,20
1903,27
1904,26
1905,26
1906,22
1907,18
1908,4
1909,-4
1910,5
1911,17
1912,19
1913,15
1914,-9
1915,-51
1916,-85
1917,-108
1918,-117
1919,-99
1920,-62
1921,-7
1922,55
1923,94
1924,105
1925,94
1926,60
1927,16
1928,-18
1929,-45
1930,-51
1931,-31
1932,-2
1933,23
1934,35
1935,34
1936,35
1937,31
1938,24
1939,33
1940,39
1941,55
1942,65
1943,55
1944,39
1945,22
1946,9
1947,2
1948,-7
1949,-15
1950,-7
1951,1
1952,10
1953,29
1954,49
1955,57
1956,62
1957,66
1958,66
1959,69
1960,73
1961,75
1962,70
1963,56
1964,43
1965,32
1966,27
1967,20
1968,14
1969,7
1970,-21
1971,-32
1972,-48
1973,-53
1974,-44
1975,-33
1976,-20
1977,-9
1978,-12
1979,-12
1980,2
1981,24
1982,50
1983,82
1984,109
1985,115
1986,101
1987,73
1988,45
1989,15
1990,-26
1991,-60
1992,-65
1993,-60
1994,-55
1995,-24
1996,30
1997,78
1998,118
1999,142
2000,149
2001,150
2002,151
2003,172
2004,252
2005,257
2006,266
2007,278
2008,276
2009,276
2010,280
2011,289
2012,302
2013,303
2014,284
2015,244
2016,169
2017,81
2018,15
2019,-38
2020,-90
2021,-144
2022,-177
2023,-152
2024,-97
2025,-37
2026,31
2027,80
2028,88
2029,69
2030,34
2031,-9
2032,-36
2033,-50
2034,-46
2035,-11
2036,-11
2037,-3
2038,-9
2039,-11
2040,-20
2041,-20
2042,0
2043,20
2044,37
2045,51
2046,51
2047,43
2048,32
2049,32
2050,39
2051,21
2052,-25
2053,-58
2054,-65
2055,-64
2056,-49
2057,-15
2058,5
2059,-10
2060,-38
2061,-29
2062,1
2063,29
2064,80
2065,147
2066,183
2067,176
2068,41
2069,-40
2070,-88
2071,-84
2072,-21
2073,64
2074,131
2075,164
2076,144
2077,92
2078,46
2079,8
2080,-16
2081,5
2082,59
2083,114
2084,155
2085,178
2086,183
2087,163
2088,123
2089,99
2090,90
2091,73
2092,53
2093,40
2094,34
2095,45
2096,60
2097,43
2098,12
2099,5
2100,9
2101,-72
2102,-130
2103,-146
2104,-132
2105,-85
2106,4
2107,119
2108,222
2109,287
2110,307
2111,285
2112,214
2113,114
2114,68
2115,93
2116,131
2117,167
2118,201
2119,224
2120,236
2121,231
2122,204
2123,183
2124,175
2125,160
2126,148
2127,141
2128,118
2129,103
2130,106
2131,105
2132,145
2133,176
2134,195
2135,213
2136,221
2137,210
2138,178
2139,138
2140,113
2141,110
2142,112
2143,117
2144,103
2145,59
2146,0
2147,-38
2148,-31
2149,0
2150,43
2151,98
2152,142
2153,159
2154,149
2155,119
2156,75
2157,45
2158,41
2159,54
2160,67
2161,58
2162,37
2163,17
2164,-13
2165,0
2166,22
2167,46
2168,76
2169,100
2170,106
2171,91
2172,75
2173,63
2174,46
2175,25
2176,24
2177,24
2178,38
2179,33
2180,17
2181,9
2182,0
2183,-8
2184,-4
2185,7
2186,26
2187,44
2188,56
2189,65
2190,55
2191,17
2192,-18
2193,-42
2194,-57
2195,-49
2196,-24
2197,33
2198,52
2199,54
2200,63
2201,63
2202,43
2203,34
2204,42
2205,49
2206,62
2207,73
2208,77
2209,77
2210,79
2211,78
2212,62
2213,23
2214,-25
2215,-71
2216,-100
2217,-99
2218,-65
2219,-13
2220,47
2221,101
2222,142
2223,170
2224,177
2225,163
2226,149
2227,127
2228,99
2229,80
2230,69
2231,73
2232,89
2233,95
2234,98
2235,103
2236,92
2237,70
2238,55
2239,47
2240,57
2241,71
2242,71
2243,64
2244,45
2245,15
2246,7
2247,26
2248,46
2249,72
2250,95
2251,92
2252,82
2253,63
2254,30
2255,12
2256,10
2257,27
2258,64
2259,98
2260,109
2261,51
2262,12
2263,0
2264,0
2265,2
2266,22
2267,59
2268,111
2269,150
2270,159
2271,146
2272,113
2273,76
2274,59
2275,54
2276,53
2277,66
2278,88
2279,111
2280,135
2281,140
2282,121
2283,105
2284,99
2285,93
2286,90
2287,87
2288,79
2289,67
2290,46
2291,16
2292,-2
2293,7
2294,23
2295,37
2296,43
2297,56
2298,80
2299,99
2300,114
2301,123
2302,125
2303,121
2304,87
2305,10
2306,-89
2307,-166
2308,-189
2309,-152
2310,-58
2311,55
2312,149
2313,216
2314,258
2315,263
2316,225
2317,173
2318,132
2319,132
2320,120
2321,130
2322,128
2323,115
2324,103
2325,57
2326,53
2327,42
2328,26
2329,21
2330,24
2331,30
2332,40
2333,52
2334,66
2335,78
2336,80
2337,88
2338,110
2339,120
2340,110
2341,102
2342,97
2343,78
2344,50
2345,26
2346,5
2347,0
2348,22
2349,65
2350,111
2351,147
2352,164
2353,167
2354,146
2355,87
2356,15
2357,-59
2358,-46
2359,-4
2360,34
2361,68
2362,106
2363,134
2364,137
2365,114
2366,82
2367,59
2368,46
2369,40
2370,44
2371,52
2372,66
2373,92
2374,102
2375,75
2376,38
2377,10
2378,7
2379,34
2380,75
2381,128
2382,188
2383,243
2384,277
2385,290
2386,290
2387,293
2388,314
2389,379
2390,373
2391,345
2392,294
2393,232
2394,182
2395,133
2396,78
2397,51
2398,35
2399,15
2400,15
2401,2
2402,-37
2403,-58
2404,-64
2405,-69
2406,-63
2407,-62
2408,-64
2409,-38
2410,-14
2411,-16
2412,-6
2413,11
2414,14
2415,29
2416,55
2417,68
2418,65
2419,56
2420,50
2421,40
2422,13
2423,-4
2424,-5
2425,-21
2426,-41
2427,-42
2428,-32
2429,-14
2430,7
2431,25
2432,31
2433,22
2434,21
2435,42
2436,53
2437,43
2438,24
2439,-18
2440,-75
2441,-106
2442,-96
2443,-47
2444,8
2445,57
2446,113
2447,142
2448,119
2449,80
2450,52
2451,50
2452,81
2453,179
2454,217
2455,197
2456,154
2457,125
2458,86
2459,50
2460,43
2461,51
2462,51
2463,74
2464,108
2465,120
2466,117
2467,95
2468,58
2469,25
2470,2
2471,-7
2472,-7
2473,3
2474,18
2475,31
2476,48
2477,61
2478,55
2479,35
2480,17
2481,9
2482,18
2483,38
2484,56
2485,73
2486,105
2487,106
2488,111
2489,111
2490,83
2491,40
2492,25
2493,46
2494,65
2495,89
2496,126
2497,157
2498,166
2499,157
2500,144
2501,129
2502,114
2503,126
2504,177
2505,227
2506,236
2507,229
2508,219
2509,191
2510,148
2511,108
2512,82
2513,69
2514,66
2515,85
2516,106
2517,100
2518,51
2519,47
2520,45
2521,51
2522,82
2523,140
2524,193
2525,218
2526,223
2527,208
2528,170
2529,122
2530,75
2531,41
2532,10
2533,-16
2534,-26
2535,-21
2536,-13
2537,-5
2538,-3
2539,-5
2540,-12
2541,-29
2542,-41
2543,-25
2544,-1
2545,14
2546,32
2547,43
2548,38
2549,37
2550,41
2551,34
2552,21
2553,16
2554,18
2555,11
2556,-3
2557,-8
2558,-24
2559,-55
2560,-65
2561,-49
2562,-24
2563,4
2564,40
2565,61
2566,58
2567,56
2568,51
2569,38
2570,20
2571,6
2572,10
2573,11
2574,-3
2575,-19
2576,-28
2577,-34
2578,-28
2579,2
2580,24
2581,12
2582,-20
2583,-25
2584,-30
2585,-32
2586,-15
2587,7
2588,28
2589,45
2590,58
2591,57
2592,31
2593,-5
2594,-28
2595,-27
2596,-17
2597,1
2598,39
2599,71
2600,84
2601,83
2602,63
2603,33
2604,33
2605,-1
2606,-23
2607,-17
2608,5
2609,31
2610,61
2611,81
2612,81
2613,85
2614,83
2615,61
2616,61
2617,58
2618,56
2619,47
2620,39
2621,37
2622,15
2623,-11
2624,-16
2625,-22
2626,-27
2627,-10
2628,9
2629,3
2630,-26
2631,-40
2632,-40
2633,-59
2634,-80
2635,-69
2636,-32
2637,7
2638,50
2639,102
2640,146
2641,159
2642,142
2643,131
2644,108
2645,45
2646,-16
2647,-36
2648,-30
2649,-1
2650,21
2651,43
2652,53
2653,49
2654,42
2655,44
2656,35
2657,16
2658,20
2659,32
2660,30
2661,26
2662,39
2663,56
2664,53
2665,32
2666,27
2667,36
2668,25
2669,14
2670,34
2671,50
2672,37
2673,11
2674,-8
2675,-27
2676,-48
2677,-50
2678,-26
2679,4
2680,28
2681,56
2682,84
2683,68
2684,38
2685,14
2686,8
2687,3
2688,1
2689,11
2690,28
2691,44
2692,37
2693,20
2694,20
2695,23
2696,11
2697,4
2698,20
2699,33
2700,38
2701,48
2702,48
2703,43
2704,42
2705,50
2706,74
2707,95
2708,104
2709,117
2710,136
2711,138
2712,122
2713,99
2714,60
2715,57
2716,46
2717,33
2718,23
2719,16
2720,11
2721,5
2722,0
2723,11
2724,26
2725,36
2726,40
2727,44
2728,43
2729,48
2730,59
2731,66
2732,60
2733,39
2734,9
2735,-19
2736,-47
2737,-55
2738,-28
2739,25
2740,82
2741,122
2742,138
2743,130
2744,102
2745,72
2746,59
2747,62
2748,80
2749,105
2750,112
2751,98
2752,70
2753,35
2754,21
2755,35
2756,58
2757,77
2758,85
2759,75
2760,62
2761,43
2762,19
2763,12
2764,26
2765,48
2766,74
2767,94
2768,100
2769,101
2770,90
2771,71
2772,66
2773,68
2774,57
2775,46
2776,63
2777,107
2778,153
2779,218
2780,244
2781,266
2782,292
2783,325
2784,362
2785,381
2786,379
2787,362
2788,312
2789,230
2790,146
2791,79
2792,43
2793,37
2794,48
2795,39
2796,4
2797,-25
2798,-41
2799,-53
2800,-54
2801,-31
2802,0
2803,16
2804,21
2805,19
2806,8
2807,-3
2808,-7
2809,7
2810,24
2811,9
2812,2
2813,0
2814,0
2815,12
2816,18
2817,8
2818,5
2819,5
2820,0
2821,1
2822,17
2823,40
2824,58
2825,67
2826,56
2827,28
2828,-6
2829,-30
2830,-26
2831,-3
2832,24
2833,53
2834,79
2835,84
2836,56
2837,31
2838,18
2839,2
2840,8
2841,27
2842,26
2843,38
2844,34
2845,34
2846,45
2847,63
2848,90
2849,116
2850,119
2851,103
2852,65
2853,14
2854,-3
2855,2
2856,12
2857,41
2858,87
2859,128
2860,147
2861,142
2862,123
2863,103
2864,85
2865,75
2866,74
2867,56
2868,19
2869,-6
2870,-23
2871,-41
2872,-40
2873,8
2874,93
2875,172
2876,243
2877,224
2878,172
2879,110
2880,57
2881,20
2882,2
2883,4
2884,34
2885,73
2886,93
2887,108
2888,108
2889,128
2890,144
2891,148
2892,140
2893,117
2894,91
2895,79
2896,69
2897,48
2898,47
2899,90
2900,148
2901,191
2902,224
2903,244
2904,232
2905,194
2906,159
2907,139
2908,128
2909,147
2910,187
2911,208
2912,195
2913,176
2914,154
2915,130
2916,116
2917,114
2918,110
2919,106
2920,104
2921,101
2922,101
2923,95
2924,77
2925,62
2926,51
2927,48
2928,49
2929,40
2930,28
2931,18
2932,10
2933,10
2934,22
2935,30
2936,41
2937,73
2938,111
2939,129
2940,123
2941,71
2942,34
2943,-14
2944,-60
2945,-83
2946,-88
2947,-80
2948,-54
2949,-13
2950,27
2951,56
2952,56
2953,20
2954,-17
2955,-41
2956,-59
2957,-49
2958,2
2959,52
2960,80
2961,95
2962,92
2963,69
2964,32
2965,0
2966,-2
2967,10
2968,6
2969,-7
2970,-3
2971,-3
2972,-15
2973,-4
2974,10
2975,21
2976,23
2977,15
2978,4
2979,1
2980,7
2981,11
2982,10
2983,7
2984,3
2985,-10
2986,-22
2987,-21
2988,-24
2989,-30
2990,-23
2991,-10
2992,-14
2993,-51
2994,-92
2995,-105
2996,-98
2997,-75
2998,-33
2999,21
3000,64
3001,83
3002,98
3003,101
3004,74
3005,82
3006,122
3007,133
3008,136
3009,120
3010,65
3011,9
3012,-23
3013,-32
3014,-19
3015,2
3016,43
3017,90
3018,97
3019,81
3020,78
3021,68
3022,42
3023,27
3024,21
3025,17
3026,16
3027,16
3028,9
3029,-5
3030,-13
3031,-13
3032,-10
3033,-1
3034,9
3035,4
3036,-6
3037,2
3038,36
3039,59
3040,81
3041,103
3042,128
3043,138
3044,127
3045,105
3046,77
3047,60
3048,65
3049,66
3050,52
3051,34
3052,26
3053,29
3054,32
3055,41
3056,52
3057,41
3058,21
3059,0
3060,-27
3061,-54
3062,-62
3063,-50
3064,-12
3065,28
3066,51
3067,72
3068,87
3069,55
3070,18
3071,-31
3072,-75
3073,-92
3074,-76
3075,-27
3076,38
3077,108
3078,167
3079,200
3080,201
3081,175
3082,136
3083,105
3084,82
3085,63
3086,49
3087,27
3088,9
3089,9
3090,17
3091,21
3092,19
3093,8
3094,16
3095,39
3096,43
3097,53
3098,75
3099,75
3100,74
3101,80
3102,70
3103,65
3104,50
3105,40
3106,28
3107,-9
3108,-34
3109,-29
3110,-25
3111,-13
3112,4
3113,10
3114,12
3115,18
3116,30
3117,44
3118,70
3119,106
3120,138
3121,159
3122,159
3123,145
3124,135
3125,131
3126,127
3127,127
3128,121
3129,92
3130,53
3131,29
3132,10
3133,-5
3134,9
3135,41
3136,72
3137,94
3138,115
3139,124
3140,107
3141,80
3142,61
3143,36
3144,12
3145,11
3146,21
3147,34
3148,69
3149,94
3150,98
3151,106
3152,99
3153,76
3154,52
3155,40
3156,43
3157,57
3158,74
3159,105
3160,160
3161,204
3162,230
3163,266
3164,308
3165,343
3166,393
3167,417
3168,403
3169,361
3170,313
3171,250
3172,187
3173,187
3174,132
3175,87
3176,68
3177,62
3178,41
3179,15
3180,-1
3181,-25
3182,-44
3183,-48
3184,-46
3185,-37
3186,-22
3187,-5
3188,17
3189,34
3190,35
3191,34
3192,25
3193,7
3194,-8
3195,-30
3196,-51
3197,-39
3198,-4
3199,51
3200,59
3201,41
3202,22
3203,10
3204,9
3205,30
3206,55
3207,76
3208,107
3209,125
3210,104
3211,70
3212,33
3213,9
3214,18
3215,43
3216,66
3217,87
3218,102
3219,107
3220,98
3221,71
3222,32
3223,0
3224,-13
3225,1
3226,41
3227,80
3228,103
3229,116
3230,119
3231,86
3232,64
3233,40
3234,25
3235,20
3236,26
3237,35
3238,28
3239,19
3240,26
3241,42
3242,43
3243,31
3244,23
3245,29
3246,46
3247,72
3248,107
3249,133
3250,139
3251,143
3252,147
3253,137
3254,113
3255,86
3256,67
3257,59
3258,47
3259,39
3260,45
3261,54
3262,60
3263,71
3264,55
3265,44
3266,42
3267,49
3268,63
3269,83
3270,113
3271,141
3272,152
3273,156
3274,162
3275,159
3276,143
3277,130
3278,119
3279,107
3280,99
3281,97
3282,113
3283,155
3284,200
3285,226
3286,241
3287,246
3288,220
3289,156
3290,81
3291,32
3292,21
3293,34
3294,72
3295,147
3296,232
3297,313
3298,321
3299,288
3300,212
3301,137
3302,96
3303,76
3304,70
3305,82
3306,119
3307,153
3308,152
3309,126
3310,92
3311,56
3312,29
3313,28
3314,47
3315,47
3316,72
3317,94
3318,106
3319,109
3320,97
3321,65
3322,25
3323,-7
3324,-30
3325,-41
3326,-41
3327,-27
3328,0
3329,28
3330,49
3331,40
3332,17
3333,-7
3334,-17
3335,-23
3336,-30
3337,-25
3338,-13
3339,-15
3340,-31
3341,-24
3342,7
3343,41
3344,66
3345,83
3346,96
3347,98
3348,82
3349,55
3350,22
3351,-24
3352,-71
3353,-79
3354,-62
3355,-46
3356,-29
3357,-1
3358,31
3359,60
3360,77
3361,87
3362,92
3363,98
3364,93
3365,69
3366,38
3367,6
3368,-32
3369,-56
3370,-47
3371,-21
3372,14
3373,59
3374,95
3375,124
3376,134
3377,122
3378,117
3379,113
3380,88
3381,63
3382,53
3383,40
3384,31
3385,27
3386,23
3387,26
3388,40
3389,41
3390,29
3391,14
3392,1
3393,-7
3394,-14
3395,-21
3396,-10
3397,12
3398,41
3399,71
3400,87
3401,86
3402,78
3403,66
3404,31
3405,-28
3406,-81
3407,-104
3408,-90
3409,-59
3410,-39
3411,-17
3412,19
3413,58
3414,88
3415,101
3416,79
3417,36
3418,12
3419,8
3420,9
3421,20
3422,45
3423,82
3424,119
3425,145
3426,128
3427,102
3428,88
3429,92
3430,104
3431,104
3432,93
3433,79
3434,51
3435,20
3436,9
3437,11
3438,27
3439,47
3440,55
3441,60
3442,62
3443,38
3444,9
3445,-3
3446,-11
3447,-8
3448,8
3449,28
3450,49
3451,71
3452,84
3453,96
3454,110
3455,112
3456,101
3457,101
3458,97
3459,82
3460,68
3461,60
3462,49
3463,38
3464,30
3465,30
3466,40
3467,56
3468,72
3469,92
3470,103
3471,90
3472,76
3473,61
3474,38
3475,18
3476,3
3477,-11
3478,-19
3479,-12
3480,5
3481,30
3482,39
3483,38
3484,45
3485,40
3486,33
3487,34
3488,21
3489,11
3490,29
3491,50
3492,79
3493,110
3494,149
3495,170
3496,134
3497,77
3498,30
3499,-13
3500,-27
3501,6
3502,60
3503,112
3504,146
3505,163
3506,167
3507,145
3508,106
3509,88
3510,88
3511,81
3512,72
3513,67
3514,62
3515,60
3516,72
3517,94
3518,99
3519,85
3520,67
3521,21
3522,20
3523,45
3524,74
3525,105
3526,134
3527,143
3528,122
3529,81
3530,47
3531,30
3532,28
3533,40
3534,66
3535,89
3536,101
3537,114
3538,120
3539,106
3540,85
3541,66
3542,47
3543,12
3544,-34
3545,-71
3546,-84
3547,-82
3548,-68
3549,-32
3550,2
3551,21
3552,84
3553,112
3554,127
3555,133
3556,140
3557,147
3558,136
3559,108
3560,97
3561,101
3562,100
3563,108
3564,130
3565,135
3566,130
3567,139
3568,165
3569,193
3570,222
3571,256
3572,302
3573,342
3574,354
3575,355
3576,360
3577,366
3578,373
3579,379
3580,374
3581,340
3582,264
3583,156
3584,-19
3585,-83
3586,-124
3587,-145
3588,-151
3589,-142
3590,-130
3591,-106
3592,-65
3593,-22
3594,24
3595,89
3596,140
3597,128
3598,62
3599,-9
3600,-9
3601,-53
3602,-69
3603,-65
3604,-38
3605,9
3606,53
3607,86
3608,117
3609,132
3610,117
3611,93
3612,85
3613,79
3614,50
3615,14
3616,-14
3617,-56
3618,-57
3619,-39
3620,-11
3621,11
3622,22
3623,26
3624,35
3625,47
3626,52
3627,39
3628,13
3629,-15
3630,-52
3631,-75
3632,-64
3633,-38
3634,-8
3635,32
3636,76
3637,93
3638,65
3639,16
3640,-12
3641,-14
3642,3
3643,42
3644,89
3645,120
3646,133
3647,135
3648,124
3649,61
3650,27
3651,15
3652,20
3653,30
3654,43
3655,54
3656,63
3657,80
3658,86
3659,73
3660,57
3661,40
3662,34
3663,48
3664,69
3665,88
3666,96
3667,91
3668,71
3669,49
3670,24
3671,-6
3672,-27
3673,-32
3674,-19
3675,18
3676,72
3677,115
3678,135
3679,147
3680,134
3681,124
3682,124
3683,131
3684,142
3685,156
3686,161
3687,142
3688,106
3689,70
3690,56
3691,72
3692,106
3693,142
3694,165
3695,171
3696,134
3697,74
3698,33
3699,13
3700,26
3701,70
3702,131
3703,196
3704,246
3705,266
3706,257
3707,236
3708,206
3709,180
3710,164
3711,132
3712,66
3713,56
3714,64
3715,79
3716,103
3717,124
3718,117
3719,101
3720,90
3721,67
3722,47
3723,52
3724,65
3725,79
3726,90
3727,78
3728,59
3729,35
3730,-1
3731,0
3732,46
3733,74
3734,111
3735,154
3736,145
3737,111
3738,70
3739,13
3740,-20
3741,-22
3742,-22
3743,-11
3744,25
3745,70
3746,51
3747,31
3748,1
3749,-11
3750,-1
3751,23
3752,69
3753,113
3754,130
3755,126
3756,116
3757,97
3758,68
3759,53
3760,58
3761,64
3762,65
3763,74
3764,89
3765,87
3766,46
3767,-19
3768,-63
3769,-82
3770,-87
3771,-63
3772,-9
3773,49
3774,100
3775,135
3776,152
3777,123
3778,82
3779,57
3780,35
3781,14
3782,-1
3783,-26
3784,-42
3785,-39
3786,-29
3787,0
3788,38
3789,62
3790,75
3791,90
3792,98
3793,102
3794,85
3795,46
3796,19
3797,11
3798,10
3799,24
3800,48
3801,64
3802,73
3803,81
3804,77
3805,53
3806,20
3807,-10
3808,-24
3809,-7
3810,15
3811,44
3812,69
3813,89
3814,105
3815,109
3816,98
3817,84
3818,66
3819,50
3820,43
3821,39
3822,35
3823,37
3824,44
3825,52
3826,56
3827,55
3828,45
3829,33
3830,24
3831,7
3832,2
3833,19
3834,33
3835,44
3836,58
3837,46
3838,-6
3839,-67
3840,-134
3841,-111
3842,-55
3843,24
3844,89
3845,103
3846,100
3847,94
3848,73
3849,56
3850,71
3851,113
3852,151
3853,164
3854,155
3855,132
3856,94
3857,54
3858,40
3859,43
3860,44
3861,48
3862,55
3863,63
3864,71
3865,71
3866,61
3867,52
3868,42
3869,20
3870,-8
3871,-20
3872,-19
3873,-24
3874,-34
3875,-34
3876,-13
3877,8
3878,29
3879,63
3880,93
3881,118
3882,149
3883,158
3884,158
3885,114
3886,48
3887,-4
3888,-34
3889,-34
3890,-15
3891,18
3892,72
3893,117
3894,133
3895,140
3896,125
3897,91
3898,69
3899,52
3900,20
3901,-9
3902,-30
3903,-38
3904,20
3905,53
3906,63
3907,38
3908,5
3909,-24
3910,-49
3911,-39
3912,7
3913,65
3914,119
3915,156
3916,161
3917,131
3918,71
3919,9
3920,-15
3921,-21
3922,-33
3923,-22
3924,23
3925,69
3926,103
3927,124
3928,110
3929,70
3930,22
3931,-14
3932,-19
3933,-10
3934,6
3935,53
3936,110
3937,148
3938,146
3939,129
3940,101
3941,72
3942,60
3943,58
3944,47
3945,41
3946,43
3947,44
3948,49
3949,46
3950,30
3951,18
3952,23
3953,26
3954,20
3955,0
3956,-31
3957,-46
3958,-39
3959,-23
3960,6
3961,42
3962,73
3963,97
3964,117
3965,110
3966,72
3967,29
3968,18
3969,42
3970,62
3971,85
3972,110
3973,118
3974,109
3975,89
3976,52
3977,12
3978,-9
3979,-7
3980,15
3981,53
3982,99
3983,146
3984,174
3985,177
3986,182
3987,194
3988,186
3989,179
3990,197
3991,220
3992,248
3993,290
3994,329
3995,361
3996,382
3997,385
3998,375
3999,336
4000,179
4001,110
4002,64
4003,38
4004,21
4005,-15
4006,-81
4007,-142
4008,-179
4009,-200
4010,-190
4011,-140
4012,-69
4013,5
4014,70
4015,101
4016,97
4017,63
4018,20
4019,4
4020,12
4021,18
4022,23
4023,33
4024,52
4025,71
4026,71
4027,77
4028,75
4029,72
4030,63
4031,49
4032,11
4033,-16
4034,-38
4035,-51
4036,-53
4037,-42
4038,-23
4039,0
4040,27
4041,48
4042,58
4043,67
4044,66
4045,62
4046,62
4047,56
4048,38
4049,16
4050,14
4051,24
4052,21
4053,19
4054,30
4055,37
4056,38
4057,41
4058,40
4059,42
4060,42
4061,43
4062,62
4063,80
4064,82
4065,87
4066,83
4067,68
4068,20
4069,-36
4070,-64
4071,-69
4072,-58
4073,-27
4074,21
4075,72
4076,107
4077,134
4078,164
4079,182
4080,169
4081,162
4082,167
4083,149
4084,115
4085,100
4086,97
4087,101
4088,115
4089,137
4090,157
4091,165
4092,135
4093,84
4094,58
4095,9
4096,16
4097,43
4098,69
4099,94
4100,106
4101,117
4102,139
4103,136
4104,107
4105,106
4106,120
4107,110
4108,114
4109,124
4110,112
4111,108
4112,121
4113,140
4114,176
4115,214
4116,240
4117,277
4118,318
4119,317
4120,275
4121,212
4122,139
4123,85
4124,62
4125,69
4126,186
4127,250
4128,297
4129,302
4130,260
4131,191
4132,120
4133,56
4134,4
4135,-18
4136,-2
4137,30
4138,61
4139,86
4140,114
4141,147
4142,183
4143,210
4144,209
4145,182
4146,139
4147,89
4148,51
4149,16
4150,-14
4151,-23
4152,-30
4153,-63
4154,-107
4155,-138
4156,-148
4157,-127
4158,13
4159,98
4160,129
4161,96
4162,60
4163,21
4164,-31
4165,-46
4166,-8
4167,48
4168,98
4169,98
4170,130
4171,140
4172,123
4173,67
4174,4
4175,-23
4176,-31
4177,-37
4178,-31
4179,-14
4180,6
4181,11
4182,-3
4183,-20
4184,-35
4185,-39
4186,-11
4187,29
4188,72
4189,118
4190,82
4191,7
4192,-79
4193,-159
4194,-190
4195,-178
4196,-123
4197,-33
4198,36
4199,84
4200,118
4201,116
4202,89
4203,80
4204,90
4205,89
4206,73
4207,49
4208,25
4209,7
4210,-8
4211,-6
4212,20
4213,48
4214,68
4215,79
4216,70
4217,41
4218,12
4219,2
4220,2
4221,0
4222,7
4223,15
4224,26
4225,29
4226,30
4227,26
4228,25
4229,45
4230,76
4231,81
4232,68
4233,54
4234,35
4235,14
4236,-3
4237,-16
4238,-14
4239,0
4240,17
4241,42
4242,59
4243,41
4244,14
4245,0
4246,-5
4247,-3
4248,6
4249,8
4250,-3
4251,-15
4252,-29
4253,-40
4254,-29
4255,-1
4256,40
4257,79
4258,100
4259,105
4260,83
4261,38
4262,-8
4263,-42
4264,-48
4265,-36
4266,-19
4267,11
4268,56
4269,92
4270,109
4271,114
4272,101
4273,71
4274,37
4275,17
4276,10
4277,1
4278,-1
4279,13
4280,35
4281,54
4282,66
4283,74
4284,84
4285,75
4286,62
4287,52
4288,39
4289,35
4290,38
4291,34
4292,39
4293,48
4294,52
4295,53
4296,50
4297,44
4298,41
4299,42
4300,39
4301,36
4302,37
4303,44
4304,46
4305,3
4306,-91
4307,-173
4308,-204
4309,-191
4310,-131
4311,-131
4312,-23
4313,108
4314,220
4315,288
4316,308
4317,280
4318,118
4319,74
4320,55
4321,34
4322,19
4323,17
4324,29
4325,54
4326,87
4327,124
4328,151
4329,163
4330,165
4331,156
4332,122
4333,65
4334,14
4335,-18
4336,-34
4337,-25
4338,12
4339,60
4340,106
4341,134
4342,143
4343,135
4344,110
4345,77
4346,64
4347,49
4348,7
4349,-26
4350,-6
4351,16
4352,67
4353,135
4354,151
4355,110
4356,69
4357,33
4358,1
4359,-6
4360,35
4361,120
4362,167
4363,153
4364,139
4365,125
4366,79
4367,40
4368,59
4369,109
4370,153
4371,175
4372,180
4373,181
4374,151
4375,102
4376,70
4377,51
4378,37
4379,29
4380,26
4381,25
4382,-54
4383,-66
4384,-39
4385,-2
4386,42
4387,98
4388,141
4389,156
4390,157
4391,155
4392,155
4393,155
4394,174
4395,233
4396,283
4397,300
4398,316
4399,347
4400,378
4401,406
4402,430
4403,434
4404,407
4405,354
4406,290
4407,227
4408,166
4409,119
4410,85
4411,53
4412,19
4413,-14
4414,-47
4415,-97
4416,-103
4417,-95
4418,-79
4419,-61
4420,-42
4421,-25
4422,-14
4423,-7
4424,-3
4425,-8
4426,-23
4427,-38
4428,-47
4429,-50
4430,-43
4431,-25
4432,-1
4433,20
4434,39
4435,52
4436,59
4437,57
4438,47
4439,32
4440,15
4441,-1
4442,-14
4443,-19
4444,-8
4445,12
4446,36
4447,71
4448,71
4449,59
4450,40
4451,24
4452,19
4453,19
4454,23
4455,27
4456,32
4457,49
4458,70
4459,84
4460,83
4461,61
4462,18
4463,-22
4464,-50
4465,-71
4466,-78
4467,-70
4468,-41
4469,5
4470,31
4471,33
4472,40
4473,48
4474,61
4475,93
4476,125
4477,136
4478,139
4479,153
4480,175
4481,132
4482,77
4483,46
4484,22
4485,3
4486,8
4487,26
4488,39
4489,58
4490,98
4491,126
4492,123
4493,111
4494,108
4495,117
4496,139
4497,138
4498,95
4499,27
4500,-66
4501,-157
4502,-191
4503,-182
4504,-140
4505,-43
4506,95
4507,205
4508,227
4509,172
4510,92
4511,52
4512,127
4513,264
4514,403
4515,471
4516,473
4517,430
4518,334
4519,209
4520,137
4521,141
4522,151
4523,127
4524,106
4525,92
4526,80
4527,85
4528,132
4529,209
4530,273
4531,309
4532,315
4533,285
4534,225
4535,161
4536,126
4537,104
4538,76
4539,52
4540,39
4541,25
4542,-9
4543,-38
4544,-30
4545,-15
4546,19
4547,54
4548,84
4549,103
4550,80
4551,17
4552,-75
4553,-185
4554,-260
4555,-270
4556,-243
4557,-188
4558,-126
4559,-75
4560,-24
4561,-7
4562,-18
4563,-13
4564,4
4565,41
4566,110
4567,172
4568,186
4569,171
4570,143
4571,116
4572,107
4573,77
4574,85
4575,160
4576,224
4577,203
4578,94
4579,-39
4580,-158
4581,-219
4582,-223
4583,-184
4584,-122
4585,-55
4586,42
4587,104
4588,44
4589,-89
4590,-160
4591,-127
4592,-62
4593,22
4594,121
4595,121
4596,209
4597,262
4598,284
4599,290
4600,249
4601,188
4602,164
4603,162
4604,133
4605,85
4606,50
4607,11
4608,15
4609,87
4610,181
4611,282
4612,364
4613,386
4614,334
4615,241
4616,158
4617,97
4618,37
4619,2
4620,14
4621,35
4622,48
4623,57
4624,48
4625,31
4626,21
4627,11
4628,2
4629,1
4630,6
4631,13
4632,22
4633,33
4634,40
4635,40
4636,40
4637,44
4638,47
4639,82
4640,105
4641,123
4642,112
4643,78
4644,57
4645,74
4646,173
4647,302
4648,401
4649,480
4650,494
4651,444
4652,390
4653,336
4654,238
4655,123
4656,46
4657,9
4658,1
4659,-32
4660,-50
4661,35
4662,139
4663,236
4664,383
4665,469
4666,401
4667,229
4668,111
4669,120
4670,123
4671,495
4672,844
4673,1069
4674,1219
4675,1292
4676,1159
4677,881
4678,659
4679,565
4680,549
4681,494
4682,465
4683,489
4684,362
4685,116
4686,-66
4687,-207
4688,-369
4689,-471
4690,-440
4691,-374
4692,-344
4693,-257
4694,-79
4695,93
4696,207
4697,279
4698,280
4699,202
4700,123
4701,54
4702,73
4703,168
4704,312
4705,440
4706,423
4707,356
4708,259
4709,61
4710,-101
4711,-149
4712,-139
4713,-80
4714,-2
4715,75
4716,213
4717,293
4718,206
4719,103
4720,4
4721,-101
4722,-135
4723,-118
4724,-70
4725,-27
4726,-36
4727,-52
4728,-51
4729,-87
4730,-203
4731,-268
4732,-151
4733,149
4734,191
4735,198
4736,163
4737,75
4738,75
4739,-49
4740,-163
4741,-240
4742,-298
4743,-305
4744,-251
4745,-226
4746,-261
4747,-249
4748,-119
4749,1
4750,20
4751,40
4752,86
4753,56
4754,-21
4755,-58
4756,-72
4757,-102
4758,-148
4759,-192
4760,-194
4761,-207
4762,-294
4763,-392
4764,-354
4765,-225
4766,36
4767,233
4768,327
4769,364
4770,349
4771,268
4772,225
4773,179
4774,58
4775,29
4776,102
4777,143
4778,268
4779,445
4780,509
4781,579
4782,642
4783,608
4784,580
4785,498
4786,295
4787,103
4788,-32
4789,-145
4790,-217
4791,-283
4792,-365
4793,-345
4794,-264
4795,-223
4796,-175
4797,-284
4798,-265
4799,-228
4800,-216
4801,-188
4802,-161
4803,-147
4804,-142
4805,-141
4806,-137
4807,-135
4808,-149
4809,-128
4810,-58
4811,-11
4812,16
4813,40
4814,47
4815,28
4816,-13
4817,-65
4818,-116
4819,-169
4820,-224
4821,-261
4822,-294
4823,-299
4824,-254
4825,-196
4826,-87
4827,54
4828,136
4829,161
4830,118
4831,33
4832,-58
4833,-85
4834,-30
4835,13
4836,8
4837,16
4838,10
4839,-69
4840,-162
4841,-220
4842,-256
4843,-244
4844,-194
4845,-109
4846,29
4847,114
4848,110
4849,127
4850,151
4851,97
4852,8
4853,-44
4854,-92
4855,-111
4856,-91
4857,-100
4858,-86
4859,-59
4860,-77
4861,14
4862,54
4863,70
4864,115
4865,144
4866,136
4867,119
4868,57
4869,-27
4870,-70
4871,-84
4872,-87
4873,-58
4874,-17
4875,-17
4876,-52
4877,-95
4878,-117
4879,-106
4880,-106
4881,-82
4882,2
4883,123
4884,185
4885,187
4886,168
4887,142
4888,119
4889,83
4890,47
4891,54
4892,46
4893,-34
4894,-133
4895,-144
4896,-77
4897,51
4898,173
4899,278
4900,323
4901,305
4902,285
4903,248
4904,191
4905,163
4906,168
4907,153
4908,87
4909,-20
4910,-116
4911,-173
4912,-205
4913,-187
4914,-102
4915,0
4916,100
4917,198
4918,239
4919,233
4920,210
4921,141
4922,65
4923,26
4924,-1
4925,-29
4926,44
4927,80
4928,171
4929,301
4930,410
4931,496
4932,489
4933,456
4934,455
4935,395
4936,268
4937,161
4938,66
4939,-63
4940,-134
4941,-143
4942,-174
4943,-193
4944,-195
4945,-157
4946,-99
4947,-103
4948,-117
4949,-95
4950,-85
4951,-88
4952,-39
4953,48
4954,104
4955,120
4956,116
4957,69
4958,1
4959,-68
4960,-117
4961,-177
4962,-228
4963,-220
4964,-207
4965,-269
4966,-390
4967,-489
4968,-479
4969,-371
4970,-242
4971,-83
4972,102
4973,235
4974,288
4975,272
4976,194
4977,78
4978,-25
4979,-83
4980,-73
4981,-60
4982,-100
4983,-127
4984,-108
4985,-94
4986,-100
4987,-106
4988,-94
4989,-5
4990,42
4991,90
4992,82
4993,10
4994,-53
4995,-114
4996,-174
4997,-192
4998,-147
4999,-57
5000,32
5001,75
5002,73
5003,35
5004,-39
5005,-104
5006,-99
5007,-67
5008,-46
5009,-12
5010,19
5011,18
5012,-3
5013,-27
5014,-42
5015,-41
5016,-21
5017,17
5018,61
5019,87
5020,69
5021,32
5022,32
5023,0
5024,-34
5025,-62
5026,18
5027,199
5028,332
5029,403
5030,447
5031,427
5032,328
5033,180
5034,36
5035,-72
5036,-169
5037,-246
5038,-229
5039,-182
5040,-214
5041,-253
5042,-230
5043,-190
5044,-170
5045,-146
5046,-114
5047,-94
5048,-78
5049,-61
5050,-48
5051,-38
5052,-42
5053,-76
5054,-92
5055,-90
5056,-78
5057,-74
5058,-75
5059,-72
5060,-68
5061,-69
5062,-65
5063,-54
5064,-38
5065,-21
5066,-9
5067,-15
5068,-37
5069,-57
5070,-88
5071,-133
5072,-156
5073,-148
5074,-111
5075,-55
5076,1
5077,47
5078,52
5079,8
5080,-22
5081,5
5082,57
5083,95
5084,51
5085,-6
5086,-84
5087,-166
5088,-191
5089,-155
5090,-75
5091,46
5092,162
5093,213
5094,193
5095,120
5096,45
5097,27
5098,33
5099,29
5100,36
5101,49
5102,46
5103,28
5104,-8
5105,-51
5106,-81
5107,-91
5108,-77
5109,-63
5110,-47
5111,-23
5112,-8
5113,-26
5114,-45
5115,-56
5116,-80
5117,-31
5118,8
5119,49
5120,64
5121,58
5122,55
5123,17
5124,-60
5125,-94
5126,-82
5127,-65
5128,-4
5129,80
5130,143
5131,196
5132,233
5133,260
5134,266
5135,224
5136,175
5137,178
5138,207
5139,234
5140,280
5141,347
5142,403
5143,411
5144,377
5145,355
5146,303
5147,181
5148,-116
5149,-296
5150,-421
5151,-460
5152,-412
5153,-290
5154,-133
5155,28
5156,173
5157,238
5158,200
5159,101
5160,-58
5161,-210
5162,-287
5163,-313
5164,-313
5165,-251
5166,-85
5167,87
5168,215
5169,286
5170,264
5171,151
5172,-9
5173,-142
5174,-161
5175,-77
5176,20
5177,119
5178,186
5179,154
5180,-5
5181,-56
5182,-82
5183,-86
5184,-68
5185,-26
5186,-2
5187,-20
5188,-36
5189,-26
5190,-14
5191,-7
5192,-1
5193,0
5194,2
5195,2
5196,-2
5197,-13
5198,-23
5199,-29
5200,-29
5201,-24
5202,-11
5203,6
5204,29
5205,53
5206,66
5207,65
5208,59
5209,45
5210,35
5211,45
5212,52
5213,23
5214,-15
5215,-50
5216,-68
5217,-63
5218,-8
5219,87
5220,184
5221,240
5222,251
5223,246
5224,203
5225,143
5226,136
5227,172
5228,198
5229,198
5230,167
5231,75
5232,-33
5233,-118
5234,-160
5235,-114
5236,-12
5237,84
5238,160
5239,220
5240,261
5241,285
5242,290
5243,301
5244,350
5245,395
5246,348
5247,284
5248,197
5249,123
5250,109
5251,126
5252,140
5253,133
5254,115
5255,154
5256,298
5257,467
5258,560
5259,585
5260,581
5261,489
5262,286
5263,60
5264,-100
5265,-181
5266,-200
5267,-137
5268,3
5269,100
5270,94
5271,94
5272,155
5273,191
5274,184
5275,198
5276,208
5277,178
5278,118
5279,100
5280,107
5281,141
5282,180
5283,195
5284,177
5285,141
5286,97
5287,47
5288,-5
5289,-66
5290,-130
5291,-173
5292,-182
5293,-174
5294,-155
5295,-127
5296,-85
5297,-17
5298,51
5299,100
5300,119
5301,108
5302,94
5303,108
5304,137
5305,143
5306,142
5307,142
5308,147
5309,130
5310,95
5311,-20
5312,-89
5313,-129
5314,-155
5315,-159
5316,-128
5317,-70
5318,51
5319,186
5320,258
5321,280
5322,248
5323,154
5324,23
5325,-113
5326,-234
5327,-301
5328,-292
5329,-231
5330,-150
5331,-92
5332,-75
5333,-78
5334,-67
5335,-7
5336,49
5337,41
5338,14
5339,-16
5340,-81
5341,-158
5342,-197
5343,-148
5344,-92
5345,-3
5346,90
5347,138
5348,143
5349,183
5350,237
5351,257
5352,296
5353,340
5354,309
5355,230
5356,151
5357,65
5358,-40
5359,-107
5360,-103
5361,-62
5362,-16
5363,35
5364,78
5365,37
5366,-84
5367,-189
5368,-256
5369,-287
5370,-249
5371,-134
5372,-2
5373,74
5374,90
5375,30
5376,16
5377,40
5378,81
5379,97
5380,78
5381,39
5382,12
5383,44
5384,109
5385,179
5386,268
5387,332
5388,333
5389,277
5390,164
5391,54
5392,45
5393,119
5394,207
5395,297
5396,328
5397,272
5398,187
5399,83
5400,-35
5401,-123
5402,-176
5403,-201
5404,-181
5405,-148
5406,-141
5407,-113
5408,-91
5409,-67
5410,-42
5411,-30
5412,-29
5413,-34
5414,-52
5415,-72
5416,-87
5417,-88
5418,-70
5419,-44
5420,-14
5421,15
5422,30
5423,31
5424,20
5425,4
5426,-11
5427,-18
5428,-17
5429,-1
5430,15
5431,24
5432,30
5433,31
5434,20
5435,5
5436,-9
5437,-23
5438,-31
5439,-18
5440,10
5441,41
5442,77
5443,104
5444,112
5445,107
5446,90
5447,61
5448,27
5449,27
5450,-5
5451,-31
5452,-47
5453,-55
5454,-59
5455,-55
5456,-47
5457,-29
5458,0
5459,32
5460,64
5461,96
5462,124
5463,147
5464,170
5465,188
5466,197
5467,187
5468,149
5469,119
5470,136
5471,259
5472,329
5473,388
5474,429
5475,413
5476,336
5477,255
5478,181
5479,117
5480,95
5481,113
5482,117
5483,77
5484,0
5485,-80
5486,-137
5487,-191
5488,-228
5489,-202
5490,-143
5491,-75
5492,-14
5493,27
5494,47
5495,47
5496,28
5497,4
5498,-6
5499,-11
5500,-24
5501,-33
5502,-28
5503,-17
5504,-25
5505,-71
5506,-121
5507,-142
5508,-146
5509,-132
5510,-100
5511,-38
5512,40
5513,82
5514,119
5515,207
5516,285
5517,300
5518,299
5519,285
5520,217
5521,103
5522,-19
5523,-96
5524,-129
5525,-145
5526,-106
5527,-10
5528,41
5529,27
5530,15
5531,18
5532,29
5533,59
5534,110
5535,173
5536,168
5537,117
5538,15
5539,-96
5540,-191
5541,-259
5542,-270
5543,-158
5544,72
5545,288
5546,374
5547,353
5548,331
5549,320
5550,296
5551,283
5552,280
5553,235
5554,149
5555,57
5556,-63
5557,-226
5558,-371
5559,-406
5560,-290
5561,-107
5562,16
5563,91
5564,156
5565,216
5566,283
5567,281
5568,215
5569,160
5570,144
5571,156
5572,170
5573,177
5574,175
5575,130
5576,44
5577,-26
5578,-105
5579,-183
5580,-199
5581,-154
5582,-84
5583,-46
5584,-45
5585,-33
5586,-7
5587,7
5588,23
5589,52
5590,56
5591,56
5592,48
5593,62
5594,81
5595,106
5596,148
5597,195
5598,226
5599,231
5600,212
5601,185
5602,157
5603,146
5604,137
5605,122
5606,113
5607,110
5608,113
5609,101
5610,69
5611,73
5612,115
5613,142
5614,156
5615,177
5616,178
5617,152
5618,105
5619,49
5620,11
5621,-21
5622,-49
5623,-38
5624,-8
5625,0
5626,13
5627,66
5628,117
5629,144
5630,166
5631,139
5632,-28
5633,-76
5634,-114
5635,-122
5636,-84
5637,-29
5638,9
5639,19
5640,8
5641,-6
5642,-36
5643,-74
5644,-73
5645,-43
5646,-36
5647,-37
5648,-4
5649,47
5650,102
5651,170
5652,196
5653,150
5654,94
5655,29
5656,-46
5657,-84
5658,-87
5659,-54
5660,26
5661,126
5662,219
5663,289
5664,291
5665,278
5666,253
5667,215
5668,185
5669,162
5670,154
5671,150
5672,138
5673,130
5674,125
5675,122
5676,120
5677,124
5678,117
5679,103
5680,86
5681,63
5682,43
5683,33
5684,27
5685,31
5686,38
5687,42
5688,50
5689,67
5690,79
5691,79
5692,71
5693,66
5694,63
5695,50
5696,18
5697,20
5698,38
5699,63
5700,94
5701,129
5702,157
5703,176
5704,198
5705,188
5706,134
5707,161
5708,300
5709,418
5710,456
5711,446
5712,384
5713,270
5714,147
5715,65
5716,42
5717,85
5718,190
5719,339
5720,521
5721,628
5722,610
5723,563
5724,493
5725,357
5726,193
5727,-46
5728,-80
5729,-33
5730,22
5731,102
5732,194
5733,194
5734,209
5735,167
5736,115
5737,68
5738,53
5739,75
5740,109
5741,140
5742,196
5743,248
5744,242
5745,222
5746,206
5747,154
5748,101
5749,97
5750,134
5751,195
5752,247
5753,273
5754,319
5755,352
5756,318
5757,270
5758,230
5759,151
5760,149
5761,134
5762,111
5763,94
5764,80
5765,93
5766,125
5767,151
5768,184
5769,231
5770,280
5771,327
5772,348
5773,331
5774,304
5775,291
5776,290
5777,294
5778,299
5779,324
5780,372
5781,421
5782,470
5783,509
5784,519
5785,501
5786,455
5787,397
5788,346
5789,301
5790,233
5791,221
5792,208
5793,186
5794,148
5795,103
5796,55
5797,-7
5798,-57
5799,-83
5800,-88
5801,-62
5802,-18
5803,34
5804,98
5805,150
5806,183
5807,197
5808,165
5809,107
5810,67
5811,54
5812,65
5813,106
5814,171
5815,237
5816,285
5817,313
5818,314
5819,280
5820,234
5821,171
5822,137
5823,293
5824,415
5825,468
5826,475
5827,386
5828,231
5829,67
5830,-88
5831,-178
5832,-205
5833,-180
5834,-42
5835,131
5836,190
5837,190
5838,230
5839,265
5840,300
5841,356
5842,390
5843,392
5844,383
5845,367
5846,351
5847,338
5848,311
5849,263
5850,218
5851,187
5852,163
5853,146
5854,146
5855,145
5856,135
5857,131
5858,160
5859,238
5860,339
5861,448
5862,539
5863,567
5864,531
5865,493
5866,476
5867,421
5868,328
5869,328
5870,393
5871,474
5872,459
5873,386
5874,277
5875,277
5876,158
5877,58
5878,9
5879,9
5880,-23
5881,-86
5882,-70
5883,2
5884,19
5885,1
5886,27
5887,93
5888,170
5889,261
5890,268
5891,231
5892,182
5893,169
5894,162
5895,154
5896,161
5897,170
5898,185
5899,210
5900,233
5901,249
5902,265
5903,284
5904,294
5905,293
5906,279
5907,254
5908,234
5909,210
5910,189
5911,181
5912,177
5913,176
5914,179
5915,179
5916,170
5917,162
5918,152
5919,142
5920,135
5921,116
5922,107
5923,97
5924,96
5925,97
5926,102
5927,114
5928,124
5929,123
5930,117
5931,105
5932,93
5933,83
5934,69
5935,50
5936,27
5937,5
5938,1
5939,3
5940,4
5941,28
5942,50
5943,53
5944,37
5945,-11
5946,-61
5947,-70
5948,-46
5949,10
5950,106
5951,192
5952,243
5953,242
5954,185
5955,121
5956,51
5957,10
5958,8
5959,9
5960,10
5961,21
5962,32
5963,36
5964,43
5965,54
5966,61
5967,61
5968,60
5969,63
5970,70
5971,71
5972,68
5973,56
5974,39
5975,22
5976,5
5977,-9
5978,-16
5979,-26
5980,-47
5981,-68
5982,-100
5983,-146
5984,-201
5985,-361
5986,-385
5987,-393
5988,-380
5989,-295
5990,-169
5991,-39
5992,114
5993,268
5994,388
5995,442
5996,382
5997,229
5998,112
5999,36
6000,-44
6001,-49
6002,41
6003,158
6004,287
6005,389
6006,434
6007,427
6008,362
6009,239
6010,153
6011,110
6012,-7
6013,-126
6014,-162
6015,-159
6016,-116
6017,41
6018,41
6019,128
6020,199
6021,219
6022,219
6023,227
6024,196
6025,139
6026,102
6027,67
6028,31
6029,7
6030,-17
6031,-39
6032,-52
6033,-74
6034,-105
6035,-117
6036,-134
6037,-155
6038,-139
6039,-106
6040,-67
6041,-33
6042,-31
6043,-59
6044,-104
6045,-147
6046,-168
6047,-145
6048,-105
6049,-74
6050,-46
6051,-53
6052,-63
6053,-75
6054,-65
6055,-42
6056,-8
6057,30
6058,56
6059,68
6060,64
6061,52
6062,54
6063,59
6064,58
6065,51
6066,41
6067,30
6068,25
6069,27
6070,27
6071,21
6072,14
6073,8
6074,13
6075,25
6076,28
6077,9
6078,-42
6079,-129
6080,-197
6081,-210
6082,-159
6083,-39
6084,101
6085,215
6086,290
6087,319
6088,326
6089,342
6090,377
6091,453
6092,541
6093,577
6094,568
6095,524
6096,433
6097,310
6098,198
6099,119
6100,71
6101,44
6102,20
6103,-11
6104,-50
6105,-89
6106,-117
6107,-138
6108,-140
6109,-126
6110,-104
6111,-82
6112,-64
6113,-40
6114,-35
6115,-37
6116,-48
6117,-58
6118,-68
6119,-87
6120,-106
6121,-113
6122,-126
6123,-164
6124,-215
6125,-240
6126,-240
6127,-224
6128,-190
6129,-155
6130,-121
6131,-88
6132,-52
6133,-13
6134,1
6135,-17
6136,-55
6137,-75
6138,-88
6139,-97
6140,-78
6141,-46
6142,-11
6143,16
6144,36
6145,34
6146,11
6147,-10
6148,-30
6149,-28
6150,-18
6151,0
6152,40
6153,79
6154,121
6155,177
6156,213
6157,176
6158,96
6159,17
6160,17
6161,-72
6162,-157
6163,-197
6164,-176
6165,-115
6166,-49
6167,22
6168,111
6169,186
6170,219
6171,232
6172,241
6173,207
6174,126
6175,67
6176,46
6177,9
6178,25
6179,67
6180,108
6181,130
6182,122
6183,104
6184,87
6185,58
6186,9
6187,-45
6188,-88
6189,-109
6190,-113
6191,-88
6192,-22
6193,62
6194,140
6195,202
6196,242
6197,242
6198,207
6199,161
6200,137
6201,122
6202,97
6203,68
6204,45
6205,50
6206,62
6207,68
6208,82
6209,96
6210,110
6211,119
6212,118
6213,103
6214,56
6215,-4
6216,-30
6217,-33
6218,-50
6219,-98
6220,-159
6221,-162
6222,-114
6223,-52
6224,49
6225,180
6226,298
6227,377
6228,403
6229,376
6230,294
6231,175
6232,103
6233,110
6234,131
6235,127
6236,120
6237,108
6238,85
6239,65
6240,81
6241,103
6242,117
6243,118
6244,99
6245,70
6246,42
6247,20
6248,9
6249,4
6250,3
6251,7
6252,7
6253,2
6254,-2
6255,-8
6256,-19
6257,-33
6258,-50
6259,-67
6260,-90
6261,-119
6262,-121
6263,-101
6264,-91
6265,-88
6266,-81
6267,-71
6268,-91
6269,-191
6270,-371
6271,-748
6272,-816
6273,-732
6274,-503
6275,-206
6276,98
6277,378
6278,573
6279,635
6280,575
6281,441
6282,306
6283,223
6284,181
6285,155
6286,151
6287,157
6288,163
6289,185
6290,197
6291,180
6292,156
6293,124
6294,95
6295,90
6296,107
6297,129
6298,146
6299,154
6300,147
6301,129
6302,129
6303,129
6304,77
6305,81
6306,80
6307,76
6308,67
6309,54
6310,44
6311,39
6312,40
6313,51
6314,67
6315,82
6316,86
6317,81
6318,74
6319,65
6320,56
6321,56
6322,64
6323,76
6324,84
6325,92
6326,97
6327,97
6328,90
6329,83
6330,85
6331,87
6332,81
6333,59
6334,-30
6335,-55
6336,-51
6337,-34
6338,-27
6339,-22
6340,-18
6341,-34
6342,-49
6343,-43
6344,-41
6345,-35
6346,10
6347,86
6348,153
6349,183
6350,178
6351,164
6352,143
6353,105
6354,77
6355,68
6356,56
6357,58
6358,90
6359,120
6360,123
6361,92
6362,32
6363,-32
6364,-94
6365,-175
6366,-198
6367,-195
6368,-171
6369,-161
6370,-227
6371,-351
6372,-411
6373,-402
6374,-352
6375,-217
6376,-28
6377,148
6378,297
6379,404
6380,453
6381,442
6382,370
6383,299
6384,303
6385,313
6386,282
6387,265
6388,261
6389,269
6390,309
6391,367
6392,431
6393,484
6394,515
6395,524
6396,433
6397,362
6398,279
6399,187
6400,99
6401,11
6402,-74
6403,-146
6404,-213
6405,-272
6406,-306
6407,-322
6408,-316
6409,-283
6410,-250
6411,-240
6412,-241
6413,-241
6414,-225
6415,-188
6416,-154
6417,-130
6418,-96
6419,-66
6420,-44
6421,-21
6422,-17
6423,-25
6424,-13
6425,7
6426,15
6427,6
6428,-44
6429,-53
6430,-52
6431,-46
6432,-29
6433,-22
6434,-21
6435,-8
6436,-4
6437,-17
6438,-43
6439,-85
6440,-126
6441,-150
6442,-159
6443,-145
6444,-145
6445,-108
6446,-57
6447,-10
6448,34
6449,71
6450,64
6451,0
6452,-112
6453,-236
6454,-325
6455,-363
6456,-339
6457,-240
6458,-89
6459,62
6460,283
6461,307
6462,275
6463,221
6464,184
6465,173
6466,163
6467,158
6468,146
6469,100
6470,36
6471,-4
6472,-1
6473,39
6474,98
6475,170
6476,259
6477,326
6478,343
6479,354
6480,350
6481,300
6482,252
6483,239
6484,234
6485,219
6486,200
6487,192
6488,205
6489,224
6490,238
6491,275
6492,255
6493,221
6494,193
6495,161
6496,139
6497,134
6498,144
6499,164
6500,184
6501,193
6502,174
6503,135
6504,114
6505,120
6506,146
6507,189
6508,237
6509,278
6510,302
6511,308
6512,303
6513,287
6514,265
6515,249
6516,263
6517,300
6518,317
6519,321
6520,327
6521,331
6522,334
6523,338
6524,296
6525,254
6526,209
6527,171
6528,158
6529,146
6530,143
6531,154
6532,142
6533,119
6534,99
6535,88
6536,99
6537,130
6538,182
6539,246
6540,290
6541,281
6542,221
6543,100
6544,-55
6545,-173
6546,-223
6547,-189
6548,-93
6549,9
6550,123
6551,237
6552,327
6553,391
6554,408
6555,256
6556,159
6557,76
6558,19
6559,-11
6560,-9
6561,48
6562,123
6563,192
6564,258
6565,290
6566,298
6567,310
6568,335
6569,362
6570,362
6571,325
6572,274
6573,228
6574,184
6575,170
6576,185
6577,203
6578,212
6579,206
6580,178
6581,146
6582,97
6583,28
6584,-35
6585,-82
6586,-47
6587,-47
6588,-5
6589,31
6590,76
6591,126
6592,179
6593,196
6594,136
6595,33
6596,-47
6597,-101
6598,-106
6599,-58
6600,-8
6601,24
6602,70
6603,120
6604,147
6605,172
6606,203
6607,244
6608,287
6609,291
6610,247
6611,169
6612,55
6613,-39
6614,-45
6615,14
6616,99
6617,217
6618,353
6619,345
6620,323
6621,298
6622,262
6623,222
6624,200
6625,205
6626,213
6627,213
6628,244
6629,288
6630,268
6631,187
6632,90
6633,0
6634,-47
6635,-22
6636,61
6637,192
6638,325
6639,410
6640,465
6641,475
6642,414
6643,341
6644,319
6645,343
6646,394
6647,429
6648,417
6649,313
6650,236
6651,185
6652,169
6653,177
6654,204
6655,234
6656,261
6657,280
6658,269
6659,238
6660,217
6661,198
6662,178
6663,174
6664,177
6665,174
6666,163
6667,144
6668,129
6669,119
6670,111
6671,110
6672,114
6673,116
6674,118
6675,126
6676,144
6677,168
6678,190
6679,206
6680,227
6681,225
6682,221
6683,223
6684,238
6685,264
6686,300
6687,331
6688,345
6689,337
6690,307
6691,262
6692,212
6693,158
6694,102
6695,55
6696,18
6697,-19
6698,-61
6699,-103
6700,-141
6701,-170
6702,-191
6703,-204
6704,-200
6705,-186
6706,-167
6707,-134
6708,-101
6709,-77
6710,-62
6711,-55
6712,-67
6713,-83
6714,-98
6715,-106
6716,-109
6717,-107
6718,-98
6719,-88
6720,-84
6721,-85
6722,-95
6723,-124
6724,-168
6725,-215
6726,-259
6727,-279
6728,-265
6729,-265
6730,-232
6731,-202
6732,-191
6733,-200
6734,-212
6735,-219
6736,-224
6737,-216
6738,-174
6739,-118
6740,-63
6741,-13
6742,5
6743,-6
6744,-29
6745,-33
6746,-31
6747,-40
6748,-59
6749,-71
6750,-94
6751,-132
6752,-154
6753,-170
6754,-180
6755,-158
6756,-121
6757,-100
6758,-93
6759,-115
6760,-196
6761,-312
6762,-419
6763,-509
6764,-572
6765,-605
6766,-596
6767,-509
6768,-353
6769,-173
6770,-1
6771,149
6772,242
6773,247
6774,206
6775,40
6776,-10
6777,13
6778,93
6779,214
6780,324
6781,386
6782,422
6783,428
6784,382
6785,320
6786,253
6787,167
6788,91
6789,31
6790,-27
6791,-58
6792,-43
6793,12
6794,87
6795,143
6796,181
6797,199
6798,192
6799,176
6800,138
6801,77
6802,0
6803,-84
6804,-134
6805,-129
6806,-15
6807,100
6808,231
6809,334
6810,397
6811,406
6812,374
6813,327
6814,279
6815,251
6816,245
6817,241
6818,228
6819,213
6820,195
6821,169
6822,148
6823,131
6824,108
6825,85
6826,63
6827,44
6828,31
6829,19
6830,7
6831,-3
6832,-10
6833,-19
6834,-31
6835,-42
6836,-58
6837,-78
6838,-116
6839,-129
6840,-131
6841,-125
6842,-113
6843,-97
6844,-89
6845,-86
6846,-82
6847,-82
6848,-85
6849,-77
6850,-63
6851,-54
6852,-46
6853,-44
6854,-50
6855,-62
6856,-84
6857,-107
6858,-122
6859,-130
6860,-132
6861,-127
6862,-122
6863,-125
6864,-137
6865,-155
6866,-173
6867,-185
6868,-191
6869,-198
6870,-214
6871,-214
6872,-243
6873,-272
6874,-295
6875,-297
6876,-282
6877,-255
6878,-213
6879,-177
6880,-160
6881,-155
6882,-166
6883,-186
6884,-195
6885,-182
6886,-148
6887,-94
6888,-27
6889,36
6890,85
6891,105
6892,100
6893,76
6894,19
6895,-49
6896,-100
6897,-125
6898,-132
6899,-146
6900,-155
6901,-103
6902,-99
6903,-176
6904,-339
6905,-505
6906,-619
6907,-662
6908,-610
6909,-486
6910,-326
6911,-146
6912,5
6913,78
6914,59
6915,-39
6916,-134
6917,-97
6918,27
6919,115
6920,125
6921,34
6922,-85
6923,-152
6924,-186
6925,-179
6926,-72
6927,115
6928,328
6929,541
6930,696
6931,739
6932,696
6933,564
6934,540
6935,484
6936,403
6937,347
6938,321
6939,304
6940,294
6941,283
6942,264
6943,244
6944,215
6945,186
6946,168
6947,158
6948,164
6949,179
6950,193
6951,206
6952,215
6953,212
6954,197
6955,171
6956,143
6957,130
6958,121
6959,80
6960,9
6961,-65
6962,-115
6963,-130
6964,-110
6965,0
6966,88
6967,192
6968,290
6969,358
6970,385
6971,389
6972,397
6973,405
6974,397
6975,377
6976,358
6977,363
6978,404
6979,454
6980,489
6981,502
6982,492
6983,452
6984,386
6985,302
6986,206
6987,108
6988,25
6989,-45
6990,-106
6991,-154
6992,-202
6993,-246
6994,-263
6995,-271
6996,-353
6997,-423
6998,-478
6999,-515
7000,-581
7001,-681
7002,-729
7003,-645
7004,-482
7005,-330
7006,-287
7007,-376
7008,-447
7009,-440
7010,-368
7011,-214
7012,-8
7013,-8
7014,209
7015,444
7016,664
7017,748
7018,691
7019,575
7020,484
7021,505
7022,565
7023,563
7024,499
7025,393
7026,274
7027,167
7028,0
7029,-40
7030,-41
7031,-26
7032,-1
7033,31
7034,74
7035,99
7036,105
7037,119
7038,71
7039,-83
7040,-319
7041,-560
7042,-693
7043,-709
7044,-623
7045,-429
7046,-156
7047,116
7048,295
7049,439
7050,626
7051,785
7052,894
7053,1017
7054,1117
7055,1054
7056,839
7057,579
7058,326
7059,-76
7060,-159
7061,-108
7062,-65
7063,-57
7064,18
7065,125
7066,211
7067,291
7068,348
7069,356
7070,314
7071,256
7072,210
7073,184
7074,174
7075,177
7076,195
7077,217
7078,221
7079,208
7080,181
7081,148
7082,115
7083,92
7084,82
7085,91
7086,112
7087,128
7088,135
7089,83
7090,55
7091,48
7092,47
7093,48
7094,49
7095,43
7096,48
7097,60
7098,71
7099,94
7100,128
7101,154
7102,169
7103,161
7104,120
7105,72
7106,38
7107,16
7108,3
7109,1
7110,10
7111,19
7112,27
7113,25
7114,16
7115,8
7116,-3
7117,-10
7118,-14
7119,-45
7120,-95
7121,-181
7122,-219
7123,-250
7124,-264
7125,-258
7126,-254
7127,-267
7128,-290
7129,-324
7130,-380
7131,-392
7132,-331
7133,-244
7134,-164
7135,-117
7136,-127
7137,-189
7138,-278
7139,-388
7140,-488
7141,-524
7142,-481
7143,-348
7144,-173
7145,-31
7146,50
7147,82
7148,69
7149,43
7150,42
7151,44
7152,-18
7153,-58
7154,-112
7155,-218
7156,-218
7157,-311
7158,-322
7159,-255
7160,-131
7161,-17
7162,6
7163,-31
7164,-84
7165,-146
7166,-167
7167,-137
7168,-85
7169,16
7170,119
7171,142
7172,72
7173,-58
7174,-189
7175,-279
7176,-303
7177,-275
7178,-254
7179,-294
7180,-337
7181,-337
7182,-337
7183,-311
7184,-218
7185,-53
7186,324
7187,406
7188,436
7189,383
7190,248
7191,128
7192,65
7193,13
7194,-24
7195,-41
7196,-72
7197,-105
7198,-130
7199,-147
7200,-150
7201,-140
7202,-117
7203,-85
7204,-51
7205,-26
7206,-21
7207,-32
7208,-55
7209,-81
7210,-101
7211,-127
7212,-173
7213,-217
7214,-248
7215,-263
7216,-261
7217,-216
7218,-169
7219,-119
7220,-78
7221,-50
7222,-38
7223,-43
7224,-45
7225,-50
7226,-66
7227,-91
7228,-127
7229,-152
7230,-153
7231,-150
7232,-144
7233,-140
7234,-158
7235,-188
7236,-210
7237,-239
7238,-276
7239,-307
7240,-325
7241,-337
7242,-374
7243,-437
7244,-470
7245,-455
7246,-427
7247,-367
7248,-120
7249,28
7250,145
7251,177
7252,96
7253,-26
7254,-114
7255,-154
7256,-168
7257,-163
7258,-112
7259,-16
7260,106
7261,216
7262,287
7263,321
7264,327
7265,358
7266,390
7267,363
7268,328
7269,319
7270,318
7271,278
7272,126
7273,-127
7274,-435
7275,-750
7276,-961
7277,-984
7278,-836
7279,-544
7280,221
7281,451
7282,528
7283,464
7284,303
7285,77
7286,-178
7287,-383
7288,-492
7289,-495
7290,-393
7291,-220
7292,-31
7293,128
7294,244
7295,307
7296,300
7297,242
7298,242
7299,192
7300,171
7301,176
7302,201
7303,198
7304,144
7305,90
7306,68
7307,73
7308,89
7309,102
7310,113
7311,107
7312,-108
7313,-229
7314,-300
7315,-326
7316,-306
7317,-264
7318,-178
7319,-61
7320,31
7321,79
7322,75
7323,26
7324,-37
7325,-94
7326,-157
7327,-213
7328,-229
7329,-185
7330,-53
7331,129
7332,276
7333,368
7334,415
7335,432
7336,405
7337,328
7338,245
7339,191
7340,156
7341,126
7342,94
7343,47
7344,31
7345,23
7346,17
7347,16
7348,10
7349,-33
7350,-100
7351,-132
7352,-128
7353,-142
7354,-195
7355,-252
7356,-272
7357,-269
7358,-232
7359,-121
7360,29
7361,161
7362,264
7363,328
7364,287
7365,130
7366,-35
7367,-155
7368,-271
7369,-391
7370,-436
7371,-385
7372,-268
7373,-95
7374,307
7375,479
7376,586
7377,656
7378,647
7379,515
7380,361
7381,281
7382,209
7383,95
7384,-23
7385,-122
7386,-156
7387,-111
7388,-24
7389,74
7390,173
7391,248
7392,283
7393,280
7394,209
7395,82
7396,-16
7397,-45
7398,-27
7399,-16
7400,-23
7401,-27
7402,-7
7403,40
7404,103
7405,177
7406,166
7407,171
7408,171
7409,137
7410,79
7411,48
7412,91
7413,178
7414,253
7415,271
7416,190
7417,20
7418,-134
7419,-221
7420,-254
7421,-202
7422,-102
7423,5
7424,127
7425,227
7426,247
7427,177
7428,47
7429,-68
7430,-101
7431,-81
7432,-48
7433,2
7434,54
7435,152
7436,152
7437,85
7438,-1
7439,-70
7440,-70
7441,-127
7442,-165
7443,-158
7444,-123
7445,-86
7446,-19
7447,71
7448,143
7449,182
7450,191
7451,186
7452,165
7453,107
7454,41
7455,16
7456,14
7457,13
7458,19
7459,29
7460,24
7461,7
7462,-25
7463,-66
7464,-85
7465,-99
7466,-120
7467,-102
7468,-81
7469,-59
7470,-33
7471,-16
7472,-10
7473,-10
7474,-22
7475,-24
7476,-20
7477,-11
7478,31
7479,72
7480,54
7481,-16
7482,-106
7483,-187
7484,-244
7485,-253
7486,-211
7487,-113
7488,9
7489,94
7490,128
7491,99
7492,30
7493,-15
7494,-19
7495,41
7496,141
7497,221
7498,233
7499,159
7500,48
7501,-32
7502,-51
7503,-23
7504,-18
7505,-98
7506,-187
7507,-227
7508,-226
7509,-157
7510,-28
7511,98
7512,219
7513,346
7514,413
7515,328
7516,96
7517,-141
7518,-245
7519,-233
7520,-166
7521,-43
7522,108
7523,248
7524,372
7525,471
7526,488
7527,398
7528,269
7529,163
7530,113
7531,15
7532,-107
7533,-201
7534,-246
7535,-235
7536,-170
7537,-67
7538,74
7539,201
7540,223
7541,137
7542,22
7543,-95
7544,-190
7545,-201
7546,-148
7547,-113
7548,-89
7549,-30
7550,36
7551,96
7552,170
7553,274
7554,422
7555,562
7556,645
7557,674
7558,665
7559,613
7560,603
7561,592
7562,514
7563,425
7564,323
7565,214
7566,128
7567,81
7568,68
7569,71
7570,73
7571,50
7572,10
7573,-36
7574,-100
7575,-154
7576,-173
7577,-167
7578,-150
7579,-129
7580,-114
7581,-102
7582,-102
7583,-81
7584,-65
7585,-56
7586,-43
7587,-22
7588,3
7589,9
7590,-49
7591,-173
7592,-422
7593,-449
7594,-378
7595,-226
7596,-19
7597,194
7598,371
7599,470
7600,464
7601,370
7602,242
7603,140
7604,79
7605,43
7606,26
7607,27
7608,45
7609,75
7610,104
7611,120
7612,132
7613,138
7614,114
7615,54
7616,-16
7617,-73
7618,-107
7619,-117
7620,-93
7621,-37
7622,26
7623,118
7624,134
7625,122
7626,94
7627,65
7628,14
7629,-56
7630,-114
7631,-178
7632,-256
7633,-295
7634,-266
7635,-179
7636,-51
7637,93
7638,229
7639,325
7640,351
7641,339
7642,322
7643,260
7644,160
7645,90
7646,64
7647,39
7648,-13
7649,-75
7650,-121
7651,-138
7652,-141
7653,-124
7654,18
7655,110
7656,197
7657,254
7658,259
7659,215
7660,149
7661,94
7662,57
7663,36
7664,47
7665,101
7666,166
7667,218
7668,245
7669,233
7670,192
7671,159
7672,156
7673,168
7674,158
7675,111
7676,60
7677,28
7678,8
7679,15
7680,59
7681,119
7682,161
7683,191
7684,220
7685,211
7686,210
7687,242
7688,277
7689,280
7690,252
7691,181
7692,59
7693,-73
7694,-163
7695,-174
7696,-115
7697,-7
7698,117
7699,225
7700,294
7701,322
7702,323
7703,284
7704,223
7705,197
7706,198
7707,163
7708,66
7709,-48
7710,-148
7711,-214
7712,-212
7713,-145
7714,-31
7715,93
7716,253
7717,266
7718,198
7719,93
7720,11
7721,-59
7722,-116
7723,-124
7724,-86
7725,-86
7726,-7
7727,98
7728,200
7729,280
7730,297
7731,240
7732,147
7733,37
7734,-85
7735,-158
7736,-153
7737,-140
7738,-148
7739,-125
7740,-69
7741,-4
7742,72
7743,166
7744,241
7745,224
7746,92
7747,-123
7748,-613
7749,-708
7750,-621
7751,-402
7752,-127
7753,140
7754,300
7755,335
7756,273
7757,196
7758,193
7759,245
7760,361
7761,489
7762,545
7763,539
7764,518
7765,498
7766,475
7767,466
7768,476
7769,486
7770,476
7771,413
7772,314
7773,215
7774,147
7775,143
7776,156
7777,144
7778,120
7779,97
7780,123
7781,95
7782,-3
7783,-98
7784,-168
7785,-209
7786,-198
7787,-143
7788,-54
7789,68
7790,193
7791,288
7792,316
7793,220
7794,61
7795,-27
7796,-30
7797,6
7798,63
7799,145
7800,243
7801,332
7802,380
7803,397
7804,389
7805,328
7806,221
7807,122
7808,41
7809,-44
7810,-116
7811,-147
7812,-37
7813,64
7814,174
7815,272
7816,316
7817,277
7818,153
7819,-2
7820,-119
7821,-189
7822,-205
7823,-110
7824,74
7825,216
7826,262
7827,252
7828,187
7829,54
7830,-78
7831,-99
7832,6
7833,147
7834,297
7835,442
7836,493
7837,405
7838,236
7839,78
7840,-25
7841,-77
7842,114
7843,324
7844,521
7845,678
7846,753
7847,702
7848,549
7849,367
7850,219
7851,124
7852,90
7853,101
7854,102
7855,62
7856,-18
7857,-93
7858,-133
7859,-156
7860,-151
7861,-92
7862,-9
7863,45
7864,71
7865,84
7866,71
7867,71
7868,52
7869,62
7870,108
7871,141
7872,115
7873,62
7874,8
7875,-44
7876,-37
7877,-21
7878,1
7879,4
7880,-4
7881,-8
7882,-14
7883,-25
7884,-28
7885,-28
7886,-30
7887,-36
7888,-41
7889,-34
7890,-27
7891,-29
7892,-26
7893,-15
7894,-5
7895,-4
7896,2
7897,11
7898,4
7899,-9
7900,-19
7901,-33
7902,-59
7903,-91
7904,-115
7905,-131
7906,-139
7907,-93
7908,-71
7909,-98
7910,-167
7911,-251
7912,-299
7913,-314
7914,-372
7915,-451
7916,-465
7917,-397
7918,-271
7919,-89
7920,143
7921,341
7922,394
7923,330
7924,254
7925,160
7926,28
7927,-20
7928,98
7929,294
7930,448
7931,538
7932,571
7933,522
7934,391
7935,284
7936,260
7937,256
7938,236
7939,176
7940,134
7941,111
7942,98
7943,88
7944,84
7945,57
7946,1
7947,-43
7948,-58
7949,-38
7950,13
7951,82
7952,166
7953,250
7954,303
7955,321
7956,318
7957,270
7958,188
7959,124
7960,75
7961,30
7962,20
7963,39
7964,32
7965,-7
7966,-36
7967,-35
7968,-11
7969,45
7970,143
7971,288
7972,322
7973,343
7974,317
7975,262
7976,221
7977,231
7978,268
7979,273
7980,255
7981,227
7982,153
7983,80
7984,81
7985,89
7986,51
7987,12
7988,-19
7989,-70
7990,-121
7991,-145
7992,-123
7993,-76
7994,-19
7995,63
7996,146
7997,169
7998,146
7999,115
8000,76
8001,28
8002,-1
8003,5
8004,-9
8005,-23
8006,-22
8007,-29
8008,-52
8009,-52
8010,-62
8011,-50
8012,-32
8013,-17
8014,-10
8015,-32
8016,-89
8017,-154
8018,-190
8019,-187
8020,-142
8021,-84
8022,-43
8023,15
8024,68
8025,66
8026,46
8027,44
8028,32
8029,0
8030,-21
8031,-19
8032,0
8033,16
8034,25
8035,80
8036,231
8037,247
8038,228
8039,161
8040,77
8041,39
8042,39
8043,27
8044,5
8045,-3
8046,-9
8047,-10
8048,-16
8049,-49
8050,-70
8051,-44
8052,5
8053,50
8054,59
8055,19
8056,-14
8057,-11
8058,-22
8059,-92
8060,-207
8061,-295
8062,-315
8063,-280
8064,-192
8065,-50
8066,120
8067,426
8068,514
8069,507
8070,408
8071,247
8072,87
8073,-34
8074,-117
8075,-161
8076,-176
8077,-177
8078,-151
8079,-113
8080,-83
8081,-49
8082,-46
8083,-89
8084,-110
8085,-49
8086,63
8087,153
8088,243
8089,367
8090,439
8091,360
8092,217
8093,105
8094,0
8095,-43
8096,34
8097,177
8098,323
8099,428
8100,402
8101,289
8102,121
8103,41
8104,53
8105,52
8106,54
8107,65
8108,45
8109,41
8110,63
8111,55
8112,22
8113,10
8114,15
8115,16
8116,16
8117,16
8118,35
8119,73
8120,96
8121,72
8122,-20
8123,-140
8124,-204
8125,-177
8126,-80
8127,54
8128,211
8129,347
8130,407
8131,420
8132,425
8133,424
8134,500
8135,606
8136,633
8137,583
8138,479
8139,340
8140,230
8141,170
8142,162
8143,199
8144,240
8145,250
8146,203
8147,63
8148,-145
8149,-296
8150,-364
8151,-364
8152,-378
8153,-287
8154,-118
8155,45
8156,170
8157,227
8158,199
8159,109
8160,-9
8161,-102
8162,-109
8163,-83
8164,-85
8165,-60
8166,-80
8167,-85
8168,-87
8169,-104
8170,-99
8171,-58
8172,0
8173,63
8174,125
8175,197
8176,223
8177,84
8178,-119
8179,-230
8180,-293
8181,-298
8182,-177
8183,33
8184,249
8185,406
8186,488
8187,473
8188,337
8189,132
8190,15
8191,18
8192,33
8193,53
8194,97
8195,136
8196,171
8197,220
8198,191
8199,148
8200,114
8201,74
8202,38
8203,32
8204,46
8205,45
8206,5
8207,-32
8208,-50
8209,-104
8210,-198
8211,-232
8212,-168
8213,-101
8214,-71
8215,-5
8216,84
8217,135
8218,164
8219,214
8220,258
8221,232
8222,142
8223,81
8224,83
8225,60
8226,5
8227,24
8228,94
8229,141
8230,190
8231,197
8232,204
8233,213
8234,240
8235,277
8236,258
8237,186
8238,129
8239,99
8240,95
8241,109
8242,115
8243,130
8244,152
8245,140
8246,110
8247,84
8248,57
8249,59
8250,86
8251,84
8252,60
8253,30
8254,0
8255,-6
8256,19
8257,72
8258,153
8259,244
8260,314
8261,337
8262,212
8263,118
8264,65
8265,48
8266,36
8267,33
8268,53
8269,51
8270,11
8271,-50
8272,-107
8273,-113
8274,-69
8275,11
8276,108
8277,179
8278,215
8279,236
8280,218
8281,124
8282,8
8283,-71
8284,-115
8285,-126
8286,-106
8287,-64
8288,-12
8289,50
8290,125
8291,188
8292,220
8293,179
8294,100
8295,48
8296,-6
8297,-68
8298,-111
8299,-131
8300,-135
8301,-126
8302,-92
8303,-33
8304,41
8305,90
8306,114
8307,144
8308,170
8309,183
8310,144
8311,39
8312,-64
8313,-128
8314,-136
8315,-105
8316,-105
8317,-146
8318,-171
8319,-174
8320,-186
8321,-187
8322,-162
8323,-104
8324,8
8325,146
8326,272
8327,291
8328,64
8329,-143
8330,-260
8331,-343
8332,-336
8333,-198
8334,6
8335,216
8336,370
8337,439
8338,431
8339,327
8340,166
8341,88
8342,94
8343,83
8344,41
8345,-7
8346,-50
8347,-101
8348,-155
8349,-176
8350,-162
8351,-133
8352,-89
8353,-55
8354,-51
8355,-44
8356,-36
8357,-20
8358,29
8359,-9
8360,-32
8361,-16
8362,-13
8363,-10
8364,29
8365,107
8366,187
8367,230
8368,240
8369,224
8370,162
8371,90
8372,78
8373,117
8374,132
8375,117
8376,121
8377,136
8378,130
8379,114
8380,117
8381,111
8382,58
8383,-35
8384,-145
8385,-253
8386,-320
8387,-309
8388,-227
8389,-102
8390,59
8391,219
8392,271
8393,170
8394,63
8395,-3
8396,-17
8397,14
8398,27
8399,-7
8400,-69
8401,-144
8402,-196
8403,-201
8404,-168
8405,-79
8406,43
8407,142
8408,204
8409,221
8410,186
8411,165
8412,182
8413,158
8414,85
8415,13
8416,-71
8417,-144
8418,-155
8419,-92
8420,36
8421,184
8422,316
8423,422
8424,496
8425,458
8426,434
8427,404
8428,359
8429,317
8430,265
8431,228
8432,194
8433,137
8434,81
8435,45
8436,45
8437,0
8438,-63
8439,-109
8440,-134
8441,-147
8442,-137
8443,-115
8444,-86
8445,-57
8446,-41
8447,-36
8448,-40
8449,-53
8450,-73
8451,-72
8452,-34
8453,11
8454,28
8455,17
8456,-21
8457,-99
8458,-189
8459,-282
8460,-235
8461,-142
8462,-8
8463,109
8464,176
8465,199
8466,176
8467,130
8468,95
8469,80
8470,86
8471,104
8472,110
8473,108
8474,108
8475,76
8476,37
8477,47
8478,58
8479,71
8480,115
8481,148
8482,154
8483,136
8484,95
8485,63
8486,48
8487,30
8488,26
8489,42
8490,57
8491,57
8492,58
8493,33
8494,-43
8495,-156
8496,-266
8497,-338
8498,-345
8499,-302
8500,-249
8501,-150
8502,-10
8503,114
8504,216
8505,282
8506,298
8507,293
8508,290
8509,291
8510,277
8511,208
8512,92
8513,27
8514,20
8515,6
8516,-10
8517,-8
8518,17
8519,50
8520,82
8521,106
8522,103
8523,74
8524,28
8525,33
8526,50
8527,40
8528,30
8529,65
8530,97
8531,99
8532,118
8533,135
8534,88
8535,9
8536,-47
8537,-72
8538,-61
8539,-21
8540,62
8541,201
8542,331
8543,402
8544,425
8545,389
8546,280
8547,178
8548,115
8549,71
8550,56
8551,68
8552,79
8553,95
8554,129
8555,156
8556,132
8557,75
8558,27
8559,-4
8560,-8
8561,17
8562,39
8563,50
8564,73
8565,103
8566,116
8567,110
8568,98
8569,84
8570,87
8571,102
8572,97
8573,47
8574,-35
8575,-107
8576,-144
8577,-150
8578,-150
8579,-137
8580,-96
8581,-25
8582,51
8583,109
8584,126
8585,102
8586,63
8587,15
8588,-55
8589,-149
8590,-153
8591,-124
8592,-72
8593,-6
8594,75
8595,135
8596,132
8597,82
8598,14
8599,-82
8600,-161
8601,-168
8602,-134
8603,-80
8604,-17
8605,37
8606,84
8607,116
8608,85
8609,-12
8610,-84
8611,-109
8612,-117
8613,-100
8614,-59
8615,-10
8616,48
8617,94
8618,111
8619,116
8620,104
8621,40
8622,43
8623,-4
8624,-79
8625,-129
8626,-150
8627,-128
8628,-60
8629,27
8630,96
8631,108
8632,87
8633,57
8634,-8
8635,-95
8636,-130
8637,-99
8638,-43
8639,19
8640,86
8641,148
8642,175
8643,176
8644,196
8645,162
8646,27
8647,-94
8648,-166
8649,-222
8650,-215
8651,-142
8652,-41
8653,192
8654,264
8655,300
8656,253
8657,141
8658,54
8659,-18
8660,-97
8661,-117
8662,-88
8663,-40
8664,41
8665,121
8666,165
8667,173
8668,117
8669,-27
8670,-213
8671,-332
8672,-338
8673,-261
8674,-117
8675,73
8676,267
8677,412
8678,488
8679,480
8680,371
8681,203
8682,49
8683,-23
8684,-33
8685,-27
8686,63
8687,118
8688,153
8689,172
8690,159
8691,120
8692,76
8693,46
8694,30
8695,29
8696,25
8697,4
8698,-45
8699,-107
8700,-143
8701,-164
8702,-170
8703,-138
8704,-80
8705,-12
8706,54
8707,102
8708,105
8709,61
8710,-7
8711,-62
8712,-62
8713,-36
8714,-19
8715,22
8716,74
8717,92
8718,141
8719,161
8720,161
8721,181
8722,231
8723,300
8724,366
8725,403
8726,404
8727,411
8728,421
8729,388
8730,318
8731,225
8732,119
8733,35
8734,-32
8735,-84
8736,-124
8737,-153
8738,-154
8739,-137
8740,-113
8741,-93
8742,-86
8743,-65
8744,-18
8745,-1
8746,-40
8747,-80
8748,-106
8749,-109
8750,-73
8751,-34
8752,-25
8753,-41
8754,-104
8755,-179
8756,-227
8757,-240
8758,-201
8759,-132
8760,-52
8761,30
8762,83
8763,95
8764,96
8765,82
8766,31
8767,-13
8768,-40
8769,-100
8770,-176
8771,-221
8772,-229
8773,-221
8774,-204
8775,-151
8776,-81
8777,-22
8778,50
8779,120
8780,146
8781,131
8782,88
8783,19
8784,-67
8785,-94
8786,-97
8787,-72
8788,-24
8789,33
8790,54
8791,18
8792,-21
8793,-51
8794,-80
8795,-65
8796,-3
8797,56
8798,108
8799,139
8800,119
8801,67
8802,0
8803,-79
8804,-111
8805,-73
8806,-8
8807,68
8808,142
8809,181
8810,165
8811,96
8812,14
8813,-29
8814,-50
8815,-83
8816,-77
8817,-70
8818,-47
8819,-34
8820,-44
8821,-47
8822,-28
8823,11
8824,52
8825,86
8826,133
8827,183
8828,176
8829,97
8830,-37
8831,-202
8832,-318
8833,-338
8834,-285
8835,-160
8836,14
8837,174
8838,294
8839,362
8840,350
8841,290
8842,229
8843,183
8844,163
8845,137
8846,25
8847,-9
8848,-38
8849,-48
8850,-22
8851,19
8852,63
8853,95
8854,89
8855,59
8856,25
8857,-20
8858,-75
8859,-104
8860,-99
8861,-68
8862,-13
8863,-13
8864,51
8865,106
8866,134
8867,117
8868,70
8869,23
8870,-29
8871,-84
8872,-114
8873,-121
8874,-104
8875,-57
8876,-15
8877,4
8878,22
8879,-21
8880,-71
8881,-127
8882,-188
8883,-221
8884,-214
8885,-193
8886,-166
8887,-129
8888,-78
8889,-10
8890,60
8891,116
8892,167
8893,201
8894,190
8895,144
8896,91
8897,19
8898,-43
8899,-45
8900,-29
8901,-44
8902,-64
8903,-80
8904,-86
8905,-66
8906,-41
8907,-41
8908,-43
8909,-41
8910,-51
8911,-44
8912,-13
8913,42
8914,61
8915,19
8916,-33
8917,-99
8918,-176
8919,-193
8920,-141
8921,-56
8922,45
8923,131
8924,171
8925,158
8926,95
8927,22
8928,-9
8929,-8
8930,-4
8931,14
8932,28
8933,32
8934,30
8935,9
8936,-28
8937,-57
8938,-54
8939,-34
8940,-17
8941,2
8942,26
8943,39
8944,36
8945,-15
8946,-91
8947,-152
8948,-209
8949,-275
8950,-317
8951,-286
8952,-189
8953,-63
8954,74
8955,207
8956,294
8957,314
8958,313
8959,305
8960,249
8961,164
8962,105
8963,88
8964,85
8965,84
8966,81
8967,67
8968,38
8969,10
8970,-3
8971,-13
8972,-14
8973,-4
8974,-46
8975,-66
8976,-78
8977,-101
8978,-105
8979,-79
8980,-55
8981,-13
8982,40
8983,71
8984,65
8985,5
8986,-45
8987,-51
8988,-45
8989,-24
8990,40
8991,124
8992,197
8993,248
8994,232
8995,145
8996,44
8997,-39
8998,-57
8999,-6
9000,43
9001,73
9002,88
9003,79
9004,60
9005,60
9006,60
9007,64
9008,131
9009,188
9010,207
9011,200
9012,142
9013,60
9014,25
9015,36
9016,72
9017,158
9018,271
9019,342
9020,364
9021,348
9022,295
9023,235
9024,173
9025,128
9026,132
9027,156
9028,167
9029,178
9030,171
9031,120
9032,53
9033,-17
9034,-100
9035,-169
9036,-228
9037,-265
9038,-205
9039,-159
9040,-117
9041,-78
9042,-55
9043,-61
9044,-96
9045,-131
9046,-130
9047,-104
9048,-66
9049,-27
9050,-19
9051,-53
9052,-83
9053,-92
9054,-128
9055,-177
9056,-189
9057,-153
9058,-74
9059,17
9060,74
9061,100
9062,117
9063,126
9064,140
9065,150
9066,128
9067,104
9068,103
9069,101
9070,87
9071,23
9072,4
9073,16
9074,27
9075,35
9076,45
9077,53
9078,60
9079,62
9080,65
9081,65
9082,39
9083,-22
9084,-85
9085,-123
9086,-123
9087,-107
9088,-82
9089,-27
9090,48
9091,99
9092,102
9093,71
9094,21
9095,-7
9096,-5
9097,13
9098,56
9099,104
9100,145
9101,201
9102,255
9103,278
9104,264
9105,232
9106,228
9107,200
9108,146
9109,113
9110,109
9111,112
9112,116
9113,120
9114,112
9115,56
9116,-34
9117,-115
9118,-165
9119,-159
9120,-83
9121,46
9122,196
9123,332
9124,404
9125,381
9126,293
9127,196
9128,134
9129,119
9130,149
9131,215
9132,277
9133,321
9134,336
9135,319
9136,301
9137,282
9138,287
9139,300
9140,282
9141,257
9142,243
9143,223
9144,211
9145,211
9146,209
9147,209
9148,225
9149,247
9150,246
9151,237
9152,213
9153,177
9154,148
9155,131
9156,120
9157,119
9158,137
9159,158
9160,166
9161,171
9162,177
9163,172
9164,144
9165,95
9166,61
9167,60
9168,76
9169,104
9170,185
9171,199
9172,156
9173,85
9174,6
9175,-58
9176,-67
9177,-4
9178,92
9179,172
9180,224
9181,257
9182,290
9183,296
9184,220
9185,127
9186,74
9187,35
9188,15
9189,29
9190,63
9191,117
9192,189
9193,255
9194,293
9195,272
9196,184
9197,105
9198,81
9199,67
9200,55
9201,60
9202,72
9203,92
9204,108
9205,113
9206,96
9207,61
9208,36
9209,10
9210,-16
9211,-7
9212,9
9213,22
9214,57
9215,96
9216,119
9217,138
9218,148
9219,128
9220,91
9221,54
9222,17
9223,-8
9224,-31
9225,-38
9226,-7
9227,27
9228,44
9229,30
9230,-1
9231,-29
9232,-38
9233,6
9234,107
9235,80
9236,42
9237,7
9238,-23
9239,-23
9240,12
9241,92
9242,202
9243,285
9244,317
9245,303
9246,237
9247,157
9248,114
9249,101
9250,94
9251,90
9252,93
9253,103
9254,94
9255,59
9256,20
9257,-6
9258,-19
9259,-30
9260,-44
9261,-40
9262,-6
9263,39
9264,67
9265,64
9266,-10
9267,-57
9268,-64
9269,-45
9270,0
9271,69
9272,135
9273,169
9274,173
9275,136
9276,82
9277,66
9278,77
9279,110
9280,170
9281,216
9282,233
9283,225
9284,187
9285,138
9286,107
9287,84
9288,67
9289,67
9290,67
9291,67
9292,66
9293,62
9294,55
9295,53
9296,40
9297,8
9298,-29
9299,-80
9300,-77
9301,-48
9302,24
9303,83
9304,37
9305,-87
9306,-201
9307,-277
9308,-299
9309,-206
9310,8
9311,272
9312,478
9313,599
9314,656
9315,621
9316,498
9317,409
9318,445
9319,497
9320,448
9321,365
9322,318
9323,265
9324,192
9325,153
9326,179
9327,239
9328,292
9329,308
9330,252
9331,-117
9332,-240
9333,-255
9334,-219
9335,-148
9336,-39
9337,104
9338,236
9339,296
9340,284
9341,208
9342,102
9343,43
9344,34
9345,36
9346,64
9347,108
9348,153
9349,213
9350,263
9351,280
9352,245
9353,143
9354,7
9355,-86
9356,-127
9357,-110
9358,-12
9359,81
9360,111
9361,128
9362,100
9363,70
9364,51
9365,49
9366,81
9367,112
9368,125
9369,136
9370,114
9371,87
9372,125
9373,183
9374,212
9375,225
9376,215
9377,179
9378,155
9379,144
9380,129
9381,100
9382,50
9383,-2
9384,-35
9385,-60
9386,-69
9387,-46
9388,-2
9389,54
9390,112
9391,159
9392,184
9393,178
9394,68
9395,12
9396,-30
9397,-53
9398,-42
9399,-7
9400,42
9401,91
9402,127
9403,142
9404,130
9405,105
9406,88
9407,84
9408,94
9409,79
9410,27
9411,-9
9412,-33
9413,-53
9414,-38
9415,1
9416,50
9417,100
9418,129
9419,138
9420,124
9421,59
9422,-4
9423,-6
9424,10
9425,10
9426,-2
9427,1
9428,31
9429,83
9430,159
9431,241
9432,241
9433,307
9434,362
9435,392
9436,380
9437,335
9438,276
9439,234
9440,217
9441,206
9442,192
9443,174
9444,155
9445,142
9446,138
9447,136
9448,137
9449,141
9450,146
9451,143
9452,126
9453,102
9454,73
9455,38
9456,1
9457,-21
9458,-13
9459,29
9460,39
9461,47
9462,57
9463,74
9464,99
9465,128
9466,162
9467,191
9468,208
9469,221
9470,212
9471,175
9472,139
9473,120
9474,115
9475,111
9476,100
9477,82
9478,72
9479,68
9480,70
9481,82
9482,95
9483,107
9484,120
9485,123
9486,117
9487,116
9488,111
9489,81
9490,28
9491,-64
9492,-84
9493,-113
9494,-137
9495,-109
9496,-56
9497,-18
9498,24
9499,77
9500,122
9501,173
9502,204
9503,187
9504,145
9505,81
9506,27
9507,52
9508,98
9509,90
9510,53
9511,28
9512,13
9513,-7
9514,-25
9515,-15
9516,49
9517,147
9518,228
9519,281
9520,287
9521,240
9522,146
9523,132
9524,106
9525,82
9526,68
9527,47
9528,34
9529,39
9530,42
9531,31
9532,18
9533,3
9534,-10
9535,-5
9536,18
9537,54
9538,86
9539,71
9540,25
9541,-21
9542,-68
9543,-87
9544,-59
9545,-11
9546,47
9547,114
9548,159
9549,159
9550,126
9551,74
9552,44
9553,64
9554,166
9555,212
9556,216
9557,193
9558,176
9559,155
9560,117
9561,83
9562,62
9563,59
9564,61
9565,54
9566,44
9567,42
9568,36
9569,29
9570,39
9571,52
9572,53
9573,48
9574,48
9575,44
9576,44
9577,45
9578,47
9579,41
9580,10
9581,-58
9582,-130
9583,-179
9584,-197
9585,-168
9586,-90
9587,8
9588,148
9589,147
9590,76
9591,-41
9592,-143
9593,-177
9594,-136
9595,-52
9596,43
9597,125
9598,173
9599,183
9600,164
9601,133
9602,100
9603,84
9604,96
9605,118
9606,131
9607,134
9608,121
9609,95
9610,71
9611,58
9612,55
9613,62
9614,67
9615,53
9616,40
9617,46
9618,66
9619,114
9620,217
9621,196
9622,178
9623,163
9624,132
9625,107
9626,109
9627,132
9628,180
9629,239
9630,267
9631,195
9632,-1
9633,-211
9634,-343
9635,-420
9636,-429
9637,-333
9638,-166
9639,17
9640,176
9641,257
9642,231
9643,132
9644,22
9645,-15
9646,18
9647,68
9648,141
9649,215
9650,248
9651,252
9652,163
9653,106
9654,93
9655,87
9656,69
9657,60
9658,55
9659,43
9660,23
9661,6
9662,2
9663,-5
9664,-14
9665,-16
9666,-16
9667,-29
9668,-46
9669,-51
9670,-39
9671,-32
9672,-49
9673,-80
9674,-115
9675,-149
9676,-165
9677,-138
9678,-58
9679,38
9680,93
9681,70
9682,9
9683,-42
9684,-87
9685,-8
9686,126
9687,263
9688,361
9689,402
9690,364
9691,257
9692,135
9693,70
9694,68
9695,67
9696,58
9697,63
9698,69
9699,71
9700,78
9701,93
9702,109
9703,121
9704,130
9705,112
9706,56
9707,-3
9708,-46
9709,-51
9710,-31
9711,-10
9712,16
9713,37
9714,48
9715,90
9716,90
9717,124
9718,175
9719,235
9720,271
9721,274
9722,230
9723,152
9724,76
9725,24
9726,6
9727,29
9728,81
9729,152
9730,225
9731,262
9732,255
9733,236
9734,204
9735,169
9736,144
9737,132
9738,129
9739,143
9740,160
9741,147
9742,100
9743,39
9744,9
9745,22
9746,53
9747,91
9748,127
9749,157
9750,192
9751,194
9752,181
9753,165
9754,161
9755,166
9756,144
9757,98
9758,55
9759,23
9760,24
9761,53
9762,84
9763,116
9764,158
9765,191
9766,170
9767,69
9768,-53
9769,-134
9770,-181
9771,-188
9772,-131
9773,-35
9774,66
9775,159
9776,191
9777,118
9778,-9
9779,-121
9780,-163
9781,-2
9782,123
9783,246
9784,304
9785,288
9786,224
9787,105
9788,-31
9789,-94
9790,-75
9791,-29
9792,28
9793,93
9794,145
9795,167
9796,157
9797,139
9798,127
9799,109
9800,89
9801,72
9802,58
9803,47
9804,29
9805,15
9806,9
9807,2
9808,-3
9809,-21
9810,-60
9811,-103
9812,-126
9813,-67
9814,-36
9815,-62
9816,-127
9817,-191
9818,-239
9819,-244
9820,-177
9821,-51
9822,80
9823,184
9824,254
9825,267
9826,215
9827,142
9828,107
9829,135
9830,180
9831,207
9832,215
9833,199
9834,152
9835,105
9836,89
9837,86
9838,80
9839,74
9840,67
9841,63
9842,52
9843,34
9844,23
9845,13
9846,12
9847,11
9848,8
9849,9
9850,8
9851,11
9852,15
9853,6
9854,-18
9855,-53
9856,-80
9857,-91
9858,-91
9859,-96
9860,-91
9861,-64
9862,-23
9863,26
9864,67
9865,58
9866,3
9867,-64
9868,-118
9869,-125
9870,-88
9871,-33
9872,19
9873,54
9874,72
9875,76
9876,63
9877,44
9878,104
9879,163
9880,209
9881,226
9882,205
9883,150
9884,90
9885,57
9886,45
9887,43
9888,50
9889,52
9890,43
9891,35
9892,31
9893,22
9894,12
9895,12
9896,22
9897,31
9898,36
9899,43
9900,41
9901,26
9902,7
9903,-13
9904,-34
9905,-42
9906,-34
9907,-20
9908,-4
9909,14
9910,17
9911,-24
9912,-60
9913,-85
9914,-94
9915,-62
9916,11
9917,90
9918,159
9919,214
9920,253
9921,265
9922,246
9923,220
9924,216
9925,208
9926,194
9927,204
9928,226
9929,248
9930,293
9931,359
9932,421
9933,469
9934,493
9935,485
9936,444
9937,365
9938,265
9939,180
9940,104
9941,34
9942,-57
9943,-103
9944,-151
9945,-197
9946,-230
9947,-250
9948,-257
9949,-243
9950,-201
9951,-156
9952,-124
9953,-112
9954,-137
9955,-201
9956,-267
9957,-302
9958,-310
9959,-312
9960,-274
9961,-170
9962,-42
9963,46
9964,73
9965,52
9966,18
9967,-14
9968,-14
9969,33
9970,103
9971,165
9972,229
9973,281
9974,232
9975,151
9976,88
9977,67
9978,62
9979,54
9980,49
9981,50
9982,60
9983,52
9984,-1
9985,-89
9986,-167
9987,-204
9988,-225
9989,-256
9990,-287
9991,-284
9992,-234
9993,-160
9994,-54
9995,76
9996,188
9997,266
9998,325
9999,336
10000,336
10001,243
10002,82
10003,-55
10004,-114
10005,-87
10006,89
10007,176
10008,210
10009,182
10010,139
10011,113
10012,99
10013,121
10014,181
10015,239
10016,271
10017,258
10018,200
10019,131
10020,86
10021,72
10022,104
10023,162
10024,206
10025,219
10026,198
10027,164
10028,122
10029,79
10030,38
10031,20
10032,32
10033,50
10034,78
10035,125
10036,174
10037,213
10038,203
10039,169
10040,119
10041,39
10042,-46
10043,-101
10044,-158
10045,-191
10046,-148
10047,-66
10048,45
10049,191
10050,326
10051,424
10052,479
10053,470
10054,423
10055,367
10056,290
10057,205
10058,132
10059,60
10060,0
10061,-39
10062,-68
10063,-63
10064,-4
10065,62
10066,101
10067,123
10068,131
10069,49
10070,7
10071,-28
10072,-31
10073,19
10074,95
10075,163
10076,155
10077,76
10078,9
10079,-52
10080,-125
10081,-133
10082,-59
10083,35
10084,155
10085,286
10086,358
10087,350
10088,248
10089,96
10090,0
10091,-58
10092,-101
10093,-72
10094,25
10095,131
10096,229
10097,294
10098,267
10099,155
10100,8
10101,-100
10102,-37
10103,49
10104,147
10105,236
10106,298
10107,317
10108,290
10109,237
10110,200
10111,199
10112,227
10113,245
10114,227
10115,187
10116,117
10117,23
10118,-50
10119,-106
10120,-160
10121,-185
10122,-160
10123,-92
10124,20
10125,171
10126,304
10127,370
10128,345
10129,257
10130,156
10131,57
10132,-10
10133,65
10134,166
10135,270
10136,337
10137,328
10138,240
10139,122
10140,54
10141,58
10142,116
10143,116
10144,171
10145,176
10146,166
10147,160
10148,148
10149,157
10150,194
10151,214
10152,224
10153,224
10154,173
10155,110
10156,46
10157,3
10158,60
10159,183
10160,297
10161,392
10162,450
10163,421
10164,347
10165,286
10166,199
10167,168
10168,110
10169,61
10170,6
10171,-40
10172,-30
10173,23
10174,95
10175,195
10176,313
10177,400
10178,434
10179,427
10180,407
10181,371
10182,253
10183,97
10184,6
10185,-47
10186,-61
10187,2
10188,115
10189,246
10190,372
10191,442
10192,430
10193,367
10194,271
10195,172
10196,133
10197,129
10198,132
10199,153
10200,121
10201,36
10202,-67
10203,-128
10204,-80
10205,53
10206,207
10207,376
10208,527
10209,573
10210,509
10211,421
10212,350
10213,282
10214,251
10215,307
10216,357
10217,307
10218,201
10219,88
10220,-1
10221,-44
10222,-26
10223,57
10224,160
10225,207
10226,194
10227,181
10228,168
10229,126
10230,116
10231,232
10232,279
10233,322
10234,362
10235,410
10236,477
10237,537
10238,560
10239,552
10240,499
10241,422
10242,322
10243,164
10244,20
10245,-62
10246,-98
10247,-84
10248,-35
10249,7
10250,18
10251,26
10252,54
10253,78
10254,73
10255,62
10256,95
10257,135
10258,155
10259,160
10260,110
10261,1
10262,-94
10263,-85
10264,-26
10265,61
10266,194
10267,308
10268,337
10269,278
10270,164
10271,35
10272,-55
10273,-50
10274,33
10275,133
10276,222
10277,293
10278,349
10279,326
10280,174
10281,-11
10282,-123
10283,-158
10284,-119
10285,-119
10286,-3
10287,153
10288,318
10289,461
10290,532
10291,499
10292,352
10293,171
10294,82
10295,76
10296,179
10297,251
10298,264
10299,255
10300,214
10301,139
10302,83
10303,49
10304,31
10305,47
10306,56
10307,37
10308,25
10309,21
10310,22
10311,51
10312,97
10313,144
10314,199
10315,216
10316,193
10317,194
10318,205
10319,187
10320,171
10321,170
10322,162
10323,163
10324,177
10325,181
10326,180
10327,167
10328,139
10329,114
10330,91
10331,87
10332,82
10333,82
10334,106
10335,134
10336,150
10337,156
10338,151
10339,142
10340,138
10341,137
10342,131
10343,124
10344,108
10345,39
10346,-65
10347,-132
10348,-127
10349,-61
10350,28
10351,130
10352,241
10353,269
10354,179
10355,84
10356,23
10357,-32
10358,-16
10359,106
10360,405
10361,496
10362,525
10363,479
10364,327
10365,129
10366,-10
10367,-69
10368,-21
10369,94
10370,205
10371,322
10372,431
10373,481
10374,421
10375,247
10376,70
10377,-44
10378,-120
10379,-142
10380,-87
10381,-10
10382,56
10383,156
10384,263
10385,324
10386,309
10387,222
10388,136
10389,88
10390,42
10391,-17
10392,-49
10393,-86
10394,-128
10395,-104
10396,-30
10397,17
10398,62
10399,101
10400,125
10401,120
10402,65
10403,13
10404,-48
10405,-139
10406,-207
10407,-215
10408,-232
10409,-269
10410,-229
10411,-135
10412,-48
10413,29
10414,105
10415,162
10416,207
10417,249
10418,272
10419,278
10420,263
10421,256
10422,252
10423,219
10424,193
10425,183
10426,136
10427,136
10428,104
10429,67
10430,-1
10431,-25
10432,39
10433,115
10434,134
10435,107
10436,63
10437,-29
10438,-109
10439,-75
10440,18
10441,105
10442,171
10443,229
10444,261
10445,199
10446,79
10447,-8
10448,-33
10449,-20
10450,26
10451,74
10452,45
10453,-28
10454,-80
10455,-93
10456,-104
10457,-193
10458,-195
10459,457
10460,713
10461,872
10462,907
10463,782
10464,522
10465,182
10466,-141
10467,-394
10468,-564
10469,-518
10470,-269
10471,-111
10472,-112
10473,-81
10474,6
10475,69
10476,85
10477,70
10478,40
10479,-2
10480,-32
10481,-42
10482,-49
10483,-45
10484,-35
10485,-11
10486,31
10487,60
10488,64
10489,67
10490,49
10491,49
10492,48
10493,54
10494,54
10495,30
10496,12
10497,-3
10498,-32
10499,-35
10500,-5
10501,10
10502,20
10503,45
10504,57
10505,70
10506,49
10507,-55
10508,-182
10509,-292
10510,-371
10511,-358
10512,-241
10513,-78
10514,99
10515,245
10516,319
10517,320
10518,249
10519,172
10520,136
10521,121
10522,100
10523,39
10524,-15
10525,-30
10526,-70
10527,-130
10528,-136
10529,-121
10530,-72
10531,-6
10532,35
10533,151
10534,337
10535,444
10536,460
10537,444
10538,373
10539,332
10540,413
10541,510
10542,579
10543,595
10544,534
10545,435
10546,252
10547,5
10548,-166
10549,-212
10550,-51
10551,293
10552,534
10553,584
10554,268
10555,0
10556,-301
10557,-610
10558,-705
10559,-598
10560,-460
10561,-234
10562,1
10563,-56
10564,-214
10565,-139
10566,18
10567,167
10568,318
10569,318
10570,404
10571,423
10572,334
10573,130
10574,-99
10575,-262
10576,-335
10577,-229
10578,80
10579,306
10580,350
10581,350
10582,257
10583,77
10584,-90
10585,-224
10586,-329
10587,-218
10588,-118
10589,-82
10590,-85
10591,-107
10592,-142
10593,-172
10594,-179
10595,-192
10596,-212
10597,-117
10598,126
10599,359
10600,490
10601,498
10602,422
10603,343
10604,288
10605,233
10606,67
10607,197
10608,960
10609,1603
10610,1797
10611,1927
10612,1811
10613,1285
10614,731
10615,377
10616,329
10617,575
10618,787
10619,1181
10620,1383
10621,573
10622,30
10623,-501
10624,-1043
10625,-1285
10626,-1324
10627,-1215
10628,-1031
10629,-943
10630,-819
10631,-640
10632,-515
10633,-356
10634,-224
10635,-217
10636,-222
10637,-233
10638,-314
10639,-393
10640,-418
10641,-403
10642,-365
10643,-321
10644,-281
10645,-243
10646,-240
10647,-278
10648,-264
10649,-221
10650,-235
10651,-250
10652,-179
10653,-223
10654,-283
10655,-318
10656,-415
10657,-489
10658,-288
10659,42
10660,225
10661,307
10662,341
10663,212
10664,-74
10665,-252
10666,-239
10667,-145
10668,0
10669,97
10670,169
10671,165
10672,-50
10673,-254
10674,-286
10675,-309
10676,-344
10677,-241
10678,-192
10679,-347
10680,-428
10681,-425
10682,-418
10683,-259
10684,-214
10685,-334
10686,-406
10687,-455
10688,-462
10689,-381
10690,-249
10691,-142
10692,-107
10693,-236
10694,-437
10695,-445
10696,-360
10697,-280
10698,-80
10699,101
10700,72
10701,-178
10702,-508
10703,-707
10704,-768
10705,-720
10706,-500
10707,-179
10708,94
10709,261
10710,314
10711,257
10712,257
10713,108
10714,-62
10715,-181
10716,-229
10717,-257
10718,-136
10719,-123
10720,-177
10721,-130
10722,-69
10723,-70
10724,-140
10725,-160
10726,-42
10727,189
10728,344
10729,333
10730,250
10731,-16
10732,-408
10733,-685
10734,-809
10735,-901
10736,-990
10737,-920
10738,-619
10739,-219
10740,-148
10741,-228
10742,107
10743,509
10744,766
10745,1065
10746,1149
10747,950
10748,656
10749,-230
10750,-631
10751,-956
10752,-1056
10753,-817
10754,-637
10755,-592
10756,-424
10757,-258
10758,-176
10759,-70
10760,93
10761,244
10762,253
10763,253
10764,329
10765,197
10766,-71
10767,-271
10768,-473
10769,-576
10770,-572
10771,-565
10772,-432
10773,-287
10774,-366
10775,-460
10776,-403
10777,-398
10778,-387
10779,-237
10780,-137
10781,-80
10782,-116
10783,-261
10784,-360
10785,-424
10786,-433
10787,-324
10788,-202
10789,-181
10790,-170
10791,-153
10792,-150
10793,-134
10794,-154
10795,-132
10796,-64
10797,-46
10798,-12
10799,34
10800,13
10801,-28
10802,-42
10803,-84
10804,-115
10805,-86
10806,-84
10807,-47
10808,-16
10809,-82
10810,-76
10811,-51
10812,-110
10813,-108
10814,-46
10815,-44
10816,23
10817,42
10818,39
10819,41
10820,12
10821,21
10822,10
10823,-53
10824,-60
10825,-36
10826,-41
10827,-24
10828,8
10829,14
10830,27
10831,44
10832,47
10833,113
10834,230
10835,315
10836,399
10837,442
10838,390
10839,385
10840,474
10841,511
10842,470
10843,404
10844,321
10845,228
10846,96
10847,-8
10848,75
10849,117
10850,209
10851,299
10852,242
10853,32
10854,32
10855,-165
10856,-165
10857,-79
10858,-74
10859,-26
10860,74
10861,76
10862,-8
10863,-90
10864,-130
10865,-111
10866,-50
10867,33
10868,179
10869,279
10870,193
10871,70
10872,-1
10873,-75
10874,-154
10875,-228
10876,-255
10877,-197
10878,-64
10879,62
10880,135
10881,161
10882,90
10883,37
10884,-36
10885,-90
10886,-14
10887,116
10888,288
10889,419
10890,374
10891,254
10892,146
10893,48
10894,-10
10895,72
10896,183
10897,218
10898,258
10899,204
10900,107
10901,45
10902,-49
10903,-81
10904,-19
10905,49
10906,92
10907,181
10908,255
10909,259
10910,264
10911,199
10912,174
10913,343
10914,269
10915,158
10916,5
10917,-147
10918,-262
10919,-326
10920,-260
10921,-68
10922,44
10923,72
10924,118
10925,11
10926,-171
10927,-192
10928,-55
10929,193
10930,457
10931,607
10932,655
10933,623
10934,458
10935,228
10936,99
10937,60
10938,68
10939,129
10940,178
10941,197
10942,215
10943,219
10944,214
10945,202
10946,157
10947,141
10948,134
10949,147
10950,157
10951,144
10952,112
10953,80
10954,56
10955,36
10956,26
10957,26
10958,45
10959,80
10960,103
10961,115
10962,127
10963,134
10964,135
10965,126
10966,123
10967,167
10968,196
10969,123
10970,7
10971,-55
10972,-48
10973,14
10974,63
10975,27
10976,-10
10977,-30
10978,-57
10979,0
10980,50
10981,139
10982,263
10983,346
10984,338
10985,235
10986,96
10987,51
10988,80
10989,89
10990,106
10991,107
10992,85
10993,62
10994,7
10995,-72
10996,-72
10997,-139
10998,-162
10999,-148
11000,-110
11001,-50
11002,21
11003,85
11004,98
11005,76
11006,46
11007,0
11008,-47
11009,-65
11010,-50
11011,-35
11012,-32
11013,-42
11014,-59
11015,-74
11016,-90
11017,-100
11018,-102
11019,-88
11020,-67
11021,-48
11022,-6
11023,32
11024,-13
11025,-76
11026,-119
11027,-197
11028,-239
11029,-231
11030,-191
11031,-57
11032,106
11033,170
11034,181
11035,173
11036,33
11037,-130
11038,-112
11039,-17
11040,87
11041,218
11042,310
11043,354
11044,306
11045,-10
11046,-71
11047,-121
11048,-159
11049,-68
11050,27
11051,12
11052,-24
11053,-45
11054,-68
11055,-85
11056,-92
11057,-80
11058,-49
11059,-13
11060,7
11061,4
11062,-24
11063,-69
11064,-125
11065,-169
11066,-175
11067,-145
11068,-94
11069,-30
11070,35
11071,85
11072,108
11073,114
11074,99
11075,84
11076,64
11077,5
11078,-3
11079,-11
11080,-18
11081,-20
11082,-19
11083,-15
11084,-8
11085,-6
11086,-9
11087,-12
11088,-23
11089,-15
11090,34
11091,51
11092,3
11093,-72
11094,-150
11095,-218
11096,-245
11097,-227
11098,-164
11099,-58
11100,32
11101,115
11102,215
11103,178
11104,-15
11105,-173
11106,-261
11107,-302
11108,-288
11109,-239
11110,171
11111,342
11112,403
11113,417
11114,295
11115,87
11116,-34
11117,-103
11118,-139
11119,-123
11120,-107
11121,-42
11122,39
11123,24
11124,-19
11125,-11
11126,13
11127,48
11128,94
11129,121
11130,146
11131,171
11132,180
11133,180
11134,183
11135,204
11136,254
11137,302
11138,302
11139,303
11140,244
11141,169
11142,99
11143,-4
11144,-5
11145,47
11146,63
11147,18
11148,27
11149,21
11150,-71
11151,-162
11152,-200
11153,-160
11154,-32
11155,94
11156,147
11157,169
11158,90
11159,-92
11160,-178
11161,-259
11162,-397
11163,-433
11164,-433
11165,-399
11166,-279
11167,-193
11168,-140
11169,-31
11170,105
11171,221
11172,334
11173,367
11174,308
11175,260
11176,120
11177,110
11178,103
11179,87
11180,77
11181,65
11182,54
11183,47
11184,42
11185,36
11186,30
11187,25
11188,23
11189,16
11190,6
11191,1
11192,-7
11193,0
11194,12
11195,4
11196,15
11197,41
11198,13
11199,-6
11200,25
11201,-11
11202,-81
11203,-113
11204,-152
11205,-124
11206,-48
11207,-1
11208,189
11209,202
11210,209
11211,231
11212,168
11213,105
11214,103
11215,92
11216,109
11217,121
11218,85
11219,71
11220,69
11221,47
11222,35
11223,33
11224,33
11225,41
11226,46
11227,46
11228,44
11229,43
11230,49
11231,64
11232,55
11233,36
11234,54
11235,65
11236,56
11237,58
11238,66
11239,75
11240,83
11241,68
11242,34
11243,-18
11244,-53
11245,-20
11246,28
11247,90
11248,190
11249,265
11250,281
11251,261
11252,218
11253,152
11254,99
11255,88
11256,109
11257,154
11258,194
11259,200
11260,177
11261,126
11262,71
11263,52
11264,32
11265,-1
11266,0
11267,36
11268,83
11269,109
11270,89
11271,39
11272,-15
11273,-59
11274,-19
11275,32
11276,104
11277,188
11278,236
11279,240
11280,205
11281,205
11282,143
11283,93
11284,92
11285,120
11286,112
11287,60
11288,13
11289,-30
11290,-77
11291,-78
11292,-23
11293,48
11294,93
11295,107
11296,121
11297,114
11298,60
11299,26
11300,38
11301,18
11302,-7
11303,39
11304,99
11305,113
11306,142
11307,145
11308,129
11309,101
11310,59
11311,-42
11312,-220
11313,-358
11314,-372
11315,-337
11316,-269
11317,-93
11318,118
11319,269
11320,435
11321,619
11322,688
11323,651
11324,574
11325,476
11326,379
11327,244
11328,54
11329,-119
11330,-244
11331,-315
11332,-264
11333,-121
11334,-19
11335,73
11336,193
11337,280
11338,346
11339,294
11340,230
11341,208
11342,202
11343,190
11344,210
11345,236
11346,207
11347,136
11348,26
11349,-89
11350,-137
11351,-124
11352,-39
11353,105
11354,248
11355,374
11356,493
11357,554
11358,485
11359,346
11360,244
11361,207
11362,214
11363,248
11364,302
11365,347
11366,376
11367,391
11368,374
11369,347
11370,339
11371,321
11372,370
11373,390
11374,373
11375,334
11376,288
11377,253
11378,207
11379,160
11380,174
11381,258
11382,328
11383,351
11384,368
11385,367
11386,315
11387,234
11388,174
11389,156
11390,165
11391,218
11392,310
11393,346
11394,270
11395,153
11396,68
11397,49
11398,97
11399,195
11400,326
11401,472
11402,615
11403,561
11404,438
11405,278
11406,175
11407,155
11408,192
11409,252
11410,300
11411,329
11412,350
11413,353
11414,306
11415,265
11416,296
11417,360
11418,452
11419,558
11420,619
11421,624
11422,578
11423,578
11424,510
11425,457
11426,434
11427,435
11428,463
11429,509
11430,548
11431,586
11432,606
11433,587
11434,569
11435,540
11436,508
11437,473
11438,447
11439,413
11440,369
11441,340
11442,316
11443,292
11444,287
11445,244
11446,143
11447,60
11448,13
11449,-7
11450,15
11451,95
11452,237
11453,368
11454,420
11455,439
11456,440
11457,380
11458,314
11459,306
11460,274
11461,194
11462,135
11463,107
11464,119
11465,161
11466,249
11467,521
11468,586
11469,621
11470,574
11471,470
11472,422
11473,401
11474,366
11475,373
11476,429
11477,482
11478,496
11479,467
11480,427
11481,378
11482,294
11483,222
11484,200
11485,169
11486,155
11487,221
11488,298
11489,323
11490,312
11491,297
11492,280
11493,252
11494,221
11495,206
11496,213
11497,232
11498,257
11499,290
11500,277
11501,272
11502,297
11503,311
11504,294
11505,281
11506,287
11507,314
11508,378
11509,471
11510,537
11511,525
11512,450
11513,369
11514,287
11515,188
11516,131
11517,174
11518,276
11519,349
11520,347
11521,319
11522,269
11523,192
11524,178
11525,255
11526,348
11527,425
11528,474
11529,486
11530,475
11531,359
11532,350
11533,355
11534,309
11535,255
11536,216
11537,191
11538,190
11539,218
11540,266
11541,321
11542,406
11543,427
11544,314
11545,233
11546,255
11547,254
11548,271
11549,414
11550,563
11551,636
11552,659
11553,570
11554,427
11555,277
11556,113
11557,94
11558,190
11559,214
11560,232
11561,305
11562,303
11563,277
11564,237
11565,237
11566,186
11567,197
11568,182
11569,119
11570,69
11571,44
11572,49
11573,89
11574,139
11575,198
11576,247
11577,237
11578,200
11579,167
11580,131
11581,102
11582,90
11583,96
11584,118
11585,154
11586,176
11587,159
11588,141
11589,134
11590,111
11591,66
11592,4
11593,-54
11594,-77
11595,-55
11596,90
11597,190
11598,247
11599,270
11600,259
11601,184
11602,97
11603,85
11604,153
11605,240
11606,305
11607,301
11608,184
11609,11
11610,-119
11611,-161
11612,-129
11613,-32
11614,149
11615,368
11616,488
11617,462
11618,376
11619,266
11620,126
11621,31
11622,29
11623,52
11624,55
11625,74
11626,128
11627,172
11628,182
11629,193
11630,202
11631,208
11632,208
11633,203
11634,199
11635,192
11636,190
11637,190
11638,189
11639,189
11640,189
11641,191
11642,195
11643,198
11644,204
11645,210
11646,214
11647,227
11648,236
11649,219
11650,199
11651,182
11652,149
11653,147
11654,165
11655,170
11656,234
11657,315
11658,348
11659,370
11660,336
11661,309
11662,273
11663,222
11664,172
11665,132
11666,153
11667,247
11668,301
11669,322
11670,378
11671,415
11672,397
11673,325
11674,222
11675,142
11676,79
11677,53
11678,104
11679,166
11680,197
11681,239
11682,300
11683,328
11684,293
11685,234
11686,182
11687,142
11688,113
11689,92
11690,74
11691,70
11692,75
11693,67
11694,71
11695,73
11696,78
11697,66
11698,53
11699,77
11700,87
11701,56
11702,19
11703,-4
11704,-10
11705,-2
11706,1
11707,1
11708,1
11709,30
11710,78
11711,130
11712,195
11713,217
11714,173
11715,108
11716,18
11717,-40
11718,-7
11719,56
11720,106
11721,194
11722,283
11723,296
11724,240
11725,150
11726,54
11727,-78
11728,-98
11729,-79
11730,-89
11731,-160
11732,-255
11733,-344
11734,-443
11735,-578
11736,-675
11737,-690
11738,-660
11739,-583
11740,-467
11741,-337
11742,-207
11743,-126
11744,-137
11745,-184
11746,-240
11747,-331
11748,-399
11749,-428
11750,-463
11751,-486
11752,-491
11753,-491
11754,-489
11755,-498
11756,-522
11757,-541
11758,-551
11759,-583
11760,-596
11761,-608
11762,-617
11763,-624
11764,-629
11765,-634
11766,-637
11767,-641
11768,-647
11769,-654
11770,-661
11771,-668
11772,-673
11773,-677
11774,-680
11775,-683
11776,-688
11777,-695
11778,-704
11779,-712
11780,-720
11781,-730
11782,-741
11783,-750
11784,-756
11785,-757
11786,-756
11787,-764
11788,-784
11789,-795
11790,-797
11791,-866
11792,-884
11793,-874
11794,-857
11795,-816
11796,-780
11797,-800
11798,-805
11799,-789
11800,-800
11801,-823
11802,-868
11803,-885
11804,-861
11805,-827
11806,-775
11807,-744
11808,-749
11809,-761
11810,-742
11811,-725
11812,-763
11813,-813
11814,-850
11815,-875
11816,-866
11817,-818
11818,-782
11819,-811
11820,-846
11821,-847
11822,-870
11823,-923
11824,-984
11825,-1049
11826,-1088
11827,-1092
11828,-1039
11829,-977
11830,-924
11831,-842
11832,-791
11833,-828
11834,-881
11835,-932
11836,-993
11837,-986
11838,-945
11839,-966
11840,-964
11841,-913
11842,-884
11843,-847
11844,-809
11845,-771
11846,-682
11847,-640
11848,-677
11849,-731
11850,-731
11851,-831
11852,-947
11853,-984
11854,-983
11855,-1036
11856,-1230
11857,-1256
11858,-1251
11859,-1226
11860,-1163
11861,-1091
11862,-1040
11863,-1012
11864,-1024
11865,-1078
11866,-1166
11867,-1259
11868,-1305
11869,-1324
11870,-1355
11871,-1365
11872,-1345
11873,-1344
11874,-1359
11875,-1371
11876,-1385
11877,-1398
11878,-1405
11879,-1409
11880,-1410
11881,-1408
11882,-1405
11883,-1407
11884,-1411
11885,-1415
11886,-1430
11887,-1446
11888,-1458
11889,-1466
11890,-1481
11891,-1506
11892,-1539
11893,-1564
11894,-1577
11895,-1579
11896,-1566
11897,-1541
11898,-1514
11899,-1491
11900,-1475
11901,-1472
11902,-1478
11903,-1486
11904,-1490
11905,-1490
11906,-1492
11907,-1507
11908,-1557
11909,-1598
11910,-1553
11911,-1534
11912,-1621
11913,-1593
11914,-1426
11915,-1355
11916,-1334
11917,-1269
11918,-1181
11919,-1142
11920,-1584
11921,-1733
11922,-1831
11923,-1931
11924,-1839
11925,-1539
11926,-1144
11927,-686
11928,-252
11929,-56
11930,-169
11931,-265
11932,-192
11933,-126
11934,-71
11935,-91
11936,-332
11937,-600
11938,-774
11939,-1022
11940,-1295
11941,-1483
11942,-1511
11943,-1223
11944,-879
11945,-831
11946,-891
11947,-919
11948,-995
11949,-1045
11950,-1066
11951,-1126
11952,-1189
11953,-1131
11954,-1061
11955,-980
11956,-889
11957,-837
11958,-802
11959,-744
11960,-699
11961,-667
11962,-635
11963,-619
11964,-610
11965,-595
11966,-587
11967,-579
11968,-560
11969,-545
11970,-532
11971,-503
11972,-468
11973,-449
11974,-427
11975,-401
11976,-379
11977,-357
11978,-336
11979,-314
11980,-294
11981,-270
11982,-241
11983,-213
11984,-175
11985,-174
11986,-183
11987,-200
11988,-211
11989,-218
11990,-212
11991,-196
11992,-196
11993,-193
11994,-173
11995,-130
11996,-92
11997,-48
11998,-16
11999,-8
12000,-2
12001,0
12002,-8
12003,-4
12004,9
12005,18
12006,59
12007,120
12008,176
12009,232
12010,259
12011,285
12012,324
12013,311
12014,263
12015,223
12016,194
12017,222
12018,288
12019,358
12020,389
12021,387
12022,392
12023,410
12024,414
12025,395
12026,376
12027,377
12028,367
12029,311
12030,260
12031,250
12032,255
12033,271
12034,296
12035,311
12036,296
12037,235
12038,169
12039,170
12040,224
12041,258
12042,273
12043,311
12044,327
12045,295
12046,257
12047,229
12048,208
12049,265
12050,336
12051,407
12052,453
12053,471
12054,458
12055,429
12056,433
12057,437
12058,412
12059,407
12060,436
12061,464
12062,469
12063,451
12064,426
12065,411
12066,384
12067,367
12068,404
12069,436
12070,434
12071,441
12072,434
12073,378
12074,302
12075,230
12076,161
12077,140
12078,248
12079,456
12080,649
12081,800
12082,1034
12083,1023
12084,929
12085,809
12086,675
12087,531
12088,425
12089,404
12090,411
12091,386
12092,381
12093,454
12094,551
12095,591
12096,590
12097,596
12098,593
12099,576
12100,567
12101,561
12102,548
12103,539
12104,545
12105,557
12106,571
12107,576
12108,576
12109,577
12110,582
12111,590
12112,596
12113,597
12114,597
12115,610
12116,599
12117,560
12118,532
12119,529
12120,529
12121,538
12122,580
12123,627
12124,659
12125,689
12126,725
12127,749
12128,741
12129,720
12130,722
12131,742
12132,728
12133,693
12134,693
12135,702
12136,702
12137,680
12138,683
12139,695
12140,699
12141,684
12142,663
12143,635
12144,600
12145,564
12146,535
12147,525
12148,464
12149,465
12150,514
12151,604
12152,701
12153,783
12154,832
12155,863
12156,872
12157,842
12158,790
12159,738
12160,697
12161,686
12162,699
12163,703
12164,693
12165,665
12166,633
12167,640
12168,658
12169,652
12170,644
12171,631
12172,605
12173,575
12174,549
12175,523
12176,502
12177,491
12178,475
12179,469
12180,492
12181,523
12182,568
12183,584
12184,579
12185,657
12186,735
12187,748
12188,817
12189,845
12190,748
12191,640
12192,512
12193,375
12194,300
12195,264
12196,287
12197,409
12198,513
12199,543
12200,604
12201,614
12202,545
12203,521
12204,526
12205,519
12206,516
12207,516
12208,514
12209,508
12210,512
12211,525
12212,527
12213,549
12214,564
12215,583
12216,562
12217,515
12218,521
12219,538
12220,537
12221,561
12222,578
12223,573
12224,597
12225,658
12226,670
12227,654
12228,734
12229,863
12230,952
12231,974
12232,899
12233,753
12234,580
12235,445
12236,450
12237,642
12238,875
12239,1044
12240,1206
12241,1241
12242,1046
12243,740
12244,431
12245,25
12246,73
12247,238
12248,436
12249,612
12250,683
12251,686
12252,705
12253,724
12254,682
12255,621
12256,575
12257,559
12258,616
12259,621
12260,564
12261,574
12262,578
12263,544
12264,551
12265,580
12266,587
12267,601
12268,637
12269,687
12270,742
12271,749
12272,728
12273,727
12274,715
12275,691
12276,689
12277,704
12278,717
12279,716
12280,701
12281,683
12282,674
12283,672
12284,660
12285,646
12286,651
12287,654
12288,638
12289,627
12290,632
12291,652
12292,686
12293,725
12294,755
12295,781
12296,811
12297,832
12298,857
12299,896
12300,931
12301,974
12302,1046
12303,1099
12304,1080
12305,1058
12306,1041
12307,995
12308,973
12309,900
12310,810
12311,705
12312,600
12313,501
12314,388
12315,303
12316,321
12317,368
12318,380
12319,447
12320,539
12321,602
12322,730
12323,891
12324,982
12325,989
12326,909
12327,773
12328,609
12329,429
12330,299
12331,271
12332,299
12333,356
12334,457
12335,524
12336,525
12337,529
12338,547
12339,560
12340,572
12341,582
12342,596
12343,598
12344,596
12345,590
12346,581
12347,575
12348,572
12349,573
12350,576
12351,580
12352,582
12353,583
12354,583
12355,581
12356,578
12357,580
12358,584
12359,593
12360,603
12361,609
12362,611
12363,612
12364,610
12365,609
12366,608
12367,605
12368,603
12369,599
12370,584
12371,585
12372,616
12373,626
12374,568
12375,615
12376,678
12377,732
12378,754
12379,726
12380,692
12381,679
12382,711
12383,781
12384,781
12385,735
12386,745
12387,747
12388,667
12389,545
12390,425
12391,351
12392,362
12393,419
12394,470
12395,498
12396,474
12397,461
12398,493
12399,498
12400,479
12401,465
12402,458
12403,465
12404,477
12405,477
12406,463
12407,460
12408,456
12409,454
12410,450
12411,445
12412,440
12413,439
12414,439
12415,440
12416,437
12417,438
12418,429
12419,429
12420,396
12421,400
12422,451
12423,479
12424,509
12425,551
12426,557
12427,537
12428,499
12429,446
12430,399
12431,334
12432,278
12433,285
12434,311
12435,301
12436,297
12437,304
12438,287
12439,263
12440,212
12441,196
12442,181
12443,192
12444,218
12445,228
12446,232
12447,227
12448,212
12449,201
12450,190
12451,182
12452,181
12453,179
12454,178
12455,176
12456,171
12457,169
12458,167
12459,164
12460,156
12461,150
12462,154
12463,164
12464,171
12465,177
12466,181
12467,175
12468,164
12469,152
12470,129
12471,126
12472,88
12473,95
12474,226
12475,312
12476,331
12477,348
12478,302
12479,218
12480,116
12481,-6
12482,-86
12483,-109
12484,-137
12485,-92
12486,73
12487,145
12488,123
12489,143
12490,152
12491,130
12492,82
12493,16
12494,-24
12495,-58
12496,-81
12497,-47
12498,62
12499,172
12500,222
12501,236
12502,183
12503,-125
12504,-260
12505,-321
12506,-330
12507,-270
12508,-153
12509,-38
12510,28
12511,29
12512,-7
12513,-44
12514,-64
12515,-61
12516,-27
12517,-3
12518,-23
12519,-33
12520,-31
12521,-44
12522,-54
12523,-64
12524,-76
12525,-88
12526,-108
12527,-128
12528,-119
12529,-56
12530,4
12531,17
12532,9
12533,-24
12534,-72
12535,-96
12536,-91
12537,-68
12538,-48
12539,-49
12540,-55
12541,-109
12542,-216
12543,-278
12544,-280
12545,-259
12546,-225
12547,-202
12548,-201
12549,-201
12550,-187
12551,-184
12552,-194
12553,-203
12554,-213
12555,-221
12556,-221
12557,-219
12558,-209
12559,-191
12560,-175
12561,-175
12562,-162
12563,-145
12564,-140
12565,-148
12566,-154
12567,-173
12568,-191
12569,-161
12570,-92
12571,-77
12572,-75
12573,-74
12574,-82
12575,-115
12576,-130
12577,-120
12578,-138
12579,-158
12580,-111
12581,-21
12582,49
12583,115
12584,212
12585,303
12586,315
12587,252
12588,158
12589,46
12590,-81
12591,-187
12592,-225
12593,-209
12594,-215
12595,-243
12596,-249
12597,-277
12598,-313
12599,-316
12600,-319
12601,-318
12602,-272
12603,-213
12604,-142
12605,-114
12606,-119
12607,-137
12608,-179
12609,-214
12610,-252
12611,-302
12612,-300
12613,-233
12614,-164
12615,-111
12616,-80
12617,-96
12618,-112
12619,-99
12620,-96
12621,-119
12622,-142
12623,-167
12624,-194
12625,-213
12626,-247
12627,-282
12628,-272
12629,-240
12630,-199
12631,-170
12632,-194
12633,-225
12634,-160
12635,-130
12636,-76
12637,5
12638,46
12639,12
12640,-71
12641,-168
12642,-266
12643,-366
12644,-412
12645,-355
12646,-238
12647,-111
12648,0
12649,82
12650,106
12651,53
12652,-40
12653,-113
12654,-151
12655,-196
12656,-205
12657,-144
12658,-92
12659,-79
12660,-86
12661,-101
12662,-115
12663,-137
12664,-162
12665,-171
12666,-172
12667,-137
12668,-136
12669,-142
12670,-70
12671,45
12672,106
12673,104
12674,62
12675,-24
12676,-146
12677,-265
12678,-318
12679,-315
12680,-290
12681,-214
12682,-116
12683,-31
12684,36
12685,66
12686,80
12687,96
12688,89
12689,56
12690,12
12691,-39
12692,-72
12693,-81
12694,-91
12695,-59
12696,9
12697,18
12698,-5
12699,3
12700,-9
12701,-17
12702,-37
12703,-37
12704,-65
12705,-22
12706,79
12707,172
12708,241
12709,252
12710,198
12711,104
12712,-24
12713,-151
12714,-226
12715,-252
12716,-234
12717,-150
12718,-64
12719,-42
12720,-43
12721,-44
12722,-44
12723,-50
12724,-68
12725,-65
12726,-53
12727,-49
12728,-29
12729,-7
12730,0
12731,5
12732,-63
12733,-112
12734,-147
12735,-160
12736,-152
12737,-139
12738,-117
12739,-100
12740,-101
12741,-100
12742,-85
12743,-89
12744,-92
12745,-50
12746,2
12747,15
12748,8
12749,8
12750,-8
12751,-69
12752,-129
12753,-147
12754,-143
12755,-129
12756,-99
12757,-60
12758,-52
12759,-80
12760,-104
12761,-119
12762,-150
12763,-181
12764,-161
12765,-61
12766,-23
12767,-3
12768,-14
12769,-40
12770,-86
12771,-134
12772,-155
12773,-172
12774,-182
12775,-148
12776,-106
12777,-85
12778,-53
12779,-69
12780,-148
12781,-187
12782,-187
12783,-171
12784,-97
12785,-3
12786,63
12787,106
12788,104
12789,75
12790,41
12791,-8
12792,-48
12793,-34
12794,-4
12795,-16
12796,-38
12797,-105
12798,-132
12799,-133
12800,-114
12801,-93
12802,-75
12803,-59
12804,-60
12805,-74
12806,-72
12807,-47
12808,-21
12809,-8
12810,-14
12811,-26
12812,-20
12813,-22
12814,-44
12815,-46
12816,-24
12817,-21
12818,-33
12819,-33
12820,-49
12821,-74
12822,-99
12823,-110
12824,-70
12825,-46
12826,-55
12827,-48
12828,-36
12829,-46
12830,-47
12831,-27
12832,-13
12833,-10
12834,-12
12835,-5
12836,-12
12837,-46
12838,-83
12839,-109
12840,-108
12841,-88
12842,-66
12843,-42
12844,-34
12845,-34
12846,-38
12847,-44
12848,-66
12849,-76
12850,-74
12851,-67
12852,-37
12853,14
12854,69
12855,105
12856,107
12857,100
12858,114
12859,130
12860,118
12861,101
12862,84
12863,88
12864,126
12865,177
12866,221
12867,260
12868,290
12869,309
12870,296
12871,247
12872,187
12873,124
12874,75
12875,44
12876,25
12877,4
12878,-34
12879,-72
12880,-84
12881,-82
12882,-92
12883,-89
12884,-73
12885,-82
12886,-69
12887,-22
12888,-7
12889,-17
12890,-22
12891,-37
12892,-63
12893,-88
12894,-120
12895,-93
12896,-85
12897,-88
12898,-44
12899,-26
12900,-53
12901,-52
12902,-44
12903,-62
12904,-67
12905,-59
12906,-67
12907,-67
12908,-65
12909,-78
12910,-34
12911,26
12912,19
12913,21
12914,29
12915,21
12916,52
12917,74
12918,70
12919,82
12920,81
12921,46
12922,29
12923,26
12924,-11
12925,-16
12926,17
12927,24
12928,71
12929,152
12930,196
12931,197
12932,178
12933,122
12934,27
12935,-71
12936,-119
12937,-122
12938,-114
12939,-74
12940,29
12941,111
12942,95
12943,61
12944,54
12945,50
12946,53
12947,68
12948,103
12949,126
12950,132
12951,140
12952,128
12953,102
12954,81
12955,60
12956,28
12957,2
12958,-2
12959,67
12960,98
12961,100
12962,102
12963,91
12964,66
12965,44
12966,37
12967,33
12968,29
12969,64
12970,108
12971,105
12972,91
12973,124
12974,182
12975,222
12976,240
12977,248
12978,252
12979,231
12980,159
12981,103
12982,113
12983,130
12984,153
12985,202
12986,211
12987,165
12988,165
12989,111
12990,64
12991,20
12992,-8
12993,-4
12994,60
12995,109
12996,110
12997,115
12998,130
12999,145
13000,163
13001,176
13002,179
13003,175
13004,156
13005,102
13006,24
13007,-41
13008,-74
13009,-74
13010,-68
13011,-48
13012,-19
13013,2
13014,31
13015,51
13016,54
13017,58
13018,60
13019,53
13020,44
13021,13
13022,-27
13023,-21
13024,13
13025,125
13026,172
13027,180
13028,161
13029,110
13030,40
13031,-13
13032,-52
13033,-66
13034,-49
13035,-31
13036,-22
13037,-19
13038,0
13039,15
13040,0
13041,-17
13042,-34
13043,-44
13044,-40
13045,-35
13046,-27
13047,-11
13048,14
13049,34
13050,49
13051,58
13052,21
13053,-25
13054,1
13055,59
13056,81
13057,112
13058,90
13059,58
13060,26
13061,-16
13062,-28
13063,-4
13064,28
13065,86
13066,139
13067,143
13068,127
13069,97
13070,61
13071,40
13072,30
13073,34
13074,52
13075,74
13076,68
13077,35
13078,22
13079,21
13080,-10
13081,-23
13082,40
13083,119
13084,140
13085,156
13086,169
13087,124
13088,55
13089,-65
13090,-74
13091,-74
13092,-62
13093,2
13094,52
13095,46
13096,55
13097,67
13098,44
13099,15
13100,-5
13101,-1
13102,29
13103,38
13104,30
13105,41
13106,64
13107,77
13108,82
13109,76
13110,62
13111,46
13112,14
13113,-22
13114,-46
13115,-58
13116,-47
13117,-5
13118,43
13119,75
13120,80
13121,127
13122,153
13123,144
13124,124
13125,101
13126,60
13127,22
13128,14
13129,8
13130,8
13131,3
13132,23
13133,73
13134,128
13135,131
13136,109
13137,115
13138,94
13139,33
13140,-5
13141,-17
13142,-29
13143,-37
13144,-9
13145,30
13146,56
13147,68
13148,70
13149,83
13150,83
13151,65
13152,75
13153,154
13154,191
13155,229
13156,259
13157,283
13158,300
13159,300
13160,295
13161,294
13162,278
13163,254
13164,251
13165,250
13166,215
13167,148
13168,76
13169,17
13170,-32
13171,-78
13172,-107
13173,-116
13174,-126
13175,-122
13176,-66
13177,0
13178,34
13179,69
13180,122
13181,163
13182,169
13183,126
13184,44
13185,-106
13186,-147
13187,-125
13188,-93
13189,-72
13190,-31
13191,7
13192,20
13193,30
13194,34
13195,33
13196,48
13197,57
13198,53
13199,50
13200,19
13201,-5
13202,-4
13203,0
13204,9
13205,28
13206,37
13207,47
13208,62
13209,69
13210,78
13211,78
13212,98
13213,157
13214,191
13215,196
13216,188
13217,57
13218,-6
13219,-49
13220,-64
13221,-59
13222,-36
13223,23
13224,76
13225,73
13226,53
13227,32
13228,11
13229,31
13230,77
13231,105
13232,106
13233,93
13234,78
13235,65
13236,55
13237,57
13238,64
13239,71
13240,80
13241,89
13242,112
13243,136
13244,137
13245,149
13246,162
13247,148
13248,134
13249,88
13250,56
13251,34
13252,38
13253,75
13254,95
13255,60
13256,18
13257,5
13258,2
13259,7
13260,21
13261,41
13262,59
13263,75
13264,100
13265,103
13266,76
13267,56
13268,45
13269,54
13270,94
13271,124
13272,124
13273,136
13274,154
13275,158
13276,133
13277,103
13278,82
13279,79
13280,87
13281,61
13282,99
13283,128
13284,110
13285,112
13286,152
13287,188
13288,194
13289,187
13290,175
13291,129
13292,59
13293,15
13294,21
13295,36
13296,58
13297,117
13298,179
13299,195
13300,162
13301,112
13302,66
13303,21
13304,-12
13305,-10
13306,16
13307,40
13308,57
13309,55
13310,34
13311,11
13312,-24
13313,-47
13314,-33
13315,-21
13316,-2
13317,8
13318,8
13319,4
13320,-3
13321,1
13322,10
13323,-9
13324,-18
13325,17
13326,63
13327,98
13328,115
13329,115
13330,112
13331,93
13332,54
13333,15
13334,-1
13335,-10
13336,-31
13337,-31
13338,-9
13339,-11
13340,-24
13341,-11
13342,19
13343,46
13344,62
13345,73
13346,92
13347,72
13348,63
13349,76
13350,68
13351,58
13352,69
13353,73
13354,80
13355,99
13356,113
13357,116
13358,118
13359,117
13360,106
13361,89
13362,80
13363,88
13364,88
13365,52
13366,10
13367,24
13368,65
13369,69
13370,76
13371,100
13372,86
13373,55
13374,50
13375,48
13376,31
13377,18
13378,32
13379,127
13380,88
13381,47
13382,27
13383,0
13384,-12
13385,-3
13386,4
13387,12
13388,26
13389,42
13390,56
13391,51
13392,42
13393,46
13394,60
13395,77
13396,90
13397,95
13398,100
13399,107
13400,87
13401,35
13402,4
13403,12
13404,44
13405,76
13406,107
13407,147
13408,178
13409,177
13410,150
13411,84
13412,75
13413,104
13414,104
13415,165
13416,203
13417,199
13418,198
13419,203
13420,177
13421,137
13422,98
13423,62
13424,57
13425,63
13426,57
13427,64
13428,82
13429,93
13430,118
13431,135
13432,116
13433,101
13434,94
13435,74
13436,59
13437,56
13438,65
13439,84
13440,83
13441,79
13442,112
13443,137
13444,167
13445,176
13446,138
13447,95
13448,65
13449,42
13450,24
13451,11
13452,37
13453,106
13454,155
13455,195
13456,253
13457,284
13458,303
13459,363
13460,433
