,ECG
0,-189
1,-184
2,-182
3,-185
4,-184
5,-175
6,-159
7,-159
8,-140
9,-113
10,-79
11,-40
12,-5
13,22
14,45
15,72
16,101
17,114
18,107
19,81
20,37
21,-12
22,-66
23,-105
24,-124
25,-125
26,-100
27,-54
28,1
29,-7
30,-29
31,-55
32,-79
33,-100
34,-108
35,-105
36,-97
37,-71
38,-32
39,6
40,65
41,128
42,153
43,143
44,99
45,30
46,-26
47,-72
48,-109
49,-109
50,-92
51,-87
52,-74
53,-68
54,-86
55,-97
56,-94
57,-82
58,-62
59,-54
60,-54
61,-37
62,-29
63,-21
64,-20
65,-23
66,-22
67,-14
68,11
69,53
70,88
71,106
72,104
73,78
74,45
75,5
76,-30
77,-38
78,-23
79,7
80,40
81,56
82,55
83,42
84,20
85,0
86,-12
87,-26
88,-31
89,-26
90,-21
91,-16
92,-21
93,-30
94,-11
95,1
96,19
97,38
98,43
99,36
100,24
101,11
102,17
103,59
104,115
105,162
106,193
107,192
108,158
109,104
110,41
111,-1
112,-9
113,4
114,40
115,88
116,108
117,97
118,78
119,53
120,32
121,24
122,24
123,38
124,63
125,79
126,74
127,62
128,50
129,43
130,48
131,64
132,76
133,80
134,75
135,59
136,27
137,-19
138,-64
139,-98
140,-124
141,-143
142,-148
143,-148
144,-153
145,-157
146,-155
147,-154
148,-155
149,-155
150,-159
151,-160
152,-155
153,-151
154,-147
155,-134
156,-116
157,-106
158,-103
159,-107
160,-146
161,-170
162,-185
163,-182
164,-173
165,-165
166,-145
167,-116
168,-103
169,-107
170,-116
171,-132
172,-156
173,-187
174,-216
175,-222
176,-208
177,-169
178,-89
179,-13
180,15
181,11
182,-23
183,-79
184,-134
185,-183
186,-215
187,-213
188,-196
189,-177
190,-145
191,-123
192,-117
193,-95
194,-99
195,-111
196,-128
197,-135
198,-128
199,-114
200,-100
201,-87
202,-80
203,-90
204,-108
205,-114
206,-112
207,-116
208,-119
209,-127
210,-148
211,-174
212,-189
213,-190
214,-179
215,-160
216,-139
217,-119
218,-113
219,-121
220,-128
221,-128
222,-121
223,-108
224,-97
225,-92
226,-111
227,-121
228,-125
229,-120
230,-107
231,-91
232,-75
233,-65
234,-68
235,-77
236,-78
237,-58
238,-25
239,0
240,14
241,15
242,-4
243,-38
244,-74
245,-105
246,-128
247,-138
248,-137
249,-131
250,-119
251,-111
252,-87
253,-18
254,71
255,141
256,177
257,162
258,87
259,-137
260,-235
261,-283
262,-290
263,-262
264,-193
265,-127
266,-97
267,-85
268,-88
269,-98
270,-98
271,-103
272,-107
273,-106
274,-114
275,-129
276,-137
277,-146
278,-152
279,-141
280,-126
281,-109
282,-91
283,-86
284,-92
285,-97
286,-107
287,-119
288,-116
289,-101
290,-82
291,-67
292,-67
293,-62
294,-69
295,-76
296,-78
297,-68
298,-48
299,-22
300,2
301,22
302,22
303,5
304,-13
305,-16
306,-7
307,0
308,2
309,1
310,-11
311,-40
312,-72
313,-95
314,-102
315,-94
316,-74
317,-50
318,-36
319,-44
320,-52
321,-39
322,-21
323,-13
324,-14
325,-33
326,-119
327,-168
328,-208
329,-226
330,-217
331,-185
332,-133
333,-89
334,-66
335,-50
336,-33
337,-26
338,-32
339,-47
340,-61
341,-76
342,-95
343,-115
344,-129
345,-140
346,-153
347,-155
348,-140
349,-123
350,-104
351,-74
352,-45
353,-25
354,-24
355,-39
356,-58
357,-75
358,-87
359,-62
360,-30
361,13
362,63
363,106
364,138
365,151
366,138
367,100
368,40
369,-29
370,-90
371,-143
372,-189
373,-213
374,-216
375,-203
376,-169
377,-114
378,-61
379,-29
380,-23
381,-43
382,-85
383,-145
384,-202
385,-227
386,-219
387,-182
388,-120
389,-53
390,-16
391,-15
392,-63
393,-105
394,-146
395,-179
396,-195
397,-194
398,-179
399,-153
400,-131
401,-116
402,-104
403,-87
404,-52
405,-15
406,16
407,52
408,71
409,57
410,17
411,-42
412,-112
413,-168
414,-204
415,-215
416,-199
417,-180
418,-165
419,-135
420,-104
421,-81
422,-60
423,-43
424,-35
425,-57
426,-78
427,-101
428,-114
429,-111
430,-93
431,-60
432,-24
433,-7
434,-7
435,-3
436,-7
437,-22
438,-27
439,-20
440,-21
441,-25
442,-29
443,-48
444,-73
445,-93
446,-115
447,-128
448,-121
449,-104
450,-82
451,-64
452,-63
453,-64
454,-54
455,-40
456,-32
457,-29
458,-36
459,-48
460,-26
461,6
462,50
463,94
464,120
465,134
466,127
467,94
468,48
469,4
470,-36
471,-65
472,-79
473,-87
474,-80
475,-57
476,-26
477,12
478,43
479,53
480,49
481,36
482,11
483,-11
484,-21
485,-21
486,-3
487,32
488,64
489,87
490,106
491,115
492,118
493,92
494,69
495,49
496,28
497,14
498,4
499,-15
500,-35
501,-42
502,-41
503,-30
504,-16
505,-8
506,-7
507,-19
508,-47
509,-83
510,-119
511,-137
512,-126
513,-95
514,-56
515,-19
516,-3
517,-19
518,-59
519,-109
520,-160
521,-211
522,-248
523,-269
524,-274
525,-243
526,-125
527,-68
528,-38
529,-53
530,-101
531,-171
532,-237
533,-271
534,-275
535,-252
536,-205
537,-171
538,-175
539,-199
540,-235
541,-273
542,-292
543,-292
544,-270
545,-240
546,-218
547,-197
548,-176
549,-150
550,-114
551,-90
552,-85
553,-94
554,-118
555,-155
556,-188
557,-213
558,-222
559,-195
560,-174
561,-148
562,-134
563,-128
564,-113
565,-99
566,-87
567,-78
568,-74
569,-73
570,-75
571,-85
572,-90
573,-86
574,-82
575,-80
576,-80
577,-86
578,-100
579,-117
580,-141
581,-166
582,-181
583,-186
584,-176
585,-145
586,-95
587,-59
588,-48
589,-57
590,-80
591,-104
592,-122
593,-134
594,-103
595,-86
596,-79
597,-79
598,-81
599,-82
600,-81
601,-68
602,-51
603,-45
604,-52
605,-74
606,-110
607,-152
608,-182
609,-184
610,-150
611,-83
612,-10
613,55
614,104
615,109
616,62
617,-17
618,-114
619,-202
620,-259
621,-283
622,-275
623,-239
624,-198
625,-168
626,-144
627,-139
628,-148
629,-163
630,-166
631,-163
632,-146
633,-111
634,-81
635,-68
636,-66
637,-81
638,-106
639,-124
640,-133
641,-130
642,-108
643,-80
644,-53
645,-27
646,-24
647,-35
648,-37
649,-29
650,-10
651,14
652,21
653,7
654,-23
655,-69
656,-121
657,-160
658,-181
659,-171
660,-132
661,-87
662,-54
663,-42
664,-42
665,-40
666,-43
667,-50
668,-61
669,-78
670,-94
671,-107
672,-117
673,-120
674,-107
675,-79
676,-45
677,-13
678,22
679,44
680,43
681,30
682,2
683,-33
684,-50
685,-53
686,-51
687,-42
688,-35
689,-38
690,-48
691,-74
692,-100
693,-99
694,-71
695,-27
696,19
697,47
698,29
699,9
700,-8
701,-11
702,18
703,63
704,101
705,135
706,144
707,116
708,70
709,20
710,-25
711,-57
712,-74
713,-84
714,-84
715,-82
716,-79
717,-52
718,-52
719,-11
720,22
721,46
722,60
723,51
724,20
725,-17
726,-56
727,-85
728,-99
729,-101
730,-96
731,-105
732,-114
733,-115
734,-92
735,-47
736,-10
737,9
738,14
739,3
740,-18
741,-44
742,-68
743,-85
744,-98
745,-105
746,-104
747,-103
748,-118
749,-137
750,-141
751,-135
752,-125
753,-114
754,-98
755,-80
756,-48
757,-1
758,36
759,52
760,41
761,2
762,-53
763,-110
764,-172
765,-149
766,-104
767,-45
768,13
769,50
770,68
771,74
772,70
773,63
774,52
775,39
776,24
777,7
778,-16
779,-44
780,-80
781,-120
782,-162
783,-203
784,-231
785,-244
786,-239
787,-214
788,-177
789,-133
790,-77
791,-30
792,-11
793,-13
794,-27
795,-56
796,-86
797,-130
798,-135
799,-127
800,-113
801,-91
802,-74
803,-69
804,-63
805,-53
806,-46
807,-41
808,-40
809,-42
810,-44
811,-42
812,-39
813,-32
814,-22
815,-11
816,-8
817,-11
818,-16
819,-17
820,-8
821,20
822,56
823,88
824,116
825,123
826,101
827,53
828,-13
829,-83
830,-167
831,-178
832,-168
833,-148
834,-128
835,-101
836,-77
837,-61
838,-52
839,-47
840,-41
841,-29
842,-20
843,-18
844,-18
845,-23
846,-33
847,-53
848,-74
849,-86
850,-77
851,-32
852,37
853,95
854,127
855,133
856,115
857,74
858,30
859,-11
860,-11
861,-44
862,-59
863,-66
864,-80
865,-114
866,-145
867,-155
868,-140
869,-105
870,-62
871,-15
872,26
873,50
874,55
875,47
876,26
877,-4
878,-32
879,-53
880,-58
881,-53
882,-50
883,-37
884,-15
885,1
886,22
887,50
888,76
889,107
890,146
891,175
892,184
893,171
894,141
895,104
896,69
897,98
898,150
899,193
900,213
901,204
902,147
903,63
904,-13
905,-72
906,-101
907,-94
908,-62
909,-19
910,18
911,36
912,44
913,46
914,34
915,18
916,0
917,-18
918,-37
919,-56
920,-75
921,-94
922,-113
923,-130
924,-139
925,-138
926,-124
927,-88
928,-34
929,21
930,13
931,-27
932,-90
933,-155
934,-214
935,-256
936,-275
937,-274
938,-259
939,-235
940,-213
941,-191
942,-171
943,-160
944,-150
945,-142
946,-147
947,-160
948,-176
949,-194
950,-213
951,-228
952,-233
953,-234
954,-239
955,-236
956,-216
957,-184
958,-156
959,-140
960,-128
961,-120
962,-107
963,-85
964,-61
965,-34
966,-18
967,-18
968,-30
969,-61
970,-108
971,-152
972,-181
973,-199
974,-202
975,-192
976,-177
977,-160
978,-147
979,-137
980,-123
981,-111
982,-108
983,-107
984,-107
985,-106
986,-99
987,-83
988,-60
989,-36
990,-13
991,2
992,4
993,-9
994,-67
995,-99
996,-120
997,-125
998,-103
999,-56
1000,-12
1001,16
1002,32
1003,32
1004,22
1005,-7
1006,-39
1007,-67
1008,-84
1009,-78
1010,-62
1011,-37
1012,-14
1013,-14
1014,-29
1015,-37
1016,-45
1017,-55
1018,-60
1019,-66
1020,-70
1021,-74
1022,-70
1023,-44
1024,-10
1025,14
1026,37
1027,37
1028,8
1029,-24
1030,-49
1031,-55
1032,-43
1033,-28
1034,1
1035,41
1036,84
1037,139
1038,191
1039,210
1040,191
1041,136
1042,55
1043,-26
1044,-88
1045,-113
1046,-95
1047,-52
1048,-8
1049,20
1050,16
1051,-11
1052,-45
1053,-71
1054,-83
1055,-85
1056,-75
1057,-57
1058,-46
1059,-49
1060,-45
1061,-46
1062,-47
1063,-47
1064,-52
1065,-56
1066,-56
1067,-37
1068,-4
1069,14
1070,14
1071,11
1072,-5
1073,-33
1074,-58
1075,-81
1076,-97
1077,-96
1078,-81
1079,-42
1080,1
1081,15
1082,14
1083,15
1084,6
1085,-6
1086,-16
1087,-25
1088,-34
1089,-40
1090,-45
1091,-45
1092,-53
1093,-49
1094,-26
1095,4
1096,31
1097,56
1098,73
1099,77
1100,77
1101,75
1102,64
1103,45
1104,19
1105,-7
1106,-16
1107,-4
1108,22
1109,57
1110,86
1111,96
1112,83
1113,52
1114,13
1115,-9
1116,-16
1117,-10
1118,29
1119,81
1120,109
1121,120
1122,113
1123,82
1124,29
1125,-87
1126,-130
1127,-160
1128,-176
1129,-162
1130,-137
1131,-116
1132,-96
1133,-85
1134,-89
1135,-99
1136,-104
1137,-101
1138,-85
1139,-55
1140,-14
1141,28
1142,72
1143,105
1144,106
1145,106
1146,73
1147,21
1148,-36
1149,-86
1150,-119
1151,-134
1152,-128
1153,-113
1154,-99
1155,-86
1156,-79
1157,-79
1158,-65
1159,-50
1160,-30
1161,-14
1162,-16
1163,-23
1164,-33
1165,-53
1166,-75
1167,-91
1168,-84
1169,-50
1170,-3
1171,47
1172,103
1173,138
1174,143
1175,135
1176,116
1177,91
1178,72
1179,57
1180,61
1181,86
1182,97
1183,94
1184,85
1185,55
1186,9
1187,-47
1188,-117
1189,-186
1190,-239
1191,-265
1192,-234
1193,-212
1194,-197
1195,-189
1196,-197
1197,-210
1198,-223
1199,-224
1200,-192
1201,-146
1202,-100
1203,-53
1204,-30
1205,-34
1206,-48
1207,-70
1208,-92
1209,-104
1210,-110
1211,-103
1212,-78
1213,-62
1214,-57
1215,-51
1216,-52
1217,-61
1218,-70
1219,-82
1220,-89
1221,-88
1222,-83
1223,-76
1224,-63
1225,-62
1226,-64
1227,-67
1228,-67
1229,-64
1230,-58
1231,-53
1232,-47
1233,-43
1234,-41
1235,-40
1236,-39
1237,-41
1238,-42
1239,-41
1240,-39
1241,-39
1242,-37
1243,-36
1244,-34
1245,-31
1246,-29
1247,-29
1248,-31
1249,-32
1250,-32
1251,-26
1252,-18
1253,-16
1254,-18
1255,-24
1256,-38
1257,-36
1258,29
1259,84
1260,137
1261,159
1262,147
1263,95
1264,5
1265,-91
1266,-167
1267,-199
1268,-167
1269,-99
1270,-33
1271,26
1272,55
1273,41
1274,25
1275,9
1276,-7
1277,-1
1278,31
1279,75
1280,103
1281,94
1282,63
1283,34
1284,15
1285,19
1286,53
1287,53
1288,89
1289,108
1290,115
1291,96
1292,48
1293,-72
1294,-104
1295,-109
1296,-91
1297,-57
1298,-22
1299,1
1300,27
1301,52
1302,64
1303,72
1304,78
1305,77
1306,71
1307,65
1308,65
1309,77
1310,96
1311,104
1312,107
1313,109
1314,103
1315,101
1316,122
1317,136
1318,133
1319,122
1320,90
1321,36
1322,-31
1323,-105
1324,-162
1325,-185
1326,-163
1327,-130
1328,-118
1329,-125
1330,-132
1331,-131
1332,-119
1333,-100
1334,-76
1335,-38
1336,-17
1337,-26
1338,-56
1339,-102
1340,-157
1341,-203
1342,-229
1343,-230
1344,-210
1345,-192
1346,-175
1347,-155
1348,-152
1349,-162
1350,-167
1351,-171
1352,-168
1353,-163
1354,-148
1355,-127
1356,-109
1357,-97
1358,-87
1359,-93
1360,-107
1361,-126
1362,-142
1363,-154
1364,-162
1365,-164
1366,-157
1367,-144
1368,-124
1369,-94
1370,-65
1371,-49
1372,-46
1373,-53
1374,-67
1375,-88
1376,-108
1377,-123
1378,-126
1379,-121
1380,-106
1381,-89
1382,-79
1383,-75
1384,-71
1385,-67
1386,-66
1387,-65
1388,-66
1389,-69
1390,-65
1391,-53
1392,-50
1393,-47
1394,-42
1395,-34
1396,-26
1397,-22
1398,-17
1399,-4
1400,25
1401,57
1402,76
1403,85
1404,82
1405,67
1406,36
1407,-13
1408,-71
1409,-128
1410,-158
1411,-135
1412,-98
1413,-80
1414,-65
1415,-59
1416,-70
1417,-81
1418,-96
1419,-116
1420,-119
1421,-124
1422,-129
1423,-132
1424,-201
1425,-213
1426,-207
1427,-187
1428,-158
1429,-158
1430,-140
1431,-134
1432,-127
1433,-124
1434,-115
1435,-99
1436,-81
1437,-65
1438,-58
1439,-60
1440,-62
1441,-65
1442,-68
1443,-68
1444,-62
1445,-54
1446,-46
1447,-41
1448,-47
1449,-61
1450,-77
1451,-94
1452,-109
1453,-122
1454,-128
1455,-123
1456,-105
1457,-76
1458,13
1459,41
1460,44
1461,26
1462,-10
1463,-67
1464,-132
1465,-176
1466,-187
1467,-156
1468,-73
1469,28
1470,97
1471,130
1472,131
1473,90
1474,11
1475,-83
1476,-173
1477,-243
1478,-281
1479,-288
1480,-267
1481,-240
1482,-220
1483,-184
1484,-131
1485,-92
1486,-70
1487,-49
1488,-34
1489,-31
1490,-49
1491,-66
1492,-77
1493,-78
1494,-70
1495,-56
1496,-46
1497,-45
1498,-51
1499,-61
1500,-75
1501,-87
1502,-89
1503,-81
1504,-69
1505,-60
1506,-51
1507,-42
1508,-37
1509,-41
1510,-42
1511,-45
1512,-56
1513,-70
1514,-82
1515,-88
1516,-92
1517,-89
1518,-74
1519,-57
1520,-49
1521,-48
1522,-51
1523,-51
1524,-18
1525,25
1526,74
1527,100
1528,100
1529,78
1530,32
1531,-28
1532,-89
1533,-131
1534,-146
1535,-136
1536,-93
1537,-20
1538,45
1539,78
1540,89
1541,83
1542,65
1543,39
1544,27
1545,48
1546,77
1547,86
1548,83
1549,50
1550,-21
1551,-113
1552,-190
1553,-235
1554,-239
1555,-221
1556,-140
1557,-110
1558,-95
1559,-71
1560,-38
1561,1
1562,55
1563,111
1564,151
1565,171
1566,175
1567,159
1568,132
1569,100
1570,67
1571,34
1572,34
1573,2
1574,-30
1575,-65
1576,-105
1577,-150
1578,-186
1579,-202
1580,-197
1581,-177
1582,-152
1583,-127
1584,-107
1585,-95
1586,-91
1587,-88
1588,-83
1589,-64
1590,13
1591,45
1592,59
1593,45
1594,15
1595,-21
1596,-56
1597,-76
1598,-75
1599,-57
1600,-28
1601,5
1602,26
1603,29
1604,22
1605,6
1606,-14
1607,-34
1608,-49
1609,-54
1610,-43
1611,-26
1612,-6
1613,18
1614,41
1615,55
1616,52
1617,33
1618,8
1619,-25
1620,-57
1621,-69
1622,-23
1623,35
1624,78
1625,97
1626,83
1627,33
1628,-16
1629,-31
1630,1
1631,72
1632,147
1633,190
1634,197
1635,144
1636,33
1637,-80
1638,-168
1639,-217
1640,-215
1641,-172
1642,-102
1643,-35
1644,6
1645,34
1646,58
1647,67
1648,61
1649,46
1650,22
1651,-2
1652,-25
1653,-41
1654,-47
1655,-43
1656,-32
1657,-27
1658,-24
1659,-26
1660,-28
1661,-28
1662,-28
1663,-24
1664,-9
1665,10
1666,33
1667,54
1668,57
1669,49
1670,36
1671,20
1672,7
1673,4
1674,11
1675,29
1676,54
1677,70
1678,77
1679,74
1680,62
1681,50
1682,48
1683,52
1684,68
1685,94
1686,117
1687,134
1688,152
1689,166
1690,157
1691,142
1692,130
1693,131
1694,125
1695,118
1696,119
1697,112
1698,118
1699,155
1700,176
1701,158
1702,124
1703,69
1704,0
1705,-66
1706,-124
1707,-161
1708,-154
1709,-119
1710,-69
1711,-24
1712,-12
1713,-21
1714,-21
1715,-24
1716,-33
1717,-42
1718,-44
1719,-49
1720,-63
1721,-76
1722,-85
1723,-86
1724,-75
1725,-70
1726,-79
1727,-103
1728,-130
1729,-151
1730,-165
1731,-163
1732,-149
1733,-136
1734,-123
1735,-118
1736,-132
1737,-152
1738,-159
1739,-154
1740,-135
1741,-96
1742,-56
1743,-32
1744,-20
1745,-18
1746,-19
1747,-26
1748,-25
1749,-21
1750,-27
1751,-40
1752,-50
1753,-63
1754,-81
1755,-99
1756,-124
1757,-130
1758,-132
1759,-132
1760,-140
1761,-161
1762,-176
1763,-181
1764,-190
1765,-177
1766,-122
1767,-65
1768,-16
1769,33
1770,49
1771,11
1772,-59
1773,-141
1774,-211
1775,-252
1776,-259
1777,-227
1778,-168
1779,-115
1780,-80
1781,-54
1782,-52
1783,-68
1784,-78
1785,-68
1786,-39
1787,-15
1788,3
1789,0
1790,-26
1791,-56
1792,-84
1793,-93
1794,-81
1795,-56
1796,-26
1797,-11
1798,-26
1799,-41
1800,-38
1801,-22
1802,3
1803,33
1804,49
1805,42
1806,16
1807,-27
1808,-74
1809,-107
1810,-128
1811,-134
1812,-125
1813,-119
1814,-121
1815,-114
1816,-105
1817,-101
1818,-90
1819,-83
1820,-87
1821,-110
1822,-124
1823,-119
1824,-95
1825,-57
1826,-13
1827,22
1828,38
1829,37
1830,30
1831,32
1832,23
1833,-3
1834,-34
1835,-72
1836,-112
1837,-138
1838,-137
1839,-118
1840,-101
1841,-90
1842,-86
1843,-94
1844,-130
1845,-175
1846,-197
1847,-194
1848,-174
1849,-135
1850,-89
1851,-70
1852,-81
1853,-94
1854,-125
1855,-116
1856,-116
1857,-105
1858,-95
1859,-80
1860,-66
1861,-50
1862,-47
1863,-60
1864,-73
1865,-80
1866,-85
1867,-81
1868,-73
1869,-80
1870,-97
1871,-111
1872,-123
1873,-132
1874,-144
1875,-149
1876,-142
1877,-131
1878,-122
1879,-114
1880,-110
1881,-107
1882,-105
1883,-102
1884,-98
1885,-94
1886,-91
1887,-96
1888,-102
1889,-105
1890,-108
1891,-106
1892,-94
1893,-80
1894,-73
1895,-67
1896,-65
1897,-68
1898,-75
1899,-82
1900,-84
1901,-81
1902,-77
1903,-69
1904,-55
1905,-46
1906,-38
1907,-26
1908,-12
1909,-3
1910,0
1911,-3
1912,-16
1913,-36
1914,-49
1915,-51
1916,-39
1917,-15
1918,12
1919,27
1920,22
1921,-17
1922,-17
1923,-6
1924,8
1925,31
1926,51
1927,60
1928,50
1929,15
1930,-25
1931,-59
1932,-82
1933,-90
1934,-92
1935,-112
1936,-151
1937,-189
1938,-223
1939,-248
1940,-263
1941,-265
1942,-245
1943,-206
1944,-151
1945,-81
1946,-21
1947,18
1948,37
1949,28
1950,-9
1951,-68
1952,-129
1953,-174
1954,-198
1955,-183
1956,-153
1957,-138
1958,-133
1959,-130
1960,-136
1961,-142
1962,-139
1963,-130
1964,-102
1965,-44
1966,6
1967,36
1968,54
1969,49
1970,31
1971,22
1972,18
1973,22
1974,45
1975,65
1976,84
1977,105
1978,95
1979,64
1980,43
1981,21
1982,0
1983,-15
1984,-38
1985,-69
1986,-99
1987,-162
1988,-173
1989,-171
1990,-169
1991,-164
1992,-155
1993,-144
1994,-130
1995,-122
1996,-118
1997,-115
1998,-115
1999,-115
2000,-113
2001,-97
2002,-73
2003,-63
2004,-60
2005,-57
2006,-60
2007,-69
2008,-92
2009,-111
2010,-114
2011,-98
2012,-46
2013,24
2014,85
2015,117
2016,111
2017,67
2018,2
2019,-64
2020,-127
2021,-173
2022,-162
2023,-136
2024,-117
2025,-117
2026,-121
2027,-124
2028,-122
2029,-109
2030,-93
2031,-81
2032,-73
2033,-66
2034,-64
2035,-62
2036,-57
2037,-48
2038,-36
2039,-24
2040,-18
2041,-17
2042,-27
2043,-43
2044,-60
2045,-71
2046,-71
2047,-62
2048,-43
2049,-25
2050,-18
2051,-19
2052,-26
2053,-37
2054,-66
2055,-63
2056,-47
2057,-18
2058,33
2059,83
2060,108
2061,110
2062,89
2063,45
2064,-14
2065,-76
2066,-128
2067,-151
2068,-135
2069,-76
2070,5
2071,67
2072,96
2073,97
2074,75
2075,40
2076,1
2077,-41
2078,-81
2079,-101
2080,-100
2081,-81
2082,-52
2083,-17
2084,22
2085,57
2086,74
2087,42
2088,-11
2089,-51
2090,-49
2091,-31
2092,-5
2093,31
2094,50
2095,44
2096,30
2097,11
2098,0
2099,7
2100,21
2101,40
2102,59
2103,57
2104,40
2105,27
2106,12
2107,3
2108,5
2109,12
2110,20
2111,30
2112,37
2113,39
2114,38
2115,37
2116,36
2117,33
2118,30
2119,24
2120,6
2121,-6
2122,-17
2123,-28
2124,-39
2125,-47
2126,-51
2127,-52
2128,-51
2129,-52
2130,-59
2131,-64
2132,-60
2133,-54
2134,-57
2135,-67
2136,-80
2137,-86
2138,-93
2139,-102
2140,-103
2141,-103
2142,-103
2143,-102
2144,-92
2145,-79
2146,-88
2147,-120
2148,-162
2149,-204
2150,-243
2151,-281
2152,-308
2153,-305
2154,-281
2155,-238
2156,-195
2157,-170
2158,-154
2159,-146
2160,-147
2161,-156
2162,-167
2163,-173
2164,-176
2165,-173
2166,-164
2167,-154
2168,-149
2169,-155
2170,-157
2171,-148
2172,-130
2173,-107
2174,-79
2175,-56
2176,-50
2177,-60
2178,-89
2179,-131
2180,-176
2181,-218
2182,-249
2183,-265
2184,-272
2185,-265
2186,-209
2187,-148
2188,-85
2189,-49
2190,-37
2191,-58
2192,-112
2193,-177
2194,-236
2195,-269
2196,-264
2197,-235
2198,-191
2199,-141
2200,-113
2201,-117
2202,-133
2203,-155
2204,-178
2205,-196
2206,-203
2207,-202
2208,-193
2209,-178
2210,-155
2211,-129
2212,-103
2213,-85
2214,-79
2215,-88
2216,-106
2217,-125
2218,-131
2219,-113
2220,-38
2221,-13
2222,-7
2223,-26
2224,-67
2225,-107
2226,-133
2227,-139
2228,-117
2229,-72
2230,-18
2231,16
2232,8
2233,-24
2234,-60
2235,-98
2236,-128
2237,-135
2238,-123
2239,-108
2240,-87
2241,-67
2242,-54
2243,-52
2244,-62
2245,-73
2246,-81
2247,-92
2248,-103
2249,-115
2250,-122
2251,-126
2252,-123
2253,-98
2254,-86
2255,-79
2256,-77
2257,-78
2258,-78
2259,-77
2260,-75
2261,-68
2262,-57
2263,-45
2264,-32
2265,-21
2266,-15
2267,-13
2268,-15
2269,-19
2270,-25
2271,-31
2272,-36
2273,-40
2274,-49
2275,-57
2276,-59
2277,-53
2278,-45
2279,-38
2280,-25
2281,-11
2282,-7
2283,-7
2284,-14
2285,-26
2286,-56
2287,-62
2288,-58
2289,-53
2290,-54
2291,-54
2292,-47
2293,-42
2294,-35
2295,-26
2296,-25
2297,-29
2298,-35
2299,-45
2300,-54
2301,-64
2302,-64
2303,-55
2304,-39
2305,-16
2306,7
2307,12
2308,0
2309,-14
2310,-29
2311,-40
2312,-42
2313,-26
2314,1
2315,19
2316,28
2317,30
2318,10
2319,-58
2320,-78
2321,-90
2322,-85
2323,-71
2324,-41
2325,6
2326,55
2327,99
2328,129
2329,132
2330,113
2331,72
2332,4
2333,-66
2334,-121
2335,-161
2336,-183
2337,-181
2338,-170
2339,-161
2340,-146
2341,-125
2342,-92
2343,-60
2344,-36
2345,-19
2346,-9
2347,-8
2348,-14
2349,-25
2350,-42
2351,-64
2352,-94
2353,-89
2354,-74
2355,-41
2356,-4
2357,16
2358,24
2359,14
2360,-13
2361,-52
2362,-93
2363,-123
2364,-133
2365,-132
2366,-130
2367,-117
2368,-96
2369,-81
2370,-47
2371,2
2372,44
2373,76
2374,108
2375,122
2376,102
2377,71
2378,34
2379,-17
2380,-74
2381,-125
2382,-161
2383,-174
2384,-166
2385,-61
2386,4
2387,52
2388,96
2389,124
2390,124
2391,119
2392,115
2393,113
2394,118
2395,117
2396,86
2397,25
2398,-59
2399,-157
2400,-248
2401,-313
2402,-337
2403,-313
2404,-257
2405,-187
2406,-114
2407,-62
2408,-32
2409,-15
2410,-18
2411,-33
2412,-50
2413,-68
2414,-78
2415,-75
2416,-73
2417,-59
2418,-49
2419,-36
2420,-26
2421,-32
2422,-40
2423,-43
2424,-45
2425,-45
2426,-40
2427,-28
2428,-15
2429,6
2430,32
2431,47
2432,47
2433,30
2434,-2
2435,-39
2436,-69
2437,-81
2438,-80
2439,-74
2440,-59
2441,-43
2442,-34
2443,-33
2444,-32
2445,-23
2446,-5
2447,22
2448,54
2449,78
2450,68
2451,38
2452,2
2453,-29
2454,-53
2455,-71
2456,-87
2457,-95
2458,-99
2459,-85
2460,-43
2461,-5
2462,15
2463,26
2464,15
2465,-16
2466,-57
2467,-104
2468,-135
2469,-137
2470,-113
2471,-45
2472,41
2473,89
2474,102
2475,98
2476,64
2477,11
2478,-40
2479,-79
2480,-90
2481,-70
2482,-27
2483,86
2484,92
2485,74
2486,47
2487,12
2488,-12
2489,-22
2490,-17
2491,-2
2492,16
2493,23
2494,20
2495,4
2496,-20
2497,-43
2498,-53
2499,-46
2500,-20
2501,19
2502,71
2503,123
2504,157
2505,172
2506,183
2507,193
2508,199
2509,196
2510,183
2511,163
2512,135
2513,95
2514,51
2515,-27
2516,-45
2517,-28
2518,16
2519,67
2520,103
2521,122
2522,129
2523,124
2524,109
2525,102
2526,93
2527,71
2528,50
2529,31
2530,19
2531,15
2532,12
2533,16
2534,23
2535,18
2536,-7
2537,-47
2538,-105
2539,-165
2540,-199
2541,-205
2542,-191
2543,-163
2544,-143
2545,-133
2546,-127
2547,-100
2548,-78
2549,-57
2550,-36
2551,-32
2552,-46
2553,-71
2554,-106
2555,-122
2556,-121
2557,-125
2558,-124
2559,-119
2560,-129
2561,-144
2562,-151
2563,-164
2564,-173
2565,-169
2566,-160
2567,-160
2568,-143
2569,-132
2570,-137
2571,-139
2572,-135
2573,-133
2574,-127
2575,-111
2576,-82
2577,-48
2578,-26
2579,-22
2580,-40
2581,-86
2582,-184
2583,-189
2584,-169
2585,-133
2586,-92
2587,-58
2588,-56
2589,-90
2590,-133
2591,-167
2592,-190
2593,-191
2594,-167
2595,-142
2596,-134
2597,-142
2598,-157
2599,-176
2600,-192
2601,-203
2602,-205
2603,-197
2604,-183
2605,-167
2606,-149
2607,-134
2608,-119
2609,-89
2610,-57
2611,-43
2612,-40
2613,-46
2614,-68
2615,-100
2616,-163
2617,-182
2618,-186
2619,-180
2620,-157
2621,-133
2622,-119
2623,-107
2624,-93
2625,-88
2626,-90
2627,-92
2628,-92
2629,-93
2630,-93
2631,-91
2632,-88
2633,-85
2634,-85
2635,-85
2636,-79
2637,-71
2638,-69
2639,-70
2640,-76
2641,-85
2642,-92
2643,-95
2644,-96
2645,-97
2646,-105
2647,-116
2648,-127
2649,-169
2650,-189
2651,-201
2652,-203
2653,-188
2654,-153
2655,-113
2656,-81
2657,-53
2658,-38
2659,-45
2660,-71
2661,-105
2662,-125
2663,-120
2664,-87
2665,-37
2666,-1
2667,3
2668,-14
2669,-48
2670,-92
2671,-133
2672,-148
2673,-135
2674,-115
2675,-102
2676,-101
2677,-120
2678,-157
2679,-185
2680,-193
2681,-188
2682,-153
2683,-131
2684,-120
2685,-128
2686,-133
2687,-126
2688,-104
2689,-60
2690,-20
2691,0
2692,12
2693,19
2694,24
2695,23
2696,7
2697,-13
2698,-34
2699,-65
2700,-105
2701,-141
2702,-185
2703,-219
2704,-226
2705,-219
2706,-203
2707,-191
2708,-188
2709,-176
2710,-176
2711,-152
2712,-126
2713,-106
2714,-92
2715,-70
2716,-76
2717,-79
2718,-63
2719,-49
2720,-34
2721,-14
2722,-12
2723,-39
2724,-82
2725,-127
2726,-169
2727,-198
2728,-213
2729,-208
2730,-187
2731,-176
2732,-172
2733,-166
2734,-166
2735,-154
2736,-118
2737,-81
2738,-63
2739,-57
2740,-65
2741,-96
2742,-132
2743,-154
2744,-156
2745,-124
2746,-79
2747,-48
2748,-38
2749,-115
2750,-161
2751,-183
2752,-172
2753,-132
2754,-84
2755,-39
2756,-2
2757,6
2758,-13
2759,-46
2760,-81
2761,-114
2762,-143
2763,-157
2764,-160
2765,-161
2766,-158
2767,-137
2768,-107
2769,-80
2770,-58
2771,-55
2772,-72
2773,-100
2774,-133
2775,-147
2776,-149
2777,-158
2778,-159
2779,-151
2780,-150
2781,-159
2782,-166
2783,-169
2784,-162
2785,-144
2786,-116
2787,-90
2788,-77
2789,-64
2790,-53
2791,-51
2792,-59
2793,-70
2794,-78
2795,-70
2796,-33
2797,5
2798,21
2799,15
2800,-18
2801,-79
2802,-149
2803,-206
2804,-232
2805,-216
2806,-179
2807,-137
2808,-95
2809,-67
2810,-54
2811,-40
2812,-20
2813,5
2814,34
2815,59
2816,57
2817,34
2818,5
2819,-12
2820,-16
2821,-15
2822,-20
2823,-42
2824,-72
2825,-102
2826,-124
2827,-132
2828,-132
2829,-131
2830,-122
2831,-111
2832,-113
2833,-121
2834,-131
2835,-145
2836,-151
2837,-142
2838,-121
2839,-98
2840,-82
2841,-75
2842,-71
2843,-71
2844,-79
2845,-74
2846,-52
2847,-3
2848,9
2849,5
2850,-18
2851,-57
2852,-57
2853,-101
2854,-136
2855,-149
2856,-133
2857,-98
2858,-65
2859,-49
2860,-41
2861,-21
2862,5
2863,18
2864,18
2865,3
2866,-27
2867,-74
2868,-123
2869,-167
2870,-194
2871,-199
2872,-167
2873,-104
2874,-46
2875,-14
2876,3
2877,15
2878,22
2879,17
2880,-6
2881,-26
2882,-56
2883,-80
2884,-103
2885,-129
2886,-144
2887,-140
2888,-122
2889,-94
2890,-67
2891,-37
2892,-13
2893,-8
2894,-4
2895,4
2896,14
2897,38
2898,64
2899,65
2900,49
2901,18
2902,-23
2903,-63
2904,-93
2905,-104
2906,-93
2907,-72
2908,-50
2909,-33
2910,-32
2911,-53
2912,-70
2913,-61
2914,-43
2915,-11
2916,24
2917,45
2918,61
2919,78
2920,84
2921,85
2922,82
2923,73
2924,66
2925,64
2926,61
2927,60
2928,59
2929,69
2930,100
2931,139
2932,175
2933,209
2934,224
2935,231
2936,222
2937,188
2938,146
2939,104
2940,68
2941,49
2942,44
2943,40
2944,43
2945,78
2946,110
2947,137
2948,151
2949,168
2950,187
2951,196
2952,193
2953,177
2954,149
2955,119
2956,87
2957,59
2958,53
2959,59
2960,61
2961,63
2962,61
2963,45
2964,20
2965,-6
2966,-30
2967,-50
2968,-61
2969,-65
2970,-58
2971,-55
2972,-71
2973,-83
2974,-89
2975,-98
2976,-101
2977,-91
2978,-26
2979,27
2980,60
2981,70
2982,53
2983,0
2984,-74
2985,-145
2986,-201
2987,-229
2988,-230
2989,-218
2990,-202
2991,-194
2992,-206
2993,-219
2994,-219
2995,-224
2996,-226
2997,-215
2998,-192
2999,-163
3000,-137
3001,-127
3002,-131
3003,-140
3004,-144
3005,-129
3006,-89
3007,-37
3008,23
3009,78
3010,97
3011,74
3012,-74
3013,-172
3014,-249
3015,-297
3016,-308
3017,-287
3018,-254
3019,-199
3020,-137
3021,-101
3022,-81
3023,-68
3024,-73
3025,-88
3026,-108
3027,-125
3028,-136
3029,-136
3030,-129
3031,-112
3032,-93
3033,-81
3034,-66
3035,-44
3036,-24
3037,-14
3038,-15
3039,-21
3040,-35
3041,-51
3042,-69
3043,-89
3044,-110
3045,-120
3046,-123
3047,-118
3048,-111
3049,-99
3050,-82
3051,-70
3052,-64
3053,-66
3054,-75
3055,-83
3056,-84
3057,-77
3058,-55
3059,-17
3060,16
3061,33
3062,34
3063,15
3064,-19
3065,-57
3066,-92
3067,-120
3068,-134
3069,-137
3070,-130
3071,-115
3072,-107
3073,-100
3074,-83
3075,-57
3076,-40
3077,-21
3078,-25
3079,-31
3080,-31
3081,-35
3082,-46
3083,-41
3084,-11
3085,32
3086,73
3087,91
3088,75
3089,33
3090,-33
3091,-111
3092,-169
3093,-207
3094,-225
3095,-207
3096,-168
3097,-142
3098,-133
3099,-132
3100,-132
3101,-119
3102,-98
3103,-80
3104,-64
3105,-58
3106,-60
3107,-54
3108,-29
3109,18
3110,119
3111,155
3112,156
3113,113
3114,37
3115,-53
3116,-143
3117,-214
3118,-254
3119,-256
3120,-230
3121,-193
3122,-149
3123,-106
3124,-86
3125,-90
3126,-106
3127,-128
3128,-149
3129,-157
3130,-139
3131,-104
3132,-75
3133,-58
3134,-55
3135,-71
3136,-71
3137,-99
3138,-126
3139,-145
3140,-151
3141,-143
3142,-125
3143,-100
3144,-82
3145,-78
3146,-65
3147,-41
3148,1
3149,46
3150,67
3151,75
3152,67
3153,18
3154,-56
3155,-136
3156,-209
3157,-253
3158,-252
3159,-209
3160,-151
3161,-111
3162,-102
3163,-106
3164,-117
3165,-146
3166,-160
3167,-135
3168,-90
3169,-50
3170,-14
3171,9
3172,-1
3173,-35
3174,-75
3175,-117
3176,-150
3177,-196
3178,-201
3179,-196
3180,-193
3181,-179
3182,-154
3183,-129
3184,-106
3185,-84
3186,-63
3187,-42
3188,-18
3189,1
3190,20
3191,36
3192,52
3193,70
3194,81
3195,81
3196,74
3197,61
3198,35
3199,8
3200,-13
3201,-36
3202,-64
3203,-98
3204,-131
3205,-150
3206,-145
3207,-114
3208,-68
3209,-40
3210,-47
3211,-142
3212,-217
3213,-278
3214,-306
3215,-298
3216,-254
3217,-185
3218,-102
3219,-35
3220,-8
3221,6
3222,19
3223,14
3224,-7
3225,-37
3226,-69
3227,-96
3228,-114
3229,-113
3230,-95
3231,-79
3232,-74
3233,-64
3234,-58
3235,-63
3236,-69
3237,-71
3238,-63
3239,-47
3240,-32
3241,-22
3242,-24
3243,-57
3244,-61
3245,-51
3246,-21
3247,14
3248,34
3249,36
3250,20
3251,-15
3252,-57
3253,-87
3254,-99
3255,-93
3256,-77
3257,-61
3258,-50
3259,-54
3260,-70
3261,-79
3262,-75
3263,-66
3264,-54
3265,-39
3266,-24
3267,-14
3268,-12
3269,-5
3270,6
3271,2
3272,-7
3273,-22
3274,-42
3275,-49
3276,-57
3277,-43
3278,-24
3279,-24
3280,-18
3281,-4
3282,-2
3283,-27
3284,-52
3285,-71
3286,-78
3287,-67
3288,-61
3289,-66
3290,-59
3291,-55
3292,-55
3293,-50
3294,-57
3295,-68
3296,-71
3297,-64
3298,-39
3299,-16
3300,-6
3301,3
3302,5
3303,-4
3304,-14
3305,-29
3306,-42
3307,-29
3308,-4
3309,21
3310,48
3311,36
3312,22
3313,13
3314,12
3315,21
3316,35
3317,54
3318,75
3319,84
3320,78
3321,68
3322,58
3323,44
3324,34
3325,31
3326,38
3327,52
3328,68
3329,82
3330,90
3331,83
3332,66
3333,43
3334,26
3335,21
3336,33
3337,61
3338,90
3339,109
3340,117
3341,106
3342,70
3343,-27
3344,-73
3345,-107
3346,-130
3347,-143
3348,-153
3349,-170
3350,-189
3351,-205
3352,-225
3353,-240
3354,-241
3355,-226
3356,-184
3357,-127
3358,-71
3359,-30
3360,-23
3361,-47
3362,-98
3363,-170
3364,-244
3365,-298
3366,-330
3367,-337
3368,-316
3369,-284
3370,-248
3371,-213
3372,-179
3373,-138
3374,-108
3375,-107
3376,-128
3377,-153
3378,-169
3379,-169
3380,-144
3381,-100
3382,-62
3383,-36
3384,-27
3385,-50
3386,-97
3387,-149
3388,-192
3389,-211
3390,-217
3391,-219
3392,-213
3393,-212
3394,-223
3395,-233
3396,-238
3397,-239
3398,-233
3399,-226
3400,-213
3401,-191
3402,-170
3403,-148
3404,-116
3405,-85
3406,-66
3407,-60
3408,-94
3409,-123
3410,-147
3411,-158
3412,-155
3413,-140
3414,-111
3415,-74
3416,-35
3417,-1
3418,21
3419,28
3420,19
3421,19
3422,-7
3423,-46
3424,-87
3425,-125
3426,-149
3427,-151
3428,-134
3429,-109
3430,-79
3431,-52
3432,-28
3433,-6
3434,18
3435,39
3436,45
3437,34
3438,9
3439,-19
3440,-46
3441,-63
3442,-59
3443,-56
3444,-63
3445,-78
3446,-102
3447,-130
3448,-146
3449,-143
3450,-122
3451,-95
3452,-67
3453,-40
3454,-43
3455,-64
3456,-74
3457,-75
3458,-64
3459,-53
3460,-49
3461,-38
3462,-23
3463,-29
3464,-48
3465,-60
3466,-69
3467,-73
3468,-74
3469,-72
3470,-71
3471,-89
3472,-113
3473,-125
3474,-131
3475,-138
3476,-110
3477,-65
3478,-26
3479,4
3480,35
3481,55
3482,60
3483,62
3484,49
3485,20
3486,-10
3487,-47
3488,-86
3489,-118
3490,-149
3491,-167
3492,-165
3493,-157
3494,-138
3495,-107
3496,-89
3497,-88
3498,-95
3499,-110
3500,-113
3501,-99
3502,-74
3503,-38
3504,-3
3505,15
3506,15
3507,-9
3508,-86
3509,-105
3510,-112
3511,-93
3512,-54
3513,-25
3514,6
3515,35
3516,43
3517,28
3518,-16
3519,-81
3520,-144
3521,-200
3522,-250
3523,-263
3524,-230
3525,-177
3526,-98
3527,-20
3528,8
3529,0
3530,-34
3531,-87
3532,-135
3533,-160
3534,-167
3535,-152
3536,-119
3537,-90
3538,-73
3539,-80
3540,-134
3541,-144
3542,-145
3543,-126
3544,-91
3545,-63
3546,-47
3547,-43
3548,-56
3549,-81
3550,-110
3551,-137
3552,-149
3553,-130
3554,-98
3555,-67
3556,-33
3557,-18
3558,-30
3559,-53
3560,-81
3561,-107
3562,-126
3563,-126
3564,-138
3565,-135
3566,-119
3567,-107
3568,-106
3569,-100
3570,-94
3571,-92
3572,-85
3573,-79
3574,-71
3575,-72
3576,-72
3577,-73
3578,-73
3579,-68
3580,-60
3581,-49
3582,-32
3583,-12
3584,13
3585,43
3586,73
3587,102
3588,129
3589,147
3590,156
3591,155
3592,144
3593,121
3594,89
3595,49
3596,5
3597,-41
3598,-88
3599,-135
3600,-171
3601,-192
3602,-189
3603,-164
3604,-128
3605,-84
3606,-42
3607,1
3608,-2
3609,-17
3610,-38
3611,-53
3612,-57
3613,-47
3614,-15
3615,19
3616,66
3617,137
3618,197
3619,233
3620,248
3621,222
3622,163
3623,97
3624,22
3625,-50
3626,-103
3627,-139
3628,-157
3629,-149
3630,-143
3631,-137
3632,-120
3633,-105
3634,-90
3635,-68
3636,-50
3637,-35
3638,-14
3639,15
3640,66
3641,69
3642,53
3643,32
3644,13
3645,-6
3646,-21
3647,-22
3648,-20
3649,-17
3650,-14
3651,-18
3652,-30
3653,-45
3654,-61
3655,-70
3656,-74
3657,-82
3658,-88
3659,-85
3660,-79
3661,-70
3662,-55
3663,-40
3664,-29
3665,-17
3666,-10
3667,-11
3668,-13
3669,-21
3670,-30
3671,-37
3672,-43
3673,-50
3674,-47
3675,-44
3676,-40
3677,-32
3678,-19
3679,-4
3680,7
3681,17
3682,22
3683,22
3684,13
3685,7
3686,11
3687,19
3688,34
3689,67
3690,111
3691,159
3692,201
3693,216
3694,206
3695,175
3696,128
3697,80
3698,39
3699,5
3700,-3
3701,11
3702,44
3703,107
3704,170
3705,170
3706,201
3707,213
3708,184
3709,165
3710,136
3711,97
3712,68
3713,43
3714,18
3715,3
3716,-14
3717,-22
3718,-6
3719,31
3720,93
3721,157
3722,184
3723,175
3724,145
3725,102
3726,53
3727,0
3728,-40
3729,-61
3730,-70
3731,-71
3732,-59
3733,-43
3734,-32
3735,-17
3736,1
3737,16
3738,17
3739,2
3740,-65
3741,-105
3742,-137
3743,-154
3744,-157
3745,-152
3746,-141
3747,-128
3748,-121
3749,-119
3750,-121
3751,-122
3752,-126
3753,-128
3754,-130
3755,-133
3756,-138
3757,-141
3758,-138
3759,-132
3760,-129
3761,-126
3762,-126
3763,-134
3764,-149
3765,-161
3766,-161
3767,-138
3768,-99
3769,-69
3770,-55
3771,-58
3772,-87
3773,-174
3774,-211
3775,-232
3776,-236
3777,-225
3778,-200
3779,-169
3780,-144
3781,-111
3782,-72
3783,-34
3784,-8
3785,0
3786,-8
3787,-38
3788,-85
3789,-137
3790,-185
3791,-215
3792,-226
3793,-218
3794,-195
3795,-160
3796,-123
3797,-98
3798,-88
3799,-88
3800,-93
3801,-103
3802,-107
3803,-101
3804,-95
3805,-94
3806,-120
3807,-148
3808,-180
3809,-207
3810,-219
3811,-220
3812,-214
3813,-192
3814,-153
3815,-101
3816,-29
3817,38
3818,82
3819,109
3820,98
3821,42
3822,-37
3823,-126
3824,-203
3825,-249
3826,-265
3827,-252
3828,-219
3829,-191
3830,-166
3831,-136
3832,-124
3833,-129
3834,-131
3835,-138
3836,-148
3837,-157
3838,-165
3839,-166
3840,-160
3841,-149
3842,-135
3843,-128
3844,-121
3845,-104
3846,-87
3847,-87
3848,-76
3849,-73
3850,-73
3851,-77
3852,-84
3853,-88
3854,-91
3855,-94
3856,-86
3857,-73
3858,-67
3859,-69
3860,-78
3861,-95
3862,-109
3863,-124
3864,-139
3865,-147
3866,-155
3867,-161
3868,-154
3869,-142
3870,-135
3871,-120
3872,-94
3873,-72
3874,-50
3875,-53
3876,-66
3877,-80
3878,-87
3879,-93
3880,-99
3881,-101
3882,-101
3883,-100
3884,-93
3885,-75
3886,-47
3887,-15
3888,10
3889,23
3890,21
3891,0
3892,-45
3893,-94
3894,-136
3895,-164
3896,-169
3897,-155
3898,-138
3899,-120
3900,-105
3901,-99
3902,-90
3903,-71
3904,-59
3905,-50
3906,-41
3907,-66
3908,-93
3909,-118
3910,-137
3911,-156
3912,-165
3913,-159
3914,-149
3915,-125
3916,-83
3917,-52
3918,-39
3919,-38
3920,-53
3921,-79
3922,-114
3923,-147
3924,-159
3925,-151
3926,-139
3927,-119
3928,-101
3929,-110
3930,-123
3931,-125
3932,-122
3933,-115
3934,-105
3935,-93
3936,-79
3937,-66
3938,-52
3939,-32
3940,-29
3941,-32
3942,-39
3943,-47
3944,-53
3945,-56
3946,-50
3947,-39
3948,-24
3949,-9
3950,0
3951,0
3952,1
3953,2
3954,4
3955,18
3956,39
3957,63
3958,91
3959,95
3960,75
3961,47
3962,6
3963,-36
3964,-58
3965,-61
3966,-59
3967,-53
3968,-52
3969,-64
3970,-78
3971,-102
3972,-121
3973,-113
3974,-99
3975,-77
3976,-59
3977,-54
3978,-54
3979,-45
3980,-27
3981,-5
3982,9
3983,17
3984,17
3985,4
3986,-20
3987,-49
3988,-78
3989,-101
3990,-101
3991,-111
3992,-106
3993,-95
3994,-82
3995,-71
3996,-57
3997,-28
3998,9
3999,46
4000,83
4001,112
4002,114
4003,91
4004,49
4005,-1
4006,-58
4007,-45
4008,0
4009,47
4010,73
4011,76
4012,61
4013,40
4014,22
4015,12
4016,20
4017,44
4018,70
4019,100
4020,126
4021,134
4022,133
4023,133
4024,128
4025,123
4026,105
4027,63
4028,17
4029,-27
4030,-69
4031,-97
4032,-103
4033,-93
4034,-76
4035,-55
4036,-44
4037,-47
4038,-77
4039,-79
4040,-61
4041,-20
4042,36
4043,93
4044,137
4045,154
4046,135
4047,91
4048,36
4049,-20
4050,-64
4051,-86
4052,-89
4053,-76
4054,-52
4055,-28
4056,-1
4057,16
4058,14
4059,8
4060,6
4061,4
4062,7
4063,16
4064,31
4065,48
4066,54
4067,45
4068,26
4069,1
4070,-39
4071,-34
4072,-18
4073,-3
4074,4
4075,7
4076,1
4077,-17
4078,-38
4079,-47
4080,-46
4081,-38
4082,-29
4083,-17
4084,-8
4085,-1
4086,16
4087,58
4088,115
4089,168
4090,201
4091,195
4092,157
4093,93
4094,12
4095,-61
4096,-107
4097,-123
4098,-108
4099,-69
4100,-30
4101,-8
4102,0
4103,4
4104,18
4105,38
4106,55
4107,67
4108,72
4109,69
4110,59
4111,46
4112,33
4113,22
4114,12
4115,8
4116,19
4117,48
4118,72
4119,90
4120,105
4121,108
4122,96
4123,78
4124,57
4125,38
4126,30
4127,38
4128,60
4129,90
4130,116
4131,140
4132,140
4133,163
4134,183
4135,198
4136,206
4137,204
4138,200
4139,195
4140,189
4141,172
4142,149
4143,123
4144,105
4145,101
4146,119
4147,156
4148,200
4149,239
4150,275
4151,297
4152,296
4153,287
4154,263
4155,213
4156,157
4157,99
4158,37
4159,-9
4160,-33
4161,-36
4162,-8
4163,33
4164,66
4165,92
4166,90
4167,60
4168,25
4169,-36
4170,-50
4171,-44
4172,-30
4173,-14
4174,8
4175,19
4176,11
4177,-9
4178,-27
4179,-30
4180,-30
4181,-38
4182,-47
4183,-57
4184,-74
4185,-91
4186,-90
4187,-75
4188,-64
4189,-64
4190,-63
4191,-67
4192,-94
4193,-111
4194,-98
4195,-73
4196,-33
4197,15
4198,42
4199,36
4200,-5
4201,-73
4202,-193
4203,-234
4204,-240
4205,-223
4206,-211
4207,-185
4208,-147
4209,-130
4210,-124
4211,-112
4212,-102
4213,-85
4214,-57
4215,-28
4216,7
4217,46
4218,56
4219,44
4220,9
4221,-58
4222,-131
4223,-192
4224,-240
4225,-261
4226,-257
4227,-244
4228,-220
4229,-194
4230,-183
4231,-172
4232,-154
4233,-132
4234,-70
4235,-48
4236,-38
4237,-46
4238,-71
4239,-106
4240,-143
4241,-170
4242,-188
4243,-192
4244,-180
4245,-152
4246,-109
4247,-64
4248,-32
4249,-16
4250,-23
4251,-45
4252,-79
4253,-112
4254,-130
4255,-133
4256,-130
4257,-120
4258,-111
4259,-115
4260,-132
4261,-145
4262,-147
4263,-139
4264,-126
4265,-115
4266,-107
4267,-83
4268,-69
4269,-64
4270,-65
4271,-72
4272,-86
4273,-103
4274,-103
4275,-115
4276,-129
4277,-142
4278,-146
4279,-145
4280,-142
4281,-144
4282,-150
4283,-143
4284,-123
4285,-104
4286,-87
4287,-71
4288,-64
4289,-67
4290,-76
4291,-95
4292,-123
4293,-156
4294,-190
4295,-218
4296,-232
4297,-233
4298,-219
4299,-193
4300,-168
4301,-117
4302,-89
4303,-67
4304,-54
4305,-42
4306,-36
4307,-50
4308,-76
4309,-105
4310,-141
4311,-172
4312,-192
4313,-199
4314,-198
4315,-197
4316,-194
4317,-180
4318,-158
4319,-144
4320,-133
4321,-119
4322,-105
4323,-86
4324,-54
4325,-17
4326,8
4327,16
4328,7
4329,-20
4330,-64
4331,-105
4332,-123
4333,-97
4334,-66
4335,-39
4336,-37
4337,-69
4338,-115
4339,-142
4340,-156
4341,-169
4342,-164
4343,-144
4344,-134
4345,-131
4346,-127
4347,-126
4348,-120
4349,-99
4350,-64
4351,-21
4352,8
4353,10
4354,-6
4355,-37
4356,-78
4357,-120
4358,-150
4359,-161
4360,-149
4361,-106
4362,-42
4363,10
4364,55
4365,93
4366,58
4367,5
4368,-62
4369,-131
4370,-182
4371,-209
4372,-204
4373,-172
4374,-139
4375,-104
4376,-70
4377,-59
4378,-61
4379,-62
4380,-69
4381,-79
4382,-83
4383,-78
4384,-58
4385,-26
4386,0
4387,14
4388,12
4389,-8
4390,-39
4391,-68
4392,-81
4393,-71
4394,-36
4395,9
4396,42
4397,16
4398,-27
4399,-65
4400,-95
4401,-111
4402,-110
4403,-98
4404,-82
4405,-70
4406,-72
4407,-88
4408,-105
4409,-116
4410,-117
4411,-112
4412,-101
4413,-82
4414,-52
4415,-22
4416,-22
4417,3
4418,9
4419,-9
4420,-45
4421,-89
4422,-136
4423,-174
4424,-193
4425,-192
4426,-168
4427,-127
4428,-91
4429,-75
4430,-93
4431,-116
4432,-128
4433,-119
4434,-92
4435,-38
4436,28
4437,68
4438,74
4439,45
4440,-19
4441,-87
4442,-141
4443,-169
4444,-157
4445,-99
4446,-4
4447,111
4448,214
4449,263
4450,259
4451,218
4452,138
4453,38
4454,-55
4455,-132
4456,-182
4457,-188
4458,-143
4459,-77
4460,-19
4461,25
4462,19
4463,-50
4464,-154
4465,-260
4466,-346
4467,-394
4468,-396
4469,-353
4470,-291
4471,-230
4472,-176
4473,-127
4474,-85
4475,-49
4476,-21
4477,-2
4478,-9
4479,-45
4480,-90
4481,-132
4482,-152
4483,-116
4484,-44
4485,35
4486,109
4487,128
4488,91
4489,21
4490,-55
4491,-109
4492,-115
4493,-78
4494,-35
4495,-16
4496,-79
4497,-168
4498,-261
4499,-329
4500,-353
4501,-334
4502,-294
4503,-254
4504,-213
4505,-184
4506,-169
4507,-150
4508,-126
4509,-110
4510,-99
4511,-90
4512,-83
4513,-78
4514,-72
4515,-66
4516,-61
4517,-55
4518,-51
4519,-49
4520,-46
4521,-45
4522,-39
4523,-29
4524,-22
4525,-13
4526,0
4527,6
4528,-9
4529,-27
4530,-41
4531,-44
4532,-47
4533,-49
4534,-47
4535,-48
4536,-31
4537,1
4538,25
4539,40
4540,39
4541,15
4542,-17
4543,-51
4544,-88
4545,-114
4546,-120
4547,-107
4548,-70
4549,-29
4550,-8
4551,5
4552,13
4553,16
4554,18
4555,14
4556,-2
4557,-29
4558,-52
4559,-52
4560,-62
4561,-62
4562,-55
4563,-33
4564,4
4565,54
4566,106
4567,135
4568,138
4569,120
4570,87
4571,50
4572,8
4573,-23
4574,-29
4575,-18
4576,5
4577,44
4578,75
4579,84
4580,88
4581,88
4582,81
4583,71
4584,59
4585,52
4586,53
4587,57
4588,64
4589,71
4590,65
4591,55
4592,47
4593,39
4594,28
4595,22
4596,14
4597,3
4598,-10
4599,-22
4600,-27
4601,-24
4602,-6
4603,20
4604,50
4605,84
4606,103
4607,86
4608,44
4609,-15
4610,-84
4611,-148
4612,-178
4613,-170
4614,-142
4615,-115
4616,-95
4617,-91
4618,-113
4619,-139
4620,-132
4621,-95
4622,-46
4623,-2
4624,25
4625,26
4626,-23
4627,-177
4628,-232
4629,-251
4630,-227
4631,-173
4632,-114
4633,-71
4634,-53
4635,-53
4636,-63
4637,-81
4638,-100
4639,-117
4640,-124
4641,-118
4642,-108
4643,-100
4644,-91
4645,-83
4646,-69
4647,-42
4648,-10
4649,5
4650,-2
4651,-33
4652,-82
4653,-136
4654,-187
4655,-225
4656,-245
4657,-246
4658,-226
4659,-161
4660,-128
4661,-90
4662,-52
4663,-14
4664,21
4665,47
4666,42
4667,12
4668,-33
4669,-85
4670,-130
4671,-162
4672,-182
4673,-190
4674,-191
4675,-174
4676,-132
4677,-95
4678,-76
4679,-50
4680,-10
4681,16
4682,24
4683,15
4684,-10
4685,-53
4686,-100
4687,-135
4688,-151
4689,-156
4690,-144
4691,-115
4692,-77
4693,-92
4694,-112
4695,-131
4696,-153
4697,-165
4698,-160
4699,-141
4700,-110
4701,-110
4702,-74
4703,-46
4704,-30
4705,-19
4706,-6
4707,1
4708,-2
4709,-8
4710,-7
4711,0
4712,18
4713,39
4714,43
4715,24
4716,-6
4717,-37
4718,-76
4719,-127
4720,-173
4721,-200
4722,-206
4723,-194
4724,-170
4725,-147
4726,-122
4727,-94
4728,-37
4729,7
4730,26
4731,35
4732,32
4733,24
4734,23
4735,15
4736,0
4737,-17
4738,-45
4739,-81
4740,-119
4741,-172
4742,-223
4743,-237
4744,-213
4745,-153
4746,-78
4747,-24
4748,5
4749,14
4750,6
4751,-11
4752,-40
4753,-73
4754,-99
4755,-113
4756,-109
4757,-95
4758,-49
4759,-32
4760,-26
4761,-19
4762,-20
4763,-34
4764,-39
4765,-38
4766,-48
4767,-55
4768,-67
4769,-66
4770,-35
4771,-20
4772,-28
4773,-37
4774,-66
4775,-120
4776,-167
4777,-210
4778,-248
4779,-251
4780,-230
4781,-188
4782,-129
4783,-85
4784,-52
4785,-16
4786,0
4787,-12
4788,-44
4789,-89
4790,-186
4791,-211
4792,-215
4793,-188
4794,-149
4795,-118
4796,-100
4797,-97
4798,-107
4799,-119
4800,-129
4801,-136
4802,-138
4803,-131
4804,-116
4805,-100
4806,-91
4807,-87
4808,-82
4809,-78
4810,-77
4811,-78
4812,-80
4813,-77
4814,-72
4815,-59
4816,-40
4817,-23
4818,-17
4819,-20
4820,-36
4821,-63
4822,-97
4823,-143
4824,-148
4825,-145
4826,-132
4827,-105
4828,-59
4829,1
4830,64
4831,114
4832,145
4833,160
4834,140
4835,74
4836,-10
4837,-97
4838,-172
4839,-222
4840,-247
4841,-248
4842,-239
4843,-239
4844,-223
4845,-192
4846,-141
4847,-93
4848,-55
4849,-2
4850,51
4851,88
4852,110
4853,114
4854,119
4855,134
4856,120
4857,91
4858,40
4859,-23
4860,-88
4861,-155
4862,-214
4863,-253
4864,-277
4865,-278
4866,-264
4867,-252
4868,-225
4869,-171
4870,-113
4871,-71
4872,-46
4873,-36
4874,-38
4875,-39
4876,-27
4877,-11
4878,0
4879,4
4880,-4
4881,-30
4882,-75
4883,-125
4884,-145
4885,-133
4886,-108
4887,-64
4888,-12
4889,53
4890,53
4891,32
4892,6
4893,-21
4894,-54
4895,-72
4896,-63
4897,-52
4898,-55
4899,-67
4900,-87
4901,-123
4902,-169
4903,-202
4904,-207
4905,-198
4906,-187
4907,-158
4908,-103
4909,-52
4910,-20
4911,18
4912,58
4913,79
4914,84
4915,76
4916,53
4917,15
4918,-31
4919,-74
4920,-101
4921,-117
4922,-92
4923,-53
4924,-21
4925,8
4926,20
4927,4
4928,-24
4929,-54
4930,-81
4931,-94
4932,-98
4933,-96
4934,-83
4935,-71
4936,-64
4937,-41
4938,-1
4939,26
4940,40
4941,50
4942,45
4943,26
4944,15
4945,24
4946,57
4947,98
4948,117
4949,113
4950,81
4951,9
4952,-67
4953,-118
4954,-123
4955,-19
4956,38
4957,85
4958,100
4959,80
4960,47
4961,13
4962,-7
4963,-10
4964,-6
4965,12
4966,45
4967,67
4968,90
4969,129
4970,163
4971,178
4972,167
4973,134
4974,96
4975,64
4976,40
4977,33
4978,45
4979,63
4980,78
4981,86
4982,80
4983,66
4984,53
4985,53
4986,42
4987,36
4988,44
4989,52
4990,66
4991,74
4992,75
4993,70
4994,57
4995,35
4996,11
4997,-14
4998,-40
4999,-59
5000,-76
5001,-88
5002,-87
5003,-87
5004,-75
5005,-51
5006,-38
5007,-34
5008,-39
5009,-65
5010,-106
5011,-149
5012,-190
5013,-220
5014,-235
5015,-245
5016,-240
5017,-222
5018,-210
5019,-193
5020,-176
5021,-157
5022,-146
5023,-111
5024,-72
5025,-49
5026,-30
5027,-39
5028,-86
5029,-155
5030,-242
5031,-327
5032,-386
5033,-415
5034,-413
5035,-375
5036,-333
5037,-299
5038,-260
5039,-233
5040,-222
5041,-215
5042,-217
5043,-229
5044,-244
5045,-256
5046,-256
5047,-234
5048,-190
5049,-137
5050,-95
5051,-71
5052,-71
5053,-95
5054,-179
5055,-223
5056,-236
5057,-229
5058,-223
5059,-211
5060,-202
5061,-210
5062,-226
5063,-241
5064,-260
5065,-275
5066,-287
5067,-292
5068,-272
5069,-252
5070,-238
5071,-217
5072,-194
5073,-182
5074,-171
5075,-160
5076,-157
5077,-161
5078,-163
5079,-164
5080,-157
5081,-146
5082,-144
5083,-144
5084,-144
5085,-148
5086,-147
5087,-148
5088,-150
5089,-137
5090,-116
5091,-97
5092,-79
5093,-53
5094,-23
5095,-9
5096,-8
5097,-14
5098,-39
5099,-79
5100,-119
5101,-151
5102,-175
5103,-195
5104,-205
5105,-197
5106,-191
5107,-187
5108,-152
5109,-93
5110,-32
5111,5
5112,9
5113,-15
5114,-70
5115,-144
5116,-216
5117,-267
5118,-287
5119,-270
5120,-169
5121,-127
5122,-108
5123,-106
5124,-111
5125,-127
5126,-152
5127,-178
5128,-178
5129,-193
5130,-193
5131,-179
5132,-148
5133,-113
5134,-91
5135,-80
5136,-79
5137,-87
5138,-91
5139,-99
5140,-118
5141,-128
5142,-131
5143,-141
5144,-148
5145,-155
5146,-169
5147,-181
5148,-185
5149,-177
5150,-147
5151,-111
5152,-61
5153,4
5154,50
5155,39
5156,-13
5157,-88
5158,-167
5159,-229
5160,-265
5161,-271
5162,-256
5163,-225
5164,-183
5165,-138
5166,-77
5167,11
5168,87
5169,122
5170,136
5171,118
5172,71
5173,34
5174,-5
5175,-55
5176,-77
5177,-89
5178,-112
5179,-130
5180,-153
5181,-177
5182,-171
5183,-154
5184,-134
5185,-107
5186,-107
5187,-125
5188,-106
5189,-109
5190,-107
5191,-97
5192,-93
5193,-104
5194,-123
5195,-143
5196,-162
5197,-170
5198,-168
5199,-155
5200,-139
5201,-127
5202,-106
5203,-70
5204,-27
5205,8
5206,28
5207,28
5208,5
5209,-32
5210,-82
5211,-130
5212,-163
5213,-176
5214,-168
5215,-144
5216,-111
5217,-71
5218,-33
5219,-8
5220,7
5221,13
5222,-13
5223,-31
5224,-41
5225,-37
5226,-18
5227,10
5228,42
5229,74
5230,89
5231,83
5232,71
5233,52
5234,22
5235,-4
5236,0
5237,36
5238,72
5239,83
5240,64
5241,-2
5242,-118
5243,-254
5244,-377
5245,-460
5246,-496
5247,-480
5248,-412
5249,-309
5250,-216
5251,-151
5252,-106
5253,-87
5254,-88
5255,-121
5256,-145
5257,-163
5258,-163
5259,-149
5260,-128
5261,-100
5262,-84
5263,-84
5264,-81
5265,-74
5266,-68
5267,-58
5268,-45
5269,-37
5270,-37
5271,-35
5272,-38
5273,-48
5274,-61
5275,-76
5276,-94
5277,-106
5278,-108
5279,-97
5280,-69
5281,-42
5282,-30
5283,-33
5284,-49
5285,-77
5286,-115
5287,-156
5288,-184
5289,-165
5290,-122
5291,-79
5292,-57
5293,-46
5294,-47
5295,-57
5296,-68
5297,-75
5298,-58
5299,-17
5300,21
5301,62
5302,107
5303,127
5304,113
5305,79
5306,33
5307,-19
5308,-67
5309,-94
5310,-77
5311,-40
5312,-11
5313,14
5314,28
5315,14
5316,-28
5317,-78
5318,-114
5319,-125
5320,-102
5321,16
5322,51
5323,59
5324,41
5325,4
5326,-40
5327,-83
5328,-116
5329,-129
5330,-126
5331,-107
5332,-74
5333,-40
5334,3
5335,69
5336,135
5337,174
5338,178
5339,149
5340,95
5341,30
5342,-29
5343,-71
5344,-82
5345,-54
5346,0
5347,54
5348,94
5349,105
5350,96
5351,77
5352,52
5353,37
5354,80
5355,105
5356,139
5357,176
5358,190
5359,187
5360,186
5361,177
5362,163
5363,158
5364,161
5365,158
5366,136
5367,97
5368,61
5369,29
5370,4
5371,-3
5372,6
5373,22
5374,43
5375,73
5376,102
5377,110
5378,94
5379,63
5380,15
5381,-48
5382,-107
5383,-138
5384,-147
5385,-149
5386,-139
5387,-126
5388,-140
5389,-173
5390,-207
5391,-225
5392,-215
5393,-177
5394,-116
5395,-60
5396,-39
5397,-44
5398,-67
5399,-108
5400,-156
5401,-200
5402,-230
5403,-236
5404,-224
5405,-200
5406,-171
5407,-151
5408,-123
5409,-69
5410,-13
5411,28
5412,28
5413,62
5414,68
5415,42
5416,-7
5417,-73
5418,-142
5419,-202
5420,-246
5421,-255
5422,-177
5423,-124
5424,-88
5425,-72
5426,-84
5427,-120
5428,-163
5429,-198
5430,-214
5431,-210
5432,-186
5433,-149
5434,-99
5435,-59
5436,-48
5437,-51
5438,-55
5439,-61
5440,-75
5441,-76
5442,-72
5443,-83
5444,-94
5445,-103
5446,-107
5447,-108
5448,-124
5449,-141
5450,-139
5451,-132
5452,-128
5453,-124
5454,-139
5455,-199
5456,-212
5457,-194
5458,-170
5459,-160
5460,-146
5461,-134
5462,-127
5463,-115
5464,-96
5465,-70
5466,-41
5467,-26
5468,-29
5469,-51
5470,-98
5471,-158
5472,-206
5473,-231
5474,-219
5475,-184
5476,-129
5477,-53
5478,0
5479,15
5480,9
5481,-13
5482,-47
5483,-81
5484,-107
5485,-108
5486,-92
5487,-72
5488,7
5489,48
5490,51
5491,39
5492,26
5493,0
5494,-51
5495,-112
5496,-159
5497,-194
5498,-200
5499,-166
5500,-120
5501,-94
5502,-107
5503,-140
5504,-166
5505,-194
5506,-223
5507,-233
5508,-218
5509,-188
5510,-147
5511,-106
5512,-85
5513,-81
5514,-74
5515,-67
5516,-61
5517,-58
5518,-55
5519,-53
5520,-54
5521,-56
5522,-55
5523,-54
5524,-52
5525,-47
5526,-37
5527,-20
5528,-3
5529,8
5530,11
5531,2
5532,-17
5533,-43
5534,-71
5535,-95
5536,-111
5537,-113
5538,-105
5539,-91
5540,-76
5541,-62
5542,-51
5543,-42
5544,-36
5545,-34
5546,-32
5547,-32
5548,-33
5549,-32
5550,-32
5551,-32
5552,-35
5553,-39
5554,-36
5555,-27
5556,-11
5557,13
5558,39
5559,60
5560,72
5561,68
5562,54
5563,45
5564,43
5565,59
5566,103
5567,142
5568,145
5569,118
5570,57
5571,-31
5572,-107
5573,-150
5574,-162
5575,-147
5576,-108
5577,-62
5578,-18
5579,2
5580,0
5581,-12
5582,-35
5583,-70
5584,-105
5585,-139
5586,-181
5587,-214
5588,-144
5589,-94
5590,-38
5591,-2
5592,-11
5593,-46
5594,-94
5595,-146
5596,-189
5597,-216
5598,-221
5599,-197
5600,-167
5601,-152
5602,-130
5603,-114
5604,-111
5605,-105
5606,-100
5607,-95
5608,-89
5609,-84
5610,-74
5611,-61
5612,-50
5613,-43
5614,-33
5615,-20
5616,0
5617,32
5618,75
5619,120
5620,155
5621,178
5622,161
5623,125
5624,85
5625,49
5626,21
5627,3
5628,-7
5629,-23
5630,-54
5631,-91
5632,-129
5633,-164
5634,-196
5635,-209
5636,-174
5637,-114
5638,-69
5639,-30
5640,-3
5641,-7
5642,-28
5643,-58
5644,-92
5645,-115
5646,-127
5647,-135
5648,-131
5649,-132
5650,-152
5651,-160
5652,-144
5653,-121
5654,-70
5655,-68
5656,-76
5657,-98
5658,-130
5659,-149
5660,-151
5661,-139
5662,-112
5663,-87
5664,-73
5665,-72
5666,-92
5667,-125
5668,-154
5669,-175
5670,-177
5671,-158
5672,-133
5673,-104
5674,-73
5675,-60
5676,-60
5677,-67
5678,-78
5679,-80
5680,-75
5681,-72
5682,-69
5683,-71
5684,-78
5685,-82
5686,-88
5687,-87
5688,-67
5689,-66
5690,-69
5691,-80
5692,-95
5693,-100
5694,-91
5695,-71
5696,-44
5697,-44
5698,-18
5699,0
5700,11
5701,5
5702,-9
5703,-25
5704,-47
5705,-71
5706,-72
5707,-51
5708,-14
5709,29
5710,59
5711,74
5712,72
5713,53
5714,32
5715,9
5716,-21
5717,-39
5718,-38
5719,-43
5720,-62
5721,-99
5722,-103
5723,-82
5724,-62
5725,-47
5726,-41
5727,-49
5728,-51
5729,-45
5730,-36
5731,-20
5732,6
5733,28
5734,47
5735,63
5736,62
5737,48
5738,41
5739,44
5740,50
5741,55
5742,63
5743,67
5744,66
5745,68
5746,77
5747,95
5748,118
5749,138
5750,149
5751,153
5752,143
5753,117
5754,46
5755,12
5756,-14
5757,-33
5758,-38
5759,-33
5760,-27
5761,-21
5762,-9
5763,3
5764,16
5765,25
5766,24
5767,16
5768,0
5769,-20
5770,-35
5771,-35
5772,-18
5773,3
5774,34
5775,62
5776,58
5777,21
5778,-42
5779,-115
5780,-177
5781,-213
5782,-221
5783,-205
5784,-176
5785,-150
5786,-125
5787,-93
5788,-75
5789,-82
5790,-82
5791,-97
5792,-126
5793,-162
5794,-204
5795,-237
5796,-257
5797,-263
5798,-248
5799,-226
5800,-211
5801,-188
5802,-158
5803,-146
5804,-146
5805,-148
5806,-150
5807,-145
5808,-138
5809,-130
5810,-105
5811,-80
5812,-67
5813,-54
5814,-57
5815,-82
5816,-108
5817,-125
5818,-135
5819,-139
5820,-146
5821,-154
5822,-177
5823,-211
5824,-233
5825,-246
5826,-245
5827,-218
5828,-175
5829,-131
5830,-102
5831,-87
5832,-83
5833,-87
5834,-95
5835,-101
5836,-107
5837,-106
5838,-103
5839,-103
5840,-98
5841,-87
5842,-63
5843,-37
5844,-27
5845,-32
5846,-53
5847,-89
5848,-135
5849,-182
5850,-215
5851,-228
5852,-222
5853,-200
5854,-164
5855,-131
5856,-80
5857,-54
5858,-42
5859,-41
5860,-54
5861,-81
5862,-113
5863,-140
5864,-158
5865,-158
5866,-151
5867,-136
5868,-115
5869,-102
5870,-90
5871,-71
5872,-62
5873,-62
5874,-59
5875,-53
5876,-43
5877,-39
5878,-43
5879,-48
5880,-56
5881,-64
5882,-65
5883,-65
5884,-76
5885,-87
5886,-92
5887,-95
5888,-105
5889,-125
5890,-122
5891,-122
5892,-123
5893,-118
5894,-111
5895,-110
5896,-113
5897,-113
5898,-115
5899,-126
5900,-134
5901,-138
5902,-145
5903,-155
5904,-160
5905,-155
5906,-145
5907,-129
5908,-92
5909,-51
5910,-24
5911,-7
5912,1
5913,11
5914,21
5915,20
5916,4
5917,-18
5918,-49
5919,-86
5920,-119
5921,-146
5922,-180
5923,-169
5924,-146
5925,-129
5926,-127
5927,-128
5928,-119
5929,-107
5930,-101
5931,-99
5932,-93
5933,-96
5934,-103
5935,-96
5936,-78
5937,-54
5938,-25
5939,-2
5940,13
5941,20
5942,14
5943,-1
5944,-16
5945,-18
5946,-7
5947,22
5948,66
5949,93
5950,82
5951,33
5952,-42
5953,-129
5954,-211
5955,-277
5956,-248
5957,-203
5958,-154
5959,-114
5960,-101
5961,-111
5962,-113
5963,-105
5964,-90
5965,-68
5966,-43
5967,-21
5968,-13
5969,-11
5970,-9
5971,-5
5972,-2
5973,1
5974,1
5975,-2
5976,-16
5977,-35
5978,-57
5979,-75
5980,-79
5981,-79
5982,-61
5983,-6
5984,63
5985,115
5986,139
5987,133
5988,41
5989,-15
5990,-58
5991,-79
5992,-84
5993,-81
5994,-68
5995,-62
5996,-76
5997,-97
5998,-107
5999,-110
6000,-112
6001,-113
6002,-114
6003,-121
6004,-132
6005,-139
6006,-139
6007,-128
6008,-109
6009,-90
6010,-72
6011,-54
6012,-42
6013,-32
6014,-25
6015,-17
6016,-2
6017,4
6018,-5
6019,-24
6020,-45
6021,-91
6022,-95
6023,-85
6024,-74
6025,-70
6026,-68
6027,-62
6028,-57
6029,-36
6030,22
6031,98
6032,164
6033,213
6034,235
6035,222
6036,180
6037,128
6038,77
6039,40
6040,17
6041,2
6042,-5
6043,-18
6044,-43
6045,-72
6046,-107
6047,-150
6048,-192
6049,-223
6050,-238
6051,-226
6052,-187
6053,-134
6054,-35
6055,2
6056,25
6057,34
6058,40
6059,40
6060,51
6061,78
6062,103
6063,118
6064,115
6065,91
6066,54
6067,11
6068,-36
6069,-74
6070,-91
6071,-92
6072,-74
6073,-45
6074,-29
6075,-27
6076,-25
6077,-25
6078,-20
6079,-9
6080,7
6081,25
6082,38
6083,46
6084,53
6085,66
6086,87
6087,97
6088,91
6089,72
6090,43
6091,7
6092,-25
6093,-48
6094,-48
6095,-13
6096,29
6097,56
6098,77
6099,81
6100,59
6101,24
6102,-16
6103,-54
6104,-74
6105,-79
6106,-64
6107,-31
6108,-4
6109,9
6110,20
6111,34
6112,38
6113,42
6114,55
6115,65
6116,70
6117,72
6118,55
6119,-18
6120,-56
6121,-80
6122,-80
6123,-80
6124,-68
6125,-48
6126,-21
6127,-10
6128,3
6129,25
6130,53
6131,85
6132,119
6133,156
6134,198
6135,223
6136,222
6137,196
6138,149
6139,94
6140,49
6141,14
6142,-12
6143,-32
6144,-48
6145,-52
6146,-42
6147,-36
6148,-32
6149,-20
6150,2
6151,32
6152,88
6153,105
6154,118
6155,128
6156,136
6157,142
6158,144
6159,143
6160,140
6161,136
6162,134
6163,132
6164,135
6165,141
6166,146
6167,145
6168,142
6169,137
6170,129
6171,119
6172,120
6173,127
6174,132
6175,135
6176,138
6177,133
6178,122
6179,111
6180,103
6181,99
6182,104
6183,111
6184,113
6185,67
6186,24
6187,-20
6188,-70
6189,-116
6190,-142
6191,-156
6192,-155
6193,-121
6194,-80
6195,-63
6196,-56
6197,-52
6198,-45
6199,-20
6200,16
6201,54
6202,92
6203,109
6204,89
6205,52
6206,-18
6207,-122
6208,-208
6209,-261
6210,-287
6211,-284
6212,-269
6213,-252
6214,-228
6215,-205
6216,-189
6217,-171
6218,-169
6219,-166
6220,-164
6221,-164
6222,-161
6223,-155
6224,-142
6225,-120
6226,-92
6227,-71
6228,-59
6229,-54
6230,-60
6231,-70
6232,-78
6233,-86
6234,-91
6235,-90
6236,-91
6237,-99
6238,-117
6239,-144
6240,-170
6241,-185
6242,-185
6243,-164
6244,-128
6245,-91
6246,-62
6247,-44
6248,-43
6249,-63
6250,-92
6251,-139
6252,-145
6253,-137
6254,-122
6255,-109
6256,-99
6257,-83
6258,-65
6259,-62
6260,-72
6261,-88
6262,-113
6263,-142
6264,-166
6265,-174
6266,-174
6267,-159
6268,-110
6269,-26
6270,60
6271,99
6272,85
6273,52
6274,0
6275,-62
6276,-94
6277,-110
6278,-127
6279,-138
6280,-154
6281,-178
6282,-219
6283,-270
6284,-291
6285,-226
6286,-199
6287,-168
6288,-160
6289,-175
6290,-183
6291,-181
6292,-165
6293,-134
6294,-95
6295,-51
6296,-8
6297,16
6298,15
6299,-2
6300,-30
6301,-66
6302,-101
6303,-123
6304,-127
6305,-124
6306,-118
6307,-110
6308,-107
6309,-110
6310,-116
6311,-120
6312,-118
6313,-111
6314,-103
6315,-95
6316,-85
6317,-79
6318,-67
6319,-58
6320,-54
6321,-53
6322,-58
6323,-63
6324,-64
6325,-65
6326,-63
6327,-55
6328,-46
6329,-39
6330,-34
6331,-35
6332,-36
6333,-30
6334,-19
6335,-17
6336,-24
6337,-33
6338,-51
6339,-77
6340,-101
6341,-123
6342,-144
6343,-161
6344,-174
6345,-182
6346,-185
6347,-184
6348,-168
6349,-131
6350,-34
6351,10
6352,28
6353,16
6354,-19
6355,-71
6356,-128
6357,-175
6358,-201
6359,-200
6360,-179
6361,-148
6362,-116
6363,-102
6364,-108
6365,-120
6366,-135
6367,-135
6368,-99
6369,-54
6370,-19
6371,9
6372,18
6373,0
6374,-39
6375,-92
6376,-142
6377,-177
6378,-201
6379,-205
6380,-188
6381,-181
6382,-168
6383,-154
6384,-141
6385,-131
6386,-125
6387,-113
6388,-92
6389,-62
6390,-28
6391,-5
6392,0
6393,-10
6394,-37
6395,-73
6396,-108
6397,-133
6398,-139
6399,-129
6400,-110
6401,-88
6402,-75
6403,-69
6404,-68
6405,-68
6406,-68
6407,-68
6408,-68
6409,-72
6410,-82
6411,-96
6412,-113
6413,-131
6414,-144
6415,-147
6416,-90
6417,-51
6418,-16
6419,6
6420,8
6421,-5
6422,-27
6423,-58
6424,-86
6425,-104
6426,-111
6427,-110
6428,-107
6429,-109
6430,-110
6431,-101
6432,-82
6433,-59
6434,-36
6435,-27
6436,-42
6437,-69
6438,-99
6439,-113
6440,-106
6441,-90
6442,-75
6443,-66
6444,-69
6445,-95
6446,-126
6447,-150
6448,-162
6449,-151
6450,-44
6451,19
6452,67
6453,98
6454,114
6455,116
6456,103
6457,90
6458,88
6459,80
6460,56
6461,27
6462,-22
6463,-98
6464,-184
6465,-269
6466,-324
6467,-327
6468,-290
6469,-218
6470,-125
6471,-50
6472,-6
6473,7
6474,-17
6475,-62
6476,-112
6477,-154
6478,-173
6479,-167
6480,-151
6481,-125
6482,-88
6483,-43
6484,-55
6485,-82
6486,-105
6487,-118
6488,-111
6489,-80
6490,-40
6491,-6
6492,15
6493,14
6494,-13
6495,-59
6496,-111
6497,-145
6498,-159
6499,-149
6500,-116
6501,-84
6502,-67
6503,-62
6504,-65
6505,-64
6506,-47
6507,-17
6508,10
6509,29
6510,28
6511,6
6512,-23
6513,-60
6514,-94
6515,-98
6516,-76
6517,-36
6518,0
6519,16
6520,28
6521,40
6522,37
6523,27
6524,10
6525,-12
6526,-27
6527,-23
6528,3
6529,47
6530,83
6531,90
6532,88
6533,74
6534,26
6535,-30
6536,-76
6537,-111
6538,-130
6539,-129
6540,-110
6541,-83
6542,-56
6543,-31
6544,-4
6545,18
6546,22
6547,15
6548,11
6549,18
6550,18
6551,45
6552,72
6553,87
6554,98
6555,98
6556,87
6557,75
6558,63
6559,47
6560,35
6561,31
6562,43
6563,69
6564,83
6565,89
6566,99
6567,101
6568,100
6569,106
6570,107
6571,102
6572,103
6573,112
6574,124
6575,127
6576,121
6577,118
6578,122
6579,140
6580,184
6581,268
6582,271
6583,251
6584,209
6585,152
6586,93
6587,48
6588,25
6589,17
6590,22
6591,35
6592,34
6593,16
6594,0
6595,-11
6596,-16
6597,-17
6598,-20
6599,-27
6600,-32
6601,-37
6602,-41
6603,-37
6604,-27
6605,-16
6606,3
6607,33
6608,64
6609,78
6610,59
6611,22
6612,-27
6613,-86
6614,-158
6615,-173
6616,-180
6617,-178
6618,-176
6619,-182
6620,-195
6621,-203
6622,-196
6623,-178
6624,-153
6625,-124
6626,-97
6627,-71
6628,-59
6629,-66
6630,-82
6631,-113
6632,-158
6633,-199
6634,-223
6635,-214
6636,-158
6637,-69
6638,14
6639,69
6640,72
6641,26
6642,-46
6643,-130
6644,-204
6645,-242
6646,-232
6647,-130
6648,-67
6649,-30
6650,-22
6651,-32
6652,-45
6653,-51
6654,-60
6655,-59
6656,-40
6657,-26
6658,-27
6659,-40
6660,-66
6661,-100
6662,-134
6663,-163
6664,-172
6665,-167
6666,-165
6667,-156
6668,-140
6669,-127
6670,-102
6671,-74
6672,-51
6673,-19
6674,16
6675,44
6676,62
6677,56
6678,23
6679,-83
6680,-140
6681,-175
6682,-200
6683,-207
6684,-182
6685,-152
6686,-131
6687,-122
6688,-124
6689,-118
6690,-102
6691,-100
6692,-100
6693,-95
6694,-83
6695,-79
6696,-83
6697,-86
6698,-93
6699,-99
6700,-104
6701,-108
6702,-100
6703,-89
6704,-82
6705,-53
6706,-1
6707,48
6708,75
6709,78
6710,50
6711,-4
6712,-73
6713,-173
6714,-179
6715,-153
6716,-101
6717,-54
6718,-26
6719,-26
6720,-43
6721,-58
6722,-77
6723,-96
6724,-103
6725,-105
6726,-100
6727,-76
6728,-57
6729,-57
6730,-63
6731,-70
6732,-83
6733,-96
6734,-115
6735,-130
6736,-124
6737,-103
6738,-63
6739,-15
6740,8
6741,14
6742,16
6743,5
6744,-20
6745,-41
6746,-41
6747,-6
6748,35
6749,52
6750,41
6751,-3
6752,-75
6753,-149
6754,-215
6755,-266
6756,-273
6757,-241
6758,-192
6759,-128
6760,-71
6761,-41
6762,-11
6763,14
6764,10
6765,-16
6766,-58
6767,-106
6768,-148
6769,-167
6770,-153
6771,-134
6772,-119
6773,-111
6774,-114
6775,-127
6776,-151
6777,-175
6778,-165
6779,-142
6780,-124
6781,-108
6782,-114
6783,-137
6784,-154
6785,-167
6786,-172
6787,-168
6788,-159
6789,-150
6790,-132
6791,-109
6792,-92
6793,-73
6794,-53
6795,-38
6796,-30
6797,-24
6798,-25
6799,-30
6800,-36
6801,-45
6802,-57
6803,-59
6804,-55
6805,-36
6806,10
6807,56
6808,88
6809,109
6810,54
6811,0
6812,-62
6813,-114
6814,-138
6815,-145
6816,-136
6817,-117
6818,-113
6819,-124
6820,-133
6821,-145
6822,-153
6823,-150
6824,-144
6825,-137
6826,-130
6827,-125
6828,-123
6829,-120
6830,-116
6831,-112
6832,-106
6833,-100
6834,-96
6835,-96
6836,-92
6837,-88
6838,-88
6839,-87
6840,-88
6841,-88
6842,-88
6843,-90
6844,-91
6845,-96
6846,-101
6847,-97
6848,-80
6849,-47
6850,-1
6851,31
6852,41
6853,28
6854,-5
6855,-52
6856,-94
6857,-115
6858,-107
6859,-77
6860,-31
6861,22
6862,68
6863,105
6864,151
6865,208
6866,254
6867,265
6868,238
6869,178
6870,97
6871,10
6872,-78
6873,-152
6874,-203
6875,-237
6876,-268
6877,-294
6878,-323
6879,-330
6880,-320
6881,-290
6882,-239
6883,-205
6884,-182
6885,-142
6886,-107
6887,-89
6888,-79
6889,-79
6890,-84
6891,-84
6892,-86
6893,-88
6894,-85
6895,-92
6896,-100
6897,-93
6898,-82
6899,-77
6900,-65
6901,-51
6902,-36
6903,-19
6904,-1
6905,5
6906,5
6907,2
6908,-3
6909,0
6910,10
6911,27
6912,48
6913,79
6914,102
6915,102
6916,86
6917,62
6918,43
6919,32
6920,20
6921,10
6922,6
6923,0
6924,-6
6925,-4
6926,-5
6927,-8
6928,6
6929,25
6930,37
6931,35
6932,11
6933,-19
6934,-45
6935,-60
6936,-60
6937,-48
6938,-26
6939,-2
6940,28
6941,24
6942,16
6943,7
6944,0
6945,0
6946,10
6947,24
6948,40
6949,60
6950,76
6951,82
6952,80
6953,70
6954,57
6955,40
6956,25
6957,16
6958,12
6959,12
6960,17
6961,24
6962,31
6963,37
6964,43
6965,50
6966,55
6967,58
6968,61
6969,60
6970,57
6971,55
6972,53
6973,56
6974,60
6975,65
6976,68
6977,68
6978,71
6979,75
6980,82
6981,92
6982,105
6983,121
6984,140
6985,159
6986,172
6987,188
6988,196
6989,189
6990,183
6991,172
6992,142
6993,109
6994,86
6995,82
6996,112
6997,181
6998,291
6999,407
7000,450
7001,414
7002,344
7003,234
7004,89
7005,-32
7006,-165
7007,-187
7008,-186
7009,-174
7010,-181
7011,-217
7012,-238
7013,-222
7014,-204
7015,-202
7016,-196
7017,-191
7018,-191
7019,-177
7020,-152
7021,-131
7022,-120
7023,-115
7024,-117
7025,-128
7026,-143
7027,-161
7028,-174
7029,-181
7030,-178
7031,-166
7032,-150
7033,-137
7034,-127
7035,-121
7036,-119
7037,-122
7038,-128
7039,-129
7040,-125
7041,-119
7042,-119
7043,-123
7044,-125
7045,-123
7046,-101
7047,-62
7048,-34
7049,-8
7050,20
7051,41
7052,69
7053,87
7054,81
7055,81
7056,70
7057,18
7058,-49
7059,-125
7060,-212
7061,-288
7062,-341
7063,-375
7064,-383
7065,-379
7066,-372
7067,-331
7068,-276
7069,-236
7070,-203
7071,-162
7072,-177
7073,-200
7074,-214
7075,-209
7076,-187
7077,-165
7078,-146
7079,-133
7080,-136
7081,-153
7082,-167
7083,-177
7084,-184
7085,-185
7086,-179
7087,-165
7088,-149
7089,-135
7090,-117
7091,-96
7092,-80
7093,-70
7094,-64
7095,-62
7096,-48
7097,-24
7098,-4
7099,9
7100,11
7101,-3
7102,-31
7103,-73
7104,-147
7105,-144
7106,-104
7107,-37
7108,18
7109,46
7110,45
7111,7
7112,-52
7113,-114
7114,-162
7115,-163
7116,-117
7117,-68
7118,-29
7119,-29
7120,-18
7121,-48
7122,-96
7123,-148
7124,-197
7125,-221
7126,-221
7127,-207
7128,-179
7129,-150
7130,-146
7131,-150
7132,-147
7133,-138
7134,-132
7135,-129
7136,-124
7137,-116
7138,-98
7139,-90
7140,-86
7141,-83
7142,-84
7143,-84
7144,-81
7145,-81
7146,-83
7147,-83
7148,-83
7149,-82
7150,-78
7151,-73
7152,-68
7153,-62
7154,-57
7155,-51
7156,-45
7157,-42
7158,-39
7159,-37
7160,-37
7161,-40
7162,-43
7163,-44
7164,-39
7165,-24
7166,-2
7167,29
7168,69
7169,107
7170,164
7171,163
7172,143
7173,106
7174,55
7175,4
7176,-45
7177,-91
7178,-124
7179,-147
7180,-161
7181,-167
7182,-166
7183,-153
7184,-126
7185,-93
7186,-59
7187,-27
7188,-9
7189,-5
7190,-19
7191,-47
7192,-75
7193,-99
7194,-102
7195,-80
7196,-48
7197,-11
7198,18
7199,39
7200,52
7201,46
7202,32
7203,5
7204,-2
7205,1
7206,-8
7207,-35
7208,-68
7209,-107
7210,-141
7211,-165
7212,-184
7213,-183
7214,-170
7215,-160
7216,-140
7217,-111
7218,-81
7219,-37
7220,7
7221,34
7222,47
7223,38
7224,9
7225,-28
7226,-68
7227,-98
7228,-108
7229,-101
7230,-81
7231,-57
7232,-44
7233,-42
7234,-40
7235,-37
7236,-34
7237,-30
7238,-20
7239,-3
7240,23
7241,57
7242,95
7243,136
7244,176
7245,205
7246,223
7247,223
7248,198
7249,161
7250,122
7251,72
7252,14
7253,-45
7254,-108
7255,-164
7256,-199
7257,-216
7258,-212
7259,-181
7260,-140
7261,-140
7262,-97
7263,-59
7264,-49
7265,-62
7266,-78
7267,-95
7268,-106
7269,-105
7270,-99
7271,-91
7272,-87
7273,-85
7274,-79
7275,-71
7276,-61
7277,-47
7278,-36
7279,-32
7280,-29
7281,-27
7282,-25
7283,-24
7284,-20
7285,-17
7286,-13
7287,-13
7288,-14
7289,-14
7290,-14
7291,-15
7292,-12
7293,-9
7294,-8
7295,-9
7296,-10
7297,-11
7298,-11
7299,-12
7300,-7
7301,5
7302,22
7303,73
7304,91
7305,96
7306,97
7307,86
7308,61
7309,32
7310,1
7311,-24
7312,-38
7313,-45
7314,-41
7315,-36
7316,-40
7317,-45
7318,-46
7319,-54
7320,-62
7321,-59
7322,-49
7323,-34
7324,-12
7325,3
7326,7
7327,0
7328,-11
7329,-22
7330,-24
7331,-5
7332,27
7333,58
7334,87
7335,105
7336,91
7337,68
7338,41
7339,25
7340,21
7341,30
7342,76
7343,141
7344,176
7345,197
7346,202
7347,168
7348,111
7349,50
7350,-14
7351,-59
7352,-78
7353,-87
7354,-69
7355,-45
7356,-44
7357,-40
7358,-25
7359,-13
7360,0
7361,13
7362,20
7363,30
7364,54
7365,92
7366,129
7367,156
7368,172
7369,167
7370,153
7371,135
7372,122
7373,116
7374,118
7375,133
7376,142
7377,126
7378,95
7379,64
7380,38
7381,20
7382,19
7383,49
7384,93
7385,130
7386,155
7387,160
7388,142
7389,107
7390,60
7391,19
7392,-2
7393,-26
7394,-49
7395,-58
7396,-74
7397,-94
7398,-101
7399,-99
7400,-92
7401,-76
7402,-52
7403,-38
7404,-38
7405,-27
7406,-22
7407,-29
7408,-53
7409,-93
7410,-140
7411,-187
7412,-223
7413,-235
7414,-224
7415,-208
7416,-188
7417,-166
7418,-149
7419,-139
7420,-130
7421,-118
7422,-102
7423,-92
7424,-96
7425,-106
7426,-112
7427,-101
7428,-71
7429,-35
7430,4
7431,32
7432,23
7433,-8
7434,-50
7435,-90
7436,-79
7437,-71
7438,-67
7439,-89
7440,-139
7441,-181
7442,-210
7443,-223
7444,-207
7445,-189
7446,-180
7447,-170
7448,-183
7449,-213
7450,-227
7451,-226
7452,-210
7453,-186
7454,-164
7455,-144
7456,-135
7457,-135
7458,-137
7459,-133
7460,-114
7461,-89
7462,-74
7463,-68
7464,-75
7465,-90
7466,-105
7467,-137
7468,-218
7469,-240
7470,-241
7471,-224
7472,-207
7473,-195
7474,-181
7475,-154
7476,-117
7477,-84
7478,-77
7479,-84
7480,-97
7481,-118
7482,-122
7483,-122
7484,-131
7485,-128
7486,-117
7487,-113
7488,-120
7489,-136
7490,-151
7491,-157
7492,-155
7493,-145
7494,-124
7495,-110
7496,-110
7497,-106
7498,-100
7499,-99
7500,-95
7501,-92
7502,-90
7503,-89
7504,-86
7505,-81
7506,-75
7507,-70
7508,-67
7509,-67
7510,-70
7511,-74
7512,-79
7513,-83
7514,-83
7515,-81
7516,-77
7517,-74
7518,-75
7519,-77
7520,-79
7521,-81
7522,-81
7523,-78
7524,-72
7525,-64
7526,-54
7527,-42
7528,-26
7529,-12
7530,1
7531,14
7532,22
7533,17
7534,13
7535,10
7536,6
7537,-4
7538,-17
7539,-34
7540,-58
7541,-83
7542,-92
7543,-93
7544,-88
7545,-77
7546,-77
7547,-65
7548,-55
7549,-55
7550,-74
7551,-97
7552,-110
7553,-116
7554,-98
7555,-46
7556,3
7557,43
7558,80
7559,95
7560,71
7561,17
7562,-51
7563,-120
7564,-176
7565,-209
7566,-206
7567,-193
7568,-178
7569,-151
7570,-117
7571,-93
7572,-73
7573,-54
7574,-47
7575,-56
7576,-72
7577,-92
7578,-111
7579,-118
7580,-113
7581,-99
7582,-76
7583,-45
7584,-10
7585,17
7586,44
7587,87
7588,118
7589,106
7590,65
7591,4
7592,-73
7593,-148
7594,-202
7595,-225
7596,-219
7597,-205
7598,-154
7599,-140
7600,-157
7601,-167
7602,-161
7603,-147
7604,-124
7605,-92
7606,-66
7607,-49
7608,-39
7609,-38
7610,-42
7611,-49
7612,-65
7613,-80
7614,-91
7615,-103
7616,-111
7617,-117
7618,-127
7619,-135
7620,-138
7621,-141
7622,-143
7623,-144
7624,-141
7625,-120
7626,-77
7627,-32
7628,7
7629,29
7630,4
7631,-17
7632,-34
7633,-39
7634,-42
7635,-54
7636,-65
7637,-72
7638,-84
7639,-83
7640,-57
7641,-29
7642,-4
7643,6
7644,-16
7645,-70
7646,-142
7647,-213
7648,-254
7649,-254
7650,-224
7651,-172
7652,-103
7653,-39
7654,18
7655,74
7656,114
7657,137
7658,142
7659,120
7660,79
7661,24
7662,-36
7663,-134
7664,-152
7665,-163
7666,-177
7667,-194
7668,-219
7669,-252
7670,-284
7671,-307
7672,-312
7673,-291
7674,-254
7675,-199
7676,-133
7677,-86
7678,-59
7679,-40
7680,-31
7681,-28
7682,-27
7683,-39
7684,-62
7685,-83
7686,-108
7687,-131
7688,-131
7689,-144
7690,-159
7691,-168
7692,-161
7693,-138
7694,-97
7695,-56
7696,-26
7697,-24
7698,-32
7699,-47
7700,-61
7701,-68
7702,-69
7703,-63
7704,-52
7705,-38
7706,-31
7707,-27
7708,-16
7709,1
7710,22
7711,37
7712,46
7713,45
7714,25
7715,-9
7716,-48
7717,-84
7718,-109
7719,-119
7720,-121
7721,-112
7722,-93
7723,-68
7724,-42
7725,-17
7726,-4
7727,-10
7728,-24
7729,-43
7730,-78
7731,-78
7732,-73
7733,-48
7734,-3
7735,33
7736,48
7737,48
7738,34
7739,13
7740,-8
7741,-29
7742,-43
7743,-54
7744,-71
7745,-81
7746,-78
7747,-81
7748,-89
7749,-83
7750,-67
7751,-51
7752,-38
7753,-18
7754,16
7755,49
7756,68
7757,80
7758,83
7759,72
7760,50
7761,32
7762,41
7763,41
7764,37
7765,26
7766,3
7767,-9
7768,-12
7769,-10
7770,1
7771,18
7772,37
7773,64
7774,78
7775,71
7776,62
7777,57
7778,56
7779,71
7780,86
7781,102
7782,135
7783,174
7784,212
7785,246
7786,248
7787,213
7788,159
7789,93
7790,24
7791,-27
7792,-53
7793,-47
7794,-24
7795,13
7796,12
7797,-13
7798,-52
7799,-83
7800,-95
7801,-87
7802,-64
7803,-31
7804,0
7805,12
7806,1
7807,-18
7808,-47
7809,-82
7810,-112
7811,-130
7812,-137
7813,-133
7814,-109
7815,-75
7816,-60
7817,-61
7818,-76
7819,-102
7820,-129
7821,-152
7822,-168
7823,-167
7824,-154
7825,-138
7826,-113
7827,-88
7828,-94
7829,-96
7830,-96
7831,-103
7832,-103
7833,-105
7834,-120
7835,-133
7836,-137
7837,-137
7838,-133
7839,-133
7840,-143
7841,-158
7842,-171
7843,-178
7844,-169
7845,-145
7846,-120
7847,-96
7848,-75
7849,-62
7850,-63
7851,-76
7852,-89
7853,-99
7854,-108
7855,-117
7856,-128
7857,-140
7858,-146
7859,-151
7860,-151
7861,-130
7862,-124
7863,-127
7864,-140
7865,-150
7866,-151
7867,-138
7868,-102
7869,-49
7870,1
7871,42
7872,60
7873,48
7874,16
7875,-37
7876,-100
7877,-140
7878,-165
7879,-183
7880,-188
7881,-191
7882,-197
7883,-198
7884,-192
7885,-176
7886,-146
7887,-120
7888,-105
7889,-95
7890,-103
7891,-131
7892,-153
7893,-166
7894,-154
7895,-136
7896,-117
7897,-100
7898,-88
7899,-86
7900,-88
7901,-96
7902,-106
7903,-117
7904,-123
7905,-128
7906,-125
7907,-107
7908,-83
7909,-58
7910,-36
7911,-25
7912,-21
7913,-20
7914,-15
7915,1
7916,16
7917,21
7918,27
7919,35
7920,16
7921,-31
7922,-81
7923,-129
7924,-161
7925,-160
7926,-90
7927,-49
7928,-30
7929,-26
7930,-41
7931,-87
7932,-134
7933,-159
7934,-162
7935,-143
7936,-117
7937,-100
7938,-92
7939,-86
7940,-85
7941,-81
7942,-76
7943,-73
7944,-69
7945,-72
7946,-85
7947,-103
7948,-122
7949,-132
7950,-130
7951,-118
7952,-102
7953,-91
7954,-88
7955,-88
7956,-87
7957,-85
7958,-73
7959,-57
7960,-32
7961,-1
7962,31
7963,51
7964,48
7965,29
7966,-7
7967,-52
7968,-94
7969,-123
7970,-137
7971,-134
7972,-134
7973,-115
7974,-81
7975,-36
7976,-3
7977,20
7978,45
7979,68
7980,96
7981,108
7982,88
7983,56
7984,16
7985,-21
7986,-39
7987,-43
7988,-56
7989,-65
7990,-60
7991,-47
7992,-27
7993,-37
7994,-44
7995,-51
7996,-60
7997,-67
7998,-82
7999,-106
8000,-116
8001,-109
8002,-95
8003,-86
8004,-88
8005,-103
8006,-127
8007,-145
8008,-153
8009,-156
8010,-153
8011,-145
8012,-127
8013,-105
8014,-87
8015,-73
8016,-70
8017,-74
8018,-78
8019,-80
8020,-79
8021,-73
8022,-57
8023,-37
8024,-17
8025,3
8026,-2
8027,-19
8028,-42
8029,-61
8030,-77
8031,-90
8032,-95
8033,-89
8034,-83
8035,-76
8036,-68
8037,-65
8038,-69
8039,-71
8040,-64
8041,-53
8042,-49
8043,-43
8044,-36
8045,-40
8046,-52
8047,-67
8048,-81
8049,-90
8050,-83
8051,-59
8052,-37
8053,-39
8054,-53
8055,-55
8056,-64
8057,-71
8058,-52
8059,-37
8060,-20
8061,5
8062,27
8063,28
8064,19
8065,17
8066,21
8067,18
8068,16
8069,36
8070,64
8071,76
8072,77
8073,69
8074,39
8075,-8
8076,-54
8077,-93
8078,-122
8079,-142
8080,-158
8081,-172
8082,-183
8083,-200
8084,-207
8085,-200
8086,-183
8087,-157
8088,-124
8089,-53
8090,-16
8091,13
8092,30
8093,31
8094,15
8095,-8
8096,-36
8097,-61
8098,-73
8099,-71
8100,-61
8101,-43
8102,-28
8103,-21
8104,-17
8105,-18
8106,-20
8107,-18
8108,-17
8109,-19
8110,-13
8111,9
8112,31
8113,39
8114,40
8115,40
8116,27
8117,3
8118,-16
8119,-28
8120,-32
8121,-33
8122,-38
8123,-40
8124,-55
8125,-77
8126,-85
8127,-82
8128,-73
8129,-58
8130,-46
8131,-40
8132,-42
8133,-42
8134,-36
8135,-32
8136,-23
8137,-11
8138,-2
8139,13
8140,29
8141,37
8142,44
8143,43
8144,23
8145,11
8146,26
8147,40
8148,35
8149,26
8150,5
8151,-31
8152,-80
8153,-125
8154,-149
8155,-136
8156,-97
8157,-49
8158,-36
8159,-57
8160,-76
8161,-93
8162,-115
8163,-126
8164,-119
8165,-103
8166,-81
8167,-56
8168,-32
8169,-18
8170,-11
8171,-1
8172,15
8173,48
8174,84
8175,108
8176,119
8177,117
8178,102
8179,79
8180,52
8181,26
8182,8
8183,-2
8184,-6
8185,1
8186,10
8187,56
8188,97
8189,134
8190,157
8191,153
8192,134
8193,110
8194,84
8195,61
8196,47
8197,42
8198,43
8199,46
8200,45
8201,43
8202,43
8203,50
8204,60
8205,68
8206,64
8207,50
8208,33
8209,27
8210,37
8211,52
8212,72
8213,98
8214,116
8215,116
8216,116
8217,117
8218,100
8219,68
8220,-20
8221,-75
8222,-133
8223,-176
8224,-184
8225,-171
8226,-160
8227,-139
8228,-119
8229,-127
8230,-147
8231,-164
8232,-179
8233,-186
8234,-183
8235,-167
8236,-138
8237,-106
8238,-83
8239,-67
8240,-64
8241,-80
8242,-114
8243,-158
8244,-194
8245,-212
8246,-213
8247,-195
8248,-155
8249,-102
8250,-56
8251,-33
8252,-67
8253,-112
8254,-156
8255,-181
8256,-184
8257,-184
8258,-173
8259,-149
8260,-116
8261,-89
8262,-84
8263,-96
8264,-108
8265,-112
8266,-105
8267,-89
8268,-74
8269,-62
8270,-63
8271,-69
8272,-71
8273,-70
8274,-64
8275,-30
8276,15
8277,53
8278,86
8279,95
8280,61
8281,0
8282,-81
8283,-166
8284,-231
8285,-273
8286,-250
8287,-193
8288,-135
8289,-90
8290,-66
8291,-65
8292,-85
8293,-115
8294,-145
8295,-160
8296,-150
8297,-111
8298,-50
8299,22
8300,74
8301,81
8302,60
8303,18
8304,-44
8305,-109
8306,-161
8307,-190
8308,-193
8309,-175
8310,-143
8311,-105
8312,-71
8313,-48
8314,-30
8315,-11
8316,-2
8317,-12
8318,-61
8319,-85
8320,-102
8321,-111
8322,-109
8323,-97
8324,-85
8325,-70
8326,-45
8327,-19
8328,-12
8329,-13
8330,-15
8331,-23
8332,-41
8333,-56
8334,-57
8335,-56
8336,-60
8337,-73
8338,-91
8339,-118
8340,-157
8341,-183
8342,-181
8343,-169
8344,-145
8345,-111
8346,-78
8347,-54
8348,-45
8349,-40
8350,-24
8351,-18
8352,-38
8353,-69
8354,-120
8355,-161
8356,-176
8357,-178
8358,-162
8359,-144
8360,-136
8361,-132
8362,-142
8363,-170
8364,-195
8365,-207
8366,-201
8367,-181
8368,-141
8369,-86
8370,-39
8371,-13
8372,-5
8373,-22
8374,-57
8375,-99
8376,-124
8377,-124
8378,-108
8379,-86
8380,-59
8381,-36
8382,-42
8383,-67
8384,-86
8385,-107
8386,-115
8387,-114
8388,-117
8389,-134
8390,-148
8391,-153
8392,-154
8393,-141
8394,-106
8395,-48
8396,3
8397,27
8398,23
8399,23
8400,-3
8401,-56
8402,-123
8403,-182
8404,-217
8405,-203
8406,-137
8407,-56
8408,20
8409,72
8410,78
8411,49
8412,-7
8413,-84
8414,-162
8415,-222
8416,-258
8417,-256
8418,-210
8419,-189
8420,-159
8421,-135
8422,-120
8423,-105
8424,-94
8425,-93
8426,-100
8427,-103
8428,-93
8429,-72
8430,-60
8431,-52
8432,-50
8433,-60
8434,-75
8435,-88
8436,-102
8437,-116
8438,-119
8439,-107
8440,-76
8441,-29
8442,-2
8443,7
8444,3
8445,-32
8446,-93
8447,-168
8448,-247
8449,-303
8450,-323
8451,-242
8452,-152
8453,-92
8454,-59
8455,-43
8456,-56
8457,-85
8458,-121
8459,-153
8460,-167
8461,-171
8462,-168
8463,-150
8464,-129
8465,-110
8466,-76
8467,-28
8468,25
8469,86
8470,135
8471,164
8472,168
8473,139
8474,81
8475,14
8476,-52
8477,-106
8478,-149
8479,-185
8480,-216
8481,-239
8482,-267
8483,-301
8484,-335
8485,-324
8486,-287
8487,-231
8488,-167
8489,-115
8490,-82
8491,-71
8492,-84
8493,-111
8494,-141
8495,-150
8496,-124
8497,-80
8498,-33
8499,7
8500,23
8501,4
8502,-37
8503,-86
8504,-127
8505,-142
8506,-117
8507,-58
8508,0
8509,28
8510,19
8511,-11
8512,-65
8513,-129
8514,-179
8515,-202
8516,-156
8517,-94
8518,-38
8519,-9
8520,0
8521,6
8522,8
8523,11
8524,17
8525,19
8526,11
8527,-3
8528,-28
8529,-59
8530,-86
8531,-110
8532,-123
8533,-116
8534,-101
8535,-88
8536,-78
8537,-82
8538,-98
8539,-112
8540,-126
8541,-126
8542,-137
8543,-140
8544,-145
8545,-148
8546,-139
8547,-124
8548,-111
8549,-95
8550,-64
8551,-45
8552,-23
8553,-12
8554,-9
8555,-13
8556,-18
8557,-24
8558,-36
8559,-54
8560,-69
8561,-75
8562,-64
8563,-40
8564,-21
8565,-11
8566,-8
8567,-14
8568,-27
8569,-44
8570,-55
8571,-34
8572,5
8573,62
8574,138
8575,184
8576,179
8577,151
8578,104
8579,41
8580,-16
8581,-59
8582,-78
8583,-74
8584,-61
8585,-25
8586,0
8587,7
8588,20
8589,27
8590,24
8591,20
8592,17
8593,23
8594,29
8595,38
8596,56
8597,71
8598,70
8599,58
8600,42
8601,30
8602,32
8603,47
8604,77
8605,112
8606,133
8607,132
8608,115
8609,74
8610,20
8611,-30
8612,-71
8613,-96
8614,-100
8615,-86
8616,-71
8617,-47
8618,-23
8619,-8
8620,4
8621,4
8622,-20
8623,-57
8624,-96
8625,-123
8626,-107
8627,-56
8628,-17
8629,2
8630,-5
8631,-58
8632,-129
8633,-188
8634,-239
8635,-249
8636,-210
8637,-173
8638,-143
8639,-131
8640,-174
8641,-239
8642,-283
8643,-312
8644,-317
8645,-289
8646,-250
8647,-167
8648,-150
8649,-146
8650,-141
8651,-131
8652,-122
8653,-108
8654,-87
8655,-79
8656,-82
8657,-90
8658,-118
8659,-157
8660,-180
8661,-197
8662,-207
8663,-201
8664,-189
8665,-174
8666,-153
8667,-138
8668,-124
8669,-112
8670,-111
8671,-120
8672,-131
8673,-147
8674,-159
8675,-148
8676,-122
8677,-98
8678,-65
8679,8
8680,13
8681,-7
8682,-43
8683,-90
8684,-90
8685,-141
8686,-182
8687,-198
8688,-192
8689,-174
8690,-138
8691,-96
8692,-62
8693,-48
8694,-50
8695,-55
8696,-65
8697,-76
8698,-86
8699,-98
8700,-110
8701,-125
8702,-137
8703,-143
8704,-137
8705,-109
8706,-76
8707,-55
8708,-34
8709,-15
8710,-8
8711,-8
8712,-22
8713,-70
8714,-91
8715,-116
8716,-125
8717,-115
8718,-109
8719,-84
8720,-41
8721,-17
8722,-11
8723,-24
8724,-53
8725,-81
8726,-105
8727,-124
8728,-125
8729,-109
8730,-98
8731,-68
8732,-11
8733,30
8734,56
8735,78
8736,81
8737,59
8738,17
8739,-33
8740,-82
8741,-126
8742,-159
8743,-159
8744,-124
8745,-79
8746,13
8747,54
8748,70
8749,60
8750,29
8751,-12
8752,-54
8753,-83
8754,-102
8755,-108
8756,-111
8757,-120
8758,-127
8759,-130
8760,-134
8761,-138
8762,-139
8763,-138
8764,-135
8765,-132
8766,-130
8767,-129
8768,-122
8769,-109
8770,-96
8771,-72
8772,-40
8773,-18
8774,-1
8775,15
8776,21
8777,16
8778,-26
8779,-59
8780,-91
8781,-126
8782,-148
8783,-158
8784,-166
8785,-149
8786,-111
8787,-87
8788,-78
8789,-81
8790,-100
8791,-119
8792,-117
8793,-102
8794,-90
8795,-77
8796,-72
8797,-79
8798,-100
8799,-132
8800,-153
8801,-155
8802,-143
8803,-120
8804,-83
8805,-57
8806,-56
8807,-62
8808,-73
8809,-89
8810,-101
8811,-100
8812,-97
8813,-95
8814,-95
8815,-97
8816,-95
8817,-91
8818,-92
8819,-91
8820,-89
8821,-92
8822,-103
8823,-120
8824,-130
8825,-112
8826,-112
8827,-72
8828,-22
8829,43
8830,93
8831,96
8832,70
8833,21
8834,-52
8835,-125
8836,-171
8837,-186
8838,-171
8839,-139
8840,-102
8841,-54
8842,-4
8843,33
8844,68
8845,84
8846,66
8847,41
8848,6
8849,-25
8850,-36
8851,-36
8852,-28
8853,-15
8854,-8
8855,-13
8856,-22
8857,-26
8858,-12
8859,13
8860,27
8861,6
8862,-48
8863,-123
8864,-206
8865,-272
8866,-293
8867,-276
8868,-242
8869,-195
8870,-152
8871,-130
8872,-132
8873,-151
8874,-159
8875,-145
8876,-116
8877,-49
8878,-30
8879,-29
8880,-36
8881,-42
8882,-49
8883,-50
8884,-29
8885,10
8886,42
8887,62
8888,78
8889,89
8890,90
8891,75
8892,55
8893,34
8894,8
8895,-21
8896,-45
8897,-67
8898,-93
8899,-108
8900,-96
8901,-58
8902,-7
8903,50
8904,111
8905,161
8906,186
8907,182
8908,146
8909,90
8910,29
8911,-73
8912,-90
8913,-79
8914,-48
8915,-7
8916,26
8917,46
8918,54
8919,53
8920,44
8921,29
8922,11
8923,-4
8924,-13
8925,-17
8926,-13
8927,-6
8928,2
8929,8
8930,19
8931,44
8932,64
8933,59
8934,43
8935,35
8936,25
8937,12
8938,10
8939,14
8940,9
8941,0
8942,-15
8943,-25
8944,-49
8945,-41
8946,-11
8947,7
8948,11
8949,15
8950,9
8951,-7
8952,-22
8953,-34
8954,-33
8955,-16
8956,12
8957,48
8958,79
8959,99
8960,114
8961,132
8962,151
8963,160
8964,160
8965,159
8966,148
8967,123
8968,123
8969,95
8970,73
8971,59
8972,51
8973,51
8974,60
8975,66
8976,53
8977,27
8978,17
8979,12
8980,20
8981,37
8982,47
8983,47
8984,46
8985,47
8986,51
8987,64
8988,85
8989,102
8990,109
8991,107
8992,101
8993,84
8994,59
8995,48
8996,38
8997,15
8998,-3
8999,-12
9000,-25
9001,-39
9002,-54
9003,-77
9004,-106
9005,-141
9006,-180
9007,-195
9008,-178
9009,-150
9010,-108
9011,-63
9012,-68
9013,-113
9014,-176
9015,-233
9016,-266
9017,-280
9018,-267
9019,-228
9020,-198
9021,-178
9022,-147
9023,-125
9024,-124
9025,-134
9026,-152
9027,-161
9028,-152
9029,-129
9030,-99
9031,-78
9032,-80
9033,-101
9034,-136
9035,-180
9036,-217
9037,-225
9038,-206
9039,-171
9040,-135
9041,-114
9042,-113
9043,-120
9044,-129
9045,-133
9046,-131
9047,-126
9048,-122
9049,-123
9050,-130
9051,-136
9052,-135
9053,-126
9054,-117
9055,-112
9056,-103
9057,-89
9058,-65
9059,-23
9060,28
9061,60
9062,71
9063,53
9064,3
9065,-67
9066,-135
9067,-182
9068,-203
9069,-197
9070,-172
9071,-138
9072,-115
9073,-105
9074,-94
9075,-87
9076,-82
9077,-72
9078,-77
9079,-89
9080,-99
9081,-105
9082,-118
9083,-132
9084,-143
9085,-158
9086,-185
9087,-203
9088,-200
9089,-169
9090,-124
9091,-78
9092,-35
9093,-17
9094,-31
9095,-61
9096,-100
9097,-142
9098,-179
9099,-199
9100,-193
9101,-160
9102,-103
9103,-47
9104,-8
9105,8
9106,-2
9107,-38
9108,-93
9109,-154
9110,-202
9111,-222
9112,-217
9113,-187
9114,-133
9115,-88
9116,-69
9117,-58
9118,-57
9119,-73
9120,-94
9121,-116
9122,-128
9123,-130
9124,-127
9125,-117
9126,-96
9127,-74
9128,-55
9129,-36
9130,-20
9131,-12
9132,-14
9133,-28
9134,-50
9135,-70
9136,-83
9137,-82
9138,-49
9139,-6
9140,24
9141,46
9142,50
9143,38
9144,3
9145,-1
9146,-9
9147,-36
9148,-69
9149,-92
9150,-118
9151,-154
9152,-170
9153,-163
9154,-142
9155,-116
9156,-101
9157,-99
9158,-121
9159,-153
9160,-166
9161,-155
9162,-131
9163,-107
9164,-76
9165,-43
9166,-32
9167,-34
9168,-41
9169,-62
9170,-85
9171,-97
9172,-108
9173,-127
9174,-142
9175,-155
9176,-160
9177,-156
9178,-120
9179,-87
9180,-71
9181,-59
9182,-47
9183,-50
9184,-62
9185,-63
9186,-60
9187,-61
9188,-64
9189,-67
9190,-72
9191,-76
9192,-75
9193,-64
9194,-50
9195,-41
9196,-35
9197,-29
9198,-28
9199,-41
9200,-60
9201,-78
9202,-95
9203,-88
9204,-65
9205,-50
9206,-31
9207,-10
9208,-10
9209,-22
9210,-39
9211,-96
9212,-117
9213,-121
9214,-101
9215,-85
9216,-79
9217,-63
9218,-50
9219,-52
9220,-55
9221,-66
9222,-83
9223,-89
9224,-92
9225,-100
9226,-100
9227,-102
9228,-105
9229,-100
9230,-87
9231,-73
9232,-66
9233,-69
9234,-71
9235,-62
9236,-66
9237,-83
9238,-89
9239,-95
9240,-116
9241,-142
9242,-160
9243,-179
9244,-175
9245,-128
9246,-61
9247,-3
9248,34
9249,62
9250,72
9251,67
9252,59
9253,59
9254,55
9255,53
9256,54
9257,36
9258,0
9259,-49
9260,-123
9261,-207
9262,-273
9263,-322
9264,-344
9265,-339
9266,-310
9267,-259
9268,-198
9269,-149
9270,-113
9271,-86
9272,-78
9273,-88
9274,-101
9275,-114
9276,-108
9277,-77
9278,-13
9279,7
9280,7
9281,-7
9282,-14
9283,-9
9284,-6
9285,2
9286,9
9287,12
9288,10
9289,-8
9290,-41
9291,-77
9292,-115
9293,-150
9294,-175
9295,-193
9296,-210
9297,-216
9298,-205
9299,-186
9300,-159
9301,-132
9302,-115
9303,-106
9304,-94
9305,-73
9306,-46
9307,-18
9308,4
9309,22
9310,48
9311,49
9312,24
9313,-12
9314,-50
9315,-80
9316,-105
9317,-115
9318,-113
9319,-112
9320,-110
9321,-106
9322,-117
9323,-139
9324,-147
9325,-134
9326,-101
9327,-67
9328,-48
9329,-41
9330,-48
9331,-66
9332,-81
9333,-81
9334,-60
9335,-33
9336,-6
9337,10
9338,4
9339,-28
9340,-73
9341,-111
9342,-114
9343,-78
9344,24
9345,70
9346,79
9347,61
9348,29
9349,-8
9350,-42
9351,-64
9352,-69
9353,-50
9354,-6
9355,36
9356,58
9357,67
9358,52
9359,20
9360,-19
9361,-64
9362,-99
9363,-113
9364,-99
9365,-64
9366,-15
9367,32
9368,56
9369,79
9370,115
9371,147
9372,164
9373,162
9374,143
9375,110
9376,73
9377,14
9378,8
9379,25
9380,48
9381,75
9382,98
9383,98
9384,92
9385,92
9386,81
9387,61
9388,49
9389,37
9390,22
9391,8
9392,-9
9393,-26
9394,-37
9395,-37
9396,-40
9397,-17
9398,21
9399,38
9400,36
9401,30
9402,1
9403,-50
9404,-109
9405,-159
9406,-190
9407,-202
9408,-195
9409,-175
9410,-156
9411,-145
9412,-133
9413,-122
9414,-119
9415,-122
9416,-130
9417,-141
9418,-149
9419,-147
9420,-128
9421,-87
9422,-50
9423,-29
9424,-21
9425,-33
9426,-68
9427,-112
9428,-151
9429,-178
9430,-188
9431,-181
9432,-158
9433,-127
9434,-104
9435,-92
9436,-83
9437,-79
9438,-77
9439,-65
9440,-45
9441,-37
9442,-37
9443,-46
9444,-80
9445,-88
9446,-86
9447,-78
9448,-68
9449,-57
9450,-52
9451,-66
9452,-108
9453,-157
9454,-194
9455,-216
9456,-213
9457,-188
9458,-161
9459,-138
9460,-124
9461,-122
9462,-129
9463,-149
9464,-170
9465,-179
9466,-168
9467,-134
9468,-82
9469,-51
9470,-48
9471,-57
9472,-67
9473,-86
9474,-114
9475,-137
9476,-147
9477,-149
9478,-124
9479,-100
9480,-84
9481,-61
9482,-38
9483,-28
9484,-38
9485,-69
9486,-98
9487,-108
9488,-104
9489,-90
9490,-73
9491,-70
9492,-77
9493,-90
9494,-112
9495,-134
9496,-144
9497,-142
9498,-135
9499,-120
9500,-106
9501,-103
9502,-90
9503,-71
9504,-68
9505,-74
9506,-88
9507,-103
9508,-110
9509,-111
9510,-81
9511,-54
9512,-34
9513,-15
9514,-4
9515,-5
9516,-10
9517,-21
9518,-28
9519,-36
9520,-63
9521,-98
9522,-132
9523,-167
9524,-193
9525,-207
9526,-204
9527,-189
9528,-176
9529,-165
9530,-150
9531,-140
9532,-133
9533,-125
9534,-119
9535,-116
9536,-113
9537,-113
9538,-112
9539,-118
9540,-123
9541,-121
9542,-115
9543,-96
9544,-30
9545,-17
9546,-22
9547,-49
9548,-95
9549,-141
9550,-180
9551,-196
9552,-172
9553,-125
9554,-77
9555,-37
9556,-23
9557,-33
9558,-55
9559,-91
9560,-126
9561,-142
9562,-142
9563,-125
9564,-79
9565,-34
9566,-17
9567,-17
9568,-26
9569,-46
9570,-76
9571,-108
9572,-123
9573,-115
9574,-96
9575,-71
9576,-43
9577,-25
9578,-38
9579,-48
9580,-59
9581,-69
9582,-69
9583,-57
9584,-36
9585,-10
9586,9
9587,11
9588,-4
9589,-37
9590,-80
9591,-104
9592,-95
9593,-55
9594,1
9595,54
9596,80
9597,74
9598,30
9599,-38
9600,-91
9601,-124
9602,-146
9603,-145
9604,-129
9605,-124
9606,-131
9607,-145
9608,-157
9609,-161
9610,-145
9611,-122
9612,-106
9613,-105
9614,-100
9615,-86
9616,-74
9617,-60
9618,-46
9619,-35
9620,-27
9621,-23
9622,-24
9623,-24
9624,-23
9625,-26
9626,-17
9627,-3
9628,1
9629,11
9630,22
9631,13
9632,-5
9633,-29
9634,-61
9635,-90
9636,-116
9637,-137
9638,-133
9639,-111
9640,-83
9641,-33
9642,10
9643,-4
9644,-32
9645,-67
9646,-103
9647,-124
9648,-125
9649,-112
9650,-92
9651,-71
9652,-58
9653,-62
9654,-80
9655,-93
9656,-100
9657,-104
9658,-103
9659,-82
9660,-49
9661,-26
9662,-15
9663,-14
9664,-32
9665,-68
9666,-107
9667,-132
9668,-143
9669,-135
9670,-111
9671,-80
9672,-61
9673,-65
9674,-83
9675,-106
9676,-131
9677,-153
9678,-152
9679,-152
9680,-119
9681,-66
9682,-3
9683,55
9684,104
9685,140
9686,153
9687,146
9688,124
9689,95
9690,61
9691,23
9692,-17
9693,-56
9694,-95
9695,-122
9696,-129
9697,-132
9698,-139
9699,-140
9700,-137
9701,-115
9702,-62
9703,-9
9704,19
9705,32
9706,14
9707,-28
9708,-83
9709,-145
9710,-187
9711,-195
9712,-139
9713,-88
9714,-63
9715,-64
9716,-63
9717,-62
9718,-65
9719,-55
9720,-36
9721,-17
9722,3
9723,23
9724,37
9725,50
9726,48
9727,32
9728,21
9729,14
9730,6
9731,1
9732,-9
9733,-36
9734,-64
9735,-90
9736,-112
9737,-121
9738,-124
9739,-118
9740,-96
9741,-71
9742,-49
9743,-27
9744,-6
9745,48
9746,72
9747,75
9748,60
9749,31
9750,-8
9751,-50
9752,-82
9753,-100
9754,-103
9755,-95
9756,-79
9757,-52
9758,-22
9759,-5
9760,10
9761,31
9762,41
9763,33
9764,13
9765,-11
9766,-33
9767,-47
9768,-45
9769,-28
9770,-13
9771,-11
9772,-14
9773,-23
9774,-44
9775,-68
9776,-74
9777,-52
9778,39
9779,84
9780,117
9781,137
9782,128
9783,89
9784,35
9785,-24
9786,-81
9787,-120
9788,-135
9789,-131
9790,-114
9791,-69
9792,-5
9793,46
9794,70
9795,70
9796,57
9797,32
9798,2
9799,-26
9800,-43
9801,-38
9802,-12
9803,43
9804,108
9805,141
9806,152
9807,156
9808,141
9809,119
9810,78
9811,59
9812,50
9813,44
9814,39
9815,34
9816,21
9817,16
9818,24
9819,33
9820,40
9821,38
9822,38
9823,21
9824,8
9825,12
9826,34
9827,65
9828,95
9829,119
9830,120
9831,89
9832,37
9833,-23
9834,-85
9835,-137
9836,-169
9837,-178
9838,-172
9839,-162
9840,-147
9841,-131
9842,-119
9843,-115
9844,-94
9845,-67
9846,-26
9847,2
9848,7
9849,-4
9850,-41
9851,-95
9852,-155
9853,-204
9854,-228
9855,-229
9856,-207
9857,-158
9858,-113
9859,-105
9860,-116
9861,-129
9862,-146
9863,-157
9864,-156
9865,-140
9866,-116
9867,-101
9868,-93
9869,-88
9870,-108
9871,-146
9872,-170
9873,-179
9874,-174
9875,-142
9876,-58
9877,-20
9878,4
9879,12
9880,2
9881,-24
9882,-60
9883,-106
9884,-161
9885,-213
9886,-248
9887,-270
9888,-280
9889,-244
9890,-181
9891,-140
9892,-121
9893,-119
9894,-139
9895,-177
9896,-214
9897,-231
9898,-228
9899,-215
9900,-201
9901,-182
9902,-173
9903,-191
9904,-208
9905,-210
9906,-201
9907,-185
9908,-170
9909,-137
9910,-127
9911,-117
9912,-103
9913,-96
9914,-101
9915,-105
9916,-98
9917,-85
9918,-80
9919,-84
9920,-94
9921,-114
9922,-140
9923,-168
9924,-188
9925,-198
9926,-197
9927,-179
9928,-143
9929,-108
9930,-94
9931,-92
9932,-93
9933,-98
9934,-99
9935,-97
9936,-87
9937,-61
9938,-45
9939,-54
9940,-75
9941,-148
9942,-176
9943,-178
9944,-156
9945,-123
9946,-96
9947,-80
9948,-82
9949,-110
9950,-148
9951,-173
9952,-178
9953,-171
9954,-151
9955,-116
9956,-85
9957,-62
9958,-30
9959,5
9960,28
9961,37
9962,25
9963,-9
9964,-9
9965,-57
9966,-111
9967,-159
9968,-184
9969,-185
9970,-165
9971,-119
9972,-66
9973,-31
9974,-17
9975,-38
9976,-65
9977,-91
9978,-113
9979,-126
9980,-127
9981,-122
9982,-98
9983,-42
9984,22
9985,73
9986,102
9987,95
9988,53
9989,-15
9990,-88
9991,-138
9992,-162
9993,-159
9994,-124
9995,-70
9996,-22
9997,0
9998,-5
9999,-28
10000,-58
10001,-91
10002,-119
10003,-130
10004,-118
10005,-82
10006,-34
10007,14
10008,48
10009,14
10010,-32
10011,-77
10012,-109
10013,-123
10014,-124
10015,-110
10016,-95
10017,-90
10018,-75
10019,-50
10020,-27
10021,0
10022,23
10023,25
10024,10
10025,-17
10026,-49
10027,-78
10028,-90
10029,-83
10030,-67
10031,-56
10032,-53
10033,-54
10034,-50
10035,-35
10036,0
10037,48
10038,96
10039,121
10040,117
10041,32
10042,-35
10043,-92
10044,-134
10045,-158
10046,-160
10047,-137
10048,-84
10049,-11
10050,52
10051,93
10052,115
10053,116
10054,80
10055,19
10056,-39
10057,-83
10058,-108
10059,-116
10060,-110
10061,-101
10062,-103
10063,-117
10064,-129
10065,-128
10066,-124
10067,-120
10068,-89
10069,-36
10070,0
10071,3
10072,-7
10073,-68
10074,-103
10075,-121
10076,-112
10077,-83
10078,-60
10079,-48
10080,-45
10081,-72
10082,-114
10083,-135
10084,-134
10085,-115
10086,-70
10087,-18
10088,24
10089,53
10090,51
10091,21
10092,-17
10093,-65
10094,-110
10095,-134
10096,-133
10097,-105
10098,-59
10099,-19
10100,12
10101,41
10102,62
10103,94
10104,146
10105,182
10106,195
10107,182
10108,133
10109,50
10110,-55
10111,-163
10112,-252
10113,-309
10114,-327
10115,-308
10116,-272
10117,-239
10118,-206
10119,-169
10120,-111
10121,-44
10122,0
10123,23
10124,30
10125,21
10126,3
10127,-26
10128,-60
10129,-80
10130,-82
10131,-75
10132,-47
10133,-9
10134,9
10135,21
10136,28
10137,22
10138,3
10139,-24
10140,-49
10141,-44
10142,-39
10143,-42
10144,-50
10145,-67
10146,-90
10147,-96
10148,-75
10149,-47
10150,-10
10151,30
10152,49
10153,46
10154,32
10155,6
10156,-25
10157,-49
10158,-66
10159,-65
10160,-54
10161,-47
10162,-31
10163,1
10164,42
10165,79
10166,92
10167,85
10168,68
10169,38
10170,1
10171,-35
10172,-70
10173,-95
10174,-85
10175,-64
10176,-47
10177,-43
10178,-31
10179,-11
10180,-2
10181,5
10182,28
10183,45
10184,49
10185,50
10186,43
10187,30
10188,21
10189,20
10190,29
10191,46
10192,59
10193,66
10194,67
10195,50
10196,21
10197,3
10198,-3
10199,0
10200,10
10201,25
10202,43
10203,67
10204,97
10205,140
10206,145
10207,137
10208,118
10209,93
10210,70
10211,59
10212,65
10213,94
10214,149
10215,222
10216,272
10217,281
10218,264
10219,221
10220,154
10221,73
10222,0
10223,-42
10224,-38
10225,1
10226,53
10227,108
10228,135
10229,133
10230,118
10231,88
10232,51
10233,25
10234,19
10235,44
10236,104
10237,160
10238,229
10239,243
10240,228
10241,202
10242,168
10243,126
10244,78
10245,23
10246,-27
10247,-67
10248,-67
10249,-117
10250,-165
10251,-184
10252,-193
10253,-197
10254,-183
10255,-162
10256,-143
10257,-131
10258,-120
10259,-107
10260,-92
10261,-85
10262,-81
10263,-79
10264,-83
10265,-90
10266,-100
10267,-108
10268,-109
10269,-100
10270,-90
10271,-70
10272,-74
10273,-88
10274,-100
10275,-100
10276,-79
10277,-49
10278,-32
10279,-35
10280,-62
10281,-117
10282,-187
10283,-245
10284,-266
10285,-246
10286,-199
10287,-133
10288,-73
10289,-58
10290,-94
10291,-152
10292,-214
10293,-264
10294,-285
10295,-276
10296,-233
10297,-165
10298,-112
10299,-77
10300,-61
10301,-83
10302,-128
10303,-175
10304,-215
10305,-276
10306,-291
10307,-289
10308,-258
10309,-212
10310,-150
10311,-68
10312,6
10313,51
10314,46
10315,-11
10316,-107
10317,-209
10318,-244
10319,-159
10320,33
10321,287
10322,534
10323,688
10324,681
10325,508
10326,218
10327,-114
10328,-409
10329,-612
10330,-693
10331,-661
10332,-575
10333,-486
10334,-409
10335,-363
10336,-346
10337,-337
10338,-308
10339,-292
10340,-273
10341,-255
10342,-235
10343,-215
10344,-197
10345,-184
10346,-174
10347,-168
10348,-160
10349,-150
10350,-141
10351,-133
10352,-126
10353,-122
10354,-120
10355,-119
10356,-120
10357,-120
10358,-119
10359,-114
10360,-109
10361,-102
10362,-95
10363,-89
10364,-84
10365,-82
10366,-81
10367,-83
10368,-84
10369,-86
10370,-88
10371,-78
10372,-67
10373,-57
10374,-48
10375,-43
10376,-46
10377,-56
10378,-67
10379,-80
10380,-90
10381,-96
10382,-97
10383,-92
10384,-85
10385,-81
10386,-76
10387,-72
10388,-70
10389,-68
10390,-65
10391,-65
10392,-60
10393,-54
10394,-50
10395,-47
10396,-45
10397,-47
10398,-48
10399,-52
10400,-56
10401,-55
10402,-54
10403,-53
10404,-55
10405,-60
10406,-64
10407,-63
10408,-61
10409,-54
10410,-46
10411,-41
10412,-38
10413,-39
10414,-41
10415,-43
10416,-45
10417,-44
10418,-39
10419,-31
10420,-23
10421,-12
10422,1
10423,12
10424,18
10425,19
10426,13
10427,0
10428,-18
10429,-38
10430,-54
10431,-60
10432,-57
10433,-43
10434,-10
10435,19
10436,16
10437,-7
10438,-39
10439,-65
10440,-73
10441,-63
10442,-51
10443,-43
10444,-35
10445,-29
10446,-32
10447,-40
10448,-41
10449,-32
10450,-21
10451,-17
10452,-19
10453,-33
10454,-60
10455,-81
10456,-85
10457,-79
10458,-74
10459,-74
10460,-77
10461,-89
10462,-102
10463,-98
10464,-75
10465,-33
10466,29
10467,96
10468,134
10469,132
10470,12
10471,-76
10472,-158
10473,-214
10474,-226
10475,-205
10476,-169
10477,-127
10478,-93
10479,-86
10480,-90
10481,-94
10482,-97
10483,-98
10484,-96
10485,-90
10486,-84
10487,-73
10488,-54
10489,-28
10490,3
10491,34
10492,58
10493,58
10494,31
10495,-12
10496,-68
10497,-124
10498,-163
10499,-179
10500,-168
10501,-136
10502,-54
10503,-10
10504,28
10505,69
10506,107
10507,136
10508,149
10509,139
10510,111
10511,75
10512,33
10513,-6
10514,-39
10515,-68
10516,-97
10517,-129
10518,-168
10519,-204
10520,-224
10521,-228
10522,-212
10523,-182
10524,-145
10525,-111
10526,-85
10527,-68
10528,-57
10529,-46
10530,-36
10531,-26
10532,-13
10533,-13
10534,-13
10535,-21
10536,-35
10537,-50
10538,-62
10539,-63
10540,-57
10541,-48
10542,-39
10543,-29
10544,-22
10545,-18
10546,-18
10547,-18
10548,-18
10549,-17
10550,-15
10551,-12
10552,-10
10553,-9
10554,-4
10555,14
10556,51
10557,102
10558,165
10559,211
10560,222
10561,198
10562,141
10563,64
10564,-19
10565,-97
10566,-152
10567,-143
10568,-84
10569,-9
10570,54
10571,98
10572,117
10573,105
10574,68
10575,13
10576,-39
10577,-71
10578,-79
10579,-66
10580,-37
10581,-13
10582,11
10583,60
10584,96
10585,105
10586,99
10587,70
10588,25
10589,-18
10590,-61
10591,-94
10592,-98
10593,-89
10594,-68
10595,-38
10596,-32
10597,-43
10598,-42
10599,-32
10600,0
10601,15
10602,35
10603,82
10604,148
10605,216
10606,265
10607,277
10608,250
10609,195
10610,135
10611,83
10612,42
10613,36
10614,70
10615,120
10616,161
10617,175
10618,154
10619,108
10620,50
10621,-1
10622,-37
10623,-60
10624,-76
10625,-62
10626,-24
10627,10
10628,38
10629,62
10630,77
10631,86
10632,94
10633,100
10634,99
10635,94
10636,88
10637,83
10638,76
10639,74
10640,74
10641,75
10642,76
10643,77
10644,76
10645,72
10646,66
10647,61
10648,54
10649,47
10650,39
10651,31
10652,24
10653,16
10654,7
10655,-2
10656,-11
10657,-23
10658,-35
10659,-46
10660,-56
10661,-66
10662,-74
10663,-77
10664,-73
10665,-63
10666,-41
10667,-34
10668,-39
10669,-53
10670,-71
10671,-90
10672,-109
10673,-115
10674,-106
10675,-106
10676,-87
10677,-63
10678,-44
10679,-33
10680,-31
10681,-50
10682,-84
10683,-116
10684,-138
10685,-150
10686,-146
10687,-128
10688,-112
10689,-93
10690,-74
10691,-70
10692,-83
10693,-107
10694,-139
10695,-168
10696,-191
10697,-203
10698,-206
10699,-168
10700,-136
10701,-104
10702,-89
10703,-99
10704,-117
10705,-138
10706,-164
10707,-183
10708,-189
10709,-191
10710,-185
10711,-171
10712,-162
10713,-155
10714,-149
10715,-144
10716,-136
10717,-125
10718,-111
10719,-94
10720,-79
10721,-64
10722,-51
10723,-48
10724,-48
10725,-61
10726,-88
10727,-115
10728,-141
10729,-160
10730,-162
10731,-144
10732,-65
10733,-14
10734,33
10735,71
10736,81
10737,56
10738,8
10739,-55
10740,-127
10741,-190
10742,-228
10743,-230
10744,-193
10745,-132
10746,-77
10747,-45
10748,-41
10749,-66
10750,-103
10751,-127
10752,-140
10753,-147
10754,-136
10755,-116
10756,-98
10757,-91
10758,-98
10759,-98
10760,-91
10761,-100
10762,-117
10763,-138
10764,-173
10765,-251
10766,-265
10767,-264
10768,-249
10769,-225
10770,-194
10771,-173
10772,-168
10773,-163
10774,-153
10775,-144
10776,-134
10777,-120
10778,-104
10779,-94
10780,-91
10781,-93
10782,-102
10783,-118
10784,-136
10785,-151
10786,-159
10787,-159
10788,-153
10789,-142
10790,-130
10791,-118
10792,-112
10793,-110
10794,-113
10795,-118
10796,-125
10797,-126
10798,-110
10799,-103
10800,-99
10801,-93
10802,-76
10803,-48
10804,-3
10805,58
10806,111
10807,129
10808,109
10809,49
10810,-42
10811,-143
10812,-229
10813,-283
10814,-297
10815,-278
10816,-238
10817,-238
10818,-187
10819,-139
10820,-97
10821,-63
10822,-42
10823,-39
10824,-46
10825,-65
10826,-101
10827,-138
10828,-166
10829,-182
10830,-182
10831,-165
10832,-95
10833,-73
10834,-64
10835,-63
10836,-73
10837,-92
10838,-102
10839,-90
10840,-61
10841,-30
10842,-2
10843,21
10844,27
10845,8
10846,-25
10847,-61
10848,-86
10849,-93
10850,-82
10851,-59
10852,-34
10853,-18
10854,-9
10855,-9
10856,-22
10857,-43
10858,-57
10859,-53
10860,-29
10861,3
10862,26
10863,26
10864,1
10865,-90
10866,-139
10867,-170
10868,-174
10869,-151
10870,-108
10871,-57
10872,-12
10873,18
10874,34
10875,29
10876,15
10877,-1
10878,-18
10879,-31
10880,-36
10881,-34
10882,-32
10883,-31
10884,-34
10885,-38
10886,-47
10887,-55
10888,-54
10889,-38
10890,-7
10891,41
10892,99
10893,158
10894,202
10895,221
10896,215
10897,184
10898,112
10899,80
10900,49
10901,28
10902,0
10903,-51
10904,-120
10905,-191
10906,-252
10907,-274
10908,-250
10909,-191
10910,-109
10911,-32
10912,14
10913,27
10914,9
10915,-33
10916,-80
10917,-109
10918,-118
10919,-103
10920,-75
10921,-50
10922,-11
10923,40
10924,76
10925,86
10926,83
10927,60
10928,18
10929,-35
10930,-84
10931,-135
10932,-132
10933,-108
10934,-76
10935,-53
10936,-35
10937,-9
10938,27
10939,66
10940,101
10941,122
10942,120
10943,97
10944,60
10945,15
10946,-30
10947,-57
10948,-56
10949,-41
10950,-27
10951,-12
10952,-5
10953,-9
10954,-26
10955,-46
10956,-64
10957,-81
10958,-97
10959,-100
10960,-100
10961,-90
10962,-77
10963,-60
10964,-36
10965,-17
10966,-3
10967,-5
10968,-12
10969,-20
10970,-21
10971,-15
10972,-13
10973,-15
10974,-21
10975,-38
10976,-58
10977,-70
10978,-74
10979,-70
10980,-60
10981,-49
10982,-37
10983,-26
10984,-19
10985,-14
10986,-9
10987,-2
10988,2
10989,9
10990,15
10991,19
10992,24
10993,28
10994,31
10995,36
10996,38
10997,41
10998,45
10999,51
11000,68
11001,82
11002,95
11003,106
11004,113
11005,120
11006,122
11007,119
11008,112
11009,105
11010,94
11011,83
11012,83
11013,92
11014,109
11015,136
11016,163
11017,176
11018,166
11019,134
11020,92
11021,56
11022,34
11023,32
11024,45
11025,58
11026,60
11027,52
11028,31
11029,4
11030,-16
11031,-20
11032,5
11033,7
11034,-7
11035,-30
11036,-54
11037,-63
11038,-60
11039,-52
11040,-37
11041,-23
11042,-24
11043,-40
11044,-69
11045,-100
11046,-115
11047,-112
11048,-96
11049,-67
11050,-43
11051,-40
11052,-47
11053,-63
11054,-94
11055,-134
11056,-169
11057,-192
11058,-194
11059,-177
11060,-143
11061,-103
11062,-70
11063,-55
11064,-54
11065,-85
11066,-120
11067,-152
11068,-173
11069,-180
11070,-175
11071,-163
11072,-152
11073,-141
11074,-125
11075,-103
11076,-74
11077,-44
11078,-31
11079,-23
11080,-11
11081,-5
11082,-22
11083,-52
11084,-81
11085,-113
11086,-149
11087,-176
11088,-189
11089,-195
11090,-198
11091,-188
11092,-159
11093,-125
11094,-110
11095,-111
11096,-117
11097,-141
11098,-222
11099,-246
11100,-256
11101,-241
11102,-241
11103,-206
11104,-166
11105,-128
11106,-102
11107,-90
11108,-85
11109,-87
11110,-94
11111,-100
11112,-106
11113,-120
11114,-135
11115,-150
11116,-167
11117,-176
11118,-166
11119,-147
11120,-126
11121,-102
11122,-74
11123,-55
11124,-56
11125,-69
11126,-83
11127,-94
11128,-102
11129,-106
11130,-107
11131,-92
11132,-43
11133,-27
11134,-26
11135,-49
11136,-80
11137,-112
11138,-145
11139,-170
11140,-178
11141,-179
11142,-173
11143,-172
11144,-189
11145,-211
11146,-218
11147,-205
11148,-175
11149,-140
11150,-112
11151,-90
11152,-85
11153,-90
11154,-88
11155,-86
11156,-83
11157,-70
11158,-59
11159,-44
11160,-28
11161,-31
11162,-43
11163,-54
11164,-106
11165,-127
11166,-150
11167,-145
11168,-97
11169,-31
11170,27
11171,62
11172,59
11173,20
11174,-37
11175,-104
11176,-157
11177,-185
11178,-180
11179,-128
11180,-50
11181,3
11182,30
11183,33
11184,17
11185,-15
11186,-51
11187,-74
11188,-92
11189,-101
11190,-93
11191,-79
11192,-59
11193,-35
11194,-11
11195,9
11196,26
11197,19
11198,4
11199,-20
11200,-41
11201,-43
11202,-53
11203,-68
11204,-78
11205,-94
11206,-111
11207,-109
11208,-92
11209,-76
11210,-64
11211,-61
11212,-70
11213,-81
11214,-95
11215,-105
11216,-91
11217,-67
11218,-53
11219,-46
11220,-45
11221,-44
11222,-38
11223,-36
11224,-37
11225,-34
11226,-22
11227,-1
11228,15
11229,23
11230,24
11231,-11
11232,-40
11233,-76
11234,-119
11235,-141
11236,-123
11237,-78
11238,-32
11239,0
11240,19
11241,20
11242,-1
11243,-35
11244,-35
11245,-67
11246,-90
11247,-98
11248,-91
11249,-69
11250,-50
11251,-50
11252,-52
11253,-54
11254,-63
11255,-72
11256,-75
11257,-73
11258,-61
11259,-46
11260,-31
11261,-16
11262,-2
11263,6
11264,15
11265,-2
11266,-30
11267,-66
11268,-106
11269,-138
11270,-165
11271,-178
11272,-168
11273,-141
11274,-102
11275,-50
11276,-4
11277,17
11278,18
11279,1
11280,-33
11281,-78
11282,-125
11283,-161
11284,-184
11285,-198
11286,-203
11287,-192
11288,-175
11289,-163
11290,-148
11291,-125
11292,-107
11293,-93
11294,-71
11295,-59
11296,-71
11297,-84
11298,-59
11299,-24
11300,6
11301,33
11302,53
11303,52
11304,37
11305,13
11306,-22
11307,-53
11308,-70
11309,-76
11310,-79
11311,-100
11312,-142
11313,-189
11314,-237
11315,-273
11316,-280
11317,-272
11318,-258
11319,-228
11320,-198
11321,-176
11322,-153
11323,-134
11324,-114
11325,-88
11326,-62
11327,-49
11328,-42
11329,-54
11330,-88
11331,-149
11332,-159
11333,-149
11334,-131
11335,-102
11336,-71
11337,-50
11338,-46
11339,-49
11340,-57
11341,-76
11342,-103
11343,-129
11344,-149
11345,-162
11346,-168
11347,-151
11348,-119
11349,-84
11350,-59
11351,-47
11352,-51
11353,-71
11354,-89
11355,-91
11356,-86
11357,-75
11358,-65
11359,-60
11360,-72
11361,-99
11362,-136
11363,-167
11364,-182
11365,-169
11366,-145
11367,-105
11368,-46
11369,15
11370,60
11371,81
11372,73
11373,32
11374,-33
11375,-104
11376,-164
11377,-207
11378,-223
11379,-212
11380,-184
11381,-156
11382,-138
11383,-113
11384,-80
11385,-52
11386,-52
11387,-34
11388,-27
11389,-31
11390,-33
11391,-26
11392,-26
11393,-31
11394,-34
11395,-44
11396,-63
11397,-87
11398,-130
11399,-138
11400,-133
11401,-109
11402,-78
11403,-49
11404,-19
11405,11
11406,34
11407,46
11408,42
11409,28
11410,10
11411,-4
11412,-4
11413,8
11414,25
11415,42
11416,52
11417,48
11418,40
11419,37
11420,40
11421,56
11422,85
11423,112
11424,130
11425,136
11426,128
11427,112
11428,92
11429,76
11430,77
11431,90
11432,109
11433,126
11434,129
11435,119
11436,107
11437,94
11438,82
11439,78
11440,77
11441,74
11442,73
11443,75
11444,74
11445,62
11446,39
11447,17
11448,-2
11449,-25
11450,-44
11451,-52
11452,-63
11453,-70
11454,-63
11455,-47
11456,-37
11457,-45
11458,-59
11459,-72
11460,-86
11461,-99
11462,-106
11463,-105
11464,-101
11465,-90
11466,-82
11467,-85
11468,-95
11469,-102
11470,-94
11471,-69
11472,-47
11473,-32
11474,-22
11475,-31
11476,-60
11477,-98
11478,-143
11479,-182
11480,-207
11481,-211
11482,-189
11483,-151
11484,-126
11485,-111
11486,-98
11487,-83
11488,-69
11489,-68
11490,-79
11491,-84
11492,-92
11493,-106
11494,-127
11495,-172
11496,-189
11497,-190
11498,-172
11499,-146
11500,-131
11501,-122
11502,-116
11503,-121
11504,-143
11505,-170
11506,-189
11507,-200
11508,-204
11509,-204
11510,-205
11511,-211
11512,-218
11513,-222
11514,-213
11515,-182
11516,-125
11517,-53
11518,6
11519,35
11520,27
11521,-15
11522,-75
11523,-138
11524,-194
11525,-235
11526,-248
11527,-234
11528,-219
11529,-219
11530,-205
11531,-188
11532,-167
11533,-145
11534,-125
11535,-109
11536,-106
11537,-100
11538,-75
11539,-49
11540,-31
11541,-19
11542,-19
11543,-34
11544,-63
11545,-97
11546,-129
11547,-150
11548,-156
11549,-141
11550,-99
11551,-61
11552,-40
11553,-22
11554,-14
11555,-30
11556,-57
11557,-89
11558,-122
11559,-150
11560,-147
11561,-135
11562,-129
11563,-135
11564,-132
11565,-118
11566,-106
11567,-88
11568,-58
11569,-30
11570,-8
11571,7
11572,10
11573,2
11574,-19
11575,-50
11576,-82
11577,-107
11578,-126
11579,-136
11580,-134
11581,-129
11582,-121
11583,-102
11584,-78
11585,-55
11586,-25
11587,-2
11588,-2
11589,-18
11590,-46
11591,-108
11592,-117
11593,-111
11594,-78
11595,-34
11596,0
11597,30
11598,39
11599,11
11600,-25
11601,-63
11602,-101
11603,-129
11604,-148
11605,-161
11606,-157
11607,-141
11608,-117
11609,-72
11610,-22
11611,8
11612,33
11613,52
11614,50
11615,32
11616,6
11617,-20
11618,-44
11619,-59
11620,-68
11621,-74
11622,-89
11623,-111
11624,-115
11625,-91
11626,-76
11627,-62
11628,-51
11629,-44
11630,-29
11631,-12
11632,-2
11633,0
11634,-9
11635,-34
11636,-71
11637,-108
11638,-126
11639,-130
11640,-125
11641,-109
11642,-91
11643,-85
11644,-98
11645,-121
11646,-150
11647,-172
11648,-178
11649,-165
11650,-139
11651,-119
11652,-106
11653,-89
11654,-73
11655,-60
11656,-58
11657,-84
11658,-105
11659,-123
11660,-136
11661,-137
11662,-125
11663,-111
11664,-87
11665,-50
11666,-27
11667,-27
11668,-47
11669,-83
11670,-122
11671,-122
11672,-151
11673,-171
11674,-169
11675,-149
11676,-125
11677,-97
11678,-66
11679,-52
11680,-55
11681,-66
11682,-81
11683,-87
11684,-73
11685,-50
11686,-9
11687,38
11688,67
11689,72
11690,12
11691,-38
11692,-91
11693,-128
11694,-133
11695,-120
11696,-111
11697,-101
11698,-97
11699,-106
11700,-106
11701,-100
11702,-96
11703,-91
11704,-89
11705,-86
11706,-75
11707,-51
11708,-1
11709,45
11710,63
11711,59
11712,26
11713,-39
11714,-112
11715,-165
11716,-195
11717,-202
11718,-199
11719,-187
11720,-171
11721,-171
11722,-143
11723,-100
11724,-65
11725,-44
11726,-44
11727,-71
11728,-117
11729,-168
11730,-206
11731,-228
11732,-234
11733,-225
11734,-204
11735,-184
11736,-159
11737,-124
11738,-88
11739,-57
11740,-41
11741,-51
11742,-79
11743,-111
11744,-140
11745,-151
11746,-125
11747,-72
11748,-17
11749,32
11750,63
11751,69
11752,54
11753,27
11754,5
11755,5
11756,17
11757,31
11758,29
11759,-6
11760,-56
11761,-103
11762,-152
11763,-190
11764,-191
11765,-179
11766,-172
11767,-161
11768,-157
11769,-170
11770,-192
11771,-213
11772,-227
11773,-226
11774,-218
11775,-204
11776,-167
11777,-120
11778,-71
11779,-16
11780,29
11781,53
11782,57
11783,42
11784,17
11785,-11
11786,-42
11787,-90
11788,-104
11789,-117
11790,-134
11791,-144
11792,-136
11793,-113
11794,-86
11795,-61
11796,-45
11797,-44
11798,-47
11799,-49
11800,-53
11801,-53
11802,-58
11803,-68
11804,-75
11805,-78
11806,-78
11807,-69
11808,-49
11809,-27
11810,-9
11811,2
11812,8
11813,8
11814,4
11815,-11
11816,-30
11817,-41
11818,-51
11819,-67
11820,-79
11821,-88
11822,-87
11823,-71
11824,-45
11825,-22
11826,-8
11827,11
11828,31
11829,40
11830,43
11831,46
11832,51
11833,58
11834,47
11835,16
11836,-23
11837,-76
11838,-128
11839,-158
11840,-165
11841,-154
11842,-121
11843,-83
11844,-49
11845,-20
11846,-16
11847,-30
11848,-41
11849,-49
11850,-51
11851,-49
11852,-40
11853,-5
11854,25
11855,56
11856,75
11857,85
11858,86
11859,81
11860,76
11861,68
11862,63
11863,72
11864,99
11865,138
11866,175
11867,193
11868,190
11869,179
11870,167
11871,153
11872,137
11873,113
11874,92
11875,73
11876,56
11877,57
11878,65
11879,72
11880,89
11881,103
11882,106
11883,92
11884,61
11885,27
11886,1
11887,2
11888,24
11889,42
11890,39
11891,34
11892,27
11893,26
11894,40
11895,61
11896,79
11897,96
11898,94
11899,64
11900,21
11901,-27
11902,-76
11903,-100
11904,-96
11905,-67
11906,-17
11907,21
11908,23
11909,0
11910,-37
11911,-90
11912,-139
11913,-169
11914,-179
11915,-168
11916,-141
11917,-106
11918,-80
11919,-86
11920,-102
11921,-117
11922,-141
11923,-169
11924,-186
11925,-193
11926,-189
11927,-163
11928,-128
11929,-100
11930,-76
11931,-60
11932,-59
11933,-68
11934,-89
11935,-117
11936,-143
11937,-160
11938,-165
11939,-153
11940,-125
11941,-83
11942,-28
11943,12
11944,28
11945,23
11946,-7
11947,-54
11948,-94
11949,-106
11950,-106
11951,-105
11952,-106
11953,-113
11954,-122
11955,-122
11956,-124
11957,-108
11958,-85
11959,-64
11960,-56
11961,-65
11962,-99
11963,-146
11964,-181
11965,-191
11966,-171
11967,-128
11968,-77
11969,-33
11970,-6
11971,4
11972,7
11973,-3
11974,-35
11975,-73
11976,-111
11977,-147
11978,-171
11979,-184
11980,-180
11981,-157
11982,-134
11983,-113
11984,-89
11985,-98
11986,-112
11987,-122
11988,-123
11989,-108
11990,-75
11991,-25
11992,21
11993,51
11994,61
11995,43
11996,4
11997,-40
11998,-82
11999,-105
12000,-93
12001,-64
12002,-34
12003,-10
12004,-9
12005,-24
12006,-37
12007,-55
12008,-76
12009,-89
12010,-103
12011,-119
12012,-116
12013,-103
12014,-95
12015,-84
12016,-69
12017,-64
12018,-51
12019,-35
12020,-11
12021,7
12022,23
12023,28
12024,0
12025,-59
12026,-128
12027,-180
12028,-204
12029,-207
12030,-187
12031,-149
12032,-118
12033,-84
12034,-36
12035,-4
12036,8
12037,8
12038,-3
12039,-23
12040,-54
12041,-86
12042,-104
12043,-101
12044,-77
12045,-48
12046,-33
12047,-42
12048,-60
12049,-81
12050,-100
12051,-104
12052,-91
12053,-70
12054,-53
12055,-48
12056,-61
12057,-86
12058,-112
12059,-131
12060,-131
12061,-108
12062,-55
12063,27
12064,105
12065,154
12066,172
12067,148
12068,89
12069,15
12070,-69
12071,-139
12072,-173
12073,-179
12074,-158
12075,-119
12076,-90
12077,-77
12078,-66
12079,-64
12080,-69
12081,-75
12082,-85
12083,-81
12084,-64
12085,-33
12086,-1
12087,24
12088,46
12089,53
12090,40
12091,12
12092,-29
12093,-72
12094,-107
12095,-129
12096,-128
12097,-128
12098,-97
12099,-41
12100,22
12101,70
12102,101
12103,109
12104,74
12105,6
12106,-71
12107,-147
12108,-211
12109,-252
12110,-261
12111,-240
12112,-204
12113,-162
12114,-112
12115,-68
12116,-44
12117,-37
12118,-52
12119,-74
12120,-101
12121,-120
12122,-125
12123,-111
12124,-66
12125,-21
12126,-1
12127,16
12128,23
12129,2
12130,-33
12131,-71
12132,-105
12133,-120
12134,-107
12135,-74
12136,-24
12137,17
12138,35
12139,49
12140,56
12141,44
12142,21
12143,0
12144,-14
12145,-30
12146,-56
12147,-95
12148,-148
12149,-198
12150,-250
12151,-236
12152,-205
12153,-174
12154,-154
12155,-149
12156,-162
12157,-190
12158,-216
12159,-230
12160,-226
12161,-208
12162,-181
12163,-151
12164,-130
12165,-121
12166,-117
12167,-115
12168,-110
12169,-106
12170,-103
12171,-78
12172,-38
12173,-2
12174,39
12175,78
12176,89
12177,75
12178,49
12179,11
12180,-29
12181,-69
12182,-104
12183,-111
12184,-104
12185,-82
12186,-57
12187,-44
12188,-31
12189,-12
12190,-7
12191,-26
12192,-48
12193,-70
12194,-88
12195,-92
12196,-84
12197,-73
12198,-59
12199,-43
12200,-29
12201,-22
12202,-29
12203,-48
12204,-61
12205,-67
12206,-67
12207,-50
12208,-23
12209,-3
12210,15
12211,41
12212,72
12213,103
12214,125
12215,96
12216,52
12217,-9
12218,-67
12219,-109
12220,-135
12221,-134
12222,-107
12223,-71
12224,-40
12225,-25
12226,-28
12227,-33
12228,-38
12229,-41
12230,-41
12231,-31
12232,-16
12233,4
12234,32
12235,54
12236,64
12237,62
12238,48
12239,28
12240,28
12241,12
12242,1
12243,1
12244,4
12245,7
12246,13
12247,29
12248,65
12249,116
12250,229
12251,264
12252,262
12253,234
12254,182
12255,107
12256,41
12257,1
12258,-17
12259,-22
12260,-28
12261,-44
12262,-55
12263,-65
12264,-66
12265,-41
12266,-6
12267,23
12268,55
12269,84
12270,94
12271,82
12272,62
12273,44
12274,35
12275,39
12276,50
12277,61
12278,64
12279,55
12280,37
12281,9
12282,-22
12283,-78
12284,-92
12285,-87
12286,-54
12287,-24
12288,-11
12289,-1
12290,-2
12291,-26
12292,-65
12293,-110
12294,-149
12295,-173
12296,-190
12297,-194
12298,-182
12299,-177
12300,-180
12301,-173
12302,-166
12303,-163
12304,-161
12305,-160
12306,-158
12307,-156
12308,-153
12309,-147
12310,-137
12311,-126
12312,-116
12313,-113
12314,-120
12315,-136
12316,-145
12317,-146
12318,-133
12319,-114
12320,-99
12321,-89
12322,-89
12323,-96
12324,-95
12325,-74
12326,-46
12327,-11
12328,26
12329,34
12330,1
12331,-57
12332,-140
12333,-218
12334,-244
12335,-210
12336,-151
12337,-92
12338,-62
12339,-74
12340,-118
12341,-194
12342,-273
12343,-314
12344,-314
12345,-287
12346,-221
12347,-147
12348,-109
12349,-107
12350,-119
12351,-140
12352,-162
12353,-181
12354,-191
12355,-194
12356,-188
12357,-175
12358,-160
12359,-148
12360,-139
12361,-128
12362,-120
12363,-114
12364,-108
12365,-95
12366,-74
12367,-52
12368,-33
12369,-26
12370,-38
12371,-64
12372,-99
12373,-140
12374,-175
12375,-195
12376,-198
12377,-179
12378,-129
12379,-74
12380,-38
12381,-18
12382,-18
12383,-18
12384,-64
12385,-105
12386,-143
12387,-168
12388,-175
12389,-157
12390,-118
12391,-81
12392,-57
12393,-35
12394,-23
12395,-32
12396,-52
12397,-77
12398,-103
12399,-129
12400,-142
12401,-141
12402,-135
12403,-134
12404,-133
12405,-136
12406,-140
12407,-141
12408,-128
12409,-103
12410,-85
12411,-77
12412,-75
12413,-83
12414,-101
12415,-123
12416,-136
12417,-113
12418,-79
12419,-46
12420,-29
12421,-27
12422,-34
12423,-48
12424,-62
12425,-59
12426,-42
12427,-28
12428,-20
12429,-17
12430,-17
12431,-34
12432,-65
12433,-79
12434,-77
12435,-83
12436,-89
12437,-80
12438,-70
12439,-75
12440,-89
12441,-103
12442,-121
12443,-147
12444,-172
12445,-178
12446,-161
12447,-132
12448,-84
12449,-25
12450,46
12451,41
12452,11
12453,-28
12454,-73
12455,-106
12456,-120
12457,-119
12458,-109
12459,-93
12460,-82
12461,-80
12462,-80
12463,-79
12464,-82
12465,-83
12466,-84
12467,-84
12468,-87
12469,-102
12470,-121
12471,-131
12472,-127
12473,-107
12474,-74
12475,-41
12476,-15
12477,-4
12478,-18
12479,-46
12480,-79
12481,-103
12482,-96
12483,-69
12484,-1
12485,21
12486,16
12487,0
12488,-26
12489,-59
12490,-81
12491,-93
12492,-98
12493,-90
12494,-83
12495,-72
12496,-36
12497,2
12498,27
12499,45
12500,43
12501,18
12502,-16
12503,-59
12504,-99
12505,-121
12506,-121
12507,-101
12508,-68
12509,-43
12510,-34
12511,-29
12512,-34
12513,-47
12514,-63
12515,-75
12516,-81
12517,-78
12518,-49
12519,-37
12520,-24
12521,-7
12522,-1
12523,-4
12524,-4
12525,-6
12526,0
12527,18
12528,37
12529,53
12530,64
12531,71
12532,62
12533,33
12534,-6
12535,-48
12536,-74
12537,-85
12538,-73
12539,-46
12540,-32
12541,-43
12542,-66
12543,-100
12544,-143
12545,-181
12546,-192
12547,-163
12548,-96
12549,-16
12550,61
12551,124
12552,158
12553,140
12554,104
12555,61
12556,17
12557,-24
12558,-63
12559,-101
12560,-141
12561,-185
12562,-228
12563,-252
12564,-260
12565,-258
12566,-243
12567,-211
12568,-170
12569,-124
12570,-75
12571,-36
12572,-11
12573,1
12574,0
12575,-12
12576,-22
12577,-28
12578,-27
12579,-14
12580,10
12581,31
12582,38
12583,28
12584,1
12585,-30
12586,-68
12587,-63
12588,-45
12589,-17
12590,13
12591,39
12592,51
12593,50
12594,40
12595,24
12596,2
12597,-19
12598,-39
12599,-61
12600,-78
12601,-74
12602,-65
12603,-61
12604,-56
12605,-51
12606,-53
12607,-54
12608,-52
12609,-43
12610,-23
12611,5
12612,42
12613,75
12614,87
12615,82
12616,62
12617,28
12618,-11
12619,-77
12620,-92
12621,-91
12622,-72
12623,-35
12624,7
12625,44
12626,82
12627,110
12628,109
12629,89
12630,53
12631,0
12632,-43
12633,-67
12634,-53
12635,29
12636,129
12637,179
12638,196
12639,168
12640,81
12641,-25
12642,-126
12643,-200
12644,-224
12645,-206
12646,-161
12647,-92
12648,-50
12649,-49
12650,-38
12651,-14
12652,37
12653,64
12654,81
12655,88
12656,86
12657,78
12658,73
12659,68
12660,61
12661,56
12662,53
12663,52
12664,54
12665,52
12666,52
12667,46
12668,46
12669,48
12670,50
12671,61
12672,71
12673,79
12674,87
12675,89
12676,90
12677,89
12678,81
12679,76
12680,87
12681,109
12682,144
12683,185
12684,220
12685,241
12686,225
12687,198
12688,161
12689,112
12690,63
12691,16
12692,-25
12693,-57
12694,-76
12695,-81
12696,-66
12697,-34
12698,9
12699,47
12700,58
12701,42
12702,9
12703,-32
12704,-73
12705,-99
12706,-104
12707,-101
12708,-98
12709,-101
12710,-117
12711,-138
12712,-153
12713,-137
12714,-93
12715,-51
12716,-28
12717,-16
12718,-18
12719,-52
12720,-159
12721,-195
12722,-214
12723,-213
12724,-187
12725,-156
12726,-152
12727,-161
12728,-166
12729,-169
12730,-182
12731,-195
12732,-187
12733,-165
12734,-143
12735,-126
12736,-116
12737,-120
12738,-137
12739,-154
12740,-161
12741,-159
12742,-149
12743,-138
12744,-124
12745,-106
12746,-96
12747,-96
12748,-94
12749,-89
12750,-82
12751,-74
12752,-72
12753,-88
12754,-111
12755,-141
12756,-163
12757,-183
12758,-190
12759,-162
12760,-106
12761,-47
12762,-3
12763,28
12764,49
12765,39
12766,-8
12767,-56
12768,-95
12769,-143
12770,-189
12771,-214
12772,-225
12773,-227
12774,-218
12775,-193
12776,-159
12777,-138
12778,-134
12779,-126
12780,-118
12781,-127
12782,-129
12783,-107
12784,-74
12785,-50
12786,-33
12787,-51
12788,-69
12789,-84
12790,-99
12791,-106
12792,-105
12793,-103
12794,-98
12795,-95
12796,-98
12797,-93
12798,-80
12799,-68
12800,-60
12801,-63
12802,-79
12803,-101
12804,-120
12805,-134
12806,-142
12807,-141
12808,-129
12809,-129
12810,-110
12811,-93
12812,-80
12813,-74
12814,-68
12815,-68
12816,-72
12817,-72
12818,-71
12819,-78
12820,-77
12821,-72
12822,-43
12823,-19
12824,-21
12825,-38
12826,-66
12827,-97
12828,-115
12829,-131
12830,-140
12831,-126
12832,-111
12833,-108
12834,-100
12835,-104
12836,-124
12837,-124
12838,-107
12839,-90
12840,-74
12841,-77
12842,-101
12843,-125
12844,-149
12845,-164
12846,-162
12847,-153
12848,-139
12849,-122
12850,-117
12851,-127
12852,-134
12853,-140
12854,-147
12855,-145
12856,-127
12857,-119
12858,-119
12859,-122
12860,-117
12861,-100
12862,-72
12863,-32
12864,14
12865,53
12866,72
12867,66
12868,47
12869,18
12870,-23
12871,-63
12872,-80
12873,-81
12874,-78
12875,-71
12876,-67
12877,-67
12878,-78
12879,-95
12880,-105
12881,-109
12882,-117
12883,-116
12884,-98
12885,-81
12886,-73
12887,-70
12888,-68
12889,-71
12890,-76
12891,-85
12892,-83
12893,-74
12894,-55
12895,-19
12896,23
12897,61
12898,97
12899,126
12900,128
12901,97
12902,45
12903,-18
12904,-76
12905,-120
12906,-147
12907,-133
12908,-76
12909,-27
12910,-3
12911,5
12912,-21
12913,-83
12914,-146
12915,-197
12916,-225
12917,-226
12918,-202
12919,-152
12920,-85
12921,-40
12922,-15
12923,8
12924,22
12925,16
12926,2
12927,-15
12928,-26
12929,-26
12930,-23
12931,-17
12932,-4
12933,18
12934,45
12935,69
12936,86
12937,97
12938,91
12939,59
12940,8
12941,-46
12942,-92
12943,-125
12944,-137
12945,-126
12946,-105
12947,-90
12948,-84
12949,-77
12950,-71
12951,-71
12952,-71
12953,-70
12954,-59
12955,-47
12956,-48
12957,-62
12958,-81
12959,-130
12960,-149
12961,-153
12962,-142
12963,-119
12964,-78
12965,-27
12966,3
12967,18
12968,18
12969,-1
12970,-34
12971,-71
12972,-96
12973,-99
12974,-78
12975,-54
12976,-31
12977,-14
12978,-19
12979,-33
12980,-46
12981,-56
12982,-62
12983,-67
12984,-74
12985,-85
12986,-97
12987,-115
12988,-131
12989,-132
12990,-123
12991,-104
12992,-41
12993,5
12994,62
12995,131
12996,209
12997,265
12998,288
12999,277
13000,233
13001,173
13002,114
