,ECG
0,33344
1,33536
2,33664
3,33664
4,33600
5,33536
6,33344
7,33088
8,32960
9,33024
10,33152
11,33088
12,33024
13,33216
14,33408
15,33472
16,33728
17,34112
18,34496
19,34240
20,33920
21,33792
22,33792
23,33728
24,33920
25,33984
26,33984
27,33984
28,33920
29,34048
30,34240
31,34304
32,34176
33,34112
34,33920
35,33728
36,33728
37,33792
38,33792
39,33792
40,33728
41,33920
42,34112
43,34176
44,33920
45,33664
46,33536
47,33536
48,33600
49,33664
50,33728
51,33664
52,33536
53,33408
54,33280
55,33216
56,33792
57,34112
58,33728
59,33280
60,33088
61,33152
62,33408
63,33728
64,33856
65,33728
66,33536
67,33536
68,33536
69,33664
70,33728
71,33920
72,34176
73,34048
74,33728
75,33600
76,33856
77,34112
78,34240
79,34496
80,34560
81,34432
82,34432
83,34432
84,34496
85,34432
86,34432
87,34176
88,33792
89,33600
90,33536
91,33536
92,33280
93,32960
94,32832
95,32832
96,32960
97,33088
98,33216
99,33280
100,33280
101,33344
102,33344
103,33280
104,33216
105,33216
106,33280
107,33536
108,33984
109,35008
110,36672
111,38592
112,39744
113,39872
114,38784
115,37120
116,35136
117,33280
118,31808
119,30848
120,30272
121,30080
122,30272
123,30848
124,31616
125,32192
126,32448
127,32640
128,32896
129,33088
130,33088
131,33152
132,33280
133,33472
134,33792
135,33920
136,33792
137,33792
138,33856
139,33664
140,33536
141,33664
142,33856
143,33984
144,34176
145,34112
146,33856
147,33664
148,33472
149,33408
150,33728
151,34240
152,34432
153,34304
154,34048
155,33984
156,33856
157,33792
158,33856
159,34112
160,34112
161,34560
162,34752
163,34816
164,34688
165,34496
166,34560
167,34688
168,34688
169,34624
170,34368
171,34304
172,34240
173,34176
174,34112
175,34304
176,34560
177,34816
178,35008
179,35072
180,34944
181,34816
182,34688
183,34624
184,34624
185,34624
186,34368
187,34240
188,34176
189,33920
190,33856
191,33472
192,33344
193,33408
194,33408
195,33280
196,33088
197,32768
198,32640
199,32704
200,32832
201,32832
202,32704
203,32640
204,32832
205,32832
206,32640
207,32576
208,32576
209,32640
210,32704
211,32896
212,33024
213,33280
214,33472
215,33600
216,33664
217,33728
218,33792
219,33920
220,34112
221,34176
222,34304
223,34432
224,34432
225,34048
226,33664
227,33280
228,33088
229,33152
230,33344
231,33536
232,33600
233,33600
234,33664
235,33920
236,33856
237,33664
238,33600
239,33472
240,33280
241,33216
242,33408
243,33728
244,33920
245,33728
246,33472
247,33216
248,33280
249,33472
250,33408
251,33216
252,33280
253,33472
254,33728
255,33920
256,33856
257,33664
258,33472
259,33536
260,33664
261,33664
262,33600
263,33536
264,33536
265,33600
266,33664
267,33664
268,33664
269,33664
270,33600
271,33536
272,33600
273,33472
274,33344
275,33408
276,33408
277,33408
278,33344
279,33344
280,33536
281,33792
282,34048
283,34240
284,34432
285,34304
286,34240
287,34304
288,34304
289,34304
290,34304
291,34368
292,34688
293,34816
294,34368
295,33856
296,33472
297,33152
298,33024
299,32832
300,32640
301,32576
302,32512
303,32512
304,32576
305,32896
306,33024
307,33024
308,33216
309,33472
310,33792
311,33728
312,33344
313,32960
314,32896
315,33280
316,34048
317,35264
318,36864
319,38848
320,40192
321,40512
322,39744
323,38144
324,35968
325,33792
326,32000
327,30656
328,29760
329,29504
330,29760
331,30400
332,31104
333,31808
334,32384
335,33024
336,33408
337,33408
338,33280
339,33280
340,33472
341,33472
342,33344
343,33152
344,33088
345,33024
346,33088
347,33216
348,33472
349,33536
350,33536
351,33664
352,33792
353,33792
354,33856
355,33920
356,33984
357,34368
358,34624
359,34624
360,34304
361,33984
362,33728
363,33728
364,33920
365,34048
366,33792
367,33664
368,33792
369,34112
370,34560
371,34752
372,34624
373,34624
374,34624
375,34432
376,34304
377,34240
378,34176
379,34176
380,34496
381,34752
382,34752
383,34752
384,34880
385,35072
386,34880
387,34624
388,34688
389,34944
390,34944
391,34752
392,34560
393,34432
394,34432
395,34432
396,34304
397,34112
398,34048
399,33920
400,33792
401,33728
402,33600
403,33280
404,32768
405,32448
406,32512
407,32832
408,33152
409,33280
410,33216
411,32960
412,32640
413,32576
414,32768
415,33024
416,32960
417,32832
418,32832
419,32896
420,33024
421,33280
422,33472
423,33664
424,33792
425,33920
426,33920
427,33792
428,33664
429,33728
430,33984
431,34048
432,33856
433,33792
434,33984
435,34176
436,33984
437,33792
438,33728
439,33536
440,33472
441,33536
442,33600
443,33664
444,33728
445,33792
446,33920
447,33920
448,33920
449,33856
450,33856
451,33792
452,33472
453,33344
454,33344
455,33408
456,33664
457,33792
458,33920
459,33984
460,33984
461,33920
462,34048
463,34240
464,34176
465,33984
466,33856
467,33600
468,33408
469,33216
470,33216
471,33280
472,33408
473,33664
474,33920
475,33984
476,33920
477,33792
478,33792
479,33792
480,33728
481,33728
482,33856
483,33856
484,33792
485,33856
486,33920
487,34048
488,34048
489,34112
490,33920
491,33792
492,33856
493,33984
494,34240
495,34432
496,34624
497,34880
498,35200
499,35264
500,35008
501,34624
502,34112
503,33792
504,33600
505,33536
506,33600
507,33536
508,33344
509,33152
510,33088
511,33024
512,33024
513,33216
514,33664
515,33984
516,33856
517,33536
518,33664
519,33984
520,34048
521,33920
522,33664
523,33664
524,34048
525,34880
526,36288
527,38336
528,40320
529,41536
530,41600
531,40064
532,37504
533,34816
534,32448
535,30720
536,29696
537,29376
538,29760
539,30528
540,31552
541,32512
542,32896
543,32960
544,32960
545,33088
546,33408
547,33728
548,33728
549,33664
550,33792
551,33792
552,33664
553,33536
554,33408
555,33536
556,33728
557,33856
558,33856
559,33984
560,34176
561,34304
562,34432
563,34368
564,34176
565,34112
566,34176
567,34240
568,34432
569,34624
570,34624
571,34304
572,34048
573,34112
574,34176
575,34176
576,34112
577,34304
578,34560
579,34560
580,34688
581,34944
582,35200
583,35392
584,35264
585,35136
586,35200
587,35136
588,35136
589,35200
590,35264
591,35072
592,34816
593,34688
594,34752
595,34880
596,34752
597,34624
598,34752
599,35072
600,35264
601,35264
602,35136
603,34816
604,34496
605,34304
606,34176
607,33856
608,33472
609,33408
610,33536
611,33536
612,33536
613,33408
614,33280
615,33280
616,33088
617,32896
618,32960
619,32960
620,32640
621,32512
622,32512
623,32576
624,32640
625,32896
626,33216
627,33408
628,33600
629,33664
630,33536
631,33472
632,33664
633,33920
634,34048
635,34048
636,34176
637,34176
638,33920
639,33728
640,33600
641,33472
642,33536
643,33728
644,33920
645,34048
646,34176
647,34304
648,34240
649,34112
650,33984
651,34048
652,34048
653,34112
654,34176
655,34240
656,34368
657,34304
658,34048
659,33856
660,33856
661,33984
662,34112
663,34304
664,34432
665,34496
666,34496
667,34432
668,34112
669,33856
670,33856
671,33856
672,34048
673,34240
674,34176
675,34176
676,34304
677,34368
678,34432
679,34432
680,34496
681,34624
682,34752
683,34752
684,34240
685,33728
686,33664
687,33920
688,34112
689,34176
690,34240
691,34304
692,34304
693,34304
694,34368
695,34368
696,34432
697,34560
698,34752
699,34752
700,34624
701,34560
702,34624
703,34880
704,34624
705,34240
706,34112
707,34176
708,34304
709,34432
710,34624
711,34944
712,35136
713,35328
714,35712
715,35712
716,35392
717,34944
718,34688
719,34688
720,34880
721,34880
722,34304
723,33856
724,33664
725,33664
726,33536
727,33408
728,33408
729,33536
730,33664
731,33728
732,33728
733,33856
734,34048
735,34176
736,33984
737,33728
738,33792
739,34112
740,34752
741,35520
742,36736
743,38656
744,40512
745,41280
746,40960
747,39744
748,37568
749,34880
750,32576
751,30848
752,30016
753,29952
754,30464
755,31296
756,32192
757,32896
758,33280
759,33408
760,33344
761,33408
762,33536
763,33792
764,34496
765,35072
766,35136
767,34816
768,34496
769,34176
770,33920
771,33984
772,34240
773,34176
774,33856
775,33536
776,33664
777,33856
778,34048
779,33984
780,33728
781,33664
782,34176
783,35008
784,35776
785,35904
786,35584
787,35072
788,34496
789,34112
790,34432
791,35328
792,35904
793,35840
794,35584
795,35520
796,35456
797,34944
798,34560
799,34496
800,34560
801,34560
802,34816
803,35392
804,35776
805,35968
806,36160
807,36032
808,35968
809,35840
810,35520
811,35200
812,34880
813,34496
814,34368
815,34496
816,34432
817,34048
818,33664
819,33600
820,33856
821,34240
822,34624
823,35008
824,34688
825,33920
826,33408
827,33280
828,33536
829,33792
830,33664
831,33408
832,33088
833,32768
834,32768
835,32960
836,33472
837,33984
838,34368
839,34368
840,34240
841,33856
842,33536
843,33088
844,32704
845,32576
846,32704
847,33152
848,33472
849,33536
850,33472
851,33664
852,34176
853,34368
854,34176
855,34240
856,34496
857,34304
858,34112
859,34240
860,34560
861,34752
862,34496
863,34112
864,33856
865,34112
866,34880
867,35136
868,34432
869,34112
870,33984
871,33472
872,32896
873,32704
874,33088
875,33728
876,34368
877,34816
878,34688
879,34048
880,33536
881,33344
882,33344
883,33344
884,33472
885,33600
886,33792
887,34304
888,34560
889,34624
890,34496
891,33984
892,33536
893,33600
894,33600
895,33664
896,33728
897,33856
898,34176
899,34432
900,34496
901,34560
902,34752
903,35392
904,35648
905,35008
906,33856
907,33152
908,32960
909,32896
910,32832
911,33216
912,33856
913,34240
914,34240
915,34176
916,34176
917,33984
918,33792
919,34240
920,34880
921,34944
922,34560
923,34112
924,34048
925,34368
926,34688
927,34944
928,35392
929,35584
930,35200
931,34880
932,34752
933,34816
934,35136
935,34944
936,34048
937,33152
938,32768
939,32768
940,33280
941,33920
942,34176
943,33856
944,33920
945,33984
946,33536
947,32832
948,32576
949,32704
950,33152
951,33792
952,34304
953,34752
954,35136
955,35200
956,35584
957,36672
958,38464
959,40000
960,40512
961,39872
962,38144
963,35776
964,33600
965,31936
966,30656
967,29888
968,29952
969,30336
970,31104
971,31872
972,32768
973,33600
974,33920
975,34048
976,34240
977,34112
978,33536
979,33088
980,33216
981,33472
982,33408
983,33216
984,33152
985,33536
986,34176
987,34368
988,33856
989,33600
990,33600
991,33984
992,34368
993,34240
994,33920
995,33728
996,33728
997,33856
998,34112
999,34688
1000,35072
1001,35008
1002,34752
1003,34432
1004,34176
1005,34176
1006,34176
1007,34112
1008,34240
1009,34496
1010,34624
1011,34496
1012,34560
1013,34752
1014,34944
1015,34944
1016,34688
1017,34496
1018,34496
1019,34560
1020,34688
1021,34944
1022,35456
1023,35776
1024,35456
1025,35008
1026,34624
1027,34560
1028,34624
1029,34880
1030,35008
1031,34944
1032,34752
1033,34624
1034,34368
1035,34048
1036,33856
1037,33664
1038,33600
1039,33728
1040,33920
1041,34112
1042,33728
1043,33152
1044,32704
1045,32384
1046,32256
1047,32128
1048,32064
1049,32128
1050,32256
1051,32448
1052,32704
1053,33088
1054,33344
1055,33536
1056,33536
1057,33600
1058,33920
1059,33856
1060,33408
1061,33344
1062,33536
1063,33344
1064,33088
1065,33088
1066,33280
1067,33536
1068,33856
1069,33984
1070,33984
1071,34176
1072,34368
1073,34176
1074,33728
1075,33344
1076,33408
1077,33920
1078,33920
1079,33664
1080,33728
1081,33600
1082,33280
1083,33536
1084,34240
1085,34432
1086,33984
1087,33664
1088,33984
1089,34112
1090,34048
1091,34176
1092,34304
1093,33984
1094,33216
1095,32640
1096,32640
1097,33024
1098,33344
1099,33600
1100,33792
1101,34304
1102,34560
1103,33856
1104,33344
1105,33280
1106,33472
1107,33664
1108,33280
1109,32960
1110,33216
1111,33792
1112,34112
1113,33984
1114,33664
1115,33600
1116,33472
1117,32896
1118,32576
1119,32768
1120,33344
1121,34048
1122,34624
1123,34880
1124,35136
1125,35392
1126,35328
1127,34880
1128,34560
1129,34432
1130,34496
1131,34496
1132,34176
1133,33984
1134,34176
1135,34240
1136,33920
1137,33472
1138,33344
1139,33344
1140,32704
1141,32256
1142,32064
1143,32192
1144,32640
1145,33600
1146,34368
1147,34176
1148,34048
1149,34304
1150,34112
1151,33536
1152,33152
1153,33408
1154,34176
1155,34944
1156,35712
1157,36608
1158,37632
1159,38464
1160,38848
1161,38336
1162,37248
1163,35904
1164,34112
1165,32256
1166,30784
1167,30208
1168,30784
1169,31936
1170,32384
1171,31872
1172,31680
1173,32064
1174,32768
1175,33536
1176,34368
1177,34688
1178,34304
1179,33792
1180,33536
1181,33600
1182,33920
1183,34048
1184,34048
1185,34048
1186,33984
1187,33984
1188,34112
1189,34304
1190,34432
1191,34432
1192,34496
1193,34560
1194,34624
1195,34368
1196,34112
1197,34048
1198,34176
1199,34432
1200,34560
1201,34496
1202,34496
1203,34560
1204,34688
1205,34816
1206,34816
1207,34816
1208,34880
1209,35072
1210,35328
1211,35392
1212,35328
1213,35072
1214,34688
1215,34496
1216,34432
1217,34496
1218,34688
1219,34944
1220,35328
1221,35584
1222,35840
1223,35840
1224,35776
1225,35840
1226,35904
1227,35968
1228,36032
1229,36224
1230,36224
1231,36096
1232,35584
1233,34880
1234,34240
1235,33792
1236,33792
1237,33664
1238,33408
1239,33472
1240,33728
1241,33792
1242,33472
1243,33472
1244,33344
1245,33088
1246,32832
1247,32960
1248,33280
1249,33472
1250,33344
1251,33216
1252,33152
1253,33152
1254,33408
1255,33664
1256,33536
1257,33280
1258,33152
1259,33280
1260,33664
1261,34048
1262,33856
1263,33408
1264,33408
1265,33536
1266,33728
1267,33984
1268,34176
1269,33984
1270,33792
1271,33728
1272,33728
1273,33728
1274,33664
1275,33664
1276,33728
1277,33728
1278,33792
1279,33920
1280,33920
1281,33856
1282,33792
1283,33664
1284,33664
1285,33984
1286,33984
1287,33664
1288,33600
1289,33536
1290,33664
1291,33664
1292,33664
1293,33792
1294,33984
1295,33856
1296,33472
1297,33216
1298,33408
1299,33600
1300,33600
1301,33536
1302,33472
1303,33600
1304,33920
1305,34304
1306,34432
1307,34176
1308,33920
1309,33664
1310,33600
1311,33856
1312,34048
1313,33984
1314,33792
1315,33856
1316,33920
1317,34304
1318,34944
1319,35456
1320,34560
1321,34112
1322,34048
1323,34368
1324,34880
1325,35072
1326,34624
1327,34304
1328,34240
1329,34304
1330,34496
1331,34496
1332,34368
1333,34240
1334,34112
1335,33856
1336,33664
1337,33664
1338,33792
1339,34048
1340,33856
1341,33408
1342,33280
1343,33600
1344,33792
1345,33728
1346,33920
1347,33984
1348,33536
1349,33280
1350,33216
1351,33600
1352,34176
1353,34688
1354,35264
1355,36224
1356,37504
1357,39104
1358,40192
1359,40256
1360,40128
1361,39360
1362,35648
1363,33728
1364,32000
1365,30784
1366,30208
1367,30208
1368,30848
1369,31744
1370,32896
1371,33472
1372,33280
1373,33152
1374,33088
1375,32960
1376,33024
1377,33216
1378,33536
1379,33600
1380,33536
1381,33536
1382,33728
1383,33920
1384,33920
1385,34176
1386,34432
1387,34496
1388,34432
1389,34560
1390,34496
1391,34368
1392,33856
1393,33728
1394,33856
1395,34048
1396,34240
1397,34432
1398,34624
1399,34816
1400,34816
1401,34560
1402,34368
1403,34240
1404,34240
1405,34176
1406,34368
1407,35008
1408,35200
1409,35328
1410,35072
1411,34816
1412,34624
1413,34752
1414,35200
1415,35584
1416,35456
1417,34880
1418,34560
1419,34752
1420,34752
1421,35072
1422,35712
1423,35456
1424,35200
1425,35072
1426,34944
1427,34880
1428,34816
1429,34816
1430,34816
1431,34944
1432,34944
1433,34816
1434,34624
1435,34368
1436,34176
1437,34112
1438,33984
1439,34048
1440,34112
1441,34112
1442,34048
1443,33472
1444,32960
1445,32576
1446,32384
1447,32192
1448,32128
1449,32256
1450,32256
1451,32512
1452,33472
1453,33280
1454,33024
1455,32960
1456,33088
1457,33536
1458,33792
1459,33600
1460,33600
1461,33728
1462,33664
1463,33344
1464,33280
1465,33280
1466,33344
1467,33664
1468,33792
1469,33792
1470,33600
1471,33664
1472,33792
1473,33920
1474,33984
1475,33984
1476,33984
1477,34112
1478,33984
1479,33920
1480,33920
1481,34048
1482,34432
1483,34688
1484,34688
1485,34496
1486,33920
1487,33536
1488,33664
1489,34048
1490,34368
1491,34496
1492,34048
1493,33536
1494,33024
1495,32960
1496,32960
1497,33216
1498,33472
1499,33728
1500,34112
1501,34688
1502,35008
1503,34624
1504,34240
1505,33792
1506,33600
1507,33472
1508,33408
1509,33600
1510,33984
1511,34112
1512,34048
1513,33920
1514,34176
1515,34752
1516,34880
1517,34176
1518,33600
1519,33472
1520,33472
1521,33792
1522,34304
1523,34432
1524,34176
1525,34112
1526,34048
1527,34176
1528,34112
1529,33984
1530,33984
1531,34112
1532,34432
1533,34816
1534,34944
1535,34816
1536,34624
1537,34432
1538,34432
1539,34304
1540,34304
1541,34496
1542,34688
1543,34880
1544,34880
1545,34688
1546,34304
1547,34176
1548,34368
1549,34432
1550,34240
1551,33856
1552,33408
1553,33152
1554,33024
1555,33152
1556,33280
1557,33344
1558,33280
1559,33216
1560,33280
1561,33408
1562,33472
1563,33472
1564,33664
1565,34112
1566,34688
1567,35520
1568,36608
1569,38208
1570,38336
1571,40384
1572,40640
1573,40064
1574,38400
1575,36096
1576,33792
1577,31936
1578,30592
1579,29888
1580,29824
1581,30208
1582,30848
1583,31616
1584,32320
1585,32832
1586,33152
1587,33408
1588,33344
1589,33088
1590,32960
1591,33216
1592,33472
1593,33408
1594,33216
1595,33088
1596,33472
1597,33344
1598,33024
1599,32960
1600,33152
1601,33536
1602,33920
1603,33984
1604,33984
1605,34240
1606,34496
1607,34304
1608,33920
1609,33536
1610,33472
1611,33664
1612,33856
1613,34048
1614,34048
1615,33984
1616,34176
1617,34368
1618,34560
1619,34368
1620,34240
1621,34240
1622,34496
1623,34816
1624,35136
1625,35008
1626,34816
1627,34880
1628,34816
1629,34496
1630,34432
1631,34624
1632,34624
1633,34560
1634,34752
1635,34944
1636,35136
1637,35200
1638,35264
1639,35456
1640,35584
1641,35584
1642,35392
1643,35136
1644,34880
1645,34560
1646,34368
1647,34240
1648,33984
1649,33728
1650,33280
1651,32960
1652,32896
1653,32960
1654,33088
1655,33216
1656,33344
1657,33280
1658,33088
1659,33088
1660,33024
1661,33088
1662,32768
1663,32448
1664,32320
1665,32320
1666,32448
1667,32640
1668,33216
1669,33536
1670,33408
1671,33280
1672,33152
1673,33024
1674,33024
1675,32960
1676,33088
1677,33536
1678,33984
1679,34112
1680,33920
1681,33664
1682,33472
1683,33472
1684,33664
1685,33856
1686,33664
1687,33472
1688,33472
1689,33600
1690,33536
1691,33408
1692,33600
1693,33984
1694,34368
1695,34496
1696,34304
1697,34176
1698,34176
1699,33728
1700,33344
1701,33408
1702,33280
1703,33088
1704,33088
1705,33024
1706,33408
1707,33664
1708,33728
1709,33920
1710,33984
1711,33856
1712,33600
1713,33600
1714,33856
1715,34176
1716,34112
1717,33856
1718,33856
1719,33920
1720,33856
1721,33408
1722,33408
1723,33728
1724,33728
1725,33536
1726,33408
1727,33472
1728,33600
1729,33920
1730,34112
1731,34048
1732,34048
1733,34176
1734,34112
1735,33856
1736,33664
1737,33664
1738,33792
1739,33728
1740,33344
1741,33280
1742,33536
1743,33664
1744,33664
1745,33600
1746,33536
1747,33600
1748,33728
1749,33856
1750,34048
1751,34432
1752,34816
1753,34816
1754,34496
1755,34176
1756,34240
1757,34560
1758,34880
1759,34944
1760,34880
1761,34688
1762,34432
1763,34496
1764,34432
1765,34304
1766,34176
1767,33856
1768,33280
1769,32960
1770,33024
1771,33280
1772,33216
1773,32896
1774,32640
1775,32768
1776,32896
1777,32896
1778,32960
1779,33216
1780,33216
1781,33216
1782,32960
1783,32896
1784,32960
1785,33216
1786,33728
1787,34304
1788,35200
1789,36544
1790,38272
1791,39872
1792,40512
1793,40064
1794,38720
1795,36736
1796,34304
1797,31936
1798,30208
1799,29248
1800,28928
1801,29184
1802,29952
1803,30912
1804,32064
1805,32704
1806,32832
1807,32960
1808,32896
1809,33152
1810,33152
1811,33536
1812,33664
1813,33984
1814,34048
1815,33664
1816,33408
1817,33600
1818,33792
1819,33472
1820,33216
1821,33216
1822,33024
1823,33024
1824,33216
1825,33152
1826,33856
1827,34240
1828,34176
1829,34048
1830,33920
1831,33728
1832,33728
1833,33984
1834,33920
1835,33728
1836,33920
1837,34496
1838,34816
1839,34368
1840,34240
1841,33792
1842,33984
1843,34304
1844,34496
1845,34496
1846,34496
1847,34624
1848,34880
1849,34880
1850,34624
1851,34560
1852,34752
1853,34944
1854,35072
1855,35136
1856,35072
1857,35008
1858,34752
1859,34560
1860,34688
1861,35008
1862,35200
1863,35136
1864,35264
1865,35200
1866,34944
1867,34624
1868,34432
1869,34304
1870,34240
1871,33728
1872,33280
1873,33088
1874,33088
1875,32832
1876,32704
1877,32768
1878,33024
1879,33216
1880,33088
1881,32832
1882,32512
1883,32448
1884,32576
1885,32576
1886,33344
1887,33792
1888,33472
1889,33088
1890,33088
1891,33280
1892,33728
1893,33920
1894,33536
1895,32960
1896,32704
1897,32768
1898,33088
1899,33472
1900,34048
1901,34624
1902,34880
1903,34624
1904,34112
1905,33728
1906,33600
1907,33792
1908,34176
1909,34368
1910,34240
1911,34240
1912,34176
1913,34112
1914,34112
1915,34112
1916,34112
1917,34240
1918,34432
1919,34304
1920,33856
1921,33472
1922,33344
1923,33472
1924,33600
1925,33664
1926,33792
1927,34048
1928,34176
1929,34176
1930,34112
1931,34112
1932,34112
1933,33920
1934,33856
1935,34048
1936,34240
1937,33984
1938,33600
1939,33536
1940,33728
1941,33984
1942,34112
1943,34048
1944,34048
1945,34048
1946,34048
1947,33984
1948,34048
1949,34368
1950,34816
1951,34880
1952,34496
1953,34048
1954,33856
1955,33856
1956,34048
1957,34304
1958,34432
1959,34560
1960,34560
1961,34560
1962,34624
1963,34880
1964,35328
1965,35392
1966,35136
1967,34752
1968,34688
1969,34880
1970,35264
1971,35392
1972,35328
1973,35264
1974,34880
1975,34752
1976,33920
1977,33728
1978,33536
1979,33472
1980,33472
1981,33536
1982,33408
1983,33280
1984,33152
1985,33216
1986,33408
1987,33728
1988,33856
1989,33600
1990,33472
1991,33280
1992,33408
1993,33856
1994,34432
1995,35072
1996,35712
1997,36672
1998,38272
1999,39616
2000,40192
2001,39744
2002,38464
2003,36480
2004,34048
2005,32000
2006,30528
2007,29824
2008,29888
2009,30528
2010,31488
2011,32320
2012,32832
2013,32896
2014,33024
2015,33408
2016,33856
2017,33856
2018,33856
2019,34048
2020,33984
2021,33984
2022,33984
2023,33920
2024,34112
2025,34176
2026,34176
2027,34112
2028,34048
2029,34048
2030,34240
2031,34496
2032,34624
2033,34624
2034,34560
2035,34496
2036,34368
2037,34240
2038,34368
2039,34816
2040,35136
2041,35200
2042,35008
2043,34880
2044,34624
2045,34304
2046,34048
2047,34112
2048,34496
2049,34880
2050,34880
2051,34752
2052,34688
2053,34688
2054,34752
2055,34944
2056,35136
2057,35072
2058,35072
2059,35264
2060,35648
2061,35968
2062,36096
2063,35776
2064,35264
2065,35072
2066,34944
2067,34944
2068,35072
2069,35264
2070,35328
2071,35328
2072,35264
2073,34944
2074,34688
2075,34688
2076,34624
2077,34432
2078,34240
2079,34176
2080,34176
2081,34176
2082,34048
2083,33856
2084,33728
2085,33536
2086,33408
2087,33280
2088,33280
2089,33216
2090,33088
2091,33024
2092,32960
2093,32896
2094,32896
2095,32832
2096,33024
2097,33152
2098,33408
2099,33856
2100,34176
2101,33920
2102,33280
2103,32896
2104,33024
2105,33344
2106,33600
2107,33664
2108,33728
2109,33984
2110,34240
2111,34176
2112,33920
2113,33856
2114,34048
2115,34240
2116,34304
2117,34304
2118,34688
2119,34880
2120,34688
2121,34368
2122,34048
2123,33792
2124,33856
2125,33664
2126,33152
2127,33024
2128,33216
2129,33728
2130,34176
2131,34432
2132,34176
2133,33792
2134,33536
2135,33600
2136,33920
2137,34048
2138,33856
2139,33664
2140,33600
2141,33920
2142,34112
2143,33984
2144,33920
2145,33856
2146,33984
2147,34112
2148,34048
2149,33920
2150,33920
2151,33920
2152,33984
2153,34048
2154,34112
2155,34112
2156,34176
2157,34240
2158,34240
2159,34304
2160,34432
2161,34496
2162,34496
2163,34496
2164,34560
2165,34624
2166,34688
2167,34816
2168,34944
2169,35072
2170,35136
2171,35264
2172,35520
2173,35456
2174,35072
2175,34688
2176,34496
2177,34496
2178,34432
2179,34240
2180,34112
2181,34048
2182,34112
2183,34048
2184,33344
2185,33216
2186,33088
2187,33088
2188,33088
2189,33472
2190,33920
2191,33984
2192,33728
2193,33472
2194,33408
2195,33472
2196,33664
2197,34176
2198,34688
2199,35264
2200,36096
2201,37376
2202,39104
2203,40384
2204,40768
2205,40256
2206,38848
2207,36544
2208,33856
2209,31616
2210,30336
2211,29824
2212,29952
2213,30464
2214,31232
2215,31936
2216,32512
2217,32960
2218,33280
2219,33472
2220,33472
2221,33472
2222,33600
2223,33792
2224,33984
2225,34112
2226,34048
2227,33984
2228,34048
2229,34048
2230,34048
2231,34240
2232,34560
2233,34688
2234,34368
2235,33920
2236,33664
2237,33664
2238,33920
2239,34240
2240,34304
2241,34240
2242,34304
2243,34368
2244,34368
2245,34304
2246,34112
2247,34048
2248,34176
2249,34368
2250,34624
2251,34688
2252,34752
2253,34880
2254,34944
2255,34944
2256,34816
2257,34752
2258,34816
2259,35072
2260,35264
2261,35456
2262,35456
2263,35520
2264,35584
2265,35648
2266,35776
2267,35968
2268,36096
2269,36096
2270,36032
2271,35904
2272,35840
2273,35712
2274,35456
2275,35072
2276,34880
2277,34816
2278,34816
2279,34624
2280,34432
2281,34240
2282,34112
2283,34176
2284,34240
2285,34112
2286,33728
2287,33408
2288,33216
2289,33152
2290,33152
2291,33152
2292,33088
2293,33024
2294,32896
2295,32832
2296,32832
2297,32960
2298,33088
2299,33280
2300,33408
2301,33600
2302,33728
2303,33728
2304,33728
2305,33856
2306,33856
2307,33920
2308,33920
2309,34048
2310,34112
2311,33984
2312,33792
2313,33728
2314,33792
2315,33856
2316,33792
2317,33792
2318,33856
2319,33920
2320,33984
2321,33984
2322,34048
2323,34112
2324,34048
2325,33984
2326,34048
2327,34176
2328,34240
2329,34176
2330,34176
2331,34240
2332,34304
2333,34176
2334,34048
2335,34048
2336,33984
2337,33920
2338,33856
2339,33920
2340,33984
2341,33984
2342,33920
2343,33856
2344,33728
2345,33664
2346,33664
2347,33792
2348,34048
2349,34112
2350,34112
2351,34112
2352,34176
2353,34112
2354,34048
2355,33984
2356,34048
2357,34112
2358,34112
2359,34112
2360,34176
2361,34240
2362,34240
2363,34240
2364,34304
2365,34368
2366,34368
2367,34304
2368,34304
2369,34304
2370,34304
2371,34176
2372,34176
2373,34176
2374,34240
2375,34240
2376,34368
2377,34496
2378,34496
2379,34496
2380,34624
2381,34752
2382,34816
2383,34816
2384,34880
2385,35008
2386,35200
2387,35264
2388,35264
2389,35264
2390,35264
2391,35136
2392,34944
2393,34880
2394,34752
2395,34560
2396,34304
2397,34176
2398,33984
2399,33792
2400,33728
2401,33664
2402,33600
2403,33536
2404,33472
2405,33472
2406,33600
2407,33728
2408,33792
2409,33792
2410,33856
2411,33856
2412,33856
2413,33856
2414,34112
2415,34560
2416,35264
2417,36288
2418,37760
2419,39680
2420,41152
2421,41728
2422,41152
2423,39488
2424,36992
2425,34304
2426,31936
2427,30400
2428,29760
2429,29824
2430,30336
2431,30976
2432,31552
2433,32000
2434,32448
2435,32768
2436,33024
2437,33280
2438,33472
2439,33728
2440,33856
2441,33856
2442,33792
2443,33792
2444,33856
2445,34048
2446,34176
2447,34112
2448,33856
2449,33600
2450,33536
2451,33600
2452,33792
2453,33920
2454,33920
2455,34048
2456,34112
2457,34176
2458,34240
2459,34304
2460,34560
2461,34816
2462,34880
2463,34624
2464,34432
2465,34368
2466,34432
2467,34496
2468,34688
2469,34880
2470,34944
2471,34816
2472,34688
2473,34624
2474,34688
2475,34816
2476,34944
2477,35008
2478,35008
2479,35008
2480,35136
2481,35328
2482,35456
2483,35456
2484,35392
2485,35328
2486,35328
2487,35328
2488,35456
2489,35584
2490,35584
2491,35456
2492,35328
2493,35328
2494,35328
2495,35328
2496,35200
2497,34880
2498,34432
2499,34048
2500,33920
2501,33856
2502,33664
2503,33408
2504,33152
2505,32960
2506,32768
2507,32512
2508,32384
2509,32448
2510,32640
2511,32896
2512,33024
2513,33152
2514,33280
2515,33344
2516,33280
2517,33280
2518,33280
2519,33216
2520,33280
2521,33408
2522,33536
2523,33728
2524,33728
2525,33664
2526,33664
2527,33664
2528,33664
2529,33664
2530,33600
2531,33664
2532,33728
2533,33792
2534,33856
2535,33920
2536,33856
2537,33856
2538,33920
2539,33856
2540,33792
2541,33728
2542,33792
2543,34048
2544,34176
2545,34048
2546,33792
2547,33600
2548,33600
2549,33728
2550,33792
2551,33792
2552,33920
2553,33984
2554,33984
2555,33920
2556,33920
2557,33984
2558,34048
2559,34048
2560,34048
2561,33920
2562,33792
2563,33920
2564,34112
2565,34176
2566,34048
2567,33984
2568,33920
2569,33664
2570,33472
2571,33408
2572,33472
2573,33600
2574,33728
2575,33856
2576,33984
2577,34048
2578,33984
2579,33856
2580,33856
2581,33856
2582,33664
2583,33472
2584,33472
2585,33472
2586,33536
2587,33600
2588,33728
2589,33792
2590,33856
2591,33856
2592,33856
2593,33984
2594,34048
2595,33984
2596,33984
2597,34048
2598,33920
2599,33728
2600,33536
2601,33664
2602,33920
2603,34112
2604,34240
2605,34304
2606,34496
2607,34688
2608,34880
2609,35072
2610,35072
2611,35008
2612,34880
2613,34816
2614,34752
2615,34560
2616,34432
2617,34304
2618,34176
2619,33792
2620,33280
2621,32960
2622,32832
2623,32832
2624,32896
2625,32896
2626,33024
2627,33088
2628,33152
2629,33216
2630,33344
2631,33600
2632,33728
2633,33664
2634,33600
2635,33600
2636,33728
2637,33920
2638,34304
2639,35136
2640,36416
2641,38208
2642,39872
2643,40768
2644,40320
2645,38720
2646,36416
2647,34176
2648,32320
2649,30912
2650,30016
2651,29696
2652,29952
2653,30656
2654,31424
2655,32128
2656,32576
2657,33024
2658,33280
2659,33408
2660,33472
2661,33536
2662,33600
2663,33728
2664,33856
2665,33920
2666,33920
2667,33792
2668,33664
2669,33664
2670,33664
2671,33664
2672,33728
2673,33856
2674,33920
2675,33856
2676,33792
2677,33792
2678,33664
2679,33536
2680,33600
2681,33728
2682,33856
2683,33920
2684,34048
2685,34176
2686,34240
2687,34304
2688,34304
2689,34176
2690,34112
2691,33984
2692,33728
2693,33600
2694,33600
2695,33664
2696,33856
2697,34048
2698,34240
2699,34368
2700,34368
2701,34432
2702,34624
2703,34688
2704,34816
2705,34880
2706,35008
2707,35072
2708,34880
2709,34688
2710,34688
2711,34816
2712,34816
2713,34688
2714,34560
2715,34560
2716,34432
2717,34304
2718,34176
2719,34048
2720,33856
2721,33728
2722,33728
2723,33664
2724,33408
2725,33152
2726,33024
2727,33024
2728,32896
2729,32704
2730,32512
2731,32384
2732,32320
2733,32384
2734,32448
2735,32640
2736,32768
2737,32704
2738,32640
2739,32512
2740,32448
2741,32448
2742,32512
2743,32704
2744,32960
2745,33152
2746,33216
2747,33344
2748,33408
2749,33344
2750,33344
2751,33408
2752,33472
2753,33472
2754,33344
2755,33408
2756,33600
2757,33792
2758,33792
2759,33728
2760,33664
2761,33600
2762,33536
2763,33536
2764,33600
2765,33600
2766,33536
2767,33536
2768,33600
2769,33792
2770,33792
2771,33664
2772,33408
2773,33344
2774,33280
2775,33280
2776,33344
2777,33408
2778,33536
2779,33664
2780,33728
2781,33856
2782,33856
2783,33792
2784,33664
2785,33536
2786,33408
2787,33408
2788,33600
2789,33792
2790,33728
2791,33600
2792,33600
2793,33728
2794,33728
2795,33600
2796,33472
2797,33472
2798,33600
2799,33600
2800,33600
2801,33664
2802,33792
2803,33920
2804,34112
2805,34176
2806,33984
2807,33728
2808,33600
2809,33536
2810,33728
2811,33920
2812,34112
2813,34304
2814,34496
2815,34624
2816,34752
2817,34816
2818,34880
2819,35008
2820,34944
2821,34624
2822,34432
2823,34432
2824,34368
2825,34176
2826,34048
2827,33920
2828,33664
2829,33472
2830,33408
2831,33408
2832,33408
2833,33408
2834,33472
2835,33472
2836,33408
2837,33408
2838,33472
2839,33664
2840,33728
2841,33728
2842,33664
2843,33728
2844,33856
2845,34176
2846,34752
2847,35712
2848,37120
2849,38912
2850,40192
2851,40448
2852,39616
2853,37824
2854,35520
2855,33408
2856,31744
2857,30656
2858,30080
2859,30080
2860,30656
2861,31360
2862,32064
2863,32704
2864,33344
2865,33728
2866,33920
2867,33920
2868,34048
2869,34176
2870,34304
2871,34112
2872,33856
2873,33728
2874,33664
2875,33664
2876,33664
2877,33792
2878,33920
2879,33984
2880,34112
2881,34176
2882,34240
2883,34304
2884,34368
2885,34496
2886,34624
2887,34496
2888,34368
2889,34368
2890,34368
2891,34432
2892,34496
2893,34624
2894,34688
2895,34688
2896,34624
2897,34624
2898,34624
2899,34752
2900,34816
2901,34880
2902,34816
2903,34752
2904,34688
2905,34816
2906,35072
2907,35328
2908,35392
2909,35328
2910,35200
2911,35072
2912,35136
2913,35328
2914,35456
2915,35520
2916,35520
2917,35584
2918,35520
2919,35392
2920,35264
2921,35200
2922,35200
2923,35200
2924,35136
2925,35008
2926,34944
2927,34816
2928,34624
2929,34368
2930,34176
2931,33984
2932,33792
2933,33664
2934,33472
2935,33408
2936,33408
2937,33344
2938,33216
2939,33088
2940,33024
2941,32896
2942,32896
2943,32960
2944,33088
2945,33152
2946,33216
2947,33344
2948,33408
2949,33408
2950,33408
2951,33472
2952,33536
2953,33600
2954,33664
2955,33792
2956,33984
2957,33984
2958,33920
2959,33856
2960,33920
2961,34048
2962,34112
2963,34048
2964,34048
2965,33984
2966,34048
2967,34176
2968,34240
2969,34240
2970,34176
2971,34176
2972,34176
2973,34112
2974,34048
2975,34112
2976,34112
2977,34048
2978,33984
2979,33856
2980,33920
2981,33984
2982,34048
2983,33984
2984,34048
2985,34176
2986,34176
2987,34048
2988,34048
2989,34048
2990,33984
2991,34048
2992,33984
2993,33920
2994,33920
2995,33856
2996,33792
2997,33792
2998,33920
2999,33984
3000,33984
3001,34048
3002,34176
3003,34112
3004,33984
3005,33920
3006,33984
3007,33856
3008,33728
3009,33664
3010,33728
3011,33856
3012,33920
3013,33920
3014,33984
3015,34112
3016,34112
3017,34176
3018,34112
3019,33920
3020,33728
3021,33664
3022,33856
3023,34112
3024,34304
3025,34368
3026,34496
3027,34688
3028,34880
3029,35008
3030,35136
3031,35200
3032,35200
3033,34816
3034,34432
3035,34240
3036,34112
3037,33856
3038,33536
3039,33344
3040,33280
3041,33152
3042,33088
3043,33152
3044,33216
3045,33216
3046,33280
3047,33344
3048,33472
3049,33600
3050,33728
3051,33856
3052,33856
3053,33728
3054,33536
3055,33536
3056,33920
3057,34496
3058,35264
3059,36608
3060,38528
3061,40448
3062,41536
3063,41408
3064,40128
3065,37952
3066,35584
3067,33216
3068,31168
3069,29824
3070,29440
3071,29696
3072,30592
3073,31552
3074,32256
3075,32704
3076,33024
3077,33280
3078,33536
3079,33728
3080,33856
3081,33856
3082,33792
3083,33792
3084,33920
3085,34112
3086,34112
3087,33984
3088,33920
3089,33984
3090,33984
3091,33984
3092,33984
3093,34048
3094,34112
3095,34176
3096,34304
3097,34496
3098,34560
3099,34496
3100,34432
3101,34432
3102,34432
3103,34496
3104,34496
3105,34432
3106,34432
3107,34560
3108,34688
3109,34880
3110,35008
3111,35008
3112,34944
3113,34944
3114,35008
3115,35136
3116,35200
3117,35200
3118,35264
3119,35392
3120,35456
3121,35520
3122,35712
3123,35648
3124,35520
3125,35456
3126,35520
3127,35648
3128,35712
3129,35584
3130,35456
3131,35456
3132,35520
3133,35520
3134,35520
3135,35456
3136,35264
3137,35072
3138,34880
3139,34560
3140,34304
3141,34176
3142,34112
3143,33984
3144,33664
3145,33536
3146,33216
3147,33216
3148,33216
3149,33216
3150,33152
3151,33152
3152,33088
3153,33088
3154,33152
3155,33344
3156,33408
3157,33536
3158,33600
3159,33792
3160,33856
3161,33856
3162,33792
3163,33856
3164,33920
3165,33856
3166,33728
3167,33728
3168,33920
3169,33984
3170,33920
3171,33856
3172,33920
3173,33984
3174,34112
3175,34112
3176,34240
3177,34304
3178,34432
3179,34624
3180,34560
3181,34368
3182,34048
3183,33920
3184,33984
3185,33984
3186,34048
3187,34112
3188,34176
3189,34240
3190,34176
3191,34048
3192,34048
3193,34176
3194,34176
3195,34240
3196,34240
3197,34240
3198,34176
3199,34176
3200,34240
3201,34432
3202,34368
3203,34240
3204,34176
3205,34112
3206,34240
3207,34304
3208,34432
3209,34432
3210,34304
3211,34112
3212,34112
3213,34112
3214,34112
3215,34048
3216,33984
3217,34048
3218,34112
3219,34112
3220,34048
3221,34176
3222,34304
3223,34368
3224,34304
3225,34240
3226,34240
3227,34240
3228,34240
3229,34176
3230,34176
3231,34240
3232,34240
3233,34240
3234,34368
3235,34368
3236,34368
3237,34112
3238,34048
3239,34176
3240,34240
3241,34368
3242,34560
3243,34688
3244,34688
3245,34816
3246,35008
3247,35136
3248,35200
3249,35136
3250,35136
3251,35072
3252,35008
3253,34880
3254,34688
3255,34496
3256,34304
3257,33984
3258,33728
3259,33600
3260,33472
3261,33408
3262,33344
3263,33408
3264,33536
3265,33536
3266,33536
3267,33600
3268,33600
3269,33664
3270,33664
3271,33728
3272,33792
3273,33792
3274,33920
3275,34304
3276,35008
3277,35968
3278,37312
3279,39296
3280,39488
3281,41152
3282,40576
3283,38848
3284,36288
3285,33920
3286,31680
3287,30144
3288,29440
3289,29440
3290,30016
3291,30848
3292,31616
3293,32320
3294,32832
3295,32832
3296,33344
3297,33472
3298,33536
3299,33600
3300,33600
3301,33664
3302,33600
3303,33536
3304,33536
3305,33536
3306,33600
3307,33600
3308,33600
3309,33664
3310,33728
3311,33728
3312,33792
3313,33856
3314,33920
3315,33920
3316,33920
3317,33984
3318,34112
3319,34176
3320,34112
3321,34112
3322,34176
3323,34176
3324,34112
3325,34048
3326,34048
3327,34112
3328,34112
3329,34176
3330,34240
3331,34240
3332,34304
3333,34368
3334,34496
3335,34560
3336,34624
3337,34624
3338,34752
3339,34816
3340,34816
3341,34816
3342,34880
3343,34944
3344,35008
3345,34944
3346,35008
3347,35072
3348,35072
3349,34944
3350,34944
3351,34944
3352,34816
3353,34688
3354,34624
3355,34560
3356,34368
3357,34176
3358,34048
3359,33920
3360,33728
3361,33536
3362,33344
3363,33216
3364,33088
3365,32960
3366,32832
3367,32768
3368,32768
3369,32768
3370,32704
3371,32704
3372,32768
3373,32704
3374,32640
3375,32640
3376,32704
3377,32768
3378,32768
3379,32768
3380,32896
3381,33024
3382,33152
3383,33216
3384,33280
3385,33280
3386,33344
3387,33344
3388,33408
3389,33536
3390,33600
3391,33600
3392,33664
3393,33792
3394,33792
3395,33792
3396,33856
3397,33856
3398,33856
3399,33856
3400,33792
3401,33856
3402,33856
3403,33792
3404,33728
3405,33728
3406,33728
3407,33728
3408,33728
3409,33728
3410,33792
3411,33728
3412,33664
3413,33728
3414,33792
3415,33792
3416,33792
3417,33728
3418,33728
3419,33664
3420,33600
3421,33600
3422,33600
3423,33664
3424,33664
3425,33664
3426,33664
3427,33664
3428,33664
3429,33664
3430,33792
3431,33856
3432,33792
3433,33728
3434,33728
3435,33728
3436,33664
3437,33600
3438,33600
3439,33600
3440,33664
3441,33664
3442,33728
3443,33856
3444,33920
3445,33856
3446,33792
3447,33792
3448,33792
3449,33792
3450,33792
3451,33984
3452,34112
3453,34176
3454,34240
3455,34304
3456,34432
3457,34560
3458,34624
3459,34688
3460,34688
3461,34688
3462,34560
3463,34560
3464,34496
3465,34368
3466,34176
3467,33920
3468,33728
3469,33472
3470,33216
3471,33088
3472,33024
3473,32960
3474,32960
3475,32960
3476,33088
3477,33152
3478,33216
3479,33216
3480,33344
3481,33408
3482,33408
3483,33408
3484,33408
3485,33472
3486,33728
3487,34112
3488,34880
3489,36352
3490,37824
3491,39424
3492,40128
3493,39552
3494,38016
3495,36032
3496,33984
3497,32256
3498,30912
3499,29952
3500,29632
3501,29824
3502,30464
3503,31232
3504,32064
3505,32576
3506,32960
3507,33152
3508,33216
3509,33344
3510,33472
3511,33472
3512,33472
3513,33536
3514,33600
3515,33600
3516,33600
3517,33600
3518,33664
3519,33728
3520,33728
3521,33664
3522,33664
3523,33664
3524,33664
3525,33664
3526,33792
3527,33856
3528,33856
3529,33920
3530,33984
3531,34048
3532,34112
3533,34112
3534,34112
3535,34176
3536,34176
3537,34176
3538,34176
3539,34304
3540,34304
3541,34304
3542,34304
3543,34368
3544,34432
3545,34432
3546,34560
3547,34688
3548,34752
3549,34752
3550,34816
3551,34880
3552,34880
3553,34880
3554,35008
3555,35072
3556,35136
3557,35136
3558,35136
3559,35136
3560,35200
3561,35200
3562,35136
3563,35072
3564,35072
3565,35008
3566,34816
3567,34752
3568,34688
3569,34560
3570,34368
3571,34176
3572,33984
3573,33856
3574,33664
3575,33536
3576,33408
3577,33344
3578,33152
3579,33088
3580,33088
3581,33088
3582,33088
3583,33088
3584,33152
3585,33216
3586,33216
3587,33280
3588,33344
3589,33472
3590,33536
3591,33536
3592,33664
3593,33792
3594,33856
3595,33856
3596,33920
3597,34048
3598,34048
3599,34048
3600,34048
3601,34112
3602,34176
3603,34176
3604,34240
3605,34304
3606,34368
3607,34304
3608,34304
3609,34304
3610,34240
3611,34176
3612,34176
3613,34176
3614,34176
3615,34112
3616,34112
3617,34112
3618,34112
3619,34112
3620,34048
3621,34048
3622,34048
3623,34112
3624,34048
3625,34048
3626,34112
3627,34176
3628,34176
3629,34176
3630,34240
3631,34240
3632,34112
3633,33984
3634,33920
3635,33984
3636,33920
3637,33920
3638,33920
3639,33984
3640,33984
3641,34048
3642,34048
3643,34112
3644,34176
3645,34176
3646,34240
3647,34304
3648,34304
3649,34304
3650,34368
3651,34432
3652,34432
3653,34432
3654,34432
3655,34496
3656,34496
3657,34496
3658,34432
3659,34432
3660,34432
3661,34432
3662,34432
3663,34496
3664,34560
3665,34560
3666,34560
3667,34560
3668,34560
3669,34560
3670,34560
3671,34624
3672,34752
3673,34816
3674,34816
3675,34944
3676,35008
3677,35136
3678,35136
3679,35200
3680,35392
3681,35584
3682,35648
3683,35584
3684,35584
3685,35584
3686,35520
3687,35392
3688,35328
3689,35264
3690,35136
3691,34944
3692,34752
3693,34496
3694,34240
3695,34048
3696,33984
3697,33984
3698,33984
3699,33984
3700,34048
3701,34112
3702,34240
3703,34240
3704,34240
3705,34304
3706,34304
3707,34304
3708,34240
3709,34432
3710,34752
3711,35264
3712,36096
3713,37504
3714,39872
3715,40960
3716,41600
3717,41152
3718,39552
3719,37248
3720,34688
3721,32512
3722,30912
3723,30016
3724,29824
3725,30272
3726,31104
3727,31936
3728,32576
3729,33216
3730,33408
3731,33664
3732,33792
3733,33856
3734,33920
3735,33984
3736,33984
3737,33984
3738,33984
3739,34048
3740,34048
3741,33984
3742,34048
3743,34112
3744,34176
3745,34176
3746,34176
3747,34240
3748,34304
3749,34304
3750,34304
3751,34368
3752,34432
3753,34432
3754,34496
3755,34560
3756,34624
3757,34624
3758,34560
3759,34688
3760,34688
3761,34752
3762,34752
3763,34816
3764,34880
3765,34944
3766,34944
3767,35008
3768,35072
3769,35072
3770,35136
3771,35136
3772,35264
3773,35328
3774,35328
3775,35328
3776,35392
3777,35392
3778,35456
3779,35456
3780,35520
3781,35584
3782,35520
3783,35456
3784,35520
3785,35520
3786,35456
3787,35392
3788,35328
3789,35264
3790,35264
3791,35136
3792,35008
3793,34816
3794,34560
3795,34304
3796,34112
3797,33984
3798,33792
3799,33664
3800,33536
3801,33472
3802,33408
3803,33344
3804,33280
3805,33216
3806,33152
3807,33088
3808,33088
3809,33216
3810,33280
3811,33408
3812,33472
3813,33664
3814,33792
3815,33728
3816,33664
3817,33728
3818,33792
3819,33856
3820,33792
3821,33856
3822,33984
3823,34048
3824,34112
3825,34112
3826,34176
3827,34176
3828,34176
3829,34240
3830,34304
3831,34304
3832,34304
3833,34240
3834,34240
3835,34240
3836,34240
3837,34240
3838,34240
3839,34304
3840,34304
3841,34240
3842,34240
3843,34368
3844,34304
3845,34304
3846,34304
3847,34304
3848,34304
3849,34240
3850,34240
3851,34304
3852,34240
3853,34176
3854,34176
3855,34176
3856,34240
3857,34240
3858,34176
3859,34240
3860,34240
3861,34240
3862,34240
3863,34304
3864,34368
3865,34368
3866,34304
3867,34368
3868,34432
3869,34432
3870,34368
3871,34368
3872,34368
3873,34368
3874,34368
3875,34368
3876,34368
3877,34368
3878,34304
3879,34304
3880,34368
3881,34432
3882,34368
3883,34368
3884,34368
3885,34368
3886,34432
3887,34432
3888,34432
3889,34432
3890,34432
3891,34368
3892,34368
3893,34368
3894,34368
3895,34304
3896,34304
3897,34368
3898,34368
3899,34368
3900,34368
3901,34368
3902,34432
3903,34368
3904,34432
3905,34496
3906,34624
3907,34688
3908,34752
3909,34944
3910,35008
3911,35008
3912,35008
3913,35136
3914,35328
3915,35328
3916,35328
3917,35328
3918,35264
3919,35200
3920,35008
3921,34880
3922,34752
3923,34560
3924,34240
3925,34112
3926,33920
3927,33792
3928,33600
3929,33600
3930,33600
3931,33728
3932,33728
3933,33664
3934,33664
3935,33664
3936,33664
3937,33664
3938,33664
3939,33792
3940,33856
3941,33920
3942,34112
3943,34560
3944,35200
3945,36224
3946,37760
3947,39744
3948,41280
3949,41664
3950,40960
3951,39168
3952,36800
3953,34304
3954,32128
3955,30720
3956,30080
3957,30080
3958,30720
3959,31616
3960,32384
3961,32960
3962,33408
3963,33728
3964,33984
3965,34048
3966,34112
3967,34176
3968,34240
3969,34304
3970,34368
3971,34432
3972,34496
3973,34496
3974,34432
3975,34368
3976,34432
3977,34432
3978,34432
3979,34432
3980,34496
3981,34560
3982,34560
3983,34560
3984,34624
3985,34688
3986,34752
3987,34752
3988,34752
3989,34752
3990,34752
3991,34688
3992,34688
3993,34752
3994,34752
3995,34816
3996,34880
3997,34880
3998,34944
3999,34944
4000,35008
4001,35072
4002,35136
4003,35200
4004,35264
4005,35392
4006,35392
4007,35392
4008,35456
4009,35584
4010,35712
4011,35712
4012,35648
4013,35648
4014,35648
4015,35584
4016,35520
4017,35456
4018,35456
4019,35392
4020,35264
4021,35200
4022,35200
4023,35136
4024,35008
4025,34944
4026,34816
4027,34624
4028,34432
4029,34176
4030,33984
4031,33792
4032,33664
4033,33536
4034,33472
4035,33344
4036,33216
4037,33088
4038,33088
4039,33088
4040,33152
4041,33088
4042,33152
4043,33216
4044,33216
4045,33216
4046,33344
4047,33472
4048,33536
4049,33600
4050,33664
4051,33792
4052,33920
4053,33920
4054,33920
4055,33984
4056,33984
4057,34048
4058,34112
4059,34240
4060,34240
4061,34240
4062,34240
4063,34240
4064,34304
4065,34304
4066,34240
4067,34240
4068,34240
4069,34240
4070,34176
4071,34112
4072,34176
4073,34176
4074,34112
4075,34048
4076,34112
4077,34176
4078,34112
4079,34112
4080,34112
4081,34112
4082,34048
4083,34048
4084,34048
4085,34112
4086,34176
4087,34048
4088,33984
4089,33984
4090,33984
4091,33984
4092,33984
4093,34048
4094,34048
4095,33984
4096,33920
4097,33920
4098,33984
4099,33920
4100,33920
4101,33984
4102,34048
4103,33984
4104,33984
4105,34048
4106,34048
4107,34112
4108,34048
4109,34048
4110,34048
4111,33984
4112,33920
4113,33984
4114,34048
4115,34048
4116,34048
4117,34112
4118,34112
4119,34048
4120,33984
4121,34048
4122,34112
4123,34112
4124,34176
4125,34176
4126,34176
4127,34112
4128,34048
4129,33984
4130,33984
4131,34048
4132,34048
4133,33984
4134,34048
4135,33984
4136,33984
4137,34048
4138,34048
4139,34176
4140,34112
4141,34112
4142,34112
4143,34176
4144,34240
4145,34368
4146,34432
4147,34560
4148,34624
4149,34688
4150,34688
4151,34944
4152,35136
4153,35200
4154,35200
4155,35136
4156,34944
4157,34816
4158,34688
4159,34624
4160,34432
4161,34176
4162,33920
4163,33664
4164,33536
4165,33408
4166,33344
4167,33344
4168,33408
4169,33472
4170,33536
4171,33600
4172,33664
4173,33664
4174,33664
4175,33728
4176,33792
4177,33792
4178,33792
4179,33856
4180,34240
4181,34880
4182,35712
4183,37056
4184,39104
4185,40512
4186,41216
4187,40704
4188,39232
4189,36992
4190,34496
4191,32192
4192,30528
4193,29696
4194,29632
4195,30080
4196,30848
4197,31680
4198,32256
4199,32768
4200,33024
4201,33280
4202,33408
4203,33472
4204,33536
4205,33536
4206,33600
4207,33600
4208,33600
4209,33664
4210,33728
4211,33792
4212,33792
4213,33856
4214,33920
4215,33984
4216,33984
4217,33984
4218,33984
4219,33984
4220,33920
4221,33920
4222,33984
4223,33984
4224,33984
4225,33984
4226,34048
4227,34112
4228,34112
4229,34176
4230,34240
4231,34304
4232,34368
4233,34368
4234,34432
4235,34496
4236,34496
4237,34560
4238,34624
4239,34688
4240,34752
4241,34752
4242,34816
4243,34944
4244,35008
4245,34944
4246,34944
4247,35008
4248,35072
4249,35008
4250,35072
4251,35136
4252,35136
4253,35136
4254,35072
4255,35072
4256,35008
4257,34944
4258,34816
4259,34752
4260,34688
4261,34560
4262,34496
4263,34432
4264,34304
4265,34176
4266,33984
4267,33792
4268,33664
4269,33472
4270,33344
4271,33216
4272,33152
4273,33024
4274,32960
4275,32832
4276,32896
4277,32896
4278,32896
4279,32960
4280,33024
4281,33088
4282,33152
4283,33280
4284,33344
4285,33472
4286,33472
4287,33472
4288,33536
4289,33664
4290,33728
4291,33664
4292,33664
4293,33728
4294,33728
4295,33728
4296,33792
4297,33856
4298,33920
4299,33920
4300,33920
4301,33920
4302,33984
4303,33920
4304,33920
4305,33920
4306,33984
4307,33984
4308,33984
4309,34048
4310,34048
4311,34048
4312,34048
4313,34048
4314,34048
4315,33984
4316,33792
4317,33728
4318,33728
4319,33728
4320,33664
4321,33664
4322,33664
4323,33728
4324,33664
4325,33600
4326,33600
4327,33600
4328,33536
4329,33472
4330,33472
4331,33472
4332,33472
4333,33536
4334,33600
4335,33600
4336,33536
4337,33472
4338,33472
4339,33536
4340,33472
4341,33472
4342,33472
4343,33536
4344,33600
4345,33536
4346,33536
4347,33600
4348,33664
4349,33664
4350,33728
4351,33856
4352,33984
4353,34048
4354,34112
4355,34176
4356,34176
4357,34112
4358,33984
4359,33984
4360,33984
4361,33920
4362,33856
4363,33856
4364,33920
4365,33984
4366,33920
4367,33920
4368,33920
4369,33920
4370,33920
4371,33984
4372,34048
4373,34112
4374,34048
4375,34048
4376,34112
4377,34176
4378,34240
4379,34304
4380,34432
4381,34496
4382,34496
4383,34560
4384,34752
4385,34944
4386,35008
4387,35008
4388,34944
4389,34944
4390,34880
4391,34752
4392,34560
4393,34432
4394,34176
4395,33920
4396,33664
4397,33472
4398,33344
4399,33280
4400,33280
4401,33344
4402,33344
4403,33408
4404,33344
4405,33408
4406,33472
4407,33472
4408,33472
4409,33600
4410,33664
4411,33600
4412,33600
4413,33792
4414,34240
4415,34944
4416,36096
4417,37760
4418,39360
4419,40000
4420,39232
4421,37632
4422,35712
4423,33792
4424,32128
4425,30912
4426,30144
4427,30016
4428,30336
4429,30976
4430,31808
4431,32512
4432,33024
4433,33408
4434,33664
4435,33792
4436,33792
4437,33792
4438,33728
4439,33728
4440,33728
4441,33728
4442,33728
4443,33856
4444,33920
4445,33920
4446,33920
4447,33920
4448,33920
4449,33920
4450,33920
4451,33920
4452,33984
4453,34048
4454,34112
4455,34176
4456,34176
4457,34176
4458,34176
4459,34176
4460,34176
4461,34240
4462,34240
4463,34368
4464,34432
4465,34496
4466,34496
4467,34560
4468,34560
4469,34624
4470,34560
4471,34560
4472,34624
4473,34688
4474,34688
4475,34752
4476,34752
4477,34816
4478,34880
4479,34816
4480,34880
4481,34880
4482,34880
4483,34880
4484,34944
4485,34944
4486,35008
4487,34944
4488,34880
4489,34880
4490,34816
4491,34752
4492,34752
4493,34752
4494,34752
4495,34688
4496,34560
4497,34496
4498,34304
4499,34112
4500,33920
4501,33792
4502,33600
4503,33472
4504,33344
4505,33280
4506,33216
4507,33088
4508,33024
4509,33088
4510,33088
4511,33088
4512,33088
4513,33152
4514,33216
4515,33280
4516,33344
4517,33408
4518,33472
4519,33536
4520,33536
4521,33408
4522,33344
4523,33344
4524,33280
4525,33280
4526,33280
4527,33408
4528,33408
4529,33472
4530,33600
4531,33728
4532,33792
4533,33728
4534,33792
4535,33792
4536,33792
4537,33664
4538,33664
4539,33664
4540,33728
4541,33728
4542,33728
4543,33728
4544,33728
4545,33728
4546,33728
4547,33728
4548,33792
4549,33728
4550,33728
4551,33728
4552,33792
4553,33792
4554,33792
4555,33792
4556,33792
4557,33792
4558,33728
4559,33728
4560,33792
4561,33792
4562,33792
4563,33792
4564,33792
4565,33792
4566,33792
4567,33728
4568,33792
4569,33856
4570,33856
4571,33920
4572,33984
4573,33920
4574,33920
4575,33856
4576,33856
4577,33920
4578,33856
4579,33856
4580,33920
4581,33920
4582,33984
4583,33920
4584,33984
4585,33984
4586,33984
4587,33920
4588,33984
4589,33984
4590,33984
4591,33856
4592,33856
4593,33920
4594,33984
4595,33984
4596,34048
4597,34112
4598,34240
4599,34368
4600,34432
4601,34496
4602,34688
4603,34880
4604,34944
4605,34944
4606,34944
4607,34944
4608,34880
4609,34816
4610,34752
4611,34560
4612,34240
4613,33984
4614,33728
4615,33472
4616,33280
4617,33152
4618,33152
4619,33216
4620,33216
4621,33216
4622,33216
4623,33344
4624,33344
4625,33408
4626,33472
4627,33536
4628,33536
4629,33472
4630,33472
4631,33728
4632,34112
4633,34752
4634,35840
4635,37504
4636,39168
4637,40000
4638,39680
4639,38272
4640,36352
4641,34368
4642,32512
4643,31168
4644,30208
4645,29824
4646,29952
4647,30592
4648,31360
4649,32064
4650,32640
4651,33024
4652,33344
4653,33472
4654,33536
4655,33664
4656,33728
4657,33728
4658,33728
4659,33728
4660,33728
4661,33728
4662,33728
4663,33728
4664,33856
4665,33856
4666,33856
4667,33856
4668,33920
4669,33984
4670,34048
4671,34048
4672,34112
4673,34112
4674,34112
4675,34048
4676,34048
4677,34112
4678,34176
4679,34240
4680,34304
4681,34368
4682,34368
4683,34368
4684,34432
4685,34496
4686,34496
4687,34496
4688,34560
4689,34688
4690,34752
4691,34816
4692,34816
4693,34880
4694,34944
4695,35008
4696,35072
4697,35072
4698,35136
4699,35136
4700,35072
4701,35136
4702,35136
4703,35072
4704,35072
4705,35008
4706,35008
4707,34944
4708,34880
4709,34816
4710,34816
4711,34688
4712,34496
4713,34432
4714,34304
4715,34176
4716,33984
4717,33792
4718,33664
4719,33536
4720,33344
4721,33152
4722,33088
4723,33024
4724,32896
4725,32768
4726,32768
4727,32768
4728,32704
4729,32704
4730,32704
4731,32832
4732,32896
4733,32896
4734,32896
4735,32960
4736,33088
4737,33152
4738,33152
4739,33280
4740,33280
4741,33344
4742,33408
4743,33536
4744,33600
4745,33664
4746,33728
4747,33728
4748,33664
4749,33600
4750,33600
4751,33664
4752,33728
4753,33728
4754,33728
4755,33728
4756,33728
4757,33728
4758,33664
4759,33728
4760,33856
4761,33856
4762,33792
4763,33792
4764,33792
4765,33792
4766,33728
4767,33792
4768,33856
4769,33856
4770,33856
4771,33920
4772,33984
4773,33920
4774,33856
4775,33792
4776,33792
4777,33856
4778,33856
4779,33856
4780,33920
4781,33984
4782,34048
4783,33984
4784,33984
4785,34048
4786,34048
4787,33984
4788,34048
4789,34112
4790,34176
4791,34176
4792,34240
4793,34240
4794,34240
4795,34176
4796,34112
4797,34176
4798,34304
4799,34240
4800,34240
4801,34240
4802,34304
4803,34240
4804,34112
4805,34048
4806,34048
4807,34048
4808,33920
4809,33920
4810,33984
4811,33984
4812,34048
4813,34048
4814,34048
4815,34112
4816,34048
4817,34048
4818,34112
4819,34176
4820,34112
4821,34112
4822,34176
4823,34304
4824,34304
4825,34368
4826,34496
4827,34624
4828,34752
4829,34752
4830,34816
4831,34944
4832,35072
4833,35136
4834,35136
4835,35136
4836,35136
4837,35072
4838,35008
4839,34944
4840,34816
4841,34624
4842,34304
4843,34048
4844,33856
4845,33664
4846,33536
4847,33536
4848,33600
4849,33600
4850,33600
4851,33600
4852,33728
4853,33728
4854,33792
4855,33856
4856,33920
4857,33920
4858,33856
4859,33856
4860,34112
4861,34432
4862,35008
4863,36032
4864,37632
4865,39552
4866,40960
4867,41344
4868,40512
4869,38656
4870,36224
4871,33728
4872,31680
4873,30400
4874,29760
4875,29824
4876,30400
4877,31232
4878,32000
4879,32576
4880,33024
4881,33408
4882,33600
4883,33664
4884,33728
4885,33856
4886,33856
4887,33856
4888,33920
4889,33984
4890,34048
4891,34048
4892,34048
4893,34048
4894,34112
4895,34176
4896,34176
4897,34240
4898,34304
4899,34304
4900,34304
4901,34304
4902,34368
4903,34368
4904,34368
4905,34432
4906,34560
4907,34624
4908,34624
4909,34624
4910,34688
4911,34752
4912,34752
4913,34752
4914,34816
4915,34816
4916,34816
4917,34880
4918,34944
4919,35072
4920,35072
4921,35072
4922,35072
4923,35072
4924,35008
4925,35008
4926,35072
4927,35200
4928,35200
4929,35200
4930,35264
4931,35456
4932,35584
4933,35648
4934,35584
4935,35584
4936,35584
4937,35456
4938,35392
4939,35392
4940,35328
4941,35200
4942,35008
4943,34880
4944,34752
4945,34496
4946,34304
4947,34176
4948,34048
4949,33856
4950,33664
4951,33536
4952,33408
4953,33344
4954,33216
4955,33088
4956,33024
4957,32960
4958,32960
4959,33088
4960,33088
4961,33344
4962,33472
4963,33600
4964,33536
4965,33728
4966,33792
4967,33856
4968,33856
4969,33856
4970,33920
4971,34048
4972,34176
4973,34176
4974,34112
4975,34048
4976,34240
4977,34304
4978,34368
4979,34304
4980,34432
4981,34304
4982,34176
4983,34176
4984,34304
4985,34368
4986,34368
4987,34304
4988,34240
4989,34240
4990,34240
4991,34240
4992,34240
4993,34304
4994,34368
4995,34432
4996,34432
4997,34432
4998,34368
4999,34304
5000,34304
5001,34368
5002,34304
5003,34176
5004,34112
5005,34240
5006,34240
5007,34240
5008,34240
5009,34176
5010,34304
5011,34368
5012,34368
5013,34304
5014,34304
5015,34240
5016,34240
5017,34304
5018,34368
5019,34368
5020,34304
5021,34176
5022,34112
5023,34176
5024,34112
5025,34112
5026,34240
5027,34304
5028,34240
5029,34240
5030,34304
5031,34304
5032,34304
5033,34368
5034,34496
5035,34432
5036,34432
5037,34368
5038,34304
5039,34240
5040,34176
5041,34176
5042,34176
5043,34176
5044,34176
5045,34176
5046,34240
5047,34240
5048,34176
5049,34176
5050,34240
5051,34432
5052,34432
5053,34368
5054,34304
5055,34240
5056,34304
5057,34240
5058,34240
5059,34368
5060,34432
5061,34432
5062,34560
5063,34624
5064,34752
5065,34688
5066,34624
5067,34816
5068,35072
5069,35136
5070,35072
5071,35072
5072,35072
5073,34944
5074,34816
5075,34688
5076,34624
5077,34432
5078,34176
5079,33792
5080,33728
5081,33472
5082,33280
5083,33216
5084,33280
5085,33344
5086,33472
5087,33600
5088,33792
5089,33856
5090,33856
5091,33792
5092,33792
5093,33792
5094,33728
5095,33728
5096,33984
5097,34432
5098,35200
5099,36352
5100,38144
5101,40000
5102,41024
5103,40960
5104,39936
5105,37952
5106,35520
5107,32960
5108,31040
5109,29952
5110,29568
5111,29824
5112,30528
5113,31296
5114,32000
5115,32448
5116,32704
5117,32960
5118,33024
5119,33088
5120,33024
5121,33152
5122,33280
5123,33408
5124,33408
5125,33472
5126,33536
5127,33472
5128,33472
5129,33536
5130,33728
5131,33792
5132,33792
5133,33792
5134,33728
5135,33728
5136,33664
5137,33792
5138,33920
5139,33984
5140,33920
5141,33920
5142,33920
5143,34048
5144,34112
5145,34176
5146,34176
5147,34176
5148,34112
5149,34048
5150,34176
5151,34368
5152,34432
5153,34496
5154,34496
5155,34560
5156,34560
5157,34496
5158,34560
5159,34752
5160,34816
5161,34816
5162,34816
5163,35008
5164,35072
5165,35072
5166,35072
5167,35072
5168,35008
5169,34816
5170,34752
5171,34816
5172,34944
5173,34944
5174,34816
5175,34816
5176,34816
5177,34752
5178,34560
5179,34432
5180,34432
5181,34304
5182,34112
5183,33856
5184,33664
5185,33472
5186,33344
5187,33216
5188,33152
5189,33088
5190,32960
5191,32896
5192,32896
5193,32896
5194,32832
5195,32832
5196,32960
5197,33088
5198,33088
5199,33024
5200,32960
5201,33024
5202,33152
5203,33280
5204,33408
5205,33536
5206,33536
5207,33536
5208,33600
5209,33600
5210,33664
5211,33664
5212,33728
5213,33728
5214,33792
5215,33792
5216,33792
5217,33792
5218,33856
5219,33792
5220,33728
5221,33792
5222,33856
5223,33984
5224,33920
5225,33920
5226,33920
5227,33920
5228,33920
5229,33856
5230,33792
5231,33728
5232,33664
5233,33664
5234,33728
5235,33728
5236,33792
5237,33856
5238,33984
5239,33920
5240,33792
5241,33664
5242,33728
5243,33856
5244,33856
5245,33728
5246,33664
5247,33664
5248,33728
5249,33792
5250,33728
5251,33728
5252,33600
5253,33536
5254,33600
5255,33792
5256,33792
5257,33728
5258,33664
5259,33664
5260,33664
5261,33664
5262,33536
5263,33536
5264,33664
5265,33792
5266,33856
5267,33856
5268,33856
5269,33728
5270,33600
5271,33664
5272,33792
5273,33792
5274,33728
5275,33728
5276,33728
5277,33792
5278,33792
5279,33856
5280,33920
5281,33984
5282,33984
5283,34048
5284,34176
5285,34304
5286,34304
5287,34496
5288,34688
5289,34752
5290,34624
5291,34496
5292,34432
5293,34368
5294,34240
5295,34112
5296,33920
5297,33728
5298,33472
5299,33280
5300,33216
5301,33152
5302,33088
5303,32896
5304,32896
5305,33024
5306,33152
5307,33152
5308,33088
5309,33152
5310,33216
5311,33344
5312,33472
5313,33472
5314,33408
5315,33408
5316,33664
5317,34240
5318,35072
5319,36416
5320,38080
5321,39296
5322,39552
5323,38528
5324,36672
5325,34816
5326,33024
5327,31488
5328,30336
5329,29760
5330,29760
5331,30272
5332,30976
5333,31744
5334,32640
5335,33088
5336,33408
5337,33536
5338,33664
5339,33792
5340,33792
5341,33664
5342,33664
5343,33792
5344,33920
5345,33856
5346,33856
5347,33984
5348,33984
5349,33920
5350,33920
5351,33984
5352,33920
5353,33792
5354,33792
5355,33856
5356,34048
5357,34176
5358,34240
5359,34240
5360,34240
5361,34240
5362,34304
5363,34368
5364,34496
5365,34560
5366,34560
5367,34624
5368,34688
5369,34752
5370,34688
5371,34688
5372,34816
5373,34816
5374,34688
5375,34624
5376,34752
5377,34880
5378,35008
5379,35136
5380,35136
5381,35136
5382,35008
5383,34944
5384,34944
5385,34880
5386,34880
5387,34816
5388,34880
5389,35072
5390,35136
5391,35136
5392,35072
5393,35008
5394,34880
5395,34752
5396,34688
5397,34624
5398,34560
5399,34432
5400,34240
5401,34176
5402,34112
5403,33984
5404,33920
5405,33856
5406,33792
5407,33664
5408,33600
5409,33664
5410,33600
5411,33472
5412,33408
5413,33408
5414,33408
5415,33408
5416,33344
5417,33408
5418,33472
5419,33472
5420,33344
5421,33408
5422,33664
5423,33920
5424,34048
5425,34112
5426,34176
5427,34240
5428,34176
5429,34176
5430,34304
5431,34432
5432,34368
5433,34368
5434,34432
5435,34432
5436,34432
5437,34432
5438,34432
5439,34496
5440,34496
5441,34432
5442,34432
5443,34368
5444,34368
5445,34304
5446,34240
5447,34176
5448,34048
5449,33984
5450,33984
5451,34048
5452,34048
5453,33984
5454,33984
5455,34048
5456,34112
5457,34176
5458,34240
5459,34304
5460,34240
5461,34176
5462,34112
5463,34240
5464,34304
5465,34368
5466,34304
5467,34304
5468,34368
5469,34368
5470,34304
5471,34368
5472,34432
5473,34496
5474,34368
5475,34240
5476,34240
5477,34304
5478,34368
5479,34496
5480,34688
5481,34816
5482,34816
5483,34880
5484,35008
5485,35072
5486,35072
5487,35264
5488,35456
5489,35584
5490,35520
5491,35456
5492,35456
5493,35392
5494,35200
5495,34944
5496,34688
5497,34624
5498,34496
5499,34304
5500,34048
5501,33856
5502,33728
5503,33728
5504,33728
5505,33856
5506,33920
5507,33984
5508,33984
5509,34112
5510,34176
5511,34176
5512,34112
5513,34176
5514,34176
5515,34112
5516,34176
5517,34496
5518,35072
5519,36032
5520,37376
5521,38848
5522,39488
5523,39168
5524,37952
5525,36352
5526,34752
5527,33216
5528,32000
5529,31104
5530,30784
5531,30912
5532,31424
5533,32128
5534,32960
5535,33536
5536,33920
5537,34048
5538,34176
5539,34176
5540,34240
5541,34240
5542,34240
5543,34304
5544,34240
5545,34176
5546,34176
5547,34176
5548,34240
5549,34240
5550,34240
5551,34240
5552,34240
5553,34240
5554,34240
5555,34304
5556,34304
5557,34304
5558,34304
5559,34368
5560,34368
5561,34368
5562,34304
5563,34368
5564,34496
5565,34560
5566,34560
5567,34560
5568,34624
5569,34624
5570,34624
5571,34688
5572,34752
5573,34880
5574,34880
5575,34880
5576,34944
5577,34944
5578,34944
5579,34944
5580,34944
5581,34944
5582,35008
5583,35008
5584,35072
5585,35200
5586,35200
5587,35200
5588,35200
5589,35200
5590,35072
5591,35008
5592,35008
5593,35008
5594,35008
5595,34944
5596,34944
5597,34944
5598,34816
5599,34688
5600,34496
5601,34432
5602,34304
5603,34176
5604,34048
5605,33920
5606,33792
5607,33664
5608,33536
5609,33536
5610,33536
5611,33472
5612,33408
5613,33472
5614,33536
5615,33536
5616,33536
5617,33600
5618,33664
5619,33792
5620,33728
5621,33664
5622,33728
5623,33856
5624,33984
5625,34048
5626,34112
5627,34112
5628,34112
5629,34240
5630,34368
5631,34432
5632,34432
5633,34368
5634,34368
5635,34432
5636,34368
5637,34368
5638,34368
5639,34432
5640,34432
5641,34368
5642,34304
5643,34240
5644,34304
5645,34304
5646,34368
5647,34368
5648,34368
5649,34240
5650,34176
5651,34240
5652,34240
5653,34176
5654,34176
5655,34176
5656,34176
5657,34112
5658,34112
5659,34112
5660,34112
5661,34048
5662,33984
5663,34048
5664,34112
5665,34112
5666,34048
5667,34176
5668,34240
5669,34304
5670,34240
5671,34240
5672,34368
5673,34368
5674,34368
5675,34304
5676,34368
5677,34432
5678,34368
5679,34304
5680,34240
5681,34240
5682,34240
5683,34176
5684,34240
5685,34432
5686,34496
5687,34496
5688,34560
5689,34624
5690,34688
5691,34752
5692,34816
5693,34880
5694,34944
5695,35072
5696,35200
5697,35328
5698,35328
5699,35264
5700,35200
5701,35200
5702,35136
5703,34944
5704,34816
5705,34688
5706,34496
5707,34304
5708,34048
5709,33856
5710,33728
5711,33664
5712,33600
5713,33664
5714,33792
5715,33856
5716,33856
5717,33920
5718,34048
5719,34048
5720,34048
5721,34112
5722,34176
5723,34304
5724,34688
5725,35136
5726,35904
5727,37120
5728,38848
5729,40576
5730,41536
5731,41344
5732,39936
5733,37696
5734,35328
5735,33088
5736,31360
5737,30400
5738,30208
5739,30592
5740,31296
5741,32064
5742,32768
5743,33280
5744,33664
5745,33792
5746,33920
5747,33984
5748,34048
5749,34048
5750,34048
5751,34176
5752,34240
5753,34176
5754,34176
5755,34240
5756,34368
5757,34368
5758,34432
5759,34496
5760,34496
5761,34496
5762,34496
5763,34624
5764,34688
5765,34688
5766,34688
5767,34752
5768,34816
5769,34816
5770,34752
5771,34752
5772,34816
5773,34816
5774,34816
5775,34880
5776,34944
5777,35072
5778,35008
5779,35072
5780,35072
5781,35200
5782,35200
5783,35264
5784,35328
5785,35392
5786,35456
5787,35456
5788,35520
5789,35584
5790,35648
5791,35584
5792,35584
5793,35648
5794,35712
5795,35648
5796,35648
5797,35712
5798,35648
5799,35584
5800,35520
5801,35520
5802,35456
5803,35392
5804,35264
5805,35200
5806,35136
5807,34944
5808,34752
5809,34624
5810,34432
5811,34240
5812,34048
5813,33920
5814,33792
5815,33664
5816,33472
5817,33408
5818,33408
5819,33408
5820,33344
5821,33344
5822,33472
5823,33472
5824,33472
5825,33536
5826,33600
5827,33664
5828,33664
5829,33728
5830,33792
5831,33856
5832,33920
5833,33920
5834,33984
5835,34048
5836,34048
5837,34048
5838,34112
5839,34240
5840,34240
5841,34176
5842,34240
5843,34304
5844,34304
5845,34240
5846,34240
5847,34304
5848,34368
5849,34368
5850,34368
5851,34368
5852,34432
5853,34368
5854,34304
5855,34304
5856,34368
5857,34304
5858,34304
5859,34368
5860,34304
5861,34240
5862,34176
5863,34176
5864,34240
5865,34240
5866,34176
5867,34176
5868,34240
5869,34240
5870,34176
5871,34176
5872,34240
5873,34240
5874,34240
5875,34240
5876,34304
5877,34304
5878,34304
5879,34304
5880,34304
5881,34304
5882,34240
5883,34176
5884,34176
5885,34176
5886,34176
5887,34176
5888,34240
5889,34304
5890,34240
5891,34176
5892,34176
5893,34240
5894,34240
5895,34176
5896,34176
5897,34240
5898,34304
5899,34240
5900,34176
5901,34176
5902,34240
5903,34240
5904,34240
5905,34240
5906,34304
5907,34304
5908,34368
5909,34496
5910,34624
5911,34624
5912,34624
5913,34752
5914,34880
5915,35008
5916,35072
5917,35072
5918,35072
5919,34944
5920,34880
5921,34752
5922,34752
5923,34624
5924,34368
5925,34112
5926,33920
5927,33792
5928,33600
5929,33472
5930,33408
5931,33472
5932,33472
5933,33408
5934,33536
5935,33600
5936,33600
5937,33536
5938,33600
5939,33664
5940,33664
5941,33664
5942,33664
5943,33856
5944,34176
5945,34624
5946,35520
5947,36928
5948,38784
5949,40448
5950,41280
5951,41024
5952,39680
5953,37440
5954,34944
5955,32576
5956,30912
5957,29888
5958,29632
5959,30080
5960,30848
5961,31616
5962,32192
5963,32704
5964,33216
5965,33280
5966,33408
5967,33472
5968,33536
5969,33600
5970,33600
5971,33600
5972,33664
5973,33792
5974,33792
5975,33792
5976,33920
5977,33984
5978,33920
5979,33920
5980,33920
5981,33984
5982,33984
5983,33984
5984,34048
5985,34112
5986,34112
5987,34112
5988,34176
5989,34304
5990,34368
5991,34368
5992,34368
5993,34432
5994,34496
5995,34432
5996,34432
5997,34560
5998,34560
5999,34560
6000,34560
6001,34624
6002,34688
6003,34688
6004,34688
6005,34816
6006,34880
6007,34880
6008,34880
6009,34944
6010,35072
6011,35136
6012,35072
6013,35072
6014,35072
6015,35008
6016,35008
6017,35008
6018,35072
6019,35072
6020,35008
6021,34880
6022,34880
6023,34752
6024,34560
6025,34432
6026,34368
6027,34240
6028,34048
6029,33920
6030,33728
6031,33600
6032,33408
6033,33216
6034,33088
6035,33088
6036,32896
6037,32704
6038,32640
6039,32512
6040,32448
6041,32448
6042,32512
6043,32640
6044,32704
6045,32768
6046,32768
6047,32832
6048,32896
6049,32896
6050,32960
6051,33088
6052,33152
6053,33216
6054,33216
6055,33280
6056,33280
6057,33280
6058,33280
6059,33344
6060,33536
6061,33536
6062,33536
6063,33600
6064,33664
6065,33664
6066,33664
6067,33664
6068,33664
6069,33664
6070,33600
6071,33600
6072,33600
6073,33664
6074,33600
6075,33536
6076,33536
6077,33536
6078,33536
6079,33472
6080,33472
6081,33536
6082,33536
6083,33408
6084,33408
6085,33536
6086,33728
6087,33920
6088,34112
6089,34240
6090,34304
6091,34240
6092,34240
6093,34240
6094,34176
6095,34048
6096,33984
6097,33984
6098,33920
6099,33920
6100,33856
6101,33856
6102,33856
6103,33856
6104,33792
6105,33856
6106,33856
6107,33856
6108,33792
6109,33792
6110,33792
6111,33792
6112,33792
6113,33792
6114,33856
6115,33792
6116,33792
6117,33792
6118,33792
6119,33728
6120,33664
6121,33600
6122,33664
6123,33728
6124,33728
6125,33728
6126,33728
6127,33792
6128,33664
6129,33664
6130,33664
6131,33728
6132,33664
6133,33600
6134,33664
6135,33792
6136,33920
6137,33984
6138,34176
6139,34304
6140,34304
6141,34368
6142,34496
6143,34688
6144,34752
6145,34688
6146,34560
6147,34560
6148,34496
6149,34368
6150,34240
6151,34112
6152,33920
6153,33600
6154,33280
6155,33088
6156,32960
6157,32896
6158,32896
6159,32960
6160,33024
6161,33088
6162,33024
6163,33088
6164,33216
6165,33216
6166,33216
6167,33216
6168,33344
6169,33344
6170,33344
6171,33408
6172,33792
6173,34368
6174,35264
6175,36800
6176,38720
6177,40192
6178,40576
6179,39872
6180,38208
6181,35968
6182,33600
6183,31552
6184,30144
6185,29504
6186,29504
6187,30016
6188,30784
6189,31552
6190,32128
6191,32448
6192,32640
6193,32768
6194,32960
6195,33088
6196,33216
6197,33280
6198,33344
6199,33280
6200,33280
6201,33280
6202,33344
6203,33344
6204,33344
6205,33408
6206,33472
6207,33472
6208,33472
6209,33536
6210,33600
6211,33664
6212,33664
6213,33664
6214,33792
6215,33856
6216,33856
6217,33920
6218,33984
6219,34048
6220,33984
6221,33920
6222,33920
6223,34048
6224,34176
6225,34240
6226,34304
6227,34432
6228,34496
6229,34432
6230,34496
6231,34624
6232,34624
6233,34624
6234,34624
6235,34688
6236,34752
6237,34688
6238,34752
6239,34816
6240,34816
6241,34752
6242,34752
6243,34816
6244,34880
6245,34816
6246,34752
6247,34752
6248,34688
6249,34624
6250,34560
6251,34560
6252,34560
6253,34496
6254,34368
6255,34240
6256,34112
6257,33920
6258,33728
6259,33536
6260,33408
6261,33216
6262,33024
6263,32896
6264,32832
6265,32768
6266,32640
6267,32576
6268,32576
6269,32640
6270,32640
6271,32704
6272,32832
6273,32896
6274,32960
6275,32960
6276,33024
6277,33088
6278,33152
6279,33088
6280,33152
6281,33280
6282,33344
6283,33344
6284,33408
6285,33472
6286,33536
6287,33472
6288,33472
6289,33536
6290,33536
6291,33536
6292,33472
6293,33536
6294,33600
6295,33536
6296,33536
6297,33600
6298,33600
6299,33536
6300,33472
6301,33472
6302,33472
6303,33472
6304,33472
6305,33536
6306,33600
6307,33600
6308,33600
6309,33664
6310,33664
6311,33600
6312,33536
6313,33472
6314,33536
6315,33600
6316,33600
6317,33600
6318,33664
6319,33728
6320,33664
6321,33664
6322,33664
6323,33728
6324,33728
6325,33664
6326,33728
6327,33728
6328,33728
6329,33664
6330,33728
6331,33728
6332,33728
6333,33728
6334,33728
6335,33728
6336,33728
6337,33728
6338,33728
6339,33792
6340,33856
6341,33792
6342,33792
6343,33728
6344,33792
6345,33792
6346,33728
6347,33792
6348,33920
6349,33920
6350,33856
6351,33856
6352,33920
6353,33856
6354,33792
6355,33856
6356,33920
6357,33920
6358,33856
6359,33920
6360,33984
6361,33984
6362,33920
6363,33920
6364,33920
6365,33984
6366,33856
6367,33856
6368,33920
6369,33984
6370,33984
6371,33984
6372,34176
6373,34304
6374,34368
6375,34432
6376,34496
6377,34688
6378,34816
6379,34816
6380,34880
6381,34880
6382,34816
6383,34624
6384,34560
6385,34496
6386,34304
6387,34048
6388,33792
6389,33600
6390,33472
6391,33216
6392,33152
6393,33152
6394,33152
6395,33216
6396,33216
6397,33280
6398,33344
6399,33344
6400,33408
6401,33472
6402,33536
6403,33600
6404,33600
6405,33664
6406,33856
6407,34112
6408,34560
6409,35456
6410,36928
6411,38784
6412,40064
6413,40384
6414,39616
6415,37888
6416,35648
6417,33344
6418,31552
6419,30400
6420,29824
6421,29760
6422,30336
6423,31168
6424,31872
6425,32448
6426,32896
6427,33216
6428,33344
6429,33344
6430,33472
6431,33536
6432,33536
6433,33536
6434,33536
6435,33600
6436,33664
6437,33664
6438,33664
6439,33728
6440,33728
6441,33728
6442,33728
6443,33856
6444,33920
6445,33856
6446,33856
6447,33920
6448,33984
6449,33984
6450,33984
6451,34048
6452,34112
6453,34112
6454,34112
6455,34176
6456,34240
6457,34240
6458,34176
6459,34240
6460,34304
6461,34368
6462,34368
6463,34432
6464,34560
6465,34560
6466,34560
6467,34624
6468,34688
6469,34752
6470,34688
6471,34688
6472,34816
6473,34880
6474,34816
6475,34752
6476,34816
6477,34880
6478,34880
6479,34816
6480,34816
6481,34816
6482,34816
6483,34688
6484,34624
6485,34624
6486,34624
6487,34496
6488,34368
6489,34304
6490,34240
6491,34048
6492,33856
6493,33792
6494,33664
6495,33472
6496,33280
6497,33088
6498,33024
6499,32960
6500,32832
6501,32768
6502,32768
6503,32768
6504,32640
6505,32704
6506,32768
6507,32768
6508,32832
6509,32896
6510,33024
6511,33088
6512,33088
6513,33152
6514,33216
6515,33280
6516,33280
6517,33280
6518,33280
6519,33408
6520,33408
6521,33408
6522,33472
6523,33600
6524,33600
6525,33600
6526,33664
6527,33728
6528,33728
6529,33664
6530,33664
6531,33728
6532,33728
6533,33664
6534,33600
6535,33664
6536,33664
6537,33600
6538,33536
6539,33664
6540,33664
6541,33600
6542,33536
6543,33536
6544,33600
6545,33600
6546,33536
6547,33600
6548,33664
6549,33664
6550,33600
6551,33664
6552,33728
6553,33728
6554,33664
6555,33664
6556,33664
6557,33728
6558,33664
6559,33664
6560,33664
6561,33664
6562,33664
6563,33728
6564,33792
6565,33792
6566,33728
6567,33664
6568,33728
6569,33792
6570,33792
6571,33792
6572,33856
6573,33920
6574,33856
6575,33792
6576,33792
6577,33856
6578,33856
6579,33792
6580,33792
6581,33856
6582,33792
6583,33792
6584,33792
6585,33856
6586,33856
6587,33792
6588,33792
6589,33856
6590,33856
6591,33792
6592,33792
6593,33792
6594,33856
6595,33920
6596,33920
6597,33984
6598,34112
6599,34112
6600,34176
6601,34240
6602,34304
6603,34304
6604,34432
6605,34624
6606,34752
6607,34816
6608,34816
6609,34752
6610,34688
6611,34560
6612,34432
6613,34176
6614,33984
6615,33792
6616,33536
6617,33280
6618,33152
6619,33152
6620,33152
6621,33088
6622,33152
6623,33216
6624,33216
6625,33216
6626,33216
6627,33344
6628,33408
6629,33472
6630,33536
6631,33536
6632,33472
6633,33536
6634,33792
6635,34368
6636,35328
6637,36800
6638,38528
6639,39552
6640,39424
6641,38144
6642,36224
6643,34304
6644,32512
6645,31232
6646,30336
6647,29952
6648,30144
6649,30656
6650,31360
6651,32064
6652,32704
6653,33088
6654,33344
6655,33536
6656,33664
6657,33728
6658,33728
6659,33728
6660,33792
6661,33856
6662,33792
6663,33792
6664,33792
6665,33856
6666,33856
6667,33856
6668,33856
6669,33920
6670,33920
6671,33920
6672,33920
6673,34048
6674,34048
6675,33984
6676,33984
6677,34048
6678,34112
6679,34048
6680,34112
6681,34176
6682,34240
6683,34240
6684,34240
6685,34304
6686,34304
6687,34304
6688,34304
6689,34368
6690,34496
6691,34496
6692,34496
6693,34560
6694,34624
6695,34624
6696,34560
6697,34624
6698,34688
6699,34752
6700,34752
6701,34816
6702,34880
6703,34816
6704,34752
6705,34752
6706,34752
6707,34752
6708,34688
6709,34624
6710,34688
6711,34688
6712,34688
6713,34624
6714,34624
6715,34624
6716,34496
6717,34368
6718,34240
6719,34112
6720,33920
6721,33664
6722,33536
6723,33472
6724,33280
6725,33152
6726,33088
6727,33024
6728,32960
6729,32896
6730,32896
6731,33024
6732,33024
6733,32960
6734,32960
6735,33024
6736,33088
6737,33088
6738,33152
6739,33280
6740,33408
6741,33408
6742,33408
6743,33472
6744,33536
6745,33536
6746,33600
6747,33664
6748,33792
6749,33792
6750,33728
6751,33792
6752,33856
6753,33856
6754,33792
6755,33792
6756,33792
6757,33792
6758,33728
6759,33664
6760,33728
6761,33728
6762,33664
6763,33600
6764,33664
6765,33664
6766,33600
6767,33600
6768,33600
6769,33664
6770,33600
6771,33600
6772,33600
6773,33664
6774,33664
6775,33664
6776,33664
6777,33664
6778,33664
6779,33728
6780,33792
6781,33728
6782,33664
6783,33600
6784,33664
6785,33728
6786,33664
6787,33664
6788,33664
6789,33728
6790,33728
6791,33664
6792,33728
6793,33728
6794,33728
6795,33664
6796,33728
6797,33728
6798,33728
6799,33664
6800,33664
6801,33664
6802,33664
6803,33600
6804,33664
6805,33664
6806,33792
6807,33728
6808,33728
6809,33728
6810,33664
6811,33664
6812,33600
6813,33664
6814,33728
6815,33664
6816,33664
6817,33728
6818,33792
6819,33792
6820,33792
6821,34048
6822,34176
6823,34240
6824,34240
6825,34432
6826,34624
6827,34688
6828,34624
6829,34624
6830,34560
6831,34496
6832,34432
6833,34304
6834,34176
6835,33984
6836,33664
6837,33408
6838,33280
6839,33152
6840,33088
6841,32960
6842,32960
6843,32960
6844,32960
6845,32960
6846,33088
6847,33216
6848,33280
6849,33280
6850,33216
6851,33408
6852,33408
6853,33408
6854,33600
6855,33600
6856,34752
6857,35904
6858,37568
6859,39360
6860,40384
6861,40128
6862,38784
6863,36736
6864,34368
6865,33984
6866,30656
6867,29696
6868,29376
6869,29696
6870,29696
6871,30400
6872,31872
6873,32384
6874,32768
6875,33024
6876,33216
6877,33280
6878,33280
6879,33344
6880,33408
6881,33472
6882,33408
6883,33472
6884,33536
6885,33600
6886,33536
6887,33536
6888,33600
6889,33664
6890,33600
6891,33600
6892,33664
6893,33728
6894,33728
6895,33792
6896,33856
6897,33920
6898,33920
6899,33920
6900,33984
6901,34048
6902,34048
6903,34048
6904,34048
6905,34112
6906,34176
6907,34176
6908,34176
6909,34240
6910,34304
6911,34304
6912,34368
6913,34432
6914,34560
6915,34560
6916,34560
6917,34560
6918,34624
6919,34624
6920,34624
6921,34688
6922,34752
6923,34816
6924,34752
6925,34752
6926,34816
6927,34816
6928,34752
6929,34752
6930,34752
6931,34688
6932,34624
6933,34624
6934,34560
6935,34496
6936,34304
6937,34176
6938,34112
6939,34048
6940,33856
6941,33600
6942,33408
6943,33280
6944,33088
6945,32960
6946,32768
6947,32768
6948,32640
6949,32576
6950,32640
6951,32704
6952,32704
6953,32704
6954,32704
6955,32768
6956,32896
6957,32896
6958,32960
6959,33088
6960,33152
6961,33216
6962,33216
6963,33344
6964,33408
6965,33472
6966,33472
6967,33536
6968,33664
6969,33664
6970,33600
6971,33600
6972,33664
6973,33728
6974,33792
6975,33792
6976,33792
6977,33792
6978,33664
6979,33664
6980,33728
6981,33728
6982,33728
6983,33664
6984,33728
6985,33728
6986,33728
6987,33664
6988,33664
6989,33664
6990,33600
6991,33600
6992,33664
6993,33792
6994,33792
6995,33728
6996,33728
6997,33728
6998,33728
6999,33664
7000,33664
7001,33664
7002,33728
7003,33664
7004,33728
7005,33728
7006,33792
7007,33792
7008,33728
7009,33728
7010,33792
7011,33728
7012,33728
7013,33728
7014,33792
7015,33792
7016,33728
7017,33792
7018,33792
7019,33792
7020,33792
7021,33792
7022,33856
7023,33856
7024,33792
7025,33792
7026,33856
7027,33856
7028,33792
7029,33792
7030,33792
7031,33856
7032,33792
7033,33792
7034,33792
7035,33856
7036,33856
7037,33792
7038,33792
7039,33856
7040,33856
7041,33792
7042,33856
7043,33920
7044,33920
7045,33856
7046,33856
7047,33920
7048,33920
7049,33856
7050,33856
7051,33856
7052,33920
7053,33856
7054,33856
7055,33920
7056,34048
7057,34112
7058,34176
7059,34240
7060,34368
7061,34368
7062,34368
7063,34496
7064,34752
7065,34816
7066,34752
7067,34752
7068,34816
7069,34752
7070,34624
7071,34496
7072,34432
7073,34176
7074,33920
7075,33664
7076,33536
7077,33344
7078,33216
7079,33152
7080,33152
7081,33216
7082,33152
7083,33216
7084,33280
7085,33408
7086,33408
7087,33408
7088,33408
7089,33536
7090,33536
7091,33536
7092,33664
7093,34112
7094,34688
7095,35584
7096,37056
7097,39040
7098,40512
7099,41024
7100,40384
7101,38720
7102,36416
7103,33856
7104,31616
7105,30208
7106,29568
7107,29504
7108,30016
7109,30848
7110,31616
7111,32192
7112,32640
7113,32960
7114,33152
7115,33280
7116,33344
7117,33408
7118,33472
7119,33472
7120,33472
7121,33536
7122,33600
7123,33600
7124,33600
7125,33600
7126,33664
7127,33728
7128,33728
7129,33792
7130,33856
7131,33984
7132,33984
7133,33984
7134,34048
7135,34112
7136,34112
7137,34048
7138,34176
7139,34240
7140,34304
7141,34240
7142,34240
7143,34304
7144,34368
7145,34368
7146,34432
7147,34560
7148,34560
7149,34624
7150,34624
7151,34688
7152,34752
7153,34752
7154,34752
7155,34816
7156,34880
7157,34880
7158,34880
7159,34944
7160,35008
7161,35072
7162,35008
7163,35072
7164,35136
7165,35072
7166,35072
7167,35008
7168,35072
7169,35008
7170,35008
7171,34944
7172,34880
7173,34816
7174,34624
7175,34496
7176,34368
7177,34240
7178,33984
7179,33792
7180,33664
7181,33536
7182,33344
7183,33152
7184,33088
7185,33024
7186,32896
7187,32768
7188,32704
7189,32768
7190,32768
7191,32768
7192,32768
7193,32896
7194,32960
7195,32960
7196,33024
7197,33088
7198,33152
7199,33152
7200,33152
7201,33280
7202,33344
7203,33344
7204,33408
7205,33408
7206,33472
7207,33472
7208,33472
7209,33600
7210,33664
7211,33664
7212,33600
7213,33664
7214,33728
7215,33728
7216,33664
7217,33728
7218,33792
7219,33792
7220,33728
7221,33728
7222,33792
7223,33792
7224,33728
7225,33664
7226,33664
7227,33728
7228,33664
7229,33664
7230,33664
7231,33664
7232,33664
7233,33600
7234,33600
7235,33664
7236,33664
7237,33600
7238,33600
7239,33728
7240,33664
7241,33664
7242,33728
7243,33728
7244,33728
7245,33664
7246,33664
7247,33728
7248,33792
7249,33728
7250,33728
7251,33792
7252,33856
7253,33856
7254,33792
7255,33856
7256,33856
7257,33856
7258,33856
7259,33920
7260,33920
7261,33920
7262,33920
7263,33920
7264,33984
7265,33984
7266,33920
7267,33920
7268,33920
7269,33920
7270,33856
7271,33856
7272,33856
7273,33920
7274,33856
7275,33856
7276,33920
7277,33920
7278,33920
7279,33856
7280,33920
7281,33920
7282,33856
7283,33856
7284,33856
7285,33920
7286,33920
7287,33920
7288,33920
7289,33984
7290,33920
7291,33856
7292,33856
7293,33920
7294,33920
7295,33920
7296,33920
7297,33984
7298,33984
7299,33984
7300,33984
7301,34112
7302,34240
7303,34304
7304,34304
7305,34368
7306,34432
7307,34496
7308,34624
7309,34816
7310,34944
7311,34944
7312,34880
7313,34816
7314,34752
7315,34688
7316,34496
7317,34368
7318,34176
7319,33984
7320,33664
7321,33408
7322,33280
7323,33280
7324,33216
7325,33216
7326,33280
7327,33344
7328,33408
7329,33408
7330,33472
7331,33536
7332,33600
7333,33600
7334,33600
7335,33664
7336,33664
7337,33792
7338,34112
7339,34752
7340,35712
7341,37184
7342,39104
7343,40640
7344,41088
7345,40384
7346,38656
7347,36352
7348,33920
7349,31744
7350,30272
7351,29632
7352,29760
7353,30272
7354,31040
7355,31744
7356,32320
7357,32704
7358,32896
7359,33088
7360,33280
7361,33344
7362,33344
7363,33408
7364,33472
7365,33536
7366,33472
7367,33536
7368,33600
7369,33664
7370,33664
7371,33728
7372,33792
7373,33856
7374,33856
7375,33920
7376,33984
7377,34048
7378,34048
7379,34048
7380,34112
7381,34112
7382,34112
7383,34112
7384,34112
7385,34176
7386,34176
7387,34176
7388,34176
7389,34240
7390,34304
7391,34240
7392,34304
7393,34432
7394,34496
7395,34496
7396,34496
7397,34624
7398,34688
7399,34688
7400,34688
7401,34752
7402,34880
7403,34880
7404,34944
7405,35008
7406,35136
7407,35136
7408,35072
7409,35072
7410,35072
7411,35072
7412,35008
7413,35008
7414,35008
7415,35008
7416,34880
7417,34816
7418,34816
7419,34688
7420,34496
7421,34368
7422,34240
7423,34048
7424,33856
7425,33664
7426,33472
7427,33408
7428,33216
7429,33088
7430,33024
7431,32960
7432,32896
7433,32768
7434,32832
7435,32832
7436,32832
7437,32768
7438,32832
7439,32960
7440,33024
7441,33024
7442,33024
7443,33152
7444,33216
7445,33280
7446,33344
7447,33472
7448,33536
7449,33472
7450,33472
7451,33536
7452,33600
7453,33600
7454,33664
7455,33728
7456,33792
7457,33792
7458,33728
7459,33728
7460,33792
7461,33792
7462,33792
7463,33792
7464,33856
7465,33856
7466,33856
7467,33792
7468,33792
7469,33792
7470,33664
7471,33600
7472,33600
7473,33664
7474,33664
7475,33600
7476,33664
7477,33664
7478,33664
7479,33600
7480,33600
7481,33664
7482,33664
7483,33664
7484,33664
7485,33728
7486,33728
7487,33728
7488,33728
7489,33728
7490,33792
7491,33792
7492,33792
7493,33856
7494,33856
7495,33792
7496,33792
7497,33792
7498,33856
7499,33856
7500,33856
7501,33856
7502,33920
7503,33856
7504,33792
7505,33792
7506,33856
7507,33792
7508,33792
7509,33856
7510,33856
7511,33856
7512,33856
7513,33920
7514,33984
7515,33984
7516,33920
7517,33920
7518,33984
7519,33984
7520,33984
7521,33984
7522,33984
7523,33984
7524,33920
7525,33920
7526,33984
7527,33984
7528,33984
7529,33920
7530,33984
7531,34048
7532,33984
7533,33920
7534,33920
7535,33920
7536,33920
7537,33856
7538,33920
7539,33984
7540,34048
7541,33984
7542,33984
7543,33984
7544,33984
7545,33984
7546,33920
7547,33984
7548,34112
7549,34112
7550,34112
7551,34176
7552,34240
7553,34304
7554,34368
7555,34368
7556,34496
7557,34560
7558,34688
7559,34880
7560,34944
7561,34944
7562,34816
7563,34752
7564,34688
7565,34624
7566,34432
7567,34112
7568,33920
7569,33664
7570,33408
7571,33216
7572,33152
7573,33152
7574,33152
7575,33152
7576,33216
7577,33344
7578,33344
7579,33344
7580,33408
7581,33472
7582,33536
7583,33472
7584,33472
7585,33536
7586,33664
7587,33920
7588,34432
7589,35328
7590,36736
7591,38528
7592,39808
7593,40128
7594,39168
7595,37376
7596,35264
7597,33280
7598,31616
7599,30464
7600,29888
7601,29952
7602,30464
7603,31168
7604,31808
7605,32512
7606,32896
7607,33152
7608,33280
7609,33408
7610,33472
7611,33536
7612,33536
7613,33536
7614,33664
7615,33728
7616,33728
7617,33728
7618,33792
7619,33792
7620,33728
7621,33728
7622,33792
7623,33856
7624,33856
7625,33856
7626,33856
7627,33920
7628,33920
7629,33920
7630,33984
7631,34048
7632,34048
7633,34048
7634,34112
7635,34176
7636,34240
7637,34176
7638,34240
7639,34304
7640,34368
7641,34368
7642,34368
7643,34432
7644,34560
7645,34560
7646,34560
7647,34688
7648,34688
7649,34752
7650,34752
7651,34752
7652,34816
7653,34816
7654,34816
7655,34816
7656,34880
7657,34880
7658,34816
7659,34880
7660,34880
7661,34880
7662,34880
7663,34816
7664,34816
7665,34816
7666,34752
7667,34688
7668,34624
7669,34560
7670,34432
7671,34304
7672,34176
7673,34048
7674,33856
7675,33600
7676,33472
7677,33408
7678,33280
7679,33088
7680,32960
7681,32896
7682,32832
7683,32768
7684,32768
7685,32896
7686,32896
7687,32896
7688,32896
7689,33024
7690,33088
7691,33088
7692,33088
7693,33216
7694,33344
7695,33344
7696,33344
7697,33472
7698,33600
7699,33600
7700,33664
7701,33728
7702,33792
7703,33792
7704,33792
7705,33792
7706,33792
7707,33792
7708,33728
7709,33728
7710,33792
7711,33792
7712,33792
7713,33792
7714,33856
7715,33856
7716,33792
7717,33728
7718,33792
7719,33792
7720,33728
7721,33664
7722,33664
7723,33664
7724,33664
7725,33728
7726,33728
7727,33792
7728,33728
7729,33664
7730,33664
7731,33728
7732,33728
7733,33664
7734,33728
7735,33792
7736,33856
7737,33792
7738,33792
7739,33856
7740,33856
7741,33792
7742,33728
7743,33792
7744,33856
7745,33856
7746,33856
7747,33856
7748,33856
7749,33792
7750,33792
7751,33728
7752,33792
7753,33792
7754,33792
7755,33792
7756,33856
7757,33856
7758,33792
7759,33792
7760,33856
7761,33856
7762,33792
7763,33792
7764,33856
7765,33920
7766,33856
7767,33792
7768,33856
7769,33856
7770,33792
7771,33728
7772,33792
7773,33856
7774,33856
7775,33792
7776,33856
7777,33920
7778,33920
7779,33920
7780,33920
7781,34048
7782,34176
7783,34304
7784,34368
7785,34432
7786,34560
7787,34688
7788,34816
7789,34880
7790,34880
7791,34752
7792,34688
7793,34624
7794,34560
7795,34368
7796,34176
7797,33984
7798,33792
7799,33536
7800,33280
7801,33152
7802,33152
7803,33088
7804,33088
7805,33152
7806,33280
7807,33344
7808,33408
7809,33472
7810,33536
7811,33536
7812,33536
7813,33472
7814,33536
7815,33664
7816,33856
7817,34304
7818,35072
7819,36352
7820,38080
7821,39552
7822,40192
7823,39616
7824,37248
7825,35776
7826,33856
7827,32128
7828,30784
7829,30016
7830,29824
7831,30272
7832,30976
7833,31680
7834,32320
7835,32832
7836,33152
7837,33344
7838,33472
7839,33600
7840,33664
7841,33664
7842,33664
7843,33664
7844,33728
7845,33792
7846,33792
7847,33792
7848,33856
7849,33856
7850,33856
7851,33856
7852,33920
7853,33920
7854,33984
7855,33984
7856,34048
7857,34112
7858,34112
7859,34176
7860,34240
7861,34240
7862,34112
7863,34112
7864,34176
7865,34240
7866,34240
7867,34240
7868,34304
7869,34432
7870,34432
7871,34432
7872,34560
7873,34624
7874,34688
7875,34624
7876,34688
7877,34752
7878,34816
7879,34816
7880,34816
7881,34944
7882,35008
7883,34944
7884,34944
7885,35008
7886,35072
7887,35008
7888,35008
7889,35008
7890,35008
7891,34944
7892,34944
7893,34944
7894,34944
7895,34880
7896,34752
7897,34688
7898,34624
7899,34368
7900,34240
7901,34176
7902,34048
7903,33856
7904,33600
7905,33472
7906,33408
7907,33280
7908,33088
7909,32960
7910,32896
7911,32832
7912,32768
7913,32704
7914,32768
7915,32768
7916,32768
7917,32768
7918,32896
7919,33024
7920,33024
7921,33024
7922,33088
7923,33216
7924,33280
7925,33344
7926,33472
7927,33536
7928,33536
7929,33536
7930,33600
7931,33664
7932,33664
7933,33664
7934,33664
7935,33792
7936,33856
7937,33856
7938,33792
7939,33856
7940,33856
7941,33792
7942,33792
7943,33792
7944,33856
7945,33792
7946,33728
7947,33664
7948,33728
7949,33792
7950,33728
7951,33728
7952,33728
7953,33728
7954,33728
7955,33664
7956,33728
7957,33792
7958,33728
7959,33728
7960,33728
7961,33792
7962,33728
7963,33728
7964,33792
7965,33856
7966,33856
7967,33856
7968,33856
7969,33920
7970,33856
7971,33792
7972,33792
7973,33856
7974,33792
7975,33792
7976,33792
7977,33856
7978,33856
7979,33792
7980,33792
7981,33856
7982,33920
7983,33920
7984,33856
7985,33920
7986,33920
7987,33856
7988,33792
7989,33856
7990,33856
7991,33792
7992,33792
7993,33856
7994,33920
7995,33920
7996,33792
7997,33856
7998,33920
7999,33856
8000,33792
8001,33792
8002,33856
8003,33920
8004,33920
8005,33920
8006,34048
8007,33984
8008,33984
8009,33984
8010,33984
8011,33984
8012,33920
8013,33856
8014,33920
8015,33920
8016,33920
8017,33856
8018,33920
8019,33984
8020,33984
8021,33920
8022,33920
8023,33984
8024,33920
8025,33920
8026,33984
8027,34112
8028,34176
8029,34240
8030,34304
8031,34432
8032,34496
8033,34496
8034,34688
8035,34752
8036,34816
8037,34752
8038,34752
8039,34752
8040,34688
8041,34624
8042,34368
8043,34176
8044,34048
8045,33792
8046,33536
8047,33344
8048,33280
8049,33216
8050,33152
8051,33216
8052,33280
8053,33280
8054,33280
8055,33344
8056,33408
8057,33536
8058,33472
8059,33472
8060,33472
8061,33536
8062,33536
8063,33792
8064,34752
8065,35136
8066,36288
8067,38016
8068,39808
8069,40832
8070,40704
8071,39424
8072,37248
8073,34816
8074,32448
8075,30656
8076,29632
8077,29376
8078,29696
8079,30720
8080,31104
8081,31808
8082,32320
8083,32640
8084,32832
8085,33024
8086,33152
8087,33152
8088,33216
8089,33280
8090,33344
8091,33344
8092,33344
8093,33408
8094,33472
8095,33472
8096,33472
8097,33536
8098,33664
8099,33664
8100,33664
8101,33664
8102,33728
8103,33728
8104,33728
8105,33728
8106,33792
8107,33920
8108,33856
8109,33856
8110,33920
8111,33984
8112,33984
8113,33984
8114,34048
8115,34112
8116,34112
8117,34112
8118,34176
8119,34304
8120,34368
8121,34368
8122,34432
8123,34496
8124,34496
8125,34432
8126,34496
8127,34560
8128,34624
8129,34624
8130,34688
8131,34752
8132,34816
8133,34816
8134,34752
8135,34816
8136,34880
8137,34816
8138,34752
8139,34752
8140,34752
8141,34688
8142,34560
8143,34496
8144,34432
8145,34304
8146,34176
8147,34048
8148,33984
8149,33728
8150,33536
8151,33344
8152,33280
8153,33152
8154,32960
8155,32832
8156,32768
8157,32704
8158,32512
8159,32448
8160,32448
8161,32448
8162,32448
8163,32448
8164,32576
8165,32640
8166,32640
8167,32704
8168,32768
8169,32896
8170,32960
8171,32960
8172,33024
8173,33088
8174,33152
8175,33152
8176,33216
8177,33280
8178,33344
8179,33344
8180,33344
8181,33408
8182,33472
8183,33408
8184,33472
8185,33536
8186,33600
8187,33536
8188,33536
8189,33536
8190,33600
8191,33536
8192,33536
8193,33536
8194,33536
8195,33536
8196,33472
8197,33472
8198,33536
8199,33536
8200,33472
8201,33408
8202,33472
8203,33536
8204,33472
8205,33408
8206,33472
8207,33472
8208,33408
8209,33408
8210,33408
8211,33472
8212,33472
8213,33408
8214,33472
8215,33536
8216,33536
8217,33536
8218,33536
8219,33600
8220,33600
8221,33536
8222,33600
8223,33664
8224,33664
8225,33600
8226,33600
8227,33664
8228,33664
8229,33536
8230,33536
8231,33536
8232,33600
8233,33600
8234,33536
8235,33600
8236,33600
8237,33600
8238,33600
8239,33664
8240,33728
8241,33664
8242,33664
8243,33664
8244,33792
8245,33792
8246,33728
8247,33664
8248,33728
8249,33728
8250,33664
8251,33600
8252,33664
8253,33728
8254,33664
8255,33664
8256,33728
8257,33728
8258,33728
8259,33664
8260,33728
8261,33792
8262,33792
8263,33728
8264,33728
8265,33792
8266,33728
8267,33664
8268,33664
8269,33664
8270,33728
8271,33664
8272,33664
8273,33664
8274,33664
8275,33664
8276,33600
8277,33664
8278,33728
8279,33664
8280,33728
8281,33792
8282,33728
8283,33728
8284,33728
8285,33792
8286,33920
8287,33984
8288,34048
8289,34112
8290,34176
8291,34240
8292,34304
8293,34496
8294,34624
8295,34624
8296,34560
8297,34560
8298,34560
8299,34432
8300,34240
8301,34112
8302,33920
8303,33664
8304,33472
8305,33216
8306,33152
8307,33088
8308,32960
8309,32960
8310,33088
8311,33152
8312,33152
8313,33152
8314,33216
8315,33280
8316,33280
8317,33280
8318,33344
8319,33408
8320,33408
8321,33536
8322,33856
8323,34368
8324,35264
8325,36672
8326,38464
8327,40128
8328,40960
8329,40512
8330,39040
8331,36864
8332,34368
8333,32064
8334,30464
8335,29632
8336,29568
8337,30016
8338,30656
8339,31424
8340,32128
8341,32512
8342,32768
8343,32960
8344,33152
8345,33216
8346,33216
8347,33344
8348,33408
8349,33472
8350,33472
8351,33472
8352,33600
8353,33664
8354,33664
8355,33664
8356,33664
8357,33728
8358,33728
8359,33728
8360,33792
8361,33856
8362,33856
8363,33792
8364,33856
8365,33920
8366,33984
8367,33920
8368,33984
8369,34048
8370,34048
8371,34048
8372,34112
8373,34240
8374,34304
8375,34304
8376,34304
8377,34368
8378,34432
8379,34432
8380,34432
8381,34496
8382,34560
8383,34624
8384,34624
8385,34688
8386,34752
8387,34816
8388,34816
8389,34944
8390,35008
8391,35008
8392,34944
8393,35008
8394,35072
8395,35008
8396,34944
8397,34944
8398,35008
8399,34944
8400,34816
8401,34752
8402,34752
8403,34688
8404,34496
8405,34304
8406,34176
8407,34048
8408,33792
8409,33600
8410,33472
8411,33408
8412,33216
8413,33024
8414,32896
8415,32896
8416,32768
8417,32640
8418,32640
8419,32640
8420,32576
8421,32576
8422,32640
8423,32704
8424,32768
8425,32768
8426,32768
8427,32896
8428,33024
8429,33024
8430,33088
8431,33088
8432,33216
8433,33216
8434,33216
8435,33280
8436,33408
8437,33408
8438,33408
8439,33408
8440,33472
8441,33472
8442,33472
8443,33536
8444,33600
8445,33664
8446,33664
8447,33664
8448,33728
8449,33792
8450,33728
8451,33664
8452,33728
8453,33792
8454,33728
8455,33664
8456,33664
8457,33664
8458,33664
8459,33536
8460,33600
8461,33664
8462,33600
8463,33536
8464,33600
8465,33664
8466,33664
8467,33664
8468,33664
8469,33664
8470,33664
8471,33600
8472,33664
8473,33728
8474,33728
8475,33728
8476,33664
8477,33728
8478,33792
8479,33728
8480,33728
8481,33792
8482,33856
8483,33856
8484,33792
8485,33792
8486,33792
8487,33792
8488,33728
8489,33728
8490,33856
8491,33856
8492,33728
8493,33728
8494,33728
8495,33728
8496,33728
8497,33664
8498,33728
8499,33728
8500,33664
8501,33664
8502,33664
8503,33664
8504,33600
8505,33600
8506,33600
8507,33664
8508,33600
8509,33600
8510,33664
8511,33728
8512,33664
8513,33664
8514,33664
8515,33728
8516,33792
8517,33728
8518,33728
8519,33792
8520,33792
8521,33664
8522,33664
8523,33728
8524,33728
8525,33728
8526,33728
8527,33792
8528,33856
8529,33792
8530,33792
8531,33792
8532,33856
8533,33856
8534,33792
8535,33856
8536,33856
8537,33856
8538,33792
8539,33792
8540,33856
8541,33920
8542,33856
8543,33920
8544,33920
8545,33920
8546,33856
8547,33856
8548,33920
8549,34048
8550,34048
8551,34176
8552,34304
8553,34432
8554,34432
8555,34432
8556,34496
8557,34688
8558,34816
8559,34752
8560,34752
8561,34752
8562,34688
8563,34560
8564,34496
8565,34432
8566,34304
8567,33984
8568,33728
8569,33536
8570,33408
8571,33216
8572,33152
8573,33216
8574,33280
8575,33280
8576,33280
8577,33408
8578,33472
8579,33536
8580,33536
8581,33536
8582,33600
8583,33600
8584,33536
8585,33600
8586,33856
8587,34176
8588,34688
8589,35712
8590,37312
8591,39232
8592,40512
8593,40896
8594,40192
8595,38400
8596,36160
8597,33728
8598,30400
8599,29760
8600,29760
8601,30400
8602,31168
8603,31808
8604,32320
8605,32320
8606,32960
8607,33152
8608,33216
8609,33280
8610,33344
8611,33408
8612,33408
8613,33472
8614,33600
8615,33664
8616,33664
8617,33664
8618,33792
8619,33856
8620,33856
8621,33856
8622,33920
8623,33984
8624,33984
8625,33920
8626,34112
8627,34112
8628,34112
8629,34112
8630,34112
8631,34176
8632,34176
8633,34176
8634,34240
8635,34304
8636,34304
8637,34304
8638,34304
8639,34432
8640,34432
8641,34432
8642,34496
8643,34624
8644,34624
8645,34624
8646,34624
8647,34752
8648,34816
8649,34816
8650,34752
8651,35008
8652,35008
8653,35008
8654,35008
8655,35072
8656,35136
8657,35200
8658,35136
8659,35136
8660,35200
8661,35136
8662,35072
8663,35008
8664,35008
8665,34944
8666,34752
8667,34688
8668,34624
8669,34496
8670,34240
8671,34048
8672,33920
8673,33792
8674,33600
8675,33344
8676,33216
8677,33152
8678,33024
8679,32832
8680,32768
8681,32768
8682,32704
8683,32640
8684,32704
8685,32768
8686,32832
8687,32768
8688,32832
8689,32896
8690,32960
8691,33024
8692,33024
8693,33152
8694,33216
8695,33216
8696,33280
8697,33344
8698,33408
8699,33408
8700,33408
8701,33472
8702,33600
8703,33600
8704,33600
8705,33664
8706,33728
8707,33728
8708,33664
8709,33664
8710,33728
8711,33728
8712,33664
8713,33664
8714,33728
8715,33728
8716,33728
8717,33664
8718,33728
8719,33728
8720,33664
8721,33600
8722,33664
8723,33664
8724,33664
8725,33536
8726,33600
8727,33664
8728,33664
8729,33600
8730,33664
8731,33664
8732,33664
8733,33664
8734,33600
8735,33664
8736,33664
8737,33600
8738,33600
8739,33728
8740,33728
8741,33600
8742,33600
8743,33664
8744,33664
8745,33664
8746,33664
8747,33728
8748,33792
8749,33728
8750,33664
8751,33664
8752,33728
8753,33728
8754,33664
8755,33728
8756,33792
8757,33792
8758,33728
8759,33728
8760,33728
8761,33728
8762,33664
8763,33664
8764,33792
8765,33792
8766,33792
8767,33792
8768,33792
8769,33856
8770,33728
8771,33664
8772,33664
8773,33728
8774,33664
8775,33664
8776,33728
8777,33792
8778,33728
8779,33728
8780,33728
8781,33792
8782,33792
8783,33728
8784,33792
8785,33856
8786,33792
8787,33792
8788,33792
8789,33856
8790,33856
8791,33856
8792,33792
8793,33856
8794,33856
8795,33792
8796,33728
8797,33792
8798,33856
8799,33856
8800,33792
8801,33856
8802,33920
8803,33920
8804,33856
8805,33920
8806,33984
8807,33984
8808,33920
8809,33920
8810,33984
8811,34048
8812,34112
8813,34112
8814,34240
8815,34304
8816,34368
8817,34368
8818,34496
8819,34624
8820,34752
8821,34880
8822,34944
8823,35008
8824,34944
8825,34752
8826,34688
8827,34624
8828,34432
8829,34176
8830,33984
8831,33792
8832,33536
8833,33280
8834,33216
8835,33216
8836,33216
8837,33216
8838,33280
8839,33344
8840,33408
8841,33408
8842,33408
8843,33536
8844,33600
8845,33600
8846,33536
8847,33600
8848,33664
8849,33856
8850,34240
8851,35008
8852,36224
8853,38016
8854,39424
8855,39936
8856,39232
8857,37632
8858,35584
8859,33536
8860,32000
8861,30848
8862,30144
8863,30016
8864,30464
8865,31104
8866,31808
8867,32384
8868,32960
8869,33280
8870,33408
8871,33472
8872,33600
8873,33664
8874,33664
8875,33600
8876,33664
8877,33728
8878,33728
8879,33728
8880,33792
8881,33856
8882,33856
8883,33856
8884,33856
8885,33856
8886,33920
8887,33920
8888,33984
8889,34048
8890,34112
8891,34048
8892,34048
8893,34112
8894,34176
8895,34112
8896,34112
8897,34112
8898,34240
8899,34176
8900,34176
8901,34240
8902,34368
8903,34368
8904,34432
8905,34432
8906,34560
8907,34624
8908,34560
8909,34560
8910,34624
8911,34688
8912,34688
8913,34752
8914,34752
8915,34816
8916,34816
8917,34816
8918,34880
8919,34944
8920,34880
8921,34816
8922,34880
8923,34880
8924,34880
8925,34816
8926,34816
8927,34816
8928,34752
8929,34688
8930,34624
8931,34624
8932,34496
8933,34304
8934,34176
8935,34112
8936,33920
8937,33728
8938,33600
8939,33472
8940,33344
8941,33152
8942,32960
8943,32896
8944,32896
8945,32768
8946,32704
8947,32768
8948,32768
8949,32832
8950,32768
8951,32832
8952,32960
8953,33024
8954,33024
8955,33024
8956,33152
8957,33280
8958,33280
8959,33344
8960,33408
8961,33472
8962,33536
8963,33600
8964,33664
8965,33728
8966,33728
8967,33664
8968,33728
8969,33792
8970,33792
8971,33728
8972,33792
8973,33856
8974,33792
8975,33728
8976,33728
8977,33792
8978,33792
8979,33792
8980,33792
8981,33792
8982,33792
8983,33728
8984,33728
8985,33728
8986,33792
8987,33728
8988,33664
8989,33728
8990,33728
8991,33664
8992,33600
8993,33664
8994,33664
8995,33664
8996,33664
8997,33728
8998,33792
8999,33728
9000,33664
9001,33728
9002,33792
9003,33792
9004,33728
9005,33728
9006,33792
9007,33792
9008,33728
9009,33728
9010,33792
9011,33856
9012,33792
9013,33792
9014,33856
9015,33920
9016,33856
9017,33856
9018,33920
9019,33984
9020,33920
9021,33856
9022,33920
9023,33984
9024,33984
9025,33920
9026,33920
9027,33984
9028,33920
9029,33920
9030,33920
9031,33920
9032,33856
9033,33728
9034,33664
9035,33664
9036,33664
9037,33664
9038,33664
9039,33728
9040,33792
9041,33792
9042,33792
9043,33856
9044,33856
9045,33856
9046,33856
9047,33920
9048,33984
9049,33984
9050,33920
9051,33984
9052,34112
9053,34176
9054,34240
9055,34368
9056,34432
9057,34560
9058,34688
9059,34816
9060,34944
9061,34944
9062,34880
9063,34816
9064,34816
9065,34752
9066,34560
9067,34304
9068,34112
9069,33920
9070,33664
9071,33408
9072,33280
9073,33280
9074,33216
9075,33216
9076,33216
9077,33280
9078,33280
9079,33280
9080,33344
9081,33408
9082,33472
9083,33472
9084,33472
9085,33536
9086,33600
9087,33728
9088,34048
9089,34752
9090,35648
9091,37248
9092,39040
9093,40192
9094,40320
9095,39104
9096,37184
9097,35008
9098,32960
9099,31296
9100,30144
9101,29696
9102,29888
9103,30464
9104,31168
9105,31872
9106,32448
9107,32896
9108,33088
9109,33216
9110,33408
9111,33408
9112,33408
9113,33472
9114,33472
9115,33536
9116,33536
9117,33536
9118,33664
9119,33728
9120,33728
9121,33728
9122,33728
9123,33792
9124,33856
9125,33792
9126,33856
9127,33920
9128,33920
9129,33920
9130,33920
9131,33984
9132,33984
9133,33984
9134,33984
9135,34112
9136,34176
9137,34176
9138,34176
9139,34240
9140,34368
9141,34304
9142,34304
9143,34368
9144,34432
9145,34432
9146,34432
9147,34496
9148,34624
9149,34688
9150,34688
9151,34752
9152,34880
9153,34880
9154,34880
9155,34880
9156,35008
9157,35072
9158,35008
9159,35008
9160,35008
9161,35008
9162,34944
9163,34880
9164,34880
9165,34880
9166,34816
9167,34752
9168,34688
9169,34560
9170,34432
9171,34304
9172,34176
9173,34112
9174,33920
9175,33664
9176,33536
9177,33408
9178,33216
9179,33088
9180,32960
9181,32896
9182,32832
9183,32768
9184,32704
9185,32768
9186,32768
9187,32768
9188,32704
9189,32768
9190,32832
9191,32832
9192,32832
9193,32960
9194,33088
9195,33088
9196,33088
9197,33216
9198,33280
9199,33344
9200,33344
9201,33472
9202,33536
9203,33536
9204,33536
9205,33600
9206,33664
9207,33664
9208,33664
9209,33664
9210,33728
9211,33728
9212,33728
9213,33728
9214,33792
9215,33856
9216,33792
9217,33728
9218,33728
9219,33792
9220,33792
9221,33728
9222,33664
9223,33664
9224,33664
9225,33600
9226,33600
9227,33664
9228,33728
9229,33664
9230,33664
9231,33664
9232,33664
9233,33664
9234,33664
9235,33728
9236,33792
9237,33728
9238,33728
9239,33792
9240,33792
9241,33728
9242,33728
9243,33728
9244,33792
9245,33792
9246,33728
9247,33792
9248,33792
9249,33792
9250,33792
9251,33792
9252,33856
9253,33856
9254,33792
9255,33792
9256,33792
9257,33856
9258,33792
9259,33792
9260,33792
9261,33856
9262,33792
9263,33728
9264,33856
9265,33856
9266,33856
9267,33792
9268,33856
9269,33920
9270,33856
9271,33856
9272,33856
9273,33920
9274,33856
9275,33856
9276,33856
9277,33920
9278,33920
9279,33856
9280,33856
9281,33920
9282,33920
9283,33920
9284,33856
9285,33984
9286,33920
9287,33920
9288,33856
9289,33920
9290,33984
9291,33984
9292,33920
9293,33920
9294,33984
9295,33984
9296,33920
9297,33920
9298,33984
9299,33984
9300,33920
9301,33920
9302,34048
9303,34048
9304,34048
9305,34112
9306,34240
9307,34304
9308,34368
9309,34432
9310,34560
9311,34688
9312,34688
9313,34752
9314,34880
9315,34944
9316,34944
9317,34880
9318,34816
9319,34816
9320,34752
9321,34560
9322,34368
9323,34176
9324,33920
9325,33664
9326,33472
9327,33344
9328,33344
9329,33344
9330,33280
9331,33344
9332,33408
9333,33408
9334,33472
9335,33536
9336,33536
9337,33600
9338,33536
9339,33600
9340,33600
9341,33728
9342,33984
9343,34496
9344,35328
9345,36608
9346,38400
9347,40128
9348,41088
9349,40960
9350,39616
9351,37504
9352,35072
9353,32704
9354,30912
9355,29824
9356,29632
9357,30080
9358,30784
9359,31488
9360,32128
9361,32576
9362,32832
9363,33024
9364,33216
9365,33408
9366,33472
9367,33472
9368,33536
9369,33600
9370,33600
9371,33600
9372,33600
9373,33728
9374,33856
9375,33792
9376,33792
9377,33920
9378,33984
9379,33984
9380,33984
9381,33984
9382,34048
9383,34048
9384,34112
9385,34176
9386,34176
9387,34176
9388,34176
9389,34304
9390,34368
9391,34368
9392,34368
9393,34432
9394,34496
9395,34496
9396,34496
9397,34560
9398,34624
9399,34688
9400,34688
9401,34752
9402,34816
9403,34880
9404,34880
9405,34944
9406,35008
9407,35136
9408,35200
9409,35200
9410,35264
9411,35264
9412,35264
9413,35264
9414,35328
9415,35392
9416,35392
9417,35328
9418,35328
9419,35328
9420,35328
9421,35136
9422,35072
9423,35008
9424,34944
9425,34752
9426,34624
9427,34496
9428,34240
9429,33984
9430,33792
9431,33664
9432,33536
9433,33408
9434,33280
9435,33216
9436,33152
9437,33088
9438,33024
9439,32960
9440,33024
9441,32960
9442,32960
9443,33024
9444,33152
9445,33152
9446,33216
9447,33280
9448,33344
9449,33408
9450,33408
9451,33408
9452,33472
9453,33536
9454,33536
9455,33600
9456,33728
9457,33792
9458,33792
9459,33728
9460,33792
9461,33856
9462,33856
9463,33856
9464,33920
9465,33984
9466,33920
9467,33920
9468,33984
9469,34048
9470,34048
9471,34048
9472,33984
9473,34048
9474,34048
9475,33984
9476,33920
9477,33920
9478,33920
9479,33920
9480,33920
9481,33984
9482,33984
9483,33984
9484,33920
9485,33920
9486,33984
9487,33920
9488,33856
9489,33920
9490,33920
9491,33920
9492,33920
9493,33920
9494,33984
9495,33984
9496,33984
9497,33984
9498,34048
9499,34048
9500,33984
9501,33984
9502,34048
9503,34048
9504,34048
9505,34048
9506,34112
9507,34112
9508,34048
9509,34048
9510,34048
9511,34112
9512,34112
9513,34048
9514,34112
9515,34176
9516,34112
9517,34048
9518,34112
9519,34176
9520,34112
9521,34112
9522,34112
9523,34176
9524,34176
9525,34112
9526,34112
9527,34112
9528,34112
9529,34048
9530,34048
9531,34176
9532,34176
9533,34176
9534,34112
9535,34112
9536,34112
9537,34112
9538,34112
9539,34112
9540,34176
9541,34176
9542,34112
9543,34112
9544,34176
9545,34112
9546,34048
9547,34048
9548,34112
9549,34112
9550,34112
9551,34112
9552,34112
9553,34176
9554,34112
9555,34048
9556,34112
9557,34176
9558,34112
9559,34048
9560,34112
9561,34112
9562,34112
9563,34048
9564,34112
9565,34112
9566,34112
9567,34048
9568,34112
9569,34240
9570,34304
9571,34368
9572,34496
9573,34624
9574,34624
9575,34624
9576,34752
9577,34880
9578,34944
9579,34880
9580,34880
9581,34880
9582,34816
9583,34688
9584,34560
9585,34368
9586,34176
9587,33920
9588,33600
9589,33408
9590,33344
9591,33280
9592,33280
9593,33408
9594,33536
9595,33536
9596,33536
9597,33600
9598,33664
9599,33728
9600,33664
9601,33664
9602,33664
9603,33664
9604,33728
9605,33984
9606,34496
9607,35328
9608,36544
9609,38912
9610,40128
9611,41088
9612,40960
9613,39744
9614,37696
9615,35264
9616,32896
9617,31040
9618,30016
9619,29760
9620,30080
9621,30720
9622,31424
9623,32064
9624,32512
9625,32832
9626,33024
9627,33216
9628,33280
9629,33280
9630,33344
9631,33472
9632,33536
9633,33536
9634,33536
9635,33600
9636,33664
9637,33664
9638,33664
9639,33728
9640,33856
9641,33856
9642,33792
9643,33856
9644,33920
9645,33920
9646,33920
9647,33984
9648,34112
9649,34112
9650,34112
9651,34112
9652,34176
9653,34240
9654,34240
9655,34240
9656,34304
9657,34368
9658,34368
9659,34304
9660,34368
9661,34496
9662,34560
9663,34560
9664,34560
9665,34688
9666,34752
9667,34752
9668,34816
9669,34944
9670,35008
9671,34944
9672,35008
9673,35136
9674,35136
9675,35136
9676,35136
9677,35200
9678,35264
9679,35200
9680,35136
9681,35200
9682,35136
9683,35072
9684,34944
9685,34944
9686,34944
9687,34880
9688,34688
9689,34496
9690,34432
9691,34240
9692,33984
9693,33856
9694,33728
9695,33600
9696,33344
9697,33216
9698,33152
9699,33024
9700,32960
9701,32896
9702,32960
9703,32960
9704,32896
9705,32896
9706,32960
9707,33024
9708,33024
9709,33024
9710,33088
9711,33152
9712,33216
9713,33216
9714,33344
9715,33408
9716,33472
9717,33472
9718,33536
9719,33600
9720,33600
9721,33600
9722,33600
9723,33728
9724,33792
9725,33792
9726,33792
9727,33856
9728,33920
9729,33856
9730,33856
9731,33856
9732,33920
9733,33920
9734,33856
9735,33920
9736,33920
9737,33920
9738,33856
9739,33856
9740,33856
9741,33856
9742,33856
9743,33920
9744,33984
9745,33920
9746,33856
9747,33792
9748,33856
9749,33856
9750,33792
9751,33792
9752,33792
9753,33792
9754,33792
9755,33856
9756,33920
9757,33920
9758,33920
9759,33792
9760,33792
9761,33792
9762,33856
9763,33856
9764,33920
9765,33984
9766,33984
9767,33920
9768,33920
9769,34048
9770,34048
9771,34048
9772,33984
9773,34048
9774,34048
9775,33984
9776,33984
9777,34048
9778,34048
9779,33920
9780,33920
9781,33920
9782,33984
9783,33920
9784,33920
9785,33920
9786,33920
9787,33920
9788,33856
9789,33920
9790,33920
9791,33984
9792,33984
9793,33984
9794,34048
9795,34048
9796,33984
9797,33984
9798,34048
9799,34048
9800,33984
9801,33984
9802,33984
9803,34048
9804,34048
9805,34048
9806,34048
9807,34048
9808,33984
9809,33984
9810,34048
9811,34112
9812,34112
9813,34048
9814,34048
9815,34048
9816,34048
9817,33984
9818,34048
9819,34176
9820,34176
9821,34112
9822,34176
9823,34304
9824,34432
9825,34496
9826,34560
9827,34624
9828,34816
9829,34944
9830,35008
9831,35008
9832,35008
9833,34944
9834,34816
9835,34752
9836,34688
9837,34496
9838,34240
9839,34048
9840,33856
9841,33600
9842,33408
9843,33280
9844,33280
9845,33280
9846,33280
9847,33280
9848,33408
9849,33472
9850,33472
9851,33472
9852,33536
9853,33600
9854,33664
9855,33600
9856,33600
9857,33792
9858,33984
9859,34368
9860,35200
9861,36608
9862,38400
9863,39680
9864,39744
9865,39040
9866,37376
9867,35328
9868,33408
9869,31872
9870,30784
9871,30080
9872,30016
9873,30464
9874,31168
9875,31808
9876,32448
9877,32960
9878,33344
9879,33536
9880,33600
9881,33664
9882,33728
9883,33728
9884,33664
9885,33728
9886,33792
9887,33792
9888,33728
9889,33728
9890,33792
9891,33792
9892,33792
9893,33792
9894,33920
9895,33920
9896,33920
9897,33856
9898,33920
9899,33920
9900,33984
9901,33984
9902,34048
9903,34112
9904,34112
9905,34112
9906,34176
9907,34240
9908,34304
9909,34304
9910,34368
9911,34432
9912,34432
9913,34432
9914,34432
9915,34496
9916,34560
9917,34496
9918,34560
9919,34688
9920,34752
9921,34752
9922,34752
9923,34816
9924,34944
9925,34944
9926,34880
9927,34944
9928,35008
9929,34944
9930,34880
9931,34944
9932,34944
9933,34880
9934,34880
9935,34880
9936,34944
9937,34880
9938,34752
9939,34752
9940,34688
9941,34624
9942,34432
9943,34240
9944,34112
9945,33984
9946,33792
9947,33600
9948,33536
9949,33344
9950,33152
9951,33024
9952,32960
9953,32960
9954,32896
9955,32832
9956,32896
9957,32896
9958,32832
9959,32896
9960,32896
9961,32960
9962,33024
9963,33024
9964,33088
9965,33216
9966,33280
9967,33280
9968,33344
9969,33536
9970,33536
9971,33600
9972,33600
9973,33664
9974,33664
9975,33664
9976,33664
9977,33728
9978,33792
9979,33792
9980,33792
9981,33856
9982,33856
9983,33856
9984,33856
9985,33856
9986,33856
9987,33856
9988,33728
9989,33728
9990,33792
9991,33792
9992,33728
9993,33728
9994,33728
9995,33728
9996,33664
9997,33728
9998,33792
9999,33856
10000,33792
10001,33728
10002,33792
10003,33792
10004,33792
10005,33792
10006,33792
10007,33856
10008,33856
10009,33856
10010,33856
10011,33920
10012,33920
10013,33856
10014,33920
10015,33856
10016,33856
10017,33792
10018,33792
10019,33856
10020,33920
10021,33920
10022,33920
10023,33984
10024,33984
10025,33984
10026,33920
10027,33920
10028,33984
10029,33920
10030,33920
10031,33984
10032,33984
10033,33984
10034,33920
10035,33920
10036,33984
10037,33984
10038,33920
10039,33920
10040,33984
10041,33984
10042,33984
10043,33984
10044,34048
10045,33984
10046,33920
10047,33920
10048,33984
10049,34048
10050,33984
10051,33920
10052,33984
10053,34048
10054,34048
10055,33984
10056,33984
10057,34048
10058,34048
10059,33984
10060,33984
10061,34048
10062,34112
10063,34112
10064,34304
10065,34432
10066,34496
10067,34496
10068,34624
10069,34816
10070,35008
10071,35008
10072,34944
10073,34944
10074,34880
10075,34752
10076,34560
10077,34496
10078,34304
10079,33984
10080,33664
10081,33472
10082,33344
10083,33216
10084,33152
10085,33216
10086,33280
10087,33344
10088,33344
10089,33344
10090,33472
10091,33472
10092,33472
10093,33472
10094,33536
10095,33664
10096,33664
10097,33664
10098,33920
10099,34368
10100,35072
10101,36224
10102,38016
10103,39744
10104,40576
10105,40256
10106,38976
10107,36992
10108,34688
10109,32576
10110,30976
10111,30080
10112,29760
10113,30016
10114,30656
10115,31488
10116,32192
10117,32640
10118,32960
10119,33216
10120,33344
10121,33408
10122,33408
10123,33536
10124,33600
10125,33600
10126,33600
10127,33664
10128,33728
10129,33664
10130,33664
10131,33728
10132,33792
10133,33792
10134,33728
10135,33792
10136,33920
10137,33920
10138,33856
10139,33920
10140,34048
10141,34112
10142,34112
10143,34112
10144,34176
10145,34240
10146,34176
10147,34176
10148,34240
10149,34304
10150,34368
10151,34368
10152,34432
10153,34496
10154,34560
10155,34560
10156,34624
10157,34688
10158,34688
10159,34688
10160,34752
10161,34880
10162,34944
10163,34944
10164,34944
10165,35072
10166,35072
10167,35008
10168,35008
10169,35072
10170,35200
10171,35136
10172,35136
10173,35136
10174,35200
10175,35136
10176,35072
10177,35008
10178,34944
10179,34816
10180,34688
10181,34560
10182,34496
10183,34304
10184,34048
10185,33856
10186,33792
10187,33600
10188,33408
10189,33280
10190,33216
10191,33088
10192,32960
10193,32832
10194,32832
10195,32832
10196,32768
10197,32768
10198,32832
10199,32960
10200,33024
10201,33024
10202,33088
10203,33152
10204,33152
10205,33152
10206,33280
10207,33344
10208,33408
10209,33408
10210,33472
10211,33600
10212,33664
10213,33664
10214,33728
10215,33792
10216,33856
10217,33792
10218,33792
10219,33856
10220,33984
10221,33984
10222,33920
10223,33920
10224,33920
10225,33920
10226,33920
10227,33920
10228,33920
10229,33920
10230,33856
10231,33856
10232,33856
10233,33792
10234,33728
10235,33728
10236,33792
10237,33792
10238,33728
10239,33728
10240,33856
10241,33792
10242,33728
10243,33728
10244,33728
10245,33792
10246,33728
10247,33728
10248,33728
10249,33792
10250,33664
10251,33600
10252,33664
10253,33728
10254,33792
10255,33728
10256,33792
10257,33856
10258,33856
10259,33792
10260,33792
10261,33792
10262,33792
10263,33728
10264,33728
10265,33792
10266,33792
10267,33792
10268,33792
10269,33856
10270,33856
10271,33792
10272,33728
10273,33792
10274,33792
10275,33792
10276,33728
10277,33728
10278,33856
10279,33792
10280,33728
10281,33792
10282,33856
10283,33920
10284,33856
10285,33856
10286,33920
10287,33920
10288,33856
10289,33856
10290,33920
10291,33920
10292,33856
10293,33856
10294,33856
10295,33920
10296,33920
10297,33856
10298,33856
10299,33856
10300,33856
10301,33856
10302,33920
10303,33984
10304,33984
10305,33920
10306,33920
10307,33920
10308,33920
10309,33856
10310,33856
10311,33920
10312,33920
10313,33920
10314,33856
10315,33920
10316,33984
10317,33920
10318,33920
10319,34048
10320,34176
10321,34240
10322,34240
10323,34304
10324,34432
10325,34432
10326,34432
10327,34688
10328,34816
10329,34816
10330,34752
10331,34688
10332,34688
10333,34624
10334,34432
10335,34304
10336,34112
10337,33920
10338,33664
10339,33472
10340,33344
10341,33152
10342,33024
10343,33024
10344,33088
10345,33152
10346,33152
10347,33152
10348,33216
10349,33344
10350,33344
10351,33344
10352,33408
10353,33472
10354,33472
10355,33600
10356,33920
10357,34560
10358,35456
10359,36864
10360,38784
10361,40320
10362,40960
10363,40448
10364,38912
10365,36672
10366,34176
10367,31936
10368,30336
10369,29632
10370,29568
10371,30016
10372,30720
10373,31488
10374,32128
10375,32512
10376,32704
10377,32896
10378,33088
10379,33152
10380,33152
10381,33216
10382,33344
10383,33344
10384,33344
10385,33408
10386,33536
10387,33600
10388,33536
10389,33536
10390,33600
10391,33664
10392,33664
10393,33664
10394,33728
10395,33792
10396,33792
10397,33792
10398,33856
10399,33984
10400,33984
10401,33920
10402,33984
10403,34048
10404,34048
10405,34048
10406,34112
10407,34176
10408,34240
10409,34240
10410,34304
10411,34368
10412,34432
10413,34432
10414,34432
10415,34496
10416,34624
10417,34688
10418,34752
10419,34752
10420,34688
10421,34752
10422,34816
10423,34944
10424,34944
10425,34944
10426,35072
10427,35072
10428,35072
10429,35072
10430,35072
10431,35008
10432,35008
10433,34880
10434,34816
10435,34752
10436,34816
10437,34624
10438,34432
10439,34240
10440,34048
10441,33856
10442,33664
10443,33600
10444,33472
10445,33280
10446,33088
10447,32960
10448,32896
10449,32768
10450,32704
10451,32640
10452,32640
10453,32640
10454,32640
10455,32704
10456,32832
10457,32896
10458,32896
10459,32896
10460,33024
10461,33024
10462,32960
10463,33024
10464,33152
10465,33280
10466,33280
10467,33280
10468,33344
10469,33408
10470,33408
10471,33408
10472,33472
10473,33536
10474,33536
10475,33472
10476,33536
10477,33600
10478,33664
10479,33600
10480,33664
10481,33792
10482,33792
10483,33728
10484,33664
10485,33664
10486,33728
10487,33664
10488,33664
10489,33728
10490,33664
10491,33664
10492,33600
10493,33600
10494,33664
10495,33600
10496,33600
10497,33600
10498,33664
10499,33664
10500,33664
10501,33664
10502,33664
10503,33664
10504,33600
10505,33664
10506,33728
10507,33664
10508,33664
10509,33664
10510,33728
10511,33728
10512,33728
10513,33664
10514,33728
10515,33728
10516,33728
10517,33728
10518,33728
10519,33728
10520,33728
10521,33664
10522,33728
10523,33792
10524,33792
10525,33728
10526,33728
10527,33792
10528,33792
10529,33792
10530,33792
10531,33856
10532,33856
10533,33792
10534,33728
10535,33792
10536,33856
10537,33856
10538,33792
10539,33856
10540,33856
10541,33856
10542,33792
10543,33856
10544,33920
10545,33920
10546,33920
10547,33920
10548,33984
10549,33984
10550,33920
10551,33920
10552,33920
10553,33920
10554,33920
10555,33920
10556,33984
10557,33920
10558,33856
10559,33856
10560,33920
10561,33920
10562,33856
10563,33856
10564,33920
10565,33920
10566,33856
10567,33856
10568,33856
10569,33920
10570,33920
10571,33856
10572,33856
10573,33920
10574,33856
10575,33856
10576,33856
10577,33984
10578,34048
10579,33984
10580,34048
10581,34176
10582,34240
10583,34304
10584,34368
10585,34432
10586,34432
10587,34496
10588,34624
10589,34752
10590,34816
10591,34752
10592,34688
10593,34560
10594,34496
10595,34240
10596,34048
10597,33856
10598,33728
10599,33536
10600,33280
10601,33216
10602,33152
10603,33152
10604,33152
10605,33152
10606,33280
10607,33280
10608,33280
10609,33344
10610,33472
10611,33472
10612,33472
10613,33408
10614,33472
10615,33536
10616,33728
10617,34112
10618,34752
10619,35840
10620,37504
10621,39296
10622,40512
10623,40704
10624,39808
10625,37888
10626,35584
10627,33216
10628,31296
10629,30016
10630,29568
10631,29760
10632,30400
10633,31168
10634,31744
10635,32256
10636,32640
10637,32832
10638,33024
10639,33152
10640,33280
10641,33216
10642,33216
10643,33280
10644,33408
10645,33408
10646,33408
10647,33472
10648,33536
10649,33536
10650,33536
10651,33600
10652,33728
10653,33728
10654,33728
10655,33728
10656,33856
10657,33920
10658,33920
10659,33920
10660,33920
10661,33984
10662,33920
10663,33984
10664,34048
10665,34176
10666,34176
10667,34176
10668,34240
10669,34304
10670,34304
10671,34304
10672,34368
10673,34432
10674,34496
10675,34496
10676,34560
10677,34624
10678,34688
10679,34624
10680,34688
10681,34752
10682,34880
10683,34880
10684,34944
10685,35072
10686,35136
10687,35072
10688,35072
10689,35072
10690,35136
10691,35072
10692,35008
10693,35008
10694,35072
10695,35008
10696,34880
10697,34816
10698,34752
10699,34624
10700,34432
10701,34304
10702,34240
10703,34048
10704,33792
10705,33600
10706,33536
10707,33408
10708,33280
10709,33152
10710,33088
10711,33024
10712,32896
10713,32768
10714,32768
10715,32832
10716,32832
10717,32832
10718,32832
10719,32960
10720,32960
10721,33024
10722,33088
10723,33216
10724,33280
10725,33280
10726,33280
10727,33344
10728,33408
10729,33472
10730,33472
10731,33536
10732,33536
10733,33472
10734,33536
10735,33600
10736,33728
10737,33664
10738,33664
10739,33728
10740,33792
10741,33792
10742,33728
10743,33792
10744,33856
10745,33792
10746,33728
10747,33792
10748,33856
10749,33792
10750,33792
10751,33792
10752,33856
10753,33792
10754,33728
10755,33728
10756,33728
10757,33728
10758,33664
10759,33664
10760,33728
10761,33728
10762,33728
10763,33664
10764,33728
10765,33792
10766,33728
10767,33728
10768,33728
10769,33792
10770,33728
10771,33728
10772,33728
10773,33792
10774,33792
10775,33728
10776,33728
10777,33792
10778,33792
10779,33792
10780,33728
10781,33728
10782,33728
10783,33728
10784,33728
10785,33792
10786,33856
10787,33792
10788,33728
10789,33792
10790,33792
10791,33792
10792,33792
10793,33792
10794,33856
10795,33856
10796,33792
10797,33792
10798,33920
10799,33920
10800,33856
10801,33920
10802,33920
10803,33920
10804,33856
10805,33856
10806,33920
10807,33984
10808,33920
10809,33920
10810,33920
10811,33920
10812,33856
10813,33792
10814,33920
10815,33920
10816,33920
10817,33856
10818,33856
10819,33920
10820,33920
10821,33856
10822,33920
10823,33984
10824,33984
10825,33920
10826,33984
10827,34048
10828,34048
10829,34112
10830,34240
10831,34368
10832,34432
10833,34432
10834,34496
10835,34688
10836,34880
10837,34880
10838,34880
10839,34880
10840,34816
10841,34688
10842,34560
10843,34432
10844,34240
10845,33984
10846,33728
10847,33536
10848,33408
10849,33280
10850,33216
10851,33152
10852,33216
10853,33216
10854,33216
10855,33280
10856,33344
10857,33408
10858,33408
10859,33472
10860,33536
10861,33536
10862,33472
10863,33472
10864,33664
10865,34112
10866,34688
10867,35712
10868,37312
10869,39104
10870,39872
10871,39488
10872,38144
10873,36288
10874,34112
10875,32512
10876,31104
10877,30272
10878,29888
10879,30080
10880,30656
10881,31424
10882,32128
10883,32640
10884,33024
10885,33344
10886,33536
10887,33600
10888,33664
10889,33728
10890,33728
10891,33728
10892,33728
10893,33792
10894,33792
10895,33792
10896,33792
10897,33792
10898,33856
10899,33856
10900,33856
10901,33856
10902,33920
10903,33984
10904,33984
10905,33984
10906,34048
10907,34112
10908,34112
10909,34112
10910,34112
10911,34112
10912,34112
10913,34112
10914,34176
10915,34240
10916,34240
10917,34240
10918,34304
10919,34432
10920,34432
10921,34432
10922,34496
10923,34560
10924,34624
