,ECG
0,34752
1,34688
2,34688
3,34752
4,34944
5,35072
6,35008
7,34880
8,34752
9,34560
10,34432
11,34304
12,34240
13,34240
14,34176
15,34176
16,34112
17,34048
18,33920
19,33856
20,33792
21,33664
22,33536
23,33408
24,33408
25,33472
26,33344
27,33216
28,33088
29,33088
30,33088
31,33152
32,33216
33,33344
34,33408
35,33472
36,33536
37,33664
38,33792
39,33920
40,33920
41,33920
42,33984
43,33920
44,33856
45,33856
46,33856
47,33920
48,34112
49,34304
50,34304
51,34176
52,33984
53,33792
54,33792
55,33728
56,33664
57,33664
58,33728
59,33792
60,33856
61,33856
62,33984
63,33984
64,33920
65,33984
66,34112
67,34176
68,34112
69,33920
70,33728
71,33664
72,33728
73,33792
74,33792
75,33792
76,33728
77,33664
78,33664
79,33728
80,33920
81,33984
82,34048
83,34112
84,34240
85,34240
86,34240
87,34240
88,34176
89,34048
90,34048
91,34048
92,34176
93,34112
94,34048
95,33920
96,33920
97,33984
98,33984
99,33984
100,34048
101,34112
102,34176
103,34368
104,34496
105,34496
106,34368
107,34432
108,34624
109,34816
110,34816
111,34752
112,34688
113,34688
114,34560
115,34368
116,34176
117,34176
118,34048
119,33792
120,33472
121,33280
122,33152
123,33152
124,33216
125,33408
126,33408
127,33408
128,33536
129,33728
130,33728
131,33600
132,33536
133,33536
134,33664
135,34048
136,34816
137,36160
138,38272
139,40256
140,41920
141,42432
142,41664
143,39616
144,36736
145,34112
146,31680
147,30016
148,29312
149,29440
150,30080
151,30848
152,31552
153,32064
154,32384
155,32640
156,32768
157,32832
158,33024
159,33088
160,33152
161,33152
162,33280
163,33472
164,33600
165,33728
166,33728
167,33664
168,33664
169,33792
170,33984
171,34048
172,34048
173,34048
174,34048
175,33984
176,33984
177,33984
178,34112
179,34240
180,34112
181,33984
182,33920
183,34048
184,34112
185,34112
186,34112
187,34176
188,34240
189,34304
190,34304
191,34368
192,34432
193,34560
194,34624
195,34688
196,34624
197,34496
198,34432
199,34496
200,34624
201,34560
202,34496
203,34432
204,34560
205,34624
206,34624
207,34624
208,34688
209,34752
210,34688
211,34560
212,34560
213,34496
214,34432
215,34368
216,34240
217,34240
218,34112
219,33984
220,33984
221,33984
222,33920
223,33856
224,33728
225,33600
226,33536
227,33344
228,33280
229,33280
230,33344
231,33408
232,33344
233,33344
234,33280
235,33280
236,33344
237,33344
238,33280
239,33216
240,33216
241,33344
242,33344
243,33280
244,33280
245,33344
246,33536
247,33728
248,33728
249,33728
250,33728
251,33728
252,33728
253,33792
254,33856
255,34048
256,34176
257,34240
258,34240
259,34112
260,33984
261,33920
262,33792
263,33728
264,33728
265,33856
266,33920
267,33920
268,33792
269,33536
270,33472
271,33472
272,33664
273,33792
274,33920
275,33984
276,33920
277,33728
278,33664
279,33728
280,33792
281,33856
282,33856
283,33920
284,33984
285,33984
286,33984
287,33920
288,33920
289,33792
290,33664
291,33728
292,33792
293,33792
294,33792
295,33728
296,33792
297,33792
298,33792
299,33856
300,34048
301,34240
302,34368
303,34368
304,34304
305,34240
306,34240
307,34368
308,34496
309,34560
310,34560
311,34560
312,34560
313,34432
314,34368
315,34240
316,34048
317,33920
318,33792
319,33664
320,33472
321,33344
322,33280
323,33344
324,33472
325,33536
326,33600
327,33536
328,33536
329,33536
330,33536
331,33536
332,33536
333,33664
334,33856
335,34112
336,34432
337,35136
338,36416
339,38784
340,40320
341,41280
342,40896
343,39232
344,36992
345,34624
346,32448
347,30720
348,29632
349,29376
350,29760
351,30528
352,31360
353,32128
354,32704
355,32832
356,32960
357,33088
358,33216
359,33280
360,33280
361,33280
362,33344
363,33472
364,33600
365,33792
366,33920
367,33856
368,33664
369,33600
370,33600
371,33728
372,33792
373,33792
374,33792
375,33920
376,33920
377,33984
378,34112
379,34112
380,34048
381,33920
382,33920
383,34048
384,34048
385,34048
386,34112
387,34112
388,34112
389,34176
390,34240
391,34368
392,34368
393,34368
394,34304
395,34304
396,34368
397,34368
398,34368
399,34560
400,34688
401,34752
402,34816
403,34816
404,34688
405,34496
406,34368
407,34304
408,34368
409,34560
410,34688
411,34752
412,34688
413,34560
414,34496
415,34432
416,34304
417,34240
418,34112
419,34112
420,34176
421,34176
422,33984
423,33664
424,33472
425,33472
426,33536
427,33408
428,33152
429,33024
430,33024
431,32960
432,32960
433,33024
434,33152
435,33216
436,33216
437,33280
438,33408
439,33472
440,33600
441,33664
442,33792
443,33920
444,34112
445,34112
446,34112
447,33984
448,33856
449,33664
450,33664
451,33728
452,33920
453,34112
454,34112
455,34048
456,33984
457,33920
458,33984
459,34112
460,34048
461,33984
462,33984
463,33920
464,33728
465,33600
466,33600
467,33728
468,33792
469,33792
470,33856
471,33920
472,33920
473,33856
474,33792
475,33856
476,33984
477,34048
478,33984
479,33920
480,33984
481,33984
482,33920
483,34112
484,34432
485,34624
486,34496
487,34496
488,34624
489,34688
490,34688
491,34624
492,34560
493,34496
494,34496
495,34432
496,34304
497,34176
498,33920
499,33728
500,33536
501,33344
502,33088
503,33024
504,33152
505,33280
506,33472
507,33536
508,33536
509,33344
510,33152
511,33216
512,33344
513,33408
514,33472
515,33600
516,33984
517,34624
518,35648
519,37248
520,39296
521,40832
522,41024
523,39808
524,37760
525,35584
526,33408
527,31680
528,30528
529,30016
530,29952
531,30336
532,30912
533,31616
534,32384
535,32768
536,33088
537,33280
538,33280
539,33344
540,33344
541,33408
542,33536
543,33664
544,33728
545,33792
546,33856
547,33920
548,33856
549,33792
550,33792
551,33920
552,34048
553,34112
554,34048
555,34048
556,34112
557,34112
558,34112
559,34112
560,34176
561,34176
562,34176
563,34176
564,34112
565,34112
566,34176
567,34176
568,34304
569,34432
570,34432
571,34368
572,34368
573,34368
574,34496
575,34560
576,34560
577,34560
578,34560
579,34624
580,34688
581,34688
582,34624
583,34624
584,34560
585,34496
586,34560
587,34688
588,34752
589,34688
590,34624
591,34688
592,34688
593,34624
594,34496
595,34432
596,34368
597,34368
598,34304
599,34240
600,34112
601,33920
602,33728
603,33664
604,33600
605,33536
606,33408
607,33280
608,33152
609,33152
610,33088
611,33216
612,33408
613,33600
614,33408
615,33216
616,33216
617,33216
618,33216
619,33280
620,33536
621,33792
622,33920
623,33856
624,33856
625,33920
626,34112
627,34112
628,34112
629,34112
630,34112
631,34112
632,34112
633,34048
634,34048
635,34048
636,34048
637,34048
638,34048
639,33984
640,33984
641,33920
642,33984
643,34048
644,34048
645,33984
646,33856
647,33728
648,33600
649,33664
650,33920
651,34112
652,34112
653,33920
654,33856
655,33856
656,33856
657,33856
658,33920
659,33856
660,33728
661,33728
662,33920
663,34112
664,34112
665,34048
666,34112
667,34176
668,34112
669,34048
670,34048
671,34240
672,34432
673,34560
674,34752
675,34816
676,34880
677,34880
678,34944
679,35008
680,35008
681,34944
682,34752
683,34496
684,34304
685,34112
686,33920
687,33728
688,33600
689,33408
690,33216
691,33152
692,33152
693,33280
694,33344
695,33344
696,33472
697,33536
698,33600
699,33600
700,33664
701,33728
702,33664
703,33600
704,33920
705,34624
706,35712
707,37312
708,39488
709,41216
710,41792
711,40832
712,38656
713,36032
714,32640
715,31360
716,30016
717,29440
718,29504
719,30080
720,30912
721,31680
722,32256
723,32576
724,32896
725,33152
726,33280
727,33344
728,33408
729,33536
730,33536
731,33472
732,33408
733,33344
734,33472
735,33600
736,33728
737,33856
738,33920
739,33920
740,33920
741,33920
742,33984
743,34048
744,34048
745,34048
746,34240
747,34368
748,34496
749,34368
750,34368
751,34304
752,34112
753,34112
754,34304
755,34432
756,34368
757,34304
758,34304
759,34496
760,34560
761,34624
762,34560
763,34624
764,34624
765,34560
766,34496
767,34560
768,34688
769,34816
770,34816
771,34752
772,34752
773,34752
774,34816
775,34880
776,34944
777,34816
778,34688
779,34688
780,34752
781,34688
782,34624
783,34624
784,34624
785,34688
786,34624
787,34496
788,34304
789,34048
790,33920
791,33792
792,33728
793,33472
794,33344
795,33280
796,33216
797,33216
798,33216
799,33216
800,33344
801,33408
802,33344
803,33152
804,33088
805,33152
806,33216
807,33280
808,33408
809,33536
810,33728
811,33792
812,33856
813,33920
814,33984
815,33984
816,33984
817,34112
818,34048
819,33856
820,33792
821,33856
822,33984
823,33984
824,33984
825,34176
826,34240
827,34240
828,34048
829,33984
830,33920
831,33920
832,33920
833,33920
834,33984
835,33920
836,33856
837,33792
838,33792
839,33920
840,34112
841,34176
842,34176
843,33920
844,33728
845,33728
846,33856
847,33984
848,33984
849,33920
850,33792
851,33664
852,33664
853,33664
854,33792
855,33856
856,33920
857,33920
858,33984
859,34048
860,34048
861,34048
862,34048
863,34048
864,34048
865,34048
866,34112
867,34240
868,34240
869,34304
870,34240
871,34240
872,34368
873,34368
874,34240
875,34240
876,34240
877,34368
878,34624
879,34816
880,34880
881,34880
882,34816
883,34752
884,34496
885,34240
886,34112
887,34048
888,34048
889,33920
890,33856
891,33664
892,33536
893,33472
894,33408
895,33472
896,33600
897,33600
898,33536
899,33536
900,33664
901,33664
902,33664
903,33728
904,33920
905,34304
906,34624
907,35200
908,36352
909,39296
910,40448
911,41792
912,42176
913,41280
914,39040
915,36224
916,33344
917,31040
918,29696
919,29248
920,29632
921,30464
922,31232
923,31808
924,32384
925,32512
926,32704
927,32896
928,33024
929,33152
930,33216
931,33216
932,33280
933,33344
934,33472
935,33536
936,33600
937,33664
938,33664
939,33664
940,33728
941,33856
942,33984
943,33920
944,33856
945,33920
946,34112
947,34240
948,34112
949,33984
950,34048
951,34112
952,34240
953,34240
954,34176
955,34112
956,34176
957,34304
958,34432
959,34496
960,34496
961,34432
962,34432
963,34432
964,34496
965,34560
966,34688
967,34880
968,34880
969,34688
970,34624
971,34688
972,34688
973,34624
974,34624
975,34624
976,34688
977,34688
978,34688
979,34688
980,34688
981,34560
982,34496
983,34496
984,34560
985,34496
986,34368
987,34304
988,34304
989,34304
990,34240
991,34176
992,34112
993,34112
994,34112
995,33984
996,33792
997,33600
998,33408
999,33344
1000,33280
1001,33216
1002,33088
1003,32960
1004,32896
1005,32960
1006,33088
1007,33216
1008,33216
1009,33216
1010,33216
1011,33280
1012,33408
1013,33600
1014,33728
1015,33728
1016,33728
1017,33792
1018,33984
1019,34048
1020,33984
1021,33984
1022,33984
1023,33984
1024,33856
1025,33792
1026,33728
1027,33792
1028,33728
1029,33664
1030,33600
1031,33536
1032,33600
1033,33728
1034,33920
1035,33920
1036,33920
1037,33856
1038,33856
1039,33792
1040,33728
1041,33728
1042,33856
1043,33920
1044,33920
1045,33792
1046,33792
1047,33792
1048,33856
1049,33920
1050,33984
1051,33920
1052,33920
1053,33856
1054,33856
1055,33728
1056,33600
1057,33600
1058,33792
1059,34048
1060,34112
1061,33984
1062,33920
1063,34048
1064,34112
1065,34176
1066,34304
1067,34560
1068,34944
1069,35264
1070,35200
1071,34944
1072,34688
1073,34496
1074,34432
1075,34560
1076,34624
1077,34432
1078,34048
1079,33792
1080,33600
1081,33344
1082,33152
1083,33088
1084,33088
1085,33088
1086,33152
1087,33216
1088,33344
1089,33472
1090,33600
1091,33792
1092,33856
1093,33664
1094,33472
1095,33344
1096,33472
1097,33856
1098,34432
1099,35520
1100,37184
1101,39360
1102,41024
1103,41408
1104,40512
1105,38464
1106,36160
1107,33728
1108,31488
1109,30016
1110,29312
1111,29312
1112,29952
1113,30848
1114,31552
1115,32128
1116,32576
1117,33024
1118,33216
1119,33152
1120,33088
1121,33152
1122,33216
1123,33344
1124,33472
1125,33536
1126,33600
1127,33664
1128,33728
1129,33856
1130,33920
1131,33856
1132,33792
1133,33792
1134,33792
1135,33856
1136,33920
1137,33984
1138,34112
1139,34240
1140,34368
1141,34560
1142,34560
1143,34304
1144,33920
1145,33920
1146,34048
1147,34112
1148,34176
1149,34240
1150,34304
1151,34368
1152,34240
1153,34240
1154,34240
1155,34304
1156,34368
1157,34496
1158,34624
1159,34688
1160,34688
1161,34624
1162,34688
1163,34816
1164,34816
1165,34752
1166,34752
1167,34752
1168,34688
1169,34560
1170,34624
1171,34560
1172,34496
1173,34496
1174,34496
1175,34624
1176,34688
1177,34560
1178,34304
1179,34048
1180,33920
1181,33728
1182,33728
1183,33792
1184,33728
1185,33728
1186,33600
1187,33408
1188,33344
1189,33280
1190,33088
1191,33024
1192,32960
1193,32960
1194,33024
1195,33088
1196,33152
1197,33216
1198,33216
1199,33280
1200,33344
1201,33408
1202,33600
1203,33792
1204,33856
1205,33920
1206,33920
1207,33920
1208,34048
1209,34112
1210,34240
1211,34304
1212,34304
1213,34176
1214,34112
1215,34048
1216,34112
1217,34112
1218,33920
1219,33792
1220,33792
1221,33792
1222,33856
1223,33984
1224,33984
1225,33920
1226,33792
1227,33728
1228,33728
1229,33856
1230,33920
1231,33920
1232,33984
1233,34048
1234,34048
1235,33984
1236,33920
1237,33920
1238,33856
1239,33792
1240,33728
1241,33728
1242,33792
1243,33920
1244,34048
1245,34240
1246,34240
1247,34048
1248,34048
1249,34176
1250,34432
1251,34560
1252,34752
1253,34880
1254,34944
1255,34944
1256,34880
1257,34752
1258,34624
1259,34432
1260,34368
1261,34496
1262,34560
1263,34368
1264,34048
1265,33792
1266,33536
1267,33344
1268,33280
1269,33152
1270,33088
1271,33088
1272,33152
1273,33152
1274,33152
1275,33280
1276,33344
1277,33408
1278,33472
1279,33472
1280,33472
1281,33600
1282,34112
1283,34816
1284,35904
1285,37504
1286,39424
1287,40896
1288,41088
1289,39744
1290,37568
1291,35264
1292,33088
1293,31424
1294,30208
1295,29632
1296,29760
1297,30336
1298,31104
1299,31680
1300,32128
1301,32576
1302,32960
1303,33216
1304,33408
1305,33472
1306,33472
1307,33472
1308,33600
1309,33792
1310,33984
1311,33984
1312,33920
1313,33728
1314,33472
1315,33344
1316,33472
1317,33664
1318,33792
1319,33984
1320,34240
1321,34368
1322,34304
1323,34112
1324,33920
1325,33984
1326,34048
1327,34176
1328,34304
1329,34432
1330,34624
1331,34560
1332,34368
1333,34176
1334,34176
1335,34112
1336,34176
1337,34304
1338,34368
1339,34432
1340,34496
1341,34624
1342,34752
1343,34624
1344,34496
1345,34496
1346,34624
1347,34752
1348,34816
1349,34752
1350,34688
1351,34688
1352,34816
1353,34816
1354,34688
1355,34624
1356,34496
1357,34368
1358,34304
1359,34240
1360,34240
1361,34304
1362,34368
1363,34304
1364,34240
1365,34176
1366,34048
1367,33984
1368,33856
1369,33728
1370,33600
1371,33408
1372,33344
1373,33408
1374,33536
1375,33600
1376,33408
1377,33216
1378,33088
1379,32960
1380,32896
1381,32832
1382,32832
1383,32960
1384,33152
1385,33280
1386,33344
1387,33472
1388,33728
1389,33920
1390,33984
1391,34048
1392,34048
1393,34048
1394,34048
1395,34112
1396,34304
1397,34368
1398,34240
1399,33984
1400,33856
1401,33856
1402,33920
1403,33856
1404,33856
1405,33728
1406,33664
1407,33664
1408,33792
1409,33856
1410,33856
1411,33856
1412,33920
1413,33920
1414,34048
1415,34112
1416,33984
1417,33728
1418,33536
1419,33536
1420,33600
1421,33664
1422,33664
1423,33792
1424,33984
1425,34048
1426,33984
1427,33920
1428,33984
1429,34048
1430,34176
1431,34240
1432,34176
1433,34112
1434,34048
1435,34048
1436,34240
1437,34432
1438,34496
1439,34560
1440,34688
1441,34880
1442,35008
1443,35008
1444,35008
1445,35008
1446,34816
1447,34688
1448,34496
1449,34368
1450,34176
1451,33984
1452,33664
1453,33408
1454,33216
1455,33152
1456,33216
1457,33344
1458,33600
1459,33728
1460,33728
1461,33600
1462,33408
1463,33344
1464,33344
1465,33408
1466,33536
1467,33728
1468,33984
1469,34432
1470,35328
1471,36736
1472,38848
1473,40704
1474,41728
1475,41472
1476,39872
1477,37568
1478,35008
1479,32640
1480,30912
1481,29888
1482,29568
1483,29760
1484,30336
1485,30976
1486,31616
1487,32128
1488,32512
1489,32832
1490,33088
1491,33152
1492,33152
1493,33088
1494,33152
1495,33408
1496,33600
1497,33600
1498,33536
1499,33600
1500,33792
1501,33856
1502,33920
1503,34048
1504,34176
1505,34112
1506,33984
1507,33920
1508,33856
1509,33920
1510,33984
1511,34048
1512,34048
1513,34048
1514,34048
1515,34112
1516,34304
1517,34368
1518,34368
1519,34240
1520,34240
1521,34304
1522,34432
1523,34560
1524,34560
1525,34560
1526,34560
1527,34432
1528,34304
1529,34304
1530,34368
1531,34560
1532,34688
1533,34816
1534,34880
1535,34880
1536,34880
1537,34816
1538,34880
1539,34880
1540,34752
1541,34816
1542,34816
1543,34880
1544,34880
1545,34880
1546,34816
1547,34688
1548,34624
1549,34688
1550,34560
1551,34240
1552,33984
1553,33856
1554,33728
1555,33600
1556,33472
1557,33472
1558,33536
1559,33536
1560,33408
1561,33344
1562,33408
1563,33536
1564,33536
1565,33344
1566,33152
1567,33152
1568,33152
1569,33152
1570,33152
1571,33152
1572,33088
1573,33024
1574,33152
1575,33280
1576,33408
1577,33600
1578,33728
1579,33984
1580,34176
1581,34368
1582,34496
1583,34432
1584,34176
1585,33856
1586,33792
1587,33792
1588,33920
1589,34048
1590,33984
1591,33856
1592,33664
1593,33664
1594,33728
1595,33792
1596,33856
1597,33792
1598,33728
1599,33920
1600,34048
1601,34048
1602,33920
1603,33920
1604,33856
1605,33728
1606,33600
1607,33600
1608,33600
1609,33664
1610,33728
1611,33856
1612,34048
1613,34240
1614,34240
1615,33984
1616,33728
1617,33600
1618,33664
1619,33792
1620,33920
1621,34048
1622,34112
1623,34112
1624,34112
1625,34176
1626,34304
1627,34368
1628,34304
1629,34176
1630,34112
1631,34240
1632,34560
1633,34880
1634,34944
1635,34816
1636,34688
1637,34816
1638,34816
1639,34496
1640,34240
1641,34112
1642,33920
1643,33472
1644,32960
1645,32704
1646,32640
1647,32704
1648,32832
1649,33024
1650,33152
1651,33280
1652,33344
1653,33344
1654,33472
1655,33600
1656,33792
1657,33920
1658,33984
1659,34112
1660,34560
1661,35712
1662,37568
1663,39872
1664,41600
1665,42176
1666,41408
1667,39040
1668,36544
1669,33920
1670,31552
1671,29824
1672,28864
1673,28864
1674,29568
1675,30400
1676,30976
1677,31424
1678,31872
1679,32320
1680,32704
1681,32832
1682,33024
1683,33280
1684,33472
1685,33472
1686,33472
1687,33600
1688,33536
1689,33344
1690,33216
1691,33216
1692,33344
1693,33472
1694,33600
1695,33664
1696,33792
1697,33792
1698,33856
1699,33920
1700,34048
1701,34176
1702,34368
1703,34496
1704,34432
1705,34304
1706,34304
1707,34368
1708,34432
1709,34432
1710,34240
1711,34048
1712,34048
1713,34112
1714,34240
1715,34432
1716,34368
1717,34240
1718,34048
1719,34112
1720,34240
1721,34368
1722,34496
1723,34496
1724,34560
1725,34560
1726,34624
1727,34688
1728,34752
1729,34816
1730,34816
1731,34688
1732,34496
1733,34368
1734,34368
1735,34368
1736,34368
1737,34368
1738,34560
1739,34624
1740,34432
1741,34240
1742,34048
1743,33856
1744,33664
1745,33600
1746,33664
1747,33664
1748,33600
1749,33408
1750,33280
1751,33216
1752,33344
1753,33472
1754,33472
1755,33344
1756,33216
1757,33152
1758,33216
1759,33280
1760,33216
1761,33216
1762,33280
1763,33408
1764,33408
1765,33408
1766,33536
1767,33728
1768,33728
1769,33600
1770,33664
1771,33728
1772,33920
1773,34048
1774,34112
1775,34176
1776,34112
1777,33984
1778,33920
1779,34048
1780,34112
1781,34048
1782,33984
1783,33920
1784,33856
1785,33728
1786,33792
1787,33856
1788,33856
1789,33792
1790,33856
1791,33920
1792,33728
1793,33600
1794,33600
1795,33792
1796,33920
1797,33856
1798,33856
1799,33984
1800,34176
1801,34240
1802,34240
1803,34240
1804,34304
1805,34432
1806,34624
1807,34752
1808,34880
1809,35072
1810,35264
1811,35200
1812,35072
1813,34688
1814,34240
1815,33856
1816,33408
1817,33088
1818,32960
1819,32896
1820,32896
1821,32960
1822,33088
1823,33152
1824,33152
1825,33216
1826,33280
1827,33216
1828,33152
1829,33216
1830,33408
1831,33664
1832,33856
1833,34240
1834,34752
1835,35072
1836,35520
1837,36416
1838,38144
1839,39872
1840,40896
1841,41088
1842,39872
1843,37120
1844,33920
1845,31424
1846,29952
1847,29312
1848,29248
1849,29760
1850,30464
1851,31168
1852,31552
1853,31808
1854,32064
1855,32256
1856,32384
1857,32768
1858,33152
1859,33792
1860,34560
1861,34560
1862,33856
1863,33408
1864,33216
1865,33408
1866,33600
1867,33536
1868,33536
1869,33856
1870,34240
1871,34432
1872,34304
1873,34048
1874,33728
1875,33536
1876,33408
1877,33408
1878,33600
1879,33792
1880,33856
1881,34048
1882,34368
1883,34624
1884,34624
1885,34560
1886,34496
1887,34560
1888,34944
1889,34944
1890,34560
1891,34432
1892,34368
1893,34240
1894,33984
1895,33664
1896,33600
1897,33728
1898,33856
1899,34176
1900,34688
1901,35200
1902,35264
1903,35008
1904,34880
1905,34688
1906,34624
1907,34624
1908,34752
1909,34688
1910,34752
1911,34944
1912,35008
1913,34752
1914,34496
1915,34368
1916,34432
1917,34560
1918,34496
1919,34240
1920,33920
1921,33600
1922,33408
1923,33344
1924,33280
1925,33344
1926,33472
1927,33408
1928,33472
1929,33728
1930,33792
1931,33408
1932,33024
1933,32832
1934,32832
1935,33088
1936,33472
1937,33792
1938,34048
1939,34112
1940,34048
1941,33984
1942,33984
1943,34176
1944,34368
1945,34496
1946,34560
1947,34560
1948,34560
1949,34560
1950,34560
1951,34560
1952,34624
1953,34560
1954,34432
1955,34432
1956,34496
1957,34560
1958,34560
1959,34752
1960,34880
1961,35008
1962,35136
1963,35200
1964,35264
1965,35392
1966,35584
1967,35520
1968,35328
1969,34944
1970,34752
1971,34688
1972,34432
1973,34176
1974,33920
1975,33856
1976,33920
1977,33984
1978,33792
1979,33472
1980,33216
1981,33024
1982,32960
1983,33216
1984,33600
1985,33728
1986,33536
1987,33280
1988,33152
1989,33152
1990,33280
1991,33536
1992,34112
1993,34880
1994,35776
1995,37184
1996,38848
1997,39936
1998,39936
1999,38784
2000,37056
2001,35200
2002,33408
2003,31744
2004,30592
2005,30208
2006,30336
2007,30656
2008,31104
2009,31616
2010,32128
2011,32576
2012,32960
2013,33280
2014,33536
2015,34112
2016,35392
2017,36928
2018,37120
2019,36352
2020,35520
2021,33664
2022,31424
2023,30144
2024,30016
2025,30592
2026,31552
2027,32448
2028,33152
2029,33792
2030,34304
2031,34560
2032,34624
2033,34624
2034,34624
2035,34624
2036,34688
2037,34752
2038,34880
2039,35008
2040,35072
2041,35008
2042,34944
2043,34880
2044,34816
2045,34816
2046,34880
2047,34944
2048,35008
2049,35072
2050,35072
2051,35008
2052,34944
2053,34880
2054,34816
2055,34880
2056,34880
2057,34880
2058,34944
2059,34944
2060,34944
2061,34944
2062,34944
2063,35072
2064,35136
2065,35136
2066,35136
2067,35136
2068,35072
2069,34944
2070,34688
2071,34624
2072,34624
2073,34624
2074,34496
2075,34368
2076,34112
2077,33856
2078,33856
2079,33856
2080,33600
2081,33216
2082,32896
2083,32768
2084,32896
2085,32960
2086,33024
2087,33152
2088,33280
2089,33344
2090,33472
2091,33728
2092,33856
2093,33920
2094,33856
2095,33792
2096,33792
2097,33856
2098,33920
2099,33920
2100,33984
2101,34112
2102,34240
2103,34304
2104,34304
2105,34240
2106,34112
2107,33920
2108,33920
2109,34048
2110,34048
2111,33792
2112,33792
2113,33984
2114,34240
2115,34368
2116,34432
2117,34368
2118,34304
2119,34240
2120,34240
2121,34368
2122,34560
2123,34688
2124,34688
2125,34688
2126,34752
2127,34624
2128,34496
2129,34560
2130,34688
2131,34560
2132,34240
2133,33792
2134,33472
2135,33280
2136,33152
2137,33344
2138,33536
2139,33344
2140,33216
2141,33216
2142,33280
2143,33216
2144,33088
2145,33088
2146,33152
2147,33152
2148,33088
2149,33152
2150,33664
2151,34496
2152,35648
2153,37312
2154,39424
2155,41216
2156,41856
2157,41408
2158,39872
2159,37504
2160,34816
2161,32320
2162,30656
2163,29824
2164,29696
2165,30080
2166,30848
2167,31616
2168,32256
2169,32576
2170,32704
2171,32832
2172,32960
2173,33152
2174,33472
2175,33664
2176,33664
2177,33536
2178,33216
2179,33024
2180,33088
2181,33280
2182,33408
2183,33600
2184,33920
2185,34112
2186,34304
2187,34368
2188,34304
2189,34304
2190,34368
2191,34496
2192,34560
2193,34368
2194,34112
2195,34048
2196,34176
2197,34240
2198,34368
2199,34560
2200,34624
2201,34560
2202,34560
2203,34496
2204,34432
2205,34496
2206,34560
2207,34688
2208,34816
2209,34880
2210,34816
2211,34688
2212,34560
2213,34560
2214,34624
2215,34688
2216,34752
2217,34816
2218,34880
2219,34944
2220,34944
2221,35072
2222,35136
2223,35200
2224,35008
2225,34816
2226,34752
2227,34688
2228,34560
2229,34432
2230,34432
2231,34624
2232,34752
2233,34752
2234,34496
2235,34048
2236,33600
2237,33280
2238,33152
2239,33152
2240,33216
2241,33344
2242,33408
2243,33344
2244,33280
2245,33280
2246,33472
2247,33792
2248,33920
2249,33856
2250,33536
2251,33216
2252,32960
2253,32832
2254,33024
2255,33216
2256,33344
2257,33472
2258,33536
2259,33664
2260,33664
2261,33728
2262,33856
2263,34048
2264,34048
2265,33984
2266,33984
2267,33856
2268,33792
2269,33728
2270,33792
2271,34048
2272,34112
2273,34048
2274,34048
2275,34112
2276,34112
2277,34112
2278,34112
2279,33984
2280,33792
2281,33664
2282,33792
2283,33920
2284,34112
2285,34304
2286,34560
2287,34752
2288,34688
2289,34496
2290,34496
2291,34496
2292,34688
2293,34816
2294,34880
2295,34944
2296,34880
2297,34816
2298,34816
2299,34688
2300,34432
2301,34112
2302,33920
2303,33664
2304,33408
2305,33216
2306,33088
2307,32960
2308,32960
2309,33152
2310,33344
2311,33344
2312,33280
2313,33280
2314,33472
2315,33728
2316,33856
2317,33984
2318,34112
2319,34240
2320,34496
2321,35264
2322,36736
2323,38656
2324,40512
2325,41472
2326,41472
2327,40320
2328,38144
2329,35456
2330,32960
2331,31168
2332,30080
2333,29760
2334,30080
2335,30656
2336,31232
2337,31744
2338,32128
2339,32512
2340,32768
2341,32832
2342,32896
2343,32960
2344,32896
2345,32960
2346,33152
2347,33472
2348,33600
2349,33600
2350,33664
2351,33664
2352,33728
2353,33792
2354,33920
2355,34176
2356,34240
2357,34112
2358,33920
2359,33856
2360,33856
2361,33856
2362,33792
2363,33856
2364,33920
2365,33984
2366,33984
2367,34176
2368,34304
2369,34368
2370,34368
2371,34432
2372,34560
2373,34624
2374,34624
2375,34560
2376,34432
2377,34432
2378,34432
2379,34560
2380,34624
2381,34688
2382,34816
2383,34816
2384,34816
2385,34880
2386,34944
2387,35008
2388,35008
2389,34944
2390,34816
2391,34560
2392,34496
2393,34496
2394,34624
2395,34688
2396,34752
2397,34688
2398,34560
2399,34432
2400,34176
2401,34048
2402,33984
2403,33856
2404,33792
2405,33664
2406,33600
2407,33472
2408,33408
2409,33408
2410,33408
2411,33280
2412,33216
2413,33216
2414,33216
2415,33088
2416,33088
2417,33152
2418,33280
2419,33344
2420,33344
2421,33280
2422,33216
2423,33152
2424,33216
2425,33216
2426,33344
2427,33472
2428,33472
2429,33536
2430,33664
2431,33792
2432,33920
2433,33984
2434,33920
2435,33792
2436,33664
2437,33664
2438,33792
2439,33856
2440,33856
2441,33792
2442,33728
2443,33664
2444,33536
2445,33472
2446,33408
2447,33472
2448,33472
2449,33536
2450,33600
2451,33728
2452,33792
2453,33792
2454,33856
2455,33856
2456,33856
2457,33856
2458,33856
2459,33920
2460,33984
2461,33984
2462,33920
2463,33984
2464,34112
2465,34176
2466,34240
2467,34176
2468,34176
2469,34112
2470,34048
2471,34048
2472,34176
2473,34368
2474,34368
2475,34432
2476,34432
2477,34368
2478,34240
2479,34176
2480,34176
2481,34176
2482,33984
2483,33792
2484,33472
2485,33344
2486,33216
2487,33216
2488,33152
2489,33088
2490,33024
2491,32960
2492,33024
2493,33088
2494,33152
2495,33088
2496,33216
2497,33344
2498,33472
2499,33600
2500,33792
2501,34176
2502,34880
2503,36224
2504,38208
2505,40064
2506,40960
2507,40576
2508,38976
2509,36672
2510,34368
2511,32320
2512,30720
2513,29696
2514,29312
2515,29568
2516,30272
2517,31040
2518,31680
2519,32256
2520,32576
2521,32832
2522,33024
2523,33152
2524,33280
2525,33344
2526,33472
2527,33600
2528,33664
2529,33664
2530,33728
2531,33792
2532,33664
2533,33472
2534,33344
2535,33408
2536,33472
2537,33536
2538,33536
2539,33536
2540,33472
2541,33536
2542,33664
2543,33792
2544,33920
2545,33920
2546,33920
2547,33984
2548,34112
2549,34176
2550,34240
2551,34368
2552,34432
2553,34432
2554,34368
2555,34240
2556,34176
2557,34112
2558,34112
2559,34176
2560,34240
2561,34240
2562,34240
2563,34304
2564,34368
2565,34304
2566,34304
2567,34368
2568,34368
2569,34368
2570,34368
2571,34432
2572,34496
2573,34496
2574,34432
2575,34432
2576,34496
2577,34496
2578,34496
2579,34560
2580,34560
2581,34560
2582,34496
2583,34368
2584,34240
2585,34176
2586,34048
2587,33920
2588,33792
2589,33728
2590,33600
2591,33472
2592,33408
2593,33344
2594,33344
2595,33280
2596,33216
2597,33152
2598,33088
2599,33088
2600,33152
2601,33280
2602,33472
2603,33536
2604,33664
2605,33728
2606,33792
2607,33856
2608,33920
2609,34048
2610,34112
2611,34176
2612,34240
2613,34304
2614,34304
2615,34240
2616,34048
2617,33920
2618,33856
2619,33856
2620,33856
2621,33856
2622,33920
2623,33920
2624,33984
2625,33984
2626,33984
2627,33920
2628,33856
2629,33792
2630,33792
2631,33856
2632,33920
2633,33920
2634,34176
2635,34304
2636,34432
2637,34496
2638,34560
2639,34688
2640,34816
2641,34816
2642,34752
2643,34688
2644,34624
2645,34432
2646,34304
2647,34240
2648,34112
2649,33984
2650,33856
2651,33664
2652,33472
2653,33280
2654,33088
2655,32960
2656,32960
2657,33088
2658,33280
2659,33472
2660,33472
2661,33408
2662,33280
2663,33280
2664,33280
2665,33280
2666,33216
2667,33472
2668,33984
2669,34816
2670,36160
2671,38080
2672,40192
2673,41408
2674,41280
2675,39936
2676,37632
2677,35008
2678,32640
2679,30848
2680,29824
2681,29568
2682,29952
2683,30656
2684,31360
2685,32000
2686,32448
2687,32768
2688,32960
2689,33088
2690,33152
2691,33152
2692,33216
2693,33344
2694,33536
2695,33472
2696,33408
2697,33408
2698,33536
2699,33664
2700,33728
2701,33856
2702,33920
2703,34048
2704,34112
2705,34240
2706,34240
2707,34176
2708,34176
2709,34240
2710,34240
2711,34176
2712,34176
2713,34176
2714,34240
2715,34112
2716,33984
2717,33984
2718,34112
2719,34176
2720,34176
2721,34240
2722,34368
2723,34432
2724,34432
2725,34496
2726,34560
2727,34560
2728,34560
2729,34560
2730,34624
2731,34688
2732,34752
2733,34752
2734,34816
2735,34880
2736,34816
2737,34816
2738,34880
2739,34880
2740,34880
2741,34816
2742,34688
2743,34624
2744,34496
2745,34368
2746,34368
2747,34368
2748,34368
2749,34240
2750,34112
2751,34048
2752,33920
2753,33792
2754,33664
2755,33664
2756,33600
2757,33536
2758,33536
2759,33472
2760,33408
2761,33408
2762,33344
2763,33344
2764,33344
2765,33344
2766,33344
2767,33408
2768,33472
2769,33536
2770,33536
2771,33600
2772,33728
2773,33792
2774,33856
2775,33856
2776,33856
2777,33856
2778,33920
2779,33920
2780,33984
2781,33984
2782,34048
2783,34048
2784,34112
2785,34176
2786,34112
2787,33984
2788,33984
2789,33984
2790,33920
2791,33920
2792,33920
2793,33984
2794,33984
2795,33920
2796,33856
2797,33792
2798,33920
2799,34112
2800,34176
2801,34304
2802,34432
2803,34496
2804,34496
2805,34560
2806,34624
2807,34688
2808,34688
2809,34688
2810,34624
2811,34688
2812,34624
2813,34624
2814,34624
2815,34496
2816,34240
2817,34048
2818,33792
2819,33536
2820,33280
2821,33152
2822,33152
2823,33152
2824,33152
2825,33088
2826,33152
2827,33280
2828,33408
2829,33472
2830,33536
2831,33664
2832,33728
2833,33856
2834,34176
2835,34752
2836,35584
2837,36864
2838,38976
2839,40704
2840,41536
2841,41024
2842,39360
2843,36928
2844,33216
2845,31936
2846,30400
2847,29568
2848,29504
2849,29952
2850,30720
2851,31488
2852,32064
2853,32512
2854,32768
2855,32960
2856,33152
2857,33280
2858,33344
2859,33536
2860,33600
2861,33664
2862,33664
2863,33600
2864,33600
2865,33600
2866,33600
2867,33600
2868,33728
2869,33856
2870,33920
2871,33920
2872,33856
2873,33856
2874,33856
2875,33920
2876,34112
2877,34176
2878,34176
2879,34112
2880,34112
2881,34112
2882,34112
2883,34112
2884,34176
2885,34240
2886,34304
2887,34304
2888,34304
2889,34432
2890,34496
2891,34496
2892,34560
2893,34624
2894,34688
2895,34624
2896,34560
2897,34560
2898,34560
2899,34560
2900,34560
2901,34560
2902,34560
2903,34560
2904,34560
2905,34560
2906,34560
2907,34560
2908,34496
2909,34432
2910,34432
2911,34432
2912,34368
2913,34304
2914,34368
2915,34368
2916,34240
2917,34048
2918,33856
2919,33728
2920,33600
2921,33600
2922,33600
2923,33600
2924,33472
2925,33280
2926,33280
2927,33280
2928,33408
2929,33472
2930,33536
2931,33536
2932,33472
2933,33408
2934,33472
2935,33600
2936,33664
2937,33664
2938,33664
2939,33728
2940,33728
2941,33728
2942,33792
2943,33792
2944,33792
2945,33856
2946,33920
2947,33984
2948,34048
2949,34176
2950,34176
2951,34048
2952,33920
2953,33792
2954,33792
2955,33856
2956,33920
2957,33920
2958,33792
2959,33728
2960,33664
2961,33664
2962,33728
2963,33856
2964,33984
2965,33984
2966,33984
2967,33920
2968,33920
2969,34048
2970,34240
2971,34432
2972,34560
2973,34752
2974,34752
2975,34752
2976,34816
2977,34880
2978,34944
2979,34816
2980,34752
2981,34752
2982,34624
2983,34560
2984,34496
2985,34432
2986,34304
2987,34048
2988,33792
2989,33472
2990,33280
2991,33088
2992,33024
2993,33024
2994,33152
2995,33216
2996,33344
2997,33472
2998,33472
2999,33472
3000,33600
3001,33600
3002,33664
3003,33600
3004,34304
3005,35200
3006,36672
3007,38784
3008,40832
3009,41984
3010,41984
3011,40384
3012,37888
3013,35008
3014,32320
3015,30336
3016,29312
3017,29184
3018,29760
3019,30656
3020,31424
3021,32064
3022,32448
3023,32640
3024,32768
3025,32768
3026,33088
3027,33216
3028,33280
3029,33408
3030,33408
3031,33408
3032,33408
3033,33408
3034,33536
3035,33600
3036,33664
3037,33728
3038,33728
3039,33792
3040,33792
3041,33792
3042,33920
3043,34048
3044,34176
3045,34240
3046,34240
3047,34240
3048,34176
3049,34176
3050,34176
3051,34240
3052,34240
3053,34112
3054,34112
3055,34176
3056,34240
3057,34304
3058,34304
3059,34368
3060,34368
3061,34304
3062,34304
3063,34304
3064,34432
3065,34496
3066,34560
3067,34688
3068,34688
3069,34496
3070,34240
3071,34176
3072,34176
3073,34176
3074,34176
3075,34240
3076,34368
3077,34368
3078,34304
3079,34304
3080,34368
3081,34496
3082,34560
3083,34560
3084,34496
3085,34432
3086,34240
3087,34112
3088,33984
3089,33856
3090,33728
3091,33600
3092,33600
3093,33536
3094,33408
3095,33344
3096,33280
3097,33344
3098,33344
3099,33408
3100,33408
3101,33472
3102,33536
3103,33536
3104,33536
3105,33600
3106,33664
3107,33664
3108,33664
3109,33600
3110,33792
3111,33792
3112,33856
3113,33920
3114,33984
3115,33984
3116,33920
3117,33984
3118,34048
3119,34112
3120,34048
3121,34048
3122,34112
3123,34048
3124,33984
3125,34048
3126,34048
3127,34048
3128,33984
3129,33984
3130,33984
3131,34048
3132,33984
3133,34048
3134,34112
3135,34112
3136,34112
3137,34176
3138,34304
3139,34368
3140,34368
3141,34240
3142,34176
3143,34240
3144,34304
3145,34368
3146,34496
3147,34560
3148,34688
3149,34688
3150,34688
3151,34752
3152,34752
3153,34752
3154,34688
3155,34752
3156,34624
3157,34176
3158,33856
3159,33472
3160,33216
3161,33088
3162,32960
3163,33024
3164,33088
3165,33216
3166,33280
3167,33408
3168,33536
3169,33664
3170,33728
3171,33792
3172,33728
3173,33664
3174,33728
3175,34240
3176,35136
3177,36416
3178,38272
3179,40448
3180,41856
3181,42176
3182,40832
3183,38272
3184,35328
3185,32576
3186,30528
3187,29376
3188,29120
3189,29568
3190,30336
3191,31104
3192,31808
3193,32320
3194,32640
3195,32768
3196,32896
3197,33024
3198,33152
3199,33216
3200,33280
3201,33408
3202,33472
3203,33536
3204,33600
3205,33728
3206,33792
3207,33792
3208,33728
3209,33792
3210,33792
3211,33856
3212,33856
3213,33984
3214,33920
3215,34048
3216,33984
3217,33984
3218,34048
3219,34112
3220,34176
3221,34176
3222,34176
3223,34112
3224,34112
3225,34176
3226,34240
3227,34304
3228,34368
3229,34368
3230,34432
3231,34496
3232,34496
3233,34496
3234,34560
3235,34624
3236,34560
3237,34496
3238,34496
3239,34560
3240,34496
3241,34496
3242,34496
3243,34560
3244,34496
3245,34496
3246,34496
3247,34496
3248,34496
3249,34496
3250,34432
3251,34368
3252,34368
3253,34304
3254,34304
3255,34304
3256,34368
3257,34304
3258,34240
3259,34112
3260,33920
3261,33728
3262,33600
3263,33600
3264,33600
3265,33536
3266,33472
3267,33408
3268,33408
3269,33408
3270,33344
3271,33344
3272,33280
3273,33280
3274,33344
3275,33408
3276,33536
3277,33664
3278,33664
3279,33792
3280,33856
3281,33984
3282,34048
3283,34176
3284,34240
3285,34176
3286,34176
3287,34112
3288,34112
3289,34112
3290,34048
3291,33920
3292,33920
3293,33984
3294,33984
3295,33856
3296,33728
3297,33664
3298,33728
3299,33728
3300,33856
3301,33920
3302,33984
3303,33984
3304,33984
3305,34048
3306,34112
3307,34048
3308,33984
3309,33920
3310,33920
3311,33856
3312,33856
3313,33984
3314,34176
3315,34304
3316,34432
3317,34560
3318,34560
3319,34496
3320,34496
3321,34752
3322,35008
3323,35008
3324,34880
3325,34752
3326,34688
3327,34688
3328,34560
3329,34368
3330,34240
3331,34112
3332,33920
3333,33600
3334,33408
3335,33216
3336,33152
3337,33152
3338,33216
3339,33408
3340,33472
3341,33472
3342,33472
3343,33536
3344,33536
3345,33536
3346,33536
3347,33664
3348,33792
3349,34240
3350,35136
3351,36544
3352,38592
3353,40320
3354,41216
3355,40896
3356,39360
3357,36992
3358,34368
3359,32064
3360,30528
3361,29696
3362,29504
3363,29888
3364,30656
3365,31360
3366,32000
3367,32448
3368,32832
3369,33088
3370,33216
3371,33152
3372,33216
3373,33216
3374,33216
3375,33280
3376,33408
3377,33536
3378,33600
3379,33664
3380,33728
3381,33728
3382,33728
3383,33728
3384,33792
3385,33920
3386,33856
3387,33728
3388,33728
3389,33728
3390,33728
3391,33728
3392,33728
3393,33920
3394,33984
3395,34112
3396,34112
3397,34112
3398,34112
3399,34048
3400,33984
3401,34048
3402,34112
3403,34176
3404,34240
3405,34304
3406,34368
3407,34432
3408,34432
3409,34368
3410,34432
3411,34368
3412,34304
3413,34368
3414,34432
3415,34368
3416,34240
3417,34176
3418,34240
3419,34304
3420,34240
3421,34240
3422,34240
3423,34240
3424,34240
3425,34176
3426,34240
3427,34304
3428,34240
3429,34240
3430,34176
3431,34112
3432,34048
3433,33920
3434,33856
3435,33728
3436,33600
3437,33472
3438,33472
3439,33408
3440,33344
3441,33280
3442,33280
3443,33344
3444,33408
3445,33408
3446,33408
3447,33472
3448,33600
3449,33664
3450,33728
3451,33856
3452,33856
3453,33728
3454,33664
3455,33728
3456,33792
3457,33856
3458,33920
3459,33984
3460,34048
3461,34048
3462,33984
3463,33920
3464,33920
3465,33920
3466,33856
3467,33792
3468,33856
3469,33856
3470,33856
3471,33792
3472,33792
3473,33856
3474,33792
3475,33728
3476,33792
3477,33856
3478,33920
3479,33920
3480,34112
3481,34176
3482,34176
3483,34112
3484,34176
3485,34368
3486,34560
3487,34624
3488,34752
3489,34816
3490,34880
3491,34880
3492,34816
3493,34560
3494,34176
3495,33792
3496,33472
3497,33280
3498,33216
3499,33088
3500,33088
3501,33280
3502,33408
3503,33408
3504,33280
3505,33216
3506,33088
3507,33024
3508,33024
3509,33024
3510,33024
3511,33216
3512,33664
3513,34432
3514,35648
3515,37376
3516,39168
3517,40064
3518,39808
3519,38464
3520,36800
3521,34880
3522,33152
3523,31744
3524,30656
3525,30144
3526,30336
3527,30912
3528,31744
3529,32320
3530,32832
3531,33216
3532,33344
3533,33344
3534,33280
3535,33216
3536,33280
3537,33472
3538,33728
3539,33984
3540,34176
3541,34112
3542,33984
3543,33984
3544,33920
3545,33920
3546,33920
3547,33984
3548,34048
3549,33984
3550,33920
3551,33920
3552,33920
3553,33984
3554,34048
3555,34112
3556,34176
3557,34176
3558,34304
3559,34368
3560,34432
3561,34368
3562,34304
3563,34304
3564,34432
3565,34432
3566,34304
3567,34240
3568,34304
3569,34432
3570,34496
3571,34368
3572,34432
3573,34560
3574,34624
3575,34560
3576,34560
3577,34624
3578,34624
3579,34496
3580,34496
3581,34560
3582,34624
3583,34560
3584,34560
3585,34560
3586,34560
3587,34496
3588,34432
3589,34368
3590,34368
3591,34432
3592,34432
3593,34432
3594,34368
3595,34240
3596,34048
3597,33984
3598,33920
3599,33856
3600,33792
3601,33728
3602,33600
3603,33536
3604,33472
3605,33536
3606,33664
3607,33728
3608,33856
3609,33920
3610,33984
3611,33920
3612,33920
3613,33920
3614,33920
3615,33856
3616,33728
3617,33728
3618,33920
3619,33984
3620,34048
3621,34112
3622,34240
3623,34240
3624,34176
3625,34112
3626,34048
3627,33984
3628,33984
3629,33984
3630,34048
3631,34112
3632,34112
3633,34048
3634,34048
3635,34048
3636,34048
3637,33984
3638,34048
3639,34240
3640,34304
3641,34368
3642,34304
3643,34368
3644,34496
3645,34752
3646,34944
3647,34944
3648,35008
3649,35008
3650,35008
3651,34944
3652,34880
3653,34752
3654,34432
3655,34048
3656,33728
3657,33408
3658,33152
3659,33024
3660,33024
3661,33024
3662,32960
3663,32960
3664,33088
3665,33152
3666,33216
3667,33280
3668,33344
3669,33344
3670,33344
3671,33472
3672,33792
3673,34304
3674,35072
3675,36288
3676,38272
3677,40256
3678,41088
3679,40512
3680,38784
3681,36480
3682,34048
3683,31936
3684,30464
3685,29760
3686,29696
3687,30144
3688,30848
3689,31680
3690,32320
3691,32640
3692,32896
3693,33152
3694,33408
3695,33600
3696,33728
3697,33664
3698,33600
3699,33664
3700,33792
3701,33920
3702,34048
3703,33984
3704,33856
3705,33856
3706,33920
3707,34112
3708,34112
3709,34112
3710,34112
3711,34112
3712,34048
3713,33984
3714,34048
3715,34112
3716,34176
3717,34176
3718,34176
3719,34240
3720,34240
3721,34240
3722,34368
3723,34560
3724,34560
3725,34432
3726,34368
3727,34560
3728,34688
3729,34752
3730,34688
3731,34688
3732,34688
3733,34624
3734,34560
3735,34624
3736,34752
3737,34752
3738,34688
3739,34496
3740,34368
3741,34240
3742,34176
3743,34240
3744,34368
3745,34432
3746,34432
3747,34496
3748,34560
3749,34560
3750,34560
3751,34624
3752,34688
3753,34688
3754,34624
3755,34496
3756,34432
3757,34304
3758,34112
3759,33920
3760,33792
3761,33664
3762,33664
3763,33664
3764,33664
3765,33664
3766,33600
3767,33664
3768,33792
3769,33920
3770,33920
3771,33792
3772,33728
3773,33728
3774,33792
3775,33856
3776,34048
3777,34112
3778,34112
3779,33984
3780,33920
3781,34048
3782,34240
3783,34304
3784,34304
3785,34304
3786,34240
3787,34240
3788,34112
3789,34048
3790,34112
3791,34176
3792,34304
3793,34432
3794,34496
3795,34624
3796,34688
3797,34816
3798,34880
3799,34688
3800,34688
3801,34752
3802,34880
3803,34944
3804,34880
3805,34752
3806,34752
3807,34816
3808,34816
3809,34688
3810,34560
3811,34432
3812,34240
3813,33920
3814,33664
3815,33472
3816,33344
3817,33280
3818,33216
3819,33280
3820,33344
3821,33472
3822,33536
3823,33536
3824,33408
3825,33344
3826,33408
3827,33600
3828,33792
3829,34176
3830,34816
3831,35776
3832,37312
3833,39232
3834,40832
3835,41280
3836,40384
3837,38400
3838,35968
3839,33536
3840,31616
3841,30272
3842,29696
3843,29824
3844,30464
3845,31232
3846,31872
3847,32320
3848,32768
3849,32960
3850,33088
3851,33216
3852,33408
3853,33536
3854,33728
3855,33856
3856,34048
3857,34240
3858,34240
3859,34176
3860,34240
3861,34240
3862,34112
3863,34048
3864,34048
3865,34112
3866,34112
3867,34112
3868,34176
3869,34240
3870,34176
3871,34176
3872,34240
3873,34368
3874,34432
3875,34432
3876,34496
3877,34496
3878,34496
3879,34496
3880,34496
3881,34624
3882,34752
3883,34752
3884,34752
3885,34752
3886,34752
3887,34688
3888,34624
3889,34624
3890,34688
3891,34688
3892,34688
3893,34688
3894,34624
3895,34560
3896,34560
3897,34560
3898,34624
3899,34624
3900,34560
3901,34624
3902,34752
3903,34880
3904,34880
3905,34880
3906,34944
3907,34944
3908,34816
3909,34560
3910,34368
3911,34176
3912,34112
3913,34048
3914,34048
3915,34048
3916,33920
3917,33920
3918,33856
3919,33792
3920,33664
3921,33600
3922,33600
3923,33664
3924,33728
3925,33728
3926,33792
3927,33856
3928,33920
3929,33856
3930,33856
3931,33984
3932,34112
3933,34176
3934,34240
3935,34304
3936,34368
3937,34304
3938,34304
3939,34432
3940,34432
3941,34432
3942,34432
3943,34432
3944,34368
3945,34240
3946,34176
3947,34112
3948,34176
3949,34240
3950,34304
3951,34368
3952,34368
3953,34432
3954,34432
3955,34496
3956,34624
3957,34752
3958,34816
3959,34816
3960,34944
3961,35136
3962,35264
3963,35264
3964,35264
3965,35200
3966,35136
3967,35008
3968,35008
3969,34944
3970,34752
3971,34496
3972,34176
3973,33856
3974,33600
3975,33408
3976,33344
3977,33344
3978,33472
3979,33600
3980,33600
3981,33664
3982,33728
3983,33728
3984,33728
3985,33792
3986,33792
3987,33728
3988,33920
3989,34432
3990,35392
3991,36672
3992,38592
3993,40640
3994,41792
3995,41728
3996,40256
3997,37888
3998,35328
3999,33024
4000,31232
4001,30208
4002,29888
4003,30208
4004,30848
4005,31616
4006,32256
4007,32768
4008,33088
4009,33344
4010,33536
4011,33728
4012,33728
4013,33728
4014,33728
4015,33792
4016,33920
4017,33984
4018,34112
4019,34240
4020,34304
4021,34240
4022,34240
4023,34368
4024,34432
4025,34432
4026,34368
4027,34432
4028,34432
4029,34432
4030,34496
4031,34560
4032,34560
4033,34560
4034,34496
4035,34496
4036,34496
4037,34496
4038,34560
4039,34688
4040,34752
4041,34816
4042,34752
4043,34816
4044,34880
4045,34944
4046,34944
4047,35008
4048,35072
4049,35072
4050,35072
4051,34944
4052,34944
4053,34880
4054,34752
4055,34560
4056,34624
4057,34688
4058,34816
4059,34816
4060,34880
4061,34944
4062,34944
4063,34944
4064,34944
4065,34944
4066,34880
4067,34880
4068,34880
4069,34816
4070,34688
4071,34560
4072,34496
4073,34304
4074,34176
4075,34048
4076,33984
4077,33920
4078,33856
4079,33856
4080,33920
4081,33984
4082,34048
4083,34048
4084,34048
4085,34112
4086,34176
4087,34176
4088,34112
4089,34112
4090,34176
4091,34176
4092,34176
4093,34176
4094,34304
4095,34496
4096,34560
4097,34624
4098,34560
4099,34368
4100,34304
4101,34304
4102,34368
4103,34304
4104,34304
4105,34240
4106,34304
4107,34304
4108,34368
4109,34368
4110,34432
4111,34432
4112,34496
4113,34560
4114,34688
4115,34688
4116,34560
4117,34496
4118,34560
4119,34560
4120,34496
4121,34304
4122,34176
4123,34176
4124,34240
4125,34432
4126,34624
4127,34880
4128,35008
4129,35008
4130,34944
4131,34944
4132,35008
4133,35008
4134,35008
4135,35072
4136,35200
4137,35200
4138,35200
4139,35136
4140,35008
4141,34688
4142,34368
4143,34048
4144,33792
4145,33536
4146,33408
4147,33408
4148,33472
4149,33536
4150,33536
4151,33536
4152,33664
4153,33792
4154,33856
4155,33984
4156,33984
4157,33984
4158,34112
4159,34496
4160,35072
4161,36096
4162,37696
4163,39808
4164,41536
4165,41920
4166,41088
4167,39104
4168,36544
4169,33920
4170,31680
4171,30272
4172,29696
4173,29952
4174,30592
4175,31360
4176,32064
4177,32704
4178,33088
4179,33408
4180,33600
4181,33792
4182,33984
4183,34048
4184,33984
4185,33920
4186,33984
4187,34048
4188,34176
4189,34304
4190,34496
4191,34496
4192,34304
4193,34176
4194,34176
4195,34240
4196,34304
4197,34368
4198,34496
4199,34624
4200,34624
4201,34624
4202,34624
4203,34688
4204,34688
4205,34624
4206,34624
4207,34688
4208,34752
4209,34816
4210,34880
4211,34880
4212,34880
4213,34752
4214,34816
4215,35008
4216,35136
4217,35072
4218,35008
4219,34880
4220,34880
4221,34816
4222,34880
4223,34880
4224,34944
4225,34944
4226,34944
4227,35008
4228,35008
4229,34944
4230,34880
4231,34944
4232,34944
4233,34944
4234,34816
4235,34752
4236,34752
4237,34752
4238,34816
4239,35008
4240,35072
4241,35072
4242,34880
4243,34560
4244,34368
4245,34240
4246,34176
4247,34048
4248,33984
4249,33984
4250,33920
4251,33856
4252,33792
4253,33792
4254,33792
4255,33856
4256,33984
4257,34112
4258,34112
4259,34112
4260,34112
4261,34176
4262,34240
4263,34304
4264,34304
4265,34368
4266,34304
4267,34304
4268,34304
4269,34432
4270,34432
4271,34432
4272,34432
4273,34496
4274,34496
4275,34560
4276,34624
4277,34624
4278,34624
4279,34560
4280,34432
4281,34368
4282,34368
4283,34368
4284,34368
4285,34368
4286,34368
4287,34304
4288,34176
4289,34176
4290,34240
4291,34240
4292,34240
4293,34240
4294,34240
4295,34240
4296,34176
4297,34112
4298,34112
4299,34240
4300,34304
4301,34368
4302,34496
4303,34688
4304,34752
4305,34944
4306,35008
4307,35008
4308,34816
4309,34688
4310,34688
4311,34880
4312,35072
4313,35200
4314,35200
4315,35136
4316,35072
4317,34944
4318,34880
4319,34752
4320,34560
4321,34368
4322,34112
4323,33792
4324,33536
4325,33280
4326,33280
4327,33408
4328,33600
4329,33728
4330,33792
4331,33856
4332,33984
4333,34048
4334,33984
4335,33920
4336,33856
4337,34048
4338,34496
4339,35264
4340,36480
4341,38400
4342,40512
4343,41856
4344,41792
4345,40512
4346,38272
4347,35520
4348,33024
4349,31104
4350,30016
4351,29696
4352,30016
4353,30784
4354,31616
4355,32192
4356,32704
4357,33088
4358,33472
4359,33664
4360,33792
4361,33920
4362,33984
4363,33920
4364,33856
4365,33856
4366,33856
4367,33920
4368,34048
4369,34048
4370,34048
4371,34048
4372,34048
4373,34112
4374,34176
4375,34240
4376,34304
4377,34432
4378,34624
4379,34624
4380,34496
4381,34432
4382,34432
4383,34496
4384,34496
4385,34496
4386,34560
4387,34560
4388,34560
4389,34560
4390,34624
4391,34752
4392,34688
4393,34624
4394,34688
4395,34816
4396,34880
4397,34880
4398,34880
4399,34944
4400,34944
4401,34880
4402,34944
4403,34944
4404,34816
4405,34688
4406,34688
4407,34752
4408,34816
4409,34752
4410,34752
4411,34816
4412,34816
4413,34752
4414,34752
4415,34688
4416,34752
4417,34752
4418,34816
4419,34752
4420,34688
4421,34560
4422,34496
4423,34368
4424,34240
4425,34048
4426,33920
4427,33920
4428,33920
4429,33920
4430,33920
4431,33920
4432,33856
4433,33728
4434,33856
4435,34048
4436,34304
4437,34304
4438,33984
4439,33600
4440,33536
4441,33664
4442,33856
4443,33984
4444,34048
4445,34176
4446,34432
4447,34496
4448,34432
4449,34112
4450,33920
4451,33792
4452,33728
4453,33856
4454,34048
4455,34176
4456,34240
4457,34240
4458,34240
4459,34304
4460,34368
4461,34368
4462,34368
4463,34304
4464,34368
4465,34304
4466,34176
4467,33984
4468,33856
4469,33920
4470,34048
4471,34048
4472,34112
4473,34432
4474,34624
4475,34496
4476,34176
4477,33984
4478,34048
4479,34368
4480,34496
4481,34496
4482,34304
4483,34112
4484,34048
4485,34048
4486,34240
4487,34368
4488,34432
4489,34560
4490,34816
4491,35008
4492,35136
4493,35008
4494,34944
4495,34880
4496,34944
4497,35008
4498,35200
4499,35328
4500,35264
4501,35008
4502,34752
4503,34688
4504,34496
4505,34240
4506,34048
4507,33856
4508,33728
4509,33664
4510,33536
4511,33408
4512,33344
4513,33280
4514,33408
4515,33600
4516,33728
4517,33856
4518,33920
4519,33984
4520,34048
4521,34112
4522,34304
4523,34624
4524,35968
4525,37184
4526,39168
4527,41088
4528,41920
4529,41472
4530,39744
4531,37184
4532,34560
4533,32064
4534,30656
4535,29888
4536,29824
4537,30336
4538,31104
4539,31936
4540,32448
4541,32896
4542,33152
4543,33344
4544,33536
4545,33792
4546,33920
4547,33920
4548,33920
4549,33792
4550,33728
4551,33728
4552,33856
4553,33920
4554,33920
4555,33920
4556,33920
4557,34048
4558,34112
4559,34176
4560,34304
4561,34432
4562,34432
4563,34240
4564,34112
4565,34240
4566,34368
4567,34368
4568,34368
4569,34432
4570,34496
4571,34432
4572,34304
4573,34240
4574,34304
4575,34368
4576,34432
4577,34496
4578,34560
4579,34560
4580,34560
4581,34496
4582,34432
4583,34496
4584,34688
4585,34752
4586,34816
4587,34752
4588,34624
4589,34432
4590,34496
4591,34624
4592,34624
4593,34368
4594,34112
4595,34112
4596,34176
4597,34304
4598,34496
4599,34688
4600,34688
4601,34624
4602,34496
4603,34432
4604,34432
4605,34432
4606,34432
4607,34368
4608,34176
4609,33984
4610,33856
4611,33792
4612,33664
4613,33472
4614,33408
4615,33536
4616,33600
4617,33600
4618,33536
4619,33408
4620,33408
4621,33472
4622,33472
4623,33536
4624,33664
4625,33792
4626,33792
4627,33856
4628,33984
4629,34048
4630,33984
4631,33984
4632,33984
4633,33856
4634,33856
4635,33920
4636,34048
4637,34176
4638,34240
4639,34176
4640,34240
4641,34176
4642,34048
4643,33856
4644,33792
4645,33856
4646,33920
4647,33920
4648,33856
4649,33792
4650,33792
4651,33856
4652,33856
4653,33792
4654,33728
4655,33600
4656,33664
4657,33728
4658,33792
4659,33856
4660,33920
4661,33920
4662,33984
4663,33984
4664,34112
4665,34176
4666,34176
4667,34112
4668,34048
4669,34112
4670,34176
4671,34112
4672,34112
4673,34176
4674,34432
4675,34688
4676,34752
4677,34880
4678,34880
4679,34752
4680,34496
4681,34368
4682,34304
4683,34240
4684,33984
4685,33728
4686,33472
4687,33344
4688,33216
4689,33280
4690,33344
4691,33408
4692,33408
4693,33280
4694,33216
4695,33152
4696,33152
4697,33280
4698,33408
4699,33408
4700,33472
4701,33792
4702,34304
4703,35072
4704,36928
4705,38144
4706,40000
4707,41280
4708,41344
4709,40000
4710,37568
4711,34816
4712,32320
4713,30464
4714,29440
4715,29248
4716,29760
4717,30464
4718,31168
4719,31808
4720,32384
4721,32768
4722,33024
4723,33216
4724,33408
4725,33536
4726,33472
4727,33344
4728,33344
4729,33344
4730,33408
4731,33472
4732,33536
4733,33664
4734,33856
4735,33920
4736,33984
4737,33920
4738,33856
4739,33856
4740,33792
4741,33792
4742,33792
4743,33792
4744,33792
4745,33856
4746,33984
4747,33984
4748,33984
4749,34112
4750,34048
4751,34048
4752,34048
4753,34176
4754,34368
4755,34496
4756,34432
4757,34240
4758,34176
4759,34304
4760,34304
4761,34304
4762,34304
4763,34368
4764,34240
4765,34176
4766,34112
4767,34176
4768,34240
4769,34432
4770,34624
4771,34496
4772,34304
4773,34176
4774,34176
4775,34304
4776,34432
4777,34624
4778,34560
4779,34368
4780,34176
4781,34048
4782,33920
4783,33856
4784,33792
4785,33728
4786,33728
4787,33728
4788,33664
4789,33600
4790,33472
4791,33344
4792,33152
4793,33088
4794,33088
4795,33152
4796,33280
4797,33472
4798,33472
4799,33344
4800,33280
4801,33216
4802,33280
4803,33344
4804,33408
4805,33408
4806,33344
4807,33344
4808,33472
4809,33728
4810,33792
4811,33856
4812,33856
4813,33856
4814,33792
4815,33856
4816,33984
4817,33984
4818,33984
4819,34048
4820,33856
4821,33664
4822,33536
4823,33472
4824,33408
4825,33408
4826,33408
4827,33472
4828,33536
4829,33472
4830,33408
4831,33536
4832,33728
4833,33728
4834,33664
4835,33536
4836,33472
4837,33408
4838,33600
4839,33536
4840,33600
4841,33856
4842,33792
4843,33792
4844,33856
4845,33920
4846,34048
4847,34048
4848,34176
4849,34176
4850,34176
4851,34240
4852,34368
4853,34560
4854,34496
4855,34496
4856,34368
4857,34368
4858,34368
4859,34368
4860,34368
4861,34432
4862,34304
4863,34176
4864,33920
4865,33728
4866,33408
4867,33088
4868,32832
4869,32768
4870,32768
4871,32896
4872,33024
4873,33280
4874,33408
4875,33408
4876,33344
4877,33344
4878,33344
4879,33216
4880,33216
4881,33600
4882,34368
4883,35648
4884,35648
4885,39232
4886,40832
4887,41408
4888,40576
4889,38656
4890,36032
4891,33408
4892,31168
4893,29760
4894,29120
4895,29248
4896,29952
4897,30720
4898,31680
4899,31744
4900,32256
4901,32512
4902,32640
4903,32832
4904,32960
4905,33024
4906,33152
4907,33280
4908,33408
4909,33408
4910,33408
4911,33408
4912,33280
4913,33280
4914,33216
4915,33600
4916,33728
4917,33792
4918,33792
4919,33728
4920,33728
4921,33792
4922,33856
4923,33920
4924,33920
4925,33856
4926,33792
4927,33920
4928,34176
4929,34112
4930,34112
4931,34112
4932,34176
4933,34304
4934,34240
4935,34176
4936,34176
4937,34240
4938,34304
4939,34432
4940,34496
4941,34496
4942,34368
4943,34304
4944,34240
4945,34368
4946,34496
4947,34496
4948,34368
4949,34368
4950,34368
4951,34304
4952,34240
4953,34176
4954,34176
4955,34176
4956,34304
4957,34176
4958,33984
4959,33792
4960,33728
4961,33792
4962,33792
4963,33792
4964,33792
4965,33792
4966,33856
4967,33792
4968,33664
4969,33600
4970,33472
4971,33344
4972,33152
4973,33024
4974,32960
4975,32896
4976,32896
4977,33088
4978,33344
4979,33344
4980,33152
4981,33088
4982,33280
4983,33344
4984,33280
4985,33280
4986,33408
4987,33536
4988,33600
4989,33728
4990,33728
4991,33792
4992,33728
4993,33728
4994,33856
4995,33920
4996,33856
4997,33728
4998,33664
4999,33728
5000,33792
5001,33664
5002,33536
5003,33536
5004,33728
5005,33792
5006,33792
5007,33664
5008,33536
5009,33472
5010,33408
5011,33408
5012,33536
5013,33664
5014,33856
5015,33920
5016,33728
5017,33472
5018,33280
5019,33344
5020,33408
5021,33408
5022,33408
5023,33408
5024,33536
5025,33664
5026,33856
5027,34048
5028,34240
5029,34432
5030,34432
5031,34304
5032,34176
5033,34240
5034,34304
5035,34304
5036,34368
5037,34432
5038,34432
5039,34368
5040,34368
5041,34368
5042,34176
5043,33856
5044,33600
5045,33408
5046,33280
5047,33152
5048,33088
5049,32960
5050,32896
5051,32896
5052,33024
5053,33088
5054,33152
5055,33216
5056,33216
5057,33344
5058,33344
5059,33344
5060,33472
5061,33920
5062,34752
5063,36096
5064,38144
5065,40256
5066,41472
5067,41408
5068,40000
5069,37632
5070,34880
5071,32320
5072,30400
5073,29248
5074,28992
5075,29312
5076,30080
5077,30976
5078,31744
5079,32192
5080,32448
5081,32640
5082,32768
5083,32832
5084,32832
5085,32832
5086,32960
5087,33088
5088,33216
5089,33408
5090,33536
5091,33600
5092,33600
5093,33600
5094,33664
5095,33728
5096,33728
5097,33728
5098,33856
5099,34048
5100,34048
5101,34048
5102,34176
5103,34176
5104,34048
5105,33920
5106,33792
5107,33792
5108,33856
5109,33856
5110,33856
5111,33920
5112,33920
5113,33920
5114,33984
5115,34176
5116,34368
5117,34368
5118,34176
5119,34048
5120,34176
5121,34240
5122,34304
5123,34240
5124,34240
5125,34304
5126,34368
5127,34432
5128,34432
5129,34368
5130,34304
5131,34240
5132,34304
5133,34304
5134,34304
5135,34240
5136,34176
5137,34176
5138,34240
5139,34176
5140,34176
5141,34240
5142,34240
5143,34048
5144,33984
5145,33920
5146,33792
5147,33536
5148,33216
5149,33024
5150,32960
5151,32896
5152,32832
5153,32768
5154,32704
5155,32768
5156,32896
5157,33088
5158,33216
5159,33280
5160,33344
5161,33344
5162,33344
5163,33408
5164,33472
5165,33536
5166,33472
5167,33344
5168,33344
5169,33408
5170,33472
5171,33472
5172,33536
5173,33600
5174,33728
5175,33856
5176,33856
5177,33984
5178,33984
5179,33920
5180,33728
5181,33664
5182,33728
5183,33728
5184,33664
5185,33536
5186,33536
5187,33472
5188,33472
5189,33472
5190,33536
5191,33664
5192,33792
5193,33920
5194,33920
5195,33856
5196,33792
5197,33728
5198,33664
5199,33600
5200,33664
5201,33728
5202,33984
5203,34240
5204,34368
5205,34304
5206,34240
5207,34304
5208,34432
5209,34496
5210,34496
5211,34496
5212,34560
5213,34688
5214,34688
5215,34624
5216,34368
5217,34112
5218,33856
5219,33728
5220,33600
5221,33344
5222,33088
5223,32960
5224,32960
5225,32960
5226,33024
5227,33152
5228,33344
5229,33408
5230,33280
5231,33152
5232,33152
5233,33152
5234,33216
5235,33472
5236,33920
5237,34816
5238,36224
5239,38208
5240,40192
5241,41280
5242,41216
5243,40000
5244,37952
5245,35456
5246,32960
5247,30784
5248,29440
5249,29056
5250,29440
5251,30208
5252,31040
5253,31808
5254,32256
5255,32640
5256,32832
5257,32896
5258,32960
5259,33024
5260,33216
5261,33408
5262,33408
5263,33344
5264,33344
5265,33472
5266,33600
5267,33664
5268,33600
5269,33664
5270,33792
5271,33920
5272,33856
5273,33792
5274,33792
5275,33920
5276,34048
5277,34112
5278,34048
5279,34048
5280,34048
5281,34112
5282,34176
5283,34048
5284,33984
5285,33984
5286,34048
5287,34176
5288,34304
5289,34432
5290,34560
5291,34624
5292,34624
5293,34560
5294,34432
5295,34432
5296,34432
5297,34432
5298,34496
5299,34560
5300,34560
5301,34496
5302,34496
5303,34496
5304,34496
5305,34368
5306,34304
5307,34368
5308,34432
5309,34560
5310,34560
5311,34624
5312,34688
5313,34624
5314,34496
5315,34432
5316,34368
5317,34304
5318,34176
5319,34048
5320,33920
5321,33792
5322,33600
5323,33472
5324,33408
5325,33344
5326,33280
5327,33216
5328,33152
5329,33088
5330,33024
5331,33024
5332,33088
5333,33152
5334,33216
5335,33216
5336,33344
5337,33344
5338,33280
5339,33344
5340,33472
5341,33664
5342,33728
5343,33856
5344,33920
5345,34048
5346,34048
5347,34048
5348,34048
5349,34048
5350,34048
5351,34112
5352,34112
5353,34112
5354,34048
5355,33984
5356,33920
5357,33920
5358,33984
5359,33920
5360,33920
5361,33984
5362,33984
5363,33984
5364,33920
5365,33920
5366,34048
5367,34112
5368,34240
5369,34112
5370,33920
5371,33728
5372,33728
5373,33728
5374,33792
5375,33856
5376,33920
5377,33920
5378,34048
5379,34112
5380,34112
5381,34240
5382,34304
5383,34368
5384,34304
5385,34240
5386,34304
5387,34368
5388,34496
5389,34560
5390,34688
5391,34752
5392,34752
5393,34688
5394,34688
5395,34624
5396,34368
5397,34048
5398,33728
5399,33472
5400,33216
5401,33024
5402,32960
5403,32896
5404,32896
5405,33024
5406,33088
5407,33216
5408,33280
5409,33344
5410,33472
5411,33472
5412,33472
5413,33408
5414,33536
5415,33856
5416,34496
5417,35520
5418,37120
5419,39232
5420,40832
5421,41344
5422,40640
5423,38848
5424,36352
5425,33920
5426,31680
5427,30144
5428,29440
5429,29568
5430,30144
5431,30912
5432,31680
5433,32128
5434,32448
5435,32640
5436,32960
5437,33152
5438,33280
5439,33280
5440,33344
5441,33408
5442,33536
5443,33600
5444,33664
5445,33600
5446,33536
5447,33536
5448,33600
5449,33664
5450,33728
5451,33792
5452,33856
5453,33984
5454,34048
5455,34048
5456,33984
5457,33984
5458,34048
5459,34112
5460,34112
5461,34176
5462,34240
5463,34240
5464,34176
5465,34240
5466,34368
5467,34368
5468,34240
5469,34240
5470,34304
5471,34432
5472,34496
5473,34624
5474,34688
5475,34752
5476,34688
5477,34560
5478,34432
5479,34368
5480,34368
5481,34368
5482,34432
5483,34496
5484,34496
5485,34496
5486,34496
5487,34496
5488,34496
5489,34496
5490,34432
5491,34432
5492,34496
5493,34432
5494,34368
5495,34240
5496,34240
5497,34176
5498,34048
5499,33856
5500,33664
5501,33536
5502,33472
5503,33408
5504,33344
5505,33280
5506,33216
5507,33216
5508,33216
5509,33216
5510,33216
5511,33216
5512,33280
5513,33280
5514,33280
5515,33280
5516,33408
5517,33472
5518,33472
5519,33472
5520,33600
5521,33664
5522,33664
5523,33728
5524,33728
5525,33728
5526,33728
5527,33728
5528,33856
5529,33984
5530,33984
5531,33920
5532,33920
5533,33920
5534,33920
5535,33856
5536,33792
5537,33856
5538,33856
5539,33792
5540,33792
5541,33792
5542,33792
5543,33792
5544,33792
5545,33792
5546,33792
5547,33792
5548,33856
5549,33792
5550,33792
5551,33664
5552,33664
5553,33664
5554,33792
5555,33920
5556,33984
5557,34112
5558,34240
5559,34304
5560,34240
5561,34304
5562,34368
5563,34496
5564,34624
5565,34624
5566,34624
5567,34624
5568,34560
5569,34496
5570,34496
5571,34368
5572,34112
5573,33792
5574,33472
5575,33152
5576,32896
5577,32768
5578,32768
5579,32832
5580,32896
5581,32896
5582,32896
5583,32960
5584,33024
5585,33088
5586,33152
5587,33216
5588,33216
5589,33344
5590,33600
5591,34048
5592,34944
5593,36480
5594,38400
5595,39936
5596,40320
5597,39168
5598,37120
5599,34880
5600,32704
5601,30976
5602,29888
5603,29376
5604,29504
5605,30080
5606,30848
5607,31616
5608,32256
5609,32640
5610,32896
5611,33088
5612,33216
5613,33280
5614,33344
5615,33344
5616,33472
5617,33536
5618,33536
5619,33472
5620,33536
5621,33600
5622,33600
5623,33664
5624,33728
5625,33792
5626,33728
5627,33728
5628,33728
5629,33728
5630,33792
5631,33856
5632,33856
5633,33792
5634,33792
5635,33856
5636,33920
5637,34048
5638,34048
5639,34112
5640,34176
5641,34176
5642,34176
5643,34112
5644,34048
5645,34048
5646,34112
5647,34176
5648,34176
5649,34240
5650,34240
5651,34176
5652,34240
5653,34304
5654,34368
5655,34432
5656,34432
5657,34432
5658,34368
5659,34176
5660,34112
5661,34176
5662,34304
5663,34304
5664,34240
5665,34176
5666,34176
5667,34176
5668,34176
5669,34240
5670,34176
5671,34176
5672,34048
5673,33856
5674,33728
5675,33664
5676,33536
5677,33472
5678,33344
5679,33216
5680,33216
5681,33152
5682,33152
5683,33088
5684,33088
5685,33088
5686,33152
5687,33280
5688,33408
5689,33472
5690,33536
5691,33600
5692,33664
5693,33728
5694,33792
5695,33920
5696,34048
5697,34112
5698,34112
5699,34112
5700,34112
5701,34048
5702,33920
5703,33856
5704,33856
5705,33984
5706,33984
5707,33920
5708,33920
5709,33920
5710,33856
5711,33792
5712,33792
5713,33856
5714,33856
5715,33984
5716,34176
5717,34304
5718,34368
5719,34368
5720,34432
5721,34560
5722,34688
5723,34688
5724,34688
5725,34624
5726,34560
5727,34496
5728,34496
5729,34432
5730,34240
5731,34048
5732,33792
5733,33472
5734,33216
5735,33024
5736,32960
5737,32960
5738,33024
5739,33024
5740,33088
5741,33216
5742,33280
5743,33280
5744,33280
5745,33344
5746,33344
5747,33280
5748,33408
5749,33728
5750,34432
5751,35520
5752,37120
5753,38720
5754,39424
5755,38976
5756,37568
5757,35904
5758,34112
5759,32512
5760,31168
5761,30272
5762,30016
5763,30272
5764,30848
5765,31552
5766,32320
5767,32896
5768,33344
5769,33472
5770,33600
5771,33664
5772,33728
5773,33728
5774,33792
5775,33856
5776,33856
5777,33920
5778,33920
5779,33984
5780,33984
5781,33920
5782,33920
5783,33920
5784,33856
5785,33792
5786,33856
5787,33984
5788,34112
5789,34176
5790,34240
5791,34240
5792,34304
5793,34304
5794,34304
5795,34368
5796,34432
5797,34432
5798,34368
5799,34368
5800,34368
5801,34368
5802,34304
5803,34368
5804,34432
5805,34432
5806,34432
5807,34432
5808,34496
5809,34560
5810,34496
5811,34496
5812,34496
5813,34432
5814,34368
5815,34368
5816,34432
5817,34496
5818,34496
5819,34432
5820,34432
5821,34368
5822,34368
5823,34368
5824,34368
5825,34432
5826,34368
5827,34368
5828,34368
5829,34368
5830,34304
5831,34240
5832,34112
5833,33984
5834,33856
5835,33664
5836,33600
5837,33536
5838,33536
5839,33472
5840,33408
5841,33408
5842,33408
5843,33408
5844,33408
5845,33472
5846,33536
5847,33600
5848,33600
5849,33664
5850,33792
5851,33792
5852,33792
5853,33856
5854,33920
5855,33984
5856,33984
5857,33984
5858,34048
5859,34112
5860,34112
5861,34112
5862,34176
5863,34240
5864,34176
5865,34112
5866,34112
5867,34112
5868,34112
5869,34112
5870,34176
5871,34304
5872,34368
5873,34432
5874,34496
5875,34560
5876,34624
5877,34752
5878,34944
5879,35008
5880,35008
5881,34880
5882,34752
5883,34688
5884,34688
5885,34624
5886,34496
5887,34240
5888,33984
5889,33664
5890,33280
5891,33088
5892,33024
5893,33024
5894,33024
5895,33024
5896,33088
5897,33088
5898,33152
5899,33216
5900,33344
5901,33408
5902,33344
5903,33408
5904,33600
5905,33984
5906,34560
5907,35584
5908,37056
5909,38912
5910,40000
5911,40064
5912,39104
5913,37312
5914,35328
5915,33280
5916,31552
5917,30400
5918,29824
5919,29824
5920,30336
5921,31168
5922,31936
5923,32512
5924,32960
5925,33280
5926,33408
5927,33472
5928,33536
5929,33600
5930,33664
5931,33664
5932,33664
5933,33728
5934,33728
5935,33728
5936,33728
5937,33792
5938,33920
5939,33984
5940,33920
5941,33920
5942,33920
5943,33984
5944,33984
5945,34048
5946,34176
5947,34240
5948,34176
5949,34176
5950,34240
5951,34240
5952,34304
5953,34304
5954,34368
5955,34368
5956,34368
5957,34304
5958,34432
5959,34496
5960,34496
5961,34496
5962,34560
5963,34560
5964,34560
5965,34560
5966,34560
5967,34624
5968,34688
5969,34688
5970,34688
5971,34752
5972,34752
5973,34688
5974,34624
5975,34624
5976,34624
5977,34560
5978,34496
5979,34496
5980,34496
5981,34432
5982,34432
5983,34496
5984,34496
5985,34368
5986,34240
5987,34176
5988,34048
5989,33984
5990,33792
5991,33728
5992,33664
5993,33600
5994,33472
5995,33408
5996,33344
5997,33280
5998,33216
5999,33280
6000,33408
6001,33408
6002,33408
6003,33408
6004,33536
6005,33600
6006,33664
6007,33600
6008,33664
6009,33792
6010,33792
6011,33856
6012,33920
6013,33984
6014,33984
6015,33984
6016,34048
6017,34048
6018,34048
6019,34048
6020,34048
6021,34112
6022,34240
6023,34240
6024,34240
6025,34240
6026,34304
6027,34368
6028,34368
6029,34496
6030,34560
6031,34624
6032,34816
6033,34944
6034,35008
6035,34944
6036,34880
6037,34816
6038,34752
6039,34624
6040,34496
6041,34368
6042,34240
6043,33984
6044,33664
6045,33344
6046,33216
6047,33088
6048,32960
6049,32960
6050,33088
6051,33088
6052,33088
6053,33152
6054,33280
6055,33344
6056,33408
6057,33408
6058,33408
6059,33600
6060,33984
6061,34624
6062,35712
6063,37440
6064,39104
6065,40192
6066,40256
6067,39232
6068,37440
6069,35072
6070,33216
6071,31552
6072,30400
6073,29824
6074,29824
6075,30400
6076,31104
6077,31808
6078,32320
6079,32704
6080,33024
6081,33216
6082,33280
6083,33408
6084,33536
6085,33600
6086,33600
6087,33664
6088,33728
6089,33792
6090,33792
6091,33792
6092,33856
6093,33920
6094,33984
6095,33984
6096,33984
6097,33984
6098,33984
6099,34048
6100,34112
6101,34176
6102,34176
6103,34176
6104,34240
6105,34304
6106,34304
6107,34240
6108,34240
6109,34304
6110,34304
6111,34304
6112,34304
6113,34368
6114,34368
6115,34368
6116,34432
6117,34496
6118,34560
6119,34624
6120,34688
6121,34752
6122,34752
6123,34752
6124,34816
6125,34944
6126,34880
6127,34752
6128,34624
6129,34688
6130,34688
6131,34624
6132,34560
6133,34560
6134,34496
6135,34496
6136,34432
6137,34496
6138,34496
6139,34432
6140,34304
6141,34240
6142,34176
6143,34048
6144,33856
6145,33728
6146,33664
6147,33600
6148,33472
6149,33344
6150,33344
6151,33344
6152,33280
6153,33280
6154,33216
6155,33280
6156,33280
6157,33216
6158,33344
6159,33408
6160,33472
6161,33472
6162,33536
6163,33600
6164,33728
6165,33792
6166,33792
6167,33920
6168,33920
6169,33920
6170,33920
6171,33984
6172,34048
6173,33984
6174,34048
6175,34112
6176,34176
6177,34112
6178,34048
6179,34048
6180,34112
6181,34112
6182,34112
6183,34112
6184,34176
6185,34112
6186,34048
6187,33984
6188,33984
6189,33984
6190,33920
6191,33984
6192,34112
6193,34176
6194,34176
6195,34240
6196,34368
6197,34496
6198,34560
6199,34560
6200,34688
6201,34752
6202,34752
6203,34688
6204,34688
6205,34688
6206,34624
6207,34560
6208,34496
6209,34432
6210,34240
6211,34048
6212,33856
6213,33600
6214,33408
6215,33216
6216,33152
6217,33152
6218,33152
6219,33216
6220,33280
6221,33344
6222,33408
6223,33472
6224,33472
6225,33472
6226,33536
6227,33792
6228,34240
6229,35072
6230,36288
6231,38016
6232,39872
6233,40960
6234,40896
6235,39680
6236,37568
6237,35200
6238,32896
6239,31104
6240,29952
6241,29568
6242,29824
6243,30528
6244,31232
6245,31872
6246,32448
6247,32832
6248,33024
6249,33152
6250,33216
6251,33344
6252,33472
6253,33472
6254,33536
6255,33600
6256,33600
6257,33600
6258,33664
6259,33792
6260,33792
6261,33792
6262,33856
6263,33920
6264,33920
6265,33856
6266,33856
6267,33920
6268,33984
6269,33984
6270,33984
6271,34048
6272,34176
6273,34176
6274,34240
6275,34304
6276,34368
6277,34368
6278,34368
6279,34304
6280,34304
6281,34304
6282,34304
6283,34368
6284,34432
6285,34496
6286,34560
6287,34560
6288,34688
6289,34688
6290,34688
6291,34688
6292,34752
6293,34752
6294,34688
6295,34688
6296,34752
6297,34816
6298,34816
6299,34752
6300,34752
6301,34752
6302,34752
6303,34688
6304,34688
6305,34624
6306,34560
6307,34496
6308,34432
6309,34304
6310,34240
6311,34176
6312,34048
6313,33920
6314,33792
6315,33664
6316,33600
6317,33600
6318,33536
6319,33408
6320,33344
6321,33344
6322,33344
6323,33344
6324,33280
6325,33344
6326,33408
6327,33408
6328,33408
6329,33536
6330,33664
6331,33792
6332,33792
6333,33792
6334,33856
6335,33856
6336,33856
6337,33920
6338,33984
6339,34048
6340,33984
6341,33984
6342,34048
6343,34112
6344,34112
6345,34112
6346,34176
6347,34240
6348,34176
6349,34112
6350,34176
6351,34240
6352,34240
6353,34176
6354,34176
6355,34112
6356,34112
6357,34048
6358,34048
6359,34048
6360,34048
6361,33984
6362,33984
6363,34048
6364,34048
6365,33984
6366,33984
6367,33984
6368,33984
6369,33984
6370,33920
6371,34048
6372,34112
6373,34240
6374,34304
6375,34432
6376,34496
6377,34496
6378,34560
6379,34688
6380,34816
6381,34880
6382,34880
6383,34880
6384,34816
6385,34752
6386,34624
6387,34496
6388,34432
6389,34304
6390,34112
6391,33920
6392,33728
6393,33600
6394,33408
6395,33280
6396,33280
6397,33344
6398,33344
6399,33408
6400,33408
6401,33536
6402,33600
6403,33600
6404,33600
6405,33664
6406,33856
6407,34304
6408,35072
6409,36160
6410,37696
6411,39552
6412,40960
6413,41280
6414,40000
6415,38464
6416,36096
6417,33728
6418,31744
6419,30336
6420,29696
6421,29760
6422,30336
6423,31104
6424,31872
6425,32512
6426,32960
6427,33152
6428,33216
6429,33408
6430,33536
6431,33600
6432,33600
6433,33664
6434,33728
6435,33792
6436,33856
6437,33856
6438,33856
6439,33920
6440,33984
6441,34048
6442,34112
6443,34176
6444,34112
6445,34112
6446,34176
6447,34240
6448,34176
6449,34176
6450,34176
6451,34240
6452,34240
6453,34240
6454,34240
6455,34240
6456,34240
6457,34240
6458,34240
6459,34368
6460,34432
6461,34496
6462,34560
6463,34560
6464,34624
6465,34560
6466,34496
6467,34496
6468,34624
6469,34624
6470,34624
6471,34688
6472,34752
6473,34688
6474,34688
6475,34688
6476,34752
6477,34816
6478,34752
6479,34752
6480,34816
6481,34880
6482,34880
6483,34880
6484,34816
6485,34752
6486,34624
6487,34560
6488,34560
6489,34560
6490,34432
6491,34304
6492,34240
6493,34176
6494,34048
6495,33920
6496,33856
6497,33792
6498,33664
6499,33600
6500,33536
6501,33600
6502,33600
6503,33472
6504,33408
6505,33344
6506,33344
6507,33280
6508,33280
6509,33344
6510,33408
6511,33472
6512,33600
6513,33728
6514,33792
6515,33856
6516,33856
6517,33920
6518,33984
6519,34048
6520,34112
6521,34112
6522,34240
6523,34304
6524,34304
6525,34176
6526,34240
6527,34304
6528,34368
6529,34368
6530,34240
6531,34112
6532,33984
6533,33920
6534,34048
6535,34112
6536,34112
6537,34048
6538,34048
6539,34048
6540,34048
6541,34048
6542,34048
6543,34112
6544,34176
6545,34176
6546,34176
6547,34176
6548,34048
6549,33984
6550,33984
6551,34112
6552,34176
6553,34176
6554,34176
6555,34176
6556,34240
6557,34240
6558,34240
6559,34368
6560,34496
6561,34560
6562,34624
6563,34624
6564,34688
6565,34752
6566,34880
6567,35008
6568,35008
6569,35008
6570,34944
6571,34880
6572,34880
6573,34688
6574,34496
6575,34304
6576,34176
6577,33920
6578,33664
6579,33472
6580,33408
6581,33344
6582,33408
6583,33472
6584,33536
6585,33664
6586,33664
6587,33664
6588,33600
6589,33600
6590,33600
6591,33664
6592,33856
6593,34240
6594,34880
6595,35520
6596,36928
6597,38912
6598,40768
6599,41472
6600,41024
6601,39424
6602,37056
6603,34368
6604,32192
6605,30528
6606,29696
6607,29568
6608,30016
6609,30848
6610,31680
6611,32256
6612,32704
6613,33088
6614,33408
6615,33472
6616,33536
6617,33600
6618,33600
6619,33536
6620,33536
6621,33600
6622,33728
6623,33792
6624,33856
6625,33856
6626,33984
6627,34048
6628,34048
6629,34048
6630,34112
6631,34176
6632,34176
6633,34240
6634,34304
6635,34304
6636,34304
6637,34304
6638,34304
6639,34432
6640,34432
6641,34432
6642,34432
6643,34496
6644,34496
6645,34560
6646,34688
6647,34688
6648,34624
6649,34624
6650,34624
6651,34624
6652,34560
6653,34688
6654,34624
6655,34816
6656,34752
6657,34688
6658,34752
6659,34816
6660,34880
6661,34880
6662,34816
6663,34752
6664,34816
6665,34752
6666,34752
6667,34816
6668,34816
6669,34752
6670,34688
6671,34688
6672,34688
6673,34624
6674,34688
6675,34688
6676,34688
6677,34624
6678,34496
6679,34368
6680,34112
6681,33856
6682,33664
6683,33536
6684,33472
6685,33472
6686,33408
6687,33408
6688,33472
6689,33472
6690,33536
6691,33664
6692,33792
6693,33856
6694,33792
6695,33600
6696,33472
6697,33472
6698,33600
6699,33600
6700,33792
6701,33856
6702,33920
6703,33984
6704,34112
6705,34112
6706,34112
6707,34240
6708,34176
6709,34304
6710,34240
6711,34240
6712,34304
6713,34368
6714,34304
6715,34304
6716,34304
6717,34368
6718,34368
6719,34368
6720,34368
6721,34432
6722,34432
6723,34304
6724,34240
6725,34048
6726,34048
6727,33984
6728,34048
6729,33984
6730,34112
6731,34176
6732,34176
6733,34176
6734,34176
6735,34112
6736,34112
6737,34176
6738,34240
6739,34240
6740,34112
6741,34048
6742,34048
6743,34112
6744,34048
6745,34112
6746,34240
6747,34240
6748,34304
6749,34368
6750,34560
6751,34688
6752,34688
6753,34816
6754,35072
6755,35328
6756,35456
6757,35456
6758,35328
6759,35264
6760,35136
6761,34944
6762,34752
6763,34560
6764,34496
6765,34368
6766,34112
6767,33728
6768,33344
6769,33088
6770,32960
6771,32960
6772,33024
6773,33152
6774,33344
6775,33536
6776,33664
6777,33728
6778,33792
6779,33856
6780,33920
6781,34176
6782,34752
6783,35648
6784,37120
6785,39232
6786,41152
6787,42176
6788,41792
6789,41536
6790,37824
6791,35008
6792,32384
6793,30464
6794,29312
6795,28992
6796,29440
6797,30336
6798,31232
6799,32000
6800,32448
6801,32640
6802,32832
6803,33088
6804,33088
6805,33280
6806,33408
6807,33664
6808,33920
6809,34048
6810,33984
6811,33856
6812,33792
6813,33856
6814,33920
6815,33920
6816,33984
6817,34176
6818,34368
6819,34368
6820,34176
6821,34112
6822,34048
6823,34112
6824,34112
6825,34240
6826,34368
6827,34368
6828,34496
6829,34624
6830,34688
6831,34688
6832,34560
6833,34432
6834,34368
6835,34304
6836,34240
6837,34368
6838,34496
6839,34560
6840,34752
6841,34944
6842,35136
6843,35072
6844,34880
6845,34752
6846,34752
6847,34752
6848,34752
6849,34688
6850,34624
6851,34560
6852,34560
6853,34560
6854,34688
6855,34816
6856,35008
6857,35136
6858,35072
6859,34944
6860,34816
6861,34688
6862,34624
6863,34688
6864,34624
6865,34624
6866,34560
6867,34496
6868,34432
6869,34304
6870,34240
6871,34304
6872,34112
6873,33728
6874,33280
6875,32960
6876,32832
6877,32832
6878,32960
6879,33152
6880,33280
6881,33408
6882,33472
6883,33600
6884,33728
6885,33728
6886,33664
6887,33728
6888,33856
6889,33856
6890,33984
6891,33984
6892,33984
6893,33984
6894,33920
6895,33920
6896,33920
6897,33984
6898,34048
6899,34048
6900,34112
6901,34176
6902,34176
6903,34176
6904,34176
6905,34240
6906,34304
6907,34304
6908,34240
6909,34176
6910,34176
6911,34176
6912,34112
6913,34112
6914,34048
6915,33984
6916,33920
6917,33920
6918,33984
6919,34048
6920,34112
6921,34112
6922,34048
6923,34048
6924,34048
6925,33984
6926,33984
6927,33984
6928,33984
6929,34048
6930,33984
6931,33920
6932,33920
6933,33984
6934,34112
6935,34112
6936,33984
6937,33920
6938,33920
6939,33984
6940,33984
6941,33984
6942,34112
6943,34240
6944,34304
6945,34368
6946,34496
6947,34688
6948,34880
6949,35008
6950,35072
6951,35008
6952,34944
6953,34816
6954,34880
6955,34816
6956,34624
6957,34368
6958,34112
6959,33920
6960,33664
6961,33344
6962,33088
6963,32960
6964,32960
6965,33024
6966,33216
6967,33472
6968,33600
6969,33600
6970,33536
6971,33472
6972,33408
6973,33344
6974,33408
6975,33664
6976,34176
6977,35008
6978,36352
6979,38080
6980,40064
6981,41216
6982,41280
6983,40192
6984,37888
6985,35392
6986,32640
6987,30720
6988,29440
6989,28928
6990,29184
6991,30016
6992,30912
6993,31680
6994,32064
6995,32384
6996,32640
6997,32832
6998,32960
6999,33088
7000,33280
7001,33408
7002,33472
7003,33472
7004,33600
7005,33664
7006,33664
7007,33664
7008,33664
7009,33664
7010,33792
7011,33856
7012,33920
7013,34048
7014,33984
7015,33920
7016,33856
7017,33856
7018,33728
7019,33728
7020,33792
7021,33856
7022,33984
7023,34048
7024,34048
7025,34112
7026,34176
7027,34176
7028,34048
7029,34048
7030,34176
7031,34176
7032,34176
7033,34176
7034,34176
7035,34176
7036,34240
7037,34432
7038,34560
7039,34560
7040,34496
7041,34368
7042,34368
7043,34432
7044,34496
7045,34496
7046,34560
7047,34688
7048,34688
7049,34624
7050,34560
7051,34496
7052,34432
7053,34432
7054,34432
7055,34560
7056,34624
7057,34688
7058,34496
7059,34304
7060,34112
7061,33984
7062,33920
7063,33920
7064,33920
7065,33856
7066,33728
7067,33600
7068,33536
7069,33408
7070,33344
7071,33280
7072,33216
7073,33152
7074,33088
7075,33152
7076,33280
7077,33280
7078,33280
7079,33280
7080,33280
7081,33344
7082,33408
7083,33472
7084,33600
7085,33728
7086,33792
7087,33856
7088,33856
7089,33856
7090,33856
7091,33920
7092,33984
7093,34048
7094,33984
7095,33920
7096,33984
7097,34048
7098,34048
7099,34112
7100,34176
7101,34240
7102,34176
7103,34048
7104,34048
7105,34112
7106,34112
7107,33984
7108,33920
7109,33920
7110,33856
7111,33856
7112,33856
7113,33856
7114,33856
7115,33792
7116,33856
7117,33920
7118,34048
7119,34048
7120,34048
7121,34048
7122,33984
7123,33920
7124,33856
7125,33920
7126,33984
7127,33984
7128,33984
7129,33984
7130,33984
7131,34048
7132,34112
7133,34112
7134,34048
7135,34048
7136,34112
7137,34240
7138,34368
7139,34560
7140,34624
7141,34816
7142,35008
7143,35136
7144,35072
7145,35008
7146,35008
7147,34944
7148,34752
7149,34624
7150,34496
7151,34304
7152,34048
7153,33856
7154,33728
7155,33664
7156,33536
7157,33408
7158,33408
7159,33408
7160,33408
7161,33408
7162,33408
7163,33472
7164,33472
7165,33472
7166,33536
7167,33600
7168,33792
7169,33984
7170,34432
7171,35264
7172,36544
7173,38400
7174,40384
7175,41664
7176,41728
7177,40448
7178,38080
7179,35328
7180,32768
7181,30784
7182,29568
7183,29184
7184,29504
7185,30208
7186,30976
7187,31744
7188,32256
7189,32640
7190,32832
7191,33024
7192,33216
7193,33344
7194,33472
7195,33472
7196,33536
7197,33600
7198,33600
7199,33600
7200,33664
7201,33664
7202,33792
7203,33856
7204,33920
7205,33984
7206,33984
7207,33920
7208,33920
7209,33984
7210,33984
7211,33920
7212,33920
7213,33920
7214,33984
7215,34048
7216,34112
7217,34176
7218,34112
7219,34112
7220,34112
7221,34240
7222,34368
7223,34368
7224,34240
7225,34176
7226,34176
7227,34176
7228,34240
7229,34368
7230,34432
7231,34496
7232,34560
7233,34624
7234,34560
7235,34496
7236,34368
7237,34304
7238,34304
7239,34432
7240,34496
7241,34560
7242,34624
7243,34560
7244,34496
7245,34432
7246,34432
7247,34432
7248,34432
7249,34432
7250,34432
7251,34432
7252,34432
7253,34432
7254,34304
7255,34240
7256,34112
7257,33920
7258,33792
7259,33728
7260,33664
7261,33600
7262,33472
7263,33408
7264,33344
7265,33344
7266,33280
7267,33280
7268,33216
7269,33216
7270,33280
7271,33408
7272,33408
7273,33472
7274,33408
7275,33408
7276,33472
7277,33600
7278,33664
7279,33728
7280,33856
7281,33920
7282,33920
7283,33856
7284,33856
7285,33920
7286,33984
7287,34112
7288,34240
7289,34304
7290,34240
7291,34176
7292,34176
7293,34112
7294,34112
7295,34112
7296,34048
7297,34112
7298,34112
7299,34112
7300,34112
7301,34112
7302,34048
7303,33984
7304,34048
7305,34048
7306,34112
7307,34048
7308,34048
7309,33984
7310,33920
7311,33920
7312,33920
7313,33920
7314,33984
7315,33984
7316,33984
7317,34048
7318,34048
7319,34048
7320,34048
7321,34112
7322,34240
7323,34304
7324,34432
7325,34624
7326,34880
7327,34944
7328,35008
7329,35008
7330,35008
7331,34944
7332,34880
7333,34752
7334,34624
7335,34432
7336,34176
7337,33920
7338,33600
7339,33344
7340,33152
7341,33024
7342,33024
7343,33152
7344,33216
7345,33344
7346,33408
7347,33472
7348,33536
7349,33536
7350,33664
7351,33664
7352,33728
7353,34048
7354,34560
7355,35520
7356,36864
7357,38656
7358,40128
7359,40448
7360,39616
7361,37952
7362,35968
7363,33920
7364,32128
7365,30784
7366,30016
7367,29888
7368,30272
7369,31040
7370,31808
7371,32576
7372,33088
7373,33408
7374,33600
7375,33728
7376,33792
7377,33856
7378,33856
7379,33920
7380,33984
7381,33984
7382,33984
7383,33984
7384,34048
7385,34112
7386,34112
7387,34112
7388,34112
7389,34112
7390,34048
7391,34048
7392,34048
7393,34112
7394,34112
7395,34112
7396,34176
7397,34240
7398,34240
7399,34304
7400,34304
7401,34304
7402,34368
7403,34432
7404,34432
7405,34496
7406,34496
7407,34496
7408,34496
7409,34496
7410,34560
7411,34688
7412,34752
7413,34752
7414,34752
7415,34688
7416,34624
7417,34560
7418,34496
7419,34432
7420,34368
7421,34432
7422,34432
7423,34496
7424,34432
7425,34432
7426,34432
7427,34496
7428,34560
7429,34560
7430,34624
7431,34624
7432,34560
7433,34560
7434,34560
7435,34624
7436,34560
7437,34496
7438,34496
7439,34368
7440,34240
7441,33984
7442,33856
7443,33728
7444,33600
7445,33472
7446,33408
7447,33408
7448,33408
7449,33408
7450,33408
7451,33472
7452,33600
7453,33600
7454,33600
7455,33728
7456,33920
7457,33984
7458,34048
7459,34112
7460,34176
7461,34176
7462,34240
7463,34304
7464,34368
7465,34304
7466,34304
7467,34368
7468,34368
7469,34304
7470,34304
7471,34304
7472,34304
7473,34240
7474,34176
7475,34176
7476,34176
7477,34240
7478,34176
7479,34112
7480,34048
7481,33984
7482,33984
7483,33984
7484,33984
7485,33984
7486,34048
7487,33984
7488,33984
7489,33984
7490,33920
7491,33920
7492,33920
7493,33920
7494,33920
7495,33920
7496,33984
7497,34112
7498,34176
7499,34240
7500,34304
7501,34368
7502,34432
7503,34496
7504,34560
7505,34752
7506,34944
7507,34944
7508,34816
7509,34816
7510,34880
7511,34880
7512,34752
7513,34688
7514,34560
7515,34304
7516,34048
7517,33856
7518,33600
7519,33472
7520,33344
7521,33280
7522,33280
7523,33280
7524,33280
7525,33280
7526,33344
7527,33408
7528,33472
7529,33536
7530,33600
7531,33600
7532,33728
7533,34048
7534,34624
7535,35520
7536,36864
7537,38784
7538,40448
7539,40960
7540,40320
7541,38592
7542,36352
7543,34112
7544,32128
7545,30656
7546,29824
7547,29696
7548,30080
7549,30848
7550,31616
7551,32320
7552,32832
7553,33152
7554,33344
7555,33536
7556,33600
7557,33664
7558,33664
7559,33728
7560,33792
7561,33856
7562,33920
7563,33920
7564,33984
7565,33984
7566,34048
7567,33984
7568,33984
7569,33984
7570,33984
7571,34048
7572,34176
7573,34240
7574,34112
7575,34112
7576,34112
7577,34112
7578,34112
7579,34112
7580,34176
7581,34240
7582,34240
7583,34240
7584,34240
7585,34368
7586,34368
7587,34432
7588,34432
7589,34432
7590,34496
7591,34496
7592,34560
7593,34624
7594,34624
7595,34560
7596,34624
7597,34688
7598,34688
7599,34560
7600,34496
7601,34432
7602,34496
7603,34560
7604,34496
7605,34432
7606,34432
7607,34432
7608,34496
7609,34560
7610,34560
7611,34496
7612,34496
7613,34496
7614,34496
7615,34496
7616,34432
7617,34368
7618,34240
7619,34112
7620,33984
7621,33984
7622,33920
7623,33792
7624,33664
7625,33536
7626,33472
7627,33472
7628,33408
7629,33408
7630,33472
7631,33536
7632,33536
7633,33600
7634,33664
7635,33728
7636,33792
7637,33792
7638,33856
7639,33920
7640,33984
7641,34048
7642,34112
7643,34112
7644,34112
7645,34176
7646,34176
7647,34240
7648,34176
7649,34176
7650,34176
7651,34240
7652,34240
7653,34176
7654,34176
7655,34176
7656,34112
7657,34048
7658,33984
7659,33984
7660,34048
7661,34048
7662,34048
7663,33984
7664,33920
7665,33856
7666,33792
7667,33856
7668,34048
7669,34112
7670,34048
7671,34048
7672,34048
7673,34048
7674,34048
7675,34112
7676,34112
7677,34176
7678,34176
7679,34304
7680,34368
7681,34432
7682,34432
7683,34496
7684,34752
7685,35008
7686,35008
7687,34880
7688,34816
7689,34752
7690,34624
7691,34496
7692,34304
7693,34176
7694,34048
7695,33792
7696,33600
7697,33344
7698,33152
7699,33088
7700,33024
7701,33088
7702,33216
7703,33408
7704,33408
7705,33408
7706,33408
7707,33408
7708,33408
7709,33408
7710,33600
7711,33920
7712,34432
7713,35200
7714,36480
7715,38336
7716,40192
7717,41024
7718,40704
7719,39168
7720,36864
7721,34496
7722,32320
7723,30656
7724,29696
7725,29376
7726,29696
7727,30400
7728,31232
7729,31872
7730,32384
7731,32768
7732,33088
7733,33216
7734,33344
7735,33472
7736,33536
7737,33536
7738,33600
7739,33664
7740,33664
7741,33664
7742,33728
7743,33856
7744,33856
7745,33856
7746,33856
7747,33920
7748,33920
7749,33920
7750,33920
7751,33920
7752,33920
7753,33920
7754,33920
7755,33920
7756,33984
7757,34048
7758,34112
7759,34112
7760,34112
7761,34112
7762,34112
7763,34176
7764,34240
7765,34304
7766,34304
7767,34304
7768,34368
7769,34432
7770,34368
7771,34368
7772,34432
7773,34496
7774,34496
7775,34560
7776,34560
7777,34560
7778,34560
7779,34496
7780,34496
7781,34496
7782,34496
7783,34432
7784,34368
7785,34368
7786,34368
7787,34304
7788,34368
7789,34368
7790,34304
7791,34240
7792,34176
7793,34176
7794,34112
7795,34048
7796,34048
7797,34048
7798,34048
7799,33920
7800,33792
7801,33664
7802,33600
7803,33600
7804,33536
7805,33536
7806,33536
7807,33472
7808,33472
7809,33536
7810,33600
7811,33664
7812,33536
7813,33472
7814,33408
7815,33408
7816,33472
7817,33536
7818,33664
7819,33792
7820,33856
7821,33984
7822,34112
7823,34240
7824,34240
7825,34240
7826,34304
7827,34368
7828,34368
7829,34368
7830,34368
7831,34304
7832,34240
7833,34112
7834,34112
7835,34112
7836,34112
7837,34048
7838,34048
7839,34048
7840,34048
7841,34048
7842,34048
7843,34048
7844,33984
7845,33856
7846,33792
7847,33856
7848,33984
7849,34048
7850,34112
7851,34176
7852,34304
7853,34432
7854,34432
7855,34432
7856,34496
7857,34560
7858,34688
7859,34880
7860,34944
7861,34880
7862,34816
7863,34816
7864,34816
7865,34752
7866,34624
7867,34432
7868,34176
7869,33920
7870,33664
7871,33408
7872,33280
7873,33216
7874,33088
7875,33088
7876,33152
7877,33216
7878,33344
7879,33408
7880,33600
7881,33664
7882,33600
7883,33472
7884,33408
7885,33600
7886,34048
7887,34816
7888,35968
7889,37696
7890,39616
7891,40832
7892,40896
7893,39808
7894,37760
7895,35264
7896,32896
7897,31040
7898,29888
7899,29376
7900,29504
7901,30208
7902,31040
7903,31808
7904,32384
7905,32832
7906,33152
7907,33344
7908,33408
7909,33408
7910,33472
7911,33536
7912,33536
7913,33600
7914,33664
7915,33728
7916,33728
7917,33728
7918,33792
7919,33856
7920,33920
7921,33920
7922,33920
7923,33920
7924,33984
7925,33984
7926,33984
7927,34048
7928,34112
7929,34112
7930,34112
7931,34176
7932,34176
7933,34176
7934,34176
7935,34176
7936,34112
7937,34176
7938,34176
7939,34176
7940,34176
7941,34176
7942,34176
7943,34240
7944,34304
7945,34368
7946,34368
7947,34432
7948,34432
7949,34368
7950,34304
7951,34368
7952,34432
7953,34496
7954,34432
7955,34496
7956,34496
7957,34432
7958,34368
7959,34304
7960,34304
7961,34304
7962,34304
7963,34304
7964,34304
7965,34304
7966,34240
7967,34240
7968,34240
7969,34176
7970,34112
7971,33920
7972,33856
7973,33728
7974,33600
7975,33536
7976,33536
7977,33472
7978,33408
7979,33344
7980,33344
7981,33344
7982,33344
7983,33408
7984,33472
7985,33600
7986,33600
7987,33536
7988,33600
7989,33600
7990,33664
7991,33728
7992,33856
7993,33920
7994,33920
7995,33920
7996,33984
7997,34112
7998,34176
7999,34176
8000,34112
8001,34048
8002,34112
8003,34112
8004,34112
8005,34176
8006,34240
8007,34240
8008,34176
8009,34048
8010,33984
8011,33856
8012,33856
8013,33792
8014,33792
8015,33856
8016,33856
8017,33856
8018,33920
8019,33920
8020,33920
8021,33856
8022,33856
8023,33856
8024,33856
8025,33792
8026,33792
8027,33856
8028,33920
8029,33920
8030,34112
8031,34240
8032,34368
8033,34432
8034,34432
8035,34496
8036,34560
8037,34752
8038,34816
8039,34880
8040,34880
8041,34816
8042,34752
8043,34688
8044,34624
8045,34496
8046,34304
8047,34112
8048,33984
8049,33664
8050,33472
8051,33280
8052,33216
8053,33152
8054,33152
8055,33216
8056,33280
8057,33280
8058,33280
8059,33344
8060,33408
8061,33536
8062,33600
8063,33600
8064,33856
8065,34304
8066,35008
8067,36224
8068,37952
8069,40000
8070,41216
8071,41216
8072,39936
8073,37632
8074,35072
8075,32640
8076,30720
8077,29632
8078,29248
8079,29440
8080,30208
8081,31040
8082,31872
8083,32384
8084,32704
8085,32960
8086,33088
8087,33216
8088,33280
8089,33344
8090,33408
8091,33472
8092,33472
8093,33536
8094,33600
8095,33600
8096,33600
8097,33728
8098,33792
8099,33792
8100,33728
8101,33792
8102,33792
8103,33856
8104,33856
8105,33920
8106,33984
8107,33984
8108,33984
8109,34048
8110,34112
8111,34112
8112,34048
8113,34112
8114,34176
8115,34304
8116,34304
8117,34304
8118,34304
8119,34304
8120,34304
8121,34304
8122,34304
8123,34304
8124,34304
8125,34304
8126,34368
8127,34432
8128,34432
8129,34496
8130,34496
8131,34496
8132,34560
8133,34432
8134,34368
8135,34368
8136,34368
8137,34368
8138,34368
8139,34368
8140,34432
8141,34368
8142,34368
8143,34368
8144,34368
8145,34304
8146,34304
8147,34240
8148,34112
8149,34048
8150,33920
8151,33792
8152,33728
8153,33664
8154,33536
8155,33472
8156,33536
8157,33472
8158,33408
8159,33344
8160,33344
8161,33344
8162,33344
8163,33408
8164,33472
8165,33536
8166,33536
8167,33536
8168,33536
8169,33600
8170,33728
8171,33792
8172,33856
8173,33920
8174,33984
8175,33984
8176,34048
8177,34112
8178,34112
8179,34112
8180,34112
8181,34112
8182,34048
8183,33984
8184,33920
8185,33920
8186,33920
8187,33920
8188,33920
8189,33920
8190,33984
8191,33920
8192,33856
8193,33856
8194,33856
8195,33856
8196,33792
8197,33792
8198,33728
8199,33728
8200,33728
8201,33792
8202,33792
8203,33792
8204,33856
8205,33920
8206,33984
8207,33984
8208,33920
8209,33856
8210,33984
8211,34048
8212,34176
8213,34240
8214,34368
8215,34432
8216,34432
8217,34496
8218,34752
8219,34880
8220,34880
8221,34752
8222,34752
8223,34752
8224,34688
8225,34624
8226,34496
8227,34368
8228,34176
8229,33920
8230,33664
8231,33472
8232,33280
8233,33088
8234,33024
8235,33024
8236,33024
8237,33088
8238,33152
8239,33280
8240,33344
8241,33408
8242,33408
8243,33472
8244,33536
8245,33792
8246,34176
8247,34880
8248,35968
8249,37568
8250,39552
8251,40896
8252,41088
8253,40000
8254,37952
8255,35584
8256,33280
8257,31360
8258,30016
8259,29440
8260,29568
8261,30208
8262,30976
8263,31744
8264,32384
8265,32832
8266,33152
8267,33280
8268,33408
8269,33536
8270,33536
8271,33536
8272,33600
8273,33664
8274,33664
8275,33728
8276,33792
8277,33856
8278,33792
8279,33792
8280,33856
8281,33984
8282,34048
8283,34048
8284,34048
8285,34112
8286,34176
8287,34112
8288,34176
8289,34240
8290,34304
8291,34240
8292,34176
8293,34176
8294,34176
8295,34176
8296,34176
8297,34240
8298,34304
8299,34304
8300,34304
8301,34368
8302,34432
8303,34496
8304,34496
8305,34496
8306,34560
8307,34624
8308,34560
8309,34560
8310,34560
8311,34624
8312,34624
8313,34624
8314,34624
8315,34560
8316,34496
8317,34432
8318,34496
8319,34496
8320,34432
8321,34304
8322,34304
8323,34304
8324,34368
8325,34368
8326,34304
8327,34368
8328,34368
8329,34304
8330,34240
8331,34112
8332,34048
8333,33856
8334,33664
8335,33664
8336,33600
8337,33536
8338,33472
8339,33472
8340,33472
8341,33408
8342,33344
8343,33344
8344,33408
8345,33408
8346,33472
8347,33536
8348,33664
8349,33728
8350,33792
8351,33792
8352,33856
8353,33856
8354,33856
8355,33920
8356,34048
8357,34112
8358,34176
8359,34176
8360,34240
8361,34240
8362,34240
8363,34240
8364,34176
8365,34176
8366,34112
8367,34048
8368,33984
8369,33984
8370,33920
8371,33920
8372,33984
8373,34112
8374,34176
8375,34176
8376,34112
8377,33984
8378,33920
8379,33856
8380,33856
8381,33856
8382,33856
8383,33856
8384,33920
8385,34048
8386,34048
8387,34048
8388,33920
8389,33984
8390,34048
8391,34048
8392,33984
8393,33984
8394,33984
8395,34048
8396,34112
8397,34176
8398,34304
8399,34368
8400,34368
8401,34368
8402,34496
8403,34624
8404,34688
8405,34688
8406,34752
8407,34752
8408,34624
8409,34560
8410,34432
8411,34240
8412,33984
8413,33792
8414,33664
8415,33472
8416,33280
8417,33152
8418,33088
8419,33088
8420,33088
8421,33088
8422,33216
8423,33344
8424,33408
8425,33408
8426,33408
8427,33472
8428,33536
8429,33728
8430,34048
8431,34624
8432,35648
8433,37248
8434,39360
8435,41216
8436,41984
8437,41408
8438,39552
8439,36928
8440,34240
8441,31808
8442,30080
8443,29248
8444,29056
8445,29504
8446,30336
8447,31104
8448,31744
8449,32192
8450,32512
8451,32768
8452,33024
8453,33216
8454,33280
8455,33344
8456,33344
8457,33408
8458,33472
8459,33600
8460,33728
8461,33792
8462,33728
8463,33792
8464,33728
8465,33856
8466,33792
8467,33792
8468,33856
8469,33792
8470,33920
8471,33984
8472,34048
8473,34112
8474,34112
8475,34176
8476,34176
8477,34240
8478,34240
8479,34240
8480,34176
8481,34240
8482,34368
8483,34368
8484,34432
8485,34432
8486,34432
8487,34432
8488,34496
8489,34560
8490,34496
8491,34496
8492,34496
8493,34560
8494,34496
8495,34496
8496,34496
8497,34496
8498,34496
8499,34432
8500,34432
8501,34432
8502,34368
8503,34304
8504,34368
8505,34368
8506,34304
8507,34176
8508,34176
8509,34176
8510,34112
8511,34048
8512,33984
8513,33920
8514,33856
8515,33856
8516,33728
8517,33600
8518,33536
8519,33472
8520,33408
8521,33344
8522,33344
8523,33344
8524,33408
8525,33344
8526,33408
8527,33344
8528,33280
8529,33280
8530,33408
8531,33472
8532,33472
8533,33536
8534,33600
8535,33664
8536,33664
8537,33792
8538,33856
8539,34048
8540,34176
8541,34176
8542,34112
8543,34048
8544,33984
8545,33792
8546,33856
8547,33920
8548,33984
8549,33920
8550,33856
8551,33856
8552,33792
8553,33792
8554,33792
8555,33728
8556,33856
8557,33792
8558,33728
8559,33664
8560,33792
8561,33856
8562,33792
8563,33792
8564,33792
8565,33728
8566,33728
8567,33792
8568,33792
8569,33856
8570,33792
8571,33856
8572,33920
8573,33984
8574,33920
8575,33984
8576,34048
8577,34048
8578,33984
8579,33856
8580,33856
8581,33920
8582,33984
8583,34048
8584,34176
8585,34112
8586,34304
8587,34432
8588,34560
8589,34688
8590,34752
8591,34816
8592,34816
8593,34752
8594,34688
8595,34624
8596,34624
8597,34560
8598,34496
8599,34368
8600,34240
8601,34112
8602,33920
8603,33664
8604,33408
8605,33280
8606,33216
8607,33216
8608,33280
8609,33280
8610,33216
8611,33216
8612,33280
8613,33344
8614,33472
8615,33536
8616,33600
8617,33664
8618,33920
8619,34304
8620,35008
8621,36352
8622,38272
8623,40384
8624,41600
8625,41600
8626,40320
8627,37888
8628,35136
8629,32384
8630,30464
8631,29312
8632,28992
8633,29376
8634,30208
8635,31104
8636,31808
8637,32320
8638,32704
8639,32960
8640,33088
8641,33088
8642,33152
8643,33152
8644,33216
8645,33344
8646,33408
8647,33536
8648,33536
8649,33536
8650,33536
8651,33536
8652,33600
8653,33600
8654,33536
8655,33664
8656,33728
8657,33856
8658,33856
8659,33856
8660,33920
8661,33920
8662,34112
8663,34304
8664,34368
8665,34304
8666,34176
8667,34112
8668,34112
8669,34112
8670,34112
8671,34048
8672,34048
8673,34112
8674,34112
8675,34112
8676,34048
8677,34112
8678,34240
8679,34240
8680,34304
8681,34368
8682,34368
8683,34368
8684,34368
8685,34432
8686,34368
8687,34304
8688,34240
8689,34176
8690,34112
8691,34112
8692,34048
8693,33984
8694,34048
8695,34048
8696,34112
8697,34176
8698,34240
8699,34240
8700,34112
8701,34112
8702,33984
8703,33856
8704,33792
8705,33856
8706,33792
8707,33600
8708,33344
8709,33152
8710,33024
8711,32960
8712,33024
8713,33152
8714,33216
8715,33280
8716,33280
8717,33280
8718,33344
8719,33408
8720,33344
8721,33280
8722,33344
8723,33472
8724,33600
8725,33728
8726,33856
8727,33984
8728,33984
8729,33920
8730,33920
8731,33920
8732,33920
8733,33856
8734,33856
8735,33856
8736,33920
8737,33984
8738,34048
8739,33984
8740,33920
8741,33728
8742,33664
8743,33728
8744,33792
8745,33792
8746,33792
8747,33728
8748,33664
8749,33728
8750,33728
8751,33792
8752,33792
8753,33728
8754,33728
8755,33728
8756,33728
8757,33664
8758,33728
8759,33856
8760,34048
8761,34176
8762,34240
8763,34304
8764,34432
8765,34368
8766,34688
8767,34880
8768,34880
8769,34880
8770,34752
8771,34624
8772,34432
8773,34304
8774,34240
8775,34176
8776,34112
8777,33984
8778,33792
8779,33664
8780,33536
8781,33408
8782,33280
8783,33216
8784,33216
8785,33280
8786,33344
8787,33344
8788,33408
8789,33472
8790,33472
8791,33472
8792,33472
8793,33664
8794,33984
8795,34560
8796,35712
8797,37376
8798,39232
8799,40192
8800,39936
8801,38656
8802,36736
8803,34688
8804,32704
8805,31168
8806,30144
8807,29632
8808,29760
8809,30336
8810,31168
8811,32000
8812,32576
8813,33088
8814,33344
8815,33472
8816,33536
8817,33664
8818,33728
8819,33664
8820,33664
8821,33664
8822,33728
8823,33728
8824,33728
8825,33664
8826,33728
8827,33856
8828,33984
8829,34048
8830,34176
8831,34112
8832,34048
8833,34048
8834,34048
8835,34112
8836,34112
8837,34048
8838,33920
8839,33920
8840,33920
8841,34048
8842,34048
8843,34112
8844,34240
8845,34368
8846,34432
8847,34496
8848,34560
8849,34560
8850,34496
8851,34432
8852,34432
8853,34432
8854,34432
8855,34432
8856,34496
8857,34432
8858,34304
8859,34240
8860,34176
8861,34176
8862,34304
8863,34432
8864,34432
8865,34368
8866,34240
8867,34176
8868,34176
8869,34304
8870,34304
8871,34304
8872,34304
8873,34240
8874,34112
8875,34112
8876,34176
8877,34176
8878,34048
8879,33920
8880,33728
8881,33664
8882,33600
8883,33600
8884,33536
8885,33472
8886,33408
8887,33344
8888,33408
8889,33408
8890,33472
8891,33536
8892,33728
8893,33856
8894,33920
8895,33856
8896,33792
8897,33728
8898,33856
8899,33920
8900,33856
8901,33984
8902,34048
8903,34176
8904,34176
8905,34240
8906,34176
8907,34112
8908,34048
8909,34048
8910,34048
8911,34112
8912,34048
8913,34048
8914,33920
8915,33920
8916,33920
8917,33920
8918,33920
8919,33856
8920,33792
8921,33664
8922,33728
8923,33792
8924,33792
8925,33920
8926,34048
8927,34176
8928,34304
8929,34304
8930,34368
8931,34496
8932,34560
8933,34624
8934,34688
8935,34880
8936,34816
8937,34752
8938,34752
8939,34816
8940,34816
8941,34752
8942,34688
8943,34432
8944,34048
8945,33984
8946,33600
8947,33472
8948,33344
8949,33216
8950,33152
8951,33152
8952,33152
8953,33152
8954,33088
8955,33088
8956,33152
8957,33152
8958,33216
8959,33280
8960,33408
8961,33664
8962,34048
8963,34816
8964,35904
8965,37568
8966,39552
8967,40896
8968,40960
8969,39744
8970,37632
8971,35136
8972,32832
8973,31040
8974,29696
8975,29376
8976,29568
8977,30208
8978,31040
8979,31872
8980,32576
8981,33088
8982,33344
8983,33472
8984,33536
8985,33664
8986,33728
8987,33728
8988,33792
8989,33856
8990,33856
8991,33792
8992,33792
8993,33856
8994,33856
8995,33728
8996,33728
8997,33792
8998,33920
8999,33984
9000,34048
9001,34176
9002,34304
9003,34304
9004,34304
9005,34240
9006,34304
9007,34176
9008,34176
9009,34112
9010,34176
9011,34240
9012,34304
9013,34368
9014,34432
9015,34432
9016,34368
9017,34368
9018,34368
9019,34432
9020,34432
9021,34496
9022,34624
9023,34560
9024,34432
9025,34368
9026,34432
9027,34496
9028,34496
9029,34560
9030,34560
9031,34560
9032,34560
9033,34496
9034,34496
9035,34496
9036,34560
9037,34496
9038,34432
9039,34432
9040,34496
9041,34368
9042,34240
9043,34112
9044,33984
9045,33920
9046,33792
9047,33792
9048,33728
9049,33664
9050,33600
9051,33536
9052,33600
9053,33600
9054,33600
9055,33600
9056,33664
9057,33664
9058,33600
9059,33600
9060,33664
9061,33728
9062,33792
9063,33856
9064,33920
9065,33984
9066,33984
9067,33920
9068,33920
9069,33920
9070,33920
9071,33984
9072,34112
9073,34176
9074,34240
9075,34240
9076,34240
9077,34240
9078,34176
9079,34112
9080,34048
9081,34112
9082,34112
9083,34112
9084,34112
9085,34048
9086,33984
9087,33856
9088,33792
9089,33792
9090,33792
9091,33856
9092,33984
9093,34176
9094,34304
9095,34368
9096,34368
9097,34368
9098,34432
9099,34560
9100,34624
9101,34752
9102,34880
9103,34880
9104,34880
9105,34944
9106,34944
9107,34944
9108,34816
9109,34560
9110,34496
9111,34176
9112,33920
9113,33664
9114,33536
9115,33408
9116,33280
9117,33152
9118,33152
9119,33216
9120,33216
9121,33216
9122,33280
9123,33344
9124,33344
9125,33408
9126,33408
9127,33408
9128,33600
9129,33920
9130,34624
9131,35776
9132,37440
9133,39488
9134,40960
9135,41408
9136,40384
9137,38272
9138,35776
9139,32448
9140,32128
9141,29952
9142,29312
9143,29440
9144,30144
9145,30912
9146,31680
9147,32384
9148,32768
9149,33024
9150,33216
9151,33408
9152,33600
9153,33664
9154,33600
9155,33536
9156,33600
9157,33664
9158,33728
9159,33792
9160,33856
9161,33856
9162,33856
9163,33984
9164,34048
9165,34112
9166,34112
9167,34176
9168,34176
9169,34176
9170,34112
9171,34048
9172,34048
9173,34176
9174,34240
9175,34304
9176,34368
9177,34496
9178,34432
9179,34432
9180,34496
9181,34560
9182,34560
9183,34560
9184,34624
9185,34624
9186,34560
9187,34496
9188,34560
9189,34560
9190,34624
9191,34624
9192,34560
9193,34624
9194,34688
9195,34624
9196,34560
9197,34560
9198,34496
9199,34432
9200,34368
9201,34368
9202,34432
9203,34432
9204,34304
9205,34304
9206,34304
9207,34368
9208,34432
9209,34432
9210,34432
9211,34368
9212,34304
9213,34112
9214,33984
9215,33856
9216,33856
9217,33792
9218,33792
9219,33728
9220,33600
9221,33472
9222,33472
9223,33472
9224,33472
9225,33472
9226,33536
9227,33600
9228,33664
9229,33728
9230,33856
9231,33984
9232,33984
9233,33984
9234,33984
9235,34048
9236,34112
9237,34112
9238,34176
9239,34240
9240,34240
9241,34240
9242,34240
9243,34304
9244,34304
9245,34176
9246,34112
9247,34048
9248,34048
9249,33984
9250,33920
9251,33984
9252,34048
9253,34048
9254,34048
9255,34048
9256,33984
9257,33984
9258,33984
9259,33984
9260,33984
9261,34048
9262,34048
9263,34048
9264,34176
9265,34304
9266,34496
9267,34624
9268,34816
9269,34880
9270,34816
9271,34816
9272,34816
9273,34752
9274,34624
9275,34624
9276,34688
9277,34688
9278,34624
9279,34560
9280,34496
9281,34368
9282,34176
9283,33920
9284,33664
9285,33472
9286,33280
9287,33216
9288,33152
9289,33216
9290,33216
9291,33280
9292,33408
9293,33536
9294,33536
9295,33536
9296,33536
9297,33600
9298,33600
9299,33856
9300,34368
9301,35136
9302,36416
9303,38208
9304,40448
9305,41216
9306,41152
9307,39744
9308,37440
9309,35008
9310,32704
9311,30976
9312,29952
9313,29568
9314,29824
9315,30464
9316,31296
9317,32064
9318,32640
9319,33024
9320,33152
9321,33216
9322,33408
9323,33536
9324,33728
9325,33856
9326,33920
9327,33920
9328,33856
9329,33856
9330,33920
9331,33920
9332,33920
9333,33920
9334,33984
9335,34112
9336,34176
9337,34176
9338,34176
9339,34176
9340,34176
9341,34176
9342,34176
9343,34240
9344,34368
9345,34432
9346,34432
9347,34432
9348,34432
9349,34432
9350,34432
9351,34560
9352,34688
9353,34752
9354,34752
9355,34624
9356,34560
9357,34560
9358,34560
9359,34560
9360,34560
9361,34688
9362,34752
9363,34816
9364,34816
9365,34752
9366,34688
9367,34624
9368,34624
9369,34624
9370,34624
9371,34624
9372,34624
9373,34560
9374,34496
9375,34432
9376,34496
9377,34560
9378,34496
9379,34368
9380,34304
9381,34304
9382,34304
9383,34176
9384,34048
9385,33920
9386,33856
9387,33728
9388,33664
9389,33536
9390,33472
9391,33408
9392,33408
9393,33472
9394,33536
9395,33536
9396,33536
9397,33600
9398,33664
9399,33664
9400,33728
9401,33792
9402,33856
9403,33856
9404,33856
9405,33920
9406,33984
9407,34112
9408,34176
9409,34240
9410,34240
9411,34240
9412,34176
9413,34176
9414,34176
9415,34176
9416,34112
9417,34176
9418,34176
9419,34176
9420,34112
9421,34048
9422,34048
9423,34048
9424,34048
9425,33984
9426,33984
9427,33984
9428,33984
9429,33984
9430,33984
9431,33920
9432,33920
9433,33792
9434,33792
9435,33792
9436,33856
9437,33856
9438,33920
9439,34048
9440,34240
9441,34304
9442,34432
9443,34560
9444,34624
9445,34624
9446,34752
9447,34816
9448,34752
9449,34688
9450,34688
9451,34624
9452,34624
9453,34560
9454,34432
9455,34176
9456,33984
9457,33792
9458,33536
9459,33344
9460,33152
9461,33088
9462,33152
9463,33152
9464,33152
9465,33152
9466,33152
9467,33152
9468,33280
9469,33344
9470,33408
9471,33344
9472,33344
9473,33472
9474,33856
9475,34496
9476,35520
9477,37184
9478,39040
9479,40192
9480,40064
9481,38848
9482,36928
9483,34816
9484,32768
9485,31168
9486,30080
9487,29632
9488,29824
9489,30400
9490,31168
9491,31872
9492,32384
9493,32768
9494,33088
9495,33216
9496,33344
9497,33408
9498,33536
9499,33600
9500,33728
9501,33792
9502,33792
9503,33792
9504,33728
9505,33728
9506,33792
9507,33792
9508,33856
9509,33984
9510,34048
9511,34112
9512,34048
9513,34048
9514,34112
9515,34112
9516,34112
9517,34048
9518,34048
9519,34048
9520,34048
9521,33984
9522,34048
9523,34176
9524,34176
9525,34176
9526,34176
9527,34304
9528,34432
9529,34432
9530,34432
9531,34432
9532,34432
9533,34432
9534,34368
9535,34432
9536,34432
9537,34432
9538,34432
9539,34432
9540,34432
9541,34432
9542,34368
9543,34240
9544,34176
9545,34112
9546,34176
9547,34240
9548,34240
9549,34176
9550,34176
9551,34176
9552,34240
9553,34304
9554,34240
9555,34240
9556,34240
9557,34112
9558,33984
9559,33856
9560,33728
9561,33600
9562,33536
9563,33536
9564,33472
9565,33408
9566,33344
9567,33408
9568,33408
9569,33536
9570,33536
9571,33472
9572,33536
9573,33728
9574,33856
9575,33856
9576,33920
9577,33984
9578,34048
9579,34048
9580,34176
9581,34240
9582,34304
9583,34240
9584,34240
9585,34240
9586,34240
9587,34240
9588,34240
9589,34240
9590,34176
9591,34176
9592,34112
9593,34112
9594,34112
9595,34112
9596,34048
9597,33984
9598,33920
9599,33920
9600,33920
9601,33920
9602,33984
9603,34048
9604,34176
9605,34304
9606,34432
9607,34496
9608,34624
9609,34688
9610,34880
9611,34944
9612,34944
9613,34816
9614,34816
9615,34816
9616,34752
9617,34688
9618,34560
9619,34432
9620,34176
9621,33856
9622,33536
9623,33344
9624,33152
9625,33024
9626,33024
9627,33088
9628,33152
9629,33280
9630,33344
9631,33408
9632,33472
9633,33408
9634,33408
9635,33472
9636,33600
9637,33792
9638,34176
9639,34880
9640,35968
9641,37568
9642,39168
9643,39872
9644,39360
9645,37952
9646,36160
9647,34240
9648,32512
9649,31104
9650,30208
9651,29824
9652,30144
9653,30848
9654,31616
9655,32256
9656,32768
9657,33216
9658,33536
9659,33664
9660,33728
9661,33856
9662,33856
9663,33856
9664,33856
9665,33920
9666,33920
9667,33920
9668,33984
9669,33984
9670,33984
9671,33920
9672,33920
9673,33984
9674,34048
9675,34112
9676,34176
9677,34176
9678,34176
9679,34176
9680,34240
9681,34240
9682,34304
9683,34304
9684,34304
9685,34368
9686,34432
9687,34432
9688,34496
9689,34560
9690,34560
9691,34560
9692,34560
9693,34560
9694,34560
9695,34560
9696,34560
9697,34560
9698,34624
9699,34560
9700,34496
9701,34560
9702,34624
9703,34624
9704,34624
9705,34496
9706,34496
9707,34496
9708,34432
9709,34368
9710,34368
9711,34368
9712,34368
9713,34368
9714,34368
9715,34368
9716,34368
9717,34304
9718,34240
9719,34176
9720,34048
9721,33984
9722,33856
9723,33792
9724,33600
9725,33472
9726,33408
9727,33408
9728,33344
9729,33280
9730,33280
9731,33344
9732,33408
9733,33536
9734,33600
9735,33600
9736,33664
9737,33728
9738,33856
9739,33984
9740,34112
9741,34112
9742,34048
9743,34048
9744,34048
9745,34048
9746,34112
9747,34176
9748,34240
9749,34304
9750,34240
9751,34240
9752,34240
9753,34240
9754,34240
9755,34304
9756,34432
9757,34432
9758,34368
9759,34176
9760,34112
9761,33984
9762,33920
9763,33920
9764,33984
9765,33984
9766,33984
9767,33920
9768,33920
9769,34048
9770,34176
9771,34304
9772,34432
9773,34496
9774,34432
9775,34432
9776,34560
9777,34752
9778,34816
9779,34752
9780,34688
9781,34752
9782,34752
9783,34688
9784,34624
9785,34624
9786,34432
9787,34176
9788,33920
9789,33664
9790,33408
9791,33280
9792,33152
9793,33088
9794,33152
9795,33216
9796,33280
9797,33280
9798,33216
9799,33216
9800,33280
9801,33344
9802,33408
9803,33472
9804,33600
9805,33920
9806,34560
9807,35520
9808,36864
9809,38656
9810,40064
9811,40320
9812,39552
9813,37952
9814,36032
9815,33984
9816,32128
9817,30720
9818,29952
9819,29952
9820,30464
9821,31168
9822,31872
9823,32512
9824,32960
9825,33280
9826,33408
9827,33536
9828,33664
9829,33728
9830,33792
9831,33856
9832,33984
9833,33984
9834,33920
9835,33856
9836,33856
9837,33920
9838,33984
9839,34048
9840,34112
9841,34112
9842,34176
9843,34176
9844,34176
9845,34112
9846,34048
9847,33984
9848,34048
9849,34176
9850,34176
9851,34176
9852,34176
9853,34176
9854,34176
9855,34240
9856,34304
9857,34368
9858,34368
9859,34432
9860,34496
9861,34496
9862,34496
9863,34560
9864,34688
9865,34752
9866,34816
9867,34752
9868,34752
9869,34816
9870,34816
9871,34752
9872,34688
9873,34624
9874,34624
9875,34624
9876,34688
9877,34688
9878,34560
9879,34368
9880,34240
9881,34240
9882,34368
9883,34368
9884,34368
9885,34240
9886,34048
9887,33920
9888,33856
9889,33792
9890,33728
9891,33600
9892,33536
9893,33472
9894,33344
9895,33280
9896,33216
9897,33280
9898,33408
9899,33472
9900,33536
9901,33536
9902,33536
9903,33536
9904,33536
9905,33536
9906,33600
9907,33600
9908,33664
9909,33792
9910,33920
9911,33984
9912,33920
9913,33920
9914,33920
9915,34048
9916,34048
9917,34048
9918,34112
9919,34240
9920,34368
9921,34304
9922,34304
9923,34240
9924,34176
9925,34112
9926,34048
9927,34048
9928,34048
9929,33984
9930,33984
9931,33984
9932,33984
9933,33984
9934,33984
9935,33984
9936,33920
9937,33920
9938,33856
9939,33856
9940,33856
9941,33856
9942,33856
9943,33984
9944,34112
9945,34240
9946,34368
9947,34560
9948,34624
9949,34560
9950,34496
9951,34560
9952,34624
9953,34624
9954,34624
9955,34560
9956,34560
9957,34496
9958,34496
9959,34432
9960,34304
9961,34048
9962,33792
9963,33408
9964,33216
9965,33152
9966,33088
9967,33088
9968,33088
9969,33152
9970,33280
9971,33280
9972,33344
9973,33344
9974,33344
9975,33344
9976,33344
9977,33472
9978,33856
9979,34368
9980,35392
9981,36672
9982,38400
9983,40192
9984,40960
9985,40576
9986,39104
9987,36992
9988,34624
9989,32384
9990,30720
9991,29824
9992,29632
9993,30016
9994,30720
9995,31488
9996,32064
9997,32512
9998,32832
9999,33088
10000,33280
10001,33472
10002,33664
10003,33856
10004,33856
10005,33920
10006,33920
10007,33920
10008,33792
10009,33600
10010,33536
10011,33600
10012,33600
10013,33664
10014,33728
10015,33792
10016,33856
10017,33920
10018,34048
10019,34048
10020,34048
10021,34048
10022,34176
10023,34240
10024,34368
10025,34432
10026,34432
10027,34432
10028,34432
10029,34368
10030,34432
10031,34496
10032,34560
10033,34496
10034,34496
10035,34560
10036,34624
10037,34624
10038,34496
10039,34496
10040,34560
10041,34560
10042,34432
10043,34368
10044,34368
10045,34432
10046,34560
10047,34560
10048,34560
10049,34560
10050,34496
10051,34432
10052,34368
10053,34496
10054,34496
10055,34560
10056,34688
10057,34624
10058,34560
10059,34432
10060,34304
10061,34176
10062,34048
10063,33856
10064,33792
10065,33728
10066,33664
10067,33536
10068,33472
10069,33408
10070,33344
10071,33344
10072,33408
10073,33536
10074,33600
10075,33600
10076,33536
10077,33472
10078,33408
10079,33408
10080,33408
10081,33472
10082,33600
10083,33664
10084,33728
10085,33856
10086,33920
10087,33920
10088,33856
10089,33856
10090,33856
10091,33984
10092,34112
10093,34304
10094,34432
10095,34368
10096,34240
10097,34176
10098,34112
10099,34048
10100,33920
10101,33856
10102,33920
10103,33984
10104,34048
10105,34048
10106,34112
10107,34048
10108,33920
10109,33792
10110,33728
10111,33728
10112,33792
10113,33792
10114,33856
10115,33920
10116,33920
10117,33984
10118,33984
10119,33984
10120,33984
10121,34048
10122,34112
10123,34176
10124,34240
10125,34304
10126,34304
10127,34304
10128,34368
10129,34496
10130,34688
10131,34880
10132,34944
10133,34880
10134,34752
10135,34752
10136,34816
10137,34752
10138,34688
10139,34496
10140,34304
10141,34112
10142,33856
10143,33600
10144,33472
10145,33344
10146,33216
10147,33216
10148,33280
10149,33280
10150,33216
10151,33216
10152,33280
10153,33408
10154,33472
10155,33536
10156,33600
10157,33728
10158,33984
10159,34496
10160,35328
10161,36480
10162,38208
10163,40064
10164,41024
10165,40832
10166,39424
10167,37184
10168,34752
10169,32512
10170,30784
10171,29824
10172,29568
10173,29952
10174,30720
10175,31424
10176,31936
10177,32384
10178,32768
10179,33088
10180,33280
10181,33408
10182,33472
10183,33472
10184,33536
10185,33536
10186,33600
10187,33664
10188,33792
10189,33856
10190,33792
10191,33728
10192,33728
10193,33856
10194,33920
10195,33984
10196,34048
10197,34112
10198,34112
10199,34048
10200,33984
10201,34048
10202,34176
10203,34304
10204,34368
10205,34368
10206,34304
10207,34304
10208,34048
10209,33984
10210,34048
10211,34112
10212,34240
10213,34240
10214,34304
10215,34368
10216,34496
10217,34624
10218,34688
10219,34688
10220,34688
10221,34624
10222,34624
10223,34688
10224,34752
10225,34752
10226,34752
10227,34752
10228,34688
10229,34624
10230,34688
10231,34688
10232,34624
10233,34624
10234,34560
10235,34496
10236,34432
10237,34368
10238,34304
10239,34240
10240,34240
10241,34240
10242,34176
10243,34112
10244,34112
10245,33920
10246,33728
10247,33536
10248,33472
10249,33408
10250,33344
10251,33280
10252,33216
10253,33152
10254,33152
10255,33152
10256,33216
10257,33280
10258,33280
10259,33280
10260,33344
10261,33472
10262,33536
10263,33664
10264,33728
10265,33792
10266,33664
10267,33536
10268,33600
10269,33792
10270,33920
10271,33984
10272,33984
10273,34048
10274,34048
10275,34048
10276,34112
10277,34176
10278,34112
10279,34048
10280,34048
10281,34048
10282,33984
10283,33984
10284,33920
10285,33920
10286,33856
10287,33792
10288,33792
10289,33920
10290,33984
10291,34048
10292,34048
10293,34048
10294,33984
10295,33920
10296,33856
10297,33920
10298,34048
10299,33984
10300,34112
10301,34112
10302,34048
10303,33984
10304,33856
10305,33856
10306,33856
10307,33792
10308,33792
10309,33920
10310,33920
10311,34304
10312,34432
10313,34560
10314,34624
10315,34624
10316,34624
10317,34560
10318,34688
10319,34816
10320,34944
10321,34944
10322,34880
10323,34816
10324,34688
10325,34560
10326,34368
10327,34176
10328,33920
10329,33792
10330,33344
10331,33280
10332,33280
10333,33344
10334,33344
10335,33280
10336,33216
10337,33152
10338,33216
10339,33344
10340,33408
10341,33472
10342,33472
10343,33536
10344,33472
10345,33664
10346,34176
10347,35072
10348,36288
10349,37888
10350,39808
10351,41024
10352,41152
10353,39936
10354,37632
10355,35200
10356,32832
10357,30976
10358,29824
10359,29696
10360,29760
10361,30464
10362,31168
10363,31808
10364,32384
10365,32768
10366,33024
10367,33216
10368,33472
10369,33536
10370,33600
10371,33600
10372,33664
10373,33664
10374,33664
10375,33664
10376,33728
10377,33792
10378,33792
10379,33792
10380,33856
10381,33856
10382,33920
10383,33920
10384,33984
10385,34048
10386,34112
10387,34112
10388,34176
10389,34176
10390,34176
10391,34176
10392,34176
10393,34112
10394,34176
10395,34112
10396,34176
10397,34240
10398,34240
10399,34176
10400,34112
10401,34176
10402,34368
10403,34432
10404,34496
10405,34496
10406,34560
10407,34496
10408,34496
10409,34560
10410,34624
10411,34624
10412,34624
10413,34624
10414,34752
10415,34816
10416,34816
10417,34816
10418,34752
10419,34688
10420,34560
10421,34560
10422,34560
10423,34560
10424,34496
10425,34432
10426,34368
10427,34304
10428,34176
10429,33984
10430,33856
10431,33728
10432,33600
10433,33536
10434,33600
10435,33600
10436,33472
10437,33280
10438,33152
10439,33216
10440,33216
10441,33152
10442,33152
10443,33216
10444,33408
10445,33408
10446,33408
10447,33536
10448,33664
10449,33728
10450,33728
10451,33664
10452,33664
10453,33728
10454,33792
10455,33920
10456,34048
10457,34112
10458,34048
10459,34048
10460,33984
10461,33984
10462,33984
10463,34048
10464,34112
10465,34112
10466,34176
10467,34176
10468,34304
10469,34304
10470,34304
10471,34176
10472,34176
10473,34112
10474,34048
10475,34048
10476,33984
10477,33984
10478,33984
10479,33984
10480,34048
10481,34112
10482,34176
10483,34176
10484,34112
10485,34048
10486,34048
10487,33984
10488,34048
10489,34048
10490,33984
10491,33856
10492,33792
10493,33856
10494,33920
10495,33920
10496,33984
10497,34048
10498,34176
10499,34240
10500,34304
10501,34496
10502,34688
10503,34688
10504,34752
10505,34816
10506,34880
10507,34816
10508,34816
10509,34816
10510,34752
10511,34688
10512,34688
10513,34560
10514,34496
10515,34368
10516,34048
10517,33728
10518,33536
10519,33408
10520,33344
10521,33280
10522,33216
10523,33152
10524,33088
10525,33152
10526,33280
10527,33408
10528,33472
10529,33536
10530,33600
10531,33600
10532,33664
10533,33792
10534,34240
10535,35136
10536,36544
10537,38464
10538,40512
10539,41536
10540,41472
10541,40064
10542,37696
10543,35072
10544,32576
10545,30592
10546,29376
10547,28992
10548,29376
10549,30336
10550,31104
10551,31872
10552,32384
10553,32832
10554,33024
10555,33152
10556,33280
10557,33344
10558,33472
10559,33536
10560,33600
10561,33536
10562,33472
10563,33472
10564,33664
10565,33728
10566,33856
10567,33920
10568,33920
10569,33984
10570,34048
10571,34048
10572,34112
10573,34112
10574,34112
10575,34176
10576,34176
10577,34240
10578,34240
10579,34112
10580,34048
10581,34048
10582,34048
10583,34048
10584,34176
10585,34240
10586,34368
10587,34432
10588,34496
10589,34624
10590,34624
10591,34560
10592,34560
10593,34560
10594,34560
10595,34496
10596,34432
10597,34496
10598,34496
10599,34496
10600,34496
10601,34496
10602,34560
10603,34560
10604,34560
10605,34624
10606,34688
10607,34752
10608,34688
10609,34624
10610,34624
10611,34624
10612,34624
10613,34496
10614,34432
10615,34368
10616,34304
10617,34240
10618,34112
10619,33920
10620,33664
10621,33472
10622,33344
10623,33152
10624,33088
10625,33152
10626,33216
10627,33280
10628,33344
10629,33344
10630,33408
10631,33472
10632,33472
10633,33472
10634,33472
10635,33472
10636,33472
10637,33472
10638,33472
10639,33472
10640,33536
10641,33600
10642,33664
10643,33856
10644,33984
10645,34048
10646,34176
10647,34304
10648,34432
10649,34368
10650,34240
10651,34176
10652,34112
10653,34176
10654,34240
10655,34304
10656,34304
10657,34176
10658,34048
10659,33984
10660,33984
10661,33984
10662,33984
10663,33984
10664,33984
10665,34048
10666,34048
10667,34048
10668,34048
10669,34112
10670,34112
10671,34048
10672,34048
10673,34048
10674,33984
10675,33920
10676,33984
10677,33984
10678,33920
10679,33920
10680,34048
10681,34112
10682,34112
10683,33984
10684,33984
10685,34048
10686,34048
10687,34048
10688,34176
10689,34304
10690,34368
10691,34496
10692,34560
10693,34624
10694,34752
10695,34944
10696,35072
10697,35008
10698,34944
10699,34816
10700,34688
10701,34624
10702,34560
10703,34432
10704,34240
10705,34048
10706,33856
10707,33536
10708,33280
10709,33152
10710,33152
10711,33152
10712,33152
10713,33280
10714,33408
10715,33536
10716,33536
10717,33344
10718,33280
10719,33344
10720,33344
10721,33408
10722,33664
10723,34176
10724,35072
10725,36288
10726,38016
10727,40064
10728,41536
10729,41728
10730,40640
10731,38464
10732,35776
10733,33088
10734,30912
10735,29568
10736,29056
10737,29312
10738,30016
10739,30912
10740,31680
10741,32256
10742,32640
10743,32896
10744,33088
10745,33152
10746,33088
10747,33152
10748,33280
10749,33408
10750,33536
10751,33600
10752,33664
10753,33728
10754,33728
10755,33728
10756,33792
10757,33792
10758,33792
10759,33728
10760,33792
10761,33856
10762,33856
10763,33856
10764,33920
10765,34048
10766,34048
10767,34048
10768,34048
10769,34112
10770,34112
10771,34112
10772,34112
10773,34176
10774,34240
10775,34304
10776,34304
10777,34368
10778,34368
10779,34368
10780,34368
10781,34432
10782,34432
10783,34560
10784,34688
10785,34752
10786,34752
10787,34688
10788,34624
10789,34624
10790,34688
10791,34624
10792,34560
10793,34560
10794,34688
10795,34624
10796,34560
10797,34560
10798,34560
10799,34496
10800,34368
10801,34368
10802,34304
10803,34176
10804,34176
10805,34176
10806,34240
10807,34176
10808,33984
10809,33728
10810,33600
10811,33472
10812,33408
10813,33408
10814,33344
10815,33216
10816,33152
10817,33088
10818,33152
10819,33216
10820,33088
10821,32960
10822,33024
10823,33152
10824,33280
10825,33344
10826,33472
10827,33600
10828,33536
10829,33472
10830,33472
10831,33472
10832,33600
10833,33728
10834,33856
10835,33920
10836,33920
10837,33920
10838,33920
10839,34048
10840,34176
10841,34176
10842,34112
10843,34048
10844,34048
10845,34048
10846,33984
10847,33984
10848,33984
10849,33920
10850,33856
10851,33856
10852,33920
10853,34048
10854,34112
10855,34176
10856,34304
10857,34240
10858,34048
10859,33920
10860,33856
10861,33856
10862,33792
10863,33792
10864,33856
10865,33920
10866,33920
10867,33920
10868,33920
10869,33984
10870,34112
10871,34240
10872,34368
10873,34496
10874,34368
10875,34240
10876,34240
10877,34176
10878,34048
10879,33856
10880,33792
10881,33792
10882,33920
10883,33984
10884,34048
10885,34176
10886,34304
10887,34368
10888,34368
10889,34432
10890,34432
10891,34368
10892,34112
10893,33920
10894,33600
10895,33408
10896,33280
10897,33216
10898,33280
10899,33344
10900,33408
10901,33600
10902,33728
10903,33792
10904,33728
10905,33728
10906,33728
10907,33600
10908,33536
10909,33664
10910,34112
10911,34816
10912,35904
10913,37568
10914,39616
10915,41344
10916,41984
10917,41216
10918,39232
10919,36544
10920,33792
10921,31488
10922,30016
10923,29440
10924,29696
