,ECG
0,33088
1,33024
2,32896
3,32832
4,32832
5,32960
6,33408
7,33920
8,34176
9,33920
10,33280
11,33216
12,33600
13,34496
14,35904
15,37888
16,39360
17,39552
18,38464
19,37056
20,35328
21,33472
22,31872
23,30912
24,30720
25,30912
26,31168
27,31552
28,32064
29,32512
30,32512
31,32448
32,32512
33,32640
34,32640
35,32896
36,33152
37,33024
38,32768
39,32768
40,33024
41,33280
42,33728
43,33920
44,33856
45,33600
46,33600
47,33792
48,34176
49,34624
50,34880
51,34944
52,34560
53,33984
54,33664
55,33728
56,34240
57,34496
58,34240
59,33728
60,33408
61,33408
62,33536
63,33728
64,33856
65,33984
66,34240
67,34496
68,34496
69,34176
70,33856
71,33856
72,34112
73,34432
74,34752
75,34880
76,34816
77,34816
78,34688
79,34624
80,34496
81,34560
82,34816
83,35008
84,34944
85,34752
86,34560
87,34560
88,34560
89,34688
90,34688
91,34624
92,34560
93,34432
94,34432
95,34496
96,34432
97,34304
98,34112
99,34048
100,33984
101,33792
102,33664
103,33600
104,33664
105,33600
106,33536
107,33536
108,33600
109,33600
110,33600
111,33664
112,33792
113,33792
114,33728
115,33728
116,33856
117,33984
118,34048
119,34112
120,34240
121,34304
122,34240
123,34176
124,34240
125,34240
126,34176
127,34240
128,34304
129,34304
130,34240
131,34304
132,34176
133,34048
134,33984
135,34048
136,34176
137,34112
138,34176
139,34176
140,34176
141,34176
142,34112
143,34112
144,34112
145,34048
146,33984
147,33920
148,33984
149,34048
150,34048
151,33984
152,33920
153,34048
154,34048
155,34048
156,34112
157,34112
158,34112
159,34112
160,34112
161,34176
162,34240
163,34240
164,34240
165,34240
166,34240
167,34176
168,34176
169,34176
170,34176
171,34304
172,34368
173,34624
174,34816
175,34880
176,34880
177,35008
178,35200
179,35200
180,35072
181,35008
182,34880
183,34816
184,34752
185,34624
186,34496
187,34304
188,33984
189,33792
190,33664
191,33600
192,33472
193,33344
194,33344
195,33280
196,33280
197,33344
198,33408
199,33472
200,33408
201,33408
202,33536
203,33600
204,33600
205,33728
206,34112
207,34944
208,36288
209,38272
210,40064
211,40704
212,39936
213,38208
214,36224
215,34176
216,32320
217,30912
218,30016
219,29952
220,30400
221,31104
222,31808
223,32448
224,32896
225,33216
226,33472
227,33600
228,33664
229,33600
230,33600
231,33664
232,33792
233,33792
234,33856
235,33792
236,33920
237,33920
238,33920
239,34048
240,34112
241,34112
242,34048
243,34048
244,34112
245,34240
246,34240
247,34240
248,34240
249,34304
250,34304
251,34368
252,34432
253,34496
254,34496
255,34496
256,34496
257,34496
258,34496
259,34496
260,34496
261,34560
262,34496
263,34432
264,34496
265,34560
266,34560
267,34496
268,34496
269,34624
270,34688
271,34688
272,34688
273,34624
274,34688
275,34688
276,34688
277,34688
278,34688
279,34688
280,34624
281,34688
282,34752
283,34752
284,34688
285,34624
286,34560
287,34496
288,34432
289,34368
290,34240
291,34176
292,33984
293,33792
294,33728
295,33664
296,33536
297,33536
298,33600
299,33600
300,33536
301,33408
302,33344
303,33344
304,33472
305,33536
306,33600
307,33600
308,33536
309,33408
310,33344
311,33536
312,33728
313,33984
314,34176
315,34368
316,34432
317,34368
318,34304
319,34368
320,34368
321,34304
322,34240
323,34240
324,34240
325,34176
326,34112
327,34112
328,34176
329,34112
330,33984
331,33920
332,33920
333,33856
334,33856
335,33792
336,33792
337,33856
338,33792
339,33792
340,33792
341,33856
342,33920
343,33984
344,34048
345,34112
346,34048
347,34048
348,34112
349,34112
350,34112
351,34048
352,34048
353,34048
354,34048
355,34112
356,34176
357,34240
358,34240
359,34112
360,33984
361,33920
362,33792
363,33792
364,33792
365,33920
366,33984
367,34048
368,34176
369,34368
370,34560
371,34624
372,34688
373,34752
374,34816
375,34944
376,35136
377,35328
378,35520
379,35712
380,35712
381,35584
382,35072
383,34432
384,33792
385,33728
386,33600
387,33472
388,33344
389,33344
390,33344
391,33088
392,32896
393,32960
394,33344
395,33664
396,33728
397,33856
398,33920
399,33472
400,33344
401,32768
402,32768
403,32960
404,33024
405,33408
406,34944
407,37952
408,41088
409,42880
410,42944
411,41728
412,39488
413,36544
414,33088
415,32832
416,30976
417,30144
418,29568
419,29888
420,30848
421,31616
422,31744
423,31104
424,30720
425,30784
426,31104
427,31424
428,31808
429,32256
430,32512
431,32768
432,33088
433,33536
434,34176
435,34752
436,34688
437,34368
438,33984
439,33600
440,33344
441,33216
442,33344
443,33728
444,34432
445,34432
446,34624
447,34368
448,34176
449,34112
450,33920
451,33856
452,33984
453,34176
454,34304
455,34304
456,34240
457,34176
458,34112
459,34176
460,34496
461,35136
462,35776
463,36032
464,35712
465,35008
466,34496
467,34112
468,33856
469,33856
470,34176
471,34496
472,34688
473,34560
474,34368
475,34368
476,34432
477,34688
478,34816
479,34816
480,34816
481,35008
482,35200
483,35136
484,34880
485,34752
486,34816
487,34880
488,34816
489,34496
490,34368
491,33856
492,33536
493,33152
494,32896
495,32832
496,32768
497,32768
498,32960
499,33088
500,33152
501,33280
502,33408
503,33408
504,33344
505,33280
506,33344
507,33472
508,33728
509,33792
510,33856
511,33856
512,33856
513,33856
514,33792
515,33728
516,33600
517,33536
518,33536
519,33728
520,33728
521,33856
522,33920
523,33920
524,34048
525,33984
526,33984
527,33984
528,34048
529,34112
530,33984
531,33856
532,33856
533,33920
534,33856
535,33856
536,33984
537,33984
538,33920
539,33856
540,33856
541,33792
542,33792
543,33856
544,33856
545,33920
546,33920
547,33920
548,33984
549,34048
550,34048
551,33984
552,33984
553,33984
554,33984
555,33984
556,33984
557,33984
558,34048
559,34048
560,33984
561,34048
562,34112
563,34112
564,34112
565,34048
566,34048
567,33984
568,33984
569,34112
570,34240
571,34304
572,34304
573,34496
574,34624
575,34688
576,34816
577,35072
578,35264
579,35200
580,34816
581,34560
582,34432
583,34304
584,34240
585,34240
586,34304
587,34176
588,33984
589,33728
590,33536
591,33344
592,33152
593,33088
594,33216
595,33216
596,33344
597,33344
598,33344
599,33344
600,33344
601,33344
602,33408
603,33472
604,33408
605,33344
606,33472
607,33856
608,34624
609,36224
610,37952
611,40384
612,42048
613,42496
614,41472
615,39360
616,36672
617,33856
618,31808
619,30400
620,29632
621,29504
622,29824
623,30464
624,31488
625,31552
626,32256
627,32640
628,32768
629,32768
630,32704
631,32704
632,32768
633,32960
634,33024
635,33152
636,33344
637,33472
638,33536
639,33600
640,33728
641,33920
642,33984
643,33984
644,34112
645,34112
646,34112
647,34048
648,34048
649,34048
650,34112
651,34112
652,34176
653,34240
654,34240
655,34176
656,34240
657,34240
658,34240
659,34304
660,34496
661,34560
662,34624
663,34560
664,34560
665,34688
666,34688
667,34624
668,34560
669,34624
670,34560
671,34624
672,34560
673,34560
674,34624
675,34624
676,34624
677,34752
678,34880
679,34944
680,34944
681,35008
682,35072
683,35072
684,35008
685,34880
686,34816
687,34752
688,34816
689,34752
690,34688
691,34496
692,34176
693,33856
694,33600
695,33472
696,33344
697,33152
698,33088
699,33024
700,32960
701,33024
702,33024
703,33024
704,33024
705,32960
706,32960
707,33024
708,33024
709,33024
710,33152
711,33280
712,33408
713,33408
714,33472
715,33472
716,33664
717,33728
718,33792
719,33856
720,33920
721,33856
722,33792
723,33792
724,33728
725,33792
726,33792
727,33856
728,34048
729,34176
730,34112
731,34048
732,33984
733,33920
734,33856
735,33728
736,33664
737,33664
738,33664
739,33600
740,33728
741,33792
742,33856
743,33920
744,33984
745,33984
746,33920
747,33856
748,33920
749,33920
750,33920
751,33856
752,33856
753,33920
754,33856
755,33792
756,33728
757,33728
758,33728
759,33856
760,33856
761,34048
762,34112
763,33984
764,33920
765,33856
766,33920
767,33920
768,33920
769,33920
770,33984
771,33984
772,33984
773,33984
774,34048
775,34048
776,34048
777,34112
778,34176
779,34304
780,34368
781,34496
782,34496
783,34496
784,34560
785,34752
786,34880
787,35008
788,35008
789,34944
790,34944
791,34880
792,34688
793,34432
794,34240
795,33984
796,33664
797,33344
798,33152
799,33088
800,33088
801,33024
802,33088
803,33216
804,33344
805,33408
806,33472
807,33472
808,33472
809,33472
810,33536
811,33536
812,33536
813,33728
814,34176
815,35008
816,36352
817,38336
818,40512
819,42048
820,42432
821,41408
822,39232
823,36544
824,33792
825,31488
826,29888
827,29120
828,29184
829,29696
830,30400
831,31104
832,31680
833,32128
834,32384
835,32576
836,32768
837,32896
838,32960
839,32960
840,33088
841,33216
842,33216
843,33216
844,33280
845,33408
846,33536
847,33600
848,33664
849,33792
850,33856
851,33856
852,33856
853,33920
854,33984
855,33984
856,33984
857,34112
858,34176
859,34176
860,34112
861,34176
862,34240
863,34240
864,34240
865,34304
866,34368
867,34368
868,34304
869,34368
870,34496
871,34560
872,34560
873,34496
874,34560
875,34624
876,34688
877,34752
878,34880
879,34880
880,34816
881,34880
882,34944
883,34944
884,34880
885,34816
886,34880
887,35008
888,35008
889,35008
890,34944
891,34880
892,34880
893,34816
894,34688
895,34560
896,34432
897,34240
898,34112
899,33984
900,33856
901,33728
902,33600
903,33472
904,33408
905,33216
906,33088
907,33088
908,33088
909,32960
910,32960
911,32960
912,33024
913,33024
914,32960
915,33024
916,33152
917,33280
918,33280
919,33344
920,33472
921,33536
922,33600
923,33664
924,33728
925,33728
926,33728
927,33728
928,33728
929,33664
930,33664
931,33664
932,33728
933,33792
934,33792
935,33792
936,33856
937,33920
938,33856
939,33856
940,33856
941,33856
942,33856
943,33856
944,33856
945,33856
946,33792
947,33728
948,33728
949,33792
950,33856
951,33792
952,33792
953,33856
954,33920
955,33920
956,33856
957,33856
958,33792
959,33792
960,33792
961,33856
962,33920
963,33920
964,33920
965,33920
966,33920
967,33920
968,33856
969,33856
970,33920
971,33920
972,33920
973,33920
974,33920
975,33984
976,33984
977,33984
978,33920
979,33920
980,33920
981,33856
982,33920
983,33984
984,33984
985,33984
986,34048
987,33984
988,33920
989,33856
990,33856
991,33856
992,33920
993,33920
994,33984
995,34048
996,34112
997,34048
998,34112
999,34240
1000,34368
1001,34368
1002,34368
1003,34496
1004,34688
1005,34816
1006,34880
1007,34944
1008,34944
1009,34880
1010,34816
1011,34752
1012,34624
1013,34368
1014,34048
1015,33792
1016,33536
1017,33344
1018,33216
1019,33152
1020,33152
1021,33152
1022,33216
1023,33344
1024,33472
1025,33472
1026,33472
1027,33408
1028,33536
1029,33536
1030,33472
1031,33408
1032,33600
1033,34112
1034,34944
1035,36352
1036,38464
1037,40896
1038,42240
1039,42432
1040,41280
1041,39040
1042,36224
1043,33408
1044,31168
1045,29824
1046,29312
1047,29504
1048,30144
1049,30848
1050,31488
1051,31936
1052,32256
1053,32576
1054,32768
1055,32896
1056,32960
1057,33088
1058,33152
1059,33152
1060,33216
1061,33280
1062,33408
1063,33472
1064,33536
1065,33600
1066,33664
1067,33792
1068,33728
1069,33792
1070,33856
1071,33920
1072,33920
1073,33920
1074,33984
1075,34048
1076,34048
1077,34112
1078,34176
1079,34240
1080,34176
1081,34112
1082,34176
1083,34240
1084,34368
1085,34368
1086,34432
1087,34496
1088,34496
1089,34496
1090,34496
1091,34560
1092,34624
1093,34624
1094,34624
1095,34688
1096,34752
1097,34816
1098,34816
1099,34816
1100,34816
1101,34752
1102,34688
1103,34752
1104,34816
1105,34880
1106,34880
1107,35008
1108,35072
1109,35008
1110,34880
1111,34880
1112,34816
1113,34752
1114,34624
1115,34496
1116,34432
1117,34240
1118,34112
1119,33984
1120,33856
1121,33664
1122,33472
1123,33280
1124,33216
1125,33152
1126,33088
1127,33024
1128,33024
1129,33024
1130,33024
1131,33088
1132,33088
1133,33088
1134,33088
1135,33024
1136,33088
1137,33152
1138,33280
1139,33344
1140,33472
1141,33600
1142,33728
1143,33728
1144,33728
1145,33792
1146,33856
1147,33792
1148,33728
1149,33728
1150,33792
1151,33728
1152,33792
1153,33856
1154,33856
1155,33792
1156,33792
1157,33792
1158,33792
1159,33792
1160,33728
1161,33792
1162,33792
1163,33792
1164,33728
1165,33728
1166,33728
1167,33664
1168,33600
1169,33664
1170,33792
1171,33920
1172,33984
1173,34048
1174,34048
1175,34112
1176,34048
1177,34048
1178,33984
1179,33920
1180,33920
1181,33920
1182,33984
1183,33984
1184,33856
1185,33600
1186,33600
1187,33728
1188,33984
1189,34304
1190,34624
1191,35072
1192,35392
1193,35456
1194,35392
1195,36032
1196,36416
1197,35264
1198,33408
1199,32576
1200,32832
1201,32704
1202,32128
1203,32128
1204,32640
1205,32704
1206,32384
1207,32448
1208,33280
1209,34240
1210,34880
1211,35264
1212,35264
1213,34624
1214,34048
1215,33856
1216,33536
1217,32960
1218,32448
1219,32640
1220,33408
1221,33856
1222,33984
1223,34048
1224,34112
1225,34304
1226,34048
1227,33920
1228,34048
1229,34304
1230,34240
1231,33792
1232,33664
1233,33728
1234,33920
1235,34048
1236,34176
1237,34240
1238,34304
1239,34368
1240,34240
1241,33920
1242,33664
1243,33472
1244,33472
1245,33536
1246,33472
1247,33344
1248,33280
1249,33408
1250,33600
1251,33856
1252,33984
1253,33984
1254,33984
1255,34240
1256,34816
1257,35392
1258,36288
1259,37504
1260,38912
1261,40384
1262,41536
1263,41472
1264,39616
1265,36480
1266,33152
1267,30592
1268,29056
1269,28608
1270,29056
1271,29952
1272,30912
1273,31808
1274,32576
1275,32512
1276,32320
1277,32448
1278,32832
1279,33024
1280,33216
1281,33216
1282,33024
1283,32832
1284,32768
1285,32896
1286,33024
1287,33216
1288,33344
1289,33472
1290,33664
1291,33856
1292,33984
1293,33984
1294,34048
1295,34112
1296,34240
1297,34240
1298,34368
1299,34432
1300,34624
1301,34624
1302,34560
1303,34496
1304,34432
1305,34368
1306,34368
1307,34432
1308,34560
1309,34752
1310,34752
1311,34752
1312,34752
1313,34752
1314,34624
1315,34560
1316,34560
1317,34560
1318,34624
1319,34752
1320,34944
1321,34944
1322,34944
1323,34944
1324,34816
1325,34816
1326,34944
1327,35072
1328,35008
1329,34880
1330,34752
1331,34816
1332,34944
1333,35072
1334,34944
1335,34880
1336,34944
1337,35008
1338,34560
1339,34240
1340,34240
1341,34176
1342,33728
1343,33280
1344,33088
1345,32960
1346,32960
1347,32896
1348,32896
1349,32896
1350,33024
1351,33216
1352,33280
1353,33216
1354,33088
1355,33024
1356,33024
1357,33088
1358,33280
1359,33344
1360,33408
1361,33472
1362,33472
1363,33408
1364,33280
1365,33344
1366,33408
1367,33536
1368,33600
1369,33664
1370,33856
1371,33920
1372,33856
1373,33856
1374,33728
1375,33728
1376,33792
1377,33856
1378,33856
1379,33920
1380,33920
1381,33920
1382,33856
1383,33792
1384,33664
1385,33536
1386,33600
1387,33728
1388,33856
1389,33984
1390,33920
1391,33856
1392,33856
1393,33856
1394,33856
1395,33856
1396,33792
1397,33664
1398,33536
1399,33472
1400,33536
1401,33600
1402,33664
1403,33792
1404,34048
1405,34176
1406,34048
1407,33792
1408,33664
1409,33600
1410,33728
1411,33856
1412,33984
1413,33984
1414,33984
1415,33920
1416,33792
1417,33664
1418,33600
1419,33664
1420,33856
1421,34048
1422,34240
1423,34304
1424,34240
1425,34048
1426,33792
1427,33728
1428,33792
1429,33984
1430,34112
1431,34112
1432,34048
1433,33984
1434,33984
1435,34112
1436,34112
1437,34176
1438,34112
1439,33920
1440,33856
1441,34048
1442,34176
1443,34240
1444,34240
1445,34304
1446,34432
1447,34624
1448,34816
1449,34880
1450,34880
1451,34816
1452,34816
1453,34816
1454,34688
1455,34496
1456,34240
1457,34048
1458,33984
1459,33728
1460,33408
1461,33152
1462,33024
1463,33024
1464,33088
1465,33280
1466,33472
1467,33536
1468,33472
1469,33280
1470,33280
1471,33344
1472,33408
1473,33408
1474,33536
1475,33856
1476,34496
1477,35520
1478,37184
1479,39424
1480,41152
1481,41664
1482,40832
1483,38784
1484,36352
1485,33792
1486,31744
1487,30272
1488,29696
1489,29696
1490,30080
1491,30720
1492,31424
1493,32000
1494,32512
1495,32960
1496,33216
1497,33216
1498,33088
1499,33024
1500,33088
1501,33152
1502,33280
1503,33472
1504,33664
1505,33728
1506,33856
1507,33984
1508,34048
1509,33920
1510,33728
1511,33792
1512,33792
1513,33792
1514,33792
1515,33856
1516,33984
1517,34240
1518,34304
1519,34304
1520,34176
1521,33984
1522,33920
1523,33984
1524,34176
1525,34432
1526,34432
1527,34368
1528,34304
1529,34368
1530,34432
1531,34496
1532,34624
1533,34688
1534,34752
1535,34688
1536,34752
1537,34880
1538,34880
1539,34816
1540,34752
1541,34624
1542,34496
1543,34432
1544,34496
1545,34624
1546,34688
1547,34688
1548,34752
1549,34816
1550,34880
1551,34880
1552,34880
1553,34880
1554,34880
1555,34816
1556,34816
1557,34880
1558,34880
1559,34752
1560,34496
1561,34240
1562,34240
1563,34112
1564,33728
1565,33408
1566,33216
1567,33088
1568,33024
1569,33088
1570,33152
1571,33216
1572,33216
1573,33216
1574,33280
1575,33344
1576,33280
1577,33216
1578,33280
1579,33408
1580,33472
1581,33536
1582,33600
1583,33664
1584,33600
1585,33536
1586,33600
1587,33792
1588,33920
1589,33984
1590,33920
1591,33856
1592,33728
1593,33600
1594,33536
1595,33600
1596,33728
1597,33856
1598,33856
1599,33856
1600,33856
1601,33920
1602,34048
1603,34048
1604,33920
1605,33664
1606,33664
1607,33728
1608,33856
1609,33792
1610,33728
1611,33728
1612,33792
1613,33856
1614,33984
1615,34048
1616,34048
1617,34112
1618,34112
1619,34176
1620,34176
1621,33984
1622,33856
1623,33728
1624,33792
1625,33856
1626,33920
1627,33984
1628,33984
1629,34112
1630,34176
1631,34176
1632,34112
1633,33984
1634,33920
1635,33856
1636,33792
1637,33920
1638,33984
1639,34048
1640,34048
1641,34048
1642,33920
1643,33792
1644,33728
1645,33856
1646,33984
1647,34048
1648,34112
1649,34176
1650,34304
1651,34304
1652,34368
1653,34432
1654,34560
1655,34496
1656,34496
1657,34560
1658,34752
1659,34944
1660,35008
1661,35136
1662,35136
1663,34944
1664,34688
1665,34624
1666,34432
1667,34240
1668,33984
1669,33856
1670,33664
1671,33472
1672,33344
1673,33344
1674,33408
1675,33472
1676,33408
1677,33408
1678,33472
1679,33536
1680,33472
1681,33472
1682,33472
1683,33664
1684,33792
1685,33856
1686,33792
1687,33984
1688,34560
1689,35520
1690,37312
1691,39616
1692,41408
1693,42048
1694,41216
1695,39232
1696,36608
1697,33856
1698,31680
1699,30208
1700,29568
1701,29632
1702,30144
1703,30848
1704,31552
1705,32192
1706,32704
1707,33024
1708,33088
1709,32960
1710,32960
1711,33216
1712,33472
1713,33472
1714,33472
1715,33536
1716,33600
1717,33600
1718,33536
1719,33536
1720,33600
1721,33728
1722,33856
1723,33984
1724,34048
1725,34048
1726,34048
1727,34112
1728,34176
1729,34304
1730,34304
1731,34240
1732,34176
1733,34240
1734,34304
1735,34240
1736,34240
1737,34368
1738,34560
1739,34560
1740,34496
1741,34432
1742,34368
1743,34368
1744,34368
1745,34496
1746,34624
1747,34624
1748,34624
1749,34688
1750,34752
1751,34816
1752,34752
1753,34688
1754,34816
1755,34816
1756,34688
1757,34752
1758,34880
1759,34880
1760,34816
1761,34816
1762,34816
1763,34880
1764,34880
1765,34880
1766,34816
1767,34752
1768,34688
1769,34560
1770,34496
1771,34432
1772,34240
1773,34048
1774,33920
1775,33792
1776,33664
1777,33536
1778,33472
1779,33536
1780,33536
1781,33408
1782,33280
1783,33216
1784,33152
1785,33024
1786,33024
1787,33024
1788,33088
1789,33152
1790,33344
1791,33536
1792,33600
1793,33536
1794,33536
1795,33664
1796,33792
1797,33728
1798,33728
1799,33728
1800,33792
1801,33792
1802,33856
1803,33984
1804,34048
1805,33920
1806,33792
1807,33792
1808,33792
1809,33792
1810,33728
1811,33664
1812,33728
1813,33792
1814,33792
1815,33856
1816,33984
1817,34112
1818,34048
1819,33920
1820,33856
1821,33792
1822,33728
1823,33664
1824,33664
1825,33728
1826,33792
1827,33792
1828,33856
1829,33984
1830,34048
1831,34112
1832,33984
1833,33856
1834,33792
1835,33728
1836,33856
1837,33984
1838,34048
1839,34048
1840,34112
1841,34112
1842,33984
1843,33792
1844,33728
1845,33856
1846,34048
1847,34112
1848,34048
1849,33984
1850,34112
1851,34112
1852,34048
1853,34048
1854,34048
1855,33920
1856,33792
1857,33792
1858,33920
1859,33920
1860,33856
1861,33920
1862,34048
1863,34112
1864,34112
1865,34048
1866,33984
1867,33984
1868,33920
1869,33920
1870,33984
1871,34048
1872,34176
1873,34176
1874,34240
1875,34368
1876,34368
1877,34304
1878,34368
1879,34624
1880,34880
1881,34944
1882,34944
1883,34944
1884,34880
1885,34752
1886,34560
1887,34432
1888,34240
1889,34048
1890,33920
1891,33728
1892,33472
1893,33280
1894,33152
1895,33216
1896,33280
1897,33280
1898,33280
1899,33344
1900,33536
1901,33664
1902,33664
1903,33664
1904,33728
1905,33664
1906,33600
1907,33664
1908,34112
1909,34816
1910,36160
1911,38144
1912,40512
1913,42176
1914,42432
1915,41152
1916,38784
1917,35968
1918,33216
1919,31040
1920,29760
1921,29376
1922,29568
1923,30208
1924,30848
1925,31552
1926,32000
1927,32384
1928,32640
1929,32768
1930,32832
1931,32960
1932,33088
1933,33216
1934,33216
1935,33216
1936,33280
1937,33344
1938,33536
1939,33728
1940,33920
1941,33920
1942,33920
1943,33856
1944,33856
1945,33984
1946,34176
1947,33984
1948,33856
1949,33792
1950,33792
1951,33856
1952,33920
1953,33920
1954,34112
1955,34176
1956,34240
1957,34304
1958,34304
1959,34240
1960,34176
1961,34304
1962,34368
1963,34432
1964,34432
1965,34496
1966,34560
1967,34496
1968,34560
1969,34624
1970,34688
1971,34752
1972,34752
1973,34752
1974,34752
1975,34752
1976,34752
1977,34752
1978,34816
1979,34816
1980,34816
1981,34816
1982,34880
1983,34816
1984,34816
1985,34752
1986,34624
1987,34560
1988,34496
1989,34496
1990,34560
1991,34496
1992,34368
1993,34176
1994,34048
1995,33856
1996,33664
1997,33472
1998,33408
1999,33280
2000,33216
2001,33152
2002,33152
2003,33216
2004,33216
2005,33152
2006,33152
2007,33280
2008,33344
2009,33344
2010,33408
2011,33408
2012,33472
2013,33408
2014,33536
2015,33664
2016,33792
2017,33792
2018,33664
2019,33600
2020,33600
2021,33600
2022,33792
2023,33792
2024,33792
2025,33728
2026,33728
2027,33728
2028,33664
2029,33728
2030,33728
2031,33728
2032,33856
2033,33856
2034,33728
2035,33664
2036,33664
2037,33792
2038,33792
2039,33792
2040,33792
2041,33664
2042,33600
2043,33664
2044,33728
2045,33792
2046,33728
2047,33728
2048,33792
2049,33984
2050,34112
2051,34112
2052,34048
2053,33920
2054,33856
2055,33792
2056,33728
2057,33728
2058,33792
2059,33792
2060,33856
2061,33920
2062,33984
2063,34048
2064,34048
2065,34048
2066,34048
2067,33984
2068,33856
2069,33792
2070,33856
2071,33984
2072,34048
2073,34048
2074,33984
2075,33856
2076,33856
2077,33856
2078,33920
2079,33984
2080,33920
2081,33920
2082,34048
2083,34176
2084,34304
2085,34304
2086,34176
2087,34112
2088,34048
2089,33920
2090,33856
2091,33920
2092,33792
2093,33792
2094,33920
2095,33856
2096,34112
2097,34240
2098,34432
2099,34624
2100,34752
2101,34688
2102,34752
2103,34880
2104,35008
2105,35008
2106,35008
2107,35008
2108,34880
2109,34688
2110,34624
2111,34560
2112,34432
2113,34112
2114,33664
2115,33344
2116,33152
2117,33024
2118,32960
2119,33024
2120,33152
2121,33280
2122,33344
2123,33472
2124,33536
2125,33536
2126,33472
2127,33472
2128,33472
2129,33472
2130,33728
2131,34304
2132,35264
2133,36608
2134,38656
2135,40896
2136,42304
2137,42432
2138,41088
2139,38336
2140,38144
2141,33088
2142,30848
2143,29440
2144,29056
2145,29440
2146,30144
2147,30912
2148,31552
2149,32000
2150,32384
2151,32576
2152,32768
2153,32896
2154,32960
2155,33024
2156,33152
2157,33280
2158,33344
2159,33344
2160,33472
2161,33664
2162,33792
2163,33728
2164,33664
2165,33600
2166,33600
2167,33664
2168,33664
2169,33792
2170,33792
2171,33920
2172,33984
2173,34112
2174,34176
2175,34176
2176,34176
2177,34176
2178,34176
2179,34240
2180,34240
2181,34240
2182,34368
2183,34496
2184,34496
2185,34432
2186,34368
2187,34368
2188,34368
2189,34368
2190,34432
2191,34560
2192,34624
2193,34624
2194,34688
2195,34752
2196,34688
2197,34688
2198,34688
2199,34816
2200,34752
2201,34752
2202,34752
2203,34816
2204,34880
2205,34816
2206,34752
2207,34816
2208,34816
2209,34752
2210,34752
2211,34816
2212,34688
2213,34560
2214,34496
2215,34432
2216,34368
2217,34176
2218,34048
2219,33920
2220,33728
2221,33472
2222,33280
2223,33216
2224,33280
2225,33280
2226,33216
2227,33216
2228,33280
2229,33280
2230,33280
2231,33280
2232,33344
2233,33472
2234,33472
2235,33408
2236,33408
2237,33472
2238,33536
2239,33536
2240,33536
2241,33600
2242,33664
2243,33664
2244,33728
2245,33664
2246,33728
2247,33728
2248,33856
2249,33920
2250,33920
2251,33792
2252,33792
2253,33856
2254,33920
2255,33920
2256,33856
2257,33856
2258,33856
2259,33856
2260,33856
2261,33920
2262,34048
2263,33984
2264,33792
2265,33792
2266,33792
2267,33728
2268,33728
2269,33792
2270,33920
2271,33984
2272,33920
2273,33920
2274,34048
2275,33984
2276,33920
2277,33920
2278,33984
2279,33984
2280,33856
2281,33792
2282,33856
2283,33856
2284,33728
2285,33728
2286,33920
2287,33984
2288,33984
2289,33984
2290,33920
2291,34048
2292,33920
2293,33856
2294,33792
2295,33856
2296,33984
2297,34048
2298,34112
2299,34112
2300,33984
2301,33728
2302,33664
2303,33664
2304,33664
2305,33664
2306,33792
2307,33920
2308,33920
2309,33856
2310,33920
2311,33984
2312,33984
2313,33920
2314,33856
2315,33856
2316,33984
2317,33984
2318,33984
2319,34112
2320,34048
2321,34304
2322,34368
2323,34560
2324,34688
2325,34688
2326,34624
2327,34688
2328,34880
2329,35008
2330,34944
2331,34880
2332,34816
2333,34752
2334,34560
2335,34496
2336,34304
2337,34112
2338,33728
2339,33344
2340,33216
2341,33216
2342,33216
2343,33216
2344,33280
2345,33344
2346,33408
2347,33536
2348,33600
2349,33536
2350,33472
2351,33408
2352,33344
2353,33472
2354,33664
2355,34112
2356,35136
2357,36672
2358,38912
2359,41088
2360,42368
2361,42240
2362,40704
2363,38144
2364,35200
2365,32576
2366,30656
2367,29632
2368,29440
2369,29952
2370,30720
2371,31360
2372,31808
2373,32064
2374,32320
2375,32576
2376,32768
2377,32896
2378,33024
2379,33152
2380,33216
2381,33280
2382,33408
2383,33472
2384,33472
2385,33536
2386,33664
2387,33792
2388,33728
2389,33728
2390,33856
2391,34048
2392,34240
2393,34304
2394,34240
2395,34176
2396,34048
2397,34048
2398,34048
2399,34176
2400,34176
2401,34240
2402,34304
2403,34368
2404,34368
2405,34304
2406,34240
2407,34240
2408,34304
2409,34432
2410,34368
2411,34624
2412,34688
2413,34560
2414,34496
2415,34560
2416,34688
2417,34752
2418,34816
2419,34880
2420,34880
2421,34816
2422,34688
2423,34624
2424,34624
2425,34688
2426,34688
2427,34624
2428,34688
2429,34752
2430,34752
2431,34816
2432,34880
2433,34880
2434,34816
2435,34688
2436,34624
2437,34624
2438,34560
2439,34496
2440,34432
2441,34304
2442,34176
2443,33920
2444,33664
2445,33408
2446,33280
2447,33152
2448,33088
2449,33088
2450,33088
2451,33024
2452,33024
2453,33088
2454,33152
2455,33216
2456,33280
2457,33344
2458,33472
2459,33536
2460,33600
2461,33664
2462,33600
2463,33536
2464,33536
2465,33664
2466,33792
2467,33792
2468,33728
2469,33792
2470,33792
2471,33728
2472,33728
2473,33664
2474,33600
2475,33600
2476,33664
2477,33728
2478,33856
2479,33856
2480,33792
2481,33792
2482,33792
2483,33792
2484,33792
2485,33728
2486,33728
2487,33728
2488,33664
2489,33728
2490,33792
2491,33920
2492,33984
2493,34048
2494,34112
2495,33984
2496,33728
2497,33536
2498,33472
2499,33600
2500,33664
2501,33728
2502,33792
2503,33792
2504,33792
2505,33728
2506,33856
2507,33920
2508,33920
2509,33920
2510,33920
2511,33984
2512,34048
2513,33984
2514,33920
2515,33920
2516,34048
2517,34048
2518,33984
2519,33856
2520,33856
2521,33856
2522,33792
2523,33856
2524,33856
2525,33856
2526,33792
2527,33856
2528,33920
2529,33920
2530,33920
2531,33984
2532,34112
2533,34112
2534,34112
2535,34112
2536,34112
2537,34048
2538,33984
2539,34048
2540,34048
2541,34112
2542,34112
2543,34240
2544,34432
2545,34368
2546,34432
2547,34432
2548,34496
2549,34560
2550,34624
2551,34688
2552,34752
2553,34816
2554,34816
2555,34816
2556,34816
2557,34752
2558,34496
2559,34048
2560,33856
2561,33728
2562,33472
2563,33280
2564,33088
2565,33088
2566,33216
2567,33216
2568,33280
2569,33472
2570,33536
2571,33472
2572,33472
2573,33600
2574,33664
2575,33664
2576,33664
2577,33920
2578,34560
2579,35648
2580,37312
2581,39680
2582,41664
2583,42304
2584,41536
2585,39488
2586,36736
2587,33984
2588,31552
2589,29632
2590,29568
2591,29504
2592,30144
2593,30848
2594,31488
2595,32000
2596,32384
2597,32640
2598,32832
2599,32960
2600,33024
2601,33152
2602,33280
2603,33344
2604,33280
2605,33280
2606,33344
2607,33472
2608,33600
2609,33664
2610,33664
2611,33792
2612,33792
2613,33792
2614,33792
2615,33856
2616,33856
2617,33792
2618,33856
2619,34048
2620,34112
2621,34112
2622,34112
2623,34176
2624,34240
2625,34240
2626,34176
2627,34176
2628,34304
2629,34496
2630,34496
2631,34432
2632,34432
2633,34496
2634,34496
2635,34496
2636,34560
2637,34560
2638,34560
2639,34560
2640,34688
2641,34816
2642,34880
2643,34816
2644,34752
2645,34752
2646,34816
2647,34880
2648,34944
2649,34880
2650,34816
2651,34560
2652,34496
2653,34560
2654,34624
2655,34688
2656,34752
2657,34816
2658,34816
2659,34688
2660,34560
2661,34496
2662,34432
2663,34368
2664,34176
2665,34112
2666,33792
2667,33536
2668,33408
2669,33280
2670,33152
2671,33088
2672,33024
2673,33088
2674,33152
2675,33216
2676,33152
2677,33152
2678,33216
2679,33280
2680,33344
2681,33472
2682,33600
2683,33664
2684,33664
2685,33792
2686,33920
2687,33856
2688,33728
2689,33600
2690,33600
2691,33600
2692,33536
2693,33472
2694,33600
2695,33664
2696,33792
2697,33792
2698,33920
2699,33984
2700,34048
2701,34048
2702,34048
2703,34048
2704,34048
2705,33920
2706,33664
2707,33536
2708,33472
2709,33536
2710,33536
2711,33664
2712,33856
2713,33920
2714,33984
2715,34048
2716,34112
2717,33920
2718,33792
2719,33792
2720,33920
2721,33984
2722,33920
2723,33856
2724,33792
2725,33728
2726,33728
2727,33792
2728,33856
2729,33984
2730,33984
2731,33920
2732,33856
2733,33920
2734,33920
2735,33984
2736,33984
2737,34048
2738,34176
2739,34240
2740,34176
2741,34112
2742,34176
2743,34240
2744,34240
2745,34176
2746,34048
2747,33984
2748,33856
2749,33728
2750,33536
2751,33408
2752,33536
2753,33792
2754,33920
2755,33792
2756,33664
2757,33664
2758,33792
2759,33856
2760,33984
2761,34048
2762,34176
2763,34240
2764,34368
2765,34560
2766,34752
2767,34816
2768,34944
2769,35200
2770,35328
2771,35392
2772,35264
2773,35008
2774,34688
2775,34560
2776,34432
2777,34240
2778,33984
2779,33664
2780,33280
2781,32960
2782,32832
2783,32896
2784,33088
2785,33280
2786,33536
2787,33728
2788,33600
2789,33472
2790,33280
2791,33152
2792,33216
2793,33408
2794,33472
2795,33344
2796,33344
2797,33792
2798,34816
2799,36544
2800,38912
2801,40960
2802,42176
2803,41920
2804,40192
2805,37568
2806,34752
2807,32192
2808,30336
2809,29248
2810,29056
2811,29568
2812,30464
2813,31168
2814,31680
2815,32128
2816,32448
2817,32704
2818,32832
2819,33024
2820,33216
2821,33280
2822,33344
2823,33600
2824,33792
2825,33920
2826,33856
2827,33792
2828,33728
2829,33600
2830,33472
2831,33536
2832,33728
2833,33856
2834,33792
2835,33664
2836,33600
2837,33600
2838,33664
2839,33792
2840,34048
2841,34432
2842,34752
2843,34752
2844,34496
2845,34240
2846,33984
2847,33792
2848,33984
2849,34432
2850,34816
2851,34944
2852,34816
2853,34752
2854,34560
2855,34560
2856,34688
2857,34880
2858,34624
2859,34112
2860,33792
2861,33920
2862,34240
2863,34432
2864,34432
2865,34432
2866,34496
2867,34688
2868,34944
2869,35136
2870,35264
2871,35328
2872,35264
2873,35008
2874,34560
2875,34240
2876,34240
2877,34560
2878,34816
2879,34624
2880,34048
2881,33728
2882,33600
2883,33664
2884,33472
2885,33408
2886,33408
2887,33472
2888,33472
2889,33408
2890,33344
2891,33088
2892,32960
2893,33088
2894,33344
2895,33600
2896,33728
2897,33664
2898,33408
2899,33152
2900,32960
2901,32960
2902,33088
2903,33152
2904,33216
2905,33152
2906,32768
2907,32320
2908,32320
2909,32640
2910,32960
2911,33152
2912,33472
2913,33792
2914,34112
2915,34432
2916,34560
2917,34560
2918,34368
2919,34304
2920,34432
2921,34368
2922,34112
2923,33984
2924,33920
2925,33920
2926,33856
2927,33728
2928,33664
2929,33728
2930,33728
2931,33728
2932,33792
2933,33984
2934,34112
2935,34048
2936,33920
2937,33728
2938,33536
2939,33472
2940,33408
2941,33472
2942,33600
2943,33728
2944,33856
2945,34048
2946,34240
2947,34240
2948,34112
2949,33984
2950,33664
2951,33408
2952,33344
2953,33472
2954,33728
2955,33728
2956,33664
2957,33664
2958,33792
2959,33792
2960,33600
2961,33472
2962,33728
2963,33984
2964,33984
2965,33984
2966,34112
2967,34240
2968,34496
2969,34624
2970,34560
2971,34368
2972,34176
2973,34048
2974,33984
2975,33920
2976,33728
2977,33664
2978,33728
2979,33728
2980,33792
2981,34176
2982,34560
2983,34880
2984,34944
2985,35008
2986,35008
2987,34880
2988,34752
2989,34688
2990,34560
2991,34496
2992,34496
2993,34432
2994,34304
2995,34176
2996,33920
2997,33536
2998,33280
2999,33152
3000,33152
3001,33088
3002,33088
3003,33088
3004,32960
3005,33024
3006,33152
3007,33344
3008,33408
3009,33344
3010,33280
3011,33216
3012,33216
3013,33408
3014,33856
3015,34688
3016,36096
3017,38272
3018,40448
3019,41792
3020,41792
3021,40448
3022,38208
3023,35776
3024,33472
3025,31424
3026,30016
3027,29312
3028,29504
3029,30400
3030,31296
3031,31808
3032,31936
3033,32000
3034,32192
3035,32320
3036,32512
3037,32768
3038,32960
3039,33088
3040,33216
3041,33344
3042,33408
3043,33472
3044,33536
3045,33600
3046,33600
3047,33600
3048,33600
3049,33664
3050,33792
3051,33856
3052,33920
3053,34048
3054,34240
3055,34368
3056,34368
3057,34176
3058,33984
3059,33792
3060,33792
3061,33984
3062,34368
3063,34624
3064,34624
3065,34496
3066,34048
3067,33792
3068,33792
3069,33984
3070,34176
3071,34368
3072,34432
3073,34432
3074,34432
3075,34432
3076,34368
3077,34496
3078,34560
3079,34688
3080,34816
3081,34944
3082,35008
3083,34944
3084,34944
3085,34880
3086,34752
3087,34560
3088,34496
3089,34496
3090,34496
3091,34368
3092,34176
3093,34240
3094,34496
3095,34752
3096,34752
3097,34624
3098,34432
3099,34368
3100,34304
3101,34240
3102,34176
3103,33920
3104,33600
3105,33280
3106,32960
3107,32832
3108,32640
3109,32576
3110,32704
3111,33088
3112,33344
3113,33536
3114,33472
3115,33344
3116,33152
3117,33152
3118,33344
3119,33408
3120,33344
3121,33472
3122,33728
3123,33856
3124,33856
3125,33728
3126,33408
3127,33216
3128,33280
3129,33344
3130,33664
3131,33984
3132,34176
3133,34112
3134,33792
3135,33728
3136,33856
3137,34048
3138,34112
3139,34048
3140,33920
3141,33792
3142,33792
3143,33792
3144,33920
3145,34176
3146,34176
3147,33920
3148,33472
3149,33152
3150,32832
3151,32832
3152,32896
3153,33088
3154,33472
3155,33984
3156,34304
3157,34304
3158,34176
3159,33856
3160,33792
3161,34112
3162,34432
3163,34240
3164,33792
3165,33536
3166,33472
3167,33472
3168,33664
3169,33984
3170,34432
3171,34496
3172,34368
3173,34176
3174,33664
3175,32960
3176,32576
3177,32768
3178,33344
3179,34176
3180,34688
3181,34368
3182,34048
3183,34048
3184,34048
3185,33664
3186,33408
3187,33792
3188,34496
3189,35008
3190,35008
3191,34688
3192,34304
3193,34176
3194,34304
3195,34432
3196,34496
3197,34688
3198,34944
3199,35328
3200,35520
3201,34880
3202,33472
3203,32704
3204,32704
3205,32896
3206,33088
3207,33408
3208,33600
3209,33664
3210,33536
3211,33536
3212,33472
3213,33280
3214,33088
3215,32640
3216,32192
3217,32064
3218,32768
3219,34560
3220,37056
3221,39552
3222,41088
3223,41216
3224,40320
3225,38912
3226,36416
3227,33536
3228,30784
3229,29184
3230,28672
3231,29120
3232,30080
3233,31104
3234,31872
3235,32512
3236,32960
3237,33216
3238,33152
3239,33152
3240,33408
3241,33728
3242,33600
3243,33344
3244,33408
3245,33792
3246,34432
3247,34752
3248,34496
3249,34368
3250,34304
3251,34048
3252,33728
3253,33792
3254,34112
3255,34176
3256,33728
3257,33472
3258,33664
3259,33920
3260,34240
3261,34304
3262,34048
3263,34112
3264,34752
3265,35392
3266,35136
3267,34624
3268,34496
3269,34304
3270,34112
3271,34176
3272,34240
3273,34048
3274,34112
3275,34496
3276,35136
3277,35648
3278,35712
3279,35008
3280,34304
3281,34112
3282,34048
3283,34048
3284,34368
3285,34752
3286,35200
3287,35200
3288,34944
3289,34816
3290,34816
3291,34944
3292,35072
3293,35072
3294,35008
3295,35008
3296,35008
3297,34944
3298,34944
3299,34944
3300,34880
3301,34688
3302,34560
3303,34496
3304,34368
3305,34240
3306,34048
3307,33920
3308,33856
3309,33664
3310,33408
3311,33408
3312,33600
3313,33792
3314,33920
3315,33856
3316,33600
3317,33600
3318,33600
3319,33472
3320,33280
3321,33152
3322,33024
3323,33088
3324,33280
3325,33472
3326,33600
3327,33536
3328,33600
3329,33856
3330,34112
3331,34304
3332,34304
3333,34176
3334,34048
3335,34112
3336,34368
3337,34496
3338,34048
3339,33600
3340,33472
3341,33664
3342,33728
3343,33600
3344,33536
3345,33600
3346,33856
3347,34112
3348,34304
3349,34240
3350,34176
3351,34112
3352,33984
3353,33792
3354,33600
3355,33536
3356,33536
3357,33536
3358,33728
3359,33856
3360,33920
3361,34048
3362,34176
3363,34432
3364,34624
3365,34688
3366,34624
3367,34432
3368,34048
3369,33856
3370,33920
3371,33920
3372,33792
3373,33792
3374,33984
3375,34176
3376,34112
3377,33728
3378,33408
3379,33408
3380,33600
3381,33984
3382,34304
3383,34432
3384,34432
3385,34368
3386,34496
3387,34688
3388,34944
3389,35008
3390,35136
3391,35136
3392,34944
3393,34688
3394,34624
3395,34560
3396,34624
3397,34624
3398,34624
3399,34368
3400,33856
3401,33408
3402,33152
3403,33088
3404,33088
3405,33216
3406,33472
3407,33600
3408,33472
3409,33408
3410,33536
3411,33728
3412,33856
3413,33792
3414,33600
3415,33344
3416,33344
3417,33664
3418,34304
3419,35392
3420,37056
3421,39360
3422,41408
3423,42304
3424,41984
3425,40320
3426,37696
3427,34880
3428,32448
3429,30784
3430,29696
3431,29376
3432,29760
3433,30400
3434,31104
3435,31680
3436,32128
3437,32384
3438,32320
3439,32320
3440,32576
3441,32896
3442,33088
3443,33152
3444,33408
3445,33728
3446,33792
3447,33728
3448,33664
3449,33536
3450,33408
3451,33152
3452,33152
3453,33408
3454,33792
3455,34112
3456,34304
3457,34304
3458,34112
3459,33984
3460,33984
3461,34048
3462,34240
3463,34496
3464,34624
3465,34624
3466,34624
3467,34496
3468,34432
3469,34560
3470,34624
3471,34496
3472,34496
3473,34496
3474,34432
3475,34368
3476,34304
3477,34368
3478,34432
3479,34496
3480,34560
3481,34688
3482,34944
3483,35072
3484,35200
3485,35392
3486,35264
3487,35008
3488,34752
3489,34560
3490,34496
3491,34624
3492,34752
3493,34816
3494,34944
3495,35072
3496,35072
3497,35072
3498,34944
3499,34880
3500,34688
3501,34432
3502,34176
3503,33984
3504,33792
3505,33600
3506,33408
3507,33216
3508,33280
3509,33344
3510,33280
3511,33152
3512,33024
3513,32896
3514,32832
3515,32960
3516,33152
3517,33216
3518,33280
3519,33344
3520,33344
3521,33408
3522,33536
3523,33792
3524,34048
3525,34112
3526,33920
3527,33792
3528,33728
3529,33920
3530,34048
3531,33984
3532,33856
3533,33792
3534,33920
3535,33920
3536,33664
3537,33536
3538,33664
3539,33856
3540,33728
3541,33600
3542,33600
3543,33728
3544,33984
3545,34112
3546,34048
3547,33856
3548,33792
3549,33792
3550,33792
3551,33792
3552,34048
3553,34368
3554,34432
3555,34176
3556,33664
3557,33280
3558,33280
3559,33536
3560,33792
3561,34048
3562,34176
3563,34176
3564,34048
3565,33920
3566,33920
3567,33920
3568,33792
3569,33728
3570,33600
3571,33536
3572,33536
3573,33664
3574,33856
3575,33984
3576,33984
3577,34048
3578,34176
3579,34432
3580,34560
3581,34624
3582,34688
3583,34752
3584,34624
3585,34496
3586,34688
3587,35008
3588,35072
3589,35136
3590,35200
3591,35200
3592,35008
3593,34688
3594,34560
3595,34432
3596,34112
3597,33728
3598,33472
3599,33344
3600,33280
3601,33216
3602,33088
3603,32960
3604,33024
3605,33280
3606,33536
3607,33536
3608,33280
3609,33152
3610,33216
3611,33408
3612,33536
3613,33536
3614,33664
3615,34176
3616,35136
3617,36736
3618,39040
3619,41216
3620,42304
3621,42048
3622,40512
3623,38144
3624,35392
3625,32768
3626,30912
3627,29952
3628,29760
3629,30208
3630,30848
3631,31488
3632,32064
3633,32448
3634,32576
3635,32704
3636,32832
3637,33216
3638,33536
3639,33536
3640,33344
3641,33280
3642,33216
3643,33152
3644,33280
3645,33536
3646,33728
3647,33792
3648,33856
3649,33920
3650,33920
3651,33856
3652,33792
3653,33856
3654,34048
3655,34240
3656,34240
3657,34176
3658,34112
3659,34304
3660,34560
3661,34560
3662,34432
3663,34176
3664,34112
3665,34112
3666,34176
3667,34304
3668,34368
3669,34432
3670,34496
3671,34496
3672,34432
3673,34496
3674,34816
3675,35072
3676,35072
3677,35008
3678,35008
3679,35136
3680,35072
3681,34752
3682,34560
3683,34560
3684,34624
3685,34752
3686,34880
3687,34880
3688,34880
3689,34816
3690,34816
3691,34880
3692,34944
3693,35072
3694,35072
3695,34880
3696,34688
3697,34496
3698,34368
3699,34112
3700,33856
3701,33856
3702,33984
3703,33984
3704,33600
3705,33024
3706,32640
3707,32768
3708,33088
3709,33152
3710,32896
3711,32640
3712,32576
3713,32768
3714,32960
3715,33088
3716,33216
3717,33280
3718,33472
3719,33664
3720,33856
3721,33920
3722,33984
3723,34112
3724,34176
3725,34112
3726,33920
3727,33856
3728,34048
3729,34240
3730,34304
3731,34176
3732,33856
3733,33536
3734,33408
3735,33472
3736,33792
3737,33984
3738,33856
3739,33664
3740,33664
3741,33856
3742,34112
3743,34112
3744,33920
3745,33920
3746,33920
3747,33920
3748,33728
3749,33664
3750,33664
3751,33792
3752,33856
3753,33920
3754,33920
3755,33792
3756,33792
3757,33984
3758,34048
3759,33856
3760,33664
3761,33664
3762,33920
3763,34048
3764,33856
3765,33920
3766,33856
3767,33792
3768,33728
3769,33984
3770,34176
3771,34304
3772,34368
3773,34368
3774,34176
3775,34048
3776,34048
3777,33984
3778,33920
3779,33728
3780,33728
3781,33984
3782,34304
3783,34560
3784,34496
3785,34432
3786,34368
3787,34432
3788,34368
3789,34752
3790,35008
3791,35136
3792,35072
3793,35008
3794,35008
3795,34944
3796,34816
3797,34560
3798,34496
3799,34240
3800,34048
3801,33792
3802,33536
3803,33408
3804,33344
3805,33344
3806,33408
3807,33472
3808,33344
3809,33344
3810,33408
3811,33472
3812,33536
3813,33472
3814,33664
3815,33664
3816,33536
3817,33600
3818,33984
3819,34880
3820,35008
3821,38016
3822,40256
3823,41792
3824,42112
3825,41024
3826,38848
3827,36224
3828,33728
3829,31552
3830,30080
3831,29440
3832,29696
3833,30336
3834,31040
3835,31680
3836,32128
3837,32384
3838,32576
3839,32704
3840,32832
3841,32960
3842,33088
3843,33216
3844,33344
3845,33408
3846,33344
3847,33344
3848,33536
3849,33728
3850,33728
3851,33728
3852,33728
3853,33664
3854,33728
3855,33920
3856,34176
3857,34240
3858,34048
3859,33920
3860,33856
3861,33984
3862,34112
3863,34240
3864,34368
3865,34496
3866,34432
3867,34432
3868,34432
3869,34560
3870,34624
3871,34688
3872,34752
3873,34752
3874,34624
3875,34560
3876,34560
3877,34560
3878,34560
3879,34624
3880,34624
3881,34688
3882,34624
3883,34560
3884,34624
3885,34688
3886,34752
3887,34752
3888,34944
3889,35200
3890,35328
3891,35200
3892,35072
3893,34944
3894,34880
3895,34944
3896,35072
3897,35200
3898,35008
3899,34624
3900,34176
3901,33984
3902,33920
3903,33856
3904,33856
3905,33728
3906,33664
3907,33600
3908,33664
3909,33728
3910,33664
3911,33088
3912,32896
3913,32832
3914,32832
3915,32832
3916,32832
3917,32832
3918,32960
3919,33088
3920,33280
3921,33344
3922,33472
3923,33600
3924,33664
3925,33664
3926,33728
3927,33792
3928,33920
3929,33920
3930,33920
3931,34048
3932,34112
3933,33856
3934,33600
3935,33536
3936,33728
3937,33920
3938,33984
3939,33920
3940,33920
3941,33920
3942,33856
3943,33920
3944,33984
3945,33984
3946,33792
3947,33664
3948,33600
3949,33664
3950,33728
3951,33856
3952,33984
3953,34112
3954,34176
3955,34112
3956,33984
3957,33920
3958,34048
3959,34112
3960,34176
3961,34112
3962,33920
3963,33856
3964,33984
3965,33920
3966,33792
3967,33728
3968,33728
3969,33792
3970,33728
3971,33920
3972,33984
3973,34048
3974,34048
3975,34240
3976,34304
3977,34240
3978,34112
3979,34112
3980,34176
3981,34176
3982,34048
3983,33792
3984,33792
3985,33920
3986,34112
3987,34176
3988,34112
3989,34048
3990,34048
3991,34112
3992,34112
3993,34112
3994,34048
3995,33856
3996,33728
3997,33792
3998,33984
3999,34176
4000,34176
4001,34048
4002,34112
4003,34304
4004,34432
4005,34304
4006,34240
4007,34432
4008,34624
4009,34688
4010,34688
4011,34752
4012,34752
4013,34624
4014,34624
4015,34624
4016,34368
4017,33984
4018,33664
4019,33472
4020,33408
4021,33344
4022,33344
4023,33344
4024,33408
4025,33408
4026,33472
4027,33536
4028,33600
4029,33792
4030,33792
4031,34048
4032,34048
4033,34048
4034,34048
4035,33984
4036,34240
4037,34816
4038,35968
4039,37696
4040,39808
4041,41216
4042,41600
4043,40832
4044,38976
4045,36544
4046,33984
4047,31808
4048,30400
4049,29760
4050,29760
4051,30336
4052,31168
4053,31808
4054,32256
4055,32512
4056,32704
4057,32768
4058,32832
4059,33024
4060,33024
4061,33024
4062,33088
4063,33216
4064,33472
4065,33600
4066,33664
4067,33728
4068,33856
4069,34048
4070,34112
4071,33856
4072,33600
4073,33472
4074,33600
4075,33664
4076,33792
4077,33856
4078,34048
4079,34176
4080,34176
4081,34240
4082,34432
4083,34560
4084,34496
4085,34432
4086,34368
4087,34304
4088,34240
4089,34112
4090,34048
4091,34176
4092,34368
4093,34560
4094,34624
4095,34624
4096,34624
4097,34624
4098,34752
4099,34944
4100,35072
4101,35008
4102,34880
4103,34752
4104,34624
4105,34560
4106,34624
4107,34816
4108,34944
4109,35008
4110,35072
4111,35136
4112,35072
4113,35008
4114,35008
4115,34944
4116,34816
4117,34560
4118,34368
4119,34240
4120,34176
4121,33984
4122,33920
4123,33792
4124,33664
4125,33600
4126,33472
4127,33280
4128,33088
4129,33024
4130,32960
4131,33024
4132,33088
4133,33152
4134,33152
4135,33024
4136,33024
4137,33088
4138,33280
4139,33344
4140,33280
4141,33280
4142,33344
4143,33472
4144,33536
4145,33600
4146,33600
4147,33728
4148,33728
4149,33728
4150,33728
4151,33792
4152,33792
4153,33856
4154,33856
4155,33856
4156,33792
4157,33792
4158,33856
4159,34048
4160,34112
4161,34112
4162,34112
4163,33984
4164,33728
4165,33536
4166,33600
4167,33600
4168,33728
4169,33792
4170,33792
4171,33600
4172,33472
4173,33472
4174,33472
4175,33664
4176,33728
4177,33920
4178,34112
4179,33984
4180,33920
4181,33856
4182,33856
4183,33920
4184,33856
4185,33728
4186,33792
4187,33856
4188,33792
4189,33728
4190,33664
4191,33664
4192,33792
4193,34048
4194,34112
4195,34048
4196,33856
4197,33920
4198,33984
4199,34048
4200,33984
4201,33728
4202,33536
4203,33536
4204,33600
4205,33792
4206,33984
4207,34176
4208,34240
4209,34176
4210,34112
4211,34048
4212,33920
4213,33984
4214,34048
4215,34112
4216,33920
4217,33792
4218,33792
4219,33792
4220,33920
4221,34112
4222,34496
4223,34688
4224,34560
4225,34432
4226,34432
4227,34688
4228,34944
4229,34944
4230,34880
4231,34816
4232,34752
4233,34560
4234,34368
4235,34304
4236,34048
4237,33792
4238,33536
4239,33280
4240,33024
4241,32832
4242,32896
4243,33024
4244,33280
4245,33536
4246,33600
4247,33664
4248,33792
4249,33792
4250,33792
4251,33792
4252,33728
4253,33792
4254,33856
4255,34048
4256,34304
4257,34880
4258,36096
4259,38016
4260,40000
4261,41152
4262,40960
4263,39680
4264,37632
4265,35264
4266,32832
4267,30912
4268,29888
4269,29824
4270,29824
4271,30848
4272,31616
4273,32192
4274,32640
4275,33024
4276,33216
4277,33280
4278,33344
4279,33280
4280,33088
4281,33088
4282,33344
4283,33728
4284,33920
4285,33984
4286,33856
4287,33664
4288,33664
4289,33664
4290,33664
4291,33664
4292,33792
4293,33984
4294,34304
4295,34496
4296,34496
4297,34432
4298,34560
4299,34752
4300,34752
4301,34560
4302,34304
4303,34112
4304,33984
4305,33984
4306,34112
4307,34304
4308,34624
4309,34880
4310,34880
4311,34752
4312,34752
4313,34816
4314,34624
4315,34368
4316,34304
4317,34240
4318,34368
4319,34560
4320,34688
4321,34880
4322,35008
4323,35200
4324,35264
4325,35072
4326,34944
4327,34944
4328,35136
4329,35392
4330,35392
4331,35200
4332,35136
4333,35264
4334,35200
4335,34880
4336,34496
4337,34176
4338,34176
4339,34432
4340,34560
4341,34496
4342,34240
4343,33856
4344,33408
4345,33344
4346,33088
4347,33152
4348,33216
4349,33088
4350,32896
4351,32768
4352,32832
4353,32832
4354,32960
4355,33024
4356,33024
4357,33088
4358,33152
4359,33216
4360,33344
4361,33472
4362,33472
4363,33600
4364,33920
4365,34112
4366,34112
4367,34048
4368,34048
4369,34048
4370,33856
4371,33728
4372,33728
4373,33856
4374,34048
4375,33984
4376,34112
4377,34304
4378,34304
4379,34112
4380,33984
4381,33920
4382,33984
4383,33920
4384,33920
4385,33920
4386,33856
4387,33728
4388,33728
4389,33920
4390,33920
4391,34112
4392,33920
4393,33728
4394,33664
4395,33664
4396,33792
4397,33920
4398,34048
4399,34176
4400,34304
4401,34368
4402,34304
4403,34112
4404,33792
4405,33728
4406,33792
4407,33792
4408,33792
4409,33856
4410,34048
4411,34240
4412,34304
4413,34240
4414,34240
4415,34112
4416,33920
4417,33728
4418,33600
4419,33664
4420,33792
4421,33856
4422,33920
4423,34048
4424,33984
4425,33856
4426,33984
4427,34176
4428,34176
4429,33984
4430,33856
4431,33984
4432,34240
4433,34304
4434,33920
4435,33792
4436,33664
4437,33600
4438,33536
4439,33536
4440,33792
4441,34112
4442,34176
4443,34176
4444,34176
4445,34176
4446,34112
4447,34176
4448,34496
4449,34816
4450,34816
4451,34624
4452,34432
4453,34496
4454,34496
4455,34496
4456,34496
4457,34432
4458,34176
4459,34048
4460,34112
4461,34048
4462,33728
4463,33600
4464,33728
4465,33856
4466,33664
4467,33344
4468,33088
4469,33088
4470,33280
4471,33600
4472,33856
4473,33856
4474,33856
4475,33856
4476,33856
4477,33920
4478,34048
4479,33984
4480,33984
4481,34432
4482,35392
4483,37056
4484,39232
4485,41152
4486,42048
4487,41664
4488,39872
4489,37376
4490,34688
4491,32192
4492,30336
4493,29376
4494,29376
4495,29696
4496,30400
4497,31104
4498,31744
4499,32384
4500,32704
4501,32832
4502,32960
4503,32896
4504,32960
4505,33152
4506,33472
4507,33728
4508,33792
4509,33728
4510,33664
4511,33792
4512,33664
4513,33536
4514,33472
4515,33600
4516,33664
4517,33728
4518,33792
4519,33920
4520,33984
4521,34112
4522,34240
4523,34496
4524,34560
4525,34304
4526,34240
4527,34496
4528,34624
4529,34432
4530,34304
4531,34304
4532,34304
4533,34304
4534,34368
4535,34432
4536,34368
4537,34368
4538,34368
4539,34560
4540,34560
4541,34496
4542,34560
4543,34816
4544,35200
4545,35136
4546,34880
4547,34688
4548,34752
4549,34944
4550,35200
4551,35584
4552,35776
4553,35456
4554,35008
4555,34816
4556,34688
4557,34560
4558,34560
4559,34560
4560,34624
4561,34688
4562,34560
4563,34368
4564,34176
4565,33984
4566,33920
4567,33856
4568,33664
4569,33344
4570,33216
4571,33280
4572,33472
4573,33472
4574,33280
4575,33152
4576,33152
4577,33024
4578,32704
4579,32576
4580,32640
4581,32896
4582,33088
4583,33216
4584,33472
4585,33472
4586,33792
4587,33984
4588,33984
4589,33792
4590,33600
4591,33536
4592,33408
4593,33472
4594,33728
4595,34112
4596,34240
4597,34048
4598,33728
4599,33600
4600,33536
4601,33664
4602,33728
4603,33792
4604,33920
4605,33984
4606,34112
4607,34112
4608,34048
4609,33984
4610,33920
4611,33792
4612,33664
4613,33600
4614,33728
4615,33728
4616,33600
4617,33536
4618,33600
4619,33792
4620,34048
4621,34240
4622,34048
4623,33728
4624,33600
4625,33600
4626,33728
4627,33856
4628,33984
4629,34112
4630,34112
4631,34048
4632,33984
4633,34048
4634,34048
4635,33984
4636,33856
4637,33792
4638,33856
4639,33920
4640,34048
4641,34240
4642,34304
4643,34112
4644,33792
4645,33728
4646,33792
4647,33920
4648,33920
4649,33792
4650,33792
4651,33856
4652,33984
4653,34176
4654,34368
4655,34496
4656,34368
4657,34240
4658,34176
4659,34176
4660,34176
4661,34560
4662,34496
4663,34112
4664,33728
4665,33664
4666,33664
4667,33728
4668,33920
4669,34176
4670,34304
4671,34432
4672,34432
4673,34432
4674,34624
4675,34688
4676,34688
4677,34624
4678,34624
4679,34688
4680,34752
4681,34688
4682,34560
4683,34304
4684,34176
4685,34240
4686,34240
4687,34176
4688,33920
4689,33600
4690,33536
4691,33280
4692,33216
4693,33344
4694,33664
4695,33920
4696,33984
4697,33856
4698,33728
4699,33664
4700,33728
4701,33728
4702,33728
4703,33728
4704,33664
4705,33792
4706,34048
4707,34688
4708,35840
4709,37504
4710,39552
4711,41024
4712,41536
4713,40896
4714,39168
4715,36864
4716,34624
4717,32512
4718,30848
4719,29888
4720,29760
4721,30144
4722,30784
4723,31488
4724,32000
4725,32320
4726,32640
4727,32896
4728,33024
4729,33088
4730,33152
4731,33344
4732,33408
4733,33536
4734,33728
4735,33856
4736,33728
4737,33600
4738,33536
4739,33600
4740,33728
4741,33856
4742,33664
4743,33536
4744,33664
4745,33920
4746,34048
4747,34048
4748,33984
4749,33984
4750,34048
4751,34368
4752,34752
4753,34752
4754,34624
4755,34496
4756,34368
4757,34112
4758,33920
4759,33984
4760,34240
4761,34304
4762,34368
4763,34432
4764,34624
4765,34816
4766,34752
4767,34688
4768,34752
4769,34880
4770,34944
4771,35008
4772,35008
4773,35008
4774,35008
4775,35072
4776,35200
4777,35264
4778,35328
4779,35200
4780,35072
4781,34944
4782,34880
4783,34880
4784,34880
4785,34880
4786,34816
4787,34688
4788,34560
4789,34368
4790,34304
4791,34432
4792,34176
4793,33920
4794,33920
4795,33856
4796,33280
4797,32640
4798,32384
4799,32384
4800,32448
4801,32704
4802,32960
4803,33024
4804,32960
4805,32960
4806,33088
4807,33088
4808,33024
4809,33088
4810,33280
4811,33472
4812,33600
4813,33536
4814,33472
4815,33472
4816,33536
4817,33664
4818,33664
4819,33664
4820,33728
4821,33920
4822,33984
4823,33920
4824,33856
4825,33728
4826,33600
4827,33600
4828,33728
4829,33856
4830,33920
4831,33920
4832,33792
4833,33664
4834,33600
4835,33728
4836,33856
4837,33792
4838,33728
4839,33920
4840,34304
4841,34368
4842,34112
4843,33856
4844,33792
4845,33728
4846,33664
4847,33728
4848,33856
4849,33856
4850,33728
4851,33792
4852,33920
4853,33920
4854,33856
4855,33920
4856,34048
4857,34112
4858,34048
4859,33984
4860,33920
4861,33984
4862,34048
4863,34176
4864,34368
4865,34432
4866,34240
4867,33984
4868,33728
4869,33408
4870,33280
4871,33280
4872,33536
4873,33728
4874,33664
4875,33536
4876,33600
4877,33728
4878,33856
4879,33984
4880,34112
4881,34368
4882,34432
4883,34176
4884,33920
4885,33792
4886,33792
4887,33792
4888,33856
4889,33856
4890,33856
4891,33856
4892,33984
4893,34112
4894,34112
4895,34176
4896,34176
4897,34112
4898,34176
4899,34304
4900,34240
4901,34240
4902,34432
4903,34688
4904,35008
4905,35200
4906,34816
4907,34496
4908,34368
4909,34432
4910,34432
4911,34304
4912,34048
4913,33664
4914,33408
4915,33216
4916,33152
4917,33088
4918,33216
4919,33408
4920,33472
4921,33472
4922,33728
4923,33984
4924,33856
4925,33664
4926,33600
4927,33536
4928,33472
4929,33472
4930,33792
4931,34432
4932,35456
4933,36864
4934,38848
4935,40512
4936,41216
4937,40512
4938,38784
4939,36544
4940,34176
4941,32128
4942,30592
4943,29760
4944,29696
4945,30272
4946,31040
4947,31744
4948,32320
4949,32768
4950,33216
4951,33408
4952,33280
4953,33088
4954,32960
4955,32960
4956,33152
4957,33344
4958,33472
4959,33536
4960,33600
4961,33600
4962,33472
4963,33536
4964,33792
4965,33920
4966,33984
4967,33920
4968,33984
4969,34176
4970,34304
4971,34304
4972,34368
4973,34432
4974,34368
4975,34304
4976,34240
4977,34240
4978,34176
4979,34240
4980,34368
4981,34560
4982,34496
4983,34240
4984,34176
4985,34304
4986,34624
4987,34752
4988,34752
4989,34688
4990,34688
4991,34752
4992,34688
4993,34688
4994,34816
4995,34944
4996,34880
4997,34816
4998,34816
4999,34816
5000,34816
5001,34880
5002,35008
5003,35072
5004,35008
5005,34944
5006,35008
5007,35008
5008,35008
5009,34880
5010,34816
5011,34816
5012,34880
5013,34752
5014,34560
5015,34432
5016,34176
5017,33856
5018,33408
5019,33216
5020,33152
5021,33088
5022,32960
5023,32896
5024,32768
5025,32832
5026,32960
5027,32960
5028,32960
5029,33088
5030,33408
5031,33600
5032,33408
5033,33088
5034,33024
5035,33152
5036,33216
5037,33216
5038,33280
5039,33344
5040,33408
5041,33536
5042,33664
5043,33792
5044,33920
5045,33920
5046,33792
5047,33792
5048,33856
5049,34048
5050,34176
5051,34240
5052,34304
5053,34112
5054,33728
5055,33600
5056,33664
5057,33792
5058,33792
5059,33920
5060,34048
5061,34048
5062,33856
5063,33792
5064,33792
5065,33792
5066,33792
5067,33792
5068,33792
5069,33728
5070,33792
5071,33856
5072,33984
5073,34048
5074,33984
5075,33920
5076,33856
5077,33728
5078,33664
5079,33664
5080,33792
5081,33856
5082,34048
5083,34048
5084,33984
5085,33920
5086,33728
5087,33536
5088,33536
5089,33664
5090,33792
5091,33792
5092,33920
5093,34112
5094,34368
5095,34560
5096,34624
5097,34752
5098,34816
5099,34752
5100,34752
5101,34752
5102,34816
5103,34816
5104,34752
5105,34880
5106,34816
5107,34560
5108,34112
5109,33792
5110,33600
5111,33408
5112,33280
5113,33280
5114,33408
5115,33536
5116,33536
5117,33664
5118,33792
5119,33728
5120,33600
5121,33536
5122,33472
5123,33344
5124,33280
5125,33280
5126,33408
5127,33664
5128,34176
5129,34944
5130,36160
5131,38080
5132,40192
5133,41408
5134,41408
5135,40192
5136,38144
5137,35776
5138,33472
5139,31488
5140,30208
5141,29568
5142,29632
5143,30272
5144,31168
5145,31744
5146,32128
5147,32384
5148,32704
5149,32960
5150,33152
5151,33408
5152,33664
5153,33920
5154,33920
5155,33664
5156,33664
5157,33792
5158,33856
5159,33856
5160,33856
5161,33984
5162,33920
5163,33920
5164,33920
5165,33920
5166,33856
5167,33920
5168,33984
5169,34112
5170,34368
5171,34624
5172,34688
5173,34496
5174,34304
5175,34240
5176,34368
5177,34688
5178,34816
5179,34688
5180,34432
5181,34304
5182,34304
5183,34496
5184,34624
5185,34752
5186,34816
5187,34688
5188,34688
5189,34752
5190,34816
5191,34752
5192,34752
5193,34816
5194,34944
5195,35008
5196,35008
5197,35072
5198,35200
5199,35328
5200,35392
5201,35264
5202,35136
5203,35136
5204,35264
5205,35264
5206,34944
5207,34688
5208,34432
5209,34368
5210,34304
5211,34176
5212,34112
5213,33984
5214,33920
5215,33984
5216,33856
5217,33728
5218,33728
5219,33536
5220,33280
5221,33024
5222,32896
5223,32832
5224,32832
5225,32896
5226,33024
5227,33152
5228,33088
5229,32896
5230,32832
5231,32896
5232,33024
5233,33152
5234,33344
5235,33536
5236,33792
5237,33792
5238,33728
5239,33856
5240,33984
5241,34048
5242,33856
5243,33728
5244,33728
5245,33856
5246,33856
5247,33728
5248,33536
5249,33536
5250,33664
5251,33856
5252,34048
5253,33984
5254,33856
5255,33792
5256,33856
5257,33856
5258,33984
5259,33920
5260,33920
5261,33920
5262,33856
5263,33856
5264,33984
5265,33984
5266,33920
5267,33856
5268,33792
5269,33792
5270,33856
5271,33920
5272,33856
5273,33920
5274,33984
5275,33984
5276,33856
5277,33856
5278,33856
5279,33728
5280,33728
5281,33856
5282,34048
5283,34176
5284,34240
5285,34432
5286,34304
5287,33920
5288,33664
5289,33664
5290,33792
5291,33856
5292,33920
5293,34048
5294,34112
5295,33984
5296,33920
5297,33920
5298,33920
5299,33792
5300,33792
5301,33920
5302,34112
5303,34240
5304,34112
5305,33984
5306,34048
5307,34112
5308,34048
5309,33920
5310,33856
5311,33856
5312,33984
5313,34048
5314,34112
5315,34304
5316,34560
5317,34688
5318,34560
5319,34560
5320,34752
5321,34880
5322,34944
5323,34752
5324,34560
5325,34432
5326,34240
5327,34048
5328,34112
5329,34240
5330,34176
5331,33984
5332,33920
5333,33792
5334,33664
5335,33664
5336,33664
5337,33600
5338,33472
5339,33408
5340,33472
5341,33536
5342,33536
5343,33536
5344,33536
5345,33536
5346,33600
5347,33728
5348,33920
5349,34368
5350,35200
5351,36480
5352,38336
5353,40512
5354,41920
5355,42240
5356,41536
5357,39744
5358,37248
5359,34368
5360,31808
5361,30144
5362,29376
5363,29440
5364,30080
5365,30784
5366,31360
5367,31936
5368,32384
5369,32704
5370,32896
5371,33024
5372,33152
5373,33024
5374,32896
5375,32768
5376,32832
5377,33024
5378,33280
5379,33408
5380,33472
5381,33664
5382,33728
5383,33792
5384,33920
5385,33984
5386,34048
5387,34048
5388,33984
5389,33920
5390,34048
5391,34176
5392,34304
5393,34368
5394,34304
5395,34176
5396,34176
5397,34112
5398,34048
5399,34048
5400,34176
5401,34304
5402,34432
5403,34560
5404,34560
5405,34560
5406,34624
5407,34688
5408,34752
5409,34816
5410,34816
5411,34880
5412,34880
5413,34752
5414,34752
5415,34752
5416,34944
5417,35072
5418,35008
5419,35008
5420,35136
5421,35136
5422,35072
5423,35008
5424,35008
5425,35136
5426,35328
5427,35264
5428,34944
5429,34688
5430,34560
5431,34624
5432,34560
5433,34496
5434,34176
5435,33920
5436,33664
5437,33408
5438,33216
5439,33088
5440,33024
5441,32960
5442,32896
5443,32896
5444,32960
5445,33024
5446,33088
5447,33088
5448,33152
5449,33152
5450,33088
5451,33088
5452,33088
5453,33216
5454,33408
5455,33536
5456,33472
5457,33408
5458,33344
5459,33280
5460,33408
5461,33664
5462,33856
5463,33664
5464,33472
5465,33408
5466,33472
5467,33600
5468,33856
5469,34048
5470,34048
5471,33984
5472,33920
5473,33728
5474,33728
5475,33856
5476,33856
5477,33856
5478,33856
5479,33856
5480,34048
5481,34112
5482,34176
5483,34176
5484,34112
5485,33984
5486,33920
5487,33728
5488,33600
5489,33664
5490,33792
5491,33728
5492,33600
5493,33600
5494,33600
5495,33664
5496,33792
5497,33920
5498,33984
5499,33984
5500,34048
5501,33920
5502,33792
5503,33728
5504,33728
5505,33792
5506,33920
5507,34048
5508,34048
5509,33984
5510,33920
5511,33920
5512,33984
5513,33984
5514,33920
5515,33920
5516,33856
5517,33920
5518,33984
5519,33920
5520,33792
5521,33728
5522,33920
5523,34048
5524,34112
5525,34048
5526,34048
5527,34112
5528,34176
5529,34176
5530,34176
5531,34368
5532,34624
5533,34624
5534,34432
5535,34304
5536,34240
5537,34304
5538,34432
5539,34624
5540,34688
5541,34752
5542,34752
5543,34752
5544,34688
5545,34432
5546,34112
5547,33984
5548,33984
5549,33920
5550,33728
5551,33664
5552,33600
5553,33600
5554,33472
5555,33408
5556,33344
5557,33408
5558,33472
5559,33664
5560,33728
5561,33664
5562,33664
5563,33856
5564,33856
5565,33856
5566,34048
5567,34624
5568,35712
5569,37376
5570,39488
5571,41152
5572,41856
5573,41600
5574,40256
5575,38080
5576,35328
5577,32640
5578,30656
5579,29568
5580,29248
5581,29632
5582,30336
5583,31040
5584,32128
5585,32576
5586,32768
5587,32768
5588,32896
5589,33152
5590,33088
5591,33216
5592,33280
5593,33408
5594,33536
5595,33536
5596,33536
5597,33600
5598,33728
5599,33664
5600,33728
5601,33856
5602,33856
5603,33920
5604,34048
5605,34048
5606,34048
5607,34048
5608,34240
5609,34304
5610,34176
5611,34112
5612,34240
5613,34240
5614,34240
5615,34176
5616,34176
5617,34304
5618,34560
5619,34688
5620,34688
5621,34688
5622,34688
5623,34624
5624,34688
5625,34816
5626,34752
5627,34624
5628,34496
5629,34560
5630,34688
5631,34816
5632,34880
5633,34880
5634,34880
5635,35008
5636,35136
5637,35136
5638,35136
5639,35200
5640,35264
5641,35392
5642,35328
5643,35264
5644,34816
5645,34560
5646,34368
5647,34176
5648,34176
5649,34112
5650,33984
5651,33920
5652,33920
5653,33792
5654,33536
5655,33344
5656,33216
5657,33152
5658,33088
5659,33024
5660,33024
5661,32960
5662,32896
5663,32960
5664,32960
5665,32960
5666,32832
5667,32832
5668,32896
5669,33024
5670,33152
5671,33216
5672,33344
5673,33536
5674,33600
5675,33728
5676,34048
5677,34112
5678,33856
5679,33536
5680,33408
5681,33472
5682,33472
5683,33600
5684,33792
5685,33856
5686,33856
5687,33792
5688,33792
5689,33856
5690,33920
5691,33984
5692,34048
5693,34240
5694,34176
5695,33984
5696,33920
5697,34112
5698,34368
5699,34432
5700,34176
5701,34048
5702,33984
5703,33792
5704,33536
5705,33344
5706,33344
5707,33472
5708,33600
5709,33728
5710,33792
5711,33856
5712,33920
5713,33984
5714,33984
5715,34048
5716,34176
5717,34176
5718,34048
5719,33792
5720,33600
5721,33664
5722,33920
5723,33984
5724,33856
5725,33664
5726,33728
5727,33920
5728,34048
5729,34048
5730,33920
5731,33856
5732,33792
5733,33792
5734,33920
5735,33920
5736,33920
5737,33984
5738,34112
5739,34240
5740,34176
5741,34048
5742,33920
5743,33856
5744,33856
5745,33920
5746,33920
5747,34048
5748,34112
5749,34176
5750,34240
5751,34368
5752,34432
5753,34432
5754,34368
5755,34560
5756,34752
5757,34816
5758,34624
5759,34432
5760,34432
5761,34496
5762,34496
5763,34304
5764,34112
5765,34112
5766,33984
5767,33600
5768,33152
5769,32960
5770,33024
5771,33088
5772,33152
5773,33280
5774,33344
5775,33344
5776,33408
5777,33536
5778,33536
5779,33536
5780,33536
5781,33664
5782,33984
5783,34432
5784,35200
5785,36352
5786,38016
5787,39936
5788,41216
5789,41344
5790,40064
5791,37888
5792,35392
5793,33152
5794,31232
5795,30016
5796,29632
5797,29888
5798,30528
5799,31296
5800,31872
5801,32256
5802,32448
5803,32576
5804,32640
5805,32768
5806,32960
5807,33216
5808,33280
5809,33344
5810,33472
5811,33728
5812,34048
5813,34048
5814,33856
5815,33664
5816,33536
5817,33536
5818,33600
5819,33728
5820,33728
5821,33728
5822,33792
5823,33856
5824,33856
5825,33984
5826,34176
5827,34368
5828,34432
5829,34240
5830,34304
5831,34304
5832,34176
5833,34176
5834,34368
5835,34496
5836,34496
5837,34432
5838,34432
5839,34496
5840,34496
5841,34368
5842,34368
5843,34496
5844,34688
5845,34880
5846,35136
5847,35136
5848,34944
5849,34752
5850,34688
5851,34752
5852,35072
5853,35008
5854,35008
5855,35008
5856,34944
5857,34944
5858,34944
5859,35072
5860,35072
5861,34880
5862,34688
5863,34560
5864,34624
5865,34560
5866,34176
5867,33984
5868,33984
5869,33856
5870,33536
5871,33280
5872,33280
5873,33344
5874,33216
5875,33088
5876,32960
5877,32960
5878,32960
5879,32960
5880,32832
5881,32896
5882,33024
5883,32960
5884,33024
5885,33216
5886,33408
5887,33344
5888,33152
5889,33088
5890,33280
5891,33408
5892,33472
5893,33536
5894,33600
5895,33536
5896,33536
5897,33600
5898,33600
5899,33600
5900,33856
5901,34048
5902,34112
5903,34048
5904,33984
5905,33984
5906,33984
5907,33920
5908,33984
5909,34112
5910,34048
5911,33984
5912,33984
5913,33984
5914,33856
5915,33664
5916,33536
5917,33536
5918,33600
5919,33728
5920,33728
5921,33792
5922,34048
5923,34176
5924,34112
5925,33856
5926,33600
5927,33472
5928,33472
5929,33664
5930,33984
5931,34048
5932,33856
5933,33728
5934,33728
5935,33856
5936,33984
5937,34176
5938,34176
5939,34112
5940,33920
5941,33792
5942,33664
5943,33536
5944,33600
5945,33728
5946,33792
5947,33856
5948,34048
5949,34112
5950,34240
5951,34560
5952,34752
5953,34816
5954,34816
5955,34688
5956,34688
5957,34752
5958,34688
5959,34816
5960,35008
5961,34944
5962,34560
5963,34112
5964,33856
5965,33664
5966,33536
5967,33536
5968,33600
5969,33664
5970,33344
5971,33088
5972,32960
5973,32960
5974,33088
5975,33280
5976,33344
5977,33408
5978,33472
5979,33600
5980,33728
5981,33920
5982,33984
5983,33920
5984,34368
5985,35328
5986,37056
5987,39168
5988,40896
5989,41408
5990,40320
5991,38272
5992,35968
5993,33728
5994,31808
5995,30336
5996,29568
5997,29568
5998,30144
5999,30912
6000,31616
6001,32192
6002,32704
6003,32896
6004,33088
6005,33280
6006,33536
6007,33664
6008,33536
6009,33472
6010,33536
6011,33664
6012,33600
6013,33600
6014,33664
6015,33792
6016,33792
6017,33792
6018,33984
6019,34112
6020,34112
6021,34112
6022,34112
6023,34176
6024,34112
6025,34112
6026,34240
6027,34496
6028,34496
6029,34368
6030,34304
6031,34368
6032,34368
6033,34496
6034,34688
6035,34560
6036,34304
6037,34112
6038,34112
6039,34240
6040,34496
6041,34624
6042,34624
6043,34752
6044,34816
6045,34816
6046,34880
6047,34944
6048,35008
6049,35008
6050,34944
6051,34880
6052,34880
6053,34880
6054,35072
6055,35136
6056,35200
6057,35072
6058,35008
6059,34944
6060,35008
6061,34880
6062,34816
6063,34688
6064,34752
6065,34688
6066,34496
6067,34304
6068,34112
6069,34112
6070,34048
6071,33920
6072,33856
6073,33728
6074,33664
6075,33408
6076,33152
6077,32960
6078,32832
6079,32768
6080,32832
6081,32960
6082,32896
6083,32832
6084,32960
6085,33152
6086,33344
6087,33472
6088,33536
6089,33600
6090,33536
6091,33536
6092,33536
6093,33664
6094,33728
6095,33792
6096,33984
6097,34048
6098,34048
6099,33920
6100,33920
6101,33984
6102,34112
6103,34112
6104,33920
6105,33856
6106,33792
6107,33728
6108,33728
6109,33728
6110,33792
6111,33792
6112,33792
6113,33920
6114,33984
6115,33984
6116,33920
6117,33984
6118,34304
6119,34560
6120,34304
6121,34048
6122,33856
6123,33792
6124,33664
6125,33600
6126,33664
6127,33856
6128,34048
6129,34240
6130,34240
6131,34112
6132,33920
6133,33920
6134,33920
6135,33984
6136,34112
6137,34048
6138,33856
6139,33664
6140,33664
6141,33728
6142,33920
6143,34176
6144,34304
6145,34240
6146,34112
6147,33984
6148,33856
6149,33728
6150,33600
6151,33728
6152,34048
6153,34176
6154,34048
6155,33984
6156,34048
6157,34048
6158,33920
6159,33856
6160,33856
6161,33920
6162,34112
6163,34432
6164,34560
6165,34496
6166,34176
6167,34048
6168,34112
6169,34240
6170,34368
6171,34496
6172,34816
6173,35008
6174,34880
6175,34688
6176,34496
6177,34304
6178,34112
6179,34048
6180,34112
6181,34240
6182,34176
6183,34048
6184,33984
6185,33792
6186,33664
6187,33600
6188,33408
6189,33344
6190,33344
6191,33472
6192,33664
6193,33664
6194,33600
6195,33472
6196,33536
6197,33600
6198,33600
6199,33664
6200,33984
6201,34688
6202,35904
6203,37824
6204,40192
6205,41792
6206,42304
6207,41600
6208,39744
6209,37184
6210,34432
6211,31808
6212,29888
6213,29056
6214,29184
6215,29824
6216,30656
6217,31424
6218,32128
6219,32640
6220,32896
6221,32960
6222,33024
6223,32960
6224,32896
6225,32832
6226,32960
6227,33088
6228,33280
6229,33536
6230,33728
6231,33792
6232,33600
6233,33536
6234,33600
6235,33792
6236,33856
6237,33856
6238,33920
6239,34048
6240,34176
6241,34240
6242,34240
6243,34240
6244,34112
6245,34112
6246,34304
6247,34432
6248,34368
6249,34368
6250,34432
6251,34560
6252,34688
6253,34624
6254,34432
6255,34368
6256,34240
6257,34304
6258,34432
6259,34496
6260,34496
6261,34624
6262,34752
6263,34752
6264,34752
6265,34816
6266,34944
6267,35072
6268,35008
6269,34880
6270,34752
6271,34752
6272,34816
6273,34880
6274,34880
6275,34944
6276,35072
6277,35136
6278,35008
6279,34688
6280,34560
6281,34496
6282,34432
6283,34368
6284,34368
6285,34368
6286,34240
6287,34048
6288,34112
6289,34112
6290,33856
6291,33408
6292,33088
6293,32896
6294,32896
6295,32896
6296,32832
6297,32832
6298,32960
6299,33152
6300,33408
6301,33536
6302,33536
6303,33408
6304,33344
6305,33344
6306,33408
6307,33472
6308,33600
6309,33472
6310,33472
6311,33472
6312,33600
6313,33728
6314,33792
6315,33792
6316,33600
6317,33472
6318,33472
6319,33600
6320,33728
6321,33856
6322,34048
6323,34048
6324,34176
6325,34176
6326,34176
6327,34112
6328,34048
6329,33920
6330,33984
6331,34048
6332,33984
6333,33792
6334,33792
6335,33856
6336,33920
6337,33984
6338,33920
6339,33856
6340,33728
6341,33728
6342,33728
6343,33728
6344,33856
6345,33920
6346,33984
6347,34112
6348,34368
6349,34432
6350,34176
6351,33984
6352,33920
6353,33984
6354,33984
6355,34048
6356,34048
6357,34112
6358,34176
6359,34112
6360,34112
6361,33920
6362,33728
6363,33664
6364,33728
6365,33856
6366,33984
6367,34240
6368,34304
6369,34240
6370,34048
6371,33856
6372,33792
6373,33792
6374,33728
6375,33792
6376,33984
6377,34176
6378,34176
6379,34304
6380,34624
6381,34880
6382,34816
6383,34688
6384,34560
6385,34304
6386,34112
6387,34048
6388,34176
6389,34496
6390,34752
6391,34880
6392,34816
6393,34624
6394,34368
6395,34176
6396,34112
6397,34112
6398,34048
6399,34112
6400,34048
6401,33792
6402,33536
6403,33344
6404,33280
6405,33344
6406,33536
6407,33536
6408,33472
6409,33536
6410,33664
6411,33856
6412,33920
6413,33792
6414,33600
6415,33728
6416,34112
6417,34816
6418,35840
6419,37376
6420,39360
6421,41152
6422,42048
6423,41856
6424,40320
6425,37824
6426,35072
6427,32576
6428,30720
6429,29504
6430,29440
6431,29888
6432,30656
6433,31360
6434,31744
6435,32064
6436,32320
6437,32576
6438,32704
6439,32832
6440,33088
6441,33280
6442,33408
6443,33344
6444,33216
6445,33216
6446,33280
6447,33408
6448,33536
6449,33600
6450,33792
6451,33920
6452,33920
6453,33728
6454,33600
6455,33600
6456,33792
6457,33856
6458,33856
6459,33984
6460,34112
6461,34112
6462,33984
6463,34048
6464,34112
6465,34176
6466,34176
6467,34240
6468,34496
6469,34816
6470,34816
6471,34560
6472,34368
6473,34368
6474,34560
6475,34624
6476,34816
6477,34880
6478,34944
6479,34880
6480,34560
6481,34368
6482,34304
6483,34368
6484,34688
6485,34880
6486,34880
6487,34752
6488,34688
6489,34816
6490,34816
6491,34944
6492,35008
6493,35136
6494,35136
6495,35008
6496,34752
6497,34624
6498,34560
6499,34432
6500,34240
6501,34048
6502,34048
6503,33984
6504,33600
6505,33472
6506,33408
6507,33344
6508,33280
6509,33152
6510,32960
6511,32768
6512,32832
6513,33088
6514,33280
6515,33280
6516,33152
6517,33088
6518,33088
6519,33088
6520,33216
6521,33408
6522,33536
6523,33408
6524,33344
6525,33408
6526,33536
6527,33536
6528,33472
6529,33472
6530,33600
6531,33728
6532,33856
6533,33856
6534,33792
6535,33728
6536,33792
6537,33792
6538,33792
6539,33792
6540,33664
6541,33536
6542,33664
6543,33728
6544,33792
6545,33728
6546,33664
6547,33728
6548,33984
6549,34112
6550,34048
6551,33984
6552,33984
6553,34048
6554,34048
6555,33920
6556,33600
6557,33408
6558,33472
6559,33600
6560,33728
6561,33728
6562,33664
6563,33664
6564,33792
6565,33792
6566,33792
6567,33856
6568,33856
6569,33920
6570,33984
6571,34112
6572,34240
6573,34240
6574,34048
6575,33728
6576,33600
6577,33600
6578,33664
6579,33664
6580,33600
6581,33664
6582,33792
6583,33920
6584,33984
6585,34048
6586,33920
6587,33728
6588,33792
6589,33984
6590,34048
6591,33984
6592,34112
6593,34176
6594,34176
6595,34048
6596,34048
6597,34176
6598,34368
6599,34496
6600,34496
6601,34624
6602,34688
6603,34688
6604,34688
6605,34752
6606,34816
6607,34880
6608,34752
6609,34496
6610,34304
6611,34048
6612,33728
6613,33408
6614,33472
6615,33600
6616,33536
6617,33344
6618,33152
6619,33088
6620,33088
6621,33024
6622,32960
6623,32960
6624,33088
6625,33152
6626,33344
6627,33472
6628,33536
6629,33792
6630,34368
6631,35328
6632,36992
6633,39168
6634,41088
6635,41664
6636,40832
6637,39040
6638,36672
6639,32960
6640,31936
6641,30400
6642,29696
6643,29568
6644,30016
6645,30720
6646,31424
6647,32064
6648,32512
6649,32768
6650,32896
6651,32896
6652,33024
6653,33216
6654,33344
6655,33344
6656,33344
6657,33344
6658,33344
6659,33408
6660,33536
6661,33600
6662,33600
6663,33728
6664,33920
6665,33984
6666,33984
6667,33920
6668,33856
6669,33792
6670,33792
6671,33856
6672,33856
6673,33920
6674,34048
6675,34048
6676,34048
6677,34176
6678,34240
6679,34304
6680,34304
6681,34368
6682,34304
6683,34176
6684,34176
6685,34432
6686,34560
6687,34496
6688,34368
6689,34304
6690,34496
6691,34624
6692,34624
6693,34688
6694,34688
6695,34624
6696,34624
6697,34752
6698,35008
6699,35200
6700,35136
6701,34880
6702,34624
6703,34496
6704,34560
6705,34816
6706,34944
6707,34944
6708,34880
6709,34688
6710,34560
6711,34560
6712,34560
6713,34368
6714,34048
6715,33728
6716,33472
6717,33344
6718,33280
6719,33216
6720,33280
6721,33280
6722,33344
6723,33216
6724,33152
6725,33152
6726,33152
6727,33024
6728,32832
6729,32832
6730,32960
6731,33152
6732,33088
6733,33088
6734,33344
6735,33472
6736,33536
6737,33536
6738,33600
6739,33600
6740,33664
6741,33792
6742,33920
6743,33984
6744,34048
6745,34112
6746,34112
6747,33920
6748,33792
6749,33664
6750,33600
6751,33728
6752,34112
6753,34048
6754,33728
6755,33536
6756,33600
6757,33664
6758,33728
6759,33920
6760,34048
6761,33856
6762,33600
6763,33600
6764,33728
6765,33728
6766,33728
6767,33856
6768,33920
6769,33856
6770,33728
6771,33728
6772,33856
6773,34048
6774,34112
6775,34240
6776,34304
6777,34176
6778,33856
6779,33728
6780,33728
6781,33728
6782,33920
6783,33984
6784,33920
6785,34048
6786,34112
6787,34048
6788,33792
6789,33728
6790,33920
6791,34176
6792,34304
6793,34304
6794,34432
6795,34624
6796,34944
6797,35200
6798,35328
6799,35456
6800,35264
6801,34880
6802,34624
6803,34432
6804,34176
6805,33984
6806,33856
6807,33664
6808,33536
6809,33472
6810,33280
6811,33216
6812,33280
6813,33216
6814,33152
6815,33152
6816,33152
6817,33280
6818,33408
6819,33664
6820,33920
6821,33856
6822,33600
6823,33472
6824,33600
6825,34176
6826,35264
6827,37120
6828,39104
6829,40704
6830,41216
6831,40384
6832,38528
6833,36288
6834,34048
6835,32064
6836,30528
6837,29696
6838,29696
6839,30144
6840,30848
6841,31488
6842,32064
6843,32448
6844,32640
6845,32832
6846,32960
6847,33088
6848,33216
6849,33408
6850,33600
6851,33664
6852,33728
6853,33792
6854,33728
6855,33792
6856,33792
6857,33792
6858,33792
6859,33920
6860,34048
6861,34048
6862,33920
6863,33856
6864,33984
6865,34048
6866,34048
6867,34048
6868,34112
6869,34176
6870,34240
6871,34304
6872,34368
6873,34368
6874,34304
6875,34240
6876,34304
6877,34368
6878,34304
6879,34240
6880,34304
6881,34560
6882,34752
6883,34752
6884,34688
6885,34688
6886,34624
6887,34560
6888,34624
6889,34816
6890,34880
6891,34816
6892,34752
6893,34816
6894,34944
6895,35008
6896,35008
6897,35136
6898,35072
6899,34880
6900,34624
6901,34496
6902,34496
6903,34496
6904,34560
6905,34560
6906,34560
6907,34432
6908,34368
6909,34368
6910,34304
6911,34176
6912,34112
6913,33856
6914,33536
6915,33216
6916,32960
6917,32896
6918,32960
6919,33024
6920,33024
6921,33024
6922,32896
6923,32832
6924,32896
6925,33088
6926,33280
6927,33408
6928,33472
6929,33472
6930,33472
6931,33472
6932,33600
6933,33600
6934,33600
6935,33664
6936,33728
6937,33728
6938,33792
6939,33984
6940,33984
6941,33920
6942,33856
6943,33856
6944,34048
6945,34304
6946,34368
6947,34432
6948,34368
6949,34048
6950,33728
6951,33536
6952,33472
6953,33536
6954,33728
6955,33984
6956,34112
6957,33984
6958,33856
6959,33792
6960,33856
6961,33920
6962,33984
6963,34112
6964,34112
6965,34048
6966,33984
6967,33920
6968,33984
6969,34048
6970,33984
6971,33984
6972,34048
6973,33920
6974,33920
6975,33984
6976,33920
6977,33856
6978,33792
6979,33856
6980,33984
6981,34048
6982,34048
6983,33856
6984,33856
6985,33920
6986,34048
6987,34176
6988,34240
6989,34176
6990,34112
6991,34176
6992,34368
6993,34560
6994,34688
6995,34688
6996,34752
6997,34816
6998,34880
6999,35008
7000,35072
7001,34944
7002,34816
7003,34624
7004,34432
7005,34304
7006,34176
7007,34048
7008,33856
7009,33472
7010,33216
7011,33152
7012,33088
7013,33216
7014,33344
7015,33344
7016,33408
7017,33536
7018,33600
7019,33664
7020,33664
7021,33536
7022,33472
7023,33600
7024,33856
7025,34432
7026,35520
7027,37120
7028,39104
7029,40896
7030,41920
7031,41984
7032,40768
7033,38464
7034,35520
7035,32640
7036,30464
7037,29312
7038,29056
7039,29696
7040,30656
7041,31360
7042,31744
7043,32128
7044,32512
7045,32768
7046,32896
7047,33024
7048,33216
7049,33408
7050,33536
7051,33536
7052,33344
7053,33152
7054,33152
7055,33280
7056,33408
7057,33600
7058,33600
7059,33664
7060,33792
7061,33920
7062,34048
7063,34048
7064,34048
7065,33920
7066,33792
7067,33728
7068,33920
7069,34112
7070,34240
7071,34304
7072,34304
7073,34112
7074,33920
7075,33920
7076,33920
7077,34176
7078,34496
7079,34688
7080,34688
7081,34624
7082,34560
7083,34560
7084,34560
7085,34560
7086,34496
7087,34560
7088,34624
7089,34752
7090,34752
7091,34752
7092,34752
7093,34688
7094,34688
7095,34752
7096,34816
7097,34944
7098,35072
7099,35008
7100,35072
7101,35136
7102,35136
7103,35008
7104,34944
7105,34816
7106,34496
7107,34240
7108,34112
7109,34112
7110,34176
7111,34048
7112,33728
7113,33536
7114,33472
7115,33344
7116,33216
7117,33152
7118,33088
7119,33088
7120,33088
7121,33152
7122,33216
7123,33152
7124,32960
7125,32960
7126,33024
7127,33152
7128,33152
7129,33344
7130,33600
7131,33728
7132,33728
7133,33728
7134,33792
7135,33792
7136,33792
7137,33792
7138,33792
7139,33792
7140,33920
7141,33984
7142,33856
7143,33664
7144,33600
7145,33728
7146,33856
7147,34048
7148,34112
7149,34304
7150,34368
7151,34112
7152,33792
7153,33600
7154,33536
7155,33728
7156,33856
7157,33728
7158,33664
7159,33664
7160,33856
7161,33920
7162,33920
7163,33856
7164,33728
7165,33792
7166,33920
7167,33984
7168,33920
7169,33984
7170,34176
7171,34368
7172,34432
7173,34368
7174,33984
7175,33664
7176,33600
7177,33728
7178,33792
7179,33920
7180,34112
7181,34240
7182,34176
7183,33984
7184,33856
7185,33856
7186,33792
7187,33728
7188,33728
7189,33856
7190,34048
7191,34112
7192,34112
7193,34048
7194,34240
7195,34432
7196,34368
7197,34304
7198,34240
7199,34176
7200,34240
7201,34304
7202,34368
7203,34432
7204,34560
7205,34752
7206,34816
7207,34816
7208,34816
7209,34880
7210,34816
7211,34624
7212,34432
7213,34240
7214,34176
7215,34112
7216,34048
7217,33792
7218,33536
7219,33408
7220,33280
7221,33344
7222,33472
7223,33728
7224,33664
7225,33408
7226,33280
7227,33344
7228,33536
7229,33792
7230,33984
7231,34048
7232,34112
7233,34368
7234,35136
7235,36544
7236,38656
7237,40832
7238,42176
7239,42240
7240,41024
7241,38784
7242,36096
7243,33408
7244,31296
7245,30016
7246,29440
7247,29632
7248,30464
7249,31296
7250,31872
7251,32192
7252,32320
7253,32448
7254,32704
7255,32896
7256,33152
7257,33344
7258,33280
7259,33152
7260,33024
7261,33088
7262,33152
7263,33280
7264,33344
7265,33472
7266,33600
7267,33664
7268,33792
7269,33856
7270,33920
7271,33920
7272,34048
7273,34240
7274,34304
7275,34176
7276,34240
7277,34176
7278,34240
7279,34368
7280,34368
7281,34304
7282,34176
7283,34112
7284,34112
7285,34176
7286,34240
7287,34368
7288,34496
7289,34688
7290,34688
7291,34496
7292,34432
7293,34560
7294,34816
7295,34944
7296,34880
7297,34816
7298,34688
7299,34688
7300,34752
7301,34816
7302,34816
7303,34688
7304,34560
7305,34496
7306,34496
7307,34560
7308,34560
7309,34624
7310,34752
7311,34816
7312,34816
7313,34752
7314,34688
7315,34688
7316,34560
7317,34240
7318,34048
7319,33920
7320,33856
7321,33792
7322,33664
7323,33600
7324,33536
7325,33472
7326,33408
7327,33216
7328,33024
7329,32832
7330,32832
7331,32832
7332,32960
7333,33088
7334,33088
7335,33216
7336,33408
7337,33664
7338,33920
7339,33856
7340,33536
7341,33280
7342,33280
7343,33344
7344,33600
7345,33792
7346,33792
7347,33792
7348,33792
7349,33600
7350,33408
7351,33280
7352,33344
7353,33472
7354,33600
7355,33792
7356,34048
7357,34176
7358,34112
7359,34048
7360,34112
7361,34176
7362,34112
7363,34112
7364,34240
7365,34176
7366,33920
7367,33664
7368,33472
7369,33408
7370,33536
7371,33792
7372,34112
7373,34048
7374,33792
7375,33600
7376,33664
7377,33792
7378,33856
7379,33792
7380,33856
7381,33920
7382,33984
7383,34112
7384,34240
7385,34176
7386,34176
7387,34048
7388,33792
7389,33728
7390,33856
7391,33984
7392,34112
7393,34368
7394,34560
7395,34688
7396,34688
7397,34624
7398,34688
7399,34752
7400,34752
7401,34688
7402,34688
7403,34624
7404,34304
7405,33920
7406,33600
7407,33408
7408,33280
7409,33088
7410,32960
7411,32960
7412,32960
7413,32960
7414,33024
7415,33088
7416,33280
7417,33536
7418,33600
7419,33600
7420,33600
7421,33472
7422,33536
7423,33856
7424,34432
7425,35392
7426,36864
7427,39040
7428,40576
7429,41216
7430,40576
7431,38848
7432,36608
7433,34112
7434,31872
7435,30272
7436,29376
7437,29312
7438,29888
7439,30784
7440,31616
7441,32192
7442,32576
7443,32832
7444,32896
7445,32960
7446,33088
7447,33408
7448,33600
7449,33600
7450,33472
7451,33344
7452,33408
7453,33600
7454,33728
7455,33728
7456,33728
7457,33792
7458,33920
7459,33920
7460,33792
7461,33728
7462,33728
7463,33856
7464,34112
7465,34304
7466,34496
7467,34496
7468,34432
7469,34240
7470,34112
7471,34048
7472,34048
7473,34112
7474,34240
7475,34304
7476,34304
7477,34368
7478,34560
7479,34688
7480,34624
7481,34560
7482,34432
7483,34432
7484,34432
7485,34560
7486,34688
7487,34688
7488,34752
7489,34880
7490,34880
7491,34688
7492,34624
7493,34752
7494,34688
7495,34560
7496,34560
7497,34688
7498,34880
7499,34880
7500,34816
7501,34624
7502,34560
7503,34624
7504,34752
7505,34624
7506,34368
7507,33984
7508,33792
7509,33664
7510,33728
7511,33856
7512,33728
7513,33600
7514,33472
7515,33280
7516,33088
7517,33024
7518,33024
7519,33088
7520,33024
7521,32960
7522,33024
7523,33216
7524,33344
7525,33344
7526,33536
7527,33536
7528,33344
7529,33344
7530,33408
7531,33536
7532,33600
7533,33600
7534,33600
7535,33600
7536,33600
7537,33664
7538,33664
7539,33856
7540,33920
7541,34048
7542,34112
7543,34240
7544,34240
7545,34176
7546,34176
7547,34176
7548,34240
7549,34240
7550,34176
7551,34176
7552,33984
7553,33792
7554,33600
7555,33472
7556,33344
7557,33280
7558,33280
7559,33344
7560,33472
7561,33600
7562,33792
7563,33920
7564,33984
7565,33984
7566,33920
7567,33920
7568,33984
7569,34048
7570,33920
7571,33920
7572,34048
7573,34112
7574,34112
7575,34176
7576,34240
7577,34304
7578,34432
7579,34560
7580,34816
7581,35072
7582,35072
7583,34944
7584,34880
7585,34880
7586,34816
7587,34624
7588,34368
7589,34240
7590,34112
7591,33920
7592,33728
7593,33472
7594,33280
7595,33216
7596,33216
7597,33152
7598,33152
7599,33152
7600,33216
7601,33472
7602,33792
7603,33984
7604,34048
7605,33984
7606,33792
7607,33664
7608,33664
7609,34112
7610,35008
7611,36416
7612,38272
7613,40064
7614,40832
7615,40192
7616,38656
7617,36800
7618,34624
7619,32384
7620,30720
7621,29888
7622,29760
7623,30080
7624,30848
7625,31616
7626,32192
7627,32448
7628,32576
7629,32768
7630,33088
7631,33472
7632,33728
7633,33792
7634,33600
7635,33408
7636,33344
7637,33280
7638,33408
7639,33664
7640,33920
7641,33920
7642,33856
7643,33792
7644,33728
7645,33792
7646,33920
7647,34176
7648,34304
7649,34240
7650,34112
7651,34048
7652,34176
7653,34176
7654,34176
7655,34240
7656,34432
7657,34496
7658,34496
7659,34560
7660,34688
7661,34752
7662,34560
7663,34240
7664,33984
7665,34048
7666,34240
7667,34560
7668,34624
7669,34496
7670,34368
7671,34432
7672,34624
7673,34816
7674,34880
7675,34816
7676,34752
7677,34688
7678,34624
7679,34624
7680,34816
7681,35008
7682,35072
7683,35008
7684,34880
7685,34880
7686,34880
7687,34816
7688,34688
7689,34560
7690,34496
7691,34496
7692,34432
7693,34368
7694,34304
7695,34176
7696,33792
7697,33472
7698,33344
7699,33216
7700,33152
7701,33152
7702,33088
7703,33024
7704,33088
7705,33152
7706,33024
7707,32896
7708,32832
7709,32896
7710,33088
7711,33280
7712,33408
7713,33600
7714,33792
7715,33792
7716,33664
7717,33472
7718,33408
7719,33472
7720,33664
7721,33856
7722,34048
7723,34112
7724,34112
7725,34176
7726,34240
7727,34176
7728,34048
7729,33920
7730,33856
7731,33792
7732,33664
7733,33600
7734,33664
7735,33792
7736,33856
7737,33920
7738,33920
7739,33920
7740,33984
7741,33920
7742,33792
7743,33792
7744,33792
7745,33728
7746,33664
7747,33664
7748,33728
7749,33856
7750,33920
7751,33984
7752,34048
7753,34048
7754,33984
7755,33984
7756,34048
7757,34112
7758,34176
7759,34048
7760,33856
7761,33728
7762,33728
7763,33792
7764,34048
7765,34240
7766,34432
7767,34496
7768,34624
7769,34752
7770,34880
7771,34944
7772,34944
7773,34944
7774,34880
7775,34880
7776,34816
7777,34688
7778,34432
7779,34176
7780,33984
7781,33920
7782,33728
7783,33472
7784,33344
7785,33280
7786,33152
7787,33152
7788,33216
7789,33408
7790,33536
7791,33472
7792,33408
7793,33408
7794,33408
7795,33408
7796,33472
7797,33856
7798,34304
7799,34752
7800,35648
7801,37248
7802,39424
7803,41280
7804,42048
7805,41664
7806,39872
7807,37312
7808,34496
7809,31936
7810,30144
7811,29312
7812,29248
7813,29760
7814,30528
7815,31296
7816,31808
7817,32192
7818,32448
7819,32640
7820,32832
7821,33088
7822,33344
7823,33600
7824,33600
7825,33408
7826,33216
7827,33216
7828,33216
7829,33216
7830,33280
7831,33408
7832,33600
7833,33792
7834,34048
7835,34240
7836,34112
7837,33856
7838,33792
7839,33856
7840,33920
7841,34048
7842,34048
7843,34112
7844,34176
7845,34240
7846,34304
7847,34176
7848,34112
7849,34112
7850,34240
7851,34304
7852,34304
7853,34240
7854,34368
7855,34432
7856,34432
7857,34496
7858,34560
7859,34560
7860,34752
7861,34944
7862,34880
7863,34624
7864,34496
7865,34496
7866,34496
7867,34496
7868,34624
7869,34880
7870,34944
7871,34944
7872,34880
7873,34880
7874,34880
7875,34880
7876,34880
7877,34816
7878,34816
7879,34752
7880,34560
7881,34432
7882,34368
7883,34176
7884,33984
7885,33856
7886,33792
7887,33664
7888,33536
7889,33344
7890,33280
7891,33216
7892,33088
7893,33088
7894,33216
7895,33216
7896,33216
7897,33280
7898,33344
7899,33280
7900,33088
7901,33088
7902,33152
7903,33216
7904,33280
7905,33408
7906,33600
7907,33920
7908,34112
7909,34112
7910,33984
7911,33792
7912,33664
7913,33600
7914,33600
7915,33600
7916,33600
7917,33728
7918,33920
7919,33984
7920,33920
7921,33856
7922,33920
7923,33984
7924,33920
7925,33856
7926,33856
7927,33984
7928,33984
7929,33920
7930,33920
7931,33984
7932,33984
7933,33792
7934,33728
7935,33792
7936,33792
7937,33792
7938,33856
7939,34048
7940,34176
7941,34176
7942,34048
7943,33856
7944,33728
7945,33664
7946,33664
7947,33728
7948,33856
7949,33920
7950,33984
7951,34048
7952,34176
7953,34176
7954,34048
7955,33856
7956,33792
7957,33728
7958,33792
7959,33856
7960,33920
7961,33984
7962,34048
7963,34176
7964,34368
7965,34496
7966,34496
7967,34368
7968,34240
7969,34176
7970,34240
7971,34496
7972,34944
7973,35264
7974,35136
7975,34816
7976,34560
7977,34560
7978,34496
7979,34304
7980,34112
7981,33856
7982,33728
7983,33728
7984,33664
7985,33600
7986,33408
7987,33280
7988,33280
7989,33408
7990,33536
7991,33536
7992,33600
7993,33664
7994,33728
7995,33664
7996,33664
7997,33728
7998,33984
7999,34368
8000,34816
8001,35712
8002,37248
8003,39360
8004,41216
8005,42176
8006,42048
8007,40448
8008,37888
8009,34880
8010,32192
8011,30272
8012,29312
8013,29184
8014,29824
8015,30592
8016,31168
8017,31680
8018,32256
8019,32768
8020,32896
8021,32832
8022,32832
8023,32832
8024,32896
8025,33024
8026,33280
8027,33408
8028,33344
8029,33344
8030,33472
8031,33728
8032,33984
8033,33920
8034,33792
8035,33792
8036,33856
8037,33856
8038,33792
8039,33856
8040,34048
8041,34112
8042,34112
8043,34304
8044,34368
8045,34112
8046,33856
8047,33856
8048,33920
8049,34048
8050,34176
8051,34304
8052,34432
8053,34496
8054,34432
8055,34432
8056,34496
8057,34560
8058,34624
8059,34624
8060,34624
8061,34688
8062,34752
8063,34880
8064,34816
8065,34688
8066,34624
8067,34624
8068,34752
8069,34752
8070,34752
8071,34752
8072,34752
8073,34688
8074,34688
8075,34752
8076,34880
8077,34880
8078,34816
8079,34816
8080,34816
8081,34688
8082,34432
8083,34112
8084,33856
8085,33792
8086,33792
8087,33600
8088,33408
8089,33280
8090,33280
8091,33280
8092,33280
8093,33344
8094,33280
8095,33152
8096,33088
8097,33088
8098,33216
8099,33280
8100,33216
8101,33216
8102,33280
8103,33344
8104,33408
8105,33536
8106,33664
8107,33728
8108,33728
8109,33728
8110,33856
8111,33984
8112,34048
8113,33984
8114,33920
8115,33856
8116,33920
8117,33856
8118,33792
8119,33792
8120,33664
8121,33472
8122,33472
8123,33600
8124,33728
8125,33664
8126,33664
8127,33728
8128,33728
8129,33728
8130,33856
8131,34048
8132,34240
8133,34176
8134,34048
8135,33920
8136,33792
8137,33728
8138,33728
8139,33856
8140,33856
8141,33728
8142,33600
8143,33600
8144,33728
8145,33792
8146,33792
8147,33792
8148,33920
8149,34112
8150,34112
8151,33984
8152,33920
8153,33856
8154,33728
8155,33728
8156,33856
8157,33984
8158,34048
8159,34176
8160,34240
8161,34176
8162,34048
8163,33984
8164,34112
8165,34368
8166,34432
8167,34368
8168,34368
8169,34496
8170,34624
8171,34560
8172,34496
8173,34432
8174,34368
8175,34240
8176,34240
8177,34304
8178,34304
8179,34112
8180,33792
8181,33472
8182,33216
8183,33088
8184,33024
8185,33152
8186,33344
8187,33536
8188,33600
8189,33600
8190,33600
8191,33536
8192,33472
8193,33536
8194,33728
8195,33984
8196,34432
8197,35136
8198,36288
8199,38144
8200,40192
8201,41536
8202,41600
8203,40128
8204,37632
8205,35008
8206,32832
8207,31040
8208,29760
8209,29248
8210,29440
8211,30272
8212,31232
8213,32064
8214,32512
8215,32576
8216,32704
8217,32768
8218,32896
8219,33024
8220,33216
8221,33408
8222,33600
8223,33728
8224,33728
8225,33664
8226,33600
8227,33536
8228,33536
8229,33664
8230,33792
8231,33920
8232,33984
8233,33984
8234,34112
8235,34176
8236,34176
8237,34048
8238,34048
8239,34176
8240,34176
8241,33984
8242,33856
8243,33920
8244,34048
8245,34176
8246,34240
8247,34176
8248,34112
8249,34112
8250,34112
8251,34176
8252,34368
8253,34496
8254,34624
8255,34624
8256,34624
8257,34624
8258,34624
8259,34688
8260,34880
8261,35136
8262,35200
8263,35072
8264,34880
8265,34688
8266,34496
8267,34432
8268,34496
8269,34624
8270,34688
8271,34688
8272,34624
8273,34624
8274,34624
8275,34688
8276,34816
8277,34944
8278,34816
8279,34368
8280,33984
8281,33792
8282,33792
8283,33856
8284,33792
8285,33728
8286,33600
8287,33344
8288,33152
8289,33088
8290,33088
8291,33024
8292,33088
8293,33216
8294,33280
8295,33152
8296,33088
8297,33152
8298,33344
8299,33472
8300,33472
8301,33472
8302,33600
8303,33728
8304,33792
8305,33856
8306,33856
8307,33920
8308,33856
8309,33856
8310,33920
8311,34112
8312,34368
8313,34560
8314,34624
8315,34368
8316,33984
8317,33664
8318,33472
8319,33472
8320,33472
8321,33536
8322,33664
8323,33856
8324,33920
8325,34048
8326,34048
8327,33920
8328,33856
8329,33856
8330,33920
8331,33984
8332,34048
8333,33984
8334,33856
8335,33856
8336,33984
8337,33984
8338,33984
8339,33920
8340,33984
8341,34112
8342,34240
8343,34368
8344,34368
8345,34496
8346,34688
8347,34816
8348,34880
8349,35008
8350,35008
8351,34880
8352,34880
8353,34752
8354,34496
8355,34176
8356,33984
8357,33792
8358,33536
8359,33152
8360,32896
8361,32768
8362,32768
8363,32896
8364,33152
8365,33280
8366,33344
8367,33344
8368,33408
8369,33664
8370,33856
8371,33728
8372,33472
8373,33408
8374,33792
8375,34560
8376,35520
8377,36864
8378,38720
8379,40384
8380,40640
8381,39744
8382,38016
8383,35904
8384,33856
8385,32128
8386,30912
8387,30208
8388,30016
8389,30208
8390,30848
8391,31552
8392,32128
8393,32640
8394,33024
8395,33216
8396,33472
8397,33728
8398,33856
8399,33856
8400,33856
8401,33856
8402,33728
8403,33600
8404,33664
8405,33664
8406,33600
8407,33664
8408,33728
8409,33856
8410,34048
8411,34176
8412,34176
8413,34112
8414,34112
8415,34176
8416,34176
8417,34176
8418,34112
8419,34048
8420,34112
8421,34176
8422,34304
8423,34304
8424,34240
8425,34176
8426,34240
8427,34432
8428,34560
8429,34624
8430,34624
8431,34688
8432,34752
8433,34752
8434,34816
8435,34944
8436,34944
8437,34880
8438,34624
8439,34496
8440,34560
8441,34624
8442,34688
8443,34752
8444,34816
8445,34816
8446,34688
8447,34624
8448,34688
8449,34752
8450,34752
8451,34752
8452,34752
8453,34816
8454,34880
8455,34816
8456,34752
8457,34560
8458,34240
8459,33792
8460,33600
8461,33600
8462,33600
8463,33536
8464,33408
8465,33408
8466,33344
8467,33344
8468,33216
8469,33152
8470,33088
8471,33088
8472,33088
8473,33152
8474,33216
8475,33152
8476,33152
8477,33216
8478,33344
8479,33536
8480,33664
8481,33856
8482,33984
8483,33920
8484,33792
8485,33792
8486,33920
8487,34048
8488,33984
8489,33920
8490,33856
8491,33856
8492,33920
8493,33856
8494,33856
8495,33792
8496,33792
8497,33856
8498,33920
8499,33984
8500,34048
8501,34112
8502,34176
8503,34112
8504,33920
8505,33792
8506,33792
8507,33856
8508,33920
8509,33920
8510,33920
8511,33984
8512,33984
8513,33984
8514,33920
8515,33920
8516,33920
8517,33984
8518,34048
8519,34112
8520,34240
8521,34304
8522,34112
8523,33856
8524,33792
8525,33792
8526,33792
8527,33920
8528,34176
8529,34432
8530,34496
8531,34752
8532,35008
8533,35008
8534,34816
8535,34816
8536,34752
8537,34688
8538,34560
8539,34432
8540,34368
8541,34304
8542,34240
8543,33984
8544,33664
8545,33600
8546,33408
8547,33344
8548,33280
8549,33344
8550,33536
8551,33536
8552,33408
8553,33344
8554,33280
8555,33280
8556,33408
8557,33472
8558,33408
8559,33664
8560,34176
8561,35008
8562,36288
8563,38144
8564,40448
8565,41984
8566,42112
8567,40832
8568,38400
8569,35904
8570,33280
8571,31104
8572,29888
8573,29632
8574,30400
8575,30592
8576,30976
8577,31424
8578,31936
8579,32320
8580,32640
8581,32832
8582,32960
8583,33088
8584,33216
8585,33344
8586,33472
8587,33664
8588,33728
8589,33792
8590,33856
8591,33920
8592,33792
8593,33664
8594,33728
8595,33856
8596,33984
8597,34112
8598,34176
8599,34240
8600,34240
8601,34112
8602,34048
8603,34176
8604,34368
8605,34304
8606,34240
8607,34240
8608,34240
8609,34304
8610,34432
8611,34560
8612,34688
8613,34816
8614,34816
8615,34752
8616,34560
8617,34432
8618,34368
8619,34496
8620,34560
8621,34560
8622,34560
8623,34624
8624,34752
8625,34816
8626,34752
8627,34752
8628,34752
8629,34688
8630,34688
8631,34688
8632,34816
8633,34880
8634,34752
8635,34752
8636,34880
8637,35072
8638,34944
8639,34688
8640,34560
8641,34496
8642,34368
8643,34368
8644,34304
8645,34176
8646,33984
8647,33856
8648,33664
8649,33536
8650,33344
8651,33216
8652,33216
8653,33216
8654,33216
8655,33280
8656,33280
8657,33344
8658,33280
8659,33216
8660,33344
8661,33600
8662,33792
8663,33856
8664,33792
8665,33792
8666,33664
8667,33472
8668,33280
8669,33280
8670,33344
8671,33472
8672,33664
8673,33856
8674,33920
8675,33984
8676,34112
8677,34176
8678,34176
8679,34048
8680,33920
8681,33920
8682,33984
8683,33920
8684,33984
8685,34304
8686,34496
8687,34304
8688,33792
8689,33600
8690,33536
8691,33600
8692,33600
8693,33600
8694,33664
8695,33920
8696,34112
8697,34240
8698,34176
8699,33920
8700,33728
8701,33600
8702,33664
8703,33664
8704,33728
8705,33792
8706,33920
8707,34176
8708,34240
8709,34240
8710,34112
8711,34112
8712,34112
8713,34112
8714,34048
8715,34112
8716,34112
8717,33984
8718,33920
8719,33920
8720,34048
8721,34048
8722,34112
8723,34240
8724,34432
8725,34560
8726,34496
8727,34304
8728,34240
8729,34304
8730,34496
8731,34560
8732,34560
8733,34496
8734,34496
8735,34496
8736,34496
8737,34304
8738,34112
8739,33984
8740,33856
8741,33664
8742,33472
8743,33344
8744,33344
8745,33408
8746,33472
8747,33600
8748,33728
8749,33792
8750,33792
8751,33664
8752,33536
8753,33536
8754,33536
8755,33664
8756,34048
8757,34624
8758,35648
8759,37184
8760,39360
8761,41344
8762,42368
8763,42112
8764,40448
8765,37952
8766,35136
8767,32448
8768,30464
8769,29440
8770,29248
8771,29760
8772,30592
8773,31360
8774,31936
8775,32320
8776,32512
8777,32704
8778,32832
8779,32960
8780,33024
8781,33152
8782,33216
8783,33344
8784,33472
8785,33664
8786,33664
8787,33472
8788,33408
8789,33472
8790,33664
8791,33728
8792,33600
8793,33664
8794,33728
8795,33984
8796,34048
8797,33920
8798,33920
8799,33984
8800,34048
8801,34112
8802,34176
8803,34304
8804,34432
8805,34368
8806,34176
8807,33984
8808,34048
8809,34176
8810,34368
8811,34432
8812,34368
8813,34304
8814,34304
8815,34368
8816,34432
8817,34496
8818,34560
8819,34624
8820,34624
8821,34624
8822,34688
8823,34752
8824,34880
8825,35072
8826,35072
8827,35072
8828,35008
8829,34816
8830,34560
8831,34496
8832,34496
8833,34624
8834,34752
8835,34816
8836,34880
8837,34816
8838,34624
8839,34368
8840,34112
8841,33920
8842,33664
8843,33472
8844,33472
8845,33472
8846,33408
8847,33408
8848,33408
8849,33344
8850,33280
8851,33216
8852,33088
8853,33024
8854,33024
8855,33088
8856,33152
8857,33344
8858,33408
8859,33408
8860,33472
8861,33600
8862,33664
8863,33600
8864,33536
8865,33600
8866,33600
8867,33664
8868,33728
8869,33984
8870,34048
8871,33856
8872,33600
8873,33536
8874,33600
8875,33728
8876,33664
8877,33664
8878,33792
8879,33856
8880,33856
8881,33792
8882,33728
8883,33728
8884,33728
8885,33856
8886,33984
8887,33984
8888,33920
8889,33856
8890,33920
8891,33856
8892,33792
8893,33728
8894,33792
8895,33984
8896,34048
8897,33920
8898,33856
8899,33856
8900,33856
8901,33856
8902,33920
8903,34048
8904,34112
8905,34112
8906,34048
8907,33920
8908,33792
8909,33792
8910,33856
8911,33792
8912,33664
8913,33664
8914,33664
8915,33792
8916,33920
8917,33984
8918,34048
8919,34176
8920,34304
8921,34240
8922,34240
8923,34368
8924,34624
8925,34752
8926,34752
8927,34752
8928,34816
8929,34752
8930,34624
8931,34560
8932,34368
8933,34112
8934,33728
8935,33408
8936,33152
8937,33088
8938,33088
8939,33088
8940,33152
8941,33216
8942,33280
8943,33408
8944,33600
8945,33664
8946,33600
8947,33600
8948,33728
8949,33792
8950,33856
8951,34176
8952,34816
8953,36032
8954,37888
8955,40064
8956,41600
8957,41920
8958,40640
8959,38464
8960,35712
8961,33088
8962,31040
8963,29760
8964,29184
8965,29376
8966,29952
8967,30784
8968,31424
8969,32064
8970,32512
8971,32768
8972,33024
8973,33216
8974,33344
8975,33408
8976,33472
8977,33600
8978,33728
8979,33856
8980,33792
8981,33600
8982,33536
8983,33536
8984,33536
8985,33600
8986,33792
8987,33920
8988,33920
8989,33920
8990,33984
8991,34176
8992,34240
8993,34240
8994,34176
8995,34048
8996,33920
8997,33856
8998,33920
8999,33984
9000,34112
9001,34240
9002,34368
9003,34432
9004,34368
9005,34432
9006,34432
9007,34432
9008,34432
9009,34496
9010,34624
9011,34752
9012,34752
9013,34688
9014,34688
9015,34688
9016,34816
9017,34752
9018,34688
9019,34688
9020,34752
9021,34688
9022,34624
9023,34688
9024,34752
9025,34752
9026,34752
9027,34688
9028,34688
9029,34624
9030,34560
9031,34496
9032,34496
9033,34432
9034,34304
9035,34176
9036,34048
9037,33984
9038,33856
9039,33664
9040,33600
9041,33664
9042,33792
9043,33728
9044,33472
9045,33216
9046,32960
9047,32896
9048,32960
9049,32960
9050,32896
9051,32896
9052,32960
9053,33152
9054,33344
9055,33344
9056,33408
9057,33536
9058,33728
9059,33792
9060,33792
9061,33792
9062,33920
9063,33984
9064,33984
9065,34048
9066,34176
9067,34176
9068,34048
9069,33984
9070,34048
9071,34112
9072,34176
9073,34176
9074,33984
9075,33728
9076,33600
9077,33536
9078,33600
9079,33728
9080,33664
9081,33664
9082,33728
9083,33728
9084,33728
9085,33728
9086,33728
9087,33728
9088,33728
9089,33792
9090,33920
9091,33920
9092,33920
9093,33920
9094,34048
9095,34112
9096,34112
9097,34048
9098,34112
9099,34240
9100,34432
9101,34496
9102,34688
9103,34816
9104,34880
9105,34944
9106,34944
9107,35072
9108,35072
9109,34816
9110,34560
9111,34304
9112,34048
9113,33856
9114,33728
9115,33536
9116,33344
9117,33152
9118,32960
9119,32960
9120,33024
9121,33088
9122,33152
9123,33344
9124,33472
9125,33536
9126,33472
9127,33472
9128,33728
9129,33728
9130,33536
9131,33728
9132,34560
9133,35968
9134,37952
9135,39936
9136,40896
9137,40512
9138,38976
9139,36864
9140,34688
9141,32832
9142,31424
9143,30400
9144,29888
9145,29952
9146,30464
9147,31104
9148,31808
9149,32448
9150,32896
9151,33088
9152,33280
9153,33600
9154,33664
9155,33600
9156,33408
9157,33280
9158,33344
9159,33472
9160,33664
9161,33792
9162,33792
9163,33792
9164,33792
9165,33792
9166,33792
9167,33920
9168,34112
9169,34176
9170,34240
9171,34176
9172,34112
9173,34112
9174,34240
9175,34304
9176,34240
9177,34240
9178,34240
9179,34240
9180,34176
9181,34112
9182,34176
9183,34240
9184,34304
9185,34368
9186,34432
9187,34496
9188,34496
9189,34560
9190,34624
9191,34688
9192,34752
9193,34752
9194,34688
9195,34752
9196,34752
9197,34752
9198,34688
9199,34752
9200,34752
9201,34688
9202,34688
9203,34752
9204,34880
9205,35008
9206,34944
9207,35008
9208,34944
9209,34752
9210,34496
9211,34368
9212,34304
9213,34240
9214,34112
9215,34112
9216,34112
9217,33920
9218,33728
9219,33600
9220,33408
9221,33344
9222,33280
9223,33344
9224,33280
9225,33216
9226,33216
9227,33280
9228,33280
9229,33472
9230,33536
9231,33600
9232,33664
9233,33600
9234,33472
9235,33472
9236,33536
9237,33600
9238,33664
9239,33856
9240,33984
9241,33984
9242,33920
9243,33856
9244,33856
9245,33792
9246,33792
9247,33920
9248,34048
9249,34176
9250,34048
9251,33920
9252,33920
9253,33984
9254,33984
9255,33984
9256,34048
9257,34048
9258,34048
9259,33984
9260,34048
9261,34112
9262,34048
9263,33920
9264,33728
9265,33600
9266,33536
9267,33536
9268,33664
9269,33856
9270,34048
9271,34048
9272,33920
9273,33856
9274,33856
9275,33856
9276,33856
9277,33984
9278,34112
9279,34112
9280,34176
9281,34304
9282,34560
9283,34624
9284,34496
9285,34368
9286,34432
9287,34560
9288,34688
9289,34944
9290,35072
9291,35072
9292,34944
9293,34752
9294,34496
9295,34176
9296,33792
9297,33536
9298,33344
9299,33216
9300,33152
9301,33088
9302,33088
9303,33152
9304,33216
9305,33216
9306,33280
9307,33408
9308,33408
9309,33408
9310,33344
9311,33472
9312,33664
9313,33856
9314,34240
9315,34880
9316,36032
9317,37824
9318,39936
9319,41408
9320,41600
9321,40384
9322,38272
9323,35776
9324,33088
9325,31104
9326,29760
9327,29312
9328,29632
9329,30336
9330,31040
9331,31616
9332,32128
9333,32448
9334,32640
9335,32768
9336,32960
9337,33152
9338,33216
9339,33280
9340,33216
9341,33408
9342,33472
9343,33664
9344,33920
9345,34048
9346,34112
9347,34176
9348,34048
9349,33856
9350,33664
9351,33600
9352,33728
9353,33920
9354,34112
9355,34112
9356,34176
9357,34176
9358,34112
9359,34112
9360,34240
9361,34240
9362,34176
9363,34240
9364,34368
9365,34496
9366,34496
9367,34368
9368,34368
9369,34560
9370,34560
9371,34560
9372,34496
9373,34496
9374,34496
9375,34432
9376,34368
9377,34560
9378,34752
9379,34880
9380,34880
9381,34816
9382,34752
9383,34752
9384,34880
9385,34944
9386,35008
9387,34944
9388,34880
9389,34944
9390,35008
9391,35008
9392,34880
9393,34816
9394,34816
9395,34688
9396,34496
9397,34368
9398,34304
9399,34240
9400,34112
9401,33792
9402,33600
9403,33472
9404,33280
9405,33152
9406,33024
9407,33088
9408,33088
9409,33152
9410,33216
9411,33280
9412,33408
9413,33472
9414,33536
9415,33600
9416,33536
9417,33472
9418,33408
9419,33472
9420,33600
9421,33664
9422,33856
9423,33984
9424,33984
9425,33792
9426,33600
9427,33600
9428,33664
9429,33728
9430,33728
9431,33792
9432,33856
9433,33856
9434,33792
9435,33856
9436,34112
9437,34304
9438,34176
9439,33984
9440,33856
9441,33664
9442,33600
9443,33664
9444,33792
9445,33792
9446,33728
9447,33664
9448,33728
9449,33728
9450,33728
9451,33728
9452,33792
9453,33856
9454,33856
9455,33856
9456,33856
9457,33856
9458,33856
9459,33856
9460,33984
9461,34176
9462,34368
9463,34432
9464,34240
9465,34048
9466,33920
9467,33856
9468,33856
9469,33856
9470,33856
9471,33856
9472,33856
9473,33984
9474,33984
9475,33920
9476,33920
9477,33984
9478,34048
9479,34176
9480,34304
9481,34368
9482,34432
9483,34624
9484,34752
9485,34880
9486,34944
9487,34944
9488,34944
9489,34880
9490,34624
9491,34368
9492,34240
9493,34048
9494,33856
9495,33664
9496,33408
9497,33280
9498,33280
9499,33280
9500,33344
9501,33408
9502,33536
9503,33728
9504,33856
9505,33856
9506,33792
9507,33664
9508,33536
9509,33472
9510,33792
9511,34432
9512,35200
9513,36416
9514,38208
9515,40320
9516,41792
9517,42112
9518,41280
9519,39232
9520,36544
9521,33664
9522,31360
9523,29952
9524,29440
9525,29568
9526,30208
9527,30912
9528,31488
9529,32000
9530,32384
9531,32704
9532,33024
9533,33280
9534,33408
9535,33408
9536,33344
9537,33216
9538,33024
9539,32960
9540,33024
9541,33280
9542,33408
9543,33408
9544,33408
9545,33472
9546,33600
9547,33728
9548,33856
9549,33984
9550,33984
9551,34048
9552,34240
9553,34368
9554,34432
9555,34368
9556,34304
9557,34240
9558,34240
9559,34304
9560,34368
9561,34496
9562,34368
9563,34176
9564,34112
9565,34176
9566,34304
9567,34368
9568,34496
9569,34496
9570,34560
9571,34624
9572,34688
9573,34752
9574,34752
9575,34688
9576,34624
9577,34688
9578,34816
9579,34880
9580,34944
9581,35008
9582,35072
9583,35008
9584,34816
9585,34624
9586,34496
9587,34560
9588,34624
9589,34624
9590,34496
9591,34432
9592,34368
9593,34368
9594,34368
9595,34432
9596,34368
9597,34240
9598,34112
9599,33856
9600,33664
9601,33472
9602,33472
9603,33472
9604,33408
9605,33344
9606,33472
9607,33408
9608,33216
9609,33152
9610,33216
9611,33216
9612,33152
9613,33024
9614,33088
9615,33216
9616,33408
9617,33600
9618,33600
9619,33664
9620,33664
9621,33664
9622,33792
9623,33920
9624,33920
9625,33792
9626,33728
9627,33728
9628,33856
9629,33984
9630,33984
9631,33984
9632,34048
9633,33984
9634,33984
9635,34048
9636,34048
9637,33920
9638,33728
9639,33728
9640,33856
9641,33984
9642,33920
9643,33856
9644,33856
9645,33792
9646,33664
9647,33600
9648,33600
9649,33600
9650,33664
9651,33600
9652,33664
9653,33728
9654,33792
9655,33856
9656,33984
9657,34048
9658,34048
9659,33856
9660,33792
9661,33856
9662,33920
9663,33920
9664,33856
9665,33792
9666,33792
9667,33856
9668,33856
9669,33984
9670,34176
9671,34304
9672,34368
9673,34432
9674,34496
9675,34304
9676,34240
9677,34368
9678,34560
9679,34624
9680,34496
9681,34304
9682,34176
9683,34112
9684,34112
9685,34048
9686,33984
9687,33856
9688,33728
9689,33600
9690,33664
9691,33536
9692,33280
9693,33088
9694,33216
9695,33344
9696,33344
9697,33280
9698,33216
9699,33280
9700,33408
9701,33472
9702,33600
9703,33792
9704,34176
9705,34944
9706,36160
9707,37952
9708,40128
9709,41408
9710,41536
9711,40320
9712,38144
9713,35520
9714,32896
9715,30912
9716,29760
9717,29376
9718,29568
9719,30272
9720,31040
9721,31616
9722,32064
9723,32576
9724,33024
9725,33152
9726,33152
9727,33088
9728,33152
9729,33216
9730,33216
9731,33280
9732,33408
9733,33600
9734,33664
9735,33792
9736,33920
9737,33920
9738,33856
9739,33792
9740,33728
9741,33792
9742,33664
9743,33664
9744,33792
9745,34048
9746,34176
9747,34176
9748,34112
9749,34048
9750,34112
9751,34176
9752,34240
9753,34304
9754,34368
9755,34368
9756,34496
9757,34624
9758,34560
9759,34240
9760,34048
9761,33984
9762,34048
9763,34112
9764,34176
9765,34304
9766,34432
9767,34624
9768,34752
9769,34816
9770,34944
9771,35008
9772,34816
9773,34624
9774,34624
9775,34688
9776,34816
9777,34944
9778,34880
9779,34752
9780,34688
9781,34752
9782,34688
9783,34560
9784,34368
9785,34176
9786,34112
9787,34112
9788,34048
9789,34048
9790,33984
9791,33920
9792,33728
9793,33472
9794,33408
9795,33344
9796,33152
9797,32960
9798,32832
9799,32896
9800,33024
9801,33152
9802,33344
9803,33536
9804,33472
9805,33344
9806,33280
9807,33408
9808,33600
9809,33728
9810,33728
9811,33728
9812,33728
9813,33728
9814,33792
9815,33856
9816,33920
9817,33984
9818,33856
9819,33728
9820,33792
9821,33856
9822,33984
9823,34048
9824,34048
9825,33856
9826,33728
9827,33664
9828,33664
9829,33728
9830,33792
9831,33856
9832,33984
9833,33984
9834,33856
9835,33728
9836,33792
9837,33856
9838,33792
9839,33856
9840,33984
9841,34048
9842,34048
9843,33984
9844,34112
9845,34240
9846,34176
9847,34112
9848,34304
9849,34624
9850,34688
9851,34624
9852,34624
9853,34624
9854,34624
9855,34624
9856,34624
9857,34560
9858,34368
9859,34176
9860,33984
9861,33728
9862,33408
9863,33152
9864,33024
9865,33152
9866,33408
9867,33728
9868,33728
9869,33472
9870,33088
9871,32960
9872,33024
9873,33216
9874,33280
9875,33280
9876,33344
9877,33664
9878,34112
9879,35072
9880,36544
9881,38592
9882,40320
9883,40960
9884,40128
9885,38208
9886,36032
9887,33856
9888,32128
9889,30976
9890,30208
9891,29824
9892,29952
9893,30528
9894,31488
9895,32064
9896,32640
9897,33024
9898,33216
9899,33344
9900,33472
9901,33600
9902,33664
9903,33728
9904,33792
9905,33792
9906,33792
9907,33856
9908,33856
9909,33728
9910,33600
9911,33536
9912,33600
9913,33664
9914,33792
9915,33920
9916,33984
9917,34048
9918,33984
9919,34048
9920,34176
9921,34368
9922,34560
9923,34560
9924,34368
9925,34176
9926,34176
9927,34304
9928,34496
9929,34688
9930,34752
9931,34624
9932,34496
9933,34304
9934,34240
9935,34240
9936,34304
9937,34432
9938,34560
9939,34752
9940,34880
9941,34944
9942,34880
9943,34752
9944,34688
9945,34688
9946,34624
9947,34624
9948,34560
9949,34688
9950,34816
9951,34944
9952,34944
9953,34880
9954,34624
9955,34496
9956,34432
9957,34560
9958,34624
9959,34496
9960,34368
9961,34368
9962,34368
9963,34048
9964,33664
9965,33408
9966,33344
9967,33344
9968,33344
9969,33280
9970,33152
9971,33088
9972,32960
9973,33088
9974,33344
9975,33472
9976,33344
9977,33216
9978,33280
9979,33472
9980,33536
9981,33536
9982,33536
9983,33600
9984,33728
9985,33728
9986,33792
9987,33856
9988,33920
9989,33984
9990,34112
9991,34176
9992,34112
9993,33984
9994,33984
9995,34048
9996,34112
9997,34176
9998,34176
9999,34176
10000,34048
10001,33856
10002,33728
10003,33664
10004,33536
10005,33472
10006,33600
10007,33856
10008,34048
10009,33984
10010,33856
10011,33792
10012,33728
10013,33664
10014,33664
10015,33792
10016,33984
10017,34112
10018,34112
10019,34176
10020,34240
10021,34432
10022,34688
10023,34816
10024,34944
10025,35008
10026,34880
10027,34752
10028,34624
10029,34560
10030,34432
10031,34368
10032,34432
10033,34432
10034,34240
10035,33920
10036,33536
10037,33216
10038,33088
10039,33088
10040,33280
10041,33344
10042,33408
10043,33408
10044,33472
10045,33408
10046,33408
10047,33344
10048,33344
10049,33408
10050,33408
10051,33344
10052,33536
10053,34112
10054,35072
10055,36352
10056,38144
10057,40128
10058,41216
10059,40768
10060,39296
10061,37120
10062,34752
10063,32640
10064,30976
10065,30016
10066,29696
10067,29952
10068,30656
10069,31360
10070,32064
10071,32512
10072,32704
10073,32832
10074,33024
10075,33152
10076,33344
10077,33536
10078,33728
10079,33728
10080,33664
10081,33536
10082,33536
10083,33664
10084,33792
10085,33856
10086,33856
10087,33856
10088,33728
10089,33792
10090,33920
10091,33984
10092,34048
10093,34176
10094,34304
10095,34304
10096,34176
10097,34112
10098,34304
10099,34560
10100,34496
10101,34240
10102,34112
10103,34048
10104,34176
10105,34240
10106,34368
10107,34432
10108,34496
10109,34496
10110,34432
10111,34560
10112,34688
10113,34880
10114,35008
10115,34944
10116,34752
10117,34560
10118,34496
10119,34624
10120,34688
10121,34752
10122,34944
10123,34880
10124,34752
10125,34688
10126,34560
10127,34432
10128,34496
10129,34688
10130,34688
10131,34560
10132,34432
10133,34368
10134,34368
10135,34368
10136,34432
10137,34240
10138,33920
10139,33728
10140,33664
10141,33600
10142,33600
10143,33472
10144,33344
10145,33280
10146,33216
10147,33152
10148,32960
10149,32960
10150,32960
10151,33088
10152,33152
10153,33280
10154,33408
10155,33408
10156,33408
10157,33536
10158,33728
10159,33920
10160,34048
10161,33920
10162,33792
10163,33728
10164,33728
10165,33728
10166,33792
10167,33856
10168,33984
10169,34112
10170,34112
10171,33920
10172,33664
10173,33600
10174,33664
10175,33728
10176,33728
10177,33792
10178,33920
10179,33984
10180,33984
10181,34112
10182,34112
10183,33984
10184,33856
10185,33792
10186,33728
10187,33792
10188,33856
10189,33856
10190,33792
10191,33792
10192,33792
10193,33792
10194,33856
10195,34048
10196,34240
10197,34368
10198,34368
10199,34496
10200,34624
10201,34752
10202,35008
10203,35200
10204,35328
10205,35136
10206,34752
10207,34496
10208,34432
10209,34176
10210,34048
10211,33920
10212,33856
10213,33664
10214,33344
10215,33152
10216,33152
10217,33152
10218,33088
10219,33152
10220,33152
10221,33216
10222,33280
10223,33472
10224,33792
10225,33920
10226,33856
10227,33792
10228,33920
10229,34176
10230,34944
10231,36288
10232,38080
10233,40064
10234,41216
10235,41280
10236,40192
10237,38144
10238,35584
10239,33024
10240,31040
10241,29888
10242,29440
10243,29632
10244,30400
10245,31232
10246,31936
10247,32384
10248,32576
10249,32768
10250,32896
10251,33024
10252,33152
10253,33408
10254,33664
10255,33664
10256,33664
10257,33664
10258,33728
10259,33728
10260,33728
10261,33600
10262,33600
10263,33664
10264,33728
10265,33792
10266,33856
10267,33984
10268,34112
10269,34240
10270,34304
10271,34368
10272,34304
10273,34176
10274,34112
10275,34176
10276,34176
10277,34304
10278,34432
10279,34432
10280,34240
10281,34112
10282,34176
10283,34304
10284,34496
10285,34496
10286,34560
10287,34560
10288,34496
10289,34560
10290,34688
10291,34688
10292,34624
10293,34624
10294,34688
10295,34816
10296,34880
10297,34816
10298,34752
10299,34688
10300,34624
10301,34688
10302,34688
10303,34624
10304,34688
10305,34816
10306,34752
10307,34752
10308,34688
10309,34560
10310,34368
10311,34304
10312,34240
10313,34112
10314,33984
10315,33856
10316,33728
10317,33600
10318,33408
10319,33408
10320,33472
10321,33472
10322,33344
10323,33280
10324,33216
10325,33216
10326,33216
10327,33280
10328,33280
10329,33344
10330,33408
10331,33472
10332,33600
10333,33600
10334,33536
10335,33536
10336,33664
10337,33856
10338,33984
10339,33920
10340,33856
10341,33856
10342,33792
10343,33728
10344,33728
10345,33856
10346,34048
10347,34112
10348,34112
10349,34112
10350,34048
10351,33984
10352,33920
10353,33984
10354,33920
10355,33856
10356,33728
10357,33728
10358,33856
10359,33984
10360,33856
10361,33856
10362,34112
10363,34304
10364,34176
10365,33984
10366,33856
10367,33856
10368,33856
10369,33856
10370,33984
10371,34048
10372,33984
10373,33920
10374,33920
10375,33984
10376,34048
10377,34048
10378,34176
10379,34240
10380,34368
10381,34560
10382,34688
10383,34816
10384,34944
10385,35072
10386,35136
10387,35072
10388,34816
10389,34560
10390,34432
10391,34432
10392,34432
10393,34368
10394,34240
10395,34048
10396,33856
10397,33664
10398,33408
10399,33280
10400,33152
10401,32960
10402,32896
10403,33024
10404,33344
10405,33728
10406,33856
10407,33792
10408,33536
10409,33344
10410,33152
10411,33280
10412,33536
10413,33920
10414,34560
10415,35712
10416,37504
10417,39808
10418,41600
10419,42176
10420,41600
10421,39744
10422,37120
10423,34368
10424,31936
10425,30272
10426,29440
10427,29504
10428,30208
10429,30976
10430,31616
10431,32192
10432,32576
10433,32768
10434,32896
10435,33024
10436,33024
10437,33088
10438,33024
10439,33024
10440,33024
10441,33152
10442,33344
10443,33536
10444,33792
10445,33856
10446,33792
10447,33792
10448,33792
10449,33856
10450,33920
10451,33920
10452,34048
10453,34176
10454,34176
10455,34048
10456,33920
10457,33920
10458,34048
10459,34176
10460,34304
10461,34432
10462,34304
10463,34176
10464,34240
10465,34304
10466,34432
10467,34432
10468,34432
10469,34560
10470,34624
10471,34624
10472,34560
10473,34624
10474,34688
10475,34688
10476,34624
10477,34560
10478,34688
10479,34944
10480,34944
10481,34816
10482,34752
10483,34688
10484,34624
10485,34624
10486,34688
10487,34752
10488,34880
10489,34880
10490,34752
10491,34688
10492,34752
10493,34752
10494,34624
10495,34496
10496,34304
10497,34048
10498,33856
10499,33792
10500,33792
10501,33728
10502,33536
10503,33536
10504,33664
10505,33600
10506,33344
10507,33152
10508,33152
10509,33152
10510,33152
10511,33216
10512,33344
10513,33408
10514,33344
10515,33408
10516,33536
10517,33600
10518,33664
10519,33728
10520,33856
10521,33856
10522,33728
10523,33600
10524,33600
10525,33600
10526,33664
10527,33792
10528,33984
10529,34112
10530,34112
10531,34048
10532,33984
10533,33920
10534,33728
10535,33664
10536,33792
10537,34048
10538,34112
10539,34048
10540,34048
10541,34112
10542,34048
10543,33920
10544,33792
10545,33728
10546,33664
10547,33664
10548,33664
10549,33728
10550,33856
10551,34048
10552,34240
10553,34304
10554,34112
10555,33856
10556,33728
10557,33728
10558,33856
10559,33984
10560,33984
10561,33984
10562,34112
10563,34176
10564,34048
10565,33984
10566,34048
10567,34112
10568,34048
10569,33984
10570,34048
10571,34176
10572,34240
10573,34240
10574,34368
10575,34496
10576,34560
10577,34688
10578,34688
10579,34688
10580,34688
10581,34624
10582,34624
10583,34688
10584,34624
10585,34624
10586,34688
10587,34752
10588,34560
10589,34176
10590,33792
10591,33536
10592,33408
10593,33344
10594,33216
10595,33216
10596,33280
10597,33280
10598,33216
10599,33280
10600,33408
10601,33536
10602,33536
10603,33536
10604,33600
10605,33664
10606,33920
10607,34432
10608,35200
10609,36352
10610,38144
10611,40384
10612,41920
10613,42176
10614,40896
10615,38592
10616,35840
10617,33152
10618,30976
10619,29696
10620,29312
10621,29632
10622,30272
10623,30912
10624,31552
10625,32128
10626,32576
10627,32768
10628,32832
10629,32960
10630,33024
10631,33152
10632,33152
10633,33216
10634,33216
10635,33344
10636,33472
10637,33664
10638,33792
10639,33728
10640,33728
10641,33664
10642,33728
10643,33792
10644,33984
10645,34176
10646,34176
10647,34176
10648,34112
10649,34048
10650,33920
10651,33728
10652,33728
10653,33856
10654,34048
10655,34112
10656,34112
10657,34112
10658,34176
10659,34176
10660,34176
10661,34176
10662,34304
10663,34432
10664,34560
10665,34560
10666,34560
10667,34560
10668,34624
10669,34624
10670,34624
10671,34688
10672,34688
10673,34688
10674,34816
10675,34944
10676,34816
10677,34560
10678,34432
10679,34496
10680,34496
10681,34560
10682,34560
10683,34560
10684,34560
10685,34496
10686,34432
10687,34368
10688,34368
10689,34304
10690,34304
10691,34304
10692,34176
10693,34048
10694,33856
10695,33728
10696,33664
10697,33664
10698,33536
10699,33280
10700,33216
10701,33280
10702,33344
10703,33344
10704,33216
10705,33152
10706,33152
10707,33152
10708,33216
10709,33280
10710,33280
10711,33344
10712,33472
10713,33664
10714,33856
10715,33920
10716,33984
10717,33920
10718,33856
10719,33920
10720,33984
10721,33920
10722,33792
10723,33728
10724,33728
10725,33728
10726,33664
10727,33728
10728,33792
10729,33920
10730,33984
10731,33984
10732,34048
10733,34048
10734,34048
10735,33920
10736,33856
10737,33792
10738,33856
10739,33920
10740,33920
10741,33984
10742,33984
10743,33920
10744,33920
10745,33920
10746,33920
10747,33728
10748,33600
10749,33600
10750,33664
10751,33728
10752,33728
10753,33728
10754,33920
10755,34112
10756,34112
10757,33984
10758,33920
10759,33984
10760,34176
10761,34368
10762,34624
10763,34752
10764,34880
10765,34944
10766,34944
10767,34880
10768,34752
10769,34688
10770,34688
10771,34560
10772,34240
10773,33856
10774,33600
10775,33472
10776,33344
10777,33344
10778,33344
10779,33280
10780,33280
10781,33280
10782,33216
10783,33280
10784,33344
10785,33344
10786,33408
10787,33536
10788,33728
10789,33728
10790,33728
10791,33920
10792,34368
10793,35200
10794,36608
10795,38592
10796,40384
10797,41024
10798,40192
10799,38272
10800,36096
10801,33920
10802,32128
10803,30784
10804,30080
10805,29824
10806,30144
10807,30720
10808,31424
10809,32064
10810,32576
10811,32960
10812,33280
10813,33536
10814,33600
10815,33600
10816,33536
10817,33472
10818,33344
10819,33280
10820,33408
10821,33664
10822,33920
10823,34112
10824,34112
10825,33984
10826,33856
10827,33728
10828,33728
10829,33792
10830,33920
10831,33920
10832,33856
10833,34048
10834,34176
10835,34240
10836,34240
10837,34240
10838,34240
10839,34112
10840,34048
10841,33984
10842,34176
10843,34368
10844,34560
10845,34688
10846,34496
10847,34304
10848,34240
10849,34240
10850,34432
10851,34624
10852,34752
10853,34752
10854,34816
10855,34944
10856,34944
10857,34880
10858,34688
10859,34496
10860,34432
10861,34432
10862,34560
10863,34624
10864,34688
10865,34816
10866,34944
10867,34880
10868,34816
10869,34688
10870,34560
10871,34368
10872,34176
10873,34112
10874,34048
10875,34048
10876,33984
10877,33984
10878,33984
10879,34112
10880,34176
10881,33920
10882,33600
10883,33344
10884,33216
10885,33088
10886,33024
10887,33152
10888,33344
10889,33408
10890,33408
10891,33472
10892,33472
10893,33536
10894,33600
10895,33600
10896,33536
10897,33536
10898,33600
10899,33664
10900,33792
10901,33984
10902,34048
10903,34048
10904,34048
10905,34112
10906,34048
10907,33984
10908,33984
10909,33984
10910,33920
10911,33920
10912,33984
10913,34048
10914,34112
10915,33984
10916,33984
10917,33984
10918,33856
10919,33728
10920,33728
10921,33728
10922,33792
10923,33856
10924,33920
