,ECG
0,33856
1,33856
2,33920
3,33984
4,34048
5,34112
6,34176
7,34240
8,34304
9,34368
10,34368
11,34432
12,34432
13,34432
14,34368
15,34368
16,34368
17,34496
18,34624
19,34688
20,34752
21,34816
22,34880
23,34816
24,34752
25,34752
26,34752
27,34752
28,34688
29,34688
30,34816
31,34880
32,34880
33,34880
34,34752
35,34560
36,34304
37,33984
38,33664
39,33344
40,33088
41,32896
42,32768
43,32704
44,32640
45,32704
46,32768
47,32832
48,32832
49,32896
50,32960
51,32960
52,32832
53,32704
54,32832
55,33408
56,34496
57,36224
58,38592
59,41216
60,43328
61,43904
62,42496
63,39872
64,36800
65,33920
66,31808
67,30592
68,29952
69,29824
70,29888
71,30208
72,30592
73,30976
74,31360
75,31680
76,32000
77,32128
78,32320
79,32512
80,32640
81,32704
82,32704
83,32640
84,32576
85,32576
86,32704
87,32832
88,32896
89,32832
90,32704
91,32704
92,32768
93,33024
94,33280
95,33408
96,33408
97,33472
98,33536
99,33472
100,33216
101,32896
102,32576
103,32384
104,32448
105,32576
106,32704
107,32832
108,32896
109,32832
110,32768
111,32640
112,32640
113,32640
114,32704
115,32832
116,32896
117,32896
118,32832
119,32704
120,32704
121,32768
122,32896
123,32896
124,32960
125,32896
126,32832
127,32768
128,32768
129,32832
130,32832
131,32832
132,32832
133,32832
134,32832
135,32896
136,32896
137,33024
138,33088
139,33088
140,33152
141,33280
142,33408
143,33472
144,33536
145,33536
146,33472
147,33408
148,33344
149,33152
150,33088
151,33088
152,33280
153,33472
154,33600
155,33728
156,33728
157,33792
158,33856
159,33984
160,34048
161,34048
162,34176
163,34176
164,34048
165,33920
166,33792
167,33600
168,33408
169,33152
170,32896
171,32768
172,32576
173,32384
174,32256
175,32128
176,32128
177,32256
178,32384
179,32512
180,32640
181,32640
182,32704
183,32832
184,32832
185,32832
186,33088
187,33664
188,34688
189,36288
190,38720
191,41664
192,44288
193,45504
194,44416
195,41664
196,38272
197,34752
198,32448
199,30848
200,30080
201,29760
202,29696
203,29952
204,30336
205,30848
206,31296
207,31616
208,31872
209,32064
210,32192
211,32320
212,32576
213,32768
214,32768
215,32768
216,32704
217,32640
218,32512
219,32512
220,32512
221,32576
222,32640
223,32704
224,32704
225,32704
226,32768
227,32704
228,32640
229,32640
230,32640
231,32576
232,32640
233,32640
234,32704
235,32704
236,32704
237,32640
238,32640
239,32576
240,32512
241,32448
242,32384
243,32384
244,32384
245,32384
246,32384
247,32448
248,32512
249,32640
250,32704
251,32960
252,32960
253,33024
254,32960
255,32960
256,32960
257,32896
258,33152
259,33280
260,33408
261,33472
262,33536
263,33472
264,33472
265,33472
266,33536
267,33472
268,33408
269,33344
270,33408
271,33536
272,33536
273,33728
274,33792
275,33792
276,33792
277,33728
278,33664
279,33728
280,33792
281,33728
282,33600
283,33600
284,33664
285,33792
286,33984
287,34048
288,34176
289,34368
290,34432
291,34496
292,34432
293,34432
294,34432
295,34432
296,34432
297,34304
298,34176
299,34048
300,33920
301,33728
302,33472
303,33152
304,32896
305,32704
306,32576
307,32448
308,32320
309,32256
310,32192
311,32128
312,32064
313,32064
314,31936
315,31872
316,31872
317,31744
318,31488
319,31296
320,31488
321,32256
322,33408
323,35200
324,37632
325,40256
326,42368
327,42944
328,42816
329,41408
330,35648
331,32512
332,30208
333,28864
334,28288
335,28288
336,28544
337,28864
338,29248
339,29568
340,29888
341,30272
342,30784
343,31168
344,31488
345,31744
346,31936
347,32000
348,32000
349,32128
350,32256
351,32384
352,32384
353,32384
354,32384
355,32448
356,32448
357,32576
358,32768
359,32896
360,33024
361,33024
362,32960
363,32832
364,32832
365,32896
366,32832
367,32640
368,32320
369,32064
370,31808
371,31488
372,31104
373,30656
374,30400
375,30208
376,30208
377,30336
378,30528
379,30592
380,30592
381,30592
382,30464
383,30400
384,30528
385,30912
386,31552
387,32256
388,33088
389,33920
390,34624
391,35328
392,35840
393,36352
394,36672
395,36992
396,37312
397,37504
398,37696
399,37952
400,38336
401,38720
402,38976
403,38976
404,38592
405,37760
406,36480
407,35392
408,34624
409,34368
410,34496
411,35136
412,36032
413,36736
414,37312
415,37696
416,37952
417,37888
418,37632
419,37376
420,37248
421,37184
422,37120
423,37184
424,37248
425,37440
426,37632
427,37760
428,37760
429,37696
430,37568
431,37376
432,37120
433,36928
434,36800
435,36544
436,36160
437,35776
438,35392
439,35136
440,34944
441,34560
442,34112
443,33600
444,33280
445,33280
446,33536
447,33856
448,34240
449,34560
450,34816
451,34816
452,34560
453,34368
454,34176
455,34368
456,34880
457,35520
458,36864
459,38912
460,41280
461,43328
462,43328
463,40960
464,37440
465,33984
466,31744
467,31040
468,31040
469,31232
470,31744
471,32512
472,33088
473,33728
474,34368
475,35200
476,36096
477,36608
478,36800
479,36480
480,35776
481,35072
482,34496
483,33728
484,32896
485,32448
486,32128
487,31936
488,32192
489,32448
490,32640
491,33088
492,33792
493,34560
494,35072
495,35008
496,34816
497,34752
498,34752
499,34368
500,33856
501,33344
502,32832
503,32896
504,33024
505,32640
506,32192
507,32128
508,32128
509,31872
510,31552
511,31616
512,32000
513,32576
514,32832
515,32832
516,33152
517,33472
518,33216
519,32896
520,32704
521,32704
522,33088
523,33920
524,34880
525,35776
526,35968
527,35456
528,34944
529,34752
530,34624
531,34368
532,33856
533,33152
534,32704
535,32448
536,32320
537,33216
538,34176
539,33856
540,32704
541,32064
542,32192
543,32448
544,32576
545,32960
546,33216
547,33088
548,33024
549,33280
550,33664
551,33856
552,33600
553,33792
554,34368
555,33920
556,32832
557,32384
558,32704
559,33152
560,33728
561,34176
562,34304
563,34304
564,34752
565,35328
566,35264
567,34880
568,34816
569,35008
570,35008
571,34496
572,33984
573,33728
574,33920
575,33920
576,33664
577,33408
578,33216
579,33408
580,33728
581,33728
582,33600
583,33984
584,34432
585,34880
586,34752
587,33472
588,32512
589,31936
590,31552
591,31680
592,32384
593,33280
594,34624
595,36992
596,40064
597,43200
598,45056
599,44288
600,41536
601,38080
602,34944
603,32384
604,30464
605,29376
606,28800
607,28800
608,28800
609,29120
610,29440
611,29888
612,30592
613,30976
614,31168
615,31808
616,32448
617,32640
618,32512
619,32576
620,32576
621,32576
622,32640
623,32640
624,32832
625,33280
626,33600
627,33216
628,32640
629,32256
630,31936
631,31744
632,31808
633,32192
634,32768
635,33216
636,33280
637,33088
638,32832
639,32384
640,32128
641,32192
642,32384
643,32320
644,32128
645,32192
646,32768
647,32960
648,32384
649,32000
650,32192
651,32576
652,32896
653,33088
654,33280
655,33344
656,33408
657,33600
658,33280
659,32768
660,32704
661,32512
662,32064
663,32000
664,32256
665,32576
666,32960
667,33152
668,33344
669,33280
670,32832
671,32640
672,32448
673,32448
674,33088
675,33152
676,33088
677,33536
678,33600
679,33344
680,33152
681,33344
682,33536
683,33280
684,32832
685,32640
686,32704
687,32832
688,33024
689,33216
690,33024
691,32768
692,33216
693,33792
694,33792
695,33600
696,33664
697,34112
698,34240
699,34176
700,33792
701,33728
702,33856
703,34176
704,34112
705,33408
706,33024
707,33024
708,33152
709,33280
710,33344
711,33280
712,32768
713,32192
714,32000
715,32320
716,32832
717,32896
718,32768
719,33408
720,33728
721,33024
722,32128
723,31488
724,31360
725,31936
726,32960
727,32896
728,32128
729,32064
730,33152
731,34944
732,36544
733,38528
734,41088
735,43648
736,44928
737,44224
738,42048
739,38848
740,35584
741,33152
742,31104
743,29632
744,29056
745,29248
746,29632
747,30144
748,30336
749,30528
750,31040
751,31552
752,31936
753,32256
754,32512
755,32704
756,32896
757,33280
758,33664
759,33984
760,33856
761,33536
762,33088
763,32512
764,31936
765,31744
766,32000
767,32448
768,32960
769,33344
770,33600
771,33664
772,33472
773,33280
774,33344
775,33792
776,34432
777,34560
778,34240
779,34240
780,34432
781,33920
782,33728
783,33728
784,33344
785,32896
786,32704
787,32768
788,32960
789,33152
790,33088
791,33280
792,33856
793,34176
794,34048
795,34048
796,34240
797,34176
798,34368
799,34496
800,34304
801,33984
802,34240
803,34560
804,34560
805,34304
806,33728
807,33344
808,33216
809,33472
810,33856
811,33856
812,33856
813,34048
814,34176
815,34176
816,33920
817,33920
818,34176
819,34560
820,34624
821,34368
822,34048
823,33856
824,34432
825,34816
826,34368
827,33920
828,33856
829,33920
830,34176
831,34624
832,35136
833,35648
834,35776
835,35648
836,35584
837,35520
838,35520
839,35392
840,35200
841,35200
842,35456
843,35712
844,35776
845,35712
846,35648
847,35456
848,35136
849,34752
850,34560
851,34304
852,34112
853,33920
854,33856
855,33728
856,33536
857,33536
858,33536
859,33600
860,33344
861,33152
862,33344
863,33344
864,33024
865,32896
866,32896
867,33344
868,34624
869,37056
870,40064
871,42880
872,44352
873,43712
874,41280
875,38080
876,35008
877,32384
878,30784
879,30016
880,29760
881,29888
882,30080
883,30336
884,30976
885,31424
886,31680
887,31936
888,32000
889,32064
890,32192
891,32128
892,32192
893,32448
894,32704
895,33280
896,33920
897,34368
898,34432
899,34432
900,34240
901,33728
902,33472
903,33600
904,33600
905,33408
906,33344
907,33472
908,33920
909,34432
910,34752
911,34752
912,34496
913,34304
914,34240
915,34560
916,35136
917,35520
918,35520
919,35520
920,35520
921,35328
922,35072
923,34880
924,34752
925,34816
926,35008
927,35264
928,35392
929,35584
930,35520
931,35072
932,34880
933,34752
934,34560
935,34688
936,34816
937,34496
938,34176
939,33984
940,33984
941,33984
942,33984
943,33984
944,34112
945,34304
946,34560
947,34752
948,34816
949,34816
950,34816
951,34752
952,34752
953,34880
954,35008
955,35136
956,35136
957,35008
958,34816
959,34560
960,34368
961,34240
962,34240
963,34304
964,34496
965,34752
966,35072
967,35520
968,35840
969,36032
970,36096
971,36032
972,35840
973,35776
974,35840
975,35840
976,35840
977,36032
978,36288
979,36544
980,36416
981,35840
982,35264
983,34688
984,33920
985,33344
986,33024
987,32896
988,32896
989,33024
990,33088
991,33216
992,33472
993,33792
994,34048
995,34176
996,34496
997,34560
998,34368
999,34048
1000,33984
1001,34176
1002,34624
1003,35520
1004,36928
1005,39168
1006,42048
1007,44928
1008,46528
1009,45888
1010,43264
1011,39744
1012,36672
1013,34432
1014,32896
1015,31744
1016,31040
1017,30784
1018,30976
1019,31296
1020,31616
1021,31936
1022,32128
1023,32384
1024,32640
1025,32960
1026,33280
1027,33152
1028,32704
1029,32320
1030,32256
1031,32256
1032,32320
1033,32448
1034,32448
1035,32384
1036,32320
1037,32320
1038,32256
1039,31936
1040,31616
1041,31296
1042,31104
1043,31040
1044,31040
1045,31232
1046,31296
1047,31424
1048,31616
1049,32000
1050,32384
1051,32448
1052,32256
1053,32128
1054,32256
1055,32576
1056,33024
1057,33280
1058,33600
1059,33920
1060,34240
1061,34624
1062,35072
1063,35392
1064,35584
1065,35520
1066,35264
1067,34880
1068,34688
1069,34688
1070,34880
1071,35136
1072,35200
1073,35136
1074,34944
1075,34688
1076,34432
1077,34304
1078,34240
1079,34048
1080,33664
1081,33216
1082,32960
1083,32832
1084,32768
1085,32832
1086,33152
1087,33408
1088,33664
1089,33920
1090,34112
1091,34304
1092,34432
1093,34304
1094,34048
1095,33792
1096,33664
1097,33472
1098,33216
1099,33088
1100,33216
1101,33536
1102,33984
1103,34432
1104,34880
1105,35264
1106,35456
1107,35520
1108,35648
1109,35712
1110,35584
1111,35392
1112,35264
1113,34880
1114,34240
1115,33536
1116,33152
1117,32640
1118,32064
1119,31616
1120,31552
1121,31488
1122,31552
1123,31872
1124,32576
1125,33152
1126,33152
1127,33152
1128,32960
1129,32640
1130,32320
1131,32128
1132,32000
1133,31936
1134,31680
1135,31424
1136,31936
1137,33216
1138,35136
1139,37696
1140,40576
1141,43520
1142,45696
1143,46080
1144,44352
1145,41280
1146,37632
1147,33920
1148,30784
1149,29056
1150,28672
1151,29376
1152,30848
1153,31808
1154,32064
1155,32256
1156,32448
1157,32640
1158,32896
1159,32512
1160,32384
1161,32576
1162,32704
1163,32960
1164,32576
1165,31936
1166,31744
1167,31872
1168,32000
1169,31680
1170,31360
1171,31360
1172,31360
1173,31040
1174,30592
1175,30912
1176,31360
1177,31744
1178,32000
1179,32384
1180,32896
1181,32896
1182,32640
1183,32064
1184,32320
1185,32768
1186,33216
1187,33728
1188,33792
1189,33472
1190,33472
1191,34048
1192,34432
1193,34624
1194,34496
1195,34368
1196,34560
1197,34880
1198,35136
1199,35264
1200,35392
1201,35456
1202,35456
1203,35264
1204,34944
1205,34688
1206,34752
1207,35008
1208,35392
1209,35968
1210,36288
1211,36416
1212,36608
1213,36608
1214,36672
1215,36416
1216,36032
1217,36096
1218,36608
1219,36992
1220,37120
1221,37312
1222,37376
1223,37056
1224,36352
1225,35840
1226,35392
1227,34944
1228,34624
1229,34496
1230,34624
1231,34688
1232,34304
1233,34112
1234,34688
1235,35840
1236,36800
1237,37440
1238,37888
1239,38208
1240,38400
1241,38336
1242,38016
1243,37696
1244,37376
1245,37120
1246,36608
1247,36032
1248,35520
1249,34944
1250,34176
1251,33664
1252,33536
1253,33408
1254,33216
1255,33152
1256,33088
1257,33024
1258,33088
1259,33344
1260,33664
1261,33920
1262,33792
1263,33792
1264,33920
1265,33984
1266,34048
1267,34560
1268,35648
1269,36992
1270,38592
1271,41152
1272,43904
1273,46080
1274,46272
1275,44480
1276,41664
1277,38784
1278,36032
1279,33664
1280,31936
1281,30720
1282,30272
1283,30912
1284,31744
1285,32704
1286,33664
1287,34368
1288,34688
1289,34816
1290,34880
1291,34880
1292,34880
1293,34944
1294,35072
1295,35456
1296,35712
1297,35200
1298,34176
1299,33664
1300,33856
1301,34560
1302,35008
1303,34880
1304,34688
1305,34432
1306,34496
1307,34880
1308,35392
1309,35968
1310,36416
1311,36672
1312,36736
1313,36416
1314,36096
1315,35520
1316,34944
1317,34624
1318,34624
1319,34816
1320,35008
1321,35328
1322,35904
1323,36544
1324,36928
1325,37056
1326,36992
1327,36864
1328,36672
1329,36544
1330,36416
1331,36160
1332,35456
1333,34752
1334,34496
1335,34496
1336,34880
1337,35328
1338,35392
1339,35200
1340,34880
1341,34816
1342,35072
1343,35584
1344,36096
1345,36288
1346,36352
1347,36416
1348,36416
1349,36224
1350,36032
1351,35904
1352,35776
1353,35520
1354,35264
1355,35136
1356,35264
1357,35712
1358,36288
1359,36736
1360,36992
1361,37120
1362,37248
1363,37376
1364,37312
1365,36928
1366,36288
1367,35904
1368,35968
1369,36160
1370,36224
1371,36160
1372,36032
1373,35968
1374,35968
1375,36160
1376,36416
1377,36672
1378,36736
1379,36608
1380,36352
1381,36032
1382,35584
1383,35200
1384,35136
1385,35136
1386,35072
1387,34880
1388,34944
1389,35136
1390,35392
1391,35712
1392,35840
1393,35648
1394,35456
1395,35456
1396,35904
1397,36800
1398,37952
1399,39680
1400,42176
1401,44800
1402,46656
1403,46400
1404,44672
1405,41984
1406,39040
1407,36480
1408,34368
1409,32960
1410,32128
1411,31616
1412,31488
1413,31680
1414,32064
1415,32832
1416,33920
1417,34944
1418,35776
1419,35968
1420,35904
1421,35584
1422,35200
1423,34816
1424,34624
1425,34624
1426,34816
1427,34880
1428,34880
1429,34880
1430,34880
1431,35136
1432,35264
1433,35200
1434,35072
1435,35008
1436,35200
1437,35456
1438,35520
1439,35712
1440,35968
1441,36352
1442,36608
1443,36672
1444,36480
1445,36416
1446,36608
1447,36736
1448,36480
1449,35904
1450,35456
1451,35136
1452,34880
1453,34816
1454,34816
1455,35008
1456,35264
1457,35520
1458,35584
1459,35520
1460,35264
1461,35072
1462,35072
1463,35136
1464,35264
1465,35264
1466,35264
1467,35136
1468,35008
1469,34816
1470,34688
1471,34688
1472,34880
1473,35072
1474,35072
1475,35008
1476,35072
1477,35136
1478,35328
1479,35520
1480,35520
1481,35648
1482,35776
1483,35840
1484,35968
1485,36032
1486,35968
1487,35840
1488,35648
1489,35584
1490,35456
1491,35520
1492,35712
1493,35968
1494,36160
1495,36160
1496,36224
1497,36288
1498,36288
1499,36160
1500,36032
1501,36160
1502,36096
1503,35968
1504,35840
1505,35648
1506,35392
1507,35136
1508,34624
1509,34432
1510,34304
1511,34304
1512,34240
1513,33984
1514,33792
1515,33536
1516,33408
1517,33472
1518,33664
1519,33856
1520,33984
1521,34048
1522,33984
1523,33856
1524,33920
1525,34176
1526,34944
1527,36096
1528,37760
1529,40192
1530,43200
1531,46144
1532,47744
1533,47168
1534,44672
1535,41280
1536,38144
1537,35584
1538,33664
1539,32320
1540,31552
1541,31296
1542,31488
1543,32128
1544,32896
1545,33664
1546,34496
1547,35328
1548,36032
1549,36608
1550,37120
1551,37632
1552,38016
1553,38336
1554,38656
1555,39104
1556,39552
1557,39936
1558,40128
1559,40064
1560,39936
1561,39744
1562,39424
1563,38976
1564,38400
1565,37824
1566,37504
1567,37376
1568,37440
1569,37632
1570,37952
1571,38272
1572,38528
1573,38848
1574,39040
1575,39232
1576,39360
1577,39488
1578,39488
1579,39360
1580,39296
1581,39168
1582,38976
1583,38848
1584,38720
1585,38528
1586,38336
1587,38272
1588,38272
1589,38272
1590,38272
1591,38336
1592,38400
1593,38528
1594,38464
1595,38336
1596,38208
1597,38208
1598,38144
1599,37952
1600,37824
1601,37760
1602,37696
1603,37632
1604,37568
1605,37440
1606,37376
1607,37312
1608,37376
1609,37376
1610,37248
1611,37120
1612,37120
1613,37120
1614,37056
1615,36992
1616,36992
1617,37056
1618,37120
1619,37376
1620,37568
1621,37760
1622,37888
1623,37824
1624,37760
1625,37760
1626,37760
1627,37568
1628,37248
1629,36992
1630,36672
1631,36352
1632,36032
1633,35584
1634,35264
1635,34816
1636,34240
1637,33664
1638,33024
1639,32512
1640,32064
1641,31744
1642,31552
1643,31424
1644,31360
1645,31424
1646,31232
1647,30784
1648,30080
1649,29696
1650,29376
1651,28928
1652,28544
1653,28352
1654,28736
1655,29440
1656,30464
1657,32448
1658,35264
1659,38336
1660,40576
1661,40960
1662,39360
1663,35456
1664,33088
1665,30592
1666,28672
1667,27456
1668,26560
1669,26240
1670,26112
1671,26304
1672,26624
1673,27008
1674,27456
1675,28032
1676,28608
1677,29248
1678,29824
1679,30272
1680,30592
1681,30720
1682,30912
1683,31168
1684,31296
1685,31424
1686,31488
1687,31552
1688,31488
1689,31360
1690,31296
1691,31424
1692,31616
1693,31616
1694,31552
1695,31616
1696,31680
1697,31936
1698,32256
1699,32512
1700,32832
1701,33152
1702,33344
1703,33408
1704,33344
1705,33280
1706,33408
1707,33664
1708,33728
1709,33600
1710,33536
1711,33600
1712,33728
1713,33984
1714,34048
1715,33728
1716,33344
1717,33280
1718,33344
1719,33280
1720,33344
1721,33472
1722,33536
1723,33792
1724,34240
1725,34816
1726,35264
1727,35712
1728,35968
1729,36224
1730,36352
1731,36416
1732,36288
1733,36096
1734,35840
1735,35584
1736,35392
1737,35264
1738,35328
1739,35136
1740,34624
1741,34048
1742,33856
1743,34112
1744,34432
1745,34624
1746,34752
1747,34752
1748,34624
1749,34752
1750,35136
1751,35648
1752,36160
1753,36544
1754,36544
1755,36544
1756,36608
1757,36736
1758,36736
1759,36864
1760,37120
1761,37312
1762,37184
1763,36736
1764,36032
1765,35136
1766,34496
1767,34048
1768,33920
1769,33792
1770,33664
1771,33408
1772,33280
1773,33536
1774,33792
1775,34176
1776,34368
1777,34432
1778,34368
1779,34304
1780,34176
1781,34304
1782,34752
1783,35520
1784,36928
1785,39168
1786,41856
1787,44352
1788,45440
1789,44544
1790,41920
1791,38528
1792,35136
1793,32512
1794,30976
1795,30272
1796,30080
1797,29952
1798,29888
1799,29888
1800,30208
1801,30528
1802,30720
1803,30720
1804,30784
1805,31040
1806,31232
1807,31232
1808,31424
1809,31488
1810,31744
1811,31936
1812,32064
1813,32384
1814,33088
1815,33920
1816,34432
1817,34880
1818,34880
1819,33984
1820,32832
1821,32256
1822,32064
1823,32960
1824,33600
1825,34304
1826,34752
1827,34880
1828,34816
1829,35648
1830,36864
1831,36672
1832,35712
1833,34880
1834,33792
1835,32896
1836,32384
1837,32384
1838,32960
1839,33088
1840,33088
1841,33472
1842,34048
1843,33856
1844,33216
1845,32640
1846,32192
1847,31808
1848,31616
1849,31616
1850,31808
1851,32064
1852,32384
1853,32704
1854,32960
1855,33408
1856,34368
1857,35520
1858,36032
1859,36352
1860,36480
1861,35520
1862,34368
1863,33536
1864,33408
1865,33280
1866,32960
1867,32640
1868,32448
1869,32576
1870,32832
1871,33280
1872,33536
1873,33472
1874,33472
1875,34112
1876,35264
1877,36224
1878,36288
1879,35584
1880,35008
1881,35264
1882,35712
1883,35392
1884,34560
1885,33856
1886,33536
1887,33856
1888,35072
1889,36288
1890,36224
1891,35520
1892,35136
1893,35392
1894,35776
1895,35456
1896,34560
1897,33088
1898,31744
1899,31168
1900,31360
1901,32128
1902,33088
1903,33920
1904,34624
1905,35200
1906,35584
1907,35328
1908,34624
1909,33856
1910,33408
1911,33792
1912,34944
1913,36736
1914,39040
1915,41408
1916,43456
1917,44160
1918,43136
1919,40768
1920,38272
1921,35904
1922,33856
1923,32320
1924,31552
1925,31360
1926,31424
1927,31936
1928,32704
1929,33344
1930,33344
1931,33216
1932,33088
1933,32832
1934,32640
1935,32768
1936,33024
1937,32896
1938,32448
1939,32000
1940,31616
1941,31296
1942,31232
1943,31488
1944,31872
1945,32256
1946,32768
1947,33536
1948,33856
1949,33472
1950,33024
1951,33472
1952,33856
1953,33216
1954,32064
1955,31360
1956,31360
1957,31744
1958,32256
1959,32704
1960,32960
1961,33152
1962,33216
1963,33216
1964,33280
1965,33344
1966,33472
1967,33600
1968,33664
1969,33664
1970,33728
1971,33856
1972,33856
1973,33856
1974,33856
1975,33664
1976,33408
1977,33088
1978,32832
1979,32704
1980,32832
1981,33024
1982,33344
1983,33664
1984,33664
1985,33408
1986,32960
1987,32640
1988,32576
1989,32768
1990,32896
1991,33152
1992,33664
1993,34112
1994,34304
1995,34432
1996,34496
1997,34624
1998,34624
1999,34560
2000,34560
2001,34624
2002,34560
2003,34624
2004,34560
2005,34560
2006,34624
2007,34368
2008,34048
2009,33856
2010,33728
2011,33728
2012,33792
2013,33856
2014,33920
2015,33984
2016,33984
2017,33984
2018,33920
2019,33792
2020,33600
2021,33408
2022,33216
2023,32896
2024,32640
2025,32448
2026,32320
2027,32256
2028,32192
2029,32192
2030,32448
2031,32576
2032,32640
2033,32704
2034,32768
2035,32768
2036,32448
2037,32192
2038,32384
2039,33088
2040,34688
2041,37056
2042,39808
2043,42304
2044,43584
2045,42880
2046,40768
2047,37824
2048,34816
2049,32384
2050,30720
2051,29824
2052,29248
2053,28864
2054,28736
2055,28864
2056,29248
2057,29888
2058,30592
2059,31168
2060,31488
2061,31552
2062,31488
2063,31552
2064,31808
2065,32000
2066,32192
2067,32256
2068,32320
2069,32320
2070,32256
2071,32192
2072,32192
2073,32128
2074,32256
2075,32256
2076,32320
2077,32384
2078,32512
2079,32512
2080,32768
2081,32768
2082,32704
2083,32576
2084,32448
2085,32192
2086,32000
2087,31936
2088,31808
2089,31680
2090,31616
2091,31616
2092,31488
2093,31552
2094,31552
2095,31808
2096,31872
2097,31872
2098,32128
2099,32128
2100,32192
2101,32448
2102,32640
2103,32768
2104,33024
2105,33088
2106,33088
2107,33152
2108,33216
2109,33152
2110,32960
2111,32896
2112,32960
2113,32960
2114,32896
2115,32960
2116,33088
2117,33280
2118,33344
2119,33216
2120,33152
2121,33088
2122,33088
2123,33088
2124,33024
2125,33152
2126,33472
2127,33728
2128,33600
2129,33536
2130,33344
2131,33280
2132,33152
2133,33152
2134,33216
2135,33344
2136,33664
2137,33920
2138,34112
2139,34112
2140,34240
2141,34240
2142,34176
2143,33536
2144,32768
2145,32320
2146,31936
2147,31488
2148,31232
2149,31232
2150,31360
2151,31488
2152,31424
2153,31424
2154,31552
2155,31488
2156,31424
2157,31488
2158,31424
2159,31552
2160,31552
2161,31872
2162,32640
2163,33664
2164,35136
2165,37120
2166,39104
2167,40704
2168,41152
2169,41024
2170,38656
2171,36352
2172,34176
2173,32512
2174,31104
2175,29952
2176,29120
2177,28736
2178,28992
2179,29568
2180,30272
2181,30848
2182,30912
2183,30784
2184,30784
2185,30848
2186,30976
2187,31296
2188,31744
2189,32064
2190,32128
2191,32256
2192,32640
2193,32576
2194,32448
2195,32256
2196,32128
2197,32000
2198,32064
2199,32064
2200,32128
2201,32192
2202,32256
2203,32448
2204,32832
2205,33152
2206,33280
2207,32832
2208,32128
2209,31808
2210,31808
2211,32000
2212,31936
2213,31744
2214,31744
2215,31936
2216,32128
2217,32320
2218,32512
2219,32704
2220,32704
2221,32832
2222,32960
2223,32960
2224,32832
2225,32704
2226,32768
2227,32832
2228,32896
2229,32896
2230,32960
2231,33152
2232,33216
2233,33280
2234,33280
2235,33280
2236,33280
2237,33344
2238,33344
2239,33536
2240,33728
2241,33600
2242,33472
2243,33280
2244,33216
2245,32960
2246,32896
2247,33024
2248,33152
2249,33408
2250,33536
2251,33664
2252,33728
2253,33920
2254,34048
2255,33920
2256,33792
2257,33664
2258,33600
2259,33600
2260,33728
2261,33856
2262,34112
2263,34048
2264,34112
2265,34048
2266,33984
2267,33856
2268,33664
2269,33280
2270,32896
2271,32640
2272,32512
2273,32256
2274,32192
2275,32128
2276,32064
2277,32192
2278,32320
2279,32448
2280,32576
2281,32640
2282,32704
2283,32832
2284,32832
2285,33024
2286,33472
2287,34432
2288,36160
2289,36416
2290,40064
2291,41600
2292,41920
2293,41024
2294,39040
2295,36608
2296,34368
2297,32448
2298,31040
2299,30144
2300,29632
2301,29440
2302,29632
2303,30080
2304,30080
2305,30656
2306,30976
2307,31296
2308,31552
2309,31808
2310,32064
2311,32256
2312,32448
2313,32512
2314,32384
2315,32384
2316,32576
2317,32768
2318,32832
2319,32960
2320,33024
2321,32960
2322,32832
2323,32704
2324,32704
2325,32768
2326,32896
2327,33024
2328,33216
2329,33344
2330,33344
2331,33152
2332,33088
2333,33088
2334,33088
2335,32896
2336,32704
2337,32448
2338,32256
2339,32128
2340,32064
2341,32000
2342,32064
2343,32192
2344,32448
2345,32768
2346,33024
2347,33216
2348,33408
2349,33536
2350,33600
2351,33600
2352,33600
2353,33600
2354,33664
2355,33728
2356,33728
2357,33664
2358,33536
2359,33408
2360,33408
2361,33408
2362,33408
2363,33344
2364,33280
2365,33216
2366,33280
2367,33472
2368,33536
2369,33600
2370,33600
2371,33600
2372,33600
2373,33472
2374,33344
2375,33344
2376,33408
2377,33472
2378,33600
2379,33728
2380,33792
2381,33984
2382,34176
2383,34240
2384,34368
2385,34432
2386,34432
2387,34560
2388,34624
2389,34688
2390,34816
2391,34816
2392,34752
2393,34688
2394,34496
2395,34304
2396,34048
2397,33664
2398,33408
2399,33216
2400,33088
2401,32896
2402,32768
2403,32576
2404,32640
2405,32704
2406,32768
2407,32832
2408,32896
2409,32960
2410,32896
2411,32704
2412,32512
2413,32512
2414,32768
2415,33536
2416,34752
2417,36608
2418,39104
2419,41792
2420,44096
2421,44800
2422,43264
2423,40512
2424,37504
2425,34816
2426,32576
2427,30976
2428,30144
2429,29824
2430,29760
2431,29952
2432,30272
2433,30592
2434,30848
2435,31104
2436,31424
2437,31808
2438,32256
2439,32448
2440,32640
2441,32832
2442,32960
2443,33024
2444,33088
2445,33152
2446,33152
2447,33152
2448,33152
2449,33152
2450,33152
2451,33152
2452,33152
2453,33152
2454,33152
2455,33152
2456,33152
2457,33216
2458,33280
2459,33280
2460,33344
2461,33408
2462,33408
2463,33408
2464,33280
2465,33152
2466,33152
2467,33152
2468,33152
2469,33152
2470,33216
2471,33344
2472,33472
2473,33472
2474,33536
2475,33600
2476,33664
2477,33792
2478,33920
2479,34048
2480,34112
2481,34176
2482,34304
2483,34368
2484,34240
2485,34240
2486,34304
2487,34368
2488,34368
2489,34304
2490,34176
2491,34112
2492,33984
2493,34048
2494,34176
2495,34368
2496,34496
2497,34496
2498,34432
2499,34368
2500,34432
2501,34560
2502,34560
2503,34432
2504,34240
2505,34048
2506,33984
2507,33984
2508,34048
2509,34112
2510,34240
2511,34432
2512,34688
2513,34944
2514,35072
2515,35200
2516,35264
2517,35264
2518,35200
2519,35136
2520,35008
2521,34944
2522,34880
2523,34752
2524,34624
2525,34368
2526,34048
2527,33664
2528,33472
2529,33280
2530,33088
2531,32960
2532,32832
2533,32768
2534,32768
2535,32768
2536,32768
2537,32768
2538,32832
2539,32832
2540,32832
2541,32704
2542,32640
2543,32640
2544,33024
2545,33984
2546,35520
2547,37760
2548,40448
2549,43328
2550,45312
2551,45120
2552,42944
2553,39808
2554,36608
2555,33984
2556,32000
2557,30720
2558,30016
2559,29824
2560,29888
2561,30080
2562,30464
2563,30912
2564,31296
2565,31744
2566,32128
2567,32384
2568,32512
2569,32576
2570,32768
2571,32960
2572,33024
2573,33088
2574,33152
2575,33280
2576,33280
2577,33344
2578,33536
2579,33664
2580,33728
2581,33664
2582,33536
2583,33408
2584,33344
2585,33344
2586,33408
2587,33408
2588,33472
2589,33408
2590,33408
2591,33472
2592,33664
2593,33792
2594,33792
2595,33792
2596,33792
2597,33664
2598,33600
2599,33472
2600,33472
2601,33472
2602,33536
2603,33728
2604,33856
2605,33984
2606,34048
2607,34176
2608,34176
2609,34304
2610,34304
2611,34304
2612,34368
2613,34432
2614,34496
2615,34496
2616,34496
2617,34496
2618,34432
2619,34368
2620,34304
2621,34240
2622,34304
2623,34432
2624,34496
2625,34432
2626,34432
2627,34432
2628,34432
2629,34496
2630,34560
2631,34560
2632,34624
2633,34688
2634,34688
2635,34624
2636,34560
2637,34496
2638,34432
2639,34304
2640,34368
2641,34432
2642,34560
2643,34560
2644,34624
2645,34752
2646,34880
2647,35008
2648,35072
2649,35072
2650,35136
2651,35264
2652,35392
2653,35456
2654,35520
2655,35456
2656,35264
2657,35200
2658,35136
2659,34944
2660,34560
2661,34176
2662,33856
2663,33664
2664,33536
2665,33344
2666,33280
2667,33280
2668,33280
2669,33280
2670,33408
2671,33600
2672,33664
2673,33664
2674,33600
2675,33408
2676,33216
2677,33152
2678,33472
2679,34368
2680,35776
2681,37888
2682,40832
2683,43840
2684,46144
2685,46464
2686,44608
2687,41472
2688,38144
2689,35200
2690,32960
2691,31552
2692,30720
2693,30272
2694,30208
2695,30336
2696,30656
2697,31040
2698,31360
2699,31680
2700,31872
2701,32128
2702,32320
2703,32448
2704,32640
2705,32768
2706,32896
2707,32960
2708,33024
2709,32960
2710,33024
2711,33152
2712,33216
2713,33280
2714,33216
2715,33216
2716,33280
2717,33344
2718,33344
2719,33280
2720,33280
2721,33344
2722,33280
2723,33280
2724,33280
2725,33344
2726,33408
2727,33408
2728,33408
2729,33472
2730,33472
2731,33408
2732,33408
2733,33408
2734,33472
2735,33472
2736,33600
2737,33728
2738,33792
2739,33856
2740,33856
2741,33920
2742,33984
2743,33984
2744,33920
2745,33984
2746,34112
2747,34240
2748,34304
2749,34304
2750,34368
2751,34368
2752,34368
2753,34368
2754,34304
2755,34304
2756,34304
2757,34304
2758,34304
2759,34304
2760,34368
2761,34368
2762,34368
2763,34304
2764,34304
2765,34240
2766,34304
2767,34304
2768,34304
2769,34240
2770,34304
2771,34432
2772,34496
2773,34496
2774,34560
2775,34560
2776,34560
2777,34432
2778,34368
2779,34368
2780,34368
2781,34368
2782,34432
2783,34560
2784,34688
2785,34816
2786,34880
2787,34944
2788,34944
2789,35008
2790,35072
2791,35136
2792,35200
2793,35200
2794,35136
2795,35136
2796,35136
2797,35072
2798,34816
2799,34624
2800,34240
2801,33856
2802,33536
2803,33216
2804,32960
2805,32960
2806,32960
2807,33088
2808,33216
2809,33344
2810,33408
2811,33408
2812,33408
2813,33344
2814,33152
2815,32960
2816,32896
2817,33280
2818,34240
2819,35712
2820,37824
2821,40640
2822,43520
2823,45696
2824,46080
2825,44224
2826,41152
2827,37760
2828,33792
2829,32384
2830,31040
2831,30208
2832,29952
2833,30016
2834,30336
2835,30720
2836,31168
2837,31616
2838,31936
2839,32192
2840,32384
2841,32640
2842,32896
2843,33024
2844,33024
2845,33024
2846,33024
2847,33024
2848,33024
2849,33152
2850,33280
2851,33408
2852,33472
2853,33472
2854,33472
2855,33472
2856,33472
2857,33472
2858,33536
2859,33600
2860,33664
2861,33728
2862,33728
2863,33728
2864,33600
2865,33536
2866,33536
2867,33536
2868,33600
2869,33600
2870,33664
2871,33664
2872,33664
2873,33664
2874,33664
2875,33664
2876,33664
2877,33664
2878,33728
2879,33792
2880,33856
2881,33984
2882,34048
2883,34176
2884,34304
2885,34304
2886,34304
2887,34304
2888,34304
2889,34368
2890,34432
2891,34368
2892,34304
2893,34240
2894,34240
2895,34368
2896,34368
2897,34304
2898,34240
2899,34240
2900,34368
2901,34432
2902,34496
2903,34496
2904,34496
2905,34432
2906,34368
2907,34304
2908,34368
2909,34368
2910,34368
2911,34304
2912,34304
2913,34368
2914,34368
2915,34304
2916,34304
2917,34304
2918,34240
2919,34176
2920,34240
2921,34304
2922,34304
2923,34176
2924,34112
2925,33984
2926,33920
2927,33984
2928,34176
2929,34432
2930,34688
2931,34880
2932,35008
2933,35072
2934,35072
2935,35136
2936,35072
2937,35008
2938,35072
2939,35136
2940,35072
2941,34944
2942,34752
2943,34560
2944,34368
2945,34176
2946,33984
2947,33728
2948,33536
2949,33408
2950,33344
2951,33408
2952,33408
2953,33472
2954,33472
2955,33600
2956,33664
2957,33600
2958,33536
2959,33408
2960,33280
2961,33280
2962,33600
2963,34880
2964,35648
2965,37568
2966,40320
2967,43328
2968,45696
2969,46208
2970,44608
2971,41664
2972,38272
2973,35264
2974,33024
2975,31552
2976,30656
2977,30272
2978,30400
2979,30592
2980,30912
2981,31296
2982,31616
2983,32000
2984,32320
2985,32512
2986,32768
2987,32896
2988,33088
2989,33152
2990,33216
2991,33344
2992,33472
2993,33600
2994,33600
2995,33600
2996,33536
2997,33472
2998,33472
2999,33664
3000,33792
3001,33792
3002,33664
3003,33472
3004,33472
3005,33472
3006,33472
3007,33472
3008,33600
3009,33600
3010,33600
3011,33664
3012,33728
3013,33728
3014,33792
3015,33856
3016,33792
3017,33664
3018,33536
3019,33408
3020,33472
3021,33536
3022,33664
3023,33856
3024,33984
3025,34112
3026,34240
3027,34368
3028,34432
3029,34432
3030,34304
3031,34240
3032,34240
3033,34304
3034,34304
3035,34304
3036,34304
3037,34304
3038,34368
3039,34304
3040,34304
3041,34368
3042,34368
3043,34304
3044,34304
3045,34240
3046,34240
3047,34240
3048,34240
3049,34240
3050,34240
3051,34176
3052,34112
3053,34112
3054,34240
3055,34432
3056,34624
3057,34816
3058,34880
3059,34560
3060,34304
3061,34432
3062,34432
3063,34176
3064,33728
3065,33472
3066,33664
3067,34752
3068,35840
3069,35904
3070,35840
3071,35840
3072,35328
3073,34496
3074,33856
3075,33472
3076,33216
3077,33088
3078,33344
3079,34048
3080,34816
3081,36096
3082,37248
3083,38464
3084,38592
3085,37696
3086,35648
3087,34176
3088,33792
3089,33664
3090,33152
3091,32832
3092,32896
3093,33536
3094,34176
3095,34624
3096,34496
3097,33728
3098,33088
3099,32832
3100,32640
3101,32512
3102,32256
3103,32384
3104,32832
3105,33152
3106,33152
3107,33088
3108,32896
3109,32640
3110,32576
3111,32960
3112,33728
3113,34880
3114,36544
3115,39040
3116,41920
3117,44544
3118,45760
3119,44864
3120,42304
3121,38976
3122,35776
3123,33216
3124,31552
3125,30592
3126,30144
3127,30080
3128,30272
3129,30592
3130,30912
3131,31296
3132,31680
3133,32000
3134,32320
3135,32512
3136,32704
3137,32896
3138,33024
3139,33088
3140,33088
3141,33152
3142,33216
3143,33216
3144,33280
3145,33344
3146,33408
3147,33472
3148,33536
3149,33536
3150,33600
3151,33600
3152,33600
3153,33536
3154,33600
3155,33728
3156,33920
3157,34048
3158,34240
3159,34304
3160,34240
3161,34176
3162,34048
3163,33984
3164,33920
3165,33792
3166,33664
3167,33600
3168,33664
3169,33856
3170,33984
3171,33920
3172,33792
3173,33664
3174,33600
3175,33664
3176,33728
3177,33856
3178,33984
3179,34048
3180,34048
3181,33856
3182,33664
3183,33600
3184,33792
3185,34112
3186,34368
3187,34496
3188,34496
3189,34496
3190,34496
3191,34560
3192,34496
3193,34304
3194,34240
3195,34240
3196,34432
3197,34496
3198,34496
3199,34432
3200,34304
3201,34176
3202,34176
3203,33984
3204,33728
3205,33600
3206,33792
3207,34048
3208,34240
3209,34368
3210,34496
3211,34624
3212,34624
3213,34624
3214,34560
3215,34496
3216,34432
3217,34432
3218,34304
3219,34176
3220,34048
3221,33920
3222,33728
3223,33472
3224,33280
3225,33280
3226,33472
3227,33728
3228,33984
3229,34304
3230,34816
3231,35328
3232,35776
3233,35968
3234,35904
3235,35648
3236,35392
3237,35200
3238,35136
3239,35072
3240,34944
3241,34880
3242,34752
3243,34624
3244,34432
3245,34304
3246,34304
3247,34240
3248,34048
3249,33728
3250,33536
3251,33472
3252,33472
3253,33536
3254,33728
3255,33792
3256,33728
3257,33728
3258,33856
3259,33984
3260,33984
3261,33792
3262,33920
3263,34624
3264,35776
3265,37440
3266,39872
3267,42880
3268,45120
3269,45888
3270,44544
3271,41792
3272,38400
3273,35136
3274,32768
3275,31488
3276,31040
3277,30976
3278,31104
3279,31360
3280,31680
3281,32128
3282,32704
3283,33344
3284,33664
3285,33664
3286,33536
3287,33408
3288,33408
3289,33344
3290,33344
3291,33408
3292,33600
3293,33728
3294,33856
3295,33792
3296,33728
3297,33856
3298,34240
3299,34624
3300,35008
3301,35136
3302,35136
3303,35008
3304,34816
3305,34816
3306,34880
3307,34944
3308,34880
3309,34688
3310,34560
3311,34432
3312,34176
3313,33920
3314,33664
3315,33600
3316,33856
3317,34176
3318,34432
3319,34816
3320,35328
3321,35712
3322,35840
3323,35776
3324,35520
3325,35264
3326,35008
3327,34816
3328,34624
3329,34304
3330,33984
3331,33920
3332,33984
3333,33984
3334,33920
3335,33920
3336,34112
3337,34432
3338,34816
3339,34944
3340,34944
3341,34880
3342,34752
3343,34816
3344,34880
3345,35008
3346,35072
3347,35072
3348,35136
3349,35008
3350,34880
3351,34816
3352,34880
3353,34944
3354,34880
3355,34752
3356,34624
3357,34496
3358,34368
3359,34432
3360,34368
3361,34304
3362,34304
3363,34432
3364,34688
3365,34944
3366,35264
3367,35456
3368,35456
3369,35136
3370,34688
3371,34240
3372,34048
3373,34304
3374,34688
3375,34944
3376,34944
3377,35008
3378,35136
3379,35008
3380,34752
3381,34560
3382,34496
3383,34624
3384,34944
3385,35264
3386,35456
3387,35520
3388,35456
3389,35328
3390,35136
3391,34880
3392,34560
3393,34112
3394,33792
3395,33472
3396,33216
3397,33088
3398,33024
3399,33088
3400,33472
3401,33920
3402,34048
3403,33984
3404,34048
3405,34112
3406,34112
3407,33984
3408,34048
3409,34048
3410,33984
3411,34240
3412,35008
3413,36096
3414,37888
3415,40256
3416,42496
3417,43712
3418,43200
3419,41280
3420,38720
3421,36096
3422,33792
3423,32128
3424,31168
3425,30592
3426,30464
3427,30976
3428,31744
3429,32256
3430,32576
3431,32704
3432,32768
3433,32768
3434,32896
3435,33280
3436,33792
3437,34240
3438,34304
3439,33856
3440,33216
3441,32832
3442,32896
3443,33216
3444,33344
3445,33472
3446,33664
3447,34112
3448,34560
3449,34816
3450,34880
3451,34944
3452,34944
3453,34944
3454,34816
3455,34496
3456,34112
3457,33920
3458,34176
3459,34304
3460,34048
3461,33600
3462,33216
3463,33216
3464,33536
3465,33856
3466,34048
3467,34112
3468,34176
3469,34112
3470,33984
3471,34112
3472,34624
3473,35136
3474,35328
3475,35072
3476,34624
3477,34368
3478,34368
3479,34176
3480,33984
3481,33920
3482,33984
3483,34176
3484,34304
3485,34240
3486,33920
3487,33600
3488,33344
3489,33344
3490,33472
3491,33728
3492,34112
3493,34496
3494,34816
3495,34880
3496,34816
3497,34752
3498,34560
3499,34432
3500,34432
3501,34432
3502,34304
3503,34176
3504,34112
3505,33984
3506,33856
3507,33856
3508,33856
3509,33856
3510,33792
3511,33728
3512,33920
3513,34112
3514,34304
3515,34560
3516,34624
3517,34496
3518,34432
3519,34560
3520,34560
3521,34624
3522,34816
3523,35008
3524,35008
3525,34752
3526,34368
3527,34112
3528,34240
3529,34560
3530,34816
3531,35072
3532,35136
3533,35136
3534,35136
3535,35072
3536,34944
3537,34752
3538,34688
3539,34688
3540,34496
3541,33984
3542,33664
3543,33408
3544,33280
3545,33152
3546,32896
3547,32704
3548,32640
3549,32832
3550,33216
3551,33600
3552,33856
3553,33856
3554,33920
3555,34240
3556,34880
3557,35904
3558,37760
3559,40384
3560,42944
3561,44608
3562,44480
3563,42432
3564,39296
3565,36096
3566,33536
3567,32000
3568,31168
3569,30912
3570,30848
3571,30912
3572,31168
3573,31488
3574,31744
3575,32000
3576,32320
3577,32704
3578,32960
3579,33152
3580,33280
3581,33408
3582,33600
3583,33664
3584,33664
3585,33472
3586,33216
3587,32896
3588,32960
3589,33216
3590,33472
3591,33728
3592,33856
3593,33920
3594,34048
3595,34112
3596,34176
3597,34240
3598,34304
3599,34304
3600,34304
3601,34240
3602,34112
3603,34048
3604,34176
3605,34240
3606,34240
3607,34176
3608,34176
3609,34176
3610,34112
3611,33856
3612,33664
3613,33600
3614,33728
3615,33984
3616,34112
3617,34176
3618,34112
3619,34048
3620,34048
3621,34112
3622,34176
3623,34176
3624,34176
3625,34048
3626,33984
3627,34048
3628,33984
3629,33984
3630,33984
3631,33920
3632,33984
3633,33984
3634,33984
3635,33984
3636,33984
3637,33920
3638,33920
3639,34048
3640,34304
3641,34496
3642,34624
3643,34688
3644,34688
3645,34624
3646,34496
3647,34368
3648,34368
3649,34496
3650,34496
3651,34432
3652,34432
3653,34496
3654,34560
3655,34432
3656,34368
3657,34432
3658,34496
3659,34368
3660,33984
3661,33792
3662,33856
3663,34176
3664,34496
3665,34688
3666,34752
3667,34752
3668,34816
3669,34880
3670,34944
3671,34944
3672,34944
3673,34944
3674,35072
3675,35072
3676,34944
3677,34752
3678,34752
3679,34816
3680,34688
3681,34304
3682,33920
3683,33792
3684,33792
3685,33728
3686,33664
3687,33600
3688,33600
3689,33600
3690,33664
3691,33728
3692,33792
3693,33792
3694,33728
3695,33664
3696,33664
3697,33664
3698,33728
3699,33984
3700,34688
3701,35776
3702,37312
3703,39680
3704,42560
3705,44928
3706,45632
3707,44160
3708,41152
3709,37760
3710,34752
3711,32512
3712,31296
3713,30720
3714,30592
3715,30720
3716,31040
3717,31616
3718,32064
3719,32448
3720,32640
3721,32896
3722,33088
3723,33216
3724,33344
3725,33536
3726,33728
3727,33856
3728,33920
3729,33920
3730,33792
3731,33664
3732,33664
3733,33856
3734,34048
3735,34176
3736,34240
3737,34176
3738,34048
3739,33984
3740,34048
3741,34240
3742,34368
3743,34432
3744,34560
3745,34560
3746,34560
3747,34688
3748,34880
3749,34944
3750,34944
3751,34688
3752,34368
3753,34112
3754,33984
3755,34048
3756,34240
3757,34304
3758,34176
3759,34048
3760,34112
3761,34304
3762,34496
3763,34432
3764,34368
3765,34432
3766,34624
3767,34560
3768,34368
3769,34048
3770,33792
3771,33856
3772,33984
3773,34112
3774,34240
3775,34304
3776,34432
3777,34624
3778,34688
3779,34688
3780,34560
3781,34432
3782,34496
3783,34560
3784,34624
3785,34624
3786,34624
3787,34560
3788,34368
3789,34368
3790,34560
3791,34688
3792,34752
3793,34688
3794,34624
3795,34496
3796,34496
3797,34560
3798,34688
3799,34752
3800,34624
3801,34432
3802,34176
3803,34176
3804,34176
3805,34176
3806,34112
3807,34176
3808,34240
3809,34432
3810,34624
3811,34752
3812,34944
3813,35008
3814,35200
3815,35392
3816,35520
3817,35520
3818,35264
3819,35264
3820,35328
3821,35456
3822,35456
3823,35264
3824,35008
3825,34688
3826,34432
3827,34240
3828,34048
3829,33920
3830,33792
3831,33728
3832,33664
3833,33728
3834,33792
3835,33856
3836,34048
3837,34240
3838,34240
3839,34112
3840,33920
3841,33728
3842,33600
3843,33664
3844,34240
3845,35456
3846,36864
3847,38784
3848,40896
3849,43392
3850,44992
3851,44864
3852,42944
3853,39872
3854,36672
3855,34112
3856,32256
3857,31168
3858,30784
3859,30848
3860,31040
3861,31424
3862,31872
3863,32256
3864,32640
3865,32896
3866,33088
3867,33216
3868,33280
3869,33408
3870,33536
3871,33664
3872,33856
3873,33920
3874,33984
3875,34112
3876,34176
3877,34240
3878,34240
3879,34176
3880,34112
3881,34048
3882,34112
3883,34176
3884,34176
3885,34240
3886,34304
3887,34560
3888,34752
3889,34688
3890,34624
3891,34688
3892,34624
3893,34624
3894,34560
3895,34624
3896,34624
3897,34624
3898,34688
3899,34688
3900,34496
3901,34304
3902,34240
3903,34112
3904,34304
3905,34432
3906,34496
3907,34496
3908,34624
3909,34688
3910,34688
3911,34688
3912,34624
3913,34560
3914,34368
3915,34240
3916,34240
3917,34304
3918,34368
3919,34304
3920,34240
3921,34112
3922,33984
3923,34048
3924,33984
3925,34432
3926,34560
3927,34688
3928,34688
3929,34560
3930,34432
3931,34432
3932,34496
3933,34624
3934,34624
3935,34688
3936,34752
3937,34752
3938,34752
3939,34752
3940,34752
3941,34752
3942,34752
3943,34752
3944,34688
3945,34560
3946,34432
3947,34240
3948,34368
3949,34560
3950,34816
3951,35008
3952,35072
3953,35136
3954,35072
3955,34944
3956,34880
3957,34880
3958,34944
3959,35072
3960,35136
3961,35264
3962,35328
3963,35264
3964,35200
3965,35008
3966,34752
3967,34368
3968,34048
3969,33728
3970,33472
3971,33344
3972,33280
3973,33216
3974,33472
3975,33472
3976,33472
3977,33600
3978,33792
3979,33856
3980,33600
3981,33280
3982,33216
3983,33600
3984,34496
3985,35648
3986,37696
3987,37760
3988,42432
3989,44480
3990,45120
3991,43776
3992,40704
3993,40512
3994,34944
3995,32832
3996,31680
3997,31104
3998,30912
3999,30912
4000,31104
4001,31360
4002,31744
4003,32064
4004,32320
4005,32448
4006,32640
4007,32832
4008,33088
4009,33280
4010,33472
4011,33728
4012,33792
4013,33728
4014,33600
4015,33536
4016,33664
4017,33856
4018,34048
4019,34112
4020,34112
4021,34048
4022,33920
4023,33920
4024,33920
4025,33984
4026,34112
4027,34240
4028,34432
4029,34496
4030,34432
4031,34368
4032,34304
4033,34368
4034,34496
4035,34624
4036,34624
4037,34496
4038,34432
4039,34304
4040,34176
4041,34112
4042,34112
4043,34112
4044,34112
4045,34304
4046,34432
4047,34496
4048,34496
4049,34432
4050,34368
4051,34432
4052,34496
4053,34496
4054,34432
4055,34304
4056,34176
4057,34176
4058,34304
4059,34496
4060,34432
4061,34240
4062,34048
4063,33984
4064,34240
4065,34432
4066,34624
4067,34752
4068,34880
4069,34944
4070,34880
4071,34752
4072,34560
4073,34560
4074,34560
4075,34496
4076,34496
4077,34496
4078,34432
4079,34496
4080,34688
4081,34816
4082,34880
4083,34816
4084,34624
4085,34496
4086,34368
4087,34304
4088,34176
4089,34112
4090,34112
4091,34304
4092,34560
4093,34816
4094,35072
4095,35328
4096,35520
4097,35392
4098,35200
4099,35136
4100,35264
4101,35520
4102,35584
4103,35520
4104,35264
4105,35072
4106,34944
4107,34688
4108,34368
4109,34176
4110,34048
4111,33920
4112,33664
4113,33408
4114,33344
4115,33280
4116,33280
4117,33344
4118,33408
4119,33536
4120,33600
4121,33664
4122,33600
4123,33536
4124,33408
4125,33600
4126,34176
4127,35200
4128,36608
4129,38720
4130,41408
4131,44032
4132,45760
4133,45312
4134,43008
4135,39680
4136,36416
4137,33728
4138,31872
4139,30912
4140,30464
4141,30336
4142,30464
4143,30912
4144,31360
4145,31744
4146,32000
4147,32192
4148,32384
4149,32640
4150,32896
4151,33152
4152,33280
4153,33344
4154,33408
4155,33472
4156,33600
4157,33792
4158,33856
4159,33920
4160,33920
4161,33984
4162,33984
4163,33984
4164,33920
4165,33856
4166,33856
4167,33856
4168,33984
4169,34112
4170,34176
4171,34240
4172,34112
4173,34048
4174,34112
4175,34112
4176,34048
4177,34112
4178,34240
4179,34240
4180,34176
4181,34176
4182,34176
4183,33984
4184,33920
4185,33920
4186,33856
4187,33856
4188,33856
4189,34112
4190,34368
4191,34432
4192,34304
4193,34176
4194,34176
4195,34176
4196,34112
4197,34048
4198,33984
4199,33984
4200,34048
4201,33984
4202,33984
4203,33920
4204,33792
4205,33664
4206,33728
4207,34048
4208,34240
4209,34304
4210,34304
4211,34176
4212,34112
4213,34112
4214,34240
4215,34368
4216,34304
4217,34240
4218,34112
4219,34048
4220,34176
4221,34368
4222,34432
4223,34496
4224,34368
4225,34176
4226,33984
4227,33856
4228,33920
4229,33920
4230,33792
4231,33728
4232,33792
4233,33984
4234,34112
4235,34176
4236,34048
4237,33920
4238,33920
4239,33984
4240,34048
4241,34176
4242,34304
4243,34624
4244,34880
4245,35008
4246,34944
4247,34880
4248,34816
4249,34880
4250,34880
4251,35008
4252,35072
4253,35072
4254,35072
4255,34880
4256,34560
4257,34048
4258,33536
4259,33280
4260,33088
4261,32896
4262,32768
4263,32960
4264,33408
4265,33792
4266,33664
4267,33344
4268,33536
4269,34176
4270,34368
4271,34048
4272,33856
4273,33728
4274,33536
4275,33792
4276,34432
4277,35264
4278,36800
4279,39616
4280,42752
4281,44800
4282,44736
4283,42688
4284,39744
4285,36672
4286,34048
4287,32000
4288,30784
4289,30080
4290,29760
4291,29632
4292,29824
4293,30208
4294,30592
4295,31040
4296,31552
4297,32128
4298,32704
4299,33280
4300,33472
4301,33472
4302,33472
4303,33600
4304,33792
4305,33792
4306,33536
4307,33088
4308,32768
4309,32640
4310,32896
4311,33152
4312,33344
4313,33408
4314,33664
4315,33984
4316,34112
4317,34112
4318,34240
4319,34752
4320,35456
4321,35456
4322,34880
4323,34240
4324,33856
4325,34048
4326,34560
4327,34624
4328,34176
4329,33728
4330,33600
4331,33728
4332,33856
4333,33792
4334,33472
4335,33280
4336,33408
4337,33664
4338,34176
4339,34688
4340,35072
4341,35200
4342,35072
4343,34624
4344,34304
4345,33984
4346,33728
4347,33920
4348,34304
4349,34432
4350,34112
4351,33728
4352,33472
4353,33536
4354,33792
4355,34048
4356,34240
4357,34624
4358,35072
4359,35200
4360,35200
4361,35328
4362,35264
4363,34880
4364,34304
4365,33856
4366,33600
4367,33536
4368,33664
4369,33984
4370,34240
4371,34240
4372,34176
4373,34304
4374,34496
4375,34560
4376,34624
4377,34688
4378,34816
4379,35136
4380,35072
4381,34624
4382,34432
4383,34304
4384,34240
4385,34112
4386,33856
4387,33536
4388,33536
4389,33792
4390,34048
4391,34240
4392,34368
4393,34624
4394,35072
4395,35456
4396,35648
4397,35520
4398,35328
4399,35008
4400,34688
4401,34496
4402,34624
4403,34944
4404,35200
4405,35328
4406,35328
4407,34944
4408,34368
4409,33920
4410,33792
4411,33792
4412,33792
4413,33728
4414,33600
4415,33408
4416,33472
4417,33792
4418,33984
4419,33984
4420,33920
4421,33856
4422,33792
4423,33856
4424,33664
4425,33344
4426,33216
4427,33664
4428,34752
4429,35968
4430,38080
4431,40768
4432,43392
4433,45312
4434,45632
4435,44096
4436,41280
4437,38016
4438,35136
4439,32896
4440,31360
4441,30720
4442,30400
4443,30336
4444,30656
4445,31232
4446,31744
4447,32128
4448,32448
4449,32640
4450,33024
4451,33600
4452,33792
4453,33792
4454,33920
4455,33600
4456,32960
4457,32576
4458,32448
4459,32704
4460,33216
4461,33600
4462,33664
4463,33600
4464,33472
4465,33472
4466,33472
4467,33536
4468,33664
4469,33920
4470,34304
4471,34496
4472,34752
4473,34944
4474,34752
4475,34624
4476,34816
4477,34560
4478,34112
4479,33856
4480,33728
4481,33536
4482,33344
4483,33152
4484,33024
4485,33280
4486,33792
4487,34304
4488,34496
4489,34496
4490,34496
4491,34560
4492,34688
4493,34944
4494,35072
4495,35008
4496,35072
4497,34560
4498,33856
4499,33536
4500,33344
4501,33088
4502,32896
4503,32960
4504,33408
4505,33920
4506,34432
4507,34688
4508,34752
4509,34752
4510,34816
4511,34880
4512,34752
4513,34560
4514,34432
4515,34560
4516,34688
4517,34624
4518,34240
4519,34048
4520,33792
4521,33792
4522,34048
4523,34304
4524,34176
4525,33920
4526,33984
4527,34368
4528,34624
4529,34624
4530,34432
4531,34304
4532,34304
4533,34304
4534,34432
4535,34624
4536,34624
4537,34176
4538,33792
4539,33792
4540,33920
4541,33920
4542,33856
4543,33792
4544,33920
4545,34048
4546,34240
4547,34624
4548,34880
4549,35072
4550,35136
4551,35136
4552,35200
4553,35392
4554,35456
4555,35200
4556,35136
4557,35200
4558,34944
4559,34624
4560,34560
4561,34368
4562,33984
4563,33472
4564,33216
4565,33408
4566,33664
4567,33664
4568,33664
4569,33856
4570,33920
4571,33728
4572,33664
4573,33856
4574,34304
4575,34752
4576,34688
4577,34240
4578,33920
4579,34176
4580,34944
4581,36032
4582,37632
4583,39936
4584,42752
4585,45056
4586,46080
4587,44864
4588,41408
4589,38016
4590,35136
4591,33344
4592,32256
4593,31360
4594,30848
4595,30720
4596,30912
4597,31424
4598,32256
4599,32896
4600,33024
4601,32704
4602,32512
4603,32640
4604,32960
4605,33408
4606,33536
4607,33472
4608,33472
4609,33664
4610,34048
4611,34304
4612,34432
4613,34496
4614,34368
4615,34240
4616,34176
4617,34048
4618,33984
4619,34112
4620,34240
4621,34304
4622,34176
4623,34176
4624,34432
4625,34688
4626,34944
4627,35008
4628,34816
4629,34496
4630,34112
4631,34048
4632,34240
4633,34368
4634,34176
4635,34112
4636,34176
4637,34240
4638,34176
4639,34176
4640,34304
4641,34432
4642,34496
4643,34496
4644,34368
4645,34368
4646,34432
4647,34496
4648,34432
4649,34368
4650,34240
4651,34240
4652,34560
4653,34624
4654,34368
4655,34048
4656,33600
4657,33344
4658,33408
4659,33728
4660,34112
4661,34368
4662,34624
4663,34880
4664,35008
4665,35008
4666,34880
4667,34432
4668,34048
4669,34112
4670,34304
4671,34368
4672,34240
4673,34112
4674,34112
4675,34176
4676,34368
4677,34688
4678,34816
4679,34624
4680,34368
4681,34240
4682,34304
4683,34240
4684,33920
4685,33856
4686,34240
4687,34560
4688,34432
4689,34240
4690,34112
4691,34048
4692,33984
4693,33984
4694,34112
4695,34112
4696,33984
4697,33920
4698,34112
4699,34496
4700,34560
4701,34304
4702,34048
4703,34304
4704,34880
4705,35520
4706,35840
4707,35520
4708,34752
4709,34112
4710,33792
4711,33984
4712,34688
4713,35264
4714,35712
4715,35776
4716,35200
4717,34432
4718,33984
4719,33856
4720,33792
4721,33856
4722,33792
4723,33728
4724,33600
4725,33408
4726,33408
4727,33600
4728,33728
4729,33728
4730,33728
4731,33920
4732,34240
4733,34368
4734,34112
4735,33728
4736,33856
4737,34624
4738,35648
4739,37184
4740,39616
4741,42560
4742,44928
4743,45760
4744,44672
4745,42048
4746,39040
4747,36032
4748,33408
4749,31680
4750,30592
4751,30016
4752,30016
4753,30592
4754,31424
4755,32000
4756,32384
4757,32896
4758,33280
4759,33344
4760,33344
4761,33280
4762,33152
4763,33088
4764,33216
4765,33408
4766,33536
4767,33728
4768,33984
4769,34176
4770,34304
4771,34368
4772,34304
4773,34304
4774,34368
4775,34496
4776,34560
4777,34624
4778,34688
4779,34560
4780,34368
4781,34176
4782,34240
4783,34496
4784,34688
4785,34752
4786,34688
4787,34496
4788,34304
4789,34368
4790,34560
4791,34752
4792,34752
4793,34432
4794,34176
4795,34048
4796,34112
4797,34368
4798,34496
4799,34688
4800,34624
4801,34368
4802,34304
4803,34304
4804,34240
4805,34176
4806,34176
4807,34240
4808,34432
4809,34752
4810,34880
4811,34688
4812,34368
4813,34112
4814,33984
4815,33920
4816,33984
4817,33984
4818,34112
4819,34176
4820,34240
4821,34304
4822,34560
4823,34560
4824,34368
4825,34176
4826,34240
4827,34304
4828,34432
4829,34496
4830,34368
4831,34240
4832,34304
4833,34624
4834,34816
4835,34816
4836,34944
4837,34688
4838,34048
4839,33664
4840,33664
4841,33792
4842,34048
4843,34304
4844,34496
4845,34432
4846,34176
4847,33856
4848,33856
4849,33920
4850,33984
4851,33792
4852,33472
4853,33344
4854,33408
4855,33664
4856,33920
4857,34112
4858,34240
4859,34304
4860,34112
4861,33856
4862,33856
4863,34112
4864,34496
4865,34880
4866,35008
4867,34944
4868,34944
4869,34816
4870,34560
4871,34304
4872,34304
4873,34496
4874,34944
4875,35392
4876,35648
4877,35520
4878,35264
4879,34752
4880,34176
4881,33664
4882,33408
4883,33344
4884,33408
4885,33600
4886,33664
4887,33536
4888,33408
4889,33344
4890,33472
4891,33664
4892,33856
4893,34048
4894,33984
4895,33856
4896,33664
4897,33664
4898,33984
4899,34624
4900,35456
4901,36608
4902,38656
4903,41088
4904,43072
4905,44032
4906,43520
4907,41792
4908,39296
4909,36544
4910,34112
4911,32448
4912,31808
4913,31744
4914,31744
4915,31552
4916,31296
4917,31232
4918,31104
4919,31168
4920,31488
4921,32064
4922,32960
4923,33408
4924,33600
4925,33792
4926,34112
4927,34368
4928,34304
4929,34176
4930,33856
4931,33408
4932,33216
4933,33152
4934,33024
4935,33088
4936,33280
4937,33536
4938,33792
4939,34048
4940,34368
4941,34752
4942,35008
4943,34880
4944,34624
4945,34624
4946,34432
4947,33984
4948,33600
4949,33600
4950,33984
4951,34496
4952,34624
4953,34432
4954,34624
4955,34880
4956,34816
4957,34880
4958,34944
4959,34752
4960,34432
4961,34368
4962,34240
4963,34048
4964,33792
4965,33728
4966,33984
4967,34176
4968,34048
4969,33920
4970,33920
4971,33920
4972,33792
4973,33856
4974,34240
4975,34624
4976,34752
4977,34624
4978,34240
4979,33792
4980,33600
4981,33792
4982,34176
4983,34368
4984,34304
4985,34176
4986,34176
4987,34432
4988,34688
4989,34816
4990,35008
4991,34752
4992,34688
4993,35008
4994,34880
4995,34304
4996,33984
4997,33856
4998,34048
4999,34240
5000,33920
5001,33536
5002,33536
5003,33792
5004,34304
5005,34496
5006,34496
5007,34496
5008,34048
5009,33408
5010,33152
5011,33600
5012,33920
5013,33728
5014,33536
5015,33536
5016,33472
5017,33408
5018,33408
5019,33600
5020,33664
5021,33664
5022,33856
5023,34432
5024,34624
5025,34368
5026,33984
5027,33600
5028,33536
5029,34048
5030,34560
5031,34688
5032,34688
5033,34688
5034,34880
5035,35264
5036,35456
5037,35264
5038,34752
5039,34240
5040,33792
5041,33664
5042,33728
5043,33728
5044,33600
5045,33600
5046,33472
5047,33536
5048,33792
5049,33856
5050,33856
5051,33664
5052,33280
5053,33344
5054,33664
5055,33920
5056,33792
5057,33280
5058,32960
5059,32960
5060,33408
5061,34496
5062,35712
5063,37312
5064,39168
5065,41408
5066,43392
5067,43968
5068,42752
5069,40320
5070,37568
5071,35008
5072,33344
5073,32448
5074,31616
5075,31040
5076,30848
5077,30976
5078,31232
5079,31488
5080,31744
5081,31936
5082,32192
5083,32640
5084,33024
5085,33216
5086,33536
5087,33920
5088,33984
5089,33984
5090,33984
5091,34112
5092,34240
5093,34048
5094,33728
5095,33600
5096,33728
5097,33728
5098,33664
5099,33664
5100,33600
5101,33472
5102,33472
5103,33536
5104,33472
5105,33472
5106,33728
5107,33984
5108,34112
5109,34304
5110,34688
5111,34816
5112,34368
5113,33920
5114,33792
5115,33920
5116,33792
5117,33664
5118,33600
5119,33664
5120,33920
5121,34176
5122,34304
5123,34304
5124,34112
5125,33856
5126,33856
5127,33920
5128,34048
5129,34048
5130,34048
5131,34048
5132,33728
5133,33344
5134,33024
5135,32704
5136,32640
5137,32768
5138,33024
5139,33280
5140,33536
5141,33728
5142,33792
5143,33792
5144,33856
5145,33984
5146,33984
5147,33920
5148,33856
5149,33856
5150,33984
5151,34048
5152,34112
5153,33856
5154,33536
5155,33344
5156,33280
5157,33280
5158,33344
5159,33344
5160,33216
5161,33344
5162,33408
5163,33472
5164,33536
5165,33408
5166,33280
5167,33344
5168,33600
5169,33664
5170,33920
5171,33856
5172,33728
5173,33728
5174,33728
5175,33600
5176,33536
5177,33600
5178,33728
5179,33792
5180,33664
5181,33536
5182,33472
5183,33472
5184,33536
5185,33472
5186,33600
5187,33856
5188,34304
5189,34560
5190,34688
5191,34688
5192,34688
5193,34752
5194,34752
5195,34816
5196,34688
5197,34560
5198,34432
5199,34304
5200,34112
5201,33856
5202,33600
5203,33472
5204,33280
5205,33152
5206,33024
5207,32960
5208,33024
5209,33088
5210,33088
5211,33216
5212,33344
5213,33472
5214,33472
5215,33408
5216,33344
5217,33280
5218,33216
5219,33472
5220,34112
5221,35072
5222,36608
5223,39040
5224,41408
5225,43584
5226,44416
5227,43328
5228,40832
5229,37568
5230,34560
5231,32448
5232,31232
5233,30720
5234,30592
5235,30720
5236,30848
5237,31104
5238,31424
5239,31680
5240,32000
5241,32384
5242,32768
5243,32960
5244,33152
5245,33280
5246,33280
5247,33344
5248,33472
5249,33408
5250,33408
5251,33408
5252,33536
5253,33600
5254,33600
5255,33536
5256,33536
5257,33600
5258,33792
5259,33920
5260,33920
5261,33920
5262,33920
5263,33984
5264,34112
5265,34368
5266,34432
5267,34368
5268,34432
5269,34624
5270,34688
5271,34560
5272,34432
5273,34432
5274,34496
5275,34496
5276,34496
5277,34368
5278,34304
5279,34304
5280,34240
5281,34240
5282,34304
5283,34368
5284,34432
5285,34560
5286,34752
5287,34752
5288,34624
5289,34496
5290,34368
5291,34176
5292,33984
5293,33856
5294,33856
5295,33984
5296,34048
5297,34048
5298,34112
5299,34240
5300,34368
5301,34432
5302,34368
5303,34304
5304,34304
5305,34240
5306,34240
5307,34240
5308,34304
5309,34304
5310,34304
5311,34368
5312,34496
5313,34496
5314,34560
5315,34560
5316,34624
5317,34560
5318,34496
5319,34496
5320,34560
5321,34752
5322,34752
5323,34560
5324,34368
5325,34176
5326,34048
5327,33792
5328,33664
5329,33664
5330,33792
5331,33984
5332,34176
5333,34240
5334,34240
5335,34240
5336,34240
5337,34368
5338,34432
5339,34368
5340,34368
5341,34432
5342,34560
5343,34688
5344,34880
5345,35008
5346,35136
5347,35264
5348,35392
5349,35456
5350,35520
5351,35392
5352,35328
5353,35456
5354,35712
5355,35776
5356,35712
5357,35584
5358,35392
5359,35008
5360,34688
5361,34496
5362,34368
5363,34112
5364,33920
5365,33728
5366,33664
5367,33664
5368,33728
5369,33792
5370,33920
5371,34112
5372,34176
5373,34176
5374,34240
5375,34304
5376,34048
5377,33792
5378,34048
5379,35136
5380,36608
5381,38336
5382,40512
5383,42624
5384,44096
5385,44160
5386,42496
5387,39616
5388,36352
5389,33280
5390,31104
5391,29824
5392,29248
5393,29184
5394,29440
5395,29952
5396,30656
5397,31360
5398,32064
5399,32704
5400,33216
5401,33536
5402,33856
5403,34176
5404,34368
5405,34432
5406,34368
5407,34304
5408,34304
5409,34304
5410,34176
5411,33984
5412,33728
5413,33536
5414,33472
5415,33472
5416,33600
5417,33664
5418,33728
5419,33984
5420,34304
5421,34560
5422,34688
5423,34816
5424,34944
5425,34944
5426,35008
5427,35072
5428,35136
5429,35136
5430,35008
5431,34944
5432,34944
5433,34944
5434,34816
5435,34688
5436,34560
5437,34624
5438,34752
5439,34752
5440,34688
5441,34496
5442,34368
5443,34304
5444,34304
5445,34368
5446,34432
5447,34496
5448,34496
5449,34432
5450,34368
5451,34240
5452,34176
5453,34112
5454,34048
5455,33984
5456,33984
5457,34048
5458,34176
5459,34304
5460,34368
5461,34496
5462,34624
5463,34688
5464,34688
5465,34752
5466,34944
5467,35136
5468,35136
5469,35008
5470,35008
5471,34944
5472,34944
5473,34880
5474,34880
5475,34880
5476,34816
5477,34752
5478,34752
5479,34752
5480,34688
5481,34688
5482,34688
5483,34688
5484,34688
5485,34752
5486,34752
5487,34944
5488,35008
5489,35072
5490,35136
5491,35200
5492,35200
5493,35136
5494,35072
5495,34944
5496,35072
5497,35136
5498,35328
5499,35392
5500,35392
5501,35392
5502,35328
5503,35392
5504,35520
5505,35776
5506,35968
5507,36160
5508,36160
5509,36032
5510,35776
5511,35584
5512,35392
5513,35008
5514,34688
5515,34496
5516,34240
5517,33920
5518,33600
5519,33344
5520,33280
5521,33216
5522,33280
5523,33344
5524,33536
5525,33792
5526,33920
5527,33984
5528,33984
5529,33856
5530,33728
5531,33792
5532,34432
5533,35456
5534,36928
5535,39040
5536,41600
5537,43840
5538,44928
5539,44160
5540,42048
5541,39168
5542,36288
5543,33856
5544,32192
5545,31232
5546,30912
5547,31040
5548,31424
5549,31936
5550,32256
5551,32576
5552,32832
5553,33152
5554,33408
5555,33600
5556,33856
5557,34048
5558,34240
5559,34432
5560,34560
5561,34688
5562,34816
5563,34880
5564,35008
5565,35072
5566,35136
5567,35072
5568,35008
5569,34880
5570,34816
5571,34752
5572,34688
5573,34624
5574,34624
5575,34624
5576,34560
5577,34624
5578,34688
5579,34816
5580,34880
5581,34944
5582,34944
5583,34880
5584,34816
5585,34816
5586,34752
5587,34752
5588,34688
5589,34624
5590,34624
5591,34688
5592,34752
5593,34624
5594,34560
5595,34560
5596,34560
5597,34496
5598,34432
5599,34496
5600,34496
5601,34368
5602,34304
5603,34240
5604,34176
5605,34112
5606,34048
5607,34048
5608,34048
5609,34048
5610,34048
5611,33984
5612,33920
5613,33920
5614,33984
5615,34048
5616,34048
5617,34048
5618,34048
5619,34048
5620,34112
5621,34112
5622,34176
5623,34176
5624,34240
5625,34304
5626,34368
5627,34432
5628,34432
5629,34432
5630,34432
5631,34368
5632,34368
5633,34496
5634,34624
5635,34688
5636,34688
5637,34816
5638,34880
5639,35008
5640,35136
5641,35264
5642,35328
5643,35264
5644,35264
5645,35328
5646,35328
5647,35328
5648,35328
5649,35328
5650,35328
5651,35328
5652,35328
5653,35264
5654,35008
5655,34624
5656,34304
5657,34112
5658,33920
5659,33856
5660,33792
5661,33856
5662,33920
5663,33920
5664,33920
5665,33920
5666,33920
5667,33920
5668,33856
5669,33728
5670,33664
5671,33600
5672,33728
5673,34304
5674,35328
5675,36800
5676,38720
5677,40896
5678,42880
5679,43712
5680,42944
5681,40832
5682,38208
5683,35520
5684,33280
5685,31744
5686,30848
5687,30592
5688,30592
5689,30848
5690,31168
5691,31616
5692,31936
5693,32256
5694,32576
5695,32768
5696,32960
5697,33088
5698,33216
5699,33280
5700,33280
5701,33344
5702,33408
5703,33536
5704,33600
5705,33664
5706,33792
5707,33920
5708,34048
5709,34176
5710,34240
5711,34240
5712,34176
5713,34176
5714,34240
5715,34304
5716,34432
5717,34560
5718,34560
5719,34432
5720,34240
5721,34112
5722,34112
5723,34176
5724,34240
5725,34304
5726,34368
5727,34496
5728,34432
5729,34496
5730,34496
5731,34432
5732,34432
5733,34432
5734,34432
5735,34432
5736,34368
5737,34304
5738,34240
5739,34112
5740,34112
5741,34112
5742,34048
5743,33984
5744,33920
5745,33920
5746,33920
5747,33728
5748,33600
5749,33408
5750,33344
5751,33280
5752,33408
5753,33408
5754,33536
5755,33792
5756,33792
5757,33920
5758,33984
5759,34048
5760,34176
5761,34304
5762,34368
5763,34432
5764,34432
5765,34304
5766,34176
5767,34048
5768,33984
5769,34048
5770,34112
5771,34240
5772,34368
5773,34368
5774,34240
5775,34112
5776,34048
5777,34048
5778,34048
5779,34112
5780,34240
5781,34496
5782,34624
5783,34688
5784,34752
5785,34880
5786,35008
5787,35008
5788,35008
5789,35008
5790,35072
5791,35136
5792,35072
5793,34944
5794,34816
5795,34688
5796,34560
5797,34368
5798,34112
5799,33856
5800,33600
5801,33408
5802,33280
5803,33216
5804,33152
5805,33216
5806,33344
5807,33472
5808,33536
5809,33536
5810,33536
5811,33536
5812,33472
5813,33344
5814,33472
5815,33920
5816,34880
5817,36160
5818,37888
5819,40256
5820,42688
5821,44288
5822,44224
5823,42432
5824,39680
5825,36608
5826,33920
5827,31936
5828,30784
5829,30208
5830,30144
5831,30400
5832,30720
5833,31168
5834,31552
5835,31936
5836,32192
5837,32512
5838,32768
5839,32960
5840,33152
5841,33280
5842,33344
5843,33472
5844,33664
5845,33792
5846,33792
5847,33664
5848,33600
5849,33664
5850,33792
5851,33856
5852,33856
5853,33856
5854,33856
5855,33856
5856,33920
5857,33984
5858,33920
5859,34176
5860,34304
5861,34496
5862,34560
5863,34560
5864,34624
5865,34752
5866,34880
5867,34880
5868,34752
5869,34688
5870,34624
5871,34560
5872,34496
5873,34432
5874,34368
5875,34240
5876,34176
5877,34048
5878,34048
5879,33984
5880,33920
5881,33856
5882,33728
5883,33664
5884,33600
5885,33536
5886,33472
5887,33536
5888,33536
5889,33536
5890,33600
5891,33664
5892,33600
5893,33536
5894,33472
5895,33536
5896,33600
5897,33664
5898,33792
5899,33856
5900,33984
5901,33984
5902,34048
5903,33984
5904,33984
5905,33984
5906,34112
5907,34240
5908,34240
5909,34240
5910,34240
5911,34304
5912,34304
5913,34240
5914,34176
5915,34112
5916,34176
5917,34240
5918,34176
5919,34240
5920,34176
5921,34112
5922,34112
5923,34048
5924,34048
5925,34112
5926,34304
5927,34432
5928,34624
5929,34688
5930,34688
5931,34752
5932,34880
5933,34944
5934,34944
5935,34944
5936,34944
5937,34944
5938,34944
5939,35008
5940,35072
5941,34880
5942,34560
5943,34240
5944,33920
5945,33664
5946,33472
5947,33344
5948,33280
5949,33216
5950,33088
5951,33216
5952,33408
5953,33536
5954,33536
5955,33600
5956,33664
5957,33664
5958,33536
5959,33408
5960,33472
5961,33920
5962,35008
5963,35072
5964,37632
5965,40000
5966,42624
5967,44608
5968,44864
5969,43200
5970,40320
5971,37248
5972,34496
5973,32384
5974,31104
5975,30592
5976,30464
5977,30592
5978,30848
5979,31168
5980,31552
5981,31872
5982,32128
5983,32448
5984,32768
5985,33024
5986,33216
5987,33344
5988,33344
5989,33408
5990,33472
5991,33600
5992,33728
5993,33856
5994,33920
5995,33984
5996,33984
5997,33984
5998,34048
5999,34112
6000,34176
6001,34240
6002,34304
6003,34368
6004,34368
6005,34368
6006,34304
6007,34432
6008,34368
6009,34624
6010,34816
6011,34880
6012,34944
6013,34880
6014,34880
6015,34816
6016,34816
6017,34816
6018,34816
6019,34752
6020,34624
6021,34496
6022,34368
6023,34304
6024,34240
6025,34176
6026,34112
6027,34048
6028,34048
6029,33984
6030,33920
6031,33856
6032,33792
6033,33728
6034,33600
6035,33536
6036,33600
6037,33600
6038,33600
6039,33664
6040,33728
6041,33792
6042,33856
6043,33920
6044,33984
6045,33984
6046,33920
6047,33920
6048,34048
6049,34112
6050,34240
6051,34368
6052,34368
6053,34432
6054,34432
6055,34432
6056,34368
6057,34368
6058,34368
6059,34368
6060,34368
6061,34432
6062,34432
6063,34496
6064,34432
6065,34368
6066,34304
6067,34240
6068,34176
6069,34304
6070,34432
6071,34496
6072,34496
6073,34496
6074,34496
6075,34560
6076,34624
6077,34752
6078,34944
6079,35072
6080,35072
6081,35072
6082,35072
6083,35008
6084,34880
6085,34880
6086,34880
6087,34688
6088,34432
6089,34048
6090,33792
6091,33600
6092,33408
6093,33344
6094,33344
6095,33408
6096,33344
6097,33344
6098,33472
6099,33600
6100,33664
6101,33600
6102,33536
6103,33408
6104,33344
6105,33344
6106,33664
6107,34496
6108,35584
6109,37056
6110,39168
6111,41664
6112,43776
6113,44416
6114,43328
6115,40896
6116,37888
6117,34944
6118,32576
6119,31104
6120,30336
6121,30144
6122,30272
6123,30784
6124,31296
6125,31680
6126,32064
6127,32320
6128,32640
6129,32832
6130,32960
6131,33152
6132,33280
6133,33408
6134,33472
6135,33536
6136,33536
6137,33600
6138,33600
6139,33664
6140,33792
6141,33792
6142,33792
6143,33792
6144,33792
6145,33856
6146,33856
6147,33856
6148,33984
6149,34112
6150,34176
6151,34240
6152,34368
6153,34496
6154,34624
6155,34688
6156,34752
6157,34816
6158,34752
6159,34624
6160,34560
6161,34624
6162,34496
6163,34368
6164,34368
6165,34304
6166,34304
6167,34240
6168,34240
6169,34176
6170,34048
6171,33920
6172,33856
6173,33792
6174,33664
6175,33600
6176,33536
6177,33472
6178,33408
6179,33408
6180,33408
6181,33472
6182,33536
6183,33536
6184,33536
6185,33600
6186,33664
6187,33728
6188,33728
6189,33664
6190,33728
6191,33792
6192,33920
6193,33984
6194,34048
6195,34176
6196,34176
6197,34112
6198,34048
6199,34048
6200,34048
6201,34048
6202,34112
6203,34112
6204,34176
6205,34176
6206,34240
6207,34240
6208,34176
6209,34112
6210,34048
6211,34048
6212,34176
6213,34176
6214,34112
6215,34112
6216,34048
6217,34112
6218,34112
6219,34112
6220,34112
6221,34112
6222,34048
6223,34112
6224,34112
6225,34112
6226,34048
6227,33984
6228,34048
6229,34176
6230,34368
6231,34560
6232,34688
6233,34688
6234,34624
6235,34624
6236,34688
6237,34752
6238,34752
6239,34752
6240,34816
6241,34752
6242,34624
6243,34496
6244,34432
6245,34304
6246,34176
6247,33920
6248,33728
6249,33600
6250,33472
6251,33408
6252,33408
6253,33408
6254,33408
6255,33472
6256,33472
6257,33536
6258,33536
6259,33472
6260,33472
6261,33408
6262,33408
6263,33472
6264,33856
6265,34688
6266,35904
6267,37568
6268,40448
6269,42496
6270,44288
6271,44672
6272,43072
6273,40256
6274,37056
6275,34176
6276,32064
6277,30912
6278,30336
6279,30208
6280,30272
6281,30528
6282,30976
6283,31552
6284,31872
6285,32192
6286,32512
6287,32768
6288,33088
6289,33280
6290,33408
6291,33408
6292,33408
6293,33472
6294,33600
6295,33664
6296,33664
6297,33664
6298,33664
6299,33728
6300,33792
6301,33856
6302,33920
6303,33984
6304,34048
6305,34112
6306,34112
6307,34176
6308,34240
6309,34240
6310,34304
6311,34432
6312,34560
6313,34624
6314,34752
6315,34816
6316,34816
6317,34752
6318,34752
6319,34752
6320,34752
6321,34752
6322,34624
6323,34432
6324,34240
6325,34240
6326,34176
6327,34048
6328,33984
6329,33984
6330,33920
6331,33856
6332,33792
6333,33664
6334,33536
6335,33472
6336,33472
6337,33472
6338,33472
6339,33472
6340,33536
6341,33536
6342,33472
6343,33536
6344,33536
6345,33664
6346,33728
6347,33664
6348,33664
6349,33664
6350,33536
6351,33344
6352,33472
6353,33664
6354,33856
6355,33984
6356,34304
6357,34560
6358,34752
6359,34816
6360,34880
6361,34816
6362,34624
6363,34432
6364,34368
6365,34304
6366,34240
6367,34240
6368,34176
6369,34048
6370,33984
6371,33984
6372,33920
6373,33984
6374,34048
6375,34112
6376,34176
6377,34240
6378,34176
6379,34112
6380,34048
6381,34048
6382,34048
6383,34048
6384,34048
6385,34176
6386,34240
6387,34240
6388,34304
6389,34368
6390,34496
6391,34496
6392,34560
6393,34624
6394,34752
6395,34816
6396,34624
6397,34432
6398,34304
6399,34240
6400,34304
6401,34304
6402,34240
6403,34176
6404,34112
6405,33984
6406,33792
6407,33792
6408,33728
6409,33600
6410,33472
6411,33344
6412,33152
6413,33088
6414,33088
6415,33152
6416,33280
6417,33280
6418,33344
6419,33600
6420,34112
6421,35008
6422,36160
6423,38272
6424,40192
6425,42432
6426,44224
6427,44416
6428,42688
6429,39936
6430,36736
6431,33856
6432,31872
6433,30656
6434,30080
6435,30080
6436,30336
6437,30784
6438,31296
6439,32000
6440,32576
6441,32960
6442,33024
6443,32960
6444,33024
6445,33024
6446,32960
6447,32896
6448,32960
6449,33152
6450,33344
6451,33536
6452,33664
6453,33792
6454,33984
6455,34048
6456,34112
6457,34048
6458,34048
6459,34048
6460,33984
6461,34048
6462,34048
6463,33984
6464,33920
6465,33920
6466,34048
6467,34176
6468,34368
6469,34496
6470,34688
6471,34816
6472,34880
6473,34816
6474,34688
6475,34560
6476,34496
6477,34432
6478,34368
6479,34304
6480,34240
6481,34112
6482,34048
6483,33984
6484,33984
6485,34048
6486,33984
6487,33856
6488,33728
6489,33664
6490,33728
6491,33728
6492,33728
6493,33600
6494,33472
6495,33408
6496,33472
6497,33472
6498,33536
6499,33600
6500,33664
6501,33664
6502,33728
6503,33728
6504,33728
6505,33728
6506,33728
6507,33728
6508,33664
6509,33600
6510,33664
6511,33792
6512,33920
6513,33984
6514,34048
6515,34176
6516,34304
6517,34432
6518,34432
6519,34432
6520,34368
6521,34240
6522,34112
6523,34112
6524,34112
6525,34240
6526,34304
6527,34432
6528,34432
6529,34368
6530,34304
6531,34176
6532,34112
6533,34048
6534,33920
6535,33920
6536,33984
6537,34048
6538,34048
6539,34048
6540,34048
6541,34112
6542,34048
6543,34048
6544,34048
6545,34048
6546,33984
6547,34048
6548,34176
6549,34240
6550,34432
6551,34624
6552,34880
6553,35008
6554,35072
6555,35072
6556,35008
6557,35008
6558,35008
6559,35072
6560,35200
6561,35328
6562,35200
6563,35008
6564,34752
6565,34432
6566,34048
6567,33664
6568,33216
6569,33024
6570,32832
6571,32704
6572,32768
6573,32896
6574,33088
6575,33344
6576,33600
6577,33856
6578,34112
6579,34368
6580,34560
6581,34624
6582,34432
6583,33920
6584,33664
6585,33536
6586,33856
6587,34752
6588,36032
6589,37824
6590,40384
6591,43264
6592,45504
6593,46016
6594,44288
6595,41152
6596,37760
6597,34688
6598,32576
6599,31296
6600,30656
6601,30528
6602,30720
6603,31232
6604,31488
6605,31936
6606,32384
6607,32768
6608,33216
6609,33600
6610,33984
6611,34304
6612,34688
6613,35008
6614,35392
6615,35648
6616,35840
6617,36032
6618,36096
6619,36096
6620,36096
6621,36032
6622,35968
6623,35840
6624,35776
6625,35712
6626,35520
6627,35328
6628,35264
6629,35328
6630,35392
6631,35520
6632,35648
6633,35840
6634,35776
6635,35712
6636,35712
6637,35712
6638,35712
6639,35648
6640,35648
6641,35648
6642,35584
6643,35584
6644,35520
6645,35456
6646,35456
6647,35392
6648,35328
6649,35200
6650,35136
6651,35072
6652,35008
6653,34944
6654,34816
6655,34752
6656,34688
6657,34624
6658,34496
6659,34368
6660,34304
6661,34304
6662,34240
6663,34240
6664,34240
6665,34304
6666,34368
6667,34432
6668,34432
6669,34432
6670,34432
6671,34432
6672,34496
6673,34560
6674,34560
6675,34496
6676,34432
6677,34432
6678,34368
6679,34368
6680,34368
6681,34368
6682,34368
6683,34368
6684,34368
6685,34368
6686,34432
6687,34432
6688,34432
6689,34368
6690,34368
6691,34304
6692,34304
6693,34240
6694,34176
6695,34176
6696,34176
6697,34176
6698,34176
6699,34112
6700,34112
6701,34048
6702,34048
6703,34048
6704,34048
6705,34048
6706,34048
6707,34048
6708,33984
6709,33920
6710,33984
6711,33984
6712,33920
6713,33920
6714,33920
6715,34048
6716,34112
6717,34176
6718,34240
6719,34368
6720,34496
6721,34624
6722,34752
6723,34816
6724,34752
6725,34688
6726,34560
6727,34560
6728,34624
6729,34880
6730,34880
6731,34816
6732,34624
6733,34432
6734,34240
6735,33984
6736,33792
6737,33536
6738,33216
6739,33088
6740,32896
6741,32640
6742,32640
6743,32832
6744,33088
6745,33152
6746,33024
6747,33024
6748,33024
6749,33024
6750,32960
6751,32512
6752,32384
6753,32256
6754,32192
6755,33152
6756,34944
6757,37440
6758,40512
6759,42304
6760,44160
6761,44480
6762,42688
6763,39744
6764,36608
6765,33728
6766,31552
6767,30336
6768,29760
6769,29568
6770,29760
6771,30400
6772,30912
6773,31360
6774,31488
6775,31552
6776,31616
6777,31680
6778,31808
6779,32192
6780,32704
6781,33216
6782,33600
6783,34112
6784,34560
6785,34752
6786,34752
6787,34560
6788,34368
6789,34368
6790,34304
6791,34368
6792,34304
6793,34176
6794,34112
6795,34112
6796,34112
6797,33984
6798,33856
6799,33280
6800,33024
6801,33472
6802,34048
6803,34560
6804,34880
6805,34944
6806,34880
6807,34688
6808,34368
6809,34176
6810,33984
6811,33664
6812,33216
6813,32768
6814,32320
6815,31808
6816,31552
6817,31488
6818,31424
6819,31552
6820,31488
6821,31488
6822,31488
6823,31360
6824,31232
6825,31104
6826,31104
6827,31040
6828,31040
6829,31040
6830,30976
6831,31040
6832,31040
6833,30976
6834,30912
6835,30912
6836,31040
6837,31040
6838,30976
6839,31168
6840,31424
6841,31744
6842,31936
6843,32064
6844,32128
6845,32128
6846,32128
6847,32192
6848,32256
6849,32320
6850,32320
6851,32384
6852,32448
6853,32448
6854,32512
6855,32576
6856,32576
6857,32512
6858,32384
6859,32320
6860,32448
6861,32384
6862,32384
6863,32256
6864,32256
6865,32256
6866,32192
6867,31936
6868,32064
6869,32128
6870,32384
6871,32832
6872,33280
6873,33536
6874,33472
6875,33344
6876,33408
6877,33472
6878,33472
6879,33408
6880,33280
6881,33152
6882,33216
6883,33280
6884,33536
6885,33728
6886,33984
6887,34112
6888,34176
6889,34240
6890,34176
6891,34176
6892,34240
6893,34368
6894,34496
6895,34496
6896,34432
6897,34240
6898,34176
6899,33920
6900,33792
6901,33728
6902,33600
6903,33536
6904,33408
6905,33216
6906,33152
6907,33216
6908,33280
6909,33344
6910,33344
6911,33344
6912,33280
6913,33216
6914,33216
6915,33216
6916,33088
6917,32960
6918,33088
6919,33664
6920,34752
6921,36160
6922,38208
6923,40768
6924,43136
6925,43968
6926,43072
6927,40640
6928,37568
6929,34624
6930,32320
6931,30976
6932,30336
6933,30080
6934,30080
6935,30336
6936,30720
6937,31040
6938,31360
6939,31616
6940,32000
6941,32448
6942,32896
6943,33216
6944,33472
6945,33600
6946,33792
6947,33920
6948,33984
6949,34048
6950,34112
6951,34240
6952,34368
6953,34560
6954,34752
6955,34816
6956,34880
6957,34880
6958,34816
6959,34816
6960,34880
6961,35072
6962,35200
6963,35200
6964,35200
6965,35264
6966,35328
6967,35520
6968,35840
6969,36032
6970,35904
6971,35648
6972,35520
6973,35520
6974,35456
6975,35328
6976,35392
6977,35392
6978,35328
6979,35328
6980,35328
6981,35328
6982,35264
6983,35136
6984,35008
6985,35072
6986,35136
6987,35072
6988,34880
6989,34688
6990,34688
6991,34880
6992,35072
6993,35008
6994,34752
6995,34368
6996,34112
6997,34240
6998,34560
6999,34688
7000,34496
7001,34432
7002,34624
7003,34560
7004,34560
7005,34496
7006,34496
7007,34496
7008,34624
7009,34944
7010,35264
7011,35392
7012,35328
7013,35328
7014,35328
7015,35264
7016,35200
7017,35136
7018,35008
7019,34944
7020,34880
7021,34816
7022,34752
7023,34752
7024,34752
7025,34752
7026,34816
7027,34944
7028,34944
7029,34816
7030,34624
7031,34560
7032,34560
7033,34560
7034,34560
7035,34688
7036,34752
7037,34816
7038,34816
7039,34880
7040,35072
7041,35328
7042,35584
7043,35584
7044,35520
7045,35392
7046,35328
7047,35264
7048,35328
7049,35456
7050,35456
7051,35264
7052,35136
7053,35136
7054,34816
7055,34368
7056,34048
7057,33792
7058,33600
7059,33536
7060,33536
7061,33728
7062,33920
7063,33792
7064,33728
7065,33856
7066,34304
7067,34752
7068,35072
7069,35264
7070,35136
7071,34816
7072,34560
7073,34240
7074,34112
7075,34432
7076,35648
7077,37504
7078,39936
7079,42368
7080,44096
7081,44288
7082,43072
7083,40576
7084,37632
7085,35264
7086,33792
7087,32832
7088,32384
7089,32000
7090,31616
7091,31360
7092,31488
7093,31936
7094,32320
7095,32704
7096,32960
7097,33408
7098,33792
7099,34048
7100,34048
7101,33984
7102,33984
7103,33984
7104,33984
7105,33920
7106,33920
7107,34176
7108,34304
7109,34432
7110,34688
7111,34944
7112,35136
7113,35200
7114,35264
7115,35456
7116,35328
7117,35328
7118,35520
7119,36160
7120,36416
7121,36416
7122,36032
7123,35264
7124,34944
7125,35136
7126,35328
7127,35136
7128,34880
7129,34624
7130,34560
7131,34688
7132,34816
7133,35008
7134,35328
7135,35392
7136,35200
7137,35008
7138,34880
7139,34944
7140,34880
7141,34816
7142,34752
7143,34752
7144,34816
7145,35008
7146,34880
7147,34816
7148,34624
7149,34496
7150,34240
7151,34176
7152,33920
7153,33728
7154,33728
7155,33792
7156,33920
7157,34048
7158,34112
7159,34112
7160,34240
7161,34368
7162,34496
7163,34560
7164,34496
7165,34368
7166,34176
7167,34240
7168,34560
7169,34496
7170,34304
7171,34112
7172,33984
7173,33856
7174,33920
7175,33984
7176,33920
7177,33856
7178,33984
7179,34048
7180,34176
7181,34304
7182,34432
7183,34752
7184,34880
7185,34432
7186,33856
7187,33600
7188,33472
7189,33344
7190,33280
7191,33344
7192,33472
7193,33664
7194,33920
7195,34240
7196,34496
7197,34624
7198,34752
7199,34880
7200,34816
7201,34688
7202,34816
7203,34816
7204,34816
7205,34880
7206,35200
7207,35328
7208,35008
7209,34368
7210,33920
7211,33472
7212,33216
7213,33152
7214,33152
7215,33088
7216,33216
7217,33344
7218,33472
7219,33600
7220,33792
7221,33984
7222,33984
7223,33984
7224,33856
7225,33664
7226,33600
7227,33856
7228,34496
7229,35392
7230,36672
7231,38656
7232,41280
7233,43840
7234,45248
7235,44736
7236,42560
7237,39424
7238,36096
7239,33472
7240,31872
7241,31104
7242,30848
7243,30912
7244,31232
7245,31616
7246,32064
7247,32448
7248,32768
7249,33088
7250,33216
7251,33408
7252,33664
7253,34048
7254,34304
7255,34560
7256,34816
7257,34944
7258,34880
7259,34752
7260,34624
7261,34432
7262,34240
7263,34240
7264,34496
7265,34880
7266,35200
7267,35328
7268,35392
7269,35712
7270,35904
7271,35904
7272,35328
7273,35008
7274,34880
7275,34944
7276,35008
7277,35200
7278,35328
7279,35392
7280,35520
7281,35456
7282,35392
7283,35136
7284,35072
7285,35328
7286,35136
7287,35072
7288,35136
7289,35200
7290,35072
7291,34624
7292,34176
7293,33984
7294,33920
7295,33664
7296,33408
7297,33088
7298,33152
7299,33280
7300,33088
7301,32896
7302,33024
7303,33088
7304,32768
7305,32448
7306,32320
7307,31808
7308,31616
7309,31296
7310,30784
7311,30400
7312,30400
7313,30528
7314,30464
7315,30656
7316,30912
7317,30976
7318,30848
7319,30848
7320,31168
7321,31424
7322,31488
7323,31360
7324,31104
7325,30848
7326,30848
7327,30848
7328,31040
7329,31168
7330,31104
7331,31168
7332,31040
7333,30912
7334,31232
7335,31424
7336,31040
7337,30976
7338,31296
7339,31360
7340,31744
7341,31936
7342,31808
7343,31680
7344,31488
7345,31936
7346,32384
7347,32640
7348,32512
7349,32768
7350,33216
7351,33792
7352,34496
7353,34752
7354,34880
7355,35264
7356,35712
7357,35840
7358,35456
7359,34944
7360,34624
7361,34176
7362,33920
7363,33344
7364,32448
7365,32064
7366,31936
7367,31424
7368,31424
7369,31744
7370,32128
7371,32576
7372,33088
7373,33664
7374,34176
7375,34752
7376,35328
7377,35392
7378,35136
7379,35072
7380,35328
7381,35776
7382,36096
7383,36672
7384,38080
7385,40256
7386,42560
7387,44288
7388,44416
7389,42752
7390,40832
7391,38528
7392,36416
7393,35008
7394,34112
7395,33728
7396,33728
7397,33536
7398,32960
7399,32640
7400,32576
7401,33088
7402,33920
7403,34112
7404,33984
7405,33984
7406,34368
7407,35264
7408,35328
7409,34944
7410,34304
7411,33600
7412,33024
7413,32320
7414,31552
7415,31168
7416,30976
7417,30848
7418,30976
7419,31424
7420,31680
7421,32064
7422,32704
7423,33024
7424,32960
7425,32384
7426,31552
7427,30912
7428,31104
7429,31744
7430,31680
7431,31296
7432,31296
7433,31296
7434,31104
7435,31296
7436,32256
7437,33280
7438,34240
7439,34496
7440,34304
7441,33984
7442,33856
7443,33984
7444,33920
7445,33792
7446,33792
7447,33920
7448,33472
7449,32640
7450,31808
7451,30976
7452,30464
7453,30592
7454,30912
7455,31104
7456,30912
7457,30080
7458,29056
7459,28288
7460,27776
7461,27584
7462,27904
7463,28416
7464,29120
7465,30336
7466,32256
7467,34432
7468,36288
7469,37696
7470,38784
7471,39680
7472,40704
7473,41536
7474,41920
7475,41536
7476,40576
7477,39360
7478,38144
7479,36800
7480,35520
7481,34624
7482,34176
7483,33792
7484,33408
7485,33088
7486,32512
7487,32256
7488,32576
7489,33280
7490,34624
7491,36032
7492,36864
7493,37056
7494,36480
7495,35840
7496,35072
7497,34304
7498,34048
7499,34496
7500,35200
7501,35648
7502,35712
7503,35648
7504,35136
7505,34496
7506,33536
7507,32576
7508,32384
7509,32704
7510,32832
7511,32768
7512,32896
7513,33152
7514,33344
7515,33344
7516,33280
7517,33216
7518,33344
7519,33600
7520,33920
7521,34432
7522,34944
7523,35648
7524,36736
7525,37824
7526,39424
7527,41728
7528,47360
7529,48256
7530,46976
7531,44032
7532,40384
7533,36800
7534,33792
7535,31552
7536,30016
7537,28992
7538,28352
7539,28288
7540,28224
7541,28416
7542,28736
7543,28736
7544,29120
7545,29248
7546,29568
7547,29824
7548,30080
7549,30400
7550,31104
7551,31808
7552,32448
7553,33088
7554,33152
7555,33664
7556,35008
7557,35072
7558,34880
7559,34688
7560,34816
7561,35008
7562,34944
7563,35008
7564,35264
7565,35648
7566,36224
7567,36928
7568,37504
7569,37952
7570,38400
7571,39104
7572,40192
7573,40320
7574,41280
7575,41152
7576,40832
7577,40000
7578,38720
7579,37440
7580,36288
7581,35264
7582,34560
7583,34112
7584,33984
7585,33728
7586,32256
7587,31424
7588,30528
7589,29696
7590,29248
7591,29376
7592,29888
7593,29824
7594,29504
7595,29824
7596,30336
7597,30400
7598,30144
7599,30144
7600,30144
7601,29824
7602,29376
7603,29056
7604,28864
7605,28864
7606,29056
7607,29248
7608,29504
7609,29952
7610,30144
7611,30272
7612,30464
7613,31168
7614,31680
7615,31616
7616,31424
7617,31552
7618,31616
7619,31872
7620,32128
7621,32384
7622,32640
7623,32960
7624,33536
7625,34432
7626,35520
7627,36352
7628,36992
7629,37504
7630,37376
7631,36800
7632,36416
7633,35968
7634,35008
7635,34368
7636,34176
7637,34240
7638,34432
7639,34752
7640,35200
7641,35648
7642,35648
7643,35328
7644,35328
7645,35136
7646,34496
7647,33920
7648,33344
7649,32960
7650,32576
7651,32448
7652,32896
7653,33728
7654,34048
7655,33536
7656,32640
7657,32128
7658,32064
7659,32064
7660,32000
7661,31936
7662,32000
7663,32832
7664,34432
7665,36928
7666,39872
7667,42624
7668,44224
7669,44032
7670,42304
7671,39680
7672,36928
7673,34560
7674,33280
7675,33024
7676,33024
7677,32960
7678,33088
7679,33216
7680,33408
7681,34432
7682,35776
7683,36800
7684,37568
7685,38080
7686,38080
7687,37632
7688,35648
7689,35264
7690,32256
7691,31296
7692,31232
7693,31936
7694,32832
7695,33344
7696,33664
7697,34240
7698,34560
7699,34816
7700,35200
7701,35584
7702,35968
7703,35840
7704,35712
7705,34688
7706,34368
7707,33984
7708,33920
7709,34176
7710,34368
7711,34112
7712,34048
7713,34176
7714,33856
7715,33472
7716,33152
7717,33088
7718,33088
7719,33152
7720,33344
7721,33408
7722,33472
7723,33664
7724,33856
7725,33792
7726,33600
7727,33536
7728,33600
7729,33472
7730,33216
7731,32896
7732,32576
7733,32576
7734,32512
7735,33024
7736,33920
7737,34688
7738,35200
7739,35648
7740,35904
7741,35840
7742,35968
7743,36736
7744,37120
7745,36992
7746,36608
7747,35840
7748,35008
7749,34944
7750,35136
7751,35520
7752,35904
7753,36032
7754,35840
7755,35712
7756,35968
7757,35904
7758,35904
7759,36032
7760,36160
7761,36224
7762,36608
7763,37312
7764,37312
7765,37376
7766,37504
7767,37824
7768,38016
7769,37888
7770,37440
7771,36608
7772,35648
7773,35136
7774,35008
7775,35520
7776,36160
7777,36480
7778,36672
7779,36928
7780,37248
7781,37440
7782,36864
7783,36224
7784,35712
7785,35712
7786,35904
7787,35904
7788,35520
7789,34880
7790,34624
7791,34560
7792,34688
7793,34688
7794,34624
7795,34240
7796,33984
7797,33792
7798,33856
7799,34368
7800,35200
7801,36416
7802,38144
7803,40512
7804,43264
7805,45632
7806,46656
7807,45760
7808,41856
7809,41344
7810,36160
7811,33472
7812,31552
7813,30464
7814,29888
7815,29760
7816,30144
7817,30592
7818,30784
7819,31040
7820,31424
7821,31488
7822,31424
7823,31744
7824,31808
7825,31872
7826,32192
7827,32512
7828,32832
7829,33216
7830,33408
7831,33536
7832,33472
7833,33344
7834,32832
7835,32384
7836,32064
7837,31744
7838,31616
7839,31616
7840,32192
7841,32576
7842,32896
7843,33280
7844,33664
7845,34048
7846,34240
7847,34496
7848,34560
7849,34368
7850,34304
7851,34240
7852,34304
7853,34240
7854,34176
7855,33920
7856,33792
7857,33728
7858,33856
7859,33792
7860,33728
7861,33536
7862,33344
7863,33344
7864,33472
7865,33664
7866,33600
7867,33344
7868,33088
7869,32896
7870,32960
7871,33024
7872,33024
7873,33216
7874,33600
7875,33728
7876,33664
7877,33600
7878,33600
7879,33472
7880,33280
7881,33280
7882,33344
7883,33472
7884,33408
7885,33152
7886,32896
7887,32768
7888,32896
7889,33216
7890,33536
7891,33728
7892,33792
7893,33856
7894,33984
7895,34048
7896,34112
7897,34048
7898,34432
7899,34496
7900,34752
7901,34624
7902,34624
7903,34560
7904,34560
7905,34560
7906,34432
7907,34432
7908,34624
7909,34752
7910,34816
7911,34560
7912,34368
7913,34240
7914,34176
7915,34304
7916,34176
7917,33920
7918,33664
7919,33728
7920,33600
7921,33408
7922,33536
7923,33664
7924,33728
7925,33600
7926,33536
7927,33536
7928,33536
7929,33472
7930,33472
7931,33280
7932,32832
7933,32576
7934,32512
7935,32448
7936,32640
7937,33024
7938,33728
7939,34752
7940,36096
7941,38336
7942,41152
7943,44160
7944,44224
7945,43776
7946,41472
7947,38528
7948,35648
7949,33344
7950,31744
7951,30912
7952,30784
7953,31040
7954,31424
7955,32000
7956,32512
7957,32896
7958,33088
7959,33024
7960,33344
7961,33536
7962,33600
7963,33600
7964,33600
7965,33344
7966,32896
7967,32512
7968,32512
7969,32896
7970,33280
7971,33472
7972,33408
7973,33024
7974,32896
7975,32768
7976,32896
7977,33024
7978,33216
7979,33344
7980,33408
7981,33472
7982,33472
7983,33408
7984,33280
7985,33344
7986,33600
7987,33792
7988,33920
7989,33984
7990,33984
7991,34176
7992,34304
7993,34176
7994,34048
7995,33920
7996,33536
7997,33024
7998,32704
7999,32640
8000,32704
8001,32896
8002,32896
8003,32576
8004,32512
8005,31680
8006,31424
8007,31424
8008,31552
8009,31936
8010,32192
8011,32512
8012,33024
8013,33792
8014,34560
8015,35072
8016,35264
8017,35264
8018,34752
8019,34624
8020,34112
8021,33984
8022,34048
8023,34240
8024,34496
8025,34752
8026,35136
8027,35328
8028,35328
8029,34944
8030,34432
8031,34368
8032,34752
8033,35392
8034,35776
8035,36096
8036,36352
8037,36608
8038,36800
8039,36928
8040,36928
8041,36800
8042,36672
8043,36480
8044,36480
8045,36544
8046,36480
8047,36224
8048,35840
8049,35712
8050,35264
8051,35072
8052,34752
8053,34368
8054,33920
8055,33600
8056,33344
8057,33088
8058,32704
8059,32576
8060,32640
8061,33024
8062,33472
8063,33856
8064,33792
8065,33856
8066,33536
8067,33152
8068,32768
8069,32448
8070,32320
8071,32192
8072,32256
8073,32704
8074,33600
8075,34816
8076,36608
8077,38912
8078,42368
8079,42560
8080,43328
8081,41472
8082,38336
8083,34880
8084,31808
8085,29760
8086,28864
8087,28672
8088,28736
8089,29056
8090,29568
8091,30464
8092,31232
8093,31936
8094,32320
8095,32576
8096,32512
8097,32320
8098,32192
8099,32320
8100,32640
8101,32960
8102,33088
8103,33152
8104,33344
8105,33536
8106,33536
8107,33344
8108,32768
8109,32704
8110,32448
8111,32448
8112,32448
8113,32576
8114,32832
8115,33024
8116,33280
8117,33600
8118,33920
8119,34112
8120,34176
8121,34048
8122,33920
8123,33920
8124,33920
8125,33984
8126,33920
8127,33728
8128,33600
8129,33536
8130,33792
8131,34048
8132,33984
8133,33856
8134,33856
8135,33728
8136,33472
8137,33280
8138,33152
8139,33088
8140,33152
8141,33280
8142,33344
8143,33344
8144,33344
8145,33344
8146,33216
8147,33024
8148,32640
8149,32320
8150,31936
8151,32064
8152,32704
8153,33664
8154,33728
8155,34176
8156,34240
8157,34304
8158,34240
8159,34112
8160,34112
8161,34240
8162,34432
8163,34560
8164,34752
8165,34688
8166,34560
8167,34496
8168,34048
8169,33984
8170,33728
8171,33792
8172,34112
8173,34368
8174,34368
8175,34176
8176,33984
8177,33856
8178,33920
8179,34176
8180,34432
8181,34560
8182,34752
8183,35072
8184,35008
8185,34368
8186,33920
8187,33920
8188,33984
8189,34240
8190,34240
8191,33664
8192,33152
8193,32896
8194,32448
8195,32064
8196,32256
8197,32384
8198,32064
8199,31872
8200,31808
8201,31936
8202,32000
8203,31936
8204,32192
8205,32960
8206,33920
8207,34560
8208,34560
8209,33536
8210,32640
8211,32448
8212,33088
8213,34368
8214,36352
8215,38400
8216,40960
8217,43072
8218,43712
8219,42560
8220,40704
8221,38144
8222,34752
8223,32576
8224,30976
8225,29120
8226,27840
8227,27904
8228,28800
8229,30016
8230,31040
8231,31744
8232,32256
8233,32960
8234,34112
8235,35264
8236,35712
8237,34752
8238,34240
8239,34688
8240,34432
8241,32896
8242,31680
8243,31296
8244,31232
8245,31616
8246,32128
8247,33024
8248,34048
8249,34432
8250,34304
8251,34496
8252,34944
8253,35456
8254,35840
8255,35200
8256,33792
8257,32640
8258,33216
8259,35200
8260,35392
8261,34496
8262,34048
8263,33664
8264,33408
8265,33408
8266,33472
8267,33536
8268,33920
8269,34688
8270,35456
8271,35584
8272,34880
8273,34176
8274,34240
8275,35456
8276,35776
8277,34752
8278,33152
8279,32000
8280,31552
8281,31488
8282,31552
8283,32064
8284,32960
8285,34240
8286,34816
8287,33792
8288,32704
8289,32448
8290,32448
8291,33152
8292,34112
8293,33792
8294,32896
8295,32832
8296,34368
8297,35392
8298,33856
8299,32384
8300,31936
8301,32128
8302,32704
8303,33216
8304,33600
8305,34048
8306,34368
8307,34560
8308,34880
8309,35328
8310,35392
8311,35264
8312,34560
8313,34112
8314,34240
8315,34176
8316,33984
8317,33984
8318,33920
8319,34048
8320,34304
8321,35072
8322,35904
8323,36800
8324,37056
8325,36608
8326,35904
8327,35008
8328,34240
8329,33920
8330,33984
8331,33984
8332,33792
8333,33600
8334,33600
8335,33664
8336,33280
8337,33152
8338,33280
8339,33600
8340,34304
8341,34176
8342,33536
8343,33088
8344,33088
8345,33088
8346,32704
8347,32576
8348,33216
8349,34624
8350,36544
8351,39296
8352,42432
8353,44800
8354,45888
8355,44800
8356,41984
8357,38272
8358,34816
8359,32256
8360,30592
8361,29568
8362,28928
8363,28928
8364,29440
8365,29952
8366,30784
8367,31872
8368,31872
8369,31552
8370,31360
8371,31232
8372,31360
8373,31552
8374,31680
8375,31680
8376,31936
8377,32320
8378,32640
8379,32768
8380,32576
8381,32704
8382,33152
8383,33408
8384,33344
8385,33280
8386,33216
8387,33152
8388,33216
8389,33408
8390,33408
8391,33216
8392,32960
8393,32832
8394,32832
8395,32960
8396,33152
8397,33344
8398,33536
8399,33600
8400,33600
8401,33792
8402,34048
8403,34176
8404,34048
8405,33792
8406,33664
8407,33536
8408,33472
8409,33536
8410,33600
8411,33472
8412,33408
8413,33408
8414,33472
8415,33344
8416,33216
8417,33024
8418,32896
8419,32832
8420,32832
8421,32832
8422,32832
8423,32896
8424,32960
8425,32960
8426,33024
8427,33216
8428,33280
8429,33152
8430,33024
8431,32960
8432,33024
8433,33280
8434,33536
8435,33728
8436,33920
8437,33984
8438,33984
8439,34048
8440,33920
8441,33856
8442,33856
8443,33920
8444,33984
8445,33856
8446,33728
8447,33536
8448,33472
8449,33472
8450,33600
8451,33856
8452,34176
8453,34432
8454,34496
8455,34432
8456,34624
8457,34944
8458,35072
8459,34944
8460,34880
8461,34880
8462,34816
8463,34752
8464,35008
8465,35136
8466,34880
8467,34432
8468,34048
8469,33664
8470,33408
8471,33280
8472,33280
8473,33216
8474,33024
8475,32896
8476,32960
8477,33088
8478,33216
8479,33344
8480,33536
8481,33728
8482,33856
8483,33792
8484,33664
8485,33728
8486,33984
8487,34496
8488,35392
8489,36992
8490,39488
8491,42560
8492,45056
8493,45824
8494,44480
8495,41536
8496,38144
8497,35008
8498,32640
8499,31040
8500,30208
8501,29824
8502,29952
8503,30272
8504,30656
8505,31104
8506,31552
8507,31872
8508,32000
8509,32256
8510,32512
8511,32768
8512,32960
8513,33088
8514,33152
8515,33152
8516,33152
8517,33280
8518,33344
8519,33408
8520,33408
8521,33472
8522,33472
8523,33536
8524,33664
8525,33728
8526,33792
8527,33728
8528,33600
8529,33792
8530,33984
8531,33984
8532,33984
8533,34048
8534,34112
8535,34176
8536,34240
8537,34240
8538,34240
8539,34304
8540,34304
8541,34240
8542,34176
8543,34048
8544,33792
8545,33600
8546,33472
8547,33600
8548,33664
8549,33664
8550,33664
8551,33728
8552,33792
8553,33920
8554,33920
8555,33856
8556,33728
8557,33600
8558,33472
8559,33472
8560,33536
8561,33536
8562,33408
8563,33280
8564,33216
8565,33280
8566,33472
8567,33792
8568,33984
8569,33984
8570,33920
8571,33856
8572,33792
8573,33920
8574,33920
8575,33920
8576,33920
8577,33984
8578,34112
8579,34176
8580,34048
8581,34048
8582,34240
8583,34240
8584,34304
8585,34304
8586,34176
8587,34048
8588,33984
8589,33920
8590,33792
8591,34048
8592,34368
8593,34304
8594,34560
8595,34880
8596,34816
8597,34432
8598,34496
8599,35072
8600,35392
8601,35136
8602,34432
8603,33856
8604,33664
8605,33536
8606,33408
8607,33280
8608,33024
8609,32896
8610,32832
8611,32704
8612,32640
8613,32512
8614,32576
8615,32640
8616,32704
8617,32640
8618,32704
8619,32960
8620,33152
8621,33152
8622,33344
8623,33344
8624,33024
8625,32832
8626,32960
8627,33472
8628,34752
8629,36160
8630,37824
8631,40192
8632,42688
8633,44608
8634,44800
8635,43072
8636,39936
8637,36544
8638,34240
8639,32384
8640,31232
8641,30336
8642,29696
8643,29568
8644,30016
8645,30464
8646,30848
8647,31296
8648,31616
8649,31872
8650,32192
8651,32448
8652,32768
8653,33088
8654,33216
8655,33152
8656,33024
8657,33024
8658,33024
8659,33216
8660,33344
8661,33408
8662,33408
8663,33472
8664,33536
8665,33600
8666,33728
8667,33984
8668,34112
8669,34112
8670,34048
8671,33856
8672,33792
8673,33728
8674,33664
8675,33664
8676,33728
8677,33792
8678,33856
8679,33984
8680,33984
8681,34048
8682,34112
8683,33984
8684,33920
8685,33920
8686,33920
8687,33728
8688,33664
8689,33664
8690,33792
8691,33920
8692,34048
8693,34048
8694,34048
8695,33984
8696,33856
8697,33728
8698,33536
8699,33344
8700,33280
8701,33280
8702,33408
8703,33472
8704,33664
8705,33792
8706,33856
8707,33984
8708,34048
8709,34176
8710,34240
8711,34368
8712,34368
8713,34368
8714,34304
8715,34304
8716,34432
8717,34496
8718,34368
8719,34240
8720,34112
8721,34048
8722,34176
8723,34240
8724,34304
8725,34496
8726,34624
8727,34880
8728,34816
8729,34624
8730,34624
8731,34752
8732,34752
8733,34752
8734,34752
8735,34880
8736,35328
8737,35520
8738,35392
8739,35264
8740,35072
8741,35072
8742,35008
8743,34880
8744,35072
8745,35264
8746,35392
8747,35456
8748,35520
8749,35648
8750,35584
8751,34944
8752,34112
8753,33472
8754,33088
8755,33024
8756,32960
8757,33024
8758,33216
8759,33472
8760,33920
8761,34112
8762,33984
8763,33792
8764,33664
8765,33728
8766,33792
8767,33664
8768,33408
8769,33600
8770,34432
8771,36032
8772,38336
8773,40832
8774,43584
8775,45504
8776,45376
8777,43456
8778,40640
8779,37312
8780,34304
8781,32128
8782,30848
8783,30272
8784,30208
8785,30464
8786,30976
8787,31296
8788,31552
8789,31872
8790,32192
8791,32384
8792,32576
8793,32768
8794,32896
8795,33152
8796,33344
8797,33472
8798,33408
8799,33472
8800,33664
8801,34048
8802,34368
8803,34176
8804,33856
8805,33536
8806,33408
8807,33472
8808,33664
8809,33920
8810,34048
8811,34048
8812,33984
8813,34048
8814,34176
8815,34304
8816,34368
8817,34496
8818,34688
8819,34496
8820,34368
8821,34304
8822,34304
8823,34304
8824,34432
8825,34496
8826,34432
8827,34560
8828,34752
8829,34688
8830,34432
8831,34304
8832,34240
8833,34368
8834,34368
8835,34112
8836,34048
8837,34176
8838,34304
8839,34304
8840,34176
8841,33984
8842,33920
8843,33920
8844,33984
8845,33920
8846,33728
8847,33728
8848,33856
8849,34048
8850,34240
8851,34432
8852,34432
8853,34560
8854,34688
8855,34752
8856,34944
8857,35136
8858,35008
8859,34624
8860,34240
8861,34048
8862,34048
8863,34112
8864,34112
8865,33984
8866,33920
8867,33728
8868,33664
8869,33728
8870,33792
8871,33856
8872,34112
8873,34944
8874,35584
8875,35200
8876,34432
8877,33984
8878,33728
8879,33664
8880,33792
8881,33984
8882,34304
8883,34688
8884,34880
8885,35136
8886,35200
8887,35200
8888,35264
8889,35200
8890,35072
8891,34624
8892,34048
8893,33792
8894,33664
8895,33344
8896,33280
8897,33408
8898,33408
8899,33344
8900,33088
8901,32960
8902,33088
8903,33344
8904,33536
8905,33984
8906,34176
8907,33600
8908,32960
8909,32832
8910,33088
8911,33920
8912,35200
8913,36864
8914,39232
8915,41920
8916,44096
8917,44736
8918,43712
8919,40960
8920,38208
8921,35392
8922,32832
8923,31488
8924,31232
8925,30720
8926,30592
8927,30848
8928,30848
8929,31040
8930,31360
8931,31360
8932,31424
8933,31936
8934,32640
8935,32896
8936,32704
8937,32576
8938,32896
8939,32640
8940,32640
8941,32896
8942,33088
8943,33600
8944,33984
8945,34368
8946,34176
8947,33856
8948,34368
8949,35456
8950,35008
8951,33856
8952,33024
8953,32832
8954,32960
8955,33024
8956,33024
8957,33024
8958,33088
8959,33344
8960,33920
8961,34496
8962,34880
8963,35264
8964,35456
8965,35392
8966,35584
8967,35200
8968,34624
8969,33984
8970,33280
8971,32832
8972,32640
8973,33216
8974,33984
8975,34304
8976,34496
8977,34816
8978,34944
8979,34816
8980,34688
8981,34560
8982,34304
8983,33920
8984,33536
8985,33344
8986,33344
8987,33792
8988,33728
8989,33152
8990,32832
8991,32832
8992,33280
8993,33728
8994,33920
8995,34048
8996,34176
8997,34240
8998,34176
8999,33984
9000,33920
9001,34240
9002,35328
9003,35776
9004,35136
9005,34304
9006,33856
9007,33792
9008,33920
9009,33984
9010,34112
9011,34112
9012,34176
9013,34240
9014,34240
9015,34304
9016,34560
9017,34816
9018,35072
9019,35200
9020,35392
9021,35584
9022,35456
9023,35136
9024,34944
9025,34880
9026,34944
9027,35136
9028,35328
9029,35328
9030,35264
9031,35264
9032,35136
9033,34944
9034,34816
9035,34624
9036,34368
9037,34240
9038,34048
9039,34112
9040,34176
9041,34112
9042,34176
9043,33984
9044,33536
9045,33216
9046,33152
9047,33280
9048,33408
9049,33408
9050,33344
9051,33408
9052,33856
9053,34688
9054,35968
9055,37440
9056,39680
9057,42624
9058,44992
9059,46400
9060,46144
9061,43712
9062,39872
9063,36032
9064,33152
9065,31360
9066,30400
9067,30016
9068,30080
9069,30464
9070,30784
9071,31232
9072,31680
9073,32064
9074,32576
9075,33088
9076,33472
9077,33728
9078,33856
9079,33792
9080,33856
9081,33920
9082,34240
9083,34368
9084,34048
9085,33536
9086,33216
9087,33152
9088,33216
9089,33280
9090,33408
9091,33600
9092,33920
9093,34176
9094,34368
9095,34368
9096,34368
9097,34368
9098,34432
9099,34496
9100,34560
9101,34624
9102,34624
9103,34560
9104,34432
9105,34432
9106,34368
9107,34304
9108,34176
9109,34176
9110,34112
9111,34048
9112,33984
9113,33856
9114,33792
9115,33728
9116,33792
9117,33856
9118,33920
9119,33920
9120,33920
9121,33920
9122,33856
9123,33728
9124,33664
9125,33600
9126,33600
9127,33600
9128,33536
9129,33536
9130,33664
9131,33792
9132,33856
9133,33920
9134,33984
9135,33984
9136,34112
9137,34176
9138,34240
9139,34304
9140,34368
9141,34432
9142,34496
9143,34496
9144,34496
9145,34432
9146,34368
9147,34368
9148,34368
9149,34304
9150,34304
9151,34240
9152,34176
9153,34112
9154,34176
9155,34240
9156,34240
9157,34240
9158,34304
9159,34496
9160,34816
9161,35136
9162,35328
9163,35328
9164,35264
9165,35456
9166,35520
9167,35264
9168,35008
9169,34880
9170,34688
9171,34560
9172,34496
9173,34496
9174,34432
9175,34304
9176,34112
9177,33920
9178,33792
9179,33728
9180,33536
9181,33472
9182,33408
9183,33472
9184,33600
9185,33792
9186,33856
9187,33792
9188,33728
9189,33536
9190,33344
9191,33152
9192,33280
9193,33664
9194,34368
9195,35456
9196,36864
9197,38848
9198,41344
9199,43648
9200,44736
9201,44032
9202,41728
9203,38720
9204,35776
9205,33472
9206,31872
9207,30976
9208,30592
9209,30720
9210,31040
9211,31360
9212,31680
9213,32000
9214,32256
9215,32448
9216,32512
9217,32576
9218,32704
9219,32832
9220,33024
9221,33152
9222,33344
9223,33472
9224,33600
9225,33664
9226,33728
9227,33792
9228,33728
9229,33792
9230,33856
9231,33984
9232,34048
9233,33984
9234,33984
9235,33984
9236,33984
9237,34048
9238,34112
9239,34240
9240,34368
9241,34432
9242,34496
9243,34432
9244,34368
9245,34432
9246,34496
9247,34496
9248,34368
9249,34176
9250,34048
9251,33984
9252,33984
9253,34048
9254,34112
9255,34176
9256,34304
9257,34432
9258,34688
9259,34816
9260,34752
9261,34304
9262,33856
9263,33536
9264,33280
9265,33024
9266,32896
9267,32960
9268,33088
9269,33280
9270,33472
9271,33536
9272,33600
9273,33600
9274,33600
9275,33664
9276,33792
9277,33856
9278,33856
9279,33920
9280,33920
9281,33984
9282,34112
9283,34176
9284,34304
9285,34368
9286,34368
9287,34240
9288,34240
9289,34304
9290,34176
9291,34048
9292,34048
9293,34176
9294,34112
9295,34112
9296,34112
9297,34240
9298,34432
9299,34624
9300,34624
9301,34688
9302,34816
9303,34880
9304,34944
9305,34880
9306,35008
9307,35136
9308,35136
9309,34944
9310,34752
9311,34560
9312,34240
9313,33984
9314,33792
9315,33664
9316,33536
9317,33408
9318,33344
9319,33344
9320,33344
9321,33408
9322,33408
9323,33280
9324,33280
9325,33344
9326,33472
9327,33536
9328,33408
9329,33280
9330,33280
9331,33664
9332,34496
9333,35648
9334,37184
9335,39360
9336,41856
9337,43968
9338,44608
9339,43264
9340,40640
9341,37568
9342,34752
9343,32512
9344,31104
9345,30400
9346,30208
9347,30336
9348,30976
9349,31360
9350,31808
9351,32192
9352,32512
9353,32704
9354,32960
9355,33152
9356,33216
9357,33344
9358,33344
9359,33408
9360,33536
9361,33664
9362,33664
9363,33664
9364,33600
9365,33600
9366,33600
9367,33664
9368,33792
9369,33792
9370,33984
9371,33984
9372,33920
9373,33984
9374,33984
9375,34048
9376,34112
9377,34240
9378,34304
9379,34368
9380,34496
9381,34624
9382,34624
9383,34560
9384,34560
9385,34432
9386,34368
9387,34304
9388,34304
9389,34176
9390,34112
9391,33984
9392,33920
9393,33792
9394,33728
9395,33728
9396,33792
9397,33792
9398,33728
9399,33728
9400,33792
9401,33792
9402,33728
9403,33664
9404,33600
9405,33600
9406,33600
9407,33600
9408,33600
9409,33664
9410,33664
9411,33664
9412,33728
9413,33664
9414,33984
9415,34112
9416,34112
9417,34112
9418,34048
9419,34048
9420,34048
9421,33984
9422,33984
9423,33984
9424,33984
9425,34112
9426,34176
9427,34240
9428,34176
9429,34240
9430,34304
9431,34304
9432,34304
9433,34304
9434,34304
9435,34304
9436,34304
9437,34368
9438,34496
9439,34496
9440,34368
9441,34368
9442,34560
9443,34560
9444,34624
9445,34816
9446,34880
9447,34944
9448,34880
9449,34944
9450,34880
9451,34688
9452,34368
9453,34240
9454,33856
9455,33728
9456,33536
9457,33280
9458,33216
9459,33216
9460,33344
9461,33472
9462,33536
9463,33472
9464,33344
9465,33216
9466,33280
9467,33344
9468,33280
9469,33088
9470,33216
9471,33728
9472,34688
9473,36032
9474,38016
9475,40640
9476,43392
9477,45120
9478,44992
9479,43008
9480,39936
9481,36736
9482,33728
9483,31680
9484,30400
9485,29888
9486,29888
9487,30144
9488,30592
9489,31104
9490,31552
9491,31872
9492,32128
9493,32256
9494,32448
9495,32640
9496,32896
9497,33088
9498,33024
9499,33216
9500,33344
9501,33408
9502,33408
9503,33408
9504,33536
9505,33600
9506,33600
9507,33728
9508,33856
9509,33920
9510,33920
9511,33984
9512,34048
9513,34112
9514,34240
9515,34304
9516,34368
9517,34368
9518,34304
9519,34304
9520,34304
9521,34368
9522,34368
9523,34368
9524,34368
9525,34368
9526,34368
9527,34304
9528,34304
9529,34240
9530,34112
9531,33984
9532,33920
9533,33856
9534,33856
9535,33792
9536,33728
9537,33728
9538,33728
9539,33600
9540,33472
9541,33472
9542,33536
9543,33536
9544,33536
9545,33472
9546,33536
9547,33536
9548,33472
9549,33408
9550,33344
9551,33344
9552,33472
9553,33408
9554,33664
9555,33728
9556,33728
9557,33728
9558,33920
9559,34048
9560,34048
9561,34048
9562,34048
9563,34048
9564,34048
9565,34048
9566,34112
9567,34176
9568,34176
9569,34176
9570,34176
9571,34112
9572,34048
9573,33984
9574,33856
9575,33792
9576,33792
9577,33856
9578,33920
9579,33984
9580,34048
9581,34176
9582,34304
9583,34240
9584,34496
9585,34560
9586,34688
9587,34816
9588,34816
9589,34880
9590,35008
9591,35264
9592,35328
9593,35136
9594,34816
9595,34624
9596,34432
9597,34176
9598,33856
9599,33600
9600,33536
9601,33472
9602,33344
9603,33280
9604,33280
9605,33344
9606,33472
9607,33472
9608,33600
9609,33600
9610,33600
9611,33600
9612,33600
9613,33536
9614,33408
9615,33280
9616,33472
9617,34112
9618,35200
9619,36736
9620,38848
9621,41536
9622,44608
9623,44864
9624,44864
9625,42304
9626,39040
9627,35776
9628,33152
9629,31360
9630,30400
9631,30016
9632,30080
9633,30336
9634,30720
9635,31168
9636,31616
9637,32256
9638,32512
9639,32704
9640,32960
9641,33152
9642,33280
9643,33216
9644,33344
9645,33536
9646,33600
9647,33600
9648,33536
9649,33472
9650,33536
9651,33408
9652,32960
9653,32192
9654,31424
9655,31296
9656,31552
9657,31936
9658,31936
9659,32064
9660,32704
9661,33536
9662,34176
9663,34816
9664,35520
9665,36288
9666,37056
9667,37504
9668,37504
9669,37312
9670,36992
9671,36288
9672,35200
9673,35008
9674,34432
9675,34304
9676,34112
9677,33664
9678,32960
9679,32448
9680,32320
9681,32640
9682,33728
9683,34496
9684,34048
9685,33600
9686,33344
9687,32960
9688,32768
9689,32832
9690,32832
9691,32512
9692,32064
9693,31936
9694,32576
9695,33792
9696,34816
9697,35520
9698,35520
9699,34496
9700,33344
9701,33024
9702,33408
9703,34176
9704,34496
9705,34304
9706,34368
9707,34240
9708,34176
9709,33792
9710,34624
9711,37312
9712,38208
9713,36352
9714,34368
9715,33088
9716,32512
9717,32320
9718,32256
9719,32512
9720,33152
9721,33792
9722,34368
9723,34496
9724,34752
9725,34816
9726,34688
9727,34752
9728,34688
9729,34304
9730,34048
9731,33728
9732,33600
9733,33792
9734,34048
9735,34176
9736,34368
9737,34688
9738,34944
9739,35264
9740,35776
9741,36160
9742,35840
9743,35200
9744,34432
9745,34240
9746,34240
9747,34048
9748,33536
9749,33152
9750,32960
9751,32768
9752,32768
9753,33024
9754,32960
9755,32768
9756,32576
9757,32512
9758,33152
9759,33920
9760,33984
9761,33920
9762,33792
9763,33664
9764,33600
9765,33728
9766,34176
9767,34752
9768,35712
9769,37120
9770,39296
9771,41920
9772,43904
9773,44352
9774,42944
9775,40000
9776,36800
9777,34176
9778,32448
9779,31360
9780,30976
9781,30912
9782,30912
9783,30976
9784,31104
9785,31424
9786,31616
9787,31872
9788,32128
9789,32128
9790,32128
9791,32448
9792,32960
9793,33472
9794,33728
9795,33536
9796,33408
9797,33344
9798,33344
9799,33600
9800,33920
9801,34048
9802,33984
9803,33920
9804,34112
9805,34432
9806,34624
9807,34368
9808,33664
9809,33088
9810,32832
9811,32640
9812,32832
9813,33280
9814,33856
9815,34240
9816,34816
9817,34880
9818,34368
9819,33856
9820,33728
9821,33984
9822,34112
9823,33856
9824,33536
9825,33792
9826,34176
9827,33920
9828,33600
9829,32896
9830,32192
9831,31808
9832,31872
9833,32192
9834,32768
9835,33152
9836,33536
9837,34048
9838,34112
9839,33728
9840,32960
9841,32704
9842,32960
9843,33408
9844,33792
9845,34048
9846,33920
9847,33792
9848,33536
9849,33344
9850,33216
9851,33216
9852,33344
9853,33728
9854,34048
9855,34240
9856,34112
9857,33920
9858,33920
9859,33920
9860,34176
9861,34304
9862,34368
9863,34368
9864,34304
9865,34368
9866,34368
9867,34304
9868,34304
9869,34368
9870,34368
9871,34688
9872,34944
9873,34752
9874,34560
9875,34368
9876,34368
9877,34240
9878,33856
9879,33408
9880,33280
9881,33536
9882,33600
9883,33536
9884,33408
9885,33600
9886,34112
9887,34176
9888,34304
9889,34688
9890,35328
9891,35776
9892,35904
9893,35520
9894,34752
9895,34240
9896,34048
9897,34048
9898,34560
9899,34816
9900,34368
9901,33856
9902,33152
9903,32704
9904,32320
9905,32128
9906,32256
9907,32448
9908,32512
9909,32448
9910,32320
9911,32704
9912,33408
9913,33920
9914,33856
9915,33408
9916,32960
9917,32704
9918,32704
9919,33088
9920,33792
9921,35008
9922,36928
9923,39296
9924,42176
9925,44224
9926,44480
9927,42816
9928,39808
9929,36416
9930,33600
9931,31488
9932,30080
9933,29568
9934,29248
9935,29184
9936,29312
9937,29568
9938,29952
9939,30464
9940,30720
9941,31104
9942,31680
9943,32320
9944,32960
9945,33088
9946,32960
9947,32832
9948,32448
9949,32192
9950,32320
9951,32512
9952,32832
9953,33344
9954,33600
9955,33216
9956,32960
9957,32832
9958,32320
9959,31872
9960,31872
9961,32256
9962,33088
9963,34112
9964,34432
9965,34368
9966,34048
9967,33600
9968,33344
9969,33408
9970,33920
9971,34496
9972,34368
9973,33920
9974,33408
9975,33216
9976,33152
9977,33344
9978,33344
9979,33216
9980,33024
9981,33024
9982,33280
9983,33216
9984,33088
9985,33472
9986,34048
9987,33792
9988,33088
9989,32576
9990,32192
9991,31936
9992,32000
9993,32128
9994,32512
9995,32896
9996,32896
9997,32768
9998,32704
9999,32640
10000,32896
10001,33984
10002,34112
10003,33472
10004,32832
10005,32576
10006,32704
10007,32896
10008,33088
10009,33088
10010,32960
10011,32960
10012,33024
10013,33216
10014,33600
10015,34112
10016,34496
10017,34560
10018,34496
10019,34432
10020,34752
10021,34816
10022,34304
10023,33536
10024,33280
10025,33536
10026,33472
10027,33472
10028,33664
10029,34048
10030,34304
10031,34432
10032,34688
10033,35008
10034,35392
10035,35712
10036,36288
10037,36544
10038,36224
10039,35712
10040,35456
10041,35520
10042,35520
10043,35328
10044,35136
10045,35008
10046,34944
10047,35008
10048,35392
10049,35456
10050,35200
10051,35008
10052,34752
10053,34368
10054,34368
10055,34432
10056,34176
10057,34048
10058,34176
10059,34368
10060,34688
10061,34496
10062,34240
10063,34752
10064,35968
10065,37632
10066,39808
10067,42304
10068,44416
10069,45056
10070,43840
10071,41472
10072,38848
10073,36224
10074,33728
10075,32000
10076,30976
10077,31104
10078,31232
10079,31296
10080,31232
10081,31360
10082,31744
10083,32320
10084,32768
10085,33216
10086,33600
10087,33728
10088,33792
10089,33856
10090,33920
10091,33856
10092,33792
10093,33792
10094,33856
10095,33984
10096,34176
10097,34560
10098,34752
10099,34624
10100,34432
10101,34176
10102,34112
10103,34112
10104,33920
10105,33664
10106,33536
10107,33728
10108,33856
10109,33984
10110,34048
10111,34176
10112,34304
10113,34304
10114,34112
10115,33984
10116,33920
10117,33792
10118,33792
10119,33856
10120,33856
10121,33856
10122,33728
10123,33600
10124,33600
10125,33728
10126,33728
10127,33600
10128,33536
10129,33472
10130,33408
10131,33280
10132,33152
10133,33088
10134,32960
10135,32640
10136,32576
10137,32960
10138,33024
10139,32960
10140,33024
10141,33024
10142,32960
10143,32896
10144,33088
10145,33664
10146,34112
10147,34176
10148,34112
10149,33920
10150,33600
10151,33216
10152,32640
10153,32576
10154,32640
10155,32832
10156,33152
10157,33472
10158,33920
10159,34368
10160,34688
10161,34880
10162,35072
10163,34944
10164,34240
10165,33344
10166,32896
10167,32832
10168,32960
10169,33152
10170,33280
10171,33280
10172,33280
10173,33280
10174,33472
10175,34176
10176,34624
10177,34752
10178,34944
10179,34880
10180,34624
10181,34496
10182,34624
10183,34752
10184,35008
10185,35136
10186,35328
10187,35520
10188,35648
10189,35456
10190,35136
10191,34688
10192,34112
10193,33664
10194,33408
10195,33152
10196,33024
10197,33216
10198,33280
10199,33280
10200,33344
10201,33600
10202,33792
10203,33920
10204,33984
10205,33920
10206,33920
10207,33984
10208,34048
10209,34240
10210,34688
10211,35520
10212,36736
10213,38400
10214,40768
10215,43328
10216,45056
10217,44864
10218,42816
10219,39808
10220,36928
10221,34432
10222,32576
10223,31296
10224,30592
10225,30400
10226,30528
10227,30720
10228,31040
10229,31552
10230,32128
10231,32832
10232,33408
10233,33856
10234,33984
10235,33984
10236,33920
10237,33792
10238,33536
10239,33408
10240,33280
10241,33024
10242,32960
10243,33152
10244,33408
10245,33792
10246,34048
10247,34176
10248,34304
10249,34240
10250,34240
10251,34304
10252,34432
10253,34560
10254,34560
10255,34624
10256,34752
10257,34816
10258,34880
10259,34880
10260,34816
10261,34816
10262,34816
10263,34752
10264,34688
10265,34560
10266,34432
10267,34304
10268,34176
10269,34240
10270,34432
10271,34688
10272,34816
10273,34944
10274,35008
10275,34944
10276,34816
10277,34560
10278,34240
10279,34112
10280,34176
10281,34176
10282,34048
10283,33856
10284,33536
10285,33280
10286,33152
10287,32960
10288,32704
10289,32640
10290,32512
10291,32256
10292,31936
10293,31680
10294,31808
10295,32256
10296,32768
10297,33216
10298,33536
10299,33792
10300,33920
10301,34112
10302,34368
10303,34624
10304,34816
10305,35008
10306,35136
10307,35328
10308,35584
10309,35840
10310,36032
10311,36224
10312,36288
10313,36352
10314,36416
10315,36544
10316,36672
10317,36800
10318,36992
10319,37184
10320,37312
10321,37504
10322,37696
10323,38016
10324,38208
10325,38336
10326,38272
10327,38144
10328,38080
10329,38144
10330,38272
10331,38336
10332,38336
10333,38208
10334,37760
10335,37184
10336,36608
10337,36224
10338,36032
10339,36160
10340,36288
10341,36416
10342,36416
10343,36416
10344,36416
10345,36416
10346,36416
10347,36480
10348,36544
10349,36672
10350,36672
10351,36672
10352,36672
10353,36864
10354,37440
10355,38464
10356,40000
10357,42240
10358,44864
10359,47296
10360,48320
10361,47424
10362,44928
10363,41728
10364,38656
10365,36352
10366,34880
10367,33984
10368,33536
10369,33344
10370,33408
10371,33792
10372,34240
10373,34624
10374,34944
10375,35200
10376,35328
10377,35520
10378,35584
10379,35776
10380,35904
10381,35904
10382,35776
10383,35584
10384,35456
10385,35584
10386,35840
10387,36160
10388,36352
10389,36544
10390,36736
10391,36864
10392,36928
10393,36928
10394,36800
10395,36672
10396,36544
10397,36480
10398,36480
10399,36416
10400,36416
10401,36480
10402,36544
10403,36672
10404,36800
10405,36800
10406,36736
10407,36544
10408,36288
10409,36032
10410,35904
10411,35904
10412,35968
10413,35968
10414,36032
10415,36032
10416,36096
10417,36096
10418,36096
10419,36096
10420,36032
10421,35968
10422,35904
10423,35840
10424,35840
10425,35776
10426,35712
10427,35648
10428,35712
10429,35904
10430,36096
10431,36352
10432,36544
10433,36672
10434,36864
10435,36992
10436,37120
10437,37120
10438,36992
10439,36992
10440,37056
10441,37184
10442,37440
10443,37696
10444,37824
10445,37888
10446,37952
10447,37952
10448,37824
10449,37440
10450,37056
10451,36800
10452,36736
10453,36608
10454,36480
10455,36480
10456,36480
10457,36544
10458,36672
10459,36672
10460,36736
10461,36736
10462,36736
10463,36672
10464,36608
10465,36544
10466,36480
10467,36544
10468,36544
10469,36608
10470,36608
10471,36608
10472,36608
10473,36544
10474,36480
10475,36352
10476,36096
10477,35776
10478,35456
10479,35200
10480,35072
10481,34944
10482,34752
10483,34624
10484,34496
10485,34496
10486,34432
10487,34368
10488,34368
10489,34368
10490,34368
10491,34304
10492,34176
10493,34112
10494,34304
10495,34944
10496,36032
10497,37632
10498,40000
10499,42944
10500,45824
10501,47744
10502,47808
10503,46016
10504,43200
10505,40192
10506,37568
10507,35648
10508,34432
10509,33856
10510,33664
10511,33792
10512,33984
10513,34240
10514,34560
10515,34880
10516,35200
10517,35456
10518,35648
10519,35840
10520,35840
10521,35904
10522,35968
10523,36096
10524,36288
10525,36352
10526,36416
10527,36480
10528,36480
10529,36544
10530,36608
10531,36736
10532,36800
10533,36864
10534,36800
10535,36736
10536,36480
10537,36224
10538,35968
10539,35840
10540,35840
10541,35968
10542,36160
10543,36288
10544,36352
10545,36352
10546,36224
10547,36096
10548,36032
10549,35904
10550,35712
10551,35520
10552,35392
10553,35264
10554,35072
10555,34944
10556,34944
10557,35072
10558,35264
10559,35456
10560,35584
10561,35520
10562,35392
10563,35136
10564,34944
10565,34752
10566,34368
10567,34048
10568,33920
10569,33856
10570,33856
10571,33856
10572,33984
10573,34176
10574,34304
10575,34368
10576,34368
10577,34304
10578,34304
10579,34304
10580,34432
10581,34560
10582,34688
10583,34752
10584,34752
10585,34688
10586,34688
10587,34688
10588,34624
10589,34560
10590,34560
10591,34560
10592,34560
10593,34496
10594,34496
10595,34496
10596,34496
10597,34624
10598,34752
10599,34880
10600,34944
10601,35072
10602,35136
10603,35200
10604,35136
10605,35136
10606,35200
10607,35200
10608,35200
10609,35200
10610,35200
10611,35136
10612,35008
10613,34880
10614,34880
10615,34752
10616,34496
10617,34240
10618,34112
10619,34112
10620,33920
10621,33600
10622,33280
10623,33088
10624,32960
10625,32960
10626,33088
10627,33280
10628,33408
10629,33408
10630,33344
10631,33152
10632,32960
10633,32896
10634,33216
10635,34112
10636,35584
10637,37952
10638,41024
10639,43648
10640,45248
10641,45248
10642,43392
10643,40448
10644,37120
10645,34304
10646,32000
10647,30592
10648,29888
10649,29760
10650,30080
10651,30592
10652,31168
10653,31552
10654,31872
10655,32192
10656,32640
10657,32896
10658,32960
10659,32960
10660,33088
10661,33152
10662,33216
10663,33280
10664,33344
10665,33344
10666,33408
10667,33472
10668,33536
10669,33536
10670,33536
10671,33472
10672,33472
10673,33536
10674,33600
10675,33664
10676,33664
10677,33792
10678,33920
10679,33920
10680,33984
10681,34048
10682,34176
10683,34240
10684,34304
10685,34368
10686,34304
10687,34240
10688,34112
10689,34048
10690,34048
10691,33984
10692,33984
10693,33984
10694,33984
10695,33984
10696,33920
10697,33984
10698,33984
10699,34048
10700,34048
10701,34048
10702,33984
10703,33984
10704,33856
10705,33856
10706,33856
10707,33856
10708,33856
10709,33920
10710,33984
10711,33984
10712,33920
10713,33920
10714,33984
10715,34048
10716,34112
10717,34112
10718,34176
10719,34304
10720,34368
10721,34432
10722,34496
10723,34560
10724,34560
10725,34624
10726,34624
10727,34624
10728,34624
10729,34624
10730,34624
10731,34624
10732,34624
10733,34624
10734,34624
10735,34688
10736,34560
10737,34432
10738,34368
10739,34368
10740,34560
10741,34752
10742,34880
10743,35008
10744,35136
10745,35200
10746,35264
10747,35392
10748,35456
10749,35520
10750,35520
10751,35520
10752,35456
10753,35392
10754,35328
10755,35136
10756,35008
10757,34752
10758,34432
10759,34048
10760,33856
10761,33728
10762,33536
10763,33344
10764,33216
10765,33152
10766,33216
10767,33280
10768,33344
10769,33472
10770,33536
10771,33600
10772,33728
10773,33600
10774,33408
10775,33280
10776,33536
10777,34432
10778,35776
10779,37760
10780,40256
10781,43008
10782,45184
10783,45504
10784,43840
10785,40832
10786,37440
10787,34368
10788,32064
10789,30720
10790,30144
10791,30016
10792,30336
10793,30848
10794,31360
10795,31616
10796,31872
10797,32128
10798,32448
10799,32640
10800,32896
10801,33088
10802,33216
10803,33344
10804,33408
10805,33472
10806,33600
10807,33728
10808,33856
10809,34048
10810,34240
10811,34368
10812,34304
10813,34240
10814,34112
10815,34112
10816,34112
10817,34240
10818,34432
10819,34432
10820,34304
10821,34048
10822,33920
10823,33984
10824,34240
10825,34432
10826,34496
10827,34368
10828,34176
10829,33984
10830,33920
10831,34048
10832,34176
10833,34304
10834,34368
10835,34304
10836,34240
10837,34176
10838,34176
10839,34176
10840,34176
10841,34176
10842,34112
10843,34048
10844,34048
10845,33984
10846,33984
10847,33984
10848,34048
10849,33920
10850,33792
10851,33664
10852,33728
10853,33664
10854,33728
10855,33792
10856,33856
10857,33856
10858,33984
10859,34176
10860,34240
10861,34240
10862,34176
10863,34112
10864,34112
10865,34176
10866,34240
10867,34304
10868,34368
10869,34368
10870,34240
10871,34176
10872,34176
10873,34112
10874,34176
10875,34176
10876,34240
10877,34176
10878,34176
10879,34176
10880,34112
10881,34112
10882,34176
10883,34304
10884,34368
10885,34496
10886,34560
10887,34688
10888,34688
10889,34688
10890,34752
10891,34816
10892,34816
10893,34752
10894,34752
10895,34752
10896,34816
10897,34816
10898,34880
10899,34752
10900,34496
10901,34176
10902,33920
10903,33728
10904,33600
10905,33344
10906,33088
10907,32960
10908,32960
10909,33024
10910,33216
10911,33344
10912,33472
10913,33472
10914,33536
10915,33472
10916,33344
10917,33344
10918,33472
10919,33920
10920,34688
10921,35840
10922,37632
10923,40192
10924,43008
